Software Version:	3.9.2.0
Unit SN:	10000200
Spectrometer SN:	6960
Date:	3/8/2024 2:13:54 PM
Data Line Index:	25
Spectral Points:	2048
Integration time (ms):	125
Averages:	20
Delay (ms):	30000
Sequence Number:	1
Processing:	dark subtract
Laser Power (mW):	305
Laser Current (mA):	824
Laser Diode Temp (C):	25.1
Laser Case Temp (C):	26.3
System Temp (C):	26.3
Spectrometer Temp (C):	24.2
CCD Temp (C):	0.004
Secondary Temp (C):	20.001
Heatsink Temp (C):	20.971
CCDPCB Temp (C):	36.362
SecondaryPCB Temp (C):	31.861

Wavelength	RamanShift	Raw Counts	Dark Subtracted
787.061	30.1047	462.65	54
787.2016	32.3739	466.05	61.55
787.3422	34.6426	467.55	61.1
787.4828	36.9109	475.35	66.35
787.6235	39.1787	485.7	73
787.7642	41.4461	494.3	77.8
787.9049	43.7131	503.95	84.25
788.0456	45.9796	512.8	90.5
788.1863	48.2456	518.15	91.95
788.3271	50.5112	533.2	101.85
788.4679	52.7764	542.8	109.9
788.6087	55.0411	554.9	116.3
788.7496	57.3054	564.6	117.7
788.8904	59.5692	576.25	128.85
789.0313	61.8326	587.4	139.15
789.1722	64.0955	596.8	144.25
789.3132	66.3579	621.85	164.2
789.4541	68.6199	637.45	177.9
789.5951	70.8815	676.95	209.9
789.7361	73.1426	759.95	291.9
789.8771	75.4032	970.2	497.4
790.0181	77.6634	1496.15	1018.75
790.1592	79.9231	2729	2242.3
790.3003	82.1824	5418.25	4912.35
790.4414	84.4412	10261.25	9724.7
790.5825	86.6995	16912.8	16335.5
790.7237	88.9574	23347.6	22733.7
790.8648	91.2148	27840.5	27203.9
791.006	93.4717	29935.05	29286.95
791.1472	95.7282	30460.2	29800.9
791.2885	97.9842	30431.2	29770.9
791.4297	100.2398	29928.7	29263
791.571	102.4949	29355.95	28684.85
791.7123	104.7495	28657.85	27987.3
791.8536	107.0036	27933.45	27262.5
791.9949	109.2573	27211.3	26540.5
792.1363	111.5105	26486.95	25811.1
792.2777	113.7632	25814.55	25142.25
792.4191	116.0154	25207.35	24518.9
792.5605	118.2672	24757.5	24073.45
792.7019	120.5185	24274.9	23594.05
792.8434	122.7693	23958.7	23273.4
792.9849	125.0197	23670.5	22978.85
793.1264	127.2696	23410	22720.6
793.2679	129.519	23302.85	22604.15
793.4094	131.7679	23118.4	22417.2
793.551	134.0163	22997.75	22294.9
793.6926	136.2642	22824.5	22122.75
793.8342	138.5117	22622.75	21902.25
793.9758	140.7587	22415.95	21708.1
794.1175	143.0052	22268.5	21549.55
794.2591	145.2512	22029.2	21312.9
794.4008	147.4967	21870.6	21158.05
794.5425	149.7417	21702	20984.85
794.6842	151.9863	21583.05	20863.55
794.826	154.2304	21576.35	20851.25
794.9677	156.4739	21414.3	20685.95
795.1095	158.717	21377.55	20644.25
795.2513	160.9596	21235.2	20498.15
795.3931	163.2017	20995.15	20259.4
795.535	165.4433	20750.75	20009.65
795.6768	167.6844	20422.45	19675.75
795.8187	169.925	20118.15	19377.05
795.9606	172.1651	19755.7	19010.15
796.1025	174.4047	19462.55	18715.25
796.2445	176.6439	19226.9	18481.25
796.3864	178.8825	18994.5	18239.5
796.5284	181.1206	18884.35	18125.1
796.6704	183.3582	18728	17962.4
796.8124	185.5954	18652.5	17887.2
796.9544	187.832	18540.2	17769.15
797.0965	190.0681	18537.55	17765.65
797.2386	192.3037	18559.15	17785.85
797.3806	194.5388	18571.45	17790.95
797.5228	196.7734	18613.3	17831.85
797.6649	199.0075	18679.75	17896.1
797.807	201.2411	18875.6	18090.25
797.9492	203.4742	18952	18170.65
798.0914	205.7068	19163.45	18373.35
798.2336	207.9389	19242.45	18446.8
798.3758	210.1704	19426	18638.45
798.518	212.4015	19524.2	18749.15
798.6603	214.632	19708.5	18939.3
798.8025	216.862	19929.2	19163.55
798.9448	219.0915	20121.25	19348.2
799.0871	221.3205	20331.7	19559.45
799.2294	223.549	20596.55	19829.3
799.3718	225.777	20936.95	20169.9
799.5141	228.0044	21339.2	20563.85
799.6565	230.2314	21825.1	21046.1
799.7989	232.4578	22260.1	21480.85
799.9413	234.6837	22674.25	21892.65
800.0837	236.909	22864.5	22075.3
800.2262	239.1339	22889.75	22073.45
800.3687	241.3582	22676	21872.6
800.5111	243.582	22374.5	21545.05
800.6536	245.8053	22004.7	21193.75
800.7961	248.0281	21675.85	20861.8
800.9387	250.2503	21462.5	20648.55
801.0812	252.472	21325.3	20506.85
801.2238	254.6932	21293.4	20478.5
801.3664	256.9139	21160.65	20343.95
801.509	259.134	21143.85	20323.35
801.6516	261.3536	21130.7	20309.1
801.7942	263.5727	21164.05	20344.95
801.9369	265.7912	21103.15	20278.65
802.0795	268.0092	21138.5	20317.1
802.2222	270.2267	21109.65	20288.55
802.3649	272.4436	21090.05	20265.4
802.5076	274.6601	21068.9	20230.75
802.6504	276.8759	20968	20139.95
802.7931	279.0913	20980.3	20155.95
802.9359	281.3061	20944.5	20118.5
803.0787	283.5204	21055.75	20216.35
803.2215	285.7341	21169.5	20333
803.3643	287.9473	21371.25	20521.95
803.5071	290.16	21581.5	20740.45
803.6499	292.3721	21907.45	21073.95
803.7928	294.5837	22368.45	21531.35
803.9357	296.7947	22701.5	21866.75
804.0786	299.0052	22940.25	22102.8
804.2215	301.2152	22778.5	21941
804.3644	303.4246	22438.8	21602.65
804.5074	305.6334	21937.4	21104.45
804.6503	307.8418	21459.1	20618.2
804.7933	310.0495	21018.1	20176.2
804.9363	312.2568	20742.1	19901.85
805.0793	314.4635	20580.35	19731.1
805.2223	316.6696	20477.4	19625.65
805.3653	318.8752	20436.15	19578.95
805.5084	321.0802	20526.7	19678.25
805.6514	323.2847	20593.65	19742.1
805.7945	325.4887	20702.6	19851.9
805.9376	327.692	20627.75	19772.2
806.0807	329.8949	20564.95	19710
806.2238	332.0972	20310.4	19454.45
806.367	334.2989	20054.2	19194.8
806.5101	336.5001	19776.45	18917.05
806.6533	338.7007	19601.3	18741.7
806.7965	340.9008	19489.8	18629
806.9397	343.1003	19393.15	18529.6
807.0829	345.2992	19355.7	18490.2
807.2261	347.4976	19333.2	18468.4
807.3693	349.6955	19304.6	18433.85
807.5126	351.8927	19437.15	18566.3
807.6559	354.0895	19436.1	18556
807.7991	356.2856	19515.5	18642.95
807.9424	358.4812	19514.4	18642.65
808.0857	360.6763	19572.1	18693.1
808.2291	362.8707	19548.5	18674.65
808.3724	365.0646	19615	18734.25
808.5158	367.258	19615.7	18738.6
808.6591	369.4508	19626.55	18744.75
808.8025	371.643	19741.4	18859.35
808.9459	373.8346	19715.55	18831.2
809.0893	376.0257	19705.85	18820.35
809.2327	378.2162	19609.9	18728.95
809.3762	380.4062	19507.35	18625.9
809.5196	382.5956	19405.35	18529.3
809.6631	384.7844	19328.9	18453.65
809.8066	386.9726	19193.5	18320.3
809.9501	389.1603	19150.9	18280.35
810.0936	391.3474	19143.75	18247.75
810.2371	393.5339	19157.75	18282.75
810.3806	395.7199	19114.65	18239.5
810.5241	397.9052	19156.55	18280.2
810.6677	400.09	19164.5	18290.8
810.8113	402.2743	19233.3	18355.6
810.9548	404.4579	19338	18462.95
811.0984	406.641	19513.9	18636.45
811.2421	408.8235	19742.75	18864.3
811.3857	411.0054	20093.8	19209.55
811.5293	413.1868	20538.1	19647.85
811.673	415.3675	20882.55	19988.8
811.8166	417.5477	21116.1	20224.6
811.9603	419.7273	21143.05	20254.9
812.104	421.9064	21045.6	20152.55
812.2477	424.0848	20920.25	20033.45
812.3914	426.2627	20716.2	19826.85
812.5351	428.4399	20394.2	19505.6
812.6788	430.6166	20071.15	19172.7
812.8226	432.7928	19711.5	18815.9
812.9663	434.9683	19404.75	18508.65
813.1101	437.1432	19212.65	18319.7
813.2539	439.3176	19022.9	18141.25
813.3977	441.4914	18934.45	18051.15
813.5415	443.6645	18934.7	18051
813.6853	445.8371	18826.65	17933.55
813.8291	448.0091	18814.15	17918.4
813.973	450.1806	18768.25	17879.4
814.1168	452.3514	18719.95	17834.25
814.2607	454.5216	18748.3	17852.55
814.4046	456.6913	18673.25	17785.15
814.5485	458.8603	18681.3	17790.7
814.6924	461.0288	18778.7	17893.35
814.8363	463.1967	18830.3	17947.8
814.9802	465.3639	18976.25	18086.9
815.1241	467.5306	19068.85	18179
815.2681	469.6967	19195.8	18308.3
815.412	471.8622	19375.75	18492.65
815.556	474.0271	19560.2	18676.65
815.7	476.1914	19646.6	18748.7
815.844	478.3551	19598.7	18707.5
815.988	480.5182	19651.45	18765.75
816.132	482.6807	19616.4	18737.6
816.276	484.8426	19729.5	18855.8
816.4201	487.0039	20026.95	19147.3
816.5641	489.1647	20426.6	19534.4
816.7082	491.3248	20926.65	20035.1
816.8522	493.4843	21114.75	20229.3
816.9963	495.6432	21112.65	20228.1
817.1404	497.8015	21022.7	20122.9
817.2845	499.9592	21060.3	20157.1
817.4286	502.1163	21051.55	20149.75
817.5727	504.2728	20821.85	19929.05
817.7168	506.4287	20505.15	19621.75
817.861	508.5839	20095.7	19214.05
818.0051	510.7386	19801.8	18911.3
818.1493	512.8927	19611.2	18714.15
818.2935	515.0461	19481.35	18581.8
818.4377	517.199	19444.2	18541.95
818.5818	519.3512	19438	18534.6
818.726	521.5029	19535.1	18629.35
818.8703	523.6539	19629.05	18728.55
819.0145	525.8043	19673.05	18769.35
819.1587	527.9541	19742.15	18833.3
819.303	530.1033	19673.65	18771.3
819.4472	532.2519	19771.1	18869
819.5915	534.3999	19857.15	18953.75
819.7357	536.5472	20173.9	19271.8
819.88	538.694	20661.05	19765.75
820.0243	540.8401	21254.1	20351.05
820.1686	542.9856	21822.45	20907.15
820.3129	545.1305	22001.45	21078.85
820.4572	547.2748	21901.3	20977.1
820.6016	549.4185	21498.1	20572.45
820.7459	551.5615	21137.4	20212.7
820.8902	553.704	21006.6	20087.15
821.0346	555.8458	20969	20054.1
821.1789	557.987	20974.8	20060.85
821.3233	560.1276	20934.05	20019.05
821.4677	562.2675	20967.35	20050.45
821.6121	564.4069	21009	20092.95
821.7565	566.5456	20980.45	20070.05
821.9009	568.6837	20885.25	19975.4
822.0453	570.8212	20626.55	19718.15
822.1897	572.958	20308.85	19394.4
822.3342	575.0942	20073.95	19161.5
822.4786	577.2299	19901.6	18994.9
822.6231	579.3648	19879.05	18988.65
822.7675	581.4992	19934.6	19050.85
822.912	583.6329	20166.5	19287.5
823.0565	585.766	20391.75	19504.2
823.201	587.8985	20573.05	19678.1
823.3454	590.0304	20584.45	19670.9
823.4899	592.1616	20498.5	19582.85
823.6345	594.2922	20424.65	19509.3
823.779	596.4222	20294.7	19373.9
823.9235	598.5515	20138	19216.15
824.068	600.6802	19984.9	19062.9
824.2126	602.8083	19810.05	18896
824.3571	604.9358	19802.75	18882.7
824.5017	607.0626	19702.4	18781.15
824.6462	609.1888	19700.7	18771.75
824.7908	611.3144	19661.35	18731.3
824.9354	613.4393	19543.85	18617.35
825.08	615.5636	19433.05	18503.95
825.2246	617.6873	19359.15	18433.7
825.3692	619.8103	19313.75	18384.5
825.5138	621.9327	19243.4	18323.1
825.6584	624.0544	19194.95	18278.7
825.803	626.1756	19196.4	18275.3
825.9477	628.2961	19176.25	18249.55
826.0923	630.4159	19116.7	18191.3
826.237	632.5351	19093.25	18163.4
826.3816	634.6537	19038.3	18109.65
826.5263	636.7716	19052.8	18120.75
826.6709	638.8889	19085.75	18151.4
826.8156	641.0056	19152.75	18219.85
826.9603	643.1216	19124.75	18193.65
827.105	645.237	19206.05	18277.25
827.2497	647.3518	19184.85	18262
827.3944	649.4659	19234.1	18313.5
827.5391	651.5793	19248.8	18332.7
827.6838	653.6922	19215.9	18293.25
827.8285	655.8043	19251.8	18329.15
827.9733	657.9159	19236.9	18316.2
828.118	660.0268	19188.45	18265.15
828.2627	662.137	19126.5	18202.9
828.4075	664.2466	19107.25	18173.4
828.5522	666.3556	19127.35	18198.05
828.697	668.4639	19086.3	18162.15
828.8418	670.5716	19160	18240.85
828.9865	672.6786	19289.95	18361.45
829.1313	674.785	19315.65	18379.7
829.2761	676.8907	19379.95	18450.4
829.4209	678.9958	19450.3	18525.5
829.5657	681.1002	19450.8	18519.8
829.7105	683.204	19473.85	18533.85
829.8553	685.3072	19425.25	18487.85
830.0001	687.4097	19353.35	18421.05
830.1449	689.5115	19313.6	18378.2
830.2898	691.6127	19287.2	18357.15
830.4346	693.7132	19235.8	18311.4
830.5794	695.8131	19223.15	18274.6
830.7243	697.9123	19253.6	18318.05
830.8691	700.0109	19198.1	18258.75
831.014	702.1089	19218.7	18281.5
831.1588	704.2061	19223.35	18289.05
831.3037	706.3028	19266.85	18327.9
831.4486	708.3987	19343.7	18402.3
831.5935	710.4941	19420.35	18483
831.7383	712.5887	19645.2	18714.6
831.8832	714.6827	19931	18995.3
832.0281	716.7761	20302.05	19369.45
832.173	718.8688	20680.35	19744.9
832.3179	720.9608	20883.85	19941.05
832.4628	723.0522	20921	19973.95
832.6077	725.1429	20756.5	19816
832.7527	727.233	20495.2	19556.85
832.8976	729.3224	20267.2	19330.05
833.0425	731.4112	19945.2	19008.7
833.1874	733.4993	19761.55	18822.05
833.3324	735.5867	19621.55	18687.4
833.4773	737.6735	19520.45	18582.85
833.6222	739.7596	19494.55	18555.85
833.7672	741.845	19448	18505.95
833.9122	743.9298	19436.1	18495.9
834.0571	746.014	19445.5	18504.65
834.2021	748.0974	19480.15	18536
834.347	750.1802	19512.95	18564.1
834.492	752.2624	19507.6	18562.55
834.637	754.3439	19519.25	18570.2
834.782	756.4247	19590.4	18635.6
834.9269	758.5048	19701.95	18754.45
835.0719	760.5843	19909.3	18963.25
835.2169	762.6631	20229.6	19283.6
835.3619	764.7413	20688.4	19745.2
835.5069	766.8188	21266.1	20322.85
835.6519	768.8956	21682.5	20734.85
835.7969	770.9718	22033.95	21090.3
835.9419	773.0473	21852.55	20907.35
836.0869	775.1221	21550.75	20606.5
836.232	777.1962	21181.55	20236.5
836.377	779.2697	21015.3	20068.25
836.522	781.3426	21073.85	20108.05
836.667	783.4147	21352.8	20403.15
836.8121	785.4862	21630.15	20682.55
836.9571	787.557	21683.9	20736.7
837.1021	789.6271	21365.1	20414.75
837.2472	791.6966	20829.65	19878.15
837.3922	793.7654	20350.65	19400.55
837.5373	795.8335	20031.6	19086
837.6823	797.901	19856.1	18908.7
837.8274	799.9678	19807.95	18858.15
837.9724	802.0339	19809.35	18859.65
838.1175	804.0993	19893.5	18930.25
838.2626	806.1641	19884.2	18933.8
838.4076	808.2282	19839.2	18887.85
838.5527	810.2916	19738.05	18788.35
838.6978	812.3544	19735.7	18790
838.8428	814.4164	19599.35	18652.8
838.9879	816.4778	19641.5	18685.1
839.133	818.5385	19634.2	18680.85
839.2781	820.5986	19725.2	18771.05
839.4232	822.658	19844.8	18890.4
839.5682	824.7166	19938.85	18987.15
839.7133	826.7747	20171.25	19217.55
839.8584	828.832	20350.8	19396.35
840.0035	830.8886	20495.4	19540.8
840.1486	832.9446	20632.75	19676
840.2937	834.9999	20659.15	19706
840.4388	837.0545	20707.5	19747.4
840.5839	839.1085	20731.5	19773.55
840.729	841.1618	20716.1	19763.3
840.8741	843.2143	20700.1	19749.35
841.0192	845.2662	20585.15	19632.45
841.1643	847.3175	20591.45	19638.75
841.3095	849.368	20485.1	19531.35
841.4546	851.4179	20369.4	19415.2
841.5997	853.467	20214.75	19260.4
841.7448	855.5155	20120.6	19164.5
841.8899	857.5633	20077.65	19120.1
842.0351	859.6105	19955.5	18999.65
842.1802	861.6569	19910.85	18956.4
842.3253	863.7027	19867.95	18909.25
842.4704	865.7478	19862.75	18905.35
842.6156	867.7922	19858.6	18901.1
842.7607	869.8359	19931.5	18970.95
842.9058	871.8789	20084.55	19129.1
843.0509	873.9212	20248.75	19257.9
843.1961	875.9629	20390.5	19433
843.3412	878.0039	20561.5	19603.3
843.4863	880.0441	20734.5	19780.1
843.6315	882.0837	20752.75	19797.75
843.7766	884.1226	20658.9	19701.8
843.9218	886.1609	20584.1	19627.45
844.0669	888.1984	20482	19525.9
844.212	890.2352	20512.5	19556.5
844.3572	892.2714	20484	19521.6
844.5023	894.3069	20465.45	19508.25
844.6475	896.3416	20362.95	19402.85
844.7926	898.3757	20404.1	19448.05
844.9377	900.4091	20413.5	19449.6
845.0829	902.4418	20459.65	19493.65
845.228	904.4739	20414.4	19451.4
845.3732	906.5052	20464.5	19501.1
845.5183	908.5358	20347.4	19388.45
845.6635	910.5658	20187.25	19221.65
845.8086	912.595	20050.7	19090.75
845.9538	914.6236	19889.3	18930.45
846.0989	916.6515	19862.15	18902.35
846.2441	918.6786	19880.45	18920
846.3892	920.7051	19980.95	19018.75
846.5344	922.7309	20101.4	19141.05
846.6795	924.756	20133.5	19174.65
846.8246	926.7804	20272.9	19314.65
846.9698	928.8041	20187.3	19224.9
847.1149	930.8272	20254.45	19293.65
847.2601	932.8495	20189.4	19227.75
847.4052	934.8711	20134.75	19176.4
847.5504	936.892	19955.15	18994.1
847.6955	938.9123	19811.15	18849.6
847.8407	940.9318	19732.5	18773.3
847.9858	942.9506	19598.5	18637.7
848.131	944.9688	19489.15	18531.65
848.2761	946.9862	19484.45	18527.05
848.4213	949.003	19386.15	18424.75
848.5664	951.019	19372.75	18412.25
848.7115	953.0344	19416.95	18455.75
848.8567	955.0491	19439.55	18477.25
849.0018	957.063	19556.35	18594.55
849.147	959.0763	19734	18774.75
849.2921	961.0888	19688.25	18729.1
849.4373	963.1007	19845	18888.8
849.5824	965.1119	19908.95	18962.15
849.7275	967.1223	19920.65	18979.8
849.8727	969.1321	19961.15	19019.2
850.0178	971.1412	19982	19034.1
850.1629	973.1495	20024.3	19069.1
850.3081	975.1572	20097.55	19097.75
850.4532	977.1641	20123.35	19162.15
850.5983	979.1704	20082.8	19122.35
850.7435	981.1759	20064.3	19100.85
850.8886	983.1808	20167.1	19204.9
851.0337	985.1849	20224.2	19252.4
851.1788	987.1884	20381.15	19419.5
851.324	989.1911	20557.85	19596.55
851.4691	991.1932	20712.8	19754.05
851.6142	993.1945	20740.25	19781.6
851.7593	995.1951	20658.75	19698.95
851.9045	997.1951	20654.65	19688.8
852.0496	999.1943	20625.45	19665.75
852.1947	1001.1928	20527.2	19566.7
852.3398	1003.1906	20506.3	19548.35
852.4849	1005.1877	20555.6	19596.7
852.63	1007.1841	20519.95	19560.3
852.7751	1009.1798	20418.1	19458.05
852.9202	1011.1748	20234.85	19278.25
853.0653	1013.1691	20030.15	19071.55
853.2104	1015.1627	19814.15	18857.15
853.3555	1017.1556	19612.85	18658.95
853.5006	1019.1477	19550.55	18590.5
853.6457	1021.1392	19426.2	18477
853.7908	1023.1299	19386.55	18439.35
853.9359	1025.12	19423.45	18486.25
854.081	1027.1093	19450.85	18525.7
854.2261	1029.0979	19531.45	18610.7
854.3712	1031.0859	19602.8	18673.1
854.5163	1033.0731	19577.7	18633.4
854.6613	1035.0596	19512.65	18564.25
854.8064	1037.0454	19333.9	18382.75
854.9515	1039.0304	19272.05	18319.6
855.0965	1041.0148	19139.9	18183.25
855.2416	1042.9985	19023.2	18063.25
855.3867	1044.9814	19022.65	18067.55
855.5317	1046.9636	18958.65	18003.2
855.6768	1048.9452	18916.5	17962.85
855.8219	1050.926	18955.45	17999.25
855.9669	1052.9061	18973.35	18014.05
856.112	1054.8855	18898.8	17938.65
856.257	1056.8642	19000.6	18039.4
856.4021	1058.8421	19064.05	18099.35
856.5471	1060.8194	19072.35	18115.9
856.6921	1062.7959	19094.2	18136.9
856.8372	1064.7717	19138	18180.7
856.9822	1066.7469	19135.9	18178.3
857.1272	1068.7213	19137.6	18176.15
857.2723	1070.695	19127.15	18171.2
857.4173	1072.6679	19033.05	18074
857.5623	1074.6402	18985.15	18025.85
857.7073	1076.6117	19003.95	18041.3
857.8523	1078.5826	19031.45	18074.3
857.9973	1080.5527	19037.6	18083.2
858.1423	1082.5221	19119.8	18165.2
858.2873	1084.4908	19285.45	18328.1
858.4323	1086.4587	19466.75	18510
858.5773	1088.426	19612	18652.05
858.7223	1090.3925	19644.5	18678.45
858.8673	1092.3584	19590.45	18631.9
859.0123	1094.3235	19398.9	18442.85
859.1573	1096.2879	19332.15	18375.55
859.3022	1098.2515	19336.45	18379.2
859.4472	1100.2145	19396.7	18442.2
859.5922	1102.1767	19477.5	18516.5
859.7371	1104.1382	19623.65	18668.05
859.8821	1106.099	19788.7	18829.4
860.027	1108.0591	20020.45	19063
860.172	1110.0185	20157.3	19198.6
860.3169	1111.9771	20175.55	19218.75
860.4619	1113.9351	19941.25	18983.95
860.6068	1115.8923	19670	18717.85
860.7517	1117.8488	19337.05	18374.55
860.8967	1119.8045	19085.55	18132.75
861.0416	1121.7596	18992.15	18035.65
861.1865	1123.7139	18878.55	17923.9
861.3314	1125.6675	18847.9	17891.95
861.4763	1127.6204	18974.35	18019.35
861.6212	1129.5726	18930.35	17974.65
861.7661	1131.524	18990.35	18035.1
861.911	1133.4748	18967.5	18013.7
862.0559	1135.4248	18924.5	17966.95
862.2008	1137.3741	18929.45	17976.35
862.3457	1139.3226	18913.8	17954.85
862.4905	1141.2705	18882.75	17923.7
862.6354	1143.2176	18735.95	17773.75
862.7803	1145.164	18799.4	17839.75
862.9251	1147.1097	18793.25	17837.15
863.07	1149.0546	18800.9	17845.1
863.2148	1150.9989	18724.9	17769.1
863.3597	1152.9424	18613.75	17659.3
863.5045	1154.8852	18414.35	17459.1
863.6493	1156.8272	18296.65	17338.65
863.7942	1158.7686	18245.3	17281.45
863.939	1160.7092	18211.8	17255.8
864.0838	1162.6491	18204.25	17248.55
864.2286	1164.5883	18296	17339.3
864.3734	1166.5267	18340.25	17385.4
864.5182	1168.4644	18514.75	17559.4
864.663	1170.4014	18666.8	17711.1
864.8078	1172.3377	18899.7	17948.85
864.9526	1174.2732	19118.55	18166.75
865.0974	1176.2081	19374.4	18420.3
865.2421	1178.1421	19578.35	18623.3
865.3869	1180.0755	19805.3	18849.05
865.5317	1182.0082	19876.4	18923.45
865.6764	1183.9401	19855.8	18904.4
865.8212	1185.8713	19722.25	18774.7
865.9659	1187.8017	19434.2	18495.85
866.1106	1189.7315	19201.6	18275.85
866.2554	1191.6605	18902.2	17976.95
866.4001	1193.5888	18681.5	17749.5
866.5448	1195.5163	18597.9	17654.3
866.6895	1197.4432	18491.5	17543
866.8342	1199.3693	18421.65	17470
866.9789	1201.2947	18373.2	17417.4
867.1236	1203.2193	18342.6	17389.5
867.2683	1205.1432	18384.6	17432.15
867.413	1207.0664	18365.6	17416.45
867.5576	1208.9889	18401.75	17448.45
867.7023	1210.9106	18434.55	17482.3
867.847	1212.8316	18496.05	17547.45
867.9916	1214.7519	18548.4	17588.55
868.1363	1216.6715	18545.35	17593.35
868.2809	1218.5903	18546.9	17595.2
868.4255	1220.5084	18506.65	17556.75
868.5701	1222.4257	18518.35	17569
868.7148	1224.3424	18422.45	17472.55
868.8594	1226.2583	18464.2	17512.65
869.004	1228.1735	18587.8	17636.8
869.1486	1230.0879	18641	17690.3
869.2932	1232.0016	18754.9	17804.6
869.4377	1233.9146	18788.3	17834.75
869.5823	1235.8269	18669.35	17716.7
869.7269	1237.7384	18532.95	17582.55
869.8715	1239.6492	18321.05	17373.4
870.016	1241.5592	18287.55	17335.35
870.1606	1243.4686	18159.05	17208.8
870.3051	1245.3772	18128.85	17183.6
870.4496	1247.285	18079	17130.95
870.5941	1249.1922	18033.4	17083.25
870.7387	1251.0986	18028.9	17080.6
870.8832	1253.0042	18016.55	17067.45
871.0277	1254.9092	18077.15	17128.3
871.1722	1256.8134	18146.75	17203.7
871.3167	1258.7169	18257.2	17309.1
871.4611	1260.6196	18414.05	17466.6
871.6056	1262.5216	18621.2	17671.5
871.7501	1264.4229	18746.65	17799.8
871.8945	1266.3234	18892.8	17945.2
872.039	1268.2232	18966.3	18016.9
872.1834	1270.1223	18958.35	18011.2
872.3278	1272.0207	18936.4	17988.9
872.4723	1273.9183	18908.45	17953.85
872.6167	1275.8151	18835.3	17887.35
872.7611	1277.7113	18737.45	17792.45
872.9055	1279.6067	18588.2	17644.95
873.0499	1281.5014	18475.85	17528.95
873.1943	1283.3953	18405.05	17457.15
873.3386	1285.2885	18424.2	17480.2
873.483	1287.181	18451.2	17505.3
873.6274	1289.0727	18525.45	17579.4
873.7717	1290.9637	18560.05	17617
873.9161	1292.854	18706.65	17757.4
874.0604	1294.7435	18835.45	17887.65
874.2047	1296.6323	19050.15	18106.05
874.349	1298.5204	19277.15	18328.9
874.4933	1300.4077	19501.2	18552.3
874.6376	1302.2943	19635.1	18692.5
874.7819	1304.1802	19667.55	18722.45
874.9262	1306.0653	19534.15	18589.45
875.0705	1307.9497	19358.1	18414.4
875.2147	1309.8333	19228.4	18284
875.359	1311.7162	19101.4	18156.95
875.5032	1313.5984	19147.15	18197.25
875.6475	1315.4798	19161.7	18203.75
875.7917	1317.3605	19248.3	18286.15
875.9359	1319.2405	19311.1	18357.75
876.0801	1321.1197	19286.15	18336.8
876.2243	1322.9982	19157.7	18208.7
876.3685	1324.876	19107.15	18159.55
876.5127	1326.753	19003.25	18057.55
876.6569	1328.6293	18993.5	18040.1
876.801	1330.5048	18954.05	18004.05
876.9452	1332.3796	18909.8	17962.95
877.0893	1334.2537	18904.35	17929.9
877.2335	1336.127	18828.4	17880.85
877.3776	1337.9996	18796	17851.6
877.5217	1339.8714	18718.2	17771
877.6658	1341.7426	18756.95	17766.85
877.8099	1343.6129	18642.4	17696.25
877.954	1345.4826	18569.2	17621
878.0981	1347.3515	18587.75	17639.85
878.2422	1349.2196	18500.55	17555.1
878.3862	1351.087	18500.65	17553.9
878.5303	1352.9537	18528.95	17581
878.6743	1354.8197	18665.4	17716.45
878.8184	1356.6849	18820.65	17870.3
878.9624	1358.5493	18895.75	17949.2
879.1064	1360.4131	18910.45	17967.75
879.2504	1362.276	18841.75	17895.1
879.3944	1364.1383	18682.25	17738.8
879.5384	1365.9998	18469.35	17513.8
879.6823	1367.8606	18130.7	17181.45
879.8263	1369.7206	17804.05	16856.35
879.9702	1371.5799	17577.35	16629.25
880.1142	1373.4384	17426.65	16480.8
880.2581	1375.2962	17291.25	16341.65
880.402	1377.1533	17027.15	16082.5
880.5459	1379.0096	16721.5	15780.6
880.6898	1380.8652	16413.05	15476.65
880.8337	1382.7201	16149.95	15209.75
880.9776	1384.5742	15903.35	14961.9
881.1215	1386.4275	15722.15	14773.35
881.2653	1388.2802	15582.55	14633.55
881.4092	1390.132	15446.9	14497.25
881.553	1391.9832	15402.1	14456.15
881.6968	1393.8336	15278.6	14334.6
881.8406	1395.6832	15228.15	14281.65
881.9844	1397.5322	15183.05	14238.6
882.1282	1399.3803	15135.6	14189.15
882.272	1401.2278	15099.95	14158.1
882.4158	1403.0745	15068.7	14129.75
882.5595	1404.9204	15004.6	14062.2
882.7033	1406.7656	15034.6	14091.6
882.847	1408.6101	15019.9	14075.65
882.9908	1410.4538	15020.1	14075.4
883.1345	1412.2968	15031.1	14087.55
883.2782	1414.139	15019.55	14079
883.4219	1415.9805	15120.75	14177.85
883.5656	1417.8213	15164.65	14214.65
883.7092	1419.6613	15267.15	14325.9
883.8529	1421.5006	15442.35	14498.75
883.9965	1423.3391	15674.65	14730.75
884.1402	1425.1769	15956.65	15013.75
884.2838	1427.0139	16458.6	15512.05
884.4274	1428.8502	17009.95	16068.05
884.571	1430.6858	17551.35	16607.3
884.7146	1432.5206	17954.25	17008.85
884.8582	1434.3547	18176.05	17231.15
885.0018	1436.188	18170.1	17224.9
885.1453	1438.0206	18124.95	17179.2
885.2889	1439.8524	17922.65	16980.65
885.4324	1441.6835	17867.95	16927.05
885.5759	1443.5139	17724.25	16779.9
885.7194	1445.3435	17615.55	16673.25
885.8629	1447.1724	17588.6	16650.4
886.0064	1449.0005	17464.95	16527.2
886.1499	1450.8279	17374.25	16431.7
886.2933	1452.6545	17350.65	16411.45
886.4368	1454.4804	17345.2	16406.8
886.5802	1456.3056	17333.45	16388.25
886.7237	1458.13	17233.2	16299
886.8671	1459.9536	17047.25	16111.25
887.0105	1461.7766	16689.95	15749.6
887.1539	1463.5987	16286.5	15344.5
887.2972	1465.4202	15856.05	14917
887.4406	1467.2409	15528.75	14584.8
887.584	1469.0608	15259.1	14320.9
887.7273	1470.88	14956.9	14017.45
887.8706	1472.6984	14730.8	13788.6
888.0139	1474.5161	14525.65	13581.25
888.1572	1476.3331	14344.75	13406.7
888.3005	1478.1493	14221.5	13279.95
888.4438	1479.9648	14098.3	13155.15
888.5871	1481.7795	14003.15	13065.6
888.7303	1483.5935	13921.95	12979.2
888.8736	1485.4067	13852	12911.95
889.0168	1487.2192	13784.1	12841.25
889.16	1489.031	13731.1	12788.7
889.3032	1490.842	13712.95	12773.95
889.4464	1492.6522	13644.1	12704.5
889.5896	1494.4618	13613.6	12674.15
889.7327	1496.2705	13547.25	12606.85
889.8759	1498.0785	13537	12600.65
890.019	1499.8858	13476.8	12539.7
890.1622	1501.6924	13430.3	12492.15
890.3053	1503.4981	13392.6	12453.45
890.4484	1505.3032	13376.8	12438.1
890.5914	1507.1075	13331.15	12390.7
890.7345	1508.911	13297.95	12361.65
890.8776	1510.7138	13268.25	12328.05
891.0206	1512.5159	13177.75	12241.75
891.1637	1514.3172	13115.7	12179.8
891.3067	1516.1178	13047.85	12110.75
891.4497	1517.9176	13024.85	12084.7
891.5927	1519.7166	12968.15	12031.1
891.7357	1521.515	12904.25	11960.4
891.8786	1523.3126	12890.85	11956.15
892.0216	1525.1094	12849.5	11913.65
892.1645	1526.9055	12785	11852.65
892.3074	1528.7008	12748.5	11813.85
892.4503	1530.4954	12667.2	11731.15
892.5932	1532.2893	12648.4	11718.6
892.7361	1534.0824	12593.05	11659.1
892.879	1535.8747	12583.05	11655.45
893.0218	1537.6663	12556.5	11628.4
893.1647	1539.4572	12535.75	11602.85
893.3075	1541.2473	12514	11583.9
893.4503	1543.0367	12503.95	11574.4
893.5931	1544.8253	12469.25	11533
893.7359	1546.6132	12456.5	11522.15
893.8787	1548.4003	12432.75	11492.85
894.0214	1550.1867	12468.25	11530.1
894.1642	1551.9723	12446.85	11518.55
894.3069	1553.7572	12440.1	11509.7
894.4496	1555.5414	12465.15	11538.95
894.5923	1557.3247	12493.75	11570.2
894.735	1559.1074	12556.9	11634.75
894.8777	1560.8893	12608.35	11685.35
895.0204	1562.6705	12675.05	11751.95
895.163	1564.4509	12715.7	11794.55
895.3056	1566.2305	12747.65	11829.1
895.4482	1568.0094	12818.55	11900.95
895.5908	1569.7876	12851.9	11933.65
895.7334	1571.565	12864.3	11940.95
895.876	1573.3417	12893.05	11968.75
896.0186	1575.1176	12879.9	11958.9
896.1611	1576.8928	12811.95	11893.8
896.3036	1578.6672	12721.8	11807.35
896.4461	1580.4409	12597.65	11687.25
896.5886	1582.2138	12453.2	11536.5
896.7311	1583.986	12324.25	11406.35
896.8736	1585.7575	12276.15	11356.3
897.0161	1587.5282	12180.15	11267.6
897.1585	1589.2981	12155.5	11243.95
897.3009	1591.0673	12082.6	11172.25
897.4433	1592.8358	12078.9	11166.05
897.5857	1594.6035	12107.85	11189.65
897.7281	1596.3704	12065.3	11144.15
897.8705	1598.1366	12083.5	11167.75
898.0128	1599.9021	12132.5	11218.45
898.1551	1601.6668	12159.25	11243.65
898.2975	1603.4308	12156.05	11237.85
898.4398	1605.194	12272.05	11351.5
898.5821	1606.9564	12379.1	11474.85
898.7243	1608.7182	12499.8	11595.1
898.8666	1610.4791	12619.65	11721.5
899.0088	1612.2394	12736.95	11837.7
899.1511	1613.9988	12901.5	12000.35
899.2933	1615.7576	13130.05	12222.95
899.4355	1617.5156	13334.25	12412.55
899.5776	1619.2728	13523.1	12604.8
899.7198	1621.0293	13650.35	12735.5
899.862	1622.785	13646.8	12731.7
900.0041	1624.54	13514.2	12606.15
900.1462	1626.2942	13360.3	12453.75
900.2883	1628.0477	13107.1	12198.55
900.4304	1629.8005	12889.75	11978.45
900.5725	1631.5525	12655.7	11747.8
900.7145	1633.3037	12478.6	11573.85
900.8566	1635.0542	12333.4	11428.15
900.9986	1636.804	12187.3	11278.9
901.1406	1638.553	12216.6	11227.6
901.2826	1640.3013	12087	11178.2
901.4245	1642.0488	12040.45	11131.45
901.5665	1643.7955	12033.05	11127.65
901.7085	1645.5416	12073.8	11168.75
901.8504	1647.2868	12139.1	11233.35
901.9923	1649.0313	12197.5	11290.55
902.1342	1650.7751	12340.15	11430.45
902.2761	1652.5181	12500.4	11594.5
902.4179	1654.2604	12663.85	11760.1
902.5598	1656.0019	12919.2	12014.5
902.7016	1657.7427	13207	12301.85
902.8434	1659.4828	13539.1	12633.3
902.9852	1661.222	13703.65	12795.2
903.127	1662.9606	13681.85	12774.15
903.2687	1664.6984	13480.6	12568.65
903.4105	1666.4354	13108.3	12197.9
903.5522	1668.1717	12595.95	11685.8
903.6939	1669.9072	12085.7	11173.8
903.8356	1671.642	11681.2	10767.2
903.9773	1673.3761	11337.85	10428.85
904.119	1675.1094	11013.5	10103
904.2606	1676.8419	10806.9	9897.5
904.4022	1678.5737	10618.35	9709.55
904.5439	1680.3048	10526.95	9615.3
904.6855	1682.0351	10379.75	9471.95
904.827	1683.7646	10271.05	9359.25
904.9686	1685.4934	10193.55	9283.2
905.1101	1687.2215	10102.8	9194.9
905.2517	1688.9488	10024.85	9120.6
905.3932	1690.6754	9969.15	9062.4
905.5347	1692.4012	9924.75	9015.05
905.6761	1694.1263	9879.25	8973.2
905.8176	1695.8506	9845.2	8938
905.9591	1697.5742	9805.6	8902.35
906.1005	1699.297	9752.4	8851.85
906.2419	1701.0191	9689	8788.85
906.3833	1702.7404	9652.4	8752.55
906.5246	1704.461	9578.55	8673.85
906.666	1706.1808	9527.5	8620.35
906.8073	1707.8999	9532.35	8630.75
906.9487	1709.6182	9490.7	8592.8
907.09	1711.3358	9453.4	8558.5
907.2313	1713.0527	9421.35	8526.3
907.3725	1714.7688	9368.7	8467.2
907.5138	1716.4841	9329.75	8427.35
907.655	1718.1987	9310.05	8403.5
907.7962	1719.9126	9279.65	8379.6
907.9374	1721.6257	9234.7	8336.15
908.0786	1723.338	9196.5	8301.2
908.2198	1725.0496	9160.5	8262.95
908.3609	1726.7605	9152.35	8249.55
908.502	1728.4706	9110.8	8211.05
908.6431	1730.18	9051.85	8153.8
908.7842	1731.8886	9044.6	8148.6
908.9253	1733.5964	9031.2	8129.4
909.0664	1735.3036	8989.1	8091.25
909.2074	1737.0099	8957.3	8058.1
909.3484	1738.7156	8949.15	8054.05
909.4894	1740.4204	8913	8014.25
909.6304	1742.1246	8890.2	7991.8
909.7714	1743.8279	8874.4	7980.2
909.9123	1745.5306	8838.25	7941.9
910.0532	1747.2325	8789.45	7893.85
910.1941	1748.9336	8762.65	7865.1
910.335	1750.634	8742.35	7842.7
910.4759	1752.3336	8704.35	7805.3
910.6168	1754.0325	8684.25	7793.1
910.7576	1755.7307	8660	7767.05
910.8984	1757.4281	8659.35	7761.2
911.0392	1759.1247	8642.55	7733.05
911.18	1760.8206	8637.75	7732.15
911.3208	1762.5158	8622	7716.15
911.4615	1764.2102	8579.15	7681.8
911.6022	1765.9039	8537.95	7640.8
911.7429	1767.5968	8522.75	7627.65
911.8836	1769.289	8493.05	7599.2
912.0243	1770.9804	8447.25	7548.65
912.1649	1772.6711	8474.15	7571.25
912.3056	1774.361	8428.75	7527.45
912.4462	1776.0502	8428.5	7528.75
912.5868	1777.7386	8399.1	7498.85
912.7274	1779.4263	8377	7480.8
912.8679	1781.1132	8379.8	7488.55
913.0084	1782.7994	8319.2	7428.45
913.149	1784.4849	8327.6	7434.9
913.2895	1786.1696	8294.85	7396.6
913.4299	1787.8535	8255.45	7363.35
913.5704	1789.5367	8242.7	7352.8
913.7108	1791.2192	8251.35	7360.3
913.8513	1792.9009	8224.2	7302.65
913.9917	1794.5818	8193.4	7294.25
914.132	1796.2621	8156	7259.45
914.2724	1797.9415	8158.55	7264.25
914.4128	1799.6202	8117.65	7217.7
914.5531	1801.2982	8138.1	7238.7
914.6934	1802.9755	8106.8	7208.35
914.8337	1804.6519	8083.95	7185.6
914.9739	1806.3277	8031.85	7135.65
915.1142	1808.0027	8007.65	7115.4
915.2544	1809.6769	7969.6	7079.9
915.3946	1811.3504	7973.7	7084.5
915.5348	1813.0231	7964.5	7073.6
915.675	1814.6951	7940.9	7049.15
915.8151	1816.3664	7963.1	7065.15
915.9553	1818.0369	7920.8	7024.35
916.0954	1819.7067	7889.6	6995.2
916.2355	1821.3757	7876.3	6978.7
916.3755	1823.044	7888.65	6989.85
916.5156	1824.7115	7871.45	6973.75
916.6556	1826.3783	7813.25	6917.65
916.7956	1828.0443	7793.8	6901.6
916.9356	1829.7096	7764	6867.6
917.0756	1831.3741	7746.35	6849.1
917.2155	1833.0379	7740.55	6848.5
917.3555	1834.701	7708.85	6817.9
917.4954	1836.3633	7696.2	6805.5
917.6353	1838.0248	7704.5	6811.55
917.7751	1839.6856	7679.85	6785.15
917.915	1841.3457	7668.9	6775.4
918.0548	1843.005	7661.3	6766.2
918.1946	1844.6636	7637.55	6743.85
918.3344	1846.3214	7629.6	6734.65
918.4742	1847.9785	7600.4	6708.1
918.6139	1849.6349	7597.3	6702.1
918.7537	1851.2904	7570.95	6662.95
918.8934	1852.9453	7559.3	6660.55
919.0331	1854.5994	7534.55	6637
919.1727	1856.2528	7554.1	6654.5
919.3124	1857.9054	7523.95	6629.45
919.452	1859.5572	7486.7	6595.4
919.5916	1861.2083	7469.5	6574.3
919.7312	1862.8587	7467.1	6569.7
919.8708	1864.5084	7468.55	6569.9
920.0103	1866.1572	7440.45	6541.9
920.1498	1867.8054	7390.9	6491.85
920.2893	1869.4528	7367.75	6471.05
920.4288	1871.0994	7378.8	6481.5
920.5683	1872.7453	7367.5	6470.55
920.7077	1874.3905	7368.3	6454.15
920.8471	1876.0349	7306.1	6406.25
920.9865	1877.6786	7298.5	6402.65
921.1259	1879.3215	7295.15	6398.1
921.2653	1880.9637	7266	6373.45
921.4046	1882.6051	7265.4	6370.9
921.5439	1884.2458	7226.95	6332.2
921.6832	1885.8858	7222.15	6328.4
921.8225	1887.525	7209.35	6314.65
921.9617	1889.1634	7160.6	6263.55
922.101	1890.8011	7151.25	6252.85
922.2402	1892.4381	7145.25	6246.35
922.3794	1894.0743	7135.8	6238.85
922.5185	1895.7098	7112.2	6218.25
922.6577	1897.3446	7088.25	6189.8
922.7968	1898.9786	7054	6158.05
922.9359	1900.6118	7070.3	6178.3
923.075	1902.2443	7026.15	6130.85
923.214	1903.8761	7006.1	6110.7
923.3531	1905.5071	6985.35	6090.85
923.4921	1907.1374	6950.65	6053.25
923.6311	1908.7669	6956.35	6061.05
923.77	1910.3957	6938.65	6044.9
923.909	1912.0237	6883.7	5989.85
924.0479	1913.651	6879.05	5985
924.1868	1915.2776	6873.7	5982.15
924.3257	1916.9034	6843.45	5950.7
924.4646	1918.5285	6816.25	5928.2
924.6034	1920.1528	6784.15	5890.2
924.7422	1921.7764	6784.95	5890.25
924.881	1923.3992	6745.6	5851.8
925.0198	1925.0213	6713.85	5821.15
925.1586	1926.6427	6668.15	5775.05
925.2973	1928.2633	6751.8	5761.25
925.436	1929.8832	6692.2	5795.35
925.5747	1931.5023	6656.05	5763.05
925.7134	1933.1207	6633.9	5739.35
925.852	1934.7383	6614.7	5720.35
925.9906	1936.3552	6579	5688.1
926.1292	1937.9714	6568.8	5675.1
926.2678	1939.5868	6526.65	5632.65
926.4064	1941.2015	6525.5	5631.55
926.5449	1942.8154	6499.85	5602.5
926.6834	1944.4286	6457.45	5562.15
926.8219	1946.041	6450.6	5530.05
926.9604	1947.6528	6440.95	5542.45
927.0988	1949.2637	6407.4	5513.9
927.2372	1950.8739	6396.1	5503.75
927.3756	1952.4834	6375.3	5482.85
927.514	1954.0921	6369.9	5474.45
927.6523	1955.7001	6338.1	5442.15
927.7907	1957.3074	6320.85	5433.3
927.929	1958.9139	6278.2	5391.05
928.0673	1960.5197	6295.5	5404.95
928.2055	1962.1247	6254.15	5364.85
928.3438	1963.729	6239.75	5352.6
928.482	1965.3325	6212.7	5318.45
928.6202	1966.9353	6181.95	5296.7
928.7584	1968.5374	6171.9	5282.9
928.8965	1970.1387	6151.25	5261.6
929.0346	1971.7393	6109.8	5220.65
929.1727	1973.3392	6091.8	5203.75
929.3108	1974.9383	6069	5182.05
929.4489	1976.5366	6074.7	5188.95
929.5869	1978.1342	6042.9	5158.6
929.7249	1979.7311	6039.55	5153.75
929.8629	1981.3273	6004.65	5120.15
930.0009	1982.9227	5981.2	5093.1
930.1388	1984.5173	5981.6	5097.25
930.2767	1986.1112	5948.25	5064.5
930.4146	1987.7044	5951.55	5066.9
930.5525	1989.2968	5918.75	5029.9
930.6904	1990.8885	5919	5030.8
930.8282	1992.4795	5890.15	5007.15
930.966	1994.0697	5861.4	4978.25
931.1038	1995.6592	5858.8	4975.15
931.2415	1997.2479	5834.95	4949.05
931.3793	1998.8359	5819.5	4937.1
931.517	2000.4232	5799.9	4919
931.6547	2002.0097	5784.6	4907.3
931.7923	2003.5955	5767.15	4886.9
931.93	2005.1805	5767.65	4884.6
932.0676	2006.7648	5730.3	4848.75
932.2052	2008.3484	5724.85	4842.35
932.3427	2009.9312	5715.15	4835.35
932.4803	2011.5133	5701.2	4823.25
932.6178	2013.0946	5683.05	4804.85
932.7553	2014.6752	5674.75	4794.75
932.8928	2016.2551	5677.6	4795.1
933.0302	2017.8342	5645.6	4762.8
933.1676	2019.4126	5616.05	4736
933.305	2020.9902	5574.85	4696.3
933.4424	2022.5672	5579	4698.05
933.5798	2024.1433	5586.65	4705.4
933.7171	2025.7188	5534.85	4658.15
933.8544	2027.2935	5532.05	4655.55
933.9917	2028.8674	5525.9	4649.7
934.129	2030.4406	5517.75	4642.1
934.2662	2032.0131	5493.2	4618.35
934.4034	2033.5849	5484.65	4602.45
934.5406	2035.1559	5466.3	4589
934.6778	2036.7261	5467.25	4586.95
934.8149	2038.2957	5462.45	4576.95
934.952	2039.8645	5445	4560.8
935.0891	2041.4325	5443.3	4558.25
935.2262	2042.9998	5395.85	4515.9
935.3632	2044.5664	5410.25	4530.75
935.5002	2046.1323	5374.55	4498.05
935.6372	2047.6974	5359.2	4481.35
935.7742	2049.2617	5340.1	4465.25
935.9111	2050.8254	5345.9	4459.5
936.048	2052.3883	5332.3	4448
936.1849	2053.9504	5323.45	4439
936.3218	2055.5118	5302.05	4416.9
936.4586	2057.0725	5306.6	4421.35
936.5955	2058.6325	5287.5	4407.55
936.7323	2060.1917	5253.7	4375
936.869	2061.7502	5245.9	4365.35
937.0058	2063.3079	5223.35	4347.3
937.1425	2064.8649	5212.9	4331.6
937.2792	2066.4212	5210.45	4330
937.4159	2067.9767	5204.2	4323.65
937.5525	2069.5315	5180.5	4299.9
937.6891	2071.0856	5171.55	4290.85
937.8257	2072.6389	5137.35	4257.9
937.9623	2074.1915	5103.7	4227.05
938.0989	2075.7433	5075.3	4192.15
938.2354	2077.2945	5081.85	4203.7
938.3719	2078.8448	5086	4202.4
938.5084	2080.3945	5062.75	4181.7
938.6448	2081.9434	5050.8	4166.1
938.7812	2083.4916	5033.85	4147.6
938.9176	2085.039	5032.35	4145
939.054	2086.5857	5011.55	4119.55
939.1903	2088.1317	5003.75	4113.55
939.3267	2089.677	4996	4103.9
939.463	2091.2215	4982.05	4091.75
939.5992	2092.7652	4958.1	4064.9
939.7355	2094.3083	4946.35	4053.35
939.8717	2095.8506	4941.65	4054.95
940.0079	2097.3921	4924.5	4041
940.1441	2098.933	4929.7	4043.75
940.2802	2100.4731	4901.8	4018.6
940.4163	2102.0124	4915.2	4009.3
940.5524	2103.5511	4887.95	4000.85
940.6885	2105.089	4901.95	4017.35
940.8245	2106.6261	4890.95	4002.95
940.9606	2108.1626	4870.25	3986.1
941.0965	2109.6983	4878.45	3965.75
941.2325	2111.2332	4835.05	3948.1
941.3684	2112.7675	4841.7	3953.25
941.5044	2114.301	4830.15	3940.7
941.6403	2115.8337	4823.7	3938
941.7761	2117.3657	4793.1	3905
941.912	2118.897	4792.95	3904.25
942.0478	2120.4276	4776.4	3884.8
942.1835	2121.9575	4746.8	3858.25
942.3193	2123.4866	4783	3881.55
942.455	2125.0149	4751.7	3861.45
942.5907	2126.5426	4719.85	3838.95
942.7264	2128.0695	4713.9	3830.35
942.8621	2129.5956	4697.4	3817.8
942.9977	2131.1211	4692.8	3807.7
943.1333	2132.6458	4679.9	3794.45
943.2689	2134.1698	4680.45	3792.65
943.4044	2135.693	4651.65	3761.9
943.54	2137.2155	4660.75	3769.75
943.6755	2138.7373	4637.15	3751.45
943.8109	2140.2584	4615.65	3734.2
943.9464	2141.7787	4615.9	3728.7
944.0818	2143.2983	4595.55	3719
944.2172	2144.8171	4554.3	3675
944.3526	2146.3353	4581.1	3698.6
944.4879	2147.8527	4541.9	3659.6
944.6232	2149.3693	4539.45	3652.75
944.7585	2150.8853	4543.35	3655.2
944.8938	2152.4005	4513.2	3623.75
945.029	2153.9149	4519.2	3629.55
945.1642	2155.4287	4516.8	3629.05
945.2994	2156.9417	4500.65	3612.95
945.4346	2158.454	4474.5	3587.45
945.5697	2159.9655	4462	3579.95
945.7048	2161.4764	4467.15	3583.65
945.8399	2162.9865	4446.4	3564.9
945.9749	2164.4958	4453.6	3571.55
946.1099	2166.0045	4434.15	3551.3
946.2449	2167.5124	4406.75	3521
946.3799	2169.0195	4401.35	3517.3
946.5148	2170.526	4409.2	3522.85
946.6498	2172.0317	4369.85	3484.3
946.7846	2173.5367	4376.2	3490.65
946.9195	2175.0409	4359.7	3473.55
947.0543	2176.5445	4360.6	3477.55
947.1891	2178.0473	4360.05	3471.9
947.3239	2179.5494	4356.4	3465.35
947.4587	2181.0507	4327.6	3441.5
947.5934	2182.5513	4300.8	3414.75
947.7281	2184.0512	4293.7	3406.05
947.8628	2185.5504	4293.3	3406.65
947.9974	2187.0488	4274.65	3393.75
948.132	2188.5465	4266.8	3384.75
948.2666	2190.0435	4266.75	3383.35
948.4012	2191.5397	4243.6	3355.7
948.5357	2193.0353	4222.4	3333.35
948.6702	2194.5301	4214.95	3324
948.8047	2196.0241	4202.35	3310.5
948.9392	2197.5175	4203.7	3310.2
949.0736	2199.0101	4193.8	3297.75
949.208	2200.502	4154.05	3267.95
949.3424	2201.9931	4152.55	3269.45
949.4767	2203.4835	4138.4	3254.8
949.611	2204.9733	4137.1	3249.9
949.7453	2206.4622	4139.8	3256.8
949.8796	2207.9505	4113	3230.55
950.0138	2209.438	4087.95	3207.85
950.148	2210.9248	4091.55	3207.95
950.2822	2212.4109	4077.9	3193
950.4164	2213.8962	4075.4	3182.8
950.5505	2215.3809	4064.35	3170.9
950.6846	2216.8648	4036.95	3143.35
950.8186	2218.3479	4050.85	3153.1
950.9527	2219.8304	4026.05	3130
951.0867	2221.3121	4007.6	3113.9
951.2207	2222.7931	4001.55	3111.9
951.3546	2224.2733	4002.15	3111.6
951.4886	2225.7529	3985.75	3095
951.6225	2227.2317	3979.2	3092.35
951.7563	2228.7098	3959.5	3076.85
951.8902	2230.1872	3946.6	3064.05
952.024	2231.6638	3939.45	3058.2
952.1578	2233.1397	3938.55	3051.8
952.2916	2234.6149	3931.25	3048.8
952.4253	2236.0894	3909.65	3024.25
952.559	2237.5632	3898.95	3004.2
952.6927	2239.0362	3892.8	3007.4
952.8263	2240.5085	3878.8	2992.45
952.9599	2241.9801	3862.25	2974.55
953.0935	2243.4509	3845.8	2956.45
953.2271	2244.921	3834.85	2945.65
953.3606	2246.3904	3838.9	2945.15
953.4941	2247.8591	3820.15	2930.05
953.6276	2249.3271	3832.45	2940.35
953.7611	2250.7943	3799.85	2908.7
953.8945	2252.2608	3803.6	2913.65
954.0279	2253.7266	3790.4	2901.6
954.1612	2255.1917	3768.4	2881.05
954.2946	2256.656	3755.8	2868.25
954.4279	2258.1197	3742.8	2859.25
954.5612	2259.5826	3742.2	2855.75
954.6944	2261.0447	3744.8	2856.65
954.8276	2262.5062	3726.5	2836.75
954.9608	2263.9669	3729.5	2838.05
955.094	2265.4269	3729.1	2841.5
955.2271	2266.8862	3710.75	2822.15
955.3602	2268.3448	3694.55	2807.75
955.4933	2269.8026	3698.6	2814.7
955.6264	2271.2598	3684.45	2801.85
955.7594	2272.7162	3678.75	2793.15
955.8924	2274.1719	3665.85	2777.8
956.0253	2275.6268	3663.2	2772.55
956.1583	2277.0811	3651.45	2762.9
956.2912	2278.5346	3638.3	2755.55
956.4241	2279.9874	3625.35	2739.8
956.5569	2281.4395	3628.8	2744.7
956.6897	2282.8908	3615.95	2725.3
956.8225	2284.3414	3608.7	2720.2
956.9553	2285.7914	3590.15	2704.5
957.088	2287.2406	3583	2694
957.2207	2288.689	3583.1	2693.45
957.3534	2290.1368	3577.85	2682.25
957.486	2291.5838	3581.05	2684.3
957.6186	2293.0302	3584.8	2690.6
957.7512	2294.4758	3549.15	2655.85
957.8838	2295.9206	3544.25	2653.55
958.0163	2297.3648	3545.3	2659.2
958.1488	2298.8082	3521	2632.4
958.2813	2300.251	3529.6	2642
958.4137	2301.693	3514.7	2620.95
958.5461	2303.1343	3512.9	2621.15
958.6785	2304.5748	3494.1	2606.65
958.8108	2306.0147	3491.8	2605.9
958.9432	2307.4538	3475.9	2590.45
959.0754	2308.8922	3464.7	2583.85
959.2077	2310.3299	3462.05	2579.35
959.3399	2311.7669	3439.9	2555.2
959.4721	2313.2031	3439.05	2553.75
959.6043	2314.6387	3434.6	2547.1
959.7365	2316.0735	3417.95	2529.3
959.8686	2317.5076	3424.15	2534.25
960.0006	2318.941	3420.05	2530.65
960.1327	2320.3737	3405.25	2515.75
960.2647	2321.8056	3389.8	2496.3
960.3967	2323.2369	3378.25	2487.75
960.5287	2324.6674	3384.5	2496.35
960.6606	2326.0972	3367.2	2479.85
960.7925	2327.5263	3366.25	2477.7
960.9244	2328.9547	3357.35	2466.45
961.0562	2330.3823	3350.35	2458.25
961.1881	2331.8092	3344.1	2447.95
961.3198	2333.2355	3336.6	2445.55
961.4516	2334.661	3313.45	2419.7
961.5833	2336.0858	3305.15	2412.8
961.715	2337.5098	3308.4	2420.55
961.8467	2338.9332	3308.65	2416.3
961.9783	2340.3558	3294.05	2404.2
962.1099	2341.7778	3287.7	2400.6
962.2415	2343.199	3277	2387.7
962.373	2344.6195	3272.2	2385.65
962.5045	2346.0393	3265.5	2380.15
962.636	2347.4583	3268.4	2382.4
962.7675	2348.8767	3255.35	2365.85
962.8989	2350.2943	3248.1	2358.7
963.0303	2351.7113	3254.4	2361.25
963.1617	2353.1275	3252.3	2360.9
963.293	2354.543	3244.65	2342.75
963.4243	2355.9578	3233.7	2343.9
963.5556	2357.3718	3202.65	2319.7
963.6868	2358.7852	3203.5	2316.45
963.818	2360.1978	3189.65	2303.6
963.9492	2361.6098	3197.65	2313.6
964.0803	2363.021	3183.25	2293
964.2114	2364.4315	3176.6	2289.15
964.3425	2365.8413	3174.35	2287.5
964.4736	2367.2504	3154.3	2269.55
964.6046	2368.6587	3136.2	2253.3
964.7356	2370.0664	3137.2	2250.75
964.8666	2371.4733	3116.15	2230.05
964.9975	2372.8795	3118.65	2234.85
965.1284	2374.285	3109.95	2224.75
965.2593	2375.6899	3103.35	2219.45
965.3901	2377.0939	3093.4	2210.85
965.5209	2378.4973	3075.7	2194.45
965.6517	2379.9	3068.5	2184.15
965.7825	2381.3019	3066.3	2184.1
965.9132	2382.7032	3060.55	2178.85
966.0439	2384.1037	3046.15	2167.05
966.1745	2385.5035	3037.1	2154.15
966.3051	2386.9027	3041.4	2163.05
966.4357	2388.3011	3028.9	2144.75
966.5663	2389.6987	3013.35	2133.4
966.6968	2391.0957	3007.75	2127.15
966.8273	2392.492	2994.65	2113.3
966.9578	2393.8876	2988.3	2105.4
967.0882	2395.2824	2986.8	2103.75
967.2186	2396.6765	2969.85	2086.85
967.349	2398.07	2954.25	2071.7
967.4793	2399.4627	2956.6	2071.5
967.6097	2400.8547	2958.8	2076.15
967.7399	2402.246	2950.2	2061.45
967.8702	2403.6366	2941.05	2059.15
968.0004	2405.0265	2941.05	2059.1
968.1306	2406.4156	2918.7	2033.05
968.2607	2407.8041	2912.3	2028.5
968.3909	2409.1918	2913.05	2025.4
968.521	2410.5789	2887.55	2004.5
968.651	2411.9652	2887.85	2000.5
968.781	2413.3508	2888.95	2003.4
968.911	2414.7358	2867.3	1983.25
969.041	2416.12	2863.35	1982.3
969.1709	2417.5035	2865	1983.75
969.3008	2418.8863	2860.4	1977.85
969.4307	2420.2684	2848.6	1965.9
969.5606	2421.6497	2846.7	1962.9
969.6904	2423.0304	2826.05	1942.1
969.8201	2424.4104	2826.2	1942
969.9499	2425.7896	2830.8	1945.75
970.0796	2427.1682	2812.55	1929.65
970.2093	2428.546	2804.3	1919.3
970.3389	2429.9232	2804.05	1919.9
970.4685	2431.2996	2787.2	1903
970.5981	2432.6753	2790.55	1906.35
970.7277	2434.0503	2776.25	1890.45
970.8572	2435.4246	2773.95	1890.25
970.9867	2436.7982	2769.5	1883.1
971.1161	2438.1711	2766.25	1881.65
971.2456	2439.5433	2767.9	1883.75
971.375	2440.9148	2756.55	1866.85
971.5043	2442.2856	2753.25	1870.35
971.6336	2443.6557	2731.25	1846.85
971.7629	2445.025	2733.55	1848.35
971.8922	2446.3937	2732.05	1848.5
972.0214	2447.7617	2728.15	1841.65
972.1506	2449.1289	2719.95	1835.5
972.2798	2450.4955	2721.4	1832.9
972.4089	2451.8613	2699.15	1815.2
972.538	2453.2265	2700	1816.4
972.6671	2454.5909	2697.2	1810
972.7961	2455.9546	2691.45	1808.2
972.9251	2457.3177	2693.05	1810.75
973.0541	2458.68	2679.45	1792.3
973.1831	2460.0416	2682.45	1796.95
973.312	2461.4025	2675.9	1789.65
973.4408	2462.7627	2685.55	1788.9
973.5697	2464.1222	2665.6	1783.2
973.6985	2465.4811	2647.15	1764.55
973.8273	2466.8392	2650.75	1768.85
973.956	2468.1966	2638.8	1751.95
974.0847	2469.5533	2649.25	1763.5
974.2134	2470.9093	2644.1	1758.9
974.3421	2472.2645	2643.4	1757.7
974.4707	2473.6191	2630.85	1748.5
974.5993	2474.973	2626.45	1742.25
974.7278	2476.3262	2619.2	1732.65
974.8563	2477.6787	2615.25	1732.4
974.9848	2479.0305	2596.75	1713.7
975.1132	2480.3816	2596.5	1709.85
975.2417	2481.7319	2590.2	1704.5
975.37	2483.0816	2582.95	1697.75
975.4984	2484.4306	2577	1691.4
975.6267	2485.7789	2574.7	1692.95
975.755	2487.1264	2565.95	1680
975.8833	2488.4733	2553.9	1672.9
976.0115	2489.8195	2563.45	1662.1
976.1397	2491.165	2538.3	1651.4
976.2678	2492.5097	2533.35	1650.3
976.3959	2493.8538	2528.05	1645.05
976.524	2495.1972	2518.05	1636.95
976.6521	2496.5398	2510.85	1625.95
976.7801	2497.8818	2512.2	1623.55
976.9081	2499.2231	2506.15	1622.75
977.036	2500.5637	2499.8	1611.05
977.164	2501.9035	2499.8	1614.25
977.2918	2503.2427	2491.5	1602.45
977.4197	2504.5812	2476.5	1591.6
977.5475	2505.919	2484.4	1595.85
977.6753	2507.256	2475.6	1591.2
977.8031	2508.5924	2462.2	1577.75
977.9308	2509.9281	2474.65	1583.15
978.0585	2511.2631	2450.2	1565.25
978.1861	2512.5974	2447.25	1564.15
978.3137	2513.9309	2444.8	1560.1
978.4413	2515.2638	2460.4	1543.8
978.5689	2516.596	2439.15	1555.15
978.6964	2517.9275	2431.35	1547
978.8239	2519.2583	2425.15	1539.7
978.9513	2520.5884	2430.1	1544.55
979.0788	2521.9178	2412	1525.75
979.2062	2523.2465	2406.25	1522.8
979.3335	2524.5745	2405.8	1520.05
979.4608	2525.9018	2402.6	1518.75
979.5881	2527.2284	2407.5	1525.5
979.7154	2528.5543	2387.15	1502.45
979.8426	2529.8796	2386.75	1503.45
979.9698	2531.2041	2383.45	1500.5
980.0969	2532.5279	2378.5	1495.95
980.224	2533.851	2375.4	1491.45
980.3511	2535.1735	2369.25	1485.85
980.4781	2536.4952	2380.7	1496.85
980.6052	2537.8163	2367.2	1480.7
980.7321	2539.1366	2359.4	1473.2
980.8591	2540.4562	2348.75	1460.3
980.986	2541.7752	2350.6	1464.4
981.1129	2543.0935	2354.85	1469.35
981.2397	2544.411	2349.75	1461.85
981.3665	2545.7279	2343.65	1456.3
981.4933	2547.0441	2338.05	1453.7
981.62	2548.3596	2332.95	1444.05
981.7467	2549.6744	2337.1	1453.85
981.8734	2550.9885	2330.6	1436.25
982.0001	2552.3019	2316.8	1429.2
982.1267	2553.6146	2321.7	1435.15
982.2532	2554.9266	2313.05	1427.55
982.3798	2556.2379	2312.65	1423.8
982.5063	2557.5485	2292.7	1410.55
982.6327	2558.8585	2303.9	1411.3
982.7592	2560.1677	2307.45	1415.7
982.8856	2561.4762	2298.1	1411.45
983.0119	2562.7841	2282.5	1393.25
983.1383	2564.0913	2278	1392.5
983.2646	2565.3977	2285.8	1403
983.3908	2566.7035	2275.55	1390.2
983.517	2568.0086	2276.95	1388.4
983.6432	2569.313	2283.7	1395.9
983.7694	2570.6167	2280.8	1390.95
983.8955	2571.9197	2273.2	1385.15
984.0216	2573.222	2283.1	1392.5
984.1476	2574.5236	2254.35	1366.55
984.2737	2575.8246	2266.1	1378.6
984.3996	2577.1248	2255.7	1367.3
984.5256	2578.4244	2252.6	1367.7
984.6515	2579.7232	2252.1	1365.95
984.7774	2581.0214	2269.45	1351.3
984.9032	2582.3189	2250.6	1365.9
985.029	2583.6157	2259.35	1370.85
985.1548	2584.9118	2248.8	1362.65
985.2806	2586.2072	2242	1356.15
985.4063	2587.5019	2242	1355.55
985.5319	2588.7959	2235.2	1347.25
985.6576	2590.0893	2234.9	1346.45
985.7832	2591.3819	2229.75	1343.3
985.9087	2592.6739	2224.1	1336.3
986.0343	2593.9652	2234.5	1348.2
986.1597	2595.2557	2227.35	1339.75
986.2852	2596.5456	2232.1	1344.15
986.4106	2597.8348	2232.85	1346.65
986.536	2599.1234	2213.6	1327.95
986.6614	2600.4112	2220.7	1336.3
986.7867	2601.6983	2212.85	1322.15
986.912	2602.9848	2206.55	1321.45
987.0372	2604.2705	2205.55	1313.35
987.1624	2605.5556	2203.35	1315.7
987.2876	2606.84	2179.8	1295.65
987.4128	2608.1237	2188.85	1302.45
987.5379	2609.4067	2176.85	1290.7
987.6629	2610.689	2181.2	1286.45
987.788	2611.9707	2180.2	1288.6
987.913	2613.2516	2180.6	1290.5
988.0379	2614.5319	2163.5	1276
988.1629	2615.8115	2154.85	1268.55
988.2878	2617.0903	2158.3	1270.75
988.4126	2618.3685	2147.7	1260.3
988.5375	2619.6461	2142.35	1257.05
988.6622	2620.9229	2150	1263.45
988.787	2622.199	2136.65	1250.2
988.9117	2623.4745	2136	1249.7
989.0364	2624.7493	2137.65	1251.55
989.161	2626.0234	2129.8	1246.7
989.2857	2627.2968	2126.3	1239.7
989.4102	2628.5695	2138.35	1255.65
989.5348	2629.8415	2108.25	1223.65
989.6593	2631.1128	2110.55	1224.3
989.7837	2632.3835	2108.45	1221.35
989.9082	2633.6535	2109.6	1223.3
990.0326	2634.9228	2115.95	1228.9
990.1569	2636.1914	2106.2	1220.8
990.2812	2637.4593	2106.9	1218.8
990.4055	2638.7265	2103.95	1218.55
990.5298	2639.9931	2088.35	1204.3
990.654	2641.259	2082.75	1195.6
990.7782	2642.5242	2091.65	1206
990.9023	2643.7887	2077.6	1192.25
991.0264	2645.0525	2082.6	1196.85
991.1505	2646.3156	2078.7	1191.05
991.2745	2647.5781	2064.4	1179.6
991.3985	2648.8398	2053.8	1168.05
991.5225	2650.1009	2065.05	1170.25
991.6464	2651.3613	2056.1	1169.95
991.7703	2652.6211	2056.7	1171.5
991.8942	2653.8801	2035.7	1152.1
992.018	2655.1385	2051.25	1163.8
992.1418	2656.3961	2043.8	1157.3
992.2655	2657.6531	2031.65	1147.05
992.3892	2658.9094	2038.8	1154.2
992.5129	2660.1651	2035.8	1151.4
992.6366	2661.42	2043.1	1157.35
992.7602	2662.6743	2032.25	1149.05
992.8837	2663.9279	2037.3	1152.35
993.0073	2665.1808	2036.6	1151.35
993.1307	2666.433	2028.7	1144.35
993.2542	2667.6846	2033.35	1148.75
993.3776	2668.9354	2030.95	1142.95
993.501	2670.1856	2032.65	1151.65
993.6244	2671.4351	2026.15	1141.15
993.7477	2672.6839	2033.15	1148.9
993.8709	2673.9321	2037.1	1152.8
993.9942	2675.1795	2033	1148.05
994.1174	2676.4263	2025.95	1140.65
994.2405	2677.6724	2030.9	1148.45
994.3637	2678.9179	2024.95	1138.3
994.4868	2680.1626	2016.9	1133.55
994.6098	2681.4067	2022.05	1137.5
994.7328	2682.6501	2023.4	1137.6
994.8558	2683.8928	2014.2	1131.2
994.9788	2685.1348	2010.75	1125.8
995.1017	2686.3761	1995.4	1110.7
995.2245	2687.6168	1989.9	1105.55
995.3474	2688.8568	1993.95	1110.65
995.4702	2690.0961	1982.3	1098.5
995.5929	2691.3348	1979.95	1095.75
995.7156	2692.5727	1983	1095.85
995.8383	2693.81	1969.3	1085.85
995.961	2695.0466	1951.9	1067.8
996.0836	2696.2826	1964.75	1077.5
996.2062	2697.5178	1972.65	1083.65
996.3287	2698.7524	1959.85	1076.15
996.4512	2699.9863	1971.2	1084.75
996.5737	2701.2195	1968.35	1083
996.6961	2702.452	1969.2	1081.5
996.8185	2703.6839	1960.6	1074.7
996.9408	2704.9151	1967.55	1084.75
997.0631	2706.1456	1955.9	1069.7
997.1854	2707.3755	1971.95	1087.4
997.3077	2708.6046	1974.6	1086.7
997.4299	2709.8331	1986.2	1103.2
997.552	2711.0609	1977.4	1091.35
997.6742	2712.2881	1995.9	1111.85
997.7963	2713.5145	2002.25	1114
997.9183	2714.7403	1994.8	1111.65
998.0403	2715.9654	2001.35	1115.7
998.1623	2717.1899	2040.05	1142.55
998.2842	2718.4136	2021.85	1139.05
998.4062	2719.6367	2030.4	1146.25
998.528	2720.8591	2050.25	1159.7
998.6498	2722.0809	2045.85	1161.15
998.7716	2723.3019	2053.15	1165.7
998.8934	2724.5223	2064.45	1178.25
999.0151	2725.7421	2071.65	1187.95
999.1368	2726.9611	2080.15	1194.75
999.2584	2728.1795	2068.35	1179.8
999.38	2729.3972	2049.15	1167
999.5016	2730.6142	2039	1142.3
999.6231	2731.8306	2018.25	1130.9
999.7446	2733.0462	2008.85	1122.75
999.8661	2734.2612	1992.4	1102.55
999.9875	2735.4756	1980.7	1094.75
1000.1089	2736.6892	1959.05	1074.45
1000.2302	2737.9022	1935.75	1052.95
1000.3515	2739.1145	1923.75	1039.4
1000.4728	2740.3262	1919.25	1028.05
1000.594	2741.5372	1901.85	1017.4
1000.7152	2742.7475	1880.65	997.1
1000.8363	2743.9571	1874.8	990.55
1000.9575	2745.1661	1872.25	983.75
1001.0785	2746.3744	1851.75	969.05
1001.1996	2747.582	1833.75	949.35
1001.3206	2748.7889	1835.35	952.35
1001.4415	2749.9952	1813.5	931.2
1001.5625	2751.2008	1810.25	926.65
1001.6833	2752.4057	1813.85	928.95
1001.8042	2753.61	1802.2	918.65
1001.925	2754.8136	1806.6	922.45
1002.0458	2756.0165	1794.75	913.9
1002.1665	2757.2188	1793.8	909.45
1002.2872	2758.4204	1791.65	908.65
1002.4078	2759.6213	1793.6	906.95
1002.5285	2760.8215	1787.8	901.45
1002.649	2762.0211	1787.65	900.85
1002.7696	2763.22	1779.35	893.45
1002.8901	2764.4182	1781.7	896.75
1003.0106	2765.6158	1773.75	890.75
1003.131	2766.8127	1774.9	891.05
1003.2514	2768.009	1763.75	882.6
1003.3717	2769.2045	1760.85	876.5
1003.492	2770.3994	1757.25	871.9
1003.6123	2771.5936	1754.9	872.65
1003.7325	2772.7872	1750.1	867.6
1003.8527	2773.9801	1739.5	856.55
1003.9729	2775.1723	1755.55	856.7
1004.093	2776.3639	1739.35	856.85
1004.2131	2777.5548	1737.75	853.15
1004.3331	2778.745	1740.7	855.85
1004.4531	2779.9346	1735.55	852.2
1004.5731	2781.1235	1742.15	857.5
1004.693	2782.3117	1743.9	861.6
1004.8129	2783.4992	1737.8	856.95
1004.9328	2784.6861	1743.95	859.9
1005.0526	2785.8723	1750.75	868.6
1005.1723	2787.0579	1742.85	859.95
1005.2921	2788.2428	1764.1	882.55
1005.4118	2789.427	1760.65	878.95
1005.5314	2790.6106	1774.1	892.45
1005.651	2791.7935	1781.9	899.5
1005.7706	2792.9757	1787.65	906.4
1005.8902	2794.1573	1795.25	910.6
1006.0097	2795.3382	1797.3	912.9
1006.1291	2796.5184	1818.55	938.05
1006.2485	2797.698	1833.35	950.55
1006.3679	2798.8769	1842.8	961.1
1006.4873	2800.0551	1872.8	990.55
1006.6066	2801.2327	1874.6	988.7
1006.7258	2802.4096	1887.05	1006.35
1006.8451	2803.5859	1904.05	1021.5
1006.9642	2804.7615	1924.05	1043.3
1007.0834	2805.9364	1949.35	1066.9
1007.2025	2807.1106	1973.15	1091.1
1007.3216	2808.2842	2002.2	1119.5
1007.4406	2809.4572	2031.45	1150.85
1007.5596	2810.6294	2068.45	1185.7
1007.6785	2811.801	2080.55	1200.95
1007.7975	2812.972	2147.7	1265.75
1007.9163	2814.1423	2181.15	1301.7
1008.0352	2815.3119	2229.8	1346.65
1008.154	2816.4808	2271.25	1391.3
1008.2727	2817.6491	2314.25	1431.25
1008.3914	2818.8167	2356.25	1476.7
1008.5101	2819.9837	2408.4	1522.4
1008.6288	2821.15	2454.25	1573
1008.7474	2822.3157	2498	1617.75
1008.8659	2823.4807	2550	1667.8
1008.9844	2824.645	2598.55	1714.9
1009.1029	2825.8086	2639	1758.85
1009.2214	2826.9716	2679.55	1798.2
1009.3398	2828.134	2720	1840.05
1009.4581	2829.2957	2759.25	1877.6
1009.5764	2830.4567	2776.75	1897.5
1009.6947	2831.617	2811.75	1930.35
1009.813	2832.7767	2819.05	1937.75
1009.9312	2833.9358	2812.95	1932.15
1010.0493	2835.0941	2813.25	1931.05
1010.1675	2836.2519	2796	1916.95
1010.2855	2837.4089	2787.45	1905.8
1010.4036	2838.5653	2786.3	1905.3
1010.5216	2839.7211	2767.65	1887.6
1010.6396	2840.8761	2780.85	1897.9
1010.7575	2842.0306	2804.8	1925.2
1010.8754	2843.1843	2845.45	1963.9
1010.9932	2844.3374	2885.65	2005.9
1011.111	2845.4899	2940.35	2059.35
1011.2288	2846.6417	3017.5	2135.7
1011.3465	2847.7928	3067.5	2187.3
1011.4642	2848.9433	3149.6	2268.35
1011.5818	2850.0931	3237.7	2355.9
1011.6995	2851.2422	3311.4	2430
1011.817	2852.3907	3376.05	2496.15
1011.9345	2853.5385	3444.8	2562.45
1012.052	2854.6857	3516.75	2609.5
1012.1695	2855.8323	3542.45	2662.25
1012.2869	2856.9781	3592.5	2711.25
1012.4042	2858.1233	3649	2766.5
1012.5216	2859.2679	3684.8	2805.3
1012.6389	2860.4118	3737.95	2855.85
1012.7561	2861.555	3758.05	2874.8
1012.8733	2862.6976	3791.8	2910.55
1012.9905	2863.8395	3814.45	2936.5
1013.1076	2864.9808	3831.5	2949.9
1013.2247	2866.1214	3843.2	2964.8
1013.3417	2867.2614	3882.2	3000.75
1013.4587	2868.4007	3895.15	3013.4
1013.5757	2869.5393	3902.3	3018.4
1013.6926	2870.6773	3916.25	3033.3
1013.8095	2871.8146	3923.45	3038.35
1013.9263	2872.9513	3927.8	3042.85
1014.0431	2874.0874	3918.5	3035.5
1014.1599	2875.2227	3906.15	3024.65
1014.2766	2876.3574	3894.35	3011.55
1014.3933	2877.4915	3857.4	2979.1
1014.51	2878.6249	3847.8	2967.25
1014.6266	2879.7577	3818.45	2938.1
1014.7431	2880.8898	3799.45	2909
1014.8596	2882.0212	3775.75	2896.4
1014.9761	2883.152	3759.85	2879.55
1015.0925	2884.2821	3742.65	2863.65
1015.2089	2885.4116	3733.05	2852.9
1015.3253	2886.5405	3736.7	2857.85
1015.4416	2887.6686	3749.45	2866.2
1015.5579	2888.7962	3743.55	2865
1015.6741	2889.923	3752.25	2874.2
1015.7903	2891.0493	3768.55	2890.25
1015.9065	2892.1748	3783.75	2903.15
1016.0226	2893.2997	3791.5	2910.6
1016.1387	2894.424	3805.45	2928.6
1016.2547	2895.5476	3822.65	2942.9
1016.3707	2896.6706	3843.25	2966.9
1016.4866	2897.7929	3873.3	2992.15
1016.6025	2898.9145	3892.2	3014.25
1016.7184	2900.0355	3918.9	3036.9
1016.8342	2901.1559	3961.15	3082.6
1016.95	2902.2756	3979.7	3100.25
1017.0658	2903.3946	4018	3137.7
1017.1815	2904.513	4061.25	3179.05
1017.2971	2905.6308	4082.55	3205.1
1017.4127	2906.7479	4083.8	3203.55
1017.5283	2907.8643	4117.8	3239.5
1017.6439	2908.9801	4125.45	3245.9
1017.7594	2910.0953	4125.55	3246.2
1017.8748	2911.2098	4132.9	3250.3
1017.9902	2912.3236	4141.2	3254
1018.1056	2913.4368	4118.45	3237.85
1018.2209	2914.5494	4095.9	3217.4
1018.3362	2915.6613	4063.6	3178
1018.4515	2916.7725	4031.35	3148.5
1018.5667	2917.8831	4013.95	3131.85
1018.6819	2918.9931	3990.05	3108.85
1018.797	2920.1024	3945.15	3064.1
1018.9121	2921.211	3933.85	3056.15
1019.0271	2922.319	3905.2	3025.25
1019.1421	2923.4264	3877.55	2996.9
1019.2571	2924.5331	3879.7	3001.05
1019.372	2925.6391	3860.45	2982.65
1019.4869	2926.7445	3862.3	2985.05
1019.6017	2927.8493	3837.05	2958.15
1019.7165	2928.9534	3835.55	2955.3
1019.8313	2930.0569	3841.2	2960.2
1019.946	2931.1597	3828.2	2948.35
1020.0606	2932.2619	3830	2950.45
1020.1753	2933.3634	3805.6	2926.7
1020.2899	2934.4643	3816.65	2929.8
1020.4044	2935.5645	3780.15	2894.2
1020.5189	2936.6641	3748.95	2866.35
1020.6334	2937.763	3702.4	2824.15
1020.7478	2938.8613	3664.45	2784.5
1020.8622	2939.959	3609.95	2724.05
1020.9765	2941.056	3525.95	2647.45
1021.0908	2942.1523	3447.1	2565.05
1021.2051	2943.248	3350.55	2471.3
1021.3193	2944.3431	3280	2401.4
1021.4334	2945.4375	3158.25	2281.3
1021.5476	2946.5313	3066	2187.3
1021.6617	2947.6244	2962.9	2083.85
1021.7757	2948.7169	2869.65	1990.5
1021.8897	2949.8087	2773.1	1894
1022.0037	2950.8999	2686.5	1807
1022.1176	2951.9904	2596.75	1719.8
1022.2315	2953.0803	2515	1636.15
1022.3453	2954.1696	2459.25	1580.05
1022.4591	2955.2582	2409.8	1532.55
1022.5728	2956.3462	2356.45	1476.45
1022.6865	2957.4335	2313.7	1434.65
1022.8002	2958.5202	2284.1	1403.95
1022.9138	2959.6062	2264	1385.45
1023.0274	2960.6916	2231.8	1354.3
1023.141	2961.7764	2224.55	1343.2
1023.2545	2962.8605	2196.85	1318.35
1023.3679	2963.9439	2188.9	1309.6
1023.4813	2965.0267	2177.5	1298.55
1023.5947	2966.1089	2188.95	1288.95
1023.708	2967.1905	2165.1	1286.25
1023.8213	2968.2714	2157.7	1278.7
1023.9346	2969.3516	2147.75	1270.95
1024.0478	2970.4312	2157.9	1270.35
1024.1609	2971.5102	2155.6	1277.9
1024.274	2972.5885	2146.3	1268.3
1024.3871	2973.6662	2160.25	1276.4
1024.5002	2974.7432	2149.25	1273.5
1024.6132	2975.8196	2147.05	1268.05
1024.7261	2976.8954	2133.7	1256
1024.839	2977.9705	2120.2	1241.15
1024.9519	2979.045	2095.15	1215.95
1025.0647	2980.1188	2095.75	1218.8
1025.1775	2981.192	2071.3	1193.55
1025.2902	2982.2645	2049.3	1170.5
1025.4029	2983.3364	2013.05	1135.35
1025.5156	2984.4077	1987.85	1111.4
1025.6282	2985.4783	1970.85	1086.55
1025.7407	2986.5483	1936.7	1058.6
1025.8532	2987.6177	1898.9	1021.7
1025.9657	2988.6864	1867.05	988.45
1026.0782	2989.7545	1830.4	949.1
1026.1906	2990.8219	1792.9	914.9
1026.3029	2991.8887	1767.75	886.9
1026.4152	2992.9548	1724.9	846.95
1026.5275	2994.0204	1702.65	825.95
1026.6397	2995.0852	1669.9	793.5
1026.7519	2996.1495	1644.55	765.25
1026.864	2997.2131	1623.6	747.85
1026.9761	2998.276	1600.4	722.85
1027.0882	2999.3383	1582.65	705.65
1027.2002	3000.4	1560.85	683.2
1027.3122	3001.4611	1546.9	670.2
1027.4241	3002.5215	1528	650.3
1027.536	3003.5812	1517.05	639.6
1027.6478	3004.6404	1502.7	626.35
1027.7596	3005.6989	1493.8	614.4
1027.8714	3006.7567	1480.4	603.35
1027.9831	3007.8139	1500.15	589.7
1028.0947	3008.8705	1472.7	594.75
1028.2064	3009.9264	1467.25	587.4
1028.3179	3010.9818	1452.8	573.8
1028.4295	3012.0364	1451.95	573.15
1028.541	3013.0905	1449.1	573.15
1028.6524	3014.1439	1440.05	563.65
1028.7638	3015.1966	1443.2	564.9
1028.8752	3016.2487	1443	566.4
1028.9865	3017.3002	1438.25	555.5
1029.0978	3018.3511	1439.85	563.75
1029.209	3019.4013	1429.95	551.35
1029.3202	3020.4509	1434.1	558.3
1029.4314	3021.4998	1433.15	555.6
1029.5425	3022.5481	1431.75	554.75
1029.6535	3023.5958	1433.25	556.25
1029.7645	3024.6428	1432.95	554.2
1029.8755	3025.6892	1434.25	558
1029.9864	3026.735	1431.75	553.25
1030.0973	3027.7802	1432.95	554
1030.2082	3028.8247	1437.55	560.65
1030.319	3029.8685	1437.35	558.6
1030.4297	3030.9118	1437.85	559.45
1030.5404	3031.9544	1451.05	575.35
1030.6511	3032.9963	1447.55	569.05
1030.7617	3034.0376	1448.2	571.6
1030.8723	3035.0783	1452.85	574.85
1030.9829	3036.1184	1461	581.85
1031.0934	3037.1578	1452.15	576
1031.2038	3038.1966	1464.65	586
1031.3142	3039.2348	1460.05	584.45
1031.4246	3040.2723	1474	587.2
1031.5349	3041.3092	1463.9	588.05
1031.6452	3042.3455	1460.35	582.75
1031.7554	3043.3811	1456.7	578.6
1031.8656	3044.4161	1452.85	574.9
1031.9758	3045.4505	1451.6	574.4
1032.0859	3046.4842	1438.45	561.1
1032.1959	3047.5173	1431.3	556.75
1032.3059	3048.5498	1436.35	560.35
1032.4159	3049.5816	1411.9	534.15
1032.5258	3050.6128	1413.4	535.55
1032.6357	3051.6434	1413.95	534.5
1032.7455	3052.6734	1401.35	522.3
1032.8553	3053.7027	1390.9	514.7
1032.9651	3054.7314	1391.2	515.6
1033.0748	3055.7594	1389.2	514.8
1033.1845	3056.7868	1383.55	505.3
1033.2941	3057.8136	1372.65	496.35
1033.4037	3058.8398	1361.6	484.3
1033.5132	3059.8653	1366.7	489.75
1033.6227	3060.8902	1360.75	483.6
1033.7321	3061.9145	1354	476.35
1033.8415	3062.9381	1350.1	475.05
1033.9509	3063.9612	1356.85	466.1
1034.0602	3064.9835	1332.3	458.15
1034.1694	3066.0053	1331.55	453.1
1034.2787	3067.0264	1320.45	443.5
1034.3878	3068.0469	1321.15	442.6
1034.497	3069.0668	1313.25	433.55
1034.6061	3070.086	1302.5	427.3
1034.7151	3071.1046	1294.5	418.65
1034.8241	3072.1226	1282.3	402.35
1034.9331	3073.1399	1273.1	396.6
1035.042	3074.1567	1266.05	389.7
1035.1508	3075.1727	1266.4	388.25
1035.2597	3076.1882	1251.3	375.05
1035.3684	3077.203	1241.55	367
1035.4772	3078.2173	1239	360.4
1035.5859	3079.2308	1225.6	346.7
1035.6945	3080.2438	1223.5	346.05
1035.8031	3081.2561	1212.4	336.9
1035.9117	3082.2678	1196.15	319.35
1036.0202	3083.2789	1195.2	318.45
1036.1286	3084.2893	1191.2	313.05
1036.2371	3085.2991	1185.95	309.9
1036.3454	3086.3083	1181.75	300.35
1036.4538	3087.3169	1179.05	301.3
1036.562	3088.3248	1172.6	294.95
1036.6703	3089.3321	1165.95	287.6
1036.7785	3090.3388	1154.6	279
1036.8866	3091.3449	1154.2	275.35
1036.9948	3092.3503	1149.6	273.3
1037.1028	3093.3551	1148.3	271.8
1037.2108	3094.3593	1140.4	266.15
1037.3188	3095.3629	1138.1	261.8
1037.4267	3096.3658	1138.3	261.25
1037.5346	3097.3681	1129.1	254.75
1037.6425	3098.3698	1132.6	255.65
1037.7503	3099.3708	1132.6	250.45
1037.858	3100.3713	1124.8	249.7
1037.9657	3101.3711	1121.25	245.1
1038.0734	3102.3702	1233.1	240.2
1038.181	3103.3688	1119.35	242.35
1038.2886	3104.3667	1112.3	237.75
1038.3961	3105.364	1109.7	236
1038.5036	3106.3607	1111.2	232.9
1038.611	3107.3568	1105.2	228
1038.7184	3108.3522	1105.95	230.9
1038.8257	3109.347	1098.95	221.05
1038.933	3110.3412	1101.8	220.75
1039.0403	3111.3348	1098.4	223.7
1039.1475	3112.3277	1097.25	221.95
1039.2547	3113.32	1090.2	216.35
1039.3618	3114.3117	1096	219.3
1039.4689	3115.3028	1091.8	216.15
1039.5759	3116.2932	1086.45	210
1039.6829	3117.2831	1092.1	211.55
1039.7898	3118.2723	1087.25	212.65
1039.8967	3119.2608	1083.55	208.05
1040.0035	3120.2488	1080.1	204.85
1040.1103	3121.2361	1084.1	209.5
1040.2171	3122.2229	1079.3	201.75
1040.3238	3123.209	1076.65	199.55
1040.4305	3124.1944	1076.15	202.15
1040.5371	3125.1793	1075.6	199.05
1040.6437	3126.1635	1073.75	198.25
1040.7502	3127.1471	1070.45	195.9
1040.8567	3128.1301	1069.15	195.25
1040.9631	3129.1125	1068.45	192.95
1041.0695	3130.0942	1068.05	190.75
1041.1759	3131.0753	1079	195.15
1041.2822	3132.0558	1069.75	188.7
1041.3884	3133.0357	1062.45	187.7
1041.4946	3134.015	1068.2	190.6
1041.6008	3134.9936	1062.7	185.75
1041.7069	3135.9716	1081.8	184.15
1041.813	3136.949	1055.5	182.25
1041.919	3137.9258	1072.4	177.65
1042.025	3138.902	1062.35	182.15
1042.1309	3139.8775	1056.1	180.25
1042.2368	3140.8524	1053.8	178.85
1042.3427	3141.8267	1054	175.8
1042.4485	3142.8004	1047.2	172.25
1042.5542	3143.7735	1057.55	174.5
1042.6599	3144.7459	1049.25	172
1042.7656	3145.7178	1048.75	174.1
1042.8712	3146.689	1042.5	167.45
1042.9768	3147.6596	1048.55	169.65
1043.0823	3148.6295	1042.15	167.1
1043.1878	3149.5989	1039.95	162.4
1043.2932	3150.5676	1038.65	164.35
1043.3986	3151.5357	1037.35	162
1043.5039	3152.5032	1036.55	163.1
1043.6092	3153.4701	1034.5	160.4
1043.7145	3154.4364	1040	161.05
1043.8197	3155.402	1031.45	155.55
1043.9248	3156.367	1034.65	156.15
1044.03	3157.3315	1058.1	154.95
1044.135	3158.2952	1028.1	153.8
1044.24	3159.2584	1028.9	152.65
1044.345	3160.221	1025.1	148.4
1044.4499	3161.1829	1028.9	152.8
1044.5548	3162.1442	1024.95	151.35
1044.6596	3163.105	1021.55	147.75
1044.7644	3164.065	1021.4	146.05
1044.8692	3165.0245	1028.05	150.3
1044.9739	3165.9834	1024.75	152.9
1045.0785	3166.9416	1021.05	145.65
1045.1831	3167.8993	1016.55	141.1
1045.2877	3168.8563	1018	142.7
1045.3922	3169.8127	1018.55	144.7
1045.4966	3170.7684	1016.7	142.95
1045.6011	3171.7236	1013.55	137.3
1045.7054	3172.6782	1014.5	138.8
1045.8098	3173.6321	1016.5	141.65
1045.914	3174.5854	1014	136.8
1046.0183	3175.5381	1008.25	133.05
1046.1224	3176.4902	1009.1	134.25
1046.2266	3177.4417	1008.5	134.4
1046.3307	3178.3926	1007.8	134.35
1046.4347	3179.3428	1007.45	132.8
1046.5387	3180.2924	1002.2	128.4
1046.6427	3181.2415	1007.5	132.1
1046.7466	3182.1899	1003.2	127.9
1046.8504	3183.1377	1004.2	130.15
1046.9542	3184.0848	1009.75	131.6
1047.058	3185.0314	1005.3	130.35
1047.1617	3185.9773	1002.65	127.05
1047.2654	3186.9227	1003.85	130.2
1047.369	3187.8674	1004.95	130.45
1047.4726	3188.8115	1004.7	126.05
1047.5761	3189.755	999.35	125.6
1047.6796	3190.6979	999.55	124.3
1047.783	3191.6402	999	126.05
1047.8864	3192.5818	999.7	126.45
1047.9898	3193.5229	1005.3	123.65
1048.0931	3194.4633	998.4	123.05
1048.1963	3195.4031	995.4	119.05
1048.2995	3196.3423	993.35	118.35
1048.4027	3197.2809	993.8	120.85
1048.5058	3198.2189	993.3	118.2
1048.6089	3199.1563	1008.55	119.55
1048.7119	3200.0931	989.7	116.05
1048.8148	3201.0292	990.65	116.5
1048.9178	3201.9648	988.1	113.75
1049.0206	3202.8997	992.95	113.15
1049.1235	3203.834	990.7	115
1049.2262	3204.7677	987.55	112.5
1049.329	3205.7008	988.65	114.3
1049.4317	3206.6333	984.25	110.45
1049.5343	3207.5652	986	108.15
1049.6369	3208.4964	988.7	115.1
1049.7394	3209.4271	986.85	114.3
1049.8419	3210.3571	984.35	108.55
1049.9444	3211.2865	982.5	107.85
1050.0468	3212.2154	982.95	107.3
1050.1491	3213.1436	986.45	108.55
1050.2514	3214.0712	990.2	110.15
1050.3537	3214.9982	982.1	109
1050.4559	3215.9246	977.35	101.6
1050.5581	3216.8503	980.3	106.75
1050.6602	3217.7755	981.75	106.8
1050.7623	3218.7001	979.1	106.75
1050.8643	3219.624	982.75	109.35
1050.9663	3220.5473	978.85	103.65
1051.0682	3221.4701	979.85	105.15
1051.1701	3222.3922	979.7	102.25
1051.2719	3223.3137	976.45	101.65
1051.3737	3224.2346	976.6	102
1051.4754	3225.1549	972.2	98.55
1051.5771	3226.0746	974.8	102.55
1051.6788	3226.9937	974.6	101.15
1051.7804	3227.9121	973.25	98.7
1051.8819	3228.83	971.55	96.35
1051.9834	3229.7473	972.75	97.25
1052.0849	3230.6639	973.5	98.8
1052.1863	3231.5799	970.35	97.45
1052.2876	3232.4954	972.05	99.6
1052.3889	3233.4102	972.05	100.6
1052.4902	3234.3244	968.15	94.75
1052.5914	3235.238	964.8	90.3
1052.6926	3236.151	981.45	95
1052.7937	3237.0634	967.8	94.4
1052.8948	3237.9752	964.8	91.15
1052.9958	3238.8864	965.15	91.85
1053.0968	3239.797	971.4	96.8
1053.1977	3240.7069	967.3	93.35
1053.2986	3241.6163	964.75	90
1053.3994	3242.5251	964.3	91.35
1053.5002	3243.4332	962.45	91.1
1053.6009	3244.3408	966.35	90.95
1053.7016	3245.2477	960.85	87.05
1053.8022	3246.154	961.8	87.35
1053.9028	3247.0598	960.45	86.15
1054.0034	3247.9649	960.45	88.9
1054.1039	3248.8694	959.1	85.4
1054.2043	3249.7733	959.15	85.5
1054.3047	3250.6766	957.35	84.6
1054.4051	3251.5793	960.4	85.7
1054.5054	3252.4814	955.3	82.7
1054.6056	3253.3829	957.35	83.45
1054.7058	3254.2838	956.8	84.05
1054.806	3255.1841	955.65	83
1054.9061	3256.0838	952.35	79.6
1055.0061	3256.9829	951.2	77.4
1055.1062	3257.8814	955.1	82.6
1055.2061	3258.7792	953.4	77.7
1055.306	3259.6765	948.65	74.3
1055.4059	3260.5731	950.5	77.7
1055.5057	3261.4692	948.3	74
1055.6055	3262.3647	947.7	72.95
1055.7052	3263.2595	946.15	72.2
1055.8049	3264.1538	944.1	70.1
1055.9045	3265.0474	944.85	71.15
1056.0041	3265.9404	941.2	68.95
1056.1036	3266.8329	942.3	67.55
1056.2031	3267.7247	952.95	68.75
1056.3025	3268.616	939.9	66.35
1056.4019	3269.5066	938.2	66.1
1056.5013	3270.3966	938.25	64.9
1056.6005	3271.286	933.4	62.55
