Software Version:	3.9.2.0
Unit SN:	10000200
Spectrometer SN:	6960
Date:	3/8/2024 1:12:19 PM
Data Line Index:	25
Spectral Points:	2048
Integration time (ms):	125
Averages:	20
Delay (ms):	30000
Sequence Number:	1
Processing:	dark subtract
Laser Power (mW):	300
Laser Current (mA):	823
Laser Diode Temp (C):	25
Laser Case Temp (C):	26.2
System Temp (C):	26.2
Spectrometer Temp (C):	24.1
CCD Temp (C):	0.009
Secondary Temp (C):	20.013
Heatsink Temp (C):	20.655
CCDPCB Temp (C):	36.307
SecondaryPCB Temp (C):	30.627

Wavelength	RamanShift	Raw Counts	Dark Subtracted
787.061	30.1047	453.85	46.5
787.2016	32.3739	456.15	51.65
787.3422	34.6426	460.25	52.05
787.4828	36.9109	466.85	58.5
787.6235	39.1787	478	64.05
787.7642	41.4461	481.65	63.45
787.9049	43.7131	494.75	72.55
788.0456	45.9796	499.85	76.05
788.1863	48.2456	509.25	81.55
788.3271	50.5112	515.85	83.45
788.4679	52.7764	527.6	93.4
788.6087	55.0411	538.2	98.5
788.7496	57.3054	552.35	107.05
788.8904	59.5692	558.75	111.75
789.0313	61.8326	570.55	122.95
789.1722	64.0955	579.65	125.95
789.3132	66.3579	598.1	140.5
789.4541	68.6199	618.15	156.45
789.5951	70.8815	657.6	193.35
789.7361	73.1426	736.5	265
789.8771	75.4032	942.45	470.2
790.0181	77.6634	1435.95	956.2
790.1592	79.9231	2618.95	2131.75
790.3003	82.1824	5148.8	4643.55
790.4414	84.4412	9733.65	9191.5
790.5825	86.6995	16015.55	15437.45
790.7237	88.9574	22165.2	21554.15
790.8648	91.2148	26367.7	25730.8
791.006	93.4717	28257.85	27601.7
791.1472	95.7282	28602.25	27938.7
791.2885	97.9842	28393.05	27726
791.4297	100.2398	27698.25	27030.45
791.571	102.4949	27049.55	26378.8
791.7123	104.7495	26157.15	25480.75
791.8536	107.0036	25313.2	24635.45
791.9949	109.2573	24514.4	23839.35
792.1363	111.5105	23766.15	23086.3
792.2777	113.7632	23030.35	22352.5
792.4191	116.0154	22457.25	21769.25
792.5605	118.2672	22029.75	21341.6
792.7019	120.5185	21569.8	20881.1
792.8434	122.7693	21202.15	20512
792.9849	125.0197	20935.1	20242.65
793.1264	127.2696	20652.8	19956.55
793.2679	129.519	20467.6	19770.9
793.4094	131.7679	20225.5	19517.35
793.551	134.0163	20008.4	19301.15
793.6926	136.2642	19735.75	19023.2
793.8342	138.5117	19448.5	18729.45
793.9758	140.7587	19144.1	18425.3
794.1175	143.0052	18880.4	18164.2
794.2591	145.2512	18583.7	17869.85
794.4008	147.4967	18303.25	17586.75
794.5425	149.7417	18147.6	17424.15
794.6842	151.9863	17972.8	17248.3
794.826	154.2304	17864	17135.95
794.9677	156.4739	17730.65	16996.9
795.1095	158.717	17637.1	16896
795.2513	160.9596	17491.05	16748.65
795.3931	163.2017	17247.2	16504.6
795.535	165.4433	16953.4	16208.8
795.6768	167.6844	16617	15868.7
795.8187	169.925	16308.25	15557.6
795.9606	172.1651	15923	15172.9
796.1025	174.4047	15669.95	14918.75
796.2445	176.6439	15429.3	14674.8
796.3864	178.8825	15185.95	14425.55
796.5284	181.1206	15040.95	14276.4
796.6704	183.3582	14886	14118.5
796.8124	185.5954	14756.15	13990.25
796.9544	187.832	14679.2	13911.9
797.0965	190.0681	14668.05	13898
797.2386	192.3037	14656.95	13876.55
797.3806	194.5388	14653.1	13869.3
797.5228	196.7734	14680.9	13893.85
797.6649	199.0075	14762.05	13973.55
797.807	201.2411	14902.5	14116.3
797.9492	203.4742	14959.95	14171.45
798.0914	205.7068	15137.65	14347.6
798.2336	207.9389	15226.85	14432.75
798.3758	210.1704	15416.05	14623.55
798.518	212.4015	15515.45	14736.95
798.6603	214.632	15669.5	14896.65
798.8025	216.862	15819.35	15047.55
798.9448	219.0915	15956.25	15183.7
799.0871	221.3205	16130.3	15352.85
799.2294	223.549	16340.5	15570.6
799.3718	225.777	16555	15780.75
799.5141	228.0044	16829.3	16053.75
799.6565	230.2314	17136.45	16355.3
799.7989	232.4578	17431.85	16652.15
799.9413	234.6837	17696.9	16911.8
800.0837	236.909	17820.4	17023.05
800.2262	239.1339	17834.05	17016.15
800.3687	241.3582	17700.15	16898.05
800.5111	243.582	17480.7	16643.55
800.6536	245.8053	17233.35	16412.85
800.7961	248.0281	17009.5	16193.95
800.9387	250.2503	16856.75	16037.05
801.0812	252.472	16814.45	15990.55
801.2238	254.6932	16881.85	16063.2
801.3664	256.9139	16873.2	16049.95
801.509	259.134	16975	16144.15
801.6516	261.3536	17072.8	16250.6
801.7942	263.5727	17278.5	16451.25
801.9369	265.7912	17382.95	16557.75
802.0795	268.0092	17527.3	16701.3
802.2222	270.2267	17551.2	16726.5
802.3649	272.4436	17582.7	16757.3
802.5076	274.6601	17578.55	16739.45
802.6504	276.8759	17514.8	16682.3
802.7931	279.0913	17394.95	16563.3
802.9359	281.3061	17328.6	16493.5
803.0787	283.5204	17303.4	16465.15
803.2215	285.7341	17324.05	16478.6
803.3643	287.9473	17446.7	16595.45
803.5071	290.16	17596.05	16751.8
803.6499	292.3721	17794.05	16953.6
803.7928	294.5837	18169.85	17332.55
803.9357	296.7947	18471.75	17632.6
804.0786	299.0052	18624.95	17786.4
804.2215	301.2152	18574.65	17733.8
804.3644	303.4246	18330.6	17493.3
804.5074	305.6334	17837.55	17001.65
804.6503	307.8418	17363.1	16519.2
804.7933	310.0495	16913.2	16072.4
804.9363	312.2568	16569.15	15721.85
805.0793	314.4635	16272.75	15423.05
805.2223	316.6696	16114.7	15264.75
805.3653	318.8752	15981.7	15125.35
805.5084	321.0802	15977.85	15128.15
805.6514	323.2847	16057.8	15204.5
805.7945	325.4887	16083.55	15228.35
805.9376	327.692	16064.35	15213.05
806.0807	329.8949	15951.65	15092.9
806.2238	332.0972	15709.15	14849.15
806.367	334.2989	15491.9	14628.65
806.5101	336.5001	15229.35	14369.4
806.6533	338.7007	15027.15	14164.9
806.7965	340.9008	14907.9	14046.9
806.9397	343.1003	14774.1	13909.2
807.0829	345.2992	14724.05	13861.35
807.2261	347.4976	14641.9	13771.6
807.3693	349.6955	14608.4	13734.8
807.5126	351.8927	14655.75	13781.7
807.6559	354.0895	14625.95	13740.15
807.7991	356.2856	14619.1	13744.9
807.9424	358.4812	14614.65	13740.65
808.0857	360.6763	14630.6	13750.8
808.2291	362.8707	14609.55	13732.75
808.3724	365.0646	14651.5	13770.75
808.5158	367.258	14666.65	13785.95
808.6591	369.4508	14759	13876.9
808.8025	371.643	14871.8	13990.95
808.9459	373.8346	14887.35	13999.9
809.0893	376.0257	14889.8	13999.1
809.2327	378.2162	14883.5	13998.55
809.3762	380.4062	14813.55	13928.35
809.5196	382.5956	14649.25	13763.25
809.6631	384.7844	14579	13701.85
809.8066	386.9726	14442.7	13562.6
809.9501	389.1603	14377.7	13498.95
810.0936	391.3474	14376.25	13467.65
810.2371	393.5339	14341.1	13459.2
810.3806	395.7199	14284.55	13406.25
810.5241	397.9052	14302	13426.9
810.6677	400.09	14370.4	13493.4
810.8113	402.2743	14481.7	13608.8
810.9548	404.4579	14584.4	13705.55
811.0984	406.641	14775.25	13893.85
811.2421	408.8235	14979.65	14102.5
811.3857	411.0054	15237.35	14352.7
811.5293	413.1868	15577.9	14687.6
811.673	415.3675	15777.25	14885.55
811.8166	417.5477	15895.1	15005.2
811.9603	419.7273	15903	15005.1
812.104	421.9064	15818.95	14921.7
812.2477	424.0848	15734	14845.8
812.3914	426.2627	15570.6	14678.7
812.5351	428.4399	15276.3	14382.4
812.6788	430.6166	14949.65	14051.8
812.8226	432.7928	14570.95	13672.8
812.9663	434.9683	14257.75	13359.75
813.1101	437.1432	14044.3	13151.25
813.2539	439.3176	13865.25	12978.05
813.3977	441.4914	13753.75	12868.85
813.5415	443.6645	13759.95	12870.4
813.6853	445.8371	13694.05	12802.25
813.8291	448.0091	13621.6	12726
813.973	450.1806	13625.55	12735.3
814.1168	452.3514	13607.7	12716.4
814.2607	454.5216	13610.5	12715.55
814.4046	456.6913	13549.15	12655.45
814.5485	458.8603	13598.15	12706.05
814.6924	461.0288	13675.05	12788.3
814.8363	463.1967	13678.2	12794.8
814.9802	465.3639	13765.65	12876.9
815.1241	467.5306	13788	12894.35
815.2681	469.6967	13907.85	13019.7
815.412	471.8622	13978	13087.45
815.556	474.0271	14092.95	13204.25
815.7	476.1914	14143.1	13242.9
815.844	478.3551	14126.3	13233.25
815.988	480.5182	14171.75	13281
816.132	482.6807	14219.75	13338
816.276	484.8426	14380.55	13504.2
816.4201	487.0039	14671.2	13789.6
816.5641	489.1647	15072.85	14177.75
816.7082	491.3248	15433.55	14534.95
816.8522	493.4843	15587.6	14699.95
816.9963	495.6432	15591.5	14704.15
817.1404	497.8015	15491.2	14591.3
817.2845	499.9592	15445.95	14536.9
817.4286	502.1163	15316	14406.45
817.5727	504.2728	15034.05	14136.85
817.7168	506.4287	14768.05	13884.25
817.861	508.5839	14384.25	13498.8
818.0051	510.7386	14099.95	13208.55
818.1493	512.8927	13970.45	13063.9
818.2935	515.0461	13906.55	13004.4
818.4377	517.199	13921.9	13017.35
818.5818	519.3512	13986.1	13080.5
818.726	521.5029	14160.3	13255.1
818.8703	523.6539	14311.2	13405.2
819.0145	525.8043	14432.35	13524.95
819.1587	527.9541	14395.35	13491.05
819.303	530.1033	14281.45	13377.25
819.4472	532.2519	14242.9	13338.2
819.5915	534.3999	14256.9	13352.8
819.7357	536.5472	14458.35	13557.35
819.88	538.694	14808	13908.8
820.0243	540.8401	15253.1	14346.55
820.1686	542.9856	15645.3	14730.8
820.3129	545.1305	15763.2	14840.3
820.4572	547.2748	15654.95	14732.4
820.6016	549.4185	15364	14437.85
820.7459	551.5615	15080.65	14160.05
820.8902	553.704	15060.2	14135.85
821.0346	555.8458	15052.7	14138.45
821.1789	557.987	15164.65	14255.4
821.3233	560.1276	15235.55	14317.2
821.4677	562.2675	15437.1	14516
821.6121	564.4069	15701.1	14780.6
821.7565	566.5456	15891.85	14976
821.9009	568.6837	15930.05	15012.8
822.0453	570.8212	15571.95	14660.35
822.1897	572.958	15108.8	14195.2
822.3342	575.0942	14660.15	13748
822.4786	577.2299	14338.2	13430.55
822.6231	579.3648	14252.2	13359.5
822.7675	581.4992	14210.75	13327
822.912	583.6329	14408.25	13525.2
823.0565	585.766	14604.15	13714.95
823.201	587.8985	14738.35	13842.1
823.3454	590.0304	14801.05	13866.75
823.4899	592.1616	14706.35	13791.3
823.6345	594.2922	14597.9	13680.25
823.779	596.4222	14448.3	13529.8
823.9235	598.5515	14256.3	13329.45
824.068	600.6802	14110	13186.05
824.2126	602.8083	13911.7	12993.65
824.3571	604.9358	13888.8	12967.1
824.5017	607.0626	13854.55	12933.05
824.6462	609.1888	13931.15	13001.75
824.7908	611.3144	13933.15	13006.85
824.9354	613.4393	13936.2	13009.35
825.08	615.5636	13932.85	13004.1
825.2246	617.6873	13925.65	12999.15
825.3692	619.8103	13846.25	12919.1
825.5138	621.9327	13716.65	12788.55
825.6584	624.0544	13590.9	12672.45
825.803	626.1756	13475.55	12556.65
825.9477	628.2961	13436.25	12512
826.0923	630.4159	13336.9	12410.4
826.237	632.5351	13308.5	12382.9
826.3816	634.6537	13276.3	12344.75
826.5263	636.7716	13283.3	12350.85
826.6709	638.8889	13300.2	12368.3
826.8156	641.0056	13331.9	12398.9
826.9603	643.1216	13313.7	12376.6
827.105	645.237	13306.95	12378.75
827.2497	647.3518	13241.8	12323.7
827.3944	649.4659	13235.35	12317.6
827.5391	651.5793	13234.7	12316.45
827.6838	653.6922	13201.25	12281.75
827.8285	655.8043	13218.45	12295.6
827.9733	657.9159	13185.05	12262.65
828.118	660.0268	13118.75	12195.45
828.2627	662.137	13142.65	12216.85
828.4075	664.2466	13105.45	12169.7
828.5522	666.3556	13071.7	12142.25
828.697	668.4639	13067.65	12135.9
828.8418	670.5716	13094.35	12171.6
828.9865	672.6786	13127.2	12200.35
829.1313	674.785	13139.9	12206.45
829.2761	676.8907	13157.8	12224.65
829.4209	678.9958	13215.1	12288.9
829.5657	681.1002	13196.35	12264.45
829.7105	683.204	13181.8	12243.2
829.8553	685.3072	13163.05	12225.25
830.0001	687.4097	13087.55	12151.5
830.1449	689.5115	13083.7	12149.85
830.2898	691.6127	13054	12125.15
830.4346	693.7132	12987.1	12061.2
830.5794	695.8131	13039.75	12096.25
830.7243	697.9123	13017.1	12079.65
830.8691	700.0109	12980.15	12038.7
831.014	702.1089	13046.4	12111.45
831.1588	704.2061	13053.1	12118.1
831.3037	706.3028	13097.75	12158.2
831.4486	708.3987	13122.9	12183.5
831.5935	710.4941	13169.75	12237.1
831.7383	712.5887	13323.8	12389.2
831.8832	714.6827	13505.5	12566.65
832.0281	716.7761	13736.35	12806.6
832.173	718.8688	14027.2	13092.3
832.3179	720.9608	14229.15	13284.2
832.4628	723.0522	14332.75	13385.3
832.6077	725.1429	14244.2	13305.3
832.7527	727.233	14127.5	13190.45
832.8976	729.3224	14019.2	13079.4
833.0425	731.4112	13830.1	12891
833.1874	733.4993	13661.15	12719.5
833.3324	735.5867	13468.55	12533.55
833.4773	737.6735	13302.35	12366.15
833.6222	739.7596	13208.25	12265.5
833.7672	741.845	13091.15	12154.1
833.9122	743.9298	13058.45	12117.8
834.0571	746.014	13065.55	12126.95
834.2021	748.0974	13073.95	12127.35
834.347	750.1802	13070.15	12124.3
834.492	752.2624	13124.25	12179.8
834.637	754.3439	13135.3	12191.1
834.782	756.4247	13226.35	12270.05
834.9269	758.5048	13355.45	12410.15
835.0719	760.5843	13622.9	12676.45
835.2169	762.6631	14006.55	13061.1
835.3619	764.7413	14545.05	13603.85
835.5069	766.8188	15156.6	14208.2
835.6519	768.8956	15685.9	14741.35
835.7969	770.9718	16019.3	15074.2
835.9419	773.0473	15899.75	14953.4
836.0869	775.1221	15586.6	14640.75
836.232	777.1962	15250.3	14305.8
836.377	779.2697	15111.7	14165.75
836.522	781.3426	15177.8	14219.25
836.667	783.4147	15350.15	14398.55
836.8121	785.4862	15541.3	14596.65
836.9571	787.557	15471.75	14523.05
837.1021	789.6271	15072.3	14124.25
837.2472	791.6966	14513.2	13566.4
837.3922	793.7654	13922.2	12976.7
837.5373	795.8335	13587.75	12639.3
837.6823	797.901	13347.3	12401.6
837.8274	799.9678	13240.4	12289.4
837.9724	802.0339	13190.6	12239.65
838.1175	804.0993	13216.5	12254.75
838.2626	806.1641	13187.45	12235
838.4076	808.2282	13151.4	12201.95
838.5527	810.2916	13063.85	12114.05
838.6978	812.3544	12948.7	12001.8
838.8428	814.4164	12871.15	11927.7
838.9879	816.4778	12914.1	11961.55
839.133	818.5385	12935.35	11981.65
839.2781	820.5986	13042.85	12089.05
839.4232	822.658	13232.2	12278.55
839.5682	824.7166	13445.15	12496.05
839.7133	826.7747	13838.65	12887.65
839.8584	828.832	14160	13206.25
840.0035	830.8886	14447	13494.5
840.1486	832.9446	14598.85	13645.25
840.2937	834.9999	14517.8	13562.75
840.4388	837.0545	14355.45	13400.45
840.5839	839.1085	14201.25	13246.9
840.729	841.1618	14074.2	13114.35
840.8741	843.2143	13941.65	12986.25
841.0192	845.2662	13789.85	12838.4
841.1643	847.3175	13701.9	12754.55
841.3095	849.368	13569.45	12613.45
841.4546	851.4179	13475	12520.8
841.5997	853.467	13315.65	12361.5
841.7448	855.5155	13245.45	12289.8
841.8899	857.5633	13174.8	12224.5
842.0351	859.6105	13092.45	12135.4
842.1802	861.6569	13004.25	12051.35
842.3253	863.7027	12982.55	12024.05
842.4704	865.7478	12966.55	12010.85
842.6156	867.7922	12955.65	12004.35
842.7607	869.8359	12955.6	12004.1
842.9058	871.8789	13040.95	12083.55
843.0509	873.9212	13179.85	12190.35
843.1961	875.9629	13277.9	12320.7
843.3412	878.0039	13450.15	12494.55
843.4863	880.0441	13534.7	12584.3
843.6315	882.0837	13560.9	12610.05
843.7766	884.1226	13566.35	12612.85
843.9218	886.1609	13533.95	12580.3
844.0669	888.1984	13501.3	12549.15
844.212	890.2352	13571.95	12617.1
844.3572	892.2714	13540.45	12578.5
844.5023	894.3069	13530.5	12574.75
844.6475	896.3416	13398.2	12444.95
844.7926	898.3757	13342.3	12387.35
844.9377	900.4091	13275.5	12315.5
845.0829	902.4418	13318.75	12359.6
845.228	904.4739	13320.3	12358.55
845.3732	906.5052	13358.45	12400.05
845.5183	908.5358	13277.4	12320.6
845.6635	910.5658	13137.4	12178.9
845.8086	912.595	12958.2	11999.65
845.9538	914.6236	12759.45	11802.3
846.0989	916.6515	12695.35	11736.9
846.2441	918.6786	12632.45	11674.1
846.3892	920.7051	12699.1	11737.85
846.5344	922.7309	12787.3	11826.95
846.6795	924.756	12827.7	11868.2
846.8246	926.7804	12910.1	11947.65
846.9698	928.8041	12900.95	11945.05
847.1149	930.8272	12941.95	11983.65
847.2601	932.8495	12895.35	11936.15
847.4052	934.8711	12851.9	11892.5
847.5504	936.892	12751.1	11789.45
847.6955	938.9123	12685.7	11726.65
847.8407	940.9318	12624.9	11667.3
847.9858	942.9506	12575.55	11618.55
848.131	944.9688	12469.6	11513.6
848.2761	946.9862	12434.6	11475.15
848.4213	949.003	12311.2	11351.55
848.5664	951.019	12272.4	11313.95
848.7115	953.0344	12229.8	11271.1
848.8567	955.0491	12253.7	11294.25
849.0018	957.063	12333.15	11376.45
849.147	959.0763	12423.8	11465.5
849.2921	961.0888	12470.25	11510.2
849.4373	963.1007	12552.2	11595.9
849.5824	965.1119	12580.6	11631.95
849.7275	967.1223	12585.05	11642.5
849.8727	969.1321	12601.35	11660.7
850.0178	971.1412	12619.7	11674.4
850.1629	973.1495	12631.5	11674.6
850.3081	975.1572	12700.2	11697.7
850.4532	977.1641	12693.05	11733.3
850.5983	979.1704	12664.75	11705.5
850.7435	981.1759	12657.8	11696.95
850.8886	983.1808	12668.4	11709
851.0337	985.1849	12747.8	11780.9
851.1788	987.1884	12850.7	11889.4
851.324	989.1911	12990.2	12030.65
851.4691	991.1932	13083.95	12126.7
851.6142	993.1945	13104.6	12147.3
851.7593	995.1951	13077.15	12119.45
851.9045	997.1951	13030.9	12063.95
852.0496	999.1943	13021.55	12062.65
852.1947	1001.1928	13005.75	12048.95
852.3398	1003.1906	12987.9	12030.8
852.4849	1005.1877	13072.35	12111.95
852.63	1007.1841	13111.9	12154.1
852.7751	1009.1798	13082.35	12123.55
852.9202	1011.1748	12959.2	12004.35
853.0653	1013.1691	12763.9	11807.55
853.2104	1015.1627	12572.05	11611.6
853.3555	1017.1556	12359.5	11403.15
853.5006	1019.1477	12278.4	11325.35
853.6457	1021.1392	12157.9	11209
853.7908	1023.1299	12143.75	11202.7
853.9359	1025.12	12145.15	11205.3
854.081	1027.1093	12166	11237.95
854.2261	1029.0979	12315.7	11392.15
854.3712	1031.0859	12380.55	11449.45
854.5163	1033.0731	12414.9	11473.9
854.6613	1035.0596	12339.1	11390.95
854.8064	1037.0454	12202.95	11253.6
854.9515	1039.0304	12122.5	11170.6
855.0965	1041.0148	11995.25	11047.45
855.2416	1042.9985	11908.35	10952.2
855.3867	1044.9814	11853.05	10898.2
855.5317	1046.9636	11818.15	10861.85
855.6768	1048.9452	11780	10828.4
855.8219	1050.926	11830.75	10880.8
855.9669	1052.9061	11843.05	10890.4
856.112	1054.8855	11836.2	10880.95
856.257	1056.8642	11905.2	10950.1
856.4021	1058.8421	11946.75	10982.25
856.5471	1060.8194	11978.6	11022.65
856.6921	1062.7959	12007.55	11055.95
856.8372	1064.7717	12052.9	11096.95
856.9822	1066.7469	12118.1	11163.45
857.1272	1068.7213	12137.5	11179.7
857.2723	1070.695	12179.6	11226.5
857.4173	1072.6679	12149.4	11193.85
857.5623	1074.6402	12120	11167.55
857.7073	1076.6117	12117.85	11160.95
857.8523	1078.5826	12039.6	11083.2
857.9973	1080.5527	11978.2	11018.7
858.1423	1082.5221	11995.95	11039.3
858.2873	1084.4908	12076.4	11121.15
858.4323	1086.4587	12203.15	11245.4
858.5773	1088.426	12312.9	11357.4
858.7223	1090.3925	12299.4	11339.35
858.8673	1092.3584	12282.9	11327.75
859.0123	1094.3235	12208.05	11253.95
859.1573	1096.2879	12217	11263.3
859.3022	1098.2515	12271.8	11315.25
859.4472	1100.2145	12392.05	11438.7
859.5922	1102.1767	12525.8	11570.5
859.7371	1104.1382	12723.55	11770.35
859.8821	1106.099	12953.8	11996.8
860.027	1108.0591	13168.35	12217.65
860.172	1110.0185	13333.8	12378.3
860.3169	1111.9771	13372.3	12419.1
860.4619	1113.9351	13213.15	12257.5
860.6068	1115.8923	13021.5	12066.4
860.7517	1117.8488	12768.15	11812.5
860.8967	1119.8045	12537.05	11584.8
861.0416	1121.7596	12427.65	11475.75
861.1865	1123.7139	12334.85	11384.15
861.3314	1125.6675	12328.3	11379.05
861.4763	1127.6204	12385.2	11432.8
861.6212	1129.5726	12332.05	11380.5
861.7661	1131.524	12296.95	11344.6
861.911	1133.4748	12208.45	11253.15
862.0559	1135.4248	12095.65	11137.05
862.2008	1137.3741	12016.05	11063.4
862.3457	1139.3226	11949.65	10996.5
862.4905	1141.2705	11920.5	10965.15
862.6354	1143.2176	11822.2	10863.8
862.7803	1145.164	11804.95	10849.75
862.9251	1147.1097	11753.4	10802.25
863.07	1149.0546	11713.8	10758.4
863.2148	1150.9989	11631.85	10680.75
863.3597	1152.9424	11518.9	10565.15
863.5045	1154.8852	11385.1	10432.4
863.6493	1156.8272	11348.95	10398.65
863.7942	1158.7686	11310.2	10350
863.939	1160.7092	11307.45	10354.55
864.0838	1162.6491	11304.1	10349.2
864.2286	1164.5883	11384.9	10431.7
864.3734	1166.5267	11469.95	10514.25
864.5182	1168.4644	11628.45	10678.95
864.663	1170.4014	11861.4	10908.75
864.8078	1172.3377	12078.8	11132.15
864.9526	1174.2732	12344.55	11396.85
865.0974	1176.2081	12691.9	11743.45
865.2421	1178.1421	13061.8	12108.8
865.3869	1180.0755	13416.5	12465.75
865.5317	1182.0082	13660.95	12711.15
865.6764	1183.9401	13734.9	12785.9
865.8212	1185.8713	13619.3	12678.05
865.9659	1187.8017	13331.55	12396.65
866.1106	1189.7315	13006.6	12077.5
866.2554	1191.6605	12673.05	11747.15
866.4001	1193.5888	12445.95	11512.4
866.5448	1195.5163	12340.65	11399.7
866.6895	1197.4432	12223.8	11276.7
866.8342	1199.3693	12188.35	11241.6
866.9789	1201.2947	12200.05	11249.25
867.1236	1203.2193	12178.9	11230.7
867.2683	1205.1432	12142.9	11193.15
867.413	1207.0664	12180.85	11236.45
867.5576	1208.9889	12161.45	11211.2
867.7023	1210.9106	12164.85	11215.75
867.847	1212.8316	12136.65	11190.8
867.9916	1214.7519	12222.75	11266.85
868.1363	1216.6715	12240.25	11292.5
868.2809	1218.5903	12250.8	11302.55
868.4255	1220.5084	12274.35	11324.95
868.5701	1222.4257	12318	11368.6
868.7148	1224.3424	12344.5	11401.75
868.8594	1226.2583	12419.05	11469.85
869.004	1228.1735	12530.55	11582.6
869.1486	1230.0879	12620.55	11670.35
869.2932	1232.0016	12786.3	11840.7
869.4377	1233.9146	12861.85	11912.35
869.5823	1235.8269	12808.35	11863.1
869.7269	1237.7384	12709.4	11760.2
869.8715	1239.6492	12541.7	11599.45
870.016	1241.5592	12470.5	11521.7
870.1606	1243.4686	12451.35	11500.65
870.3051	1245.3772	12506.7	11554.95
870.4496	1247.285	12596.7	11650.4
870.5941	1249.1922	12634.3	11685.8
870.7387	1251.0986	12718.75	11773.2
870.8832	1253.0042	12738.5	11792.35
871.0277	1254.9092	12780.1	11834.8
871.1722	1256.8134	12876.55	11929.95
871.3167	1258.7169	13035.75	12089.6
871.4611	1260.6196	13179.75	12235.9
871.6056	1262.5216	13411.6	12465.15
871.7501	1264.4229	13602.1	12657.05
871.8945	1266.3234	13777.35	12832
872.039	1268.2232	13845.8	12899.35
872.1834	1270.1223	13882.8	12935.9
872.3278	1272.0207	13925.85	12978.1
872.4723	1273.9183	13879.3	12924.4
872.6167	1275.8151	13838.5	12893.05
872.7611	1277.7113	13796.6	12851.55
872.9055	1279.6067	13739.6	12796.1
873.0499	1281.5014	13830	12883.95
873.1943	1283.3953	13964.7	13013.9
873.3386	1285.2885	14224.85	13278.8
873.483	1287.181	14443.85	13501.75
873.6274	1289.0727	14703.7	13763.75
873.7717	1290.9637	14911.4	13966.6
873.9161	1292.854	15085.55	14144.95
874.0604	1294.7435	15124.6	14179
874.2047	1296.6323	15154.05	14206.85
874.349	1298.5204	15212.5	14265.55
874.4933	1300.4077	15237.8	14293.65
874.6376	1302.2943	15202.7	14258.6
874.7819	1304.1802	15084.4	14141.5
874.9262	1306.0653	14792	13845.6
875.0705	1307.9497	14471.15	13528.2
875.2147	1309.8333	14234.35	13293.9
875.359	1311.7162	14019.3	13073.6
875.5032	1313.5984	13930.25	12982.45
875.6475	1315.4798	13905.5	12951.15
875.7917	1317.3605	13893	12930.95
875.9359	1319.2405	13863.2	12915.75
876.0801	1321.1197	13723.85	12775.6
876.2243	1322.9982	13500.25	12553.85
876.3685	1324.876	13363.4	12418.6
876.5127	1326.753	13169.65	12226.15
876.6569	1328.6293	13054.9	12106.4
876.801	1330.5048	13007.1	12057.7
876.9452	1332.3796	12882.05	11939.8
877.0893	1334.2537	12847.45	11876.1
877.2335	1336.127	12776.15	11830.45
877.3776	1337.9996	12696.1	11751.1
877.5217	1339.8714	12741.2	11794.65
877.6658	1341.7426	12763.45	11776.15
877.8099	1343.6129	12722.85	11776.55
877.954	1345.4826	12683.45	11738.45
878.0981	1347.3515	12678.75	11731.7
878.2422	1349.2196	12651.75	11703.9
878.3862	1351.087	12688.15	11742
878.5303	1352.9537	12733.8	11786.15
878.6743	1354.8197	12845.7	11898.3
878.8184	1356.6849	13036.25	12089.9
878.9624	1358.5493	13129.55	12182.4
879.1064	1360.4131	13253.8	12310.3
879.2504	1362.276	13277.5	12332.7
879.3944	1364.1383	13212.9	12269.5
879.5384	1365.9998	12998.85	12048.6
879.6823	1367.8606	12689.4	11741.5
879.8263	1369.7206	12333.9	11386.3
879.9702	1371.5799	12035.25	11089.8
880.1142	1373.4384	11844.05	10899.9
880.2581	1375.2962	11613.75	10667.5
880.402	1377.1533	11323.25	10383.5
880.5459	1379.0096	10970.7	10029.7
880.6898	1380.8652	10653.65	9714.95
880.8337	1382.7201	10382.85	9442.65
880.9776	1384.5742	10152.9	9209.7
881.1215	1386.4275	9968.25	9024.2
881.2653	1388.2802	9826.9	8885.95
881.4092	1390.132	9714.95	8770.5
881.553	1391.9832	9643.75	8694.05
881.6968	1393.8336	9558.5	8614.9
881.8406	1395.6832	9514.75	8570.7
881.9844	1397.5322	9478.6	8538.45
882.1282	1399.3803	9461.95	8514.25
882.272	1401.2278	9397.45	8453.5
882.4158	1403.0745	9388.6	8448.25
882.5595	1404.9204	9403.05	8466.8
882.7033	1406.7656	9430.85	8487.45
882.847	1408.6101	9404.9	8460.25
882.9908	1410.4538	9460.25	8515.5
883.1345	1412.2968	9485.4	8542.3
883.2782	1414.139	9511.15	8572.6
883.4219	1415.9805	9601.35	8659.35
883.5656	1417.8213	9679.1	8733
883.7092	1419.6613	9779.4	8841.25
883.8529	1421.5006	9972.1	9031.85
883.9965	1423.3391	10165.35	9225
884.1402	1425.1769	10459.75	9519.2
884.2838	1427.0139	10909.95	9966
884.4274	1428.8502	11484.1	10544.45
884.571	1430.6858	12018.2	11079.7
884.7146	1432.5206	12430.5	11488.45
884.8582	1434.3547	12667.9	11726.2
885.0018	1436.188	12646.85	11707.15
885.1453	1438.0206	12580.2	11639.45
885.2889	1439.8524	12398.7	11459.9
885.4324	1441.6835	12300.4	11360.6
885.5759	1443.5139	12217.85	11275.25
885.7194	1445.3435	12139.4	11198.35
885.8629	1447.1724	12101.6	11165.75
886.0064	1449.0005	12032.6	11093.7
886.1499	1450.8279	11929.95	10989.2
886.2933	1452.6545	11903.8	10965.75
886.4368	1454.4804	11926.4	10991.95
886.5802	1456.3056	11913.2	10969.8
886.7237	1458.13	11848.15	10911.4
886.8671	1459.9536	11639.55	10702.95
887.0105	1461.7766	11331.75	10394.35
887.1539	1463.5987	10971.9	10033.25
887.2972	1465.4202	10606.4	9667.3
887.4406	1467.2409	10259.7	9317.55
887.584	1469.0608	10011.15	9069.5
887.7273	1470.88	9722.95	8781.15
887.8706	1472.6984	9505.15	8567.2
888.0139	1474.5161	9298.45	8356.2
888.1572	1476.3331	9139.65	8205.2
888.3005	1478.1493	9028.05	8091.15
888.4438	1479.9648	8942.05	8005.5
888.5871	1481.7795	8824.95	7889.8
888.7303	1483.5935	8764.1	7824.55
888.8736	1485.4067	8699	7759
889.0168	1487.2192	8631	7689.5
889.16	1489.031	8622.2	7679.8
889.3032	1490.842	8552.5	7615.3
889.4464	1492.6522	8544.15	7606.1
889.5896	1494.4618	8502.7	7562.6
889.7327	1496.2705	8447.6	7511.4
889.8759	1498.0785	8414.2	7476.55
890.019	1499.8858	8373.15	7435.25
890.1622	1501.6924	8334.45	7399.65
890.3053	1503.4981	8321.6	7386.4
890.4484	1505.3032	8243.2	7306.05
890.5914	1507.1075	8234.15	7294.35
890.7345	1508.911	8202.25	7264.15
890.8776	1510.7138	8153.1	7215.75
891.0206	1512.5159	8104.1	7167.35
891.1637	1514.3172	8075.95	7140.6
891.3067	1516.1178	8023.8	7091.2
891.4497	1517.9176	7993.5	7054.05
891.5927	1519.7166	7939.15	7007.1
891.7357	1521.515	7901.85	6961.65
891.8786	1523.3126	7878.25	6943.75
892.0216	1525.1094	7837.95	6903.15
892.1645	1526.9055	7812.1	6879.9
892.3074	1528.7008	7780.4	6847.75
892.4503	1530.4954	7760.3	6829.6
892.5932	1532.2893	7743.75	6813.8
892.7361	1534.0824	7726.45	6790.55
892.879	1535.8747	7722.25	6793.4
893.0218	1537.6663	7670.9	6740.2
893.1647	1539.4572	7678.85	6748.55
893.3075	1541.2473	7683.65	6750.5
893.4503	1543.0367	7654	6726.95
893.5931	1544.8253	7661.75	6724.3
893.7359	1546.6132	7680.55	6748.4
893.8787	1548.4003	7693.05	6754.85
894.0214	1550.1867	7732.35	6798.4
894.1642	1551.9723	7762.6	6831.15
894.3069	1553.7572	7803.45	6873.9
894.4496	1555.5414	7916.55	6988.95
894.5923	1557.3247	7991.75	7068.1
894.735	1559.1074	8087.3	7164.9
894.8777	1560.8893	8210.9	7286.8
895.0204	1562.6705	8337.2	7414.05
895.163	1564.4509	8422.1	7501.1
895.3056	1566.2305	8473.95	7557.2
895.4482	1568.0094	8520.4	7601.9
895.5908	1569.7876	8537.7	7618.05
895.7334	1571.565	8543.35	7620.55
895.876	1573.3417	8531.9	7609.5
896.0186	1575.1176	8512.65	7589.95
896.1611	1576.8928	8468.9	7548
896.3036	1578.6672	8419.3	7508
896.4461	1580.4409	8378.05	7468.2
896.5886	1582.2138	8336.3	7419.3
896.7311	1583.986	8297.7	7379.8
896.8736	1585.7575	8316.4	7397.15
897.0161	1587.5282	8297.75	7385.4
897.1585	1589.2981	8333.6	7421.15
897.3009	1591.0673	8344.55	7434.35
897.4433	1592.8358	8403.55	7490.25
897.5857	1594.6035	8470.9	7556.1
897.7281	1596.3704	8507.25	7586.95
897.8705	1598.1366	8595.85	7677.65
898.0128	1599.9021	8658.8	7746.3
898.1551	1601.6668	8728.15	7811.95
898.2975	1603.4308	8843.25	7925.15
898.4398	1605.194	8979.85	8060.45
898.5821	1606.9564	9155.65	8247.6
898.7243	1608.7182	9328	8421.3
898.8666	1610.4791	9536.7	8635.95
899.0088	1612.2394	9775.65	8876.9
899.1511	1613.9988	10031.3	9127.75
899.2933	1615.7576	10282.1	9374.45
899.4355	1617.5156	10478.45	9560.3
899.5776	1619.2728	10575	9659.15
899.7198	1621.0293	10625.95	9712.4
899.862	1622.785	10518.75	9605.5
900.0041	1624.54	10319.2	9410.4
900.1462	1626.2942	10100.5	9194.65
900.2883	1628.0477	9766.5	8855.3
900.4304	1629.8005	9506.25	8597
900.5725	1631.5525	9237.1	8327.05
900.7145	1633.3037	9035.4	8130.2
900.8566	1635.0542	8867.35	7961.45
900.9986	1636.804	8748.55	7842.1
901.1406	1638.553	8738.9	7740.95
901.2826	1640.3013	8625.9	7718.05
901.4245	1642.0488	8606.55	7697.65
901.5665	1643.7955	8629.95	7724.15
901.7085	1645.5416	8683.85	7775.85
901.8504	1647.2868	8779.5	7872.8
901.9923	1649.0313	8887.3	7977.35
902.1342	1650.7751	9046.35	8136.75
902.2761	1652.5181	9184.8	8279.35
902.4179	1654.2604	9381.45	8478.55
902.5598	1656.0019	9625.95	8719
902.7016	1657.7427	9889.55	8981.95
902.8434	1659.4828	10175.75	9265.8
902.9852	1661.222	10346.3	9439.35
903.127	1662.9606	10296.25	9387.35
903.2687	1664.6984	10070.55	9159.05
903.4105	1666.4354	9643.55	8728.9
903.5522	1668.1717	9091.45	8181
903.6939	1669.9072	8539.65	7626.1
903.8356	1671.642	8073.25	7157.6
903.9773	1673.3761	7707.85	6800.6
904.119	1675.1094	7400.15	6487.65
904.2606	1676.8419	7156.4	6248.45
904.4022	1678.5737	6964.1	6054.65
904.5439	1680.3048	6829.35	5921.05
904.6855	1682.0351	6712.45	5802.6
904.827	1683.7646	6593.3	5678.45
904.9686	1685.4934	6491.3	5583.35
905.1101	1687.2215	6432	5524.05
905.2517	1688.9488	6373.2	5466.5
905.3932	1690.6754	6306.2	5401.2
905.5347	1692.4012	6250.1	5343.35
905.6761	1694.1263	6223.75	5315.25
905.8176	1695.8506	6184.45	5275.1
905.9591	1697.5742	6145.8	5242.05
906.1005	1699.297	6098.8	5196
906.2419	1701.0191	6065.9	5163.2
906.3833	1702.7404	6037.4	5136.5
906.5246	1704.461	5978.25	5074.8
906.666	1706.1808	5946.85	5038.1
906.8073	1707.8999	5911.4	5009.05
906.9487	1709.6182	5887.95	4987
907.09	1711.3358	5838.3	4940.65
907.2313	1713.0527	5815	4919.45
907.3725	1714.7688	5797.7	4892.8
907.5138	1716.4841	5766.9	4862.55
907.655	1718.1987	5772.75	4862.55
907.7962	1719.9126	5746.15	4848.85
907.9374	1721.6257	5683.4	4783.85
908.0786	1723.338	5685.05	4786.3
908.2198	1725.0496	5661	4761.85
908.3609	1726.7605	5652.95	4752.9
908.502	1728.4706	5637.75	4735.6
908.6431	1730.18	5609.75	4710.5
908.7842	1731.8886	5616	4720.05
908.9253	1733.5964	5589.25	4670
909.0664	1735.3036	5559.3	4658.1
909.2074	1737.0099	5545.2	4646.85
909.3484	1738.7156	5520	4623.7
909.4894	1740.4204	5486.15	4585
909.6304	1742.1246	5472.45	4570.9
909.7714	1743.8279	5434.45	4533.25
909.9123	1745.5306	5430.3	4531.75
910.0532	1747.2325	5404.65	4507.7
910.1941	1748.9336	5370.55	4470.95
910.335	1750.634	5359.85	4457
910.4759	1752.3336	5343.1	4444.65
910.6168	1754.0325	5312.15	4418.3
910.7576	1755.7307	5318.2	4423.25
910.8984	1757.4281	5309.3	4410.6
911.0392	1759.1247	5307.7	4396.65
911.18	1760.8206	5296.4	4388.25
911.3208	1762.5158	5290.35	4383.6
911.4615	1764.2102	5254.4	4354.2
911.6022	1765.9039	5225.6	4329
911.7429	1767.5968	5217.45	4323.9
911.8836	1769.289	5205.55	4308.65
912.0243	1770.9804	5186.75	4287.15
912.1649	1772.6711	5202.55	4301.3
912.3056	1774.361	5165.9	4262.95
912.4462	1776.0502	5179.45	4276.35
912.5868	1777.7386	5159.7	4257.2
912.7274	1779.4263	5133.25	4235.9
912.8679	1781.1132	5124.25	4230.1
913.0084	1782.7994	5112.45	4219.3
913.149	1784.4849	5101.75	4208.45
913.2895	1786.1696	5098.75	4197.35
913.4299	1787.8535	5090.25	4196.85
913.5704	1789.5367	5062.25	4170.15
913.7108	1791.2192	5048.1	4153.8
913.8513	1792.9009	5060.3	4136.5
913.9917	1794.5818	5043.5	4142.85
914.132	1796.2621	5027.25	4130.5
914.2724	1797.9415	4994.3	4095.9
914.4128	1799.6202	4998.75	4101
914.5531	1801.2982	4997.95	4098.1
914.6934	1802.9755	4991.95	4090.95
914.8337	1804.6519	4979.65	4080.85
914.9739	1806.3277	4945.6	4050.7
915.1142	1808.0027	4919.05	4025.6
915.2544	1809.6769	4926.35	4035.55
915.3946	1811.3504	4921	4030.1
915.5348	1813.0231	4922.45	4028.4
915.675	1814.6951	4901.45	4008.4
915.8151	1816.3664	4907.95	4009.75
915.9553	1818.0369	4895.2	3998.1
916.0954	1819.7067	4888.55	3989.1
916.2355	1821.3757	4863.8	3965
916.3755	1823.044	4864.9	3964.7
916.5156	1824.7115	4856.8	3955.15
916.6556	1826.3783	4835.55	3939.35
916.7956	1828.0443	4826.1	3932.1
916.9356	1829.7096	4816.95	3918.75
917.0756	1831.3741	4817	3915.7
917.2155	1833.0379	4795.9	3900.95
917.3555	1834.701	4785.2	3890.9
917.4954	1836.3633	4773.5	3880.9
917.6353	1838.0248	4758.8	3865.65
917.7751	1839.6856	4753.25	3857.45
917.915	1841.3457	4755.8	3859.2
918.0548	1843.005	4729.6	3831.5
918.1946	1844.6636	4737.4	3844
918.3344	1846.3214	4729.15	3833.5
918.4742	1847.9785	4721.65	3825.4
918.6139	1849.6349	4713.3	3813.7
918.7537	1851.2904	4712.2	3804.15
918.8934	1852.9453	4721.5	3821.75
919.0331	1854.5994	4693.45	3793.8
919.1727	1856.2528	4675.5	3772.7
919.3124	1857.9054	4646.8	3748.95
919.452	1859.5572	4640.75	3743.7
919.5916	1861.2083	4648.7	3752.5
919.7312	1862.8587	4647.9	3750.2
919.8708	1864.5084	4633.15	3732.2
920.0103	1866.1572	4610.05	3711.6
920.1498	1867.8054	4614.45	3714.6
920.2893	1869.4528	4591.1	3689.9
920.4288	1871.0994	4591.95	3693.05
920.5683	1872.7453	4566.95	3667.25
920.7077	1874.3905	4585.6	3671.15
920.8471	1876.0349	4548	3649.95
920.9865	1877.6786	4548.9	3648.75
921.1259	1879.3215	4552	3655.9
921.2653	1880.9637	4536.25	3636.85
921.4046	1882.6051	4527.6	3631.5
921.5439	1884.2458	4534.25	3637.1
921.6832	1885.8858	4497.05	3601.35
921.8225	1887.525	4505.1	3608.6
921.9617	1889.1634	4485.8	3587.95
922.101	1890.8011	4483	3584
922.2402	1892.4381	4455.05	3556.95
922.3794	1894.0743	4464.65	3566.95
922.5185	1895.7098	4446.6	3550.3
922.6577	1897.3446	4432.35	3534.05
922.7968	1898.9786	4427.05	3525.2
922.9359	1900.6118	4410.05	3514.65
923.075	1902.2443	4409.85	3511.95
923.214	1903.8761	4399.05	3502.95
923.3531	1905.5071	4374.45	3477.7
923.4921	1907.1374	4348.2	3452.05
923.6311	1908.7669	4344.35	3450.2
923.77	1910.3957	4344.4	3450.9
923.909	1912.0237	4319.75	3422.6
924.0479	1913.651	4321.8	3422.3
924.1868	1915.2776	4310.05	3414.35
924.3257	1916.9034	4291.75	3396.95
924.4646	1918.5285	4287.05	3393.3
924.6034	1920.1528	4261.5	3367.25
924.7422	1921.7764	4256.1	3360.35
924.881	1923.3992	4242.6	3349.05
925.0198	1925.0213	4227.3	3333.35
925.1586	1926.6427	4213.25	3318.35
925.2973	1928.2633	4367.75	3264.5
925.436	1929.8832	4233.6	3333.7
925.5747	1931.5023	4187.35	3293.25
925.7134	1933.1207	4183.45	3290.6
925.852	1934.7383	4173.7	3277.85
925.9906	1936.3552	4154.05	3262.1
926.1292	1937.9714	4150.4	3253.25
926.2678	1939.5868	4122.5	3225.1
926.4064	1941.2015	4118.2	3220.05
926.5449	1942.8154	4104.4	3205
926.6834	1944.4286	4094.65	3198.95
926.8219	1946.041	4086.7	3175.8
926.9604	1947.6528	4062.5	3161
927.0988	1949.2637	4047.7	3150.85
927.2372	1950.8739	4038.65	3143.2
927.3756	1952.4834	4056.05	3161.15
927.514	1954.0921	4035.25	3140.85
927.6523	1955.7001	4015.15	3118.25
927.7907	1957.3074	4002.85	3113
927.929	1958.9139	3988.35	3098.25
928.0673	1960.5197	3976.05	3081.9
928.2055	1962.1247	3950.8	3061.1
928.3438	1963.729	3949.6	3058.1
928.482	1965.3325	3929.45	3029.75
928.6202	1966.9353	3935.6	3045.45
928.7584	1968.5374	3916.45	3023.65
928.8965	1970.1387	3899.2	3007.6
929.0346	1971.7393	3884.1	2992
929.1727	1973.3392	3884.55	2993.65
929.3108	1974.9383	3868.5	2979
929.4489	1976.5366	3856.1	2968.75
929.5869	1978.1342	3847.25	2958.75
929.7249	1979.7311	3845.8	2956.7
929.8629	1981.3273	3841.75	2953.05
930.0009	1982.9227	3827.95	2938.75
930.1388	1984.5173	3820.3	2934.05
930.2767	1986.1112	3799.65	2910.35
930.4146	1987.7044	3800.5	2913.1
930.5525	1989.2968	3766.55	2876.5
930.6904	1990.8885	3780.2	2889.45
930.8282	1992.4795	3764.65	2877.8
930.966	1994.0697	3753.2	2867.1
931.1038	1995.6592	3759.55	2872.3
931.2415	1997.2479	3744.65	2855.8
931.3793	1998.8359	3747	2859.55
931.517	2000.4232	3724.75	2842.95
931.6547	2002.0097	3712.5	2831.4
931.7923	2003.5955	3693.95	2810.25
931.93	2005.1805	3693	2807.85
932.0676	2006.7648	3680.35	2796.3
932.2052	2008.3484	3662	2778.2
932.3427	2009.9312	3667.55	2785.45
932.4803	2011.5133	3659.1	2778.5
932.6178	2013.0946	3649.3	2766.75
932.7553	2014.6752	3640.05	2757.95
932.8928	2016.2551	3641.15	2754.95
933.0302	2017.8342	3621.4	2736.15
933.1676	2019.4126	3615.8	2732.3
933.305	2020.9902	3594.15	2715.3
933.4424	2022.5672	3589.7	2708
933.5798	2024.1433	3591.4	2706.25
933.7171	2025.7188	3586	2708.95
933.8544	2027.2935	3584.8	2703.65
933.9917	2028.8674	3574.45	2695.7
934.129	2030.4406	3548.9	2670
934.2662	2032.0131	3544.2	2667.25
934.4034	2033.5849	3538.5	2654.65
934.5406	2035.1559	3534.9	2654.9
934.6778	2036.7261	3526.35	2643.75
934.8149	2038.2957	3532.2	2647.05
934.952	2039.8645	3533.7	2648.65
935.0891	2041.4325	3517.6	2629.05
935.2262	2042.9998	3506.2	2621.75
935.3632	2044.5664	3496.05	2612.85
935.5002	2046.1323	3496.85	2615.7
935.6372	2047.6974	3474.7	2593.45
935.7742	2049.2617	3456.4	2577.4
935.9111	2050.8254	3485.8	2581.25
936.048	2052.3883	3476.85	2591.85
936.1849	2053.9504	3464.9	2579.1
936.3218	2055.5118	3446.25	2559.35
936.4586	2057.0725	3430.35	2545.2
936.5955	2058.6325	3435.9	2552.65
936.7323	2060.1917	3407.7	2524.5
936.869	2061.7502	3419.5	2536.75
937.0058	2063.3079	3410.75	2530.3
937.1425	2064.8649	3397.15	2512.75
937.2792	2066.4212	3382.65	2497.5
937.4159	2067.9767	3380.05	2496.5
937.5525	2069.5315	3370.75	2485.9
937.6891	2071.0856	3361.15	2478.4
937.8257	2072.6389	3360.25	2478.9
937.9623	2074.1915	3330.25	2450.2
938.0989	2075.7433	3327.2	2442.35
938.2354	2077.2945	3318.75	2436.3
938.3719	2078.8448	3317.2	2430.5
938.5084	2080.3945	3305.8	2420.75
938.6448	2081.9434	3290.35	2403.1
938.7812	2083.4916	3301.8	2413.85
938.9176	2085.039	3278.8	2385.65
939.054	2086.5857	3287.3	2392.65
939.1903	2088.1317	3283.25	2391.1
939.3267	2089.677	3269.8	2378.2
939.463	2091.2215	3263.25	2369.3
939.5992	2092.7652	3262.55	2367.9
939.7355	2094.3083	3256.55	2363.85
939.8717	2095.8506	3239.35	2350.75
940.0079	2097.3921	3245.25	2357.9
940.1441	2098.933	3237.3	2350.05
940.2802	2100.4731	3220.25	2330.2
940.4163	2102.0124	3228.35	2330.25
940.5524	2103.5511	3205.9	2316.4
940.6885	2105.089	3216.85	2329.15
940.8245	2106.6261	3210.35	2323.25
940.9606	2108.1626	3209.95	2321.6
941.0965	2109.6983	3217.75	2301
941.2325	2111.2332	3196.15	2305.4
941.3684	2112.7675	3176.1	2284.55
941.5044	2114.301	3182.05	2288.55
941.6403	2115.8337	3170.5	2281.4
941.7761	2117.3657	3167.8	2276.6
941.912	2118.897	3162.7	2271.8
942.0478	2120.4276	3159.75	2262.45
942.1835	2121.9575	3131.9	2239.75
942.3193	2123.4866	3145.45	2251.9
942.455	2125.0149	3134.45	2241.95
942.5907	2126.5426	3124.25	2239.35
942.7264	2128.0695	3121.4	2235.4
942.8621	2129.5956	3092.85	2211.9
942.9977	2131.1211	3109.5	2221.35
943.1333	2132.6458	3095.2	2207.7
943.2689	2134.1698	3098.3	2208.3
943.4044	2135.693	3092.3	2198.85
943.54	2137.2155	3101	2206.1
943.6755	2138.7373	3085.7	2196.45
943.8109	2140.2584	3077	2190.8
943.9464	2141.7787	3058.1	2170.6
944.0818	2143.2983	3049.6	2170.05
944.2172	2144.8171	3040.85	2159.65
944.3526	2146.3353	3025.85	2140.9
944.4879	2147.8527	3020.2	2134
944.6232	2149.3693	3037.2	2147.6
944.7585	2150.8853	3027.1	2137.8
944.8938	2152.4005	3024.9	2133.35
945.029	2153.9149	3017.35	2126.75
945.1642	2155.4287	3002.5	2111.3
945.2994	2156.9417	3004.5	2114.65
945.4346	2158.454	2996.4	2107.55
945.5697	2159.9655	2984.8	2099.05
945.7048	2161.4764	2970.15	2083.95
945.8399	2162.9865	2970.05	2084.3
945.9749	2164.4958	2962.25	2075.8
946.1099	2166.0045	2953.95	2065.4
946.2449	2167.5124	2956.9	2071.15
946.3799	2169.0195	2947.95	2056.35
946.5148	2170.526	2961.75	2073.5
946.6498	2172.0317	2946.85	2056.8
946.7846	2173.5367	2939.25	2050.75
946.9195	2175.0409	2932.6	2045.95
947.0543	2176.5445	2944.6	2055.25
947.1891	2178.0473	2931.55	2041.2
947.3239	2179.5494	2930.8	2037.6
947.4587	2181.0507	2909.1	2021.6
947.5934	2182.5513	2891.3	2000.35
947.7281	2184.0512	2897.6	2007.45
947.8628	2185.5504	2884.85	1997.5
947.9974	2187.0488	2875.8	1989
948.132	2188.5465	2871.4	1986.65
948.2666	2190.0435	2855.35	1967.25
948.4012	2191.5397	2860.7	1970.45
948.5357	2193.0353	2867.25	1977.15
948.6702	2194.5301	2858.95	1962.65
948.8047	2196.0241	2854.95	1959.9
948.9392	2197.5175	2832.25	1938.6
949.0736	2199.0101	2831.2	1931.6
949.208	2200.502	2825.85	1937.8
949.3424	2201.9931	2808.75	1922.05
949.4767	2203.4835	2813.3	1925.25
949.611	2204.9733	2801.55	1911.35
949.7453	2206.4622	2792.8	1907.6
949.8796	2207.9505	2788.5	1902.85
950.0138	2209.438	2769.5	1888.2
950.148	2210.9248	2772.45	1887.5
950.2822	2212.4109	2762.95	1873.95
950.4164	2213.8962	2765.4	1873.65
950.5505	2215.3809	2750.2	1856.45
950.6846	2216.8648	2772.9	1878.85
950.8186	2218.3479	2759.4	1857.9
950.9527	2219.8304	2740.85	1843.2
951.0867	2221.3121	2733.3	1835.8
951.2207	2222.7931	2728.2	1833.2
951.3546	2224.2733	2726.7	1830.6
951.4886	2225.7529	2712.5	1822.85
951.6225	2227.2317	2697.65	1807.85
951.7563	2228.7098	2696.3	1808.85
951.8902	2230.1872	2682.95	1797.5
952.024	2231.6638	2695.7	1810.3
952.1578	2233.1397	2682.95	1794.15
952.2916	2234.6149	2673.35	1788.45
952.4253	2236.0894	2668.75	1782.1
952.559	2237.5632	2681.4	1781.25
952.6927	2239.0362	2665.95	1776.1
952.8263	2240.5085	2653.15	1764.45
952.9599	2241.9801	2656.75	1767.45
953.0935	2243.4509	2649.15	1756.65
953.2271	2244.921	2648.8	1756.05
953.3606	2246.3904	2637.8	1741.15
953.4941	2247.8591	2629.5	1738.15
953.6276	2249.3271	2610.25	1716.4
953.7611	2250.7943	2604.2	1712.2
953.8945	2252.2608	2597.95	1705.9
954.0279	2253.7266	2604.9	1711.4
954.1612	2255.1917	2594.85	1705.3
954.2946	2256.656	2595	1706.2
954.4279	2258.1197	2582.65	1695.9
954.5612	2259.5826	2587.2	1697.75
954.6944	2261.0447	2579.4	1686.65
954.8276	2262.5062	2564.65	1673
954.9608	2263.9669	2569.9	1676.1
955.094	2265.4269	2564.7	1673.75
955.2271	2266.8862	2552.7	1664.85
955.3602	2268.3448	2549.35	1661.85
955.4933	2269.8026	2554.65	1666.95
955.6264	2271.2598	2557.4	1670.8
955.7594	2272.7162	2532.7	1643.6
955.8924	2274.1719	2542.05	1650.55
956.0253	2275.6268	2534.45	1639.65
956.1583	2277.0811	2526.3	1633.6
956.2912	2278.5346	2527.95	1638.45
956.4241	2279.9874	2520.85	1633.6
956.5569	2281.4395	2524.95	1639
956.6897	2282.8908	2508.3	1616
956.8225	2284.3414	2508.95	1617.35
956.9553	2285.7914	2511.15	1621.35
957.088	2287.2406	2499.75	1606.8
957.2207	2288.689	2499.35	1606.25
957.3534	2290.1368	2497.5	1598.75
957.486	2291.5838	2489.45	1590.45
957.6186	2293.0302	2486.45	1587.5
957.7512	2294.4758	2484.25	1590.85
957.8838	2295.9206	2476.75	1582.4
958.0163	2297.3648	2463.5	1572.45
958.1488	2298.8082	2464.4	1573.1
958.2813	2300.251	2461.95	1568.6
958.4137	2301.693	2453.95	1559.7
958.5461	2303.1343	2458.75	1564.35
958.6785	2304.5748	2445.55	1554.45
958.8108	2306.0147	2441.6	1553.85
958.9432	2307.4538	2435.55	1545.45
959.0754	2308.8922	2440.35	1555.4
959.2077	2310.3299	2430.15	1542.05
959.3399	2311.7669	2416.75	1527.85
959.4721	2313.2031	2423.5	1533.25
959.6043	2314.6387	2410.25	1519.5
959.7365	2316.0735	2404.4	1514.7
959.8686	2317.5076	2405.9	1513.7
960.0006	2318.941	2400.4	1508.65
960.1327	2320.3737	2393.35	1498.85
960.2647	2321.8056	2399.3	1506.75
960.3967	2323.2369	2370.55	1477.55
960.5287	2324.6674	2385.75	1491.05
960.6606	2326.0972	2371.6	1478.3
960.7925	2327.5263	2368.3	1476.5
960.9244	2328.9547	2370.3	1479.2
961.0562	2330.3823	2365.55	1469.4
961.1881	2331.8092	2361.25	1463.1
961.3198	2333.2355	2353.7	1460.05
961.4516	2334.661	2356.65	1463.2
961.5833	2336.0858	2346.7	1451.85
961.715	2337.5098	2347.3	1454.05
961.8467	2338.9332	2352.35	1460.8
961.9783	2340.3558	2343.15	1451.15
962.1099	2341.7778	2337.8	1445.85
962.2415	2343.199	2317.3	1427.25
962.373	2344.6195	2318.7	1429.05
962.5045	2346.0393	2323.25	1432.8
962.636	2347.4583	2308.35	1415.85
962.7675	2348.8767	2318.75	1425.45
962.8989	2350.2943	2323.4	1428.35
963.0303	2351.7113	2317.55	1418.95
963.1617	2353.1275	2308.85	1414.85
963.293	2354.543	2308.2	1405.3
963.4243	2355.9578	2296.35	1402.9
963.5556	2357.3718	2282.9	1394.65
963.6868	2358.7852	2282.85	1392.5
963.818	2360.1978	2278.25	1389
963.9492	2361.6098	2276.85	1387.45
964.0803	2363.021	2274.75	1378.55
964.2114	2364.4315	2276.85	1387
964.3425	2365.8413	2261.9	1370.6
964.4736	2367.2504	2257.9	1369.75
964.6046	2368.6587	2254.1	1366.55
964.7356	2370.0664	2254.85	1365.55
964.8666	2371.4733	2239.45	1347.95
964.9975	2372.8795	2243.55	1354
965.1284	2374.285	2238.65	1349.95
965.2593	2375.6899	2230.85	1341.45
965.3901	2377.0939	2222.2	1333.2
965.5209	2378.4973	2215.55	1326
965.6517	2379.9	2224.8	1334.55
965.7825	2381.3019	2215.4	1327.1
965.9132	2382.7032	2201.25	1313.75
966.0439	2384.1037	2199	1313.65
966.1745	2385.5035	2195.9	1311.4
966.3051	2386.9027	2186.1	1302.85
966.4357	2388.3011	2193.05	1304.6
966.5663	2389.6987	2181.25	1294.5
966.6968	2391.0957	2175.3	1290.4
966.8273	2392.492	2172.15	1287.2
966.9578	2393.8876	2171.55	1284.45
967.0882	2395.2824	2158.6	1271.05
967.2186	2396.6765	2150.4	1264.2
967.349	2398.07	2147.1	1259.5
967.4793	2399.4627	2156.65	1267.15
967.6097	2400.8547	2151.4	1263.3
967.7399	2402.246	2145.95	1251.45
967.8702	2403.6366	2137.75	1250.9
968.0004	2405.0265	2120.55	1232.85
968.1306	2406.4156	2128.6	1238.1
968.2607	2407.8041	2122.55	1233.05
968.3909	2409.1918	2116.8	1224.35
968.521	2410.5789	2119.15	1229.9
968.651	2411.9652	2108.05	1219.1
968.781	2413.3508	2111.55	1224.8
968.911	2414.7358	2104.15	1214.7
969.041	2416.12	2094.9	1209.1
969.1709	2417.5035	2098	1210.9
969.3008	2418.8863	2098.8	1208.95
969.4307	2420.2684	2086.75	1197.65
969.5606	2421.6497	2081.35	1192.45
969.6904	2423.0304	2074.55	1186.65
969.8201	2424.4104	2079.35	1190.55
969.9499	2425.7896	2075.35	1187.05
970.0796	2427.1682	2076.15	1188.35
970.2093	2428.546	2061.35	1171.15
970.3389	2429.9232	2073.4	1182.05
970.4685	2431.2996	2067.05	1176.35
970.5981	2432.6753	2058.9	1168.05
970.7277	2434.0503	2057.65	1167.7
970.8572	2435.4246	2044.15	1156.4
970.9867	2436.7982	2041.9	1152.5
971.1161	2438.1711	2035.7	1148.1
971.2456	2439.5433	2032.3	1142.05
971.375	2440.9148	2039.85	1144.55
971.5043	2442.2856	2027.9	1138.65
971.6336	2443.6557	2027.6	1137.95
971.7629	2445.025	2014.8	1123.35
971.8922	2446.3937	2015.8	1126.85
972.0214	2447.7617	2013.9	1122.65
972.1506	2449.1289	2008.85	1121.6
972.2798	2450.4955	2009.3	1115.35
972.4089	2451.8613	2001.9	1115.3
972.538	2453.2265	1994.05	1104.4
972.6671	2454.5909	1998.05	1106.45
972.7961	2455.9546	1991.6	1100.8
972.9251	2457.3177	1987.3	1101.4
973.0541	2458.68	1989.85	1102.4
973.1831	2460.0416	1993.35	1103.05
973.312	2461.4025	1997.6	1107.55
973.4408	2462.7627	1987.85	1089.45
973.5697	2464.1222	1971.65	1087.1
973.6985	2465.4811	1966.35	1076.95
973.8273	2466.8392	1969.5	1083.05
973.956	2468.1966	1968.15	1076.95
974.0847	2469.5533	1966.45	1076.85
974.2134	2470.9093	1972.5	1083.45
974.3421	2472.2645	1969.1	1078.7
974.4707	2473.6191	1957.1	1069.25
974.5993	2474.973	1960.4	1071.55
974.7278	2476.3262	1961.25	1071.1
974.8563	2477.6787	1951.45	1062.7
974.9848	2479.0305	1947.55	1058.6
975.1132	2480.3816	1943.35	1052.55
975.2417	2481.7319	1935.75	1046.2
975.37	2483.0816	1934.65	1044.5
975.4984	2484.4306	1937.5	1049.4
975.6267	2485.7789	1928.7	1040.6
975.755	2487.1264	1922.9	1033.8
975.8833	2488.4733	1920.25	1032.85
976.0115	2489.8195	1922.45	1027.1
976.1397	2491.165	1910.9	1019.85
976.2678	2492.5097	1913.8	1023.1
976.3959	2493.8538	1898.15	1012.9
976.524	2495.1972	1900.05	1012.4
976.6521	2496.5398	1894.4	1002.3
976.7801	2497.8818	1900.5	1009.55
976.9081	2499.2231	1887	995.65
977.036	2500.5637	1887.9	995
977.164	2501.9035	1885.25	993.75
977.2918	2503.2427	1884.65	989.5
977.4197	2504.5812	1880	995.25
977.5475	2505.919	1877.6	988
977.6753	2507.256	1870.55	980.8
977.8031	2508.5924	1875	985.35
977.9308	2509.9281	1868.75	971.7
978.0585	2511.2631	1858.1	969.95
978.1861	2512.5974	1862.7	975.05
978.3137	2513.9309	1864.15	974.1
978.4413	2515.2638	1876.75	957.3
978.5689	2516.596	1861.15	972.3
978.6964	2517.9275	1854.2	962.05
978.8239	2519.2583	1859.2	970.8
978.9513	2520.5884	1844.4	955.25
979.0788	2521.9178	1852.35	961
979.2062	2523.2465	1836.05	946.7
979.3335	2524.5745	1828.1	941.05
979.4608	2525.9018	1836	946.35
979.5881	2527.2284	1831.95	944.45
979.7154	2528.5543	1834.45	946.25
979.8426	2529.8796	1828.35	938.25
979.9698	2531.2041	1823.85	935.05
980.0969	2532.5279	1823	935.9
980.224	2533.851	1818.4	928.35
980.3511	2535.1735	1813	923.6
980.4781	2536.4952	1822.1	932.6
980.6052	2537.8163	1817.7	928.2
980.7321	2539.1366	1825	936.2
980.8591	2540.4562	1808.5	915.2
980.986	2541.7752	1806	914.5
981.1129	2543.0935	1813.4	920.8
981.2397	2544.411	1808.75	918.05
981.3665	2545.7279	1800.4	912.1
981.4933	2547.0441	1803.4	913.05
981.62	2548.3596	1797.05	905.3
981.7467	2549.6744	1794.95	903.35
981.8734	2550.9885	1801.2	908.95
982.0001	2552.3019	1796.9	904.95
982.1267	2553.6146	1789.4	897.1
982.2532	2554.9266	1788.65	899
982.3798	2556.2379	1784.8	893.5
982.5063	2557.5485	1781.85	894.15
982.6327	2558.8585	1786.2	890.55
982.7592	2560.1677	1779.7	884.3
982.8856	2561.4762	1780.8	889.05
983.0119	2562.7841	1784.2	889
983.1383	2564.0913	1777.2	888.15
983.2646	2565.3977	1779.7	891.4
983.3908	2566.7035	1774	886.1
983.517	2568.0086	1769.5	875.9
983.6432	2569.313	1769.7	879.8
983.7694	2570.6167	1771.65	874.4
983.8955	2571.9197	1757.55	867.9
984.0216	2573.222	1774.8	879.45
984.1476	2574.5236	1764.3	874.15
984.2737	2575.8246	1754.8	862.45
984.3996	2577.1248	1755.2	863.7
984.5256	2578.4244	1754.25	865.25
984.6515	2579.7232	1754.7	863.6
984.7774	2581.0214	1776.85	862.65
984.9032	2582.3189	1747.55	858.95
985.029	2583.6157	1755.6	861.25
985.1548	2584.9118	1744.8	854.05
985.2806	2586.2072	1746.5	857.1
985.4063	2587.5019	1755.05	864.4
985.5319	2588.7959	1754.5	864.85
985.6576	2590.0893	1747.2	856.5
985.7832	2591.3819	1751.8	863.7
985.9087	2592.6739	1747.5	857.05
986.0343	2593.9652	1753.8	862.1
986.1597	2595.2557	1748.35	859.2
986.2852	2596.5456	1748.7	857.7
986.4106	2597.8348	1744.85	853.75
986.536	2599.1234	1747.65	858.2
986.6614	2600.4112	1743.3	855.05
986.7867	2601.6983	1740.4	845.85
986.912	2602.9848	1738.7	849.3
987.0372	2604.2705	1737.6	840.3
987.1624	2605.5556	1744.1	854.25
987.2876	2606.84	1727.7	839.6
987.4128	2608.1237	1729.3	839.55
987.5379	2609.4067	1737.45	847.9
987.6629	2610.689	1739.95	842.4
987.788	2611.9707	1724	829.1
987.913	2613.2516	1728.1	834.75
988.0379	2614.5319	1704.3	814.65
988.1629	2615.8115	1714.95	827
988.2878	2617.0903	1701.65	812.05
988.4126	2618.3685	1698.6	809.25
988.5375	2619.6461	1694.15	805.7
988.6622	2620.9229	1702.6	813.25
988.787	2622.199	1701.4	813.9
988.9117	2623.4745	1693.05	803.9
989.0364	2624.7493	1691.65	803.8
989.161	2626.0234	1690.8	804.85
989.2857	2627.2968	1695.3	808.25
989.4102	2628.5695	1688.8	797.55
989.5348	2629.8415	1687.15	799.3
989.6593	2631.1128	1695.65	805.2
989.7837	2632.3835	1683.05	797.45
989.9082	2633.6535	1672.85	784.95
990.0326	2634.9228	1678.95	792.35
990.1569	2636.1914	1675.45	788.15
990.2812	2637.4593	1681.05	789.4
990.4055	2638.7265	1673.15	782.55
990.5298	2639.9931	1674.4	786.3
990.654	2641.259	1671.55	782.55
990.7782	2642.5242	1661.5	772.7
990.9023	2643.7887	1658.85	771.2
991.0264	2645.0525	1659.35	773.45
991.1505	2646.3156	1662.25	773.35
991.2745	2647.5781	1644.25	755.05
991.3985	2648.8398	1650.55	764.55
991.5225	2650.1009	1688	763
991.6464	2651.3613	1652.5	763.35
991.7703	2652.6211	1646.85	760
991.8942	2653.8801	1639.6	752.35
992.018	2655.1385	1650.65	761.7
992.1418	2656.3961	1640.35	751.95
992.2655	2657.6531	1641.7	752.75
992.3892	2658.9094	1640.3	752.55
992.5129	2660.1651	1647.05	760.1
992.6366	2661.42	1643.2	755.1
992.7602	2662.6743	1645.15	756.6
992.8837	2663.9279	1639.7	753.05
993.0073	2665.1808	1641.5	753
993.1307	2666.433	1651.05	762.95
993.2542	2667.6846	1642.25	755.25
993.3776	2668.9354	1649	758.35
993.501	2670.1856	1646.4	757.1
993.6244	2671.4351	1648.55	760.9
993.7477	2672.6839	1654.2	765
993.8709	2673.9321	1649.95	761.1
993.9942	2675.1795	1648.45	758.8
994.1174	2676.4263	1655.6	766.7
994.2405	2677.6724	1650.35	762.75
994.3637	2678.9179	1652.95	764.65
994.4868	2680.1626	1654.95	768.95
994.6098	2681.4067	1654.8	765.05
994.7328	2682.6501	1648.85	763.25
994.8558	2683.8928	1644.3	755.65
994.9788	2685.1348	1641.95	753.45
995.1017	2686.3761	1636.55	749.55
995.2245	2687.6168	1632.6	745.25
995.3474	2688.8568	1622.6	736.4
995.4702	2690.0961	1614.4	727
995.5929	2691.3348	1621.4	733.75
995.7156	2692.5727	1624.85	735.85
995.8383	2693.81	1617.9	730.35
995.961	2695.0466	1610.55	725.1
996.0836	2696.2826	1616.45	727.05
996.2062	2697.5178	1637.8	730.8
996.3287	2698.7524	1614.35	726.3
996.4512	2699.9863	1621.65	732.15
996.5737	2701.2195	1616.7	732.35
996.6961	2702.452	1610.3	722.05
996.8185	2703.6839	1624.15	736.5
996.9408	2704.9151	1616.8	731.65
997.0631	2706.1456	1626.4	739.15
997.1854	2707.3755	1628.5	741.15
997.3077	2708.6046	1638.35	747.3
997.4299	2709.8331	1649.1	761.5
997.552	2711.0609	1649.55	762.5
997.6742	2712.2881	1654.65	769.3
997.7963	2713.5145	1655	762.8
997.9183	2714.7403	1674.55	789.05
998.0403	2715.9654	1679.35	790.6
998.1623	2717.1899	1707.75	807.2
998.2842	2718.4136	1712.1	824.75
998.4062	2719.6367	1709.5	822.65
998.528	2720.8591	1726.55	833.45
998.6498	2722.0809	1726.4	841.25
998.7716	2723.3019	1732.5	839.25
998.8934	2724.5223	1747.9	860
999.0151	2725.7421	1755.9	869.7
999.1368	2726.9611	1753.65	868.1
999.2584	2728.1795	1755.5	864.95
999.38	2729.3972	1738.3	851.2
999.5016	2730.6142	1746.25	850.55
999.6231	2731.8306	1717.55	829.3
999.7446	2733.0462	1706.35	816.1
999.8661	2734.2612	1690.5	798
999.9875	2735.4756	1658.35	768.35
1000.1089	2736.6892	1648.15	763.05
1000.2302	2737.9022	1632.45	747.8
1000.3515	2739.1145	1622.25	737.35
1000.4728	2740.3262	1613.75	719.05
1000.594	2741.5372	1600.35	712.6
1000.7152	2742.7475	1589.45	703.65
1000.8363	2743.9571	1573.25	682.9
1000.9575	2745.1661	1578.8	689.5
1001.0785	2746.3744	1556.85	670.15
1001.1996	2747.582	1547.35	662.15
1001.3206	2748.7889	1549.25	660.65
1001.4415	2749.9952	1531.6	646.35
1001.5625	2751.2008	1525.35	638.9
1001.6833	2752.4057	1527.7	639.7
1001.8042	2753.61	1521.95	634.6
1001.925	2754.8136	1522.65	634.15
1002.0458	2756.0165	1520.4	632.6
1002.1665	2757.2188	1510.35	622.05
1002.2872	2758.4204	1515.7	629.8
1002.4078	2759.6213	1508.45	619.5
1002.5285	2760.8215	1516.35	625.7
1002.649	2762.0211	1504.15	618.15
1002.7696	2763.22	1513.65	624.85
1002.8901	2764.4182	1503.6	616.5
1003.0106	2765.6158	1507.8	622.15
1003.131	2766.8127	1500.75	613.2
1003.2514	2768.009	1501.8	616.4
1003.3717	2769.2045	1491.9	603.95
1003.492	2770.3994	1501.6	614.8
1003.6123	2771.5936	1487.65	600.25
1003.7325	2772.7872	1480.35	596.9
1003.8527	2773.9801	1486	599.1
1003.9729	2775.1723	1493.05	591.6
1004.093	2776.3639	1482.15	598.55
1004.2131	2777.5548	1476.7	590
1004.3331	2778.745	1479.95	592.05
1004.4531	2779.9346	1469.15	586.05
1004.5731	2781.1235	1483	594.85
1004.693	2782.3117	1482.25	598.35
1004.8129	2783.4992	1483.2	597.15
1004.9328	2784.6861	1478	592.7
1005.0526	2785.8723	1492.85	604.75
1005.1723	2787.0579	1495.45	608.25
1005.2921	2788.2428	1496.45	613.1
1005.4118	2789.427	1502	617.55
1005.5314	2790.6106	1507.05	621.15
1005.651	2791.7935	1525.25	640.8
1005.7706	2792.9757	1530.1	643.8
1005.8902	2794.1573	1533.4	644.6
1006.0097	2795.3382	1540.95	655.8
1006.1291	2796.5184	1559.85	677.75
1006.2485	2797.698	1569.3	684.2
1006.3679	2798.8769	1576.35	692.2
1006.4873	2800.0551	1590	706
1006.6066	2801.2327	1608.9	722.15
1006.7258	2802.4096	1623.75	740.8
1006.8451	2803.5859	1644.5	760.55
1006.9642	2804.7615	1656.45	772.25
1007.0834	2805.9364	1672.05	788.95
1007.2025	2807.1106	1697.35	813.15
1007.3216	2808.2842	1730	846.7
1007.4406	2809.4572	1760.9	874.7
1007.5596	2810.6294	1788.25	902.15
1007.6785	2811.801	1816.15	933.2
1007.7975	2812.972	1857.65	975.3
1007.9163	2814.1423	1898.75	1015.55
1008.0352	2815.3119	1954.25	1069.85
1008.154	2816.4808	1991.7	1109.85
1008.2727	2817.6491	2034.8	1149.2
1008.3914	2818.8167	2081.05	1198.4
1008.5101	2819.9837	2134.65	1244.5
1008.6288	2821.15	2197.65	1313.65
1008.7474	2822.3157	2227.2	1344.1
1008.8659	2823.4807	2283.5	1398.8
1008.9844	2824.645	2348.15	1464.4
1009.1029	2825.8086	2385.9	1502.85
1009.2214	2826.9716	2449.6	1566.65
1009.3398	2828.134	2488.3	1605
1009.4581	2829.2957	2534.55	1648.45
1009.5764	2830.4567	2561.15	1677.3
1009.6947	2831.617	2590.1	1703.4
1009.813	2832.7767	2588.3	1706.9
1009.9312	2833.9358	2605.75	1722.3
1010.0493	2835.0941	2592.4	1705.7
1010.1675	2836.2519	2573.95	1691.7
1010.2855	2837.4089	2563.4	1676.5
1010.4036	2838.5653	2552.25	1668.15
1010.5216	2839.7211	2532.15	1649.55
1010.6396	2840.8761	2549.5	1664.7
1010.7575	2842.0306	2574.35	1693.2
1010.8754	2843.1843	2607	1720.25
1010.9932	2844.3374	2627.4	1744.6
1011.111	2845.4899	2684.1	1800.35
1011.2288	2846.6417	2731.5	1847.55
1011.3465	2847.7928	2800.3	1915.7
1011.4642	2848.9433	2873.15	1989.3
1011.5818	2850.0931	2944.7	2061.85
1011.6995	2851.2422	3015.05	2131.85
1011.817	2852.3907	3077.6	2194.4
1011.9345	2853.5385	3135	2249.85
1012.052	2854.6857	3178.25	2283.15
1012.1695	2855.8323	3218.8	2336.65
1012.2869	2856.9781	3284.75	2401.8
1012.4042	2858.1233	3337.45	2453.1
1012.5216	2859.2679	3386.1	2503.45
1012.6389	2860.4118	3425.3	2543.35
1012.7561	2861.555	3483.55	2594.25
1012.8733	2862.6976	3511.3	2629.3
1012.9905	2863.8395	3536.45	2654.65
1013.1076	2864.9808	3559.95	2678.85
1013.2247	2866.1214	3577.45	2694.55
1013.3417	2867.2614	3605.2	2724.25
1013.4587	2868.4007	3617.95	2734.25
1013.5757	2869.5393	3629.55	2744.5
1013.6926	2870.6773	3664.5	2776.7
1013.8095	2871.8146	3665.75	2776.2
1013.9263	2872.9513	3659.7	2773.05
1014.0431	2874.0874	3637.3	2752.4
1014.1599	2875.2227	3622.6	2738.3
1014.2766	2876.3574	3632.85	2747.55
1014.3933	2877.4915	3600.9	2716.5
1014.51	2878.6249	3579.95	2698.5
1014.6266	2879.7577	3565.05	2679.65
1014.7431	2880.8898	3532.45	2639.9
1014.8596	2882.0212	3513.7	2630.75
1014.9761	2883.152	3490.85	2609.3
1015.0925	2884.2821	3471.45	2590.65
1015.2089	2885.4116	3476.2	2596.2
1015.3253	2886.5405	3482.6	2598.3
1015.4416	2887.6686	3506.2	2621.85
1015.5579	2888.7962	3500.2	2618.9
1015.6741	2889.923	3493.05	2610.15
1015.7903	2891.0493	3507.95	2625.4
1015.9065	2892.1748	3523	2639.35
1016.0226	2893.2997	3536.65	2655.55
1016.1387	2894.424	3550.75	2669.75
1016.2547	2895.5476	3571.5	2688.6
1016.3707	2896.6706	3588.15	2708
1016.4866	2897.7929	3606.35	2723.25
1016.6025	2898.9145	3636.3	2755.15
1016.7184	2900.0355	3672.75	2789.8
1016.8342	2901.1559	3693.9	2809.65
1016.95	2902.2756	3715.95	2834.75
1017.0658	2903.3946	3756.2	2874.25
1017.1815	2904.513	3780.1	2895.8
1017.2971	2905.6308	3820.1	2939.2
1017.4127	2906.7479	3835.25	2951.2
1017.5283	2907.8643	3870.15	2985.85
1017.6439	2908.9801	3876.75	2994.85
1017.7594	2910.0953	3875.65	2995.55
1017.8748	2911.2098	3883.65	2998.95
1017.9902	2912.3236	3876.4	2985.25
1018.1056	2913.4368	3862.5	2978.7
1018.2209	2914.5494	3836.25	2956.45
1018.3362	2915.6613	3823.4	2935.55
1018.4515	2916.7725	3794.4	2910.25
1018.5667	2917.8831	3744.05	2860.95
1018.6819	2918.9931	3716.4	2831.9
1018.797	2920.1024	3689.1	2805.3
1018.9121	2921.211	3677.65	2798.05
1019.0271	2922.319	3658	2773.65
1019.1421	2923.4264	3627.95	2749.5
1019.2571	2924.5331	3623.9	2743.25
1019.372	2925.6391	3626.7	2744.55
1019.4869	2926.7445	3606.7	2725.8
1019.6017	2927.8493	3623.3	2742.1
1019.7165	2928.9534	3607.25	2725.75
1019.8313	2930.0569	3605.4	2719.15
1019.946	2931.1597	3607.1	2721.8
1020.0606	2932.2619	3605.45	2725.3
1020.1753	2933.3634	3607.5	2728.65
1020.2899	2934.4643	3596.55	2707.9
1020.4044	2935.5645	3580.85	2691.6
1020.5189	2936.6641	3566.65	2681.5
1020.6334	2937.763	3524.1	2642.9
1020.7478	2938.8613	3489.55	2609.85
1020.8622	2939.959	3441.4	2554.6
1020.9765	2941.056	3357.8	2479.45
1021.0908	2942.1523	3282.85	2400.45
1021.2051	2943.248	3207.05	2323
1021.3193	2944.3431	3109.2	2229.1
1021.4334	2945.4375	3020.8	2139.3
1021.5476	2946.5313	2919.95	2039.8
1021.6617	2947.6244	2819.45	1938.7
1021.7757	2948.7169	2722.55	1840.2
1021.8897	2949.8087	2634.4	1753.25
1022.0037	2950.8999	2533.3	1651.35
1022.1176	2951.9904	2467.35	1587.4
1022.2315	2953.0803	2385.75	1502.1
1022.3453	2954.1696	2315.9	1434.5
1022.4591	2955.2582	2275.35	1394.3
1022.5728	2956.3462	2231	1350.55
1022.6865	2957.4335	2185.3	1303.85
1022.8002	2958.5202	2153.35	1269.95
1022.9138	2959.6062	2118.05	1236.9
1023.0274	2960.6916	2105.25	1224.3
1023.141	2961.7764	2083.15	1201.9
1023.2545	2962.8605	2073.2	1190.6
1023.3679	2963.9439	2055.3	1174.2
1023.4813	2965.0267	2042.25	1162.15
1023.5947	2966.1089	2060.8	1158
1023.708	2967.1905	2043.4	1163.6
1023.8213	2968.2714	2038.4	1159.2
1023.9346	2969.3516	2031.5	1151.8
1024.0478	2970.4312	2039.5	1152.95
1024.1609	2971.5102	2026.65	1144.85
1024.274	2972.5885	2025.9	1146.9
1024.3871	2973.6662	2033.85	1148.2
1024.5002	2974.7432	2030.05	1149.1
1024.6132	2975.8196	2017.35	1135.7
1024.7261	2976.8954	2014.55	1134.9
1024.839	2977.9705	1994.25	1113.1
1024.9519	2979.045	1995.1	1114.55
1025.0647	2980.1188	1975.65	1094.7
1025.1775	2981.192	1962.15	1082.2
1025.2902	2982.2645	1935.3	1054.25
1025.4029	2983.3364	1915.05	1034.2
1025.5156	2984.4077	1880.05	997.25
1025.6282	2985.4783	1872.2	988.5
1025.7407	2986.5483	1832.1	951.8
1025.8532	2987.6177	1786.15	907.2
1025.9657	2988.6864	1765	884.65
1026.0782	2989.7545	1734.85	853.4
1026.1906	2990.8219	1702.5	822.65
1026.3029	2991.8887	1675	792.1
1026.4152	2992.9548	1636.2	755.9
1026.5275	2994.0204	1607.85	729
1026.6397	2995.0852	1574.15	697.4
1026.7519	2996.1495	1556.15	674.35
1026.864	2997.2131	1529.6	649.85
1026.9761	2998.276	1508.8	631.85
1027.0882	2999.3383	1485	604.5
1027.2002	3000.4	1459.9	577.9
1027.3122	3001.4611	1449.45	570.5
1027.4241	3002.5215	1425.4	544.5
1027.536	3003.5812	1410.7	530.7
1027.6478	3004.6404	1404.05	523.95
1027.7596	3005.6989	1396.1	514.4
1027.8714	3006.7567	1381.8	501
1027.9831	3007.8139	1400.1	491.6
1028.0947	3008.8705	1365.6	487.7
1028.2064	3009.9264	1369.8	486.05
1028.3179	3010.9818	1351.35	472.55
1028.4295	3012.0364	1346.7	467.5
1028.541	3013.0905	1339.8	457.85
1028.6524	3014.1439	1335.6	456.5
1028.7638	3015.1966	1334.05	453.85
1028.8752	3016.2487	1329.45	451.2
1028.9865	3017.3002	1330.95	444.45
1029.0978	3018.3511	1323.1	443.35
1029.209	3019.4013	1325.7	447.15
1029.3202	3020.4509	1318.7	437.35
1029.4314	3021.4998	1318.2	435.65
1029.5425	3022.5481	1312.55	433.95
1029.6535	3023.5958	1319.85	437.7
1029.7645	3024.6428	1318.9	438.3
1029.8755	3025.6892	1321.55	445.35
1029.9864	3026.735	1322.2	440.4
1030.0973	3027.7802	1318.95	440.5
1030.2082	3028.8247	1324.05	444.4
1030.319	3029.8685	1322.75	443
1030.4297	3030.9118	1323.65	441.2
1030.5404	3031.9544	1332.15	451.15
1030.6511	3032.9963	1325.15	443.6
1030.7617	3034.0376	1328.8	449.9
1030.8723	3035.0783	1335.1	452.15
1030.9829	3036.1184	1338.85	457.9
1031.0934	3037.1578	1333.5	455.4
1031.2038	3038.1966	1345.5	466.45
1031.3142	3039.2348	1340.35	463.2
1031.4246	3040.2723	1350.8	461.7
1031.5349	3041.3092	1341.9	463.9
1031.6452	3042.3455	1349.45	468.5
1031.7554	3043.3811	1335.45	457.05
1031.8656	3044.4161	1334.1	455.15
1031.9758	3045.4505	1332.55	454.6
1032.0859	3046.4842	1331.45	451.45
1032.1959	3047.5173	1323.9	445.15
1032.3059	3048.5498	1313.65	434.9
1032.4159	3049.5816	1318.45	440
1032.5258	3050.6128	1314.6	433.75
1032.6357	3051.6434	1308.65	428.9
1032.7455	3052.6734	1303.15	423.5
1032.8553	3053.7027	1297.75	418.1
1032.9651	3054.7314	1291.8	411.5
1033.0748	3055.7594	1288.15	410.35
1033.1845	3056.7868	1289	408.15
1033.2941	3057.8136	1278	397.8
1033.4037	3058.8398	1279.7	400.35
1033.5132	3059.8653	1272.9	393.65
1033.6227	3060.8902	1271.85	389.75
1033.7321	3061.9145	1267.2	387.4
1033.8415	3062.9381	1266.75	385.25
1033.9509	3063.9612	1275.75	381.15
1034.0602	3064.9835	1259.25	381.8
1034.1694	3066.0053	1251.45	370.85
1034.2787	3067.0264	1245.45	365.75
1034.3878	3068.0469	1243.8	363.1
1034.497	3069.0668	1235.95	354.5
1034.6061	3070.086	1224.95	345.1
1034.7151	3071.1046	1223.65	342.05
1034.8241	3072.1226	1217.75	337.15
1034.9331	3073.1399	1203.2	325.75
1035.042	3074.1567	1196.95	316.15
1035.1508	3075.1727	1191.35	312.05
1035.2597	3076.1882	1184.7	303.5
1035.3684	3077.203	1178.05	299.1
1035.4772	3078.2173	1173.95	293.15
1035.5859	3079.2308	1166.15	284.35
1035.6945	3080.2438	1160.9	281.8
1035.8031	3081.2561	1148.65	269.8
1035.9117	3082.2678	1143.2	265.3
1036.0202	3083.2789	1139.25	259.3
1036.1286	3084.2893	1131.3	252.9
1036.2371	3085.2991	1126.4	248.35
1036.3454	3086.3083	1125.35	242.6
1036.4538	3087.3169	1112.75	234.6
1036.562	3088.3248	1107.95	228.9
1036.6703	3089.3321	1109.25	229.35
1036.7785	3090.3388	1103.05	225.8
1036.8866	3091.3449	1101.65	223.6
1036.9948	3092.3503	1098.45	216.6
1037.1028	3093.3551	1089.65	211.6
1037.2108	3094.3593	1089.05	210.2
1037.3188	3095.3629	1081.8	203.25
1037.4267	3096.3658	1081	200.8
1037.5346	3097.3681	1081.3	203.45
1037.6425	3098.3698	1079.9	201.7
1037.7503	3099.3708	1082.65	198.15
1037.858	3100.3713	1070.45	193.2
1037.9657	3101.3711	1070.95	190.7
1038.0734	3102.3702	1202.75	186.15
1038.181	3103.3688	1065.35	186.35
1038.2886	3104.3667	1058.7	180.5
1038.3961	3105.364	1062.25	184.3
1038.5036	3106.3607	1061.1	180.75
1038.611	3107.3568	1056.8	179.65
1038.7184	3108.3522	1050.55	174.35
1038.8257	3109.347	1050.8	171
1038.933	3110.3412	1058.75	175.95
1039.0403	3111.3348	1047.15	169.05
1039.1475	3112.3277	1045.6	167.3
1039.2547	3113.32	1045.15	168
1039.3618	3114.3117	1046.25	167.7
1039.4689	3115.3028	1042.8	165.7
1039.5759	3116.2932	1042.7	163.95
1039.6829	3117.2831	1041.3	157.35
1039.7898	3118.2723	1037.5	160.75
1039.8967	3119.2608	1035.3	155.7
1040.0035	3120.2488	1034	154.6
1040.1103	3121.2361	1031.55	154.4
1040.2171	3122.2229	1029.25	151.65
1040.3238	3123.209	1029.8	150.5
1040.4305	3124.1944	1025.8	149.6
1040.5371	3125.1793	1026	146.25
1040.6437	3126.1635	1020.9	143.6
1040.7502	3127.1471	1022.2	145.4
1040.8567	3128.1301	1021.3	142.65
1040.9631	3129.1125	1022.1	144.1
1041.0695	3130.0942	1021.45	141.95
1041.1759	3131.0753	1030.15	144.8
1041.2822	3132.0558	1019.2	138.65
1041.3884	3133.0357	1018.4	139.75
1041.4946	3134.015	1018.3	140.25
1041.6008	3134.9936	1018.75	138.5
1041.7069	3135.9716	1031.75	132.05
1041.813	3136.949	1011.3	132.9
1041.919	3137.9258	1028.25	130.75
1042.025	3138.902	1016.25	134.1
1042.1309	3139.8775	1009.3	132.4
1042.2368	3140.8524	1004	128.2
1042.3427	3141.8267	1003.15	123.7
1042.4485	3142.8004	1006.7	127.8
1042.5542	3143.7735	1005.8	121.1
1042.6599	3144.7459	1005.75	126.15
1042.7656	3145.7178	1008	132.6
1042.8712	3146.689	999.25	121.45
1042.9768	3147.6596	1003.15	125.95
1043.0823	3148.6295	1003.3	124.15
1043.1878	3149.5989	999.45	120.05
1043.2932	3150.5676	998.1	122.25
1043.3986	3151.5357	994	116.5
1043.5039	3152.5032	996.5	118.8
1043.6092	3153.4701	992.45	115.25
1043.7145	3154.4364	996.55	117.1
1043.8197	3155.402	993.65	117.4
1043.9248	3156.367	993.65	116.3
1044.03	3157.3315	1023.8	114.75
1044.135	3158.2952	993.15	115.4
1044.24	3159.2584	987.7	109.7
1044.345	3160.221	989.5	112.85
1044.4499	3161.1829	983.45	106.3
1044.5548	3162.1442	985.15	107.8
1044.6596	3163.105	986.2	107.75
1044.7644	3164.065	983.55	106.4
1044.8692	3165.0245	985.75	105.1
1044.9739	3165.9834	979.95	105.7
1045.0785	3166.9416	982.5	105.2
1045.1831	3167.8993	981.9	108.45
1045.2877	3168.8563	980.3	104.5
1045.3922	3169.8127	979.05	101.55
1045.4966	3170.7684	979.9	103.4
1045.6011	3171.7236	978.1	99.6
1045.7054	3172.6782	977.1	99.8
1045.8098	3173.6321	977.75	98.2
1045.914	3174.5854	980.1	98.95
1046.0183	3175.5381	976.4	102.7
1046.1224	3176.4902	975.25	98.25
1046.2266	3177.4417	974.7	98.85
1046.3307	3178.3926	973.05	95.45
1046.4347	3179.3428	970.9	95
1046.5387	3180.2924	975.45	99.95
1046.6427	3181.2415	973.45	96.75
1046.7466	3182.1899	972.3	94.3
1046.8504	3183.1377	969.2	91.35
1046.9542	3184.0848	976.8	95.75
1047.058	3185.0314	970.35	94.3
1047.1617	3185.9773	970.2	92.25
1047.2654	3186.9227	970.65	93.2
1047.369	3187.8674	969.6	89.9
1047.4726	3188.8115	971.3	89.65
1047.5761	3189.755	969.8	92.4
1047.6796	3190.6979	966.25	88.25
1047.783	3191.6402	965.25	89.3
1047.8864	3192.5818	964.5	89.5
1047.9898	3193.5229	982.7	89.75
1048.0931	3194.4633	964.5	89.45
1048.1963	3195.4031	965.25	89.5
1048.2995	3196.3423	965.8	89.25
1048.4027	3197.2809	962.55	84.75
1048.5058	3198.2189	965.65	88.65
1048.6089	3199.1563	967.7	82.95
1048.7119	3200.0931	958.65	84.15
1048.8148	3201.0292	958.55	82
1048.9178	3201.9648	961.3	84.2
1049.0206	3202.8997	964.8	85.1
1049.1235	3203.834	960.8	85
1049.2262	3204.7677	956.55	79.45
1049.329	3205.7008	959.55	81.6
1049.4317	3206.6333	958	82.05
1049.5343	3207.5652	959	81.55
1049.6369	3208.4964	957.85	80.85
1049.7394	3209.4271	955.85	79.9
1049.8419	3210.3571	954.35	78.4
1049.9444	3211.2865	956.6	81.5
1050.0468	3212.2154	954.7	78.9
1050.1491	3213.1436	957.15	77.3
1050.2514	3214.0712	959.2	76.55
1050.3537	3214.9982	954.35	78
1050.4559	3215.9246	954.25	79
1050.5581	3216.8503	948.75	75.3
1050.6602	3217.7755	955.9	78.35
1050.7623	3218.7001	952.75	75.75
1050.8643	3219.624	950.15	71.85
1050.9663	3220.5473	954.35	76.65
1051.0682	3221.4701	950.6	73
1051.1701	3222.3922	950.65	70.1
1051.2719	3223.3137	949.3	73.8
1051.3737	3224.2346	948.3	72.45
1051.4754	3225.1549	948.1	70.9
1051.5771	3226.0746	946.6	71.7
1051.6788	3226.9937	951.15	72.9
1051.7804	3227.9121	946.8	71.95
1051.8819	3228.83	947.1	71.6
1051.9834	3229.7473	951.55	73.8
1052.0849	3230.6639	944.45	67.45
1052.1863	3231.5799	947.75	72
1052.2876	3232.4954	943.55	66.35
1052.3889	3233.4102	943.85	68.1
1052.4902	3234.3244	942.65	67
1052.5914	3235.238	945.9	70.55
1052.6926	3236.151	969.7	70.65
1052.7937	3237.0634	942.7	69.55
1052.8948	3237.9752	942.35	67.1
1052.9958	3238.8864	945.65	70.55
1053.0968	3239.797	944	67
1053.1977	3240.7069	942	63.95
1053.2986	3241.6163	941.15	63.85
1053.3994	3242.5251	938.8	63.45
1053.5002	3243.4332	937.7	62.7
1053.6009	3244.3408	939.4	64.15
1053.7016	3245.2477	939.65	67.75
1053.8022	3246.154	941	63.8
1053.9028	3247.0598	940.9	65.1
1054.0034	3247.9649	939.2	61.65
1054.1039	3248.8694	936.55	60.9
1054.2043	3249.7733	939.25	63.7
1054.3047	3250.6766	936.55	60.25
1054.4051	3251.5793	934.4	58.9
1054.5054	3252.4814	934.7	58.25
1054.6056	3253.3829	932.55	55.4
1054.7058	3254.2838	933.25	58.2
1054.806	3255.1841	936.75	61.6
1054.9061	3256.0838	930.45	53.25
1055.0061	3256.9829	931.85	57.45
1055.1062	3257.8814	934.95	58.3
1055.2061	3258.7792	931.75	53.3
1055.306	3259.6765	933.65	55.95
1055.4059	3260.5731	927.15	50.85
1055.5057	3261.4692	926.55	50.9
1055.6055	3262.3647	929.75	51.5
1055.7052	3263.2595	926.8	51.8
1055.8049	3264.1538	925.85	50
1055.9045	3265.0474	925.8	51.3
1056.0041	3265.9404	924.1	50.8
1056.1036	3266.8329	924.1	49.5
1056.2031	3267.7247	930.4	46.4
1056.3025	3268.616	919.15	45.5
1056.4019	3269.5066	922.35	47.6
1056.5013	3270.3966	920.4	44.4
1056.6005	3271.286	916.3	42.8
