Software Version:	3.9.2.0
Unit SN:	10000200
Spectrometer SN:	6960
Date:	3/8/2024 12:29:47 PM
Data Line Index:	25
Spectral Points:	2048
Integration time (ms):	125
Averages:	20
Delay (ms):	30000
Sequence Number:	1
Processing:	dark subtract
Laser Power (mW):	300
Laser Current (mA):	822
Laser Diode Temp (C):	25
Laser Case Temp (C):	26
System Temp (C):	26
Spectrometer Temp (C):	23.8
CCD Temp (C):	0.001
Secondary Temp (C):	19.979
Heatsink Temp (C):	20.507
CCDPCB Temp (C):	36.018
SecondaryPCB Temp (C):	30.827

Wavelength	RamanShift	Raw Counts	Dark Subtracted
787.061	30.1047	449.55	40.55
787.2016	32.3739	449.05	40.8
787.3422	34.6426	450.85	42.75
787.4828	36.9109	459.2	47.55
787.6235	39.1787	465.9	51.4
787.7642	41.4461	476	57.45
787.9049	43.7131	482.25	60.9
788.0456	45.9796	493.75	69.4
788.1863	48.2456	499.6	70.05
788.3271	50.5112	509.5	77.4
788.4679	52.7764	517.05	81.55
788.6087	55.0411	526.3	85.8
788.7496	57.3054	539.1	92.35
788.8904	59.5692	547.35	99.05
789.0313	61.8326	553.75	103.7
789.1722	64.0955	569.05	115.3
789.3132	66.3579	582.2	123.15
789.4541	68.6199	597.3	135.2
789.5951	70.8815	633.7	167.15
789.7361	73.1426	717.55	246.3
789.8771	75.4032	926.35	451.9
790.0181	77.6634	1428.65	949.35
790.1592	79.9231	2588.85	2101.9
790.3003	82.1824	5085.6	4583.45
790.4414	84.4412	9536.75	9004.65
790.5825	86.6995	15556.15	14987
790.7237	88.9574	21296.5	20697.45
790.8648	91.2148	25077.6	24456.6
791.006	93.4717	26745	26113.6
791.1472	95.7282	26883.55	26239.7
791.2885	97.9842	26487.1	25843
791.4297	100.2398	25611.05	24965.85
791.571	102.4949	24708.2	24058.8
791.7123	104.7495	23706.15	23056.1
791.8536	107.0036	22706.05	22052.2
791.9949	109.2573	21835.6	21183.9
792.1363	111.5105	21051.4	20394.25
792.2777	113.7632	20343.95	19687.75
792.4191	116.0154	19807.65	19136.45
792.5605	118.2672	19381.55	18720.65
792.7019	120.5185	18972.65	18305.2
792.8434	122.7693	18701.75	18032.05
792.9849	125.0197	18419.5	17747.4
793.1264	127.2696	18134.95	17461.55
793.2679	129.519	17939.1	17262.6
793.4094	131.7679	17604.3	16921.55
793.551	134.0163	17276	16589.15
793.6926	136.2642	16895.25	16205.4
793.8342	138.5117	16513.75	15815.8
793.9758	140.7587	16104.7	15414.4
794.1175	143.0052	15724.4	15030.9
794.2591	145.2512	15314.8	14624.75
794.4008	147.4967	15003.3	14310.05
794.5425	149.7417	14748.45	14050.05
794.6842	151.9863	14570.5	13866.95
794.826	154.2304	14434.45	13729.5
794.9677	156.4739	14284.9	13568.65
795.1095	158.717	14127.5	13414.95
795.2513	160.9596	13927.3	13210.1
795.3931	163.2017	13683.2	12964.2
795.535	165.4433	13401.6	12679.2
795.6768	167.6844	13051.5	12325.1
795.8187	169.925	12750.9	12026.05
795.9606	172.1651	12385.7	11660.25
796.1025	174.4047	12105.1	11377.3
796.2445	176.6439	11868.8	11140.9
796.3864	178.8825	11645.65	10907.95
796.5284	181.1206	11500.5	10758.65
796.6704	183.3582	11400	10655.9
796.8124	185.5954	11312.35	10566.6
796.9544	187.832	11249	10499.45
797.0965	190.0681	11211.8	10456.95
797.2386	192.3037	11205.55	10449.35
797.3806	194.5388	11180.4	10420
797.5228	196.7734	11222.3	10461.25
797.6649	199.0075	11274.9	10512.4
797.807	201.2411	11398.6	10635.25
797.9492	203.4742	11469.25	10703.4
798.0914	205.7068	11608.2	10842.35
798.2336	207.9389	11724.4	10954.65
798.3758	210.1704	11872.5	11106.6
798.518	212.4015	11997.75	11238.1
798.6603	214.632	12150.2	11403.8
798.8025	216.862	12276.4	11532.9
798.9448	219.0915	12334.05	11584.7
799.0871	221.3205	12438.75	11688.1
799.2294	223.549	12493.3	11744.05
799.3718	225.777	12571	11819.15
799.5141	228.0044	12596.8	11841.25
799.6565	230.2314	12685.55	11928.75
799.7989	232.4578	12747.9	11991.6
799.9413	234.6837	12818.9	12053.4
800.0837	236.909	12891	12123.15
800.2262	239.1339	12874.05	12077.8
800.3687	241.3582	12824.6	12047.1
800.5111	243.582	12748.3	11938.6
800.6536	245.8053	12714.35	11919.65
800.7961	248.0281	12670.8	11881.05
800.9387	250.2503	12694.7	11899.45
801.0812	252.472	12783.7	11983.5
801.2238	254.6932	12953.15	12154.4
801.3664	256.9139	13083.75	12287.1
801.509	259.134	13325.65	12518.9
801.6516	261.3536	13583.1	12780.9
801.7942	263.5727	13924.55	13125.65
801.9369	265.7912	14242.65	13438.45
802.0795	268.0092	14560.7	13760.1
802.2222	270.2267	14791.2	13984.7
802.3649	272.4436	14967.9	14166.7
802.5076	274.6601	14992.45	14178.15
802.6504	276.8759	14929.9	14120.75
802.7931	279.0913	14831.1	14023.6
802.9359	281.3061	14680.5	13866.9
803.0787	283.5204	14624.95	13811
803.2215	285.7341	14594.7	13775.45
803.3643	287.9473	14608.55	13778.75
803.5071	290.16	14611.4	13789.95
803.6499	292.3721	14658.75	13839.5
803.7928	294.5837	14867.8	14048.55
803.9357	296.7947	15042.35	14225.25
804.0786	299.0052	15177.35	14359.5
804.2215	301.2152	15191.65	14369.95
804.3644	303.4246	15039.5	14227.9
804.5074	305.6334	14745.1	13927.4
804.6503	307.8418	14390.15	13571.1
804.7933	310.0495	13950.5	13133.1
804.9363	312.2568	13521.4	12694.9
805.0793	314.4635	13084.75	12260.15
805.2223	316.6696	12765.05	11935.1
805.3653	318.8752	12500.65	11664.5
805.5084	321.0802	12406.95	11580.3
805.6514	323.2847	12375	11544.75
805.7945	325.4887	12412.15	11581.75
805.9376	327.692	12449.15	11615.3
806.0807	329.8949	12385.35	11552.2
806.2238	332.0972	12246.7	11407.6
806.367	334.2989	12027.1	11186.8
806.5101	336.5001	11806.8	10967.3
806.6533	338.7007	11596.5	10756.7
806.7965	340.9008	11414.75	10574.05
806.9397	343.1003	11228.25	10384.35
807.0829	345.2992	11083.7	10238
807.2261	347.4976	10969.15	10127.2
807.3693	349.6955	10909.85	10061.95
807.5126	351.8927	10846.95	9997
807.6559	354.0895	10770.35	9909.55
807.7991	356.2856	10756.15	9907.3
807.9424	358.4812	10680.15	9831.55
808.0857	360.6763	10679.15	9827.85
808.2291	362.8707	10663.7	9806.2
808.3724	365.0646	10697.85	9838.7
808.5158	367.258	10740.7	9884.05
808.6591	369.4508	10828.7	9968.9
808.8025	371.643	10957.65	10094.6
808.9459	373.8346	11049.2	10183.2
809.0893	376.0257	11160.45	10295.45
809.2327	378.2162	11212.3	10349.95
809.3762	380.4062	11223	10358.45
809.5196	382.5956	11123.8	10262.1
809.6631	384.7844	11009.5	10148.85
809.8066	386.9726	10866.4	10013.1
809.9501	389.1603	10775.05	9921.1
810.0936	391.3474	10735.65	9838.2
810.2371	393.5339	10700.45	9839.05
810.3806	395.7199	10655.85	9800.65
810.5241	397.9052	10739.05	9883.85
810.6677	400.09	10839.25	9978.6
810.8113	402.2743	11011.55	10154.3
810.9548	404.4579	11191.15	10333.05
811.0984	406.641	11401.8	10541.95
811.2421	408.8235	11565.95	10704.6
811.3857	411.0054	11693.75	10830.35
811.5293	413.1868	11813.45	10944.7
811.673	415.3675	11827.25	10959.4
811.8166	417.5477	11789.5	10918.85
811.9603	419.7273	11733.75	10856.5
812.104	421.9064	11626.5	10745.7
812.2477	424.0848	11586.9	10716.25
812.3914	426.2627	11448.45	10577.2
812.5351	428.4399	11247.85	10371.7
812.6788	430.6166	10930.05	10054.2
812.8226	432.7928	10608.75	9726.85
812.9663	434.9683	10329.7	9452.9
813.1101	437.1432	10097.45	9221.85
813.2539	439.3176	9917.25	9046.05
813.3977	441.4914	9805.25	8933.2
813.5415	443.6645	9766.7	8895.8
813.6853	445.8371	9736.5	8862.8
813.8291	448.0091	9712.4	8839.7
813.973	450.1806	9708.4	8832.2
814.1168	452.3514	9700	8828
814.2607	454.5216	9747.8	8866.75
814.4046	456.6913	9752.5	8874.15
814.5485	458.8603	9799.4	8924.8
814.6924	461.0288	9846.45	8974.45
814.8363	463.1967	9797.15	8927.2
814.9802	465.3639	9839.65	8964.65
815.1241	467.5306	9799.8	8926.6
815.2681	469.6967	9805.8	8937.3
815.412	471.8622	9795	8924.8
815.556	474.0271	9830.6	8957.85
815.7	476.1914	9865.8	8987.85
815.844	478.3551	9872.15	8995.45
815.988	480.5182	9936.8	9061.75
816.132	482.6807	10048.35	9183
816.276	484.8426	10243.8	9380.1
816.4201	487.0039	10556.2	9689.25
816.5641	489.1647	10924.2	10047.95
816.7082	491.3248	11268.85	10389.4
816.8522	493.4843	11353.3	10479.5
816.9963	495.6432	11297.9	10422.25
817.1404	497.8015	11146.75	10262.5
817.2845	499.9592	11027	10134.85
817.4286	502.1163	10810.1	9922.25
817.5727	504.2728	10487.45	9603.8
817.7168	506.4287	10210.2	9341.6
817.861	508.5839	9930.8	9056.5
818.0051	510.7386	9734.85	8856.9
818.1493	512.8927	9659.6	8773.65
818.2935	515.0461	9681.65	8793.25
818.4377	517.199	9778.1	8892.85
818.5818	519.3512	9980.2	9089.9
818.726	521.5029	10283.5	9392.45
818.8703	523.6539	10572.45	9685.2
819.0145	525.8043	10705.3	9816.55
819.1587	527.9541	10603.25	9709.2
819.303	530.1033	10395.4	9506.65
819.4472	532.2519	10197.85	9310.95
819.5915	534.3999	10103.7	9212.85
819.7357	536.5472	10127.5	9242.25
819.88	538.694	10309.5	9424.3
820.0243	540.8401	10528.95	9639.1
820.1686	542.9856	10701.7	9807.1
820.3129	545.1305	10723.55	9822.85
820.4572	547.2748	10628.55	9722.6
820.6016	549.4185	10517.5	9612.7
820.7459	551.5615	10409.05	9504.95
820.8902	553.704	10431.3	9529.35
821.0346	555.8458	10545.8	9643.85
821.1789	557.987	10754.05	9855.95
821.3233	560.1276	11043.65	10142.95
821.4677	562.2675	11485.25	10581.8
821.6121	564.4069	12043.2	11141.7
821.7565	566.5456	12587.8	11688.7
821.9009	568.6837	12777.9	11882.7
822.0453	570.8212	12343.75	11447.4
822.1897	572.958	11636.1	10737.1
822.3342	575.0942	10950.1	10050.85
822.4786	577.2299	10439.3	9544.9
822.6231	579.3648	10200.05	9320.3
822.7675	581.4992	10143.45	9268.8
822.912	583.6329	10206.75	9336.45
823.0565	585.766	10356.45	9480.7
823.201	587.8985	10523.9	9638.3
823.3454	590.0304	10616.15	9701.2
823.4899	592.1616	10586.7	9684.6
823.6345	594.2922	10461.25	9556.85
823.779	596.4222	10280.3	9373.35
823.9235	598.5515	10071.9	9164.35
824.068	600.6802	9887.6	8980.65
824.2126	602.8083	9750.55	8847.75
824.3571	604.9358	9732.7	8831.25
824.5017	607.0626	9767.65	8860.2
824.6462	609.1888	9907.1	8994.8
824.7908	611.3144	10110.25	9198.85
824.9354	613.4393	10258.55	9348.2
825.08	615.5636	10388.7	9476.65
825.2246	617.6873	10453.05	9544.5
825.3692	619.8103	10363.4	9453.45
825.5138	621.9327	10163.2	9253.05
825.6584	624.0544	9925.25	9024.2
825.803	626.1756	9681.5	8778.75
825.9477	628.2961	9544.05	8633.5
826.0923	630.4159	9452.3	8542.4
826.237	632.5351	9444.4	8530.9
826.3816	634.6537	9438.9	8524.65
826.5263	636.7716	9459.5	8542.15
826.6709	638.8889	9480.95	8559.25
826.8156	641.0056	9510.55	8593.6
826.9603	643.1216	9460.75	8540.95
827.105	645.237	9438.35	8521.6
827.2497	647.3518	9351.4	8444.8
827.3944	649.4659	9268.85	8364.1
827.5391	651.5793	9197.95	8293.35
827.6838	653.6922	9152.1	8245.6
827.8285	655.8043	9120.95	8209.5
827.9733	657.9159	9154.75	8242.95
828.118	660.0268	9126.25	8213.1
828.2627	662.137	9146.45	8230.9
828.4075	664.2466	9191.05	8271.65
828.5522	666.3556	9178.25	8259.85
828.697	668.4639	9092.4	8178
828.8418	670.5716	9064.3	8153.55
828.9865	672.6786	8986.05	8072.2
829.1313	674.785	8941.85	8024.85
829.2761	676.8907	8890.5	7975.05
829.4209	678.9958	8900.15	7988.05
829.5657	681.1002	8898.6	7984.35
829.7105	683.204	8879.3	7951.15
829.8553	685.3072	8855.7	7932.55
830.0001	687.4097	8860.95	7943.3
830.1449	689.5115	8864.6	7945.55
830.2898	691.6127	8861.45	7946.1
830.4346	693.7132	8843.15	7930.25
830.5794	695.8131	8873.3	7940.8
830.7243	697.9123	8925.7	8002.5
830.8691	700.0109	8937.55	8014.4
831.014	702.1089	9008.85	8087.25
831.1588	704.2061	9058.5	8136.3
831.3037	706.3028	9137.75	8217.45
831.4486	708.3987	9189.75	8269.5
831.5935	710.4941	9226.4	8304.3
831.7383	712.5887	9245.2	8325.8
831.8832	714.6827	9307.25	8384.1
832.0281	716.7761	9372.8	8455.3
832.173	718.8688	9503	8582.5
832.3179	720.9608	9642.85	8717.8
832.4628	723.0522	9784.35	8854.05
832.6077	725.1429	9855.3	8927.85
832.7527	727.233	10017.55	9090.15
832.8976	729.3224	10131.35	9207.25
833.0425	731.4112	10139.45	9214.1
833.1874	733.4993	9989.1	9062.8
833.3324	735.5867	9739.65	8813.8
833.4773	737.6735	9527.2	8604.25
833.6222	739.7596	9282.85	8352.75
833.7672	741.845	9128.5	8203.1
833.9122	743.9298	9039.8	8116.7
834.0571	746.014	9014.2	8087.95
834.2021	748.0974	8996.7	8063.25
834.347	750.1802	8992.1	8060.9
834.492	752.2624	9052.2	8123.55
834.637	754.3439	9094.95	8168.6
834.782	756.4247	9208.5	8268.2
834.9269	758.5048	9377.65	8450.75
835.0719	760.5843	9661.95	8730.25
835.2169	762.6631	10081.6	9152.8
835.3619	764.7413	10698.85	9768.45
835.5069	766.8188	11417.4	10484.4
835.6519	768.8956	12041.6	11110.7
835.7969	770.9718	12485.1	11555.4
835.9419	773.0473	12440.25	11512.65
836.0869	775.1221	12185.35	11255.55
836.232	777.1962	11942.35	11012.4
836.377	779.2697	11880.8	10948.05
836.522	781.3426	12001.95	11061.15
836.667	783.4147	12071.2	11141.3
836.8121	785.4862	12084.95	11152.35
836.9571	787.557	11850.85	10916.15
837.1021	789.6271	11331.2	10397.75
837.2472	791.6966	10724.3	9790.95
837.3922	793.7654	10091.5	9162.8
837.5373	795.8335	9651.25	8717.4
837.6823	797.901	9326.6	8395.8
837.8274	799.9678	9161.7	8225.55
837.9724	802.0339	9054.65	8120.4
838.1175	804.0993	8994.85	8047.15
838.2626	806.1641	8924.3	7992.9
838.4076	808.2282	8870.55	7938
838.5527	810.2916	8777.9	7843.95
838.6978	812.3544	8719.95	7786.85
838.8428	814.4164	8672.7	7740.5
838.9879	816.4778	8706.65	7770.95
839.133	818.5385	8731.15	7796.05
839.2781	820.5986	8915.2	7978.85
839.4232	822.658	9200.7	8262.05
839.5682	824.7166	9563.45	8632.75
839.7133	826.7747	10142.2	9203.7
839.8584	828.832	10743.4	9808.2
840.0035	830.8886	11194.9	10256.25
840.1486	832.9446	11396.85	10459.85
840.2937	834.9999	11238.35	10305.1
840.4388	837.0545	10880.95	9941.7
840.5839	839.1085	10452.55	9515.7
840.729	841.1618	10090.7	9149.9
840.8741	843.2143	9809.2	8871.95
841.0192	845.2662	9542.5	8606.05
841.1643	847.3175	9445.3	8507.4
841.3095	849.368	9305.4	8369.7
841.4546	851.4179	9208.9	8270.65
841.5997	853.467	9109.65	8171
841.7448	855.5155	9070.65	8133.4
841.8899	857.5633	9002	8068.05
842.0351	859.6105	8915.4	7979.85
842.1802	861.6569	8860.05	7917.8
842.3253	863.7027	8788.45	7848.6
842.4704	865.7478	8719.2	7776.75
842.6156	867.7922	8676.85	7735.5
842.7607	869.8359	8637.95	7695.9
842.9058	871.8789	8675.55	7736.55
843.0509	873.9212	8758.2	7783.85
843.1961	875.9629	8805.75	7862.9
843.3412	878.0039	8901.1	7963.15
843.4863	880.0441	8998.15	8064.6
843.6315	882.0837	9047.55	8111.5
843.7766	884.1226	9113.15	8171.5
843.9218	886.1609	9198.55	8261.75
844.0669	888.1984	9321.4	8382.65
844.212	890.2352	9495.5	8553.35
844.3572	892.2714	9536.95	8594.5
844.5023	894.3069	9477.2	8539.4
844.6475	896.3416	9295.85	8353.95
844.7926	898.3757	9157.1	8214.85
844.9377	900.4091	9029.7	8088.1
845.0829	902.4418	9010.2	8063.2
845.228	904.4739	9054.15	8110.15
845.3732	906.5052	9117.9	8174.35
845.5183	908.5358	9070.95	8129.7
845.6635	910.5658	8948.75	8001.5
845.8086	912.595	8742.6	7798.65
845.9538	914.6236	8499	7556.2
846.0989	916.6515	8364.9	7424.95
846.2441	918.6786	8280.1	7334.9
846.3892	920.7051	8253.3	7307.1
846.5344	922.7309	8276	7335.7
846.6795	924.756	8296.5	7354.4
846.8246	926.7804	8360.7	7420.1
846.9698	928.8041	8393.5	7450.8
847.1149	930.8272	8449.5	7506
847.2601	932.8495	8442.75	7498.05
847.4052	934.8711	8440.5	7496.25
847.5504	936.892	8428.55	7484.45
847.6955	938.9123	8432.9	7488.2
847.8407	940.9318	8508.4	7564.6
847.9858	942.9506	8510.65	7563.95
848.131	944.9688	8450.6	7506.9
848.2761	946.9862	8360.1	7417.3
848.4213	949.003	8183.7	7240.55
848.5664	951.019	8096	7150.75
848.7115	953.0344	8011.5	7067.65
848.8567	955.0491	8005.05	7060.75
849.0018	957.063	8041.5	7100.75
849.147	959.0763	8095.25	7154.2
849.2921	961.0888	8109.45	7163.75
849.4373	963.1007	8194.4	7253.4
849.5824	965.1119	8209.8	7275.15
849.7275	967.1223	8163.15	7232.95
849.8727	969.1321	8158.15	7229.7
850.0178	971.1412	8135.1	7197.55
850.1629	973.1495	8125.95	7188
850.3081	975.1572	8169.9	7183.55
850.4532	977.1641	8156.45	7214.7
850.5983	979.1704	8122.25	7178.1
850.7435	981.1759	8104.8	7157.3
850.8886	983.1808	8111.1	7167.75
851.0337	985.1849	8107.9	7150.85
851.1788	987.1884	8166.9	7221.25
851.324	989.1911	8232.15	7287.3
851.4691	991.1932	8291.5	7350.6
851.6142	993.1945	8308.45	7367.8
851.7593	995.1951	8296	7349.4
851.9045	997.1951	8260.95	7311.75
852.0496	999.1943	8231.75	7286.5
852.1947	1001.1928	8255.4	7311
852.3398	1003.1906	8301.8	7361.55
852.4849	1005.1877	8435.95	7493.6
852.63	1007.1841	8554.1	7610.85
852.7751	1009.1798	8594.7	7654.15
852.9202	1011.1748	8519.1	7573.45
853.0653	1013.1691	8407.6	7459.9
853.2104	1015.1627	8202.8	7263.65
853.3555	1017.1556	7997.7	7058.9
853.5006	1019.1477	7886.3	6949.15
853.6457	1021.1392	7755.35	6825.25
853.7908	1023.1299	7727.45	6794.7
853.9359	1025.12	7756.65	6829.45
854.081	1027.1093	7793.3	6877.25
854.2261	1029.0979	7931.55	7015.65
854.3712	1031.0859	8037.75	7115.65
854.5163	1033.0731	8101.45	7173.6
854.6613	1035.0596	8059.9	7126.45
854.8064	1037.0454	7947.9	7014
854.9515	1039.0304	7871.3	6931.25
855.0965	1041.0148	7751.95	6812.45
855.2416	1042.9985	7655.3	6713.7
855.3867	1044.9814	7608.5	6669.05
855.5317	1046.9636	7551.45	6609.75
855.6768	1048.9452	7543.2	6603.15
855.8219	1050.926	7603.75	6665.15
855.9669	1052.9061	7614.1	6674.45
856.112	1054.8855	7672.05	6731.55
856.257	1056.8642	7704	6761.35
856.4021	1058.8421	7759.05	6812.9
856.5471	1060.8194	7783.95	6843.8
856.6921	1062.7959	7840.15	6901.05
856.8372	1064.7717	7926.5	6981.8
856.9822	1066.7469	7995.6	7056.95
857.1272	1068.7213	8109.25	7166.15
857.2723	1070.695	8202.8	7264.8
857.4173	1072.6679	8233.15	7291.35
857.5623	1074.6402	8281.7	7341.15
857.7073	1076.6117	8257.6	7310.85
857.8523	1078.5826	8119.75	7176.55
857.9973	1080.5527	7951.2	7006.75
858.1423	1082.5221	7829.9	6891.2
858.2873	1084.4908	7782.55	6842.4
858.4323	1086.4587	7771.3	6832.85
858.5773	1088.426	7767.5	6827
858.7223	1090.3925	7800.3	6853.95
858.8673	1092.3584	7852.4	6912.25
859.0123	1094.3235	7898.2	6957.35
859.1573	1096.2879	8000.25	7059.8
859.3022	1098.2515	8153.5	7213.5
859.4472	1100.2145	8337.85	7398.35
859.5922	1102.1767	8548.35	7607.6
859.7371	1104.1382	8790.45	7847.55
859.8821	1106.099	9084.35	8144.15
860.027	1108.0591	9290.45	8350.55
860.172	1110.0185	9447.1	8504.9
860.3169	1111.9771	9533.45	8592.35
860.4619	1113.9351	9491.65	8553.95
860.6068	1115.8923	9392.5	8451.8
860.7517	1117.8488	9261.05	8317.35
860.8967	1119.8045	9119.05	8178.4
861.0416	1121.7596	8943.85	8005
861.1865	1123.7139	8829.2	7891.7
861.3314	1125.6675	8747.55	7812.5
861.4763	1127.6204	8786.75	7852.45
861.6212	1129.5726	8730.2	7791.65
861.7661	1131.524	8641.75	7702.3
861.911	1133.4748	8459.1	7519.55
862.0559	1135.4248	8260.7	7320.2
862.2008	1137.3741	8077.1	7139.65
862.3457	1139.3226	7941.35	6998.45
862.4905	1141.2705	7891.3	6950.6
862.6354	1143.2176	7834.65	6890.65
862.7803	1145.164	7787.2	6847.55
862.9251	1147.1097	7688.25	6752
863.07	1149.0546	7608.15	6666.75
863.2148	1150.9989	7484.95	6544.8
863.3597	1152.9424	7406.05	6465.2
863.5045	1154.8852	7327.85	6390.75
863.6493	1156.8272	7283.9	6345.3
863.7942	1158.7686	7330.7	6384.6
863.939	1160.7092	7357.45	6419.35
864.0838	1162.6491	7426.65	6487.4
864.2286	1164.5883	7524.95	6585.5
864.3734	1166.5267	7652.8	6713.7
864.5182	1168.4644	7808.8	6867.75
864.663	1170.4014	8019.85	7076.1
864.8078	1172.3377	8254.75	7318.65
864.9526	1174.2732	8579.9	7644
865.0974	1176.2081	9060.75	8122.2
865.2421	1178.1421	9633.35	8691.55
865.3869	1180.0755	10216.05	9279.75
865.5317	1182.0082	10633.55	9697.8
865.6764	1183.9401	10820.1	9885.3
865.8212	1185.8713	10661.35	9729.25
865.9659	1187.8017	10284.1	9361.85
866.1106	1189.7315	9858.15	8939.5
866.2554	1191.6605	9414.8	8495.35
866.4001	1193.5888	9134.6	8212
866.5448	1195.5163	8943.95	8011.4
866.6895	1197.4432	8863.1	7928.1
866.8342	1199.3693	8783.15	7847.4
866.9789	1201.2947	8743.1	7808.85
867.1236	1203.2193	8713.1	7776.6
867.2683	1205.1432	8719.65	7785
867.413	1207.0664	8656.25	7722.35
867.5576	1208.9889	8619.25	7681.15
867.7023	1210.9106	8612	7676.75
867.847	1212.8316	8600.1	7667.95
867.9916	1214.7519	8635.95	7693.35
868.1363	1216.6715	8678.65	7743.9
868.2809	1218.5903	8771.4	7837.7
868.4255	1220.5084	8865.25	7927.45
868.5701	1222.4257	9003.45	8067.5
868.7148	1224.3424	9084.25	8155.4
868.8594	1226.2583	9227.3	8293
869.004	1228.1735	9394.7	8463.55
869.1486	1230.0879	9584.75	8649.3
869.2932	1232.0016	9801.05	8867.45
869.4377	1233.9146	9959.2	9025.75
869.5823	1235.8269	10032.9	9101.2
869.7269	1237.7384	10000.6	9066.4
869.8715	1239.6492	9935.55	9005.15
870.016	1241.5592	9908.35	8975.8
870.1606	1243.4686	10031.85	9102.9
870.3051	1245.3772	10249.05	9313.4
870.4496	1247.285	10535.4	9599.2
870.5941	1249.1922	10787.15	9852.25
870.7387	1251.0986	11014.2	10083.45
870.8832	1253.0042	11139.4	10209.55
871.0277	1254.9092	11280.15	10349.15
871.1722	1256.8134	11390.85	10459.85
871.3167	1258.7169	11534.75	10604.4
871.4611	1260.6196	11663.4	10733.3
871.6056	1262.5216	11902.65	10969.35
871.7501	1264.4229	12111.55	11180.65
871.8945	1266.3234	12298.3	11365.6
872.039	1268.2232	12452.85	11517.3
872.1834	1270.1223	12551.7	11616.4
872.3278	1272.0207	12587.85	11651.65
872.4723	1273.9183	12576.65	11636.15
872.6167	1275.8151	12518.9	11586.55
872.7611	1277.7113	12523.9	11592.15
872.9055	1279.6067	12667.7	11737.25
873.0499	1281.5014	12967.3	12034.55
873.1943	1283.3953	13519.45	12581.75
873.3386	1285.2885	14197.05	13265.25
873.483	1287.181	14852.25	13919.85
873.6274	1289.0727	15474.1	14544.35
873.7717	1290.9637	15865.8	14935.3
873.9161	1292.854	16139.5	15208.45
874.0604	1294.7435	16067.9	15134.3
874.2047	1296.6323	15891.4	14963.2
874.349	1298.5204	15609.7	14673.15
874.4933	1300.4077	15303	14372.75
874.6376	1302.2943	14947	14014.35
874.7819	1304.1802	14542.55	13611.9
874.9262	1306.0653	14010.2	13079.05
875.0705	1307.9497	13419	12489
875.2147	1309.8333	12926.75	11993
875.359	1311.7162	12509.15	11576.15
875.5032	1313.5984	12284.6	11348.55
875.6475	1315.4798	12101.35	11169.35
875.7917	1317.3605	11948.15	11000.7
875.9359	1319.2405	11778.55	10842.6
876.0801	1321.1197	11494.4	10561
876.2243	1322.9982	11149	10213.3
876.3685	1324.876	10783.3	9848.75
876.5127	1326.753	10457.75	9525.65
876.6569	1328.6293	10148.05	9214.7
876.801	1330.5048	9968.4	9033.2
876.9452	1332.3796	9780.8	8845.95
877.0893	1334.2537	9649.7	8689.2
877.2335	1336.127	9494.95	8563.9
877.3776	1337.9996	9463.55	8532.85
877.5217	1339.8714	9457.6	8525.4
877.6658	1341.7426	9481.7	8507.5
877.8099	1343.6129	9479.25	8540.75
877.954	1345.4826	9490.6	8559.15
878.0981	1347.3515	9501.75	8566.1
878.2422	1349.2196	9486.9	8553.4
878.3862	1351.087	9504.8	8571.95
878.5303	1352.9537	9563.35	8629.7
878.6743	1354.8197	9644.2	8713.85
878.8184	1356.6849	9793.9	8862.45
878.9624	1358.5493	9992.5	9061.2
879.1064	1360.4131	10206.35	9273.85
879.2504	1362.276	10385.85	9458
879.3944	1364.1383	10427.85	9495.65
879.5384	1365.9998	10309.85	9371.4
879.6823	1367.8606	9968.45	9031.8
879.8263	1369.7206	9615.6	8684.05
879.9702	1371.5799	9286.05	8350.75
880.1142	1373.4384	8965.05	8031.65
880.2581	1375.2962	8715.65	7782.1
880.402	1377.1533	8371.95	7443.1
880.5459	1379.0096	8012.75	7084.1
880.6898	1380.8652	7666.75	6742
880.8337	1382.7201	7370.95	6442.05
880.9776	1384.5742	7144.7	6214.85
881.1215	1386.4275	6959.1	6028.25
881.2653	1388.2802	6812.85	5881.85
881.4092	1390.132	6702.7	5771.3
881.553	1391.9832	6642.95	5711.5
881.6968	1393.8336	6529.6	5595.5
881.8406	1395.6832	6513.45	5581.05
881.9844	1397.5322	6470.65	5540.55
882.1282	1399.3803	6435.35	5499.25
882.272	1401.2278	6388.15	5459.2
882.4158	1403.0745	6395.55	5465.9
882.5595	1404.9204	6371.35	5441.75
882.7033	1406.7656	6369.8	5438.75
882.847	1408.6101	6393.5	5462.95
882.9908	1410.4538	6430.35	5502.05
883.1345	1412.2968	6481.8	5549.15
883.2782	1414.139	6506.75	5576.05
883.4219	1415.9805	6580.65	5651.8
883.5656	1417.8213	6664.65	5731.55
883.7092	1419.6613	6731.75	5804.6
883.8529	1421.5006	6888	5958.7
883.9965	1423.3391	7088.05	6157.05
884.1402	1425.1769	7366	6437.75
884.2838	1427.0139	7746.65	6816.15
884.4274	1428.8502	8286.35	7356.4
884.571	1430.6858	8821.05	7891.85
884.7146	1432.5206	9218.35	8290.5
884.8582	1434.3547	9428.35	8498.7
885.0018	1436.188	9430.9	8503.45
885.1453	1438.0206	9357.95	8428.4
885.2889	1439.8524	9213.1	8285.3
885.4324	1441.6835	9089.65	8161.65
885.5759	1443.5139	9017.35	8085.95
885.7194	1445.3435	8937.65	8010
885.8629	1447.1724	8903.25	7977.45
886.0064	1449.0005	8888.8	7963.5
886.1499	1450.8279	8816.7	7891.6
886.2933	1452.6545	8834.3	7908.35
886.4368	1454.4804	8852.5	7928.3
886.5802	1456.3056	8869.35	7937.6
886.7237	1458.13	8774.15	7850.75
886.8671	1459.9536	8632.65	7708.35
887.0105	1461.7766	8398.65	7473.55
887.1539	1463.5987	8095.85	7167.75
887.2972	1465.4202	7783.95	6853.05
887.4406	1467.2409	7458.2	6531.65
887.584	1469.0608	7192.8	6265.7
887.7273	1470.88	6919.5	5992.15
887.8706	1472.6984	6693.85	5767.85
888.0139	1474.5161	6507.65	5578.3
888.1572	1476.3331	6363.65	5438.3
888.3005	1478.1493	6249.5	5325.15
888.4438	1479.9648	6198.45	5273.2
888.5871	1481.7795	6099.9	5170.65
888.7303	1483.5935	6059.2	5133.85
888.8736	1485.4067	6029.35	5103.75
889.0168	1487.2192	5987.5	5061.3
889.16	1489.031	5934.35	5008.1
889.3032	1490.842	5897.3	4970.15
889.4464	1492.6522	5867.15	4944.15
889.5896	1494.4618	5838.85	4911.9
889.7327	1496.2705	5799.1	4873.05
889.8759	1498.0785	5779.55	4855.35
890.019	1499.8858	5731.15	4804.7
890.1622	1501.6924	5684.8	4758.5
890.3053	1503.4981	5649	4723.75
890.4484	1505.3032	5599.3	4674.55
890.5914	1507.1075	5544.6	4619.55
890.7345	1508.911	5521.9	4599.35
890.8776	1510.7138	5467.75	4543.1
891.0206	1512.5159	5418.05	4493.95
891.1637	1514.3172	5382.2	4458.6
891.3067	1516.1178	5351.55	4428.85
891.4497	1517.9176	5322.9	4398.15
891.5927	1519.7166	5282.05	4358.6
891.7357	1521.515	5252.2	4324.5
891.8786	1523.3126	5255.45	4331.1
892.0216	1525.1094	5219.1	4295.15
892.1645	1526.9055	5184.05	4264.95
892.3074	1528.7008	5152.85	4231.1
892.4503	1530.4954	5170	4247.7
892.5932	1532.2893	5144.15	4224.6
892.7361	1534.0824	5140.2	4217.45
892.879	1535.8747	5116.9	4199.15
893.0218	1537.6663	5118.3	4200.55
893.1647	1539.4572	5131.7	4212.15
893.3075	1541.2473	5119.95	4202.2
893.4503	1543.0367	5121.95	4205.5
893.5931	1544.8253	5145	4222.8
893.7359	1546.6132	5195.75	4272.8
893.8787	1548.4003	5228.1	4301.7
894.0214	1550.1867	5303.7	4377.2
894.1642	1551.9723	5378.05	4458.9
894.3069	1553.7572	5484.75	4564.4
894.4496	1555.5414	5612.6	4696.75
894.5923	1557.3247	5782.85	4867.5
894.735	1559.1074	5963.8	5051.4
894.8777	1560.8893	6151.95	5239.4
895.0204	1562.6705	6341.75	5427.15
895.163	1564.4509	6487.45	5575.35
895.3056	1566.2305	6571.65	5662.6
895.4482	1568.0094	6613.25	5704.55
895.5908	1569.7876	6601.85	5690.45
895.7334	1571.565	6576.6	5663.45
895.876	1573.3417	6570.45	5659.7
896.0186	1575.1176	6552.85	5645.15
896.1611	1576.8928	6581.5	5672.2
896.3036	1578.6672	6612.45	5709.25
896.4461	1580.4409	6670.25	5765.95
896.5886	1582.2138	6743.75	5836.65
896.7311	1583.986	6824.3	5916.25
896.8736	1585.7575	6968.35	6061.95
897.0161	1587.5282	7078.3	6173.7
897.1585	1589.2981	7236.1	6332.8
897.3009	1591.0673	7363.65	6460
897.4433	1592.8358	7496.45	6591.45
897.5857	1594.6035	7627.85	6716.25
897.7281	1596.3704	7719.75	6808.65
897.8705	1598.1366	7849.7	6942.95
898.0128	1599.9021	7977.4	7071
898.1551	1601.6668	8070.8	7164.8
898.2975	1603.4308	8198.3	7289.85
898.4398	1605.194	8416.3	7505.3
898.5821	1606.9564	8607.2	7704.45
898.7243	1608.7182	8901.95	7998.5
898.8666	1610.4791	9233.55	8338.1
899.0088	1612.2394	9573.95	8678.85
899.1511	1613.9988	9943.35	9045
899.2933	1615.7576	10273	9370.15
899.4355	1617.5156	10502	9592.65
899.5776	1619.2728	10520.7	9614.15
899.7198	1621.0293	10393.25	9486.95
899.862	1622.785	10105.7	9196.7
900.0041	1624.54	9673.6	8770
900.1462	1626.2942	9243.4	8341.95
900.2883	1628.0477	8742.85	7841.15
900.4304	1629.8005	8314.55	7410.6
900.5725	1631.5525	7928	7026.75
900.7145	1633.3037	7578.05	6676.8
900.8566	1635.0542	7333.4	6435.55
900.9986	1636.804	7108.75	6209.6
901.1406	1638.553	7075	6083.95
901.2826	1640.3013	6871.3	5967.2
901.4245	1642.0488	6818.15	5914.4
901.5665	1643.7955	6828.7	5930.5
901.7085	1645.5416	6877.95	5979.85
901.8504	1647.2868	6962.7	6060.75
901.9923	1649.0313	7054.75	6154.85
902.1342	1650.7751	7222.2	6315.4
902.2761	1652.5181	7392.95	6492.85
902.4179	1654.2604	7538.05	6637.55
902.5598	1656.0019	7745.65	6846.25
902.7016	1657.7427	8003.65	7103.85
902.8434	1659.4828	8243.35	7340.95
902.9852	1661.222	8391.05	7489.2
903.127	1662.9606	8408.95	7507.35
903.2687	1664.6984	8172.9	7269.15
903.4105	1666.4354	7751.05	6845.5
903.5522	1668.1717	7199	6294.7
903.6939	1669.9072	6635.2	5731.65
903.8356	1671.642	6185.3	5280.1
903.9773	1673.3761	5802.7	4899.85
904.119	1675.1094	5490.1	4589
904.2606	1676.8419	5229.2	4327.45
904.4022	1678.5737	5012.9	4109.8
904.5439	1680.3048	4860.8	3958.8
904.6855	1682.0351	4721.95	3819.2
904.827	1683.7646	4597.95	3692.45
904.9686	1685.4934	4528.05	3628.5
905.1101	1687.2215	4432.6	3531.8
905.2517	1688.9488	4361.9	3463.1
905.3932	1690.6754	4280.7	3381.7
905.5347	1692.4012	4250.65	3349.6
905.6761	1694.1263	4198.2	3298.15
905.8176	1695.8506	4160	3260.25
905.9591	1697.5742	4118.1	3221.8
906.1005	1699.297	4079.15	3185.05
906.2419	1701.0191	4031.4	3131.85
906.3833	1702.7404	3998.4	3102.9
906.5246	1704.461	3977	3076.4
906.666	1706.1808	3935.45	3037.4
906.8073	1707.8999	3917.6	3020.2
906.9487	1709.6182	3880	2985.4
907.09	1711.3358	3867.8	2972.75
907.2313	1713.0527	3836.55	2943.5
907.3725	1714.7688	3821.55	2920.35
907.5138	1716.4841	3783.95	2885.25
907.655	1718.1987	3786.3	2882.8
907.7962	1719.9126	3764.35	2871.1
907.9374	1721.6257	3751	2857.1
908.0786	1723.338	3733.95	2839.8
908.2198	1725.0496	3725.95	2831.65
908.3609	1726.7605	3709.05	2810
908.502	1728.4706	3696.65	2801.3
908.6431	1730.18	3695.3	2801.3
908.7842	1731.8886	3672.35	2778.3
908.9253	1733.5964	3679.45	2766.8
909.0664	1735.3036	3654.95	2758
909.2074	1737.0099	3631.75	2737.3
909.3484	1738.7156	3615.4	2725.3
909.4894	1740.4204	3587.45	2690
909.6304	1742.1246	3567.6	2671.85
909.7714	1743.8279	3552.9	2660.05
909.9123	1745.5306	3529.75	2637.4
910.0532	1747.2325	3507.7	2615.05
910.1941	1748.9336	3498.25	2600.35
910.335	1750.634	3473.75	2575.3
910.4759	1752.3336	3456.3	2564.85
910.6168	1754.0325	3442.7	2549.85
910.7576	1755.7307	3445.5	2554.45
910.8984	1757.4281	3438.7	2545.8
911.0392	1759.1247	3435.95	2531.95
911.18	1760.8206	3425.35	2526.2
911.3208	1762.5158	3424.3	2524.75
911.4615	1764.2102	3415.55	2520.3
911.6022	1765.9039	3385.9	2494
911.7429	1767.5968	3383.3	2489.6
911.8836	1769.289	3374.35	2480.9
912.0243	1770.9804	3368.95	2474.45
912.1649	1772.6711	3373.2	2475.6
912.3056	1774.361	3354.3	2457.85
912.4462	1776.0502	3353.05	2455.6
912.5868	1777.7386	3350.1	2453.75
912.7274	1779.4263	3352.05	2456.55
912.8679	1781.1132	3333.35	2440.85
913.0084	1782.7994	3326.75	2434.35
913.149	1784.4849	3314.95	2424.85
913.2895	1786.1696	3315.25	2408.95
913.4299	1787.8535	3303.9	2413.05
913.5704	1789.5367	3295.05	2405.35
913.7108	1791.2192	3289.35	2398.9
913.8513	1792.9009	3300.6	2382.55
913.9917	1794.5818	3284.15	2384.85
914.132	1796.2621	3254.6	2360.6
914.2724	1797.9415	3252.6	2359.8
914.4128	1799.6202	3246.05	2352
914.5531	1801.2982	3244.65	2349.5
914.6934	1802.9755	3239.2	2345.05
914.8337	1804.6519	3245.4	2349.95
914.9739	1806.3277	3213.65	2321.3
915.1142	1808.0027	3207.15	2316
915.2544	1809.6769	3207.8	2317.1
915.3946	1811.3504	3207.5	2315.05
915.5348	1813.0231	3212.05	2320.8
915.675	1814.6951	3207.5	2317.65
915.8151	1816.3664	3206.25	2312.65
915.9553	1818.0369	3191.85	2297.7
916.0954	1819.7067	3167.45	2274.15
916.2355	1821.3757	3178.2	2281.4
916.3755	1823.044	3178.75	2284
916.5156	1824.7115	3170.05	2274.25
916.6556	1826.3783	3155.75	2262.3
916.7956	1828.0443	3157.75	2266
916.9356	1829.7096	3150.4	2255.95
917.0756	1831.3741	3144.55	2247.4
917.2155	1833.0379	3131.8	2241.05
917.3555	1834.701	3127.85	2236.65
917.4954	1836.3633	3119.5	2229.25
917.6353	1838.0248	3102.4	2207.65
917.7751	1839.6856	3099.35	2206.55
917.915	1841.3457	3112.75	2220.9
918.0548	1843.005	3105.4	2212.15
918.1946	1844.6636	3091.75	2200.05
918.3344	1846.3214	3111.05	2218.65
918.4742	1847.9785	3088.3	2194.7
918.6139	1849.6349	3087.35	2192
918.7537	1851.2904	3097.35	2191.5
918.8934	1852.9453	3085.25	2189.85
919.0331	1854.5994	3074.15	2176.05
919.1727	1856.2528	3081.7	2182.75
919.3124	1857.9054	3078	2186.35
919.452	1859.5572	3058.35	2166.4
919.5916	1861.2083	3069.9	2178.65
919.7312	1862.8587	3070	2176.1
919.8708	1864.5084	3054.05	2159.4
920.0103	1866.1572	3047.4	2151.95
920.1498	1867.8054	3038.1	2141.45
920.2893	1869.4528	3031.8	2136.15
920.4288	1871.0994	3030.3	2135.75
920.5683	1872.7453	3031.1	2136.1
920.7077	1874.3905	3012.7	2113.25
920.8471	1876.0349	3008.45	2113.25
920.9865	1877.6786	3001.25	2105.75
921.1259	1879.3215	2997.4	2104.35
921.2653	1880.9637	2982.55	2089.6
921.4046	1882.6051	2985.7	2093.3
921.5439	1884.2458	2980.2	2085.05
921.6832	1885.8858	2983.2	2091
921.8225	1887.525	2972.15	2080.35
921.9617	1889.1634	2961.2	2067.55
922.101	1890.8011	2946.8	2053.95
922.2402	1892.4381	2953.4	2057.75
922.3794	1894.0743	2953.5	2060.55
922.5185	1895.7098	2951.4	2057.25
922.6577	1897.3446	2943.6	2049
922.7968	1898.9786	2922.6	2026.05
922.9359	1900.6118	2919.5	2026.5
923.075	1902.2443	2923.15	2027.55
923.214	1903.8761	2912.15	2022.45
923.3531	1905.5071	2903.35	2009.7
923.4921	1907.1374	2880	1986.6
923.6311	1908.7669	2888.7	1994.4
923.77	1910.3957	2881.3	1991.15
923.909	1912.0237	2876.3	1984.95
924.0479	1913.651	2877.35	1983.9
924.1868	1915.2776	2876.1	1984.8
924.3257	1916.9034	2861.55	1972.05
924.4646	1918.5285	2853.7	1964.45
924.6034	1920.1528	2847.7	1957.3
924.7422	1921.7764	2840.5	1949.75
924.881	1923.3992	2830.2	1940.35
925.0198	1925.0213	2809.25	1914.95
925.1586	1926.6427	2822.35	1931.5
925.2973	1928.2633	2878.45	1902.65
925.436	1929.8832	2801.55	1906.25
925.5747	1931.5023	2795.4	1904.45
925.7134	1933.1207	2788	1896.35
925.852	1934.7383	2790.15	1900.05
925.9906	1936.3552	2787.2	1897.7
926.1292	1937.9714	2787.05	1895.35
926.2678	1939.5868	2776.3	1883.6
926.4064	1941.2015	2763.4	1868.75
926.5449	1942.8154	2750.45	1859.05
926.6834	1944.4286	2747.25	1854.25
926.8219	1946.041	2763.95	1849.45
926.9604	1947.6528	2736.65	1840.45
927.0988	1949.2637	2727.75	1835.7
927.2372	1950.8739	2720.15	1827.95
927.3756	1952.4834	2720.85	1829.6
927.514	1954.0921	2726.75	1835.6
927.6523	1955.7001	2706.1	1811.9
927.7907	1957.3074	2699.6	1810.05
927.929	1958.9139	2698.95	1810
928.0673	1960.5197	2681.35	1793.3
928.2055	1962.1247	2681.15	1791.8
928.3438	1963.729	2661.4	1771.95
928.482	1965.3325	2667	1773.85
928.6202	1966.9353	2652.3	1764.8
928.7584	1968.5374	2646.5	1758.35
928.8965	1970.1387	2654.05	1764.35
929.0346	1971.7393	2640.55	1751.6
929.1727	1973.3392	2640.85	1752.45
929.3108	1974.9383	2631.15	1743.4
929.4489	1976.5366	2613.4	1727.25
929.5869	1978.1342	2596.25	1710.7
929.7249	1979.7311	2611.35	1721.6
929.8629	1981.3273	2606.55	1718.9
930.0009	1982.9227	2600.55	1711.4
930.1388	1984.5173	2591.25	1706.6
930.2767	1986.1112	2582.45	1697.95
930.4146	1987.7044	2583.2	1696.85
930.5525	1989.2968	2572.75	1685.6
930.6904	1990.8885	2568.5	1678.65
930.8282	1992.4795	2570.85	1684.55
930.966	1994.0697	2558.9	1675
931.1038	1995.6592	2549.2	1664.05
931.2415	1997.2479	2553.4	1666.15
931.3793	1998.8359	2552.95	1667.3
931.517	2000.4232	2533.9	1650.35
931.6547	2002.0097	2536.1	1654.05
931.7923	2003.5955	2522.8	1639.8
931.93	2005.1805	2528.75	1642.7
932.0676	2006.7648	2527.15	1641.5
932.2052	2008.3484	2530.3	1647.45
932.3427	2009.9312	2518.55	1635
932.4803	2011.5133	2509.95	1629
932.6178	2013.0946	2514.9	1631.9
932.7553	2014.6752	2494.5	1610
932.8928	2016.2551	2500.15	1613.65
933.0302	2017.8342	2493.15	1606.75
933.1676	2019.4126	2483.9	1602.75
933.305	2020.9902	2477.3	1595.45
933.4424	2022.5672	2487.45	1604.45
933.5798	2024.1433	2481.05	1593.75
933.7171	2025.7188	2466	1586.7
933.8544	2027.2935	2462.15	1580.65
933.9917	2028.8674	2443.95	1563
934.129	2030.4406	2458.65	1578.1
934.2662	2032.0131	2436.55	1558.55
934.4034	2033.5849	2440.75	1554.25
934.5406	2035.1559	2438.75	1557.9
934.6778	2036.7261	2439.8	1554.05
934.8149	2038.2957	2427.4	1543.7
934.952	2039.8645	2437.5	1552.85
935.0891	2041.4325	2428.25	1540.2
935.2262	2042.9998	2435.45	1551.55
935.3632	2044.5664	2414.15	1528.75
935.5002	2046.1323	2411.55	1532.05
935.6372	2047.6974	2414.35	1531.95
935.7742	2049.2617	2401.65	1520.2
935.9111	2050.8254	2403.95	1517.4
936.048	2052.3883	2412	1525.55
936.1849	2053.9504	2397.75	1512
936.3218	2055.5118	2396.6	1510.4
936.4586	2057.0725	2378.65	1491.85
936.5955	2058.6325	2385	1501.5
936.7323	2060.1917	2383.85	1499.4
936.869	2061.7502	2385.8	1500.6
937.0058	2063.3079	2366.3	1483.15
937.1425	2064.8649	2370.1	1484.8
937.2792	2066.4212	2369.4	1484.8
937.4159	2067.9767	2365.75	1484.1
937.5525	2069.5315	2349.8	1465.1
937.6891	2071.0856	2337.3	1453.2
937.8257	2072.6389	2343.85	1459.05
937.9623	2074.1915	2337	1458.25
938.0989	2075.7433	2341.15	1456.9
938.2354	2077.2945	2329.9	1446.5
938.3719	2078.8448	2328.75	1444.7
938.5084	2080.3945	2321.15	1434.5
938.6448	2081.9434	2318.05	1430.05
938.7812	2083.4916	2319.05	1431.75
938.9176	2085.039	2312.85	1422
939.054	2086.5857	2313.45	1423.9
939.1903	2088.1317	2304.75	1416.05
939.3267	2089.677	2302.7	1410.05
939.463	2091.2215	2304.1	1413.65
939.5992	2092.7652	2297.9	1406.85
939.7355	2094.3083	2302.1	1412.3
939.8717	2095.8506	2288.75	1403.5
940.0079	2097.3921	2289	1402.5
940.1441	2098.933	2280.8	1393.25
940.2802	2100.4731	2280.3	1392.25
940.4163	2102.0124	2287.2	1378.95
940.5524	2103.5511	2285.4	1396.75
940.6885	2105.089	2272.8	1385.3
940.8245	2106.6261	2264.05	1378.3
940.9606	2108.1626	2253.1	1366.25
941.0965	2109.6983	2271.1	1354.3
941.2325	2111.2332	2264.4	1375.95
941.3684	2112.7675	2255.65	1366.15
941.5044	2114.301	2262.75	1372.75
941.6403	2115.8337	2244	1355.25
941.7761	2117.3657	2238.75	1350.2
941.912	2118.897	2243.5	1353.7
942.0478	2120.4276	2249.9	1356
942.1835	2121.9575	2227.2	1337.65
942.3193	2123.4866	2231.05	1340.9
942.455	2125.0149	2216.65	1326.55
942.5907	2126.5426	2217.45	1332.8
942.7264	2128.0695	2218	1331.1
942.8621	2129.5956	2215.25	1334.3
942.9977	2131.1211	2207.4	1319.8
943.1333	2132.6458	2205.1	1318.95
943.2689	2134.1698	2206.65	1317.4
943.4044	2135.693	2206	1313.55
943.54	2137.2155	2214.55	1321.65
943.6755	2138.7373	2199.3	1312.15
943.8109	2140.2584	2188.15	1302.6
943.9464	2141.7787	2189.45	1303.5
944.0818	2143.2983	2174.15	1292.45
944.2172	2144.8171	2170.05	1288.9
944.3526	2146.3353	2168.85	1283.6
944.4879	2147.8527	2167.25	1283.15
944.6232	2149.3693	2175.7	1287.7
944.7585	2150.8853	2154.55	1265.4
944.8938	2152.4005	2157.5	1264.75
945.029	2153.9149	2162.4	1272.1
945.1642	2155.4287	2146.4	1255.2
945.2994	2156.9417	2152.2	1261.35
945.4346	2158.454	2143.25	1252.6
945.5697	2159.9655	2135.7	1251
945.7048	2161.4764	2133.1	1247.1
945.8399	2162.9865	2137.25	1252.15
945.9749	2164.4958	2124.45	1239.7
946.1099	2166.0045	2123	1233.65
946.2449	2167.5124	2118.45	1231.75
946.3799	2169.0195	2120.6	1234.5
946.5148	2170.526	2127.05	1236.8
946.6498	2172.0317	2121.15	1231.9
946.7846	2173.5367	2113.1	1224.85
946.9195	2175.0409	2114.1	1227.05
947.0543	2176.5445	2122.3	1234.4
947.1891	2178.0473	2115.9	1225.3
947.3239	2179.5494	2103.95	1211.05
947.4587	2181.0507	2103.55	1217.7
947.5934	2182.5513	2094.55	1208.35
947.7281	2184.0512	2102.65	1215
947.8628	2185.5504	2092.25	1203.4
947.9974	2187.0488	2084.9	1200.15
948.132	2188.5465	2082	1197.85
948.2666	2190.0435	2078.05	1192.15
948.4012	2191.5397	2077.6	1190.1
948.5357	2193.0353	2066	1177.35
948.6702	2194.5301	2074	1185.35
948.8047	2196.0241	2072.25	1180.75
948.9392	2197.5175	2066.4	1172.8
949.0736	2199.0101	2068.45	1173.25
949.208	2200.502	2061.5	1173.85
949.3424	2201.9931	2054.65	1169.7
949.4767	2203.4835	2045.5	1160.65
949.611	2204.9733	2058.7	1157.05
949.7453	2206.4622	2036.55	1152.85
949.8796	2207.9505	2029.5	1141.5
950.0138	2209.438	2029	1147.85
950.148	2210.9248	2026.05	1142.3
950.2822	2212.4109	2028.25	1141.25
950.4164	2213.8962	2025.5	1133.4
950.5505	2215.3809	2025.45	1132.55
950.6846	2216.8648	2016.3	1123.7
950.8186	2218.3479	2015.95	1119.7
950.9527	2219.8304	2020.75	1125.8
951.0867	2221.3121	2012.65	1115.7
951.2207	2222.7931	2015.25	1124.5
951.3546	2224.2733	2004.45	1112.75
951.4886	2225.7529	1984.7	1097
951.6225	2227.2317	1983.65	1094.2
951.7563	2228.7098	1980	1093.6
951.8902	2230.1872	1975.75	1091.8
952.024	2231.6638	1986.85	1100.95
952.1578	2233.1397	1972.35	1082.65
952.2916	2234.6149	1975.25	1089.15
952.4253	2236.0894	1971.3	1083.6
952.559	2237.5632	1982.25	1085.1
952.6927	2239.0362	1962.4	1072.65
952.8263	2240.5085	1967.9	1080.95
952.9599	2241.9801	1955.35	1065.55
953.0935	2243.4509	1955	1065.5
953.2271	2244.921	1961	1070.8
953.3606	2246.3904	1951.1	1056.65
953.4941	2247.8591	1944.85	1054.3
953.6276	2249.3271	1945.9	1056.8
953.7611	2250.7943	1934.35	1042.85
953.8945	2252.2608	1935	1046.6
954.0279	2253.7266	1933.1	1043.1
954.1612	2255.1917	1930.35	1042.6
954.2946	2256.656	1921.15	1032.95
954.4279	2258.1197	1904.35	1019.05
954.5612	2259.5826	1905.25	1018.35
954.6944	2261.0447	1911.85	1020.05
954.8276	2262.5062	1917.8	1025.15
954.9608	2263.9669	1917.7	1023.85
955.094	2265.4269	1900.95	1011.55
955.2271	2266.8862	1911.45	1023.85
955.3602	2268.3448	1907.35	1020.35
955.4933	2269.8026	1886.45	1000.4
955.6264	2271.2598	1888.65	1002.15
955.7594	2272.7162	1898.25	1009.8
955.8924	2274.1719	1893.95	1004.6
956.0253	2275.6268	1892.4	1001.8
956.1583	2277.0811	1893.2	1001.7
956.2912	2278.5346	1885.95	998.75
956.4241	2279.9874	1889.75	1003.75
956.5569	2281.4395	1885.3	1000.2
956.6897	2282.8908	1879.35	984.95
956.8225	2284.3414	1881.3	990.95
956.9553	2285.7914	1870.95	982.75
957.088	2287.2406	1873.95	981.9
957.2207	2288.689	1870.55	979.1
957.3534	2290.1368	1877.4	982.75
957.486	2291.5838	1864.15	968.25
957.6186	2293.0302	1869.8	976.05
957.7512	2294.4758	1856.65	966.05
957.8838	2295.9206	1865.3	973.1
958.0163	2297.3648	1863.8	973.85
958.1488	2298.8082	1846.95	958.55
958.2813	2300.251	1854.25	966.45
958.4137	2301.693	1852.55	958.95
958.5461	2303.1343	1850.9	960.9
958.6785	2304.5748	1852.15	964.45
958.8108	2306.0147	1834.6	947.1
958.9432	2307.4538	1846.75	959.7
959.0754	2308.8922	1836.35	953.35
959.2077	2310.3299	1830.3	942.85
959.3399	2311.7669	1835.85	949.9
959.4721	2313.2031	1822.85	933.55
959.6043	2314.6387	1827.55	936.3
959.7365	2316.0735	1817	927.05
959.8686	2317.5076	1820.25	929.05
960.0006	2318.941	1813.8	924.95
960.1327	2320.3737	1822.25	930.6
960.2647	2321.8056	1819.2	923.7
960.3967	2323.2369	1815.75	923.85
960.5287	2324.6674	1811.55	920
960.6606	2326.0972	1805.05	914.85
960.7925	2327.5263	1804.55	915.4
960.9244	2328.9547	1804.2	911.55
961.0562	2330.3823	1803.45	909.8
961.1881	2331.8092	1805.15	911.15
961.3198	2333.2355	1791.45	898.4
961.4516	2334.661	1794	901.55
961.5833	2336.0858	1791.85	900.1
961.715	2337.5098	1790.45	900.05
961.8467	2338.9332	1781.95	891.45
961.9783	2340.3558	1789.35	899.1
962.1099	2341.7778	1781.15	892.45
962.2415	2343.199	1773.4	883.25
962.373	2344.6195	1770.75	881.5
962.5045	2346.0393	1776.15	888.25
962.636	2347.4583	1776.6	886.5
962.7675	2348.8767	1782.35	890.5
962.8989	2350.2943	1775.4	883.15
963.0303	2351.7113	1770.3	876.75
963.1617	2353.1275	1776.55	882.8
963.293	2354.543	1778.9	876
963.4243	2355.9578	1765.65	874.6
963.5556	2357.3718	1757.85	870.45
963.6868	2358.7852	1764.05	873.2
963.818	2360.1978	1763.85	877.15
963.9492	2361.6098	1754.1	863.8
964.0803	2363.021	1759.75	865.2
964.2114	2364.4315	1747.65	858
964.3425	2365.8413	1758.3	866.85
964.4736	2367.2504	1749.35	860.2
964.6046	2368.6587	1747	857.65
964.7356	2370.0664	1747.95	858.4
964.8666	2371.4733	1737.3	845.65
964.9975	2372.8795	1740.75	850.1
965.1284	2374.285	1729.25	840.25
965.2593	2375.6899	1721.7	830.1
965.3901	2377.0939	1731.15	841.6
965.5209	2378.4973	1723.05	834.3
965.6517	2379.9	1729.35	838.1
965.7825	2381.3019	1729	840.25
965.9132	2382.7032	1714.45	826.9
966.0439	2384.1037	1712.3	826.35
966.1745	2385.5035	1711.75	824.5
966.3051	2386.9027	1708.5	822.7
966.4357	2388.3011	1700.6	807.95
966.5663	2389.6987	1712.6	823.3
966.6968	2391.0957	1703	814.3
966.8273	2392.492	1698.05	810.3
966.9578	2393.8876	1690.1	803.05
967.0882	2395.2824	1692.9	804.35
967.2186	2396.6765	1689.75	801.8
967.349	2398.07	1688.7	798.5
967.4793	2399.4627	1683.7	794.7
967.6097	2400.8547	1686.15	794.65
967.7399	2402.246	1682.6	786.55
967.8702	2403.6366	1673.55	784.05
968.0004	2405.0265	1683.15	795.2
968.1306	2406.4156	1678.5	787.15
968.2607	2407.8041	1666.15	775.8
968.3909	2409.1918	1666.25	772.45
968.521	2410.5789	1673.1	782.15
968.651	2411.9652	1659.8	767.5
968.781	2413.3508	1666.8	775.2
968.911	2414.7358	1656.75	766.8
969.041	2416.12	1653.95	765.05
969.1709	2417.5035	1656.2	766.9
969.3008	2418.8863	1661.9	773
969.4307	2420.2684	1651.35	762.2
969.5606	2421.6497	1651.5	759.2
969.6904	2423.0304	1649.4	757.35
969.8201	2424.4104	1641.55	754
969.9499	2425.7896	1643.75	748.6
970.0796	2427.1682	1637.85	748.95
970.2093	2428.546	1644.35	754.05
970.3389	2429.9232	1639.35	748.85
970.4685	2431.2996	1636.6	745.4
970.5981	2432.6753	1639	749.45
970.7277	2434.0503	1636.55	746.8
970.8572	2435.4246	1629.75	742.75
970.9867	2436.7982	1633.3	742.8
971.1161	2438.1711	1630.8	740.45
971.2456	2439.5433	1633.65	741.55
971.375	2440.9148	1626.55	730.85
971.5043	2442.2856	1619	729.65
971.6336	2443.6557	1620.6	730.15
971.7629	2445.025	1610.55	721.35
971.8922	2446.3937	1610.75	720.4
972.0214	2447.7617	1617.1	725.35
972.1506	2449.1289	1606.7	716.95
972.2798	2450.4955	1613.85	720.55
972.4089	2451.8613	1605.6	717.4
972.538	2453.2265	1594.9	705.4
972.6671	2454.5909	1596.65	707.25
972.7961	2455.9546	1594.1	704.35
972.9251	2457.3177	1591.65	703.5
973.0541	2458.68	1591.25	700.05
973.1831	2460.0416	1598.3	707.85
973.312	2461.4025	1592.75	700.55
973.4408	2462.7627	1603.8	704.25
973.5697	2464.1222	1594.2	708.55
973.6985	2465.4811	1594.25	704.5
973.8273	2466.8392	1583.6	697.2
973.956	2468.1966	1580.1	689.75
974.0847	2469.5533	1587.35	693.65
974.2134	2470.9093	1592	700.8
974.3421	2472.2645	1578.3	687.05
974.4707	2473.6191	1586.35	697.35
974.5993	2474.973	1581.7	689.15
974.7278	2476.3262	1581.6	692.25
974.8563	2477.6787	1575.1	685.1
974.9848	2479.0305	1573.6	684.65
975.1132	2480.3816	1564.85	675.9
975.2417	2481.7319	1571.05	680.4
975.37	2483.0816	1573.5	683.1
975.4984	2484.4306	1572.6	683.35
975.6267	2485.7789	1560.15	673.6
975.755	2487.1264	1562.5	675.2
975.8833	2488.4733	1556.6	669.45
976.0115	2489.8195	1571.85	665.05
976.1397	2491.165	1552.65	660.4
976.2678	2492.5097	1556	667.75
976.3959	2493.8538	1550.2	662.9
976.524	2495.1972	1550.25	661.4
976.6521	2496.5398	1556.75	665.85
976.7801	2497.8818	1548.75	657.45
976.9081	2499.2231	1542	650.2
977.036	2500.5637	1547.35	653.45
977.164	2501.9035	1542.2	649.25
977.2918	2503.2427	1545.95	652.35
977.4197	2504.5812	1539	649.75
977.5475	2505.919	1544.15	652
977.6753	2507.256	1537.7	648
977.8031	2508.5924	1533.55	644.15
977.9308	2509.9281	1533.15	636.05
978.0585	2511.2631	1530.15	640.15
978.1861	2512.5974	1525.55	636.95
978.3137	2513.9309	1533	645.25
978.4413	2515.2638	1557.5	642.7
978.5689	2516.596	1523.05	632.2
978.6964	2517.9275	1520.55	631.45
978.8239	2519.2583	1516.65	626.35
978.9513	2520.5884	1517.05	624.95
979.0788	2521.9178	1519.5	628.4
979.2062	2523.2465	1515.05	628.1
979.3335	2524.5745	1511.8	625
979.4608	2525.9018	1505.6	616.15
979.5881	2527.2284	1507.3	618.75
979.7154	2528.5543	1507.05	619.75
979.8426	2529.8796	1506.6	614.25
979.9698	2531.2041	1513.95	625.85
980.0969	2532.5279	1512.3	625.4
980.224	2533.851	1512.25	626.35
980.3511	2535.1735	1502.6	614.25
980.4781	2536.4952	1504.35	616.35
980.6052	2537.8163	1508.25	617.3
980.7321	2539.1366	1512.95	621.5
980.8591	2540.4562	1503.35	612.1
980.986	2541.7752	1502.7	613.8
981.1129	2543.0935	1502.3	612.3
981.2397	2544.411	1506.75	617.15
981.3665	2545.7279	1491.8	602.75
981.4933	2547.0441	1491.75	601.05
981.62	2548.3596	1501.25	608.55
981.7467	2549.6744	1501.75	611.65
981.8734	2550.9885	1509.8	611.25
982.0001	2552.3019	1499.1	607.65
982.1267	2553.6146	1487.5	597.15
982.2532	2554.9266	1488.2	597.95
982.3798	2556.2379	1483.95	593.65
982.5063	2557.5485	1477	591.15
982.6327	2558.8585	1492.6	595.9
982.7592	2560.1677	1485.8	590.45
982.8856	2561.4762	1488.4	597.55
983.0119	2562.7841	1490.35	598.5
983.1383	2564.0913	1483.8	598
983.2646	2565.3977	1485.05	596.85
983.3908	2566.7035	1480.1	590.7
983.517	2568.0086	1485.05	594.6
983.6432	2569.313	1476.4	585.15
983.7694	2570.6167	1484.65	591.3
983.8955	2571.9197	1478.65	589.15
984.0216	2573.222	1484.3	591.35
984.1476	2574.5236	1477.5	586.75
984.2737	2575.8246	1476.95	585.55
984.3996	2577.1248	1477.05	584.25
984.5256	2578.4244	1479.5	590.65
984.6515	2579.7232	1475.6	587.85
984.7774	2581.0214	1504.5	584.85
984.9032	2582.3189	1487.2	596.85
985.029	2583.6157	1476.9	585.3
985.1548	2584.9118	1477.35	587.95
985.2806	2586.2072	1480.6	591.05
985.4063	2587.5019	1470.4	582.5
985.5319	2588.7959	1477.2	587.1
985.6576	2590.0893	1471.35	581.5
985.7832	2591.3819	1475.4	589.5
985.9087	2592.6739	1477.05	589.45
986.0343	2593.9652	1477.9	587.85
986.1597	2595.2557	1467.9	578.95
986.2852	2596.5456	1480.25	588.85
986.4106	2597.8348	1469.85	583.95
986.536	2599.1234	1471.9	583.35
986.6614	2600.4112	1477.6	589.05
986.7867	2601.6983	1473.7	583.65
986.912	2602.9848	1476.45	589.05
987.0372	2604.2705	1484.9	590.1
987.1624	2605.5556	1474	585.55
987.2876	2606.84	1470.95	582.85
987.4128	2608.1237	1469	579.4
987.5379	2609.4067	1462.7	575.1
987.6629	2610.689	1466.4	569.7
987.788	2611.9707	1459.55	567.85
987.913	2613.2516	1467.15	577.3
988.0379	2614.5319	1449.45	563.2
988.1629	2615.8115	1457.75	570.05
988.2878	2617.0903	1453.8	566.4
988.4126	2618.3685	1447.6	558.9
988.5375	2619.6461	1446.55	557.7
988.6622	2620.9229	1445.85	559.05
988.787	2622.199	1442.9	554.55
988.9117	2623.4745	1439.6	552.6
989.0364	2624.7493	1446.05	561.4
989.161	2626.0234	1440.4	556.7
989.2857	2627.2968	1446.6	558.8
989.4102	2628.5695	1437.7	549.6
989.5348	2629.8415	1437.55	551.8
989.6593	2631.1128	1442.45	554.3
989.7837	2632.3835	1427.7	540.35
989.9082	2633.6535	1433.75	546.95
990.0326	2634.9228	1438.9	551.8
990.1569	2636.1914	1429.1	544.05
990.2812	2637.4593	1434.8	544.1
990.4055	2638.7265	1425.75	540.55
990.5298	2639.9931	1426.3	539.25
990.654	2641.259	1425.8	537.95
990.7782	2642.5242	1427.75	540.55
990.9023	2643.7887	1426.45	539.6
991.0264	2645.0525	1424.35	536.45
991.1505	2646.3156	1419.7	533.45
991.2745	2647.5781	1420.2	533.65
991.3985	2648.8398	1415.2	528.65
991.5225	2650.1009	1449.55	526.85
991.6464	2651.3613	1413.75	525.5
991.7703	2652.6211	1410.75	524.85
991.8942	2653.8801	1412.6	528.25
992.018	2655.1385	1409.4	519.75
992.1418	2656.3961	1398.25	509.85
992.2655	2657.6531	1420.35	533.75
992.3892	2658.9094	1415.1	527.25
992.5129	2660.1651	1408.3	524.85
992.6366	2661.42	1418.05	532
992.7602	2662.6743	1410.65	523.9
992.8837	2663.9279	1416.25	529.8
993.0073	2665.1808	1412.35	526.15
993.1307	2666.433	1415.45	528
993.2542	2667.6846	1418.35	532.3
993.3776	2668.9354	1429.25	539.9
993.501	2670.1856	1423.9	535.8
993.6244	2671.4351	1427.35	541.3
993.7477	2672.6839	1436.7	551.15
993.8709	2673.9321	1427.2	540.8
993.9942	2675.1795	1434.05	547.8
994.1174	2676.4263	1428.4	542.85
994.2405	2677.6724	1438.8	555.4
994.3637	2678.9179	1438.75	553.15
994.4868	2680.1626	1430.65	544.9
994.6098	2681.4067	1428.85	541.9
994.7328	2682.6501	1433.1	547.05
994.8558	2683.8928	1423.75	536.5
994.9788	2685.1348	1424.05	537.5
995.1017	2686.3761	1411.3	525.4
995.2245	2687.6168	1416.7	530.45
995.3474	2688.8568	1421	535.1
995.4702	2690.0961	1408.25	521.9
995.5929	2691.3348	1409.25	522.05
995.7156	2692.5727	1405.4	521.6
995.8383	2693.81	1399.85	514.1
995.961	2695.0466	1402.35	517.65
996.0836	2696.2826	1403.7	517.15
996.2062	2697.5178	1409.3	520.75
996.3287	2698.7524	1402.15	516.6
996.4512	2699.9863	1412.85	524.1
996.5737	2701.2195	1414.95	529.1
996.6961	2702.452	1418.2	530.95
996.8185	2703.6839	1422.45	536.05
996.9408	2704.9151	1418.75	531.6
997.0631	2706.1456	1428.2	543.3
997.1854	2707.3755	1431.6	544.2
997.3077	2708.6046	1446.45	557.25
997.4299	2709.8331	1445.15	558.3
997.552	2711.0609	1443.1	556.35
997.6742	2712.2881	1455.3	570.05
997.7963	2713.5145	1462.65	576.75
997.9183	2714.7403	1466.05	581.65
998.0403	2715.9654	1481.55	596.35
998.1623	2717.1899	1497.55	596.9
998.2842	2718.4136	1500.4	615.15
998.4062	2719.6367	1511.05	626.6
998.528	2720.8591	1521.4	626.8
998.6498	2722.0809	1529.7	645.8
998.7716	2723.3019	1547.1	660.2
998.8934	2724.5223	1548.75	661.6
999.0151	2725.7421	1556.35	670.7
999.1368	2726.9611	1557.85	670.95
999.2584	2728.1795	1556.55	667.2
999.38	2729.3972	1544.35	659.7
999.5016	2730.6142	1542.45	648.95
999.6231	2731.8306	1521.45	633.85
999.7446	2733.0462	1499.2	611.3
999.8661	2734.2612	1500.7	610.65
999.9875	2735.4756	1482.5	595.7
1000.1089	2736.6892	1460.65	575.55
1000.2302	2737.9022	1450.15	565.85
1000.3515	2739.1145	1440.65	554.1
1000.4728	2740.3262	1428.9	535.15
1000.594	2741.5372	1421.35	537.7
1000.7152	2742.7475	1405.45	520.7
1000.8363	2743.9571	1401.55	514.75
1000.9575	2745.1661	1396.35	504.25
1001.0785	2746.3744	1384.55	498.6
1001.1996	2747.582	1376.1	491.3
1001.3206	2748.7889	1367.05	480.6
1001.4415	2749.9952	1365.8	479.5
1001.5625	2751.2008	1361.6	476.1
1001.6833	2752.4057	1356.95	467.6
1001.8042	2753.61	1348.3	463.2
1001.925	2754.8136	1351.55	463.95
1002.0458	2756.0165	1346.15	459.75
1002.1665	2757.2188	1342.85	459.35
1002.2872	2758.4204	1348.2	463.4
1002.4078	2759.6213	1350.8	463.3
1002.5285	2760.8215	1353.25	464
1002.649	2762.0211	1352.35	464.65
1002.7696	2763.22	1354.2	465.6
1002.8901	2764.4182	1337.1	450.55
1003.0106	2765.6158	1343.1	460.4
1003.131	2766.8127	1331.9	445.65
1003.2514	2768.009	1332.7	448.1
1003.3717	2769.2045	1333.85	449.25
1003.492	2770.3994	1334.4	448.25
1003.6123	2771.5936	1324.8	440.9
1003.7325	2772.7872	1325.5	442.5
1003.8527	2773.9801	1315.95	429.85
1003.9729	2775.1723	1332.9	430.4
1004.093	2776.3639	1320.2	437.35
1004.2131	2777.5548	1321.75	436.15
1004.3331	2778.745	1318.2	432.1
1004.4531	2779.9346	1319.4	433.75
1004.5731	2781.1235	1320.25	435.65
1004.693	2782.3117	1317.35	434.35
1004.8129	2783.4992	1315.2	431.6
1004.9328	2784.6861	1325.6	441.65
1005.0526	2785.8723	1332.95	449.55
1005.1723	2787.0579	1330.95	446.9
1005.2921	2788.2428	1330.45	447.6
1005.4118	2789.427	1336.15	452.6
1005.5314	2790.6106	1339.15	454.65
1005.651	2791.7935	1351.55	467.65
1005.7706	2792.9757	1353.45	471.95
1005.8902	2794.1573	1367	481.7
1006.0097	2795.3382	1369.15	486.3
1006.1291	2796.5184	1366.05	485.65
1006.2485	2797.698	1383.2	497.65
1006.3679	2798.8769	1393.6	511.9
1006.4873	2800.0551	1399.35	514.5
1006.6066	2801.2327	1411.95	525.7
1006.7258	2802.4096	1417.8	535.9
1006.8451	2803.5859	1438.15	552.85
1006.9642	2804.7615	1446.25	563.95
1007.0834	2805.9364	1464.45	580.85
1007.2025	2807.1106	1492.05	608.2
1007.3216	2808.2842	1509.15	624
1007.4406	2809.4572	1532.45	650
1007.5596	2810.6294	1561.45	677.4
1007.6785	2811.801	1600.55	719.55
1007.7975	2812.972	1625.3	741.85
1007.9163	2814.1423	1656.25	773.6
1008.0352	2815.3119	1694	811.35
1008.154	2816.4808	1744.6	862.1
1008.2727	2817.6491	1790.9	907.8
1008.3914	2818.8167	1836.6	954.2
1008.5101	2819.9837	1899.15	1010.05
1008.6288	2821.15	1960.35	1079
1008.7474	2822.3157	2000	1119.35
1008.8659	2823.4807	2072.7	1189.65
1008.9844	2824.645	2130.95	1246.95
1009.1029	2825.8086	2174.25	1290.8
1009.2214	2826.9716	2231.35	1348.8
1009.3398	2828.134	2295	1412.2
1009.4581	2829.2957	2333.3	1450.25
1009.5764	2830.4567	2365.25	1482.85
1009.6947	2831.617	2398.15	1514.25
1009.813	2832.7767	2401.3	1520.25
1009.9312	2833.9358	2412.15	1532.05
1010.0493	2835.0941	2400.7	1515.95
1010.1675	2836.2519	2378.9	1496.5
1010.2855	2837.4089	2360.9	1476.75
1010.4036	2838.5653	2342.05	1459.7
1010.5216	2839.7211	2344.15	1461.05
1010.6396	2840.8761	2328.5	1445.45
1010.7575	2842.0306	2329.5	1446.5
1010.8754	2843.1843	2347.05	1465.1
1010.9932	2844.3374	2370.95	1487
1011.111	2845.4899	2413.45	1529.9
1011.2288	2846.6417	2464.5	1582.55
1011.3465	2847.7928	2512.5	1630
1011.4642	2848.9433	2555.95	1673.75
1011.5818	2850.0931	2612.65	1730.9
1011.6995	2851.2422	2681	1796.4
1011.817	2852.3907	2735.4	1850
1011.9345	2853.5385	2786.05	1901.7
1012.052	2854.6857	2852.5	1940.65
1012.1695	2855.8323	2880.35	1998.15
1012.2869	2856.9781	2917.5	2032.75
1012.4042	2858.1233	2972.75	2090.1
1012.5216	2859.2679	3017	2135.75
1012.6389	2860.4118	3055.9	2173.35
1012.7561	2861.555	3114.05	2226.45
1012.8733	2862.6976	3153.9	2268.5
1012.9905	2863.8395	3205.2	2324.2
1013.1076	2864.9808	3219.15	2335.7
1013.2247	2866.1214	3229.15	2345.75
1013.3417	2867.2614	3251.95	2367.1
1013.4587	2868.4007	3275.35	2389
1013.5757	2869.5393	3294.15	2408.6
1013.6926	2870.6773	3312.25	2427.1
1013.8095	2871.8146	3318.85	2432.85
1013.9263	2872.9513	3309.15	2422.45
1014.0431	2874.0874	3300.6	2417.3
1014.1599	2875.2227	3287.85	2403.1
1014.2766	2876.3574	3275.8	2392.75
1014.3933	2877.4915	3251.2	2368.75
1014.51	2878.6249	3227.6	2347.15
1014.6266	2879.7577	3196.4	2312.65
1014.7431	2880.8898	3203.25	2310.25
1014.8596	2882.0212	3165.25	2283.45
1014.9761	2883.152	3163.85	2281.6
1015.0925	2884.2821	3156	2276.05
1015.2089	2885.4116	3158.25	2275.95
1015.3253	2886.5405	3153.55	2270.4
1015.4416	2887.6686	3160.5	2275.95
1015.5579	2888.7962	3149.2	2269.05
1015.6741	2889.923	3171.85	2290.4
1015.7903	2891.0493	3193.55	2310.7
1015.9065	2892.1748	3183.95	2301.95
1016.0226	2893.2997	3203.95	2321
1016.1387	2894.424	3197.65	2317.55
1016.2547	2895.5476	3231.55	2347.65
1016.3707	2896.6706	3241.85	2362.45
1016.4866	2897.7929	3268.95	2387.8
1016.6025	2898.9145	3274.85	2392.3
1016.7184	2900.0355	3304.35	2421.7
1016.8342	2901.1559	3345.95	2463.35
1016.95	2902.2756	3368.1	2482.6
1017.0658	2903.3946	3389.35	2510.1
1017.1815	2904.513	3419.75	2535.9
1017.2971	2905.6308	3438.65	2557.7
1017.4127	2906.7479	3451	2568.5
1017.5283	2907.8643	3485.75	2604.9
1017.6439	2908.9801	3504.2	2622.5
1017.7594	2910.0953	3510.55	2631.85
1017.8748	2911.2098	3516.85	2631.9
1017.9902	2912.3236	3513.5	2624.9
1018.1056	2913.4368	3486.9	2602.7
1018.2209	2914.5494	3473.35	2589.75
1018.3362	2915.6613	3448.85	2562.75
1018.4515	2916.7725	3419.5	2535.8
1018.5667	2917.8831	3382.05	2498.6
1018.6819	2918.9931	3355.75	2470.95
1018.797	2920.1024	3322.8	2439.8
1018.9121	2921.211	3309.5	2426.3
1019.0271	2922.319	3301.1	2421.65
1019.1421	2923.4264	3291.9	2409.4
1019.2571	2924.5331	3285.55	2403.9
1019.372	2925.6391	3278.1	2397.1
1019.4869	2926.7445	3275.75	2395.8
1019.6017	2927.8493	3274.9	2394.05
1019.7165	2928.9534	3279.7	2400.75
1019.8313	2930.0569	3306.45	2420.8
1019.946	2931.1597	3290.2	2407.95
1020.0606	2932.2619	3292.65	2408.7
1020.1753	2933.3634	3308.95	2429.1
1020.2899	2934.4643	3320.4	2433.4
1020.4044	2935.5645	3301.75	2413.5
1020.5189	2936.6641	3281.3	2395.1
1020.6334	2937.763	3265	2384.1
1020.7478	2938.8613	3225	2341.8
1020.8622	2939.959	3191.55	2304.4
1020.9765	2941.056	3137.95	2258.45
1021.0908	2942.1523	3069.85	2186.2
1021.2051	2943.248	2987	2105.75
1021.3193	2944.3431	2908	2026.5
1021.4334	2945.4375	2836	1954.1
1021.5476	2946.5313	2739.75	1858.1
1021.6617	2947.6244	2643.75	1762.65
1021.7757	2948.7169	2558.1	1675.05
1021.8897	2949.8087	2463.9	1584.45
1022.0037	2950.8999	2382.45	1501.25
1022.1176	2951.9904	2304.55	1425.65
1022.2315	2953.0803	2241.7	1361.5
1022.3453	2954.1696	2175.9	1293.95
1022.4591	2955.2582	2139.4	1258.75
1022.5728	2956.3462	2089.9	1208.9
1022.6865	2957.4335	2055.9	1172.25
1022.8002	2958.5202	2019.2	1134.05
1022.9138	2959.6062	1996.25	1115.3
1023.0274	2960.6916	1976.5	1096.05
1023.141	2961.7764	1961.95	1078.7
1023.2545	2962.8605	1941.75	1059.8
1023.3679	2963.9439	1936.1	1056.15
1023.4813	2965.0267	1924.45	1041.1
1023.5947	2966.1089	1927.25	1025
1023.708	2967.1905	1903.75	1024.65
1023.8213	2968.2714	1896.65	1017.55
1023.9346	2969.3516	1903.05	1023.6
1024.0478	2970.4312	1910.95	1022.65
1024.1609	2971.5102	1899.4	1019.8
1024.274	2972.5885	1909.1	1028.5
1024.3871	2973.6662	1917.35	1031.3
1024.5002	2974.7432	1920.3	1040.85
1024.6132	2975.8196	1904.65	1022.85
1024.7261	2976.8954	1905.05	1026
1024.839	2977.9705	1897.75	1017.45
1024.9519	2979.045	1893.8	1012.7
1025.0647	2980.1188	1868.5	988.25
1025.1775	2981.192	1857.6	978.85
1025.2902	2982.2645	1857.95	977.05
1025.4029	2983.3364	1825.75	944.45
1025.5156	2984.4077	1799.8	920.95
1025.6282	2985.4783	1785.4	897.8
1025.7407	2986.5483	1754.4	874.4
1025.8532	2987.6177	1719	838.95
1025.9657	2988.6864	1691.95	809.9
1026.0782	2989.7545	1656.9	775.35
1026.1906	2990.8219	1632.45	753.05
1026.3029	2991.8887	1601.8	717.7
1026.4152	2992.9548	1567.6	684.95
1026.5275	2994.0204	1539.15	662.1
1026.6397	2995.0852	1504.15	625.95
1026.7519	2996.1495	1485.6	603.9
1026.864	2997.2131	1457.5	577.4
1026.9761	2998.276	1432.7	551.25
1027.0882	2999.3383	1416.05	535
1027.2002	3000.4	1402.8	519.35
1027.3122	3001.4611	1380.8	498.65
1027.4241	3002.5215	1364.95	484.75
1027.536	3003.5812	1346.1	467
1027.6478	3004.6404	1337.45	455.95
1027.7596	3005.6989	1321.35	439.9
1027.8714	3006.7567	1308.1	428.35
1027.9831	3007.8139	1327.1	415.4
1028.0947	3008.8705	1286.5	406.15
1028.2064	3009.9264	1282.85	399.65
1028.3179	3010.9818	1274.75	393.1
1028.4295	3012.0364	1270.7	389.7
1028.541	3013.0905	1261.65	381.65
1028.6524	3014.1439	1259.6	378
1028.7638	3015.1966	1250.3	369.85
1028.8752	3016.2487	1246.7	366.6
1028.9865	3017.3002	1250.05	365.8
1029.0978	3018.3511	1239.6	360.85
1029.209	3019.4013	1234.6	352.95
1029.3202	3020.4509	1228.35	349.25
1029.4314	3021.4998	1226.15	344.3
1029.5425	3022.5481	1228.9	347.7
1029.6535	3023.5958	1226.85	345.3
1029.7645	3024.6428	1217.6	335.45
1029.8755	3025.6892	1217.45	339.6
1029.9864	3026.735	1222.4	338.8
1030.0973	3027.7802	1223.35	342.75
1030.2082	3028.8247	1220.05	337.75
1030.319	3029.8685	1220.75	341.85
1030.4297	3030.9118	1220.15	338.95
1030.5404	3031.9544	1218.6	338.4
1030.6511	3032.9963	1227.65	345.85
1030.7617	3034.0376	1221	339.1
1030.8723	3035.0783	1229.6	347.95
1030.9829	3036.1184	1230.15	348.4
1031.0934	3037.1578	1226.75	346.55
1031.2038	3038.1966	1231.4	348.5
1031.3142	3039.2348	1225.65	346.8
1031.4246	3040.2723	1238.3	348.65
1031.5349	3041.3092	1232.35	353.25
1031.6452	3042.3455	1235.7	354.25
1031.7554	3043.3811	1233.5	351.4
1031.8656	3044.4161	1235.25	352.4
1031.9758	3045.4505	1226.75	347.15
1032.0859	3046.4842	1234.45	351.4
1032.1959	3047.5173	1228.35	349.25
1032.3059	3048.5498	1222.8	340.7
1032.4159	3049.5816	1221.45	342.95
1032.5258	3050.6128	1220.6	340.55
1032.6357	3051.6434	1216	333.55
1032.7455	3052.6734	1216.3	335.6
1032.8553	3053.7027	1211.7	333.5
1032.9651	3054.7314	1209.35	329.9
1033.0748	3055.7594	1214.3	334.5
1033.1845	3056.7868	1216	334.9
1033.2941	3057.8136	1203.65	324.7
1033.4037	3058.8398	1213.55	334.2
1033.5132	3059.8653	1203.95	325.05
1033.6227	3060.8902	1202.05	321.8
1033.7321	3061.9145	1195.3	315.45
1033.8415	3062.9381	1197.25	317.95
1033.9509	3063.9612	1212.85	318.2
1034.0602	3064.9835	1195.45	316.25
1034.1694	3066.0053	1195.1	313.9
1034.2787	3067.0264	1187.3	309.05
1034.3878	3068.0469	1180.05	299.25
1034.497	3069.0668	1179.65	298.3
1034.6061	3070.086	1176.1	295.6
1034.7151	3071.1046	1171.75	290.45
1034.8241	3072.1226	1172.65	290.9
1034.9331	3073.1399	1165.5	286.2
1035.042	3074.1567	1157.4	276.25
1035.1508	3075.1727	1157.95	277.2
1035.2597	3076.1882	1145.55	267.45
1035.3684	3077.203	1148.6	269.2
1035.4772	3078.2173	1137.85	257.75
1035.5859	3079.2308	1129.25	246.3
1035.6945	3080.2438	1124.55	243.85
1035.8031	3081.2561	1124.85	245.35
1035.9117	3082.2678	1107.9	229.4
1036.0202	3083.2789	1110.4	231.2
1036.1286	3084.2893	1102.05	222.5
1036.2371	3085.2991	1099.8	220.45
1036.3454	3086.3083	1094.7	211.65
1036.4538	3087.3169	1088.95	208.45
1036.562	3088.3248	1083.4	201.45
1036.6703	3089.3321	1085.6	205.6
1036.7785	3090.3388	1076.45	196.85
1036.8866	3091.3449	1070.25	191.65
1036.9948	3092.3503	1072.25	191.6
1037.1028	3093.3551	1065.7	188.2
1037.2108	3094.3593	1060.25	181.9
1037.3188	3095.3629	1060.3	181.2
1037.4267	3096.3658	1058.7	177.85
1037.5346	3097.3681	1051.8	171.5
1037.6425	3098.3698	1054.9	173.75
1037.7503	3099.3708	1057.55	172.55
1037.858	3100.3713	1044.15	165.15
1037.9657	3101.3711	1045.9	165.9
1038.0734	3102.3702	1158.3	165.5
1038.181	3103.3688	1043.85	165.4
1038.2886	3104.3667	1035.85	156.65
1038.3961	3105.364	1035.8	156.85
1038.5036	3106.3607	1036.55	155.45
1038.611	3107.3568	1033.9	153.5
1038.7184	3108.3522	1029.25	148.8
1038.8257	3109.347	1027.8	147.15
1038.933	3110.3412	1028.6	147.1
1039.0403	3111.3348	1027.1	148.1
1039.1475	3112.3277	1026.7	147.3
1039.2547	3113.32	1023	145.1
1039.3618	3114.3117	1017.05	136.2
1039.4689	3115.3028	1015.35	135
1039.5759	3116.2932	1018.6	136.95
1039.6829	3117.2831	1020.85	135.85
1039.7898	3118.2723	1017	138
1039.8967	3119.2608	1016.9	137.4
1040.0035	3120.2488	1011.05	133.4
1040.1103	3121.2361	1007.35	128.4
1040.2171	3122.2229	1008.05	130.1
1040.3238	3123.209	1005.8	126.05
1040.4305	3124.1944	1002.75	124
1040.5371	3125.1793	1007.3	126.75
1040.6437	3126.1635	1001.2	122.1
1040.7502	3127.1471	1002.35	123.9
1040.8567	3128.1301	999.05	119.7
1040.9631	3129.1125	996.55	119.1
1041.0695	3130.0942	996.55	117
1041.1759	3131.0753	1005.95	116.95
1041.2822	3132.0558	1001.8	120.45
1041.3884	3133.0357	995.3	116.05
1041.4946	3134.015	991.75	111.6
1041.6008	3134.9936	993.1	111.15
1041.7069	3135.9716	1016.45	117.8
1041.813	3136.949	991.9	111.85
1041.919	3137.9258	1008.3	112.05
1042.025	3138.902	996.4	112.1
1042.1309	3139.8775	989.35	112.2
1042.2368	3140.8524	988.55	110.3
1042.3427	3141.8267	985.85	101.65
1042.4485	3142.8004	983.8	106.9
1042.5542	3143.7735	988.2	103.35
1042.6599	3144.7459	986.1	106.75
1042.7656	3145.7178	985.2	105
1042.8712	3146.689	981.25	104.65
1042.9768	3147.6596	984	101.9
1043.0823	3148.6295	982.4	101.15
1043.1878	3149.5989	974.2	96.45
1043.2932	3150.5676	975.8	94.9
1043.3986	3151.5357	976.85	98.95
1043.5039	3152.5032	977.65	100.65
1043.6092	3153.4701	972.7	94.75
1043.7145	3154.4364	976.55	94.45
1043.8197	3155.402	971.2	94.4
1043.9248	3156.367	971.5	91.05
1044.03	3157.3315	1007.35	95.55
1044.135	3158.2952	975.6	97
1044.24	3159.2584	970.85	89.55
1044.345	3160.221	972.95	92.8
1044.4499	3161.1829	973.5	93.7
1044.5548	3162.1442	971.05	93.8
1044.6596	3163.105	969.35	91.2
1044.7644	3164.065	963.7	85.1
1044.8692	3165.0245	970.95	89.6
1044.9739	3165.9834	971.65	95.9
1045.0785	3166.9416	964.85	85.55
1045.1831	3167.8993	966.4	90.3
1045.2877	3168.8563	967.75	86.35
1045.3922	3169.8127	966.1	88.55
1045.4966	3170.7684	963	84.85
1045.6011	3171.7236	966.05	85.25
1045.7054	3172.6782	965.05	86.4
1045.8098	3173.6321	966.1	88.2
1045.914	3174.5854	967.85	86.85
1046.0183	3175.5381	961.9	83.2
1046.1224	3176.4902	961.25	82.15
1046.2266	3177.4417	956.55	77.6
1046.3307	3178.3926	958.05	78.35
1046.4347	3179.3428	957.75	79.3
1046.5387	3180.2924	954.75	75.35
1046.6427	3181.2415	959.35	78.55
1046.7466	3182.1899	959.95	81.15
1046.8504	3183.1377	955.1	76.1
1046.9542	3184.0848	956.55	75.85
1047.058	3185.0314	952.5	73.45
1047.1617	3185.9773	956.25	77.65
1047.2654	3186.9227	952.1	73.9
1047.369	3187.8674	952.4	73.95
1047.4726	3188.8115	959.05	73.05
1047.5761	3189.755	952.6	75.6
1047.6796	3190.6979	952.2	71
1047.783	3191.6402	952.7	75.25
1047.8864	3192.5818	951	72.1
1047.9898	3193.5229	957.45	72.65
1048.0931	3194.4633	952.5	73.55
1048.1963	3195.4031	948.85	70.15
1048.2995	3196.3423	950.1	71.9
1048.4027	3197.2809	950.25	71.4
1048.5058	3198.2189	949.95	72.75
1048.6089	3199.1563	965.9	70.9
1048.7119	3200.0931	951.2	74.15
1048.8148	3201.0292	948.6	70.8
1048.9178	3201.9648	946.1	66
1049.0206	3202.8997	952.75	71.4
1049.1235	3203.834	947.1	69.25
1049.2262	3204.7677	948	69.2
1049.329	3205.7008	950.4	70.9
1049.4317	3206.6333	943.85	65.95
1049.5343	3207.5652	946.75	65.9
1049.6369	3208.4964	944.25	66.4
1049.7394	3209.4271	944.75	66.7
1049.8419	3210.3571	940.6	62.6
1049.9444	3211.2865	945.7	65.95
1050.0468	3212.2154	943.2	62.65
1050.1491	3213.1436	948.15	67.8
1050.2514	3214.0712	950.45	64.6
1050.3537	3214.9982	944.95	66.9
1050.4559	3215.9246	941.15	63.1
1050.5581	3216.8503	938.55	60
1050.6602	3217.7755	944.05	65.15
1050.7623	3218.7001	941.2	63.5
1050.8643	3219.624	940.45	59.7
1050.9663	3220.5473	938.45	60.25
1051.0682	3221.4701	940	59.4
1051.1701	3222.3922	942.3	63.3
1051.2719	3223.3137	938.1	59.7
1051.3737	3224.2346	935.85	56.65
1051.4754	3225.1549	938.45	59.55
1051.5771	3226.0746	937.75	58.35
1051.6788	3226.9937	937.4	58.2
1051.7804	3227.9121	933.3	55.25
1051.8819	3228.83	935.85	58.6
1051.9834	3229.7473	934.5	55.6
1052.0849	3230.6639	935.8	56.8
1052.1863	3231.5799	936.6	59.35
1052.2876	3232.4954	933.9	54.05
1052.3889	3233.4102	933.15	56.1
1052.4902	3234.3244	932.35	54
1052.5914	3235.238	936.95	59.3
1052.6926	3236.151	957.5	57.1
1052.7937	3237.0634	933.45	56.2
1052.8948	3237.9752	931.2	51.7
1052.9958	3238.8864	929.9	49.45
1053.0968	3239.797	930.5	51.3
1053.1977	3240.7069	932.2	52.9
1053.2986	3241.6163	931.7	52.65
1053.3994	3242.5251	930.6	53.5
1053.5002	3243.4332	930.65	54.6
1053.6009	3244.3408	928.85	49.7
1053.7016	3245.2477	929.5	52.4
1053.8022	3246.154	928.65	49.7
1053.9028	3247.0598	929.65	49.9
1054.0034	3247.9649	928.4	49.1
1054.1039	3248.8694	927.2	47.95
1054.2043	3249.7733	928.85	52.6
1054.3047	3250.6766	926.05	48.7
1054.4051	3251.5793	926.75	46.25
1054.5054	3252.4814	925.45	47.8
1054.6056	3253.3829	924.95	46.95
1054.7058	3254.2838	924.75	48.1
1054.806	3255.1841	923.7	45.3
1054.9061	3256.0838	922.1	43.2
1055.0061	3256.9829	922.65	43.95
1055.1062	3257.8814	925.45	46.15
1055.2061	3258.7792	925.7	46.35
1055.306	3259.6765	924.9	46
1055.4059	3260.5731	921.05	44.4
1055.5057	3261.4692	921.6	43.55
1055.6055	3262.3647	923.85	44.85
1055.7052	3263.2595	918.1	40.9
1055.8049	3264.1538	915.95	36.75
1055.9045	3265.0474	919.8	41.9
1056.0041	3265.9404	917.35	40.85
1056.1036	3266.8329	918.55	41.6
1056.2031	3267.7247	926	37.1
1056.3025	3268.616	915.05	39.35
1056.4019	3269.5066	913.95	37.25
1056.5013	3270.3966	915.3	34.8
1056.6005	3271.286	912.85	35.75
