Software Version:	3.9.2.0
Unit SN:	10000200
Spectrometer SN:	6960
Date:	3/8/2024 12:27:26 PM
Data Line Index:	25
Spectral Points:	2048
Integration time (ms):	125
Averages:	20
Delay (ms):	30000
Sequence Number:	1
Processing:	dark subtract
Laser Power (mW):	300
Laser Current (mA):	821
Laser Diode Temp (C):	25
Laser Case Temp (C):	26
System Temp (C):	25.9
Spectrometer Temp (C):	23.8
CCD Temp (C):	0.005
Secondary Temp (C):	20.003
Heatsink Temp (C):	21.158
CCDPCB Temp (C):	35.74
SecondaryPCB Temp (C):	29.815

Wavelength	RamanShift	Raw Counts	Dark Subtracted
787.061	30.1047	446.4	37
787.2016	32.3739	447.45	41.45
787.3422	34.6426	451.95	43.85
787.4828	36.9109	457.65	47
787.6235	39.1787	465.6	51.4
787.7642	41.4461	471.4	51.9
787.9049	43.7131	481.15	58.5
788.0456	45.9796	488.55	64.55
788.1863	48.2456	500.45	72.65
788.3271	50.5112	504.25	72.05
788.4679	52.7764	512.9	76.45
788.6087	55.0411	524.7	82.7
788.7496	57.3054	535.05	88.55
788.8904	59.5692	541.55	95.5
789.0313	61.8326	551.2	101.5
789.1722	64.0955	564.5	113.1
789.3132	66.3579	576.95	118.55
789.4541	68.6199	594.65	130.55
789.5951	70.8815	630.35	163.4
789.7361	73.1426	709.9	237.85
789.8771	75.4032	900.5	426.8
790.0181	77.6634	1385	907
790.1592	79.9231	2509.4	2022
790.3003	82.1824	4912.65	4410.65
790.4414	84.4412	9160.85	8630.6
790.5825	86.6995	14896.1	14331
790.7237	88.9574	20360.8	19766
790.8648	91.2148	24005.75	23394.2
791.006	93.4717	25569.4	24940.65
791.1472	95.7282	25708.9	25070.55
791.2885	97.9842	25327.45	24690.3
791.4297	100.2398	24486.15	23846.9
791.571	102.4949	23621.2	22979.55
791.7123	104.7495	22690.9	22042.55
791.8536	107.0036	21724.9	21080.7
791.9949	109.2573	20922.6	20274.5
792.1363	111.5105	20205.8	19553.55
792.2777	113.7632	19518.85	18867.5
792.4191	116.0154	19038.7	18373.8
792.5605	118.2672	18615.45	17961.95
792.7019	120.5185	18239.5	17579.2
792.8434	122.7693	17940.15	17279.35
792.9849	125.0197	17703.45	17038.4
793.1264	127.2696	17433.5	16765.35
793.2679	129.519	17224.05	16552.55
793.4094	131.7679	16921.2	16245.5
793.551	134.0163	16615.3	15940.3
793.6926	136.2642	16256.35	15574.5
793.8342	138.5117	15883.95	15189.85
793.9758	140.7587	15460.95	14775.3
794.1175	143.0052	15115.65	14427.3
794.2591	145.2512	14781.85	14098.3
794.4008	147.4967	14461.5	13771.35
794.5425	149.7417	14205.95	13513.15
794.6842	151.9863	14020.55	13324.7
794.826	154.2304	13895.1	13190.55
794.9677	156.4739	13737	13029.65
795.1095	158.717	13631.45	12924.25
795.2513	160.9596	13446.55	12737.55
795.3931	163.2017	13194.95	12482.85
795.535	165.4433	12906.75	12195.9
795.6768	167.6844	12631.8	11917.95
795.8187	169.925	12318.75	11601.75
795.9606	172.1651	11970.95	11252
796.1025	174.4047	11736.05	11012.85
796.2445	176.6439	11503.45	10780
796.3864	178.8825	11279.4	10552.35
796.5284	181.1206	11155.95	10420.65
796.6704	183.3582	11044.6	10304.45
796.8124	185.5954	10985.6	10247.75
796.9544	187.832	10914.4	10171.15
797.0965	190.0681	10879.35	10133.65
797.2386	192.3037	10847.55	10097.45
797.3806	194.5388	10879.45	10123.95
797.5228	196.7734	10900.05	10148.15
797.6649	199.0075	10939.6	10183.35
797.807	201.2411	11049.95	10294.85
797.9492	203.4742	11102.05	10343.5
798.0914	205.7068	11269	10507.95
798.2336	207.9389	11396.45	10631.7
798.3758	210.1704	11507.2	10745.4
798.518	212.4015	11597	10846.8
798.6603	214.632	11742.7	11002.3
798.8025	216.862	11884.3	11142.9
798.9448	219.0915	11934.85	11192.05
799.0871	221.3205	12038.4	11291.15
799.2294	223.549	12106.75	11367.9
799.3718	225.777	12167.6	11427.25
799.5141	228.0044	12218.5	11468.2
799.6565	230.2314	12248.25	11502
799.7989	232.4578	12328.1	11575.55
799.9413	234.6837	12371.75	11611.75
800.0837	236.909	12403.15	11641
800.2262	239.1339	12406.25	11619.55
800.3687	241.3582	12346.85	11571.15
800.5111	243.582	12300.2	11488.9
800.6536	245.8053	12294	11501.7
800.7961	248.0281	12273.3	11489.2
800.9387	250.2503	12281.05	11490.3
801.0812	252.472	12366	11576.05
801.2238	254.6932	12485.15	11698.95
801.3664	256.9139	12644.75	11854.4
801.509	259.134	12863.4	12063.6
801.6516	261.3536	13101.15	12309
801.7942	263.5727	13440.2	12640.8
801.9369	265.7912	13753.3	12958.75
802.0795	268.0092	14098	13302.55
802.2222	270.2267	14307.85	13515.45
802.3649	272.4436	14452.6	13654.3
802.5076	274.6601	14545.45	13739.65
802.6504	276.8759	14457.4	13654.05
802.7931	279.0913	14367.3	13563.25
802.9359	281.3061	14221.8	13418.25
803.0787	283.5204	14168.85	13359.05
803.2215	285.7341	14129.55	13315.85
803.3643	287.9473	14143.3	13319
803.5071	290.16	14148.65	13334.5
803.6499	292.3721	14188.4	13380.7
803.7928	294.5837	14333	13517.85
803.9357	296.7947	14526.4	13715.6
804.0786	299.0052	14685.7	13872.15
804.2215	301.2152	14694.8	13877.7
804.3644	303.4246	14563.85	13752.9
804.5074	305.6334	14261.1	13452.55
804.6503	307.8418	13899	13088.15
804.7933	310.0495	13526.8	12713.45
804.9363	312.2568	13119	12301.85
805.0793	314.4635	12719.6	11897.7
805.2223	316.6696	12414.25	11591.25
805.3653	318.8752	12142.8	11308.3
805.5084	321.0802	12032.05	11212.4
805.6514	323.2847	12020.95	11193.3
805.7945	325.4887	12051.5	11226.5
805.9376	327.692	12049.45	11220.45
806.0807	329.8949	12010.1	11179.15
806.2238	332.0972	11869.75	11041.35
806.367	334.2989	11698	10863.7
806.5101	336.5001	11478.85	10645.85
806.6533	338.7007	11254.15	10422.9
806.7965	340.9008	11097.3	10264.25
806.9397	343.1003	10915.45	10084.75
807.0829	345.2992	10816.5	9983.45
807.2261	347.4976	10697.85	9859.25
807.3693	349.6955	10619.4	9776.6
807.5126	351.8927	10584.7	9734.4
807.6559	354.0895	10480.35	9628.05
807.7991	356.2856	10455.5	9609
807.9424	358.4812	10399.15	9554.45
808.0857	360.6763	10378.35	9530.65
808.2291	362.8707	10370.55	9521.1
808.3724	365.0646	10417.85	9570.65
808.5158	367.258	10457.5	9602.85
808.6591	369.4508	10515.75	9662.1
808.8025	371.643	10648.6	9793.5
808.9459	373.8346	10765.8	9908.85
809.0893	376.0257	10867.95	10007.7
809.2327	378.2162	10922.95	10066.3
809.3762	380.4062	10906.4	10047.45
809.5196	382.5956	10816.7	9963.5
809.6631	384.7844	10715.9	9862.05
809.8066	386.9726	10601.95	9750.6
809.9501	389.1603	10498.05	9647.3
810.0936	391.3474	10483.7	9598.7
810.2371	393.5339	10446.85	9592.8
810.3806	395.7199	10375.25	9523.6
810.5241	397.9052	10442.55	9591.45
810.6677	400.09	10561.7	9709.35
810.8113	402.2743	10723.8	9873.8
810.9548	404.4579	10903.9	10050.55
811.0984	406.641	11082.5	10229.25
811.2421	408.8235	11246.95	10391.5
811.3857	411.0054	11347.15	10489
811.5293	413.1868	11461.6	10600.35
811.673	415.3675	11438.7	10570.65
811.8166	417.5477	11448.4	10581.6
811.9603	419.7273	11370.55	10504.4
812.104	421.9064	11326.95	10454.85
812.2477	424.0848	11239.05	10374.3
812.3914	426.2627	11128.15	10263.95
812.5351	428.4399	10924	10054.55
812.6788	430.6166	10659.75	9788.55
812.8226	432.7928	10343.1	9467.7
812.9663	434.9683	10053.45	9178.8
813.1101	437.1432	9855.7	8982.95
813.2539	439.3176	9668.75	8802.5
813.3977	441.4914	9565.95	8704.6
813.5415	443.6645	9544.2	8674.85
813.6853	445.8371	9494.5	8625.4
813.8291	448.0091	9460.65	8590.1
813.973	450.1806	9452.8	8585.3
814.1168	452.3514	9433.15	8565
814.2607	454.5216	9510.85	8632.5
814.4046	456.6913	9491.2	8620.25
814.5485	458.8603	9543.35	8671.85
814.6924	461.0288	9584.3	8720.35
814.8363	463.1967	9546.5	8683.8
814.9802	465.3639	9570.65	8697.55
815.1241	467.5306	9553.35	8685.3
815.2681	469.6967	9558.05	8692.05
815.412	471.8622	9554.2	8686.7
815.556	474.0271	9579.55	8713.15
815.7	476.1914	9606.3	8728.75
815.844	478.3551	9608.65	8734.7
815.988	480.5182	9659.35	8793.35
816.132	482.6807	9784.25	8920.1
816.276	484.8426	9951.4	9092.5
816.4201	487.0039	10251.35	9386.95
816.5641	489.1647	10611.75	9735.7
816.7082	491.3248	10927.2	10053.4
816.8522	493.4843	11031.65	10162.8
816.9963	495.6432	10961.25	10093.7
817.1404	497.8015	10812	9930.7
817.2845	499.9592	10700.9	9819.65
817.4286	502.1163	10472.8	9587.5
817.5727	504.2728	10187.05	9307.75
817.7168	506.4287	9961.4	9092.15
817.861	508.5839	9692.95	8826.15
818.0051	510.7386	9500.05	8625.4
818.1493	512.8927	9444.65	8565.15
818.2935	515.0461	9426.35	8543.15
818.4377	517.199	9508.25	8625.7
818.5818	519.3512	9714.8	8831.9
818.726	521.5029	10000	9111.6
818.8703	523.6539	10265.55	9383.3
819.0145	525.8043	10401.9	9516.95
819.1587	527.9541	10328.15	9439.85
819.303	530.1033	10124.6	9239.75
819.4472	532.2519	9933.15	9046.65
819.5915	534.3999	9866.8	8977.5
819.7357	536.5472	9886.9	9001.95
819.88	538.694	10016.8	9135.15
820.0243	540.8401	10218.2	9335.5
820.1686	542.9856	10361	9466.45
820.3129	545.1305	10396.5	9500.9
820.4572	547.2748	10310.3	9410.8
820.6016	549.4185	10215.05	9312.85
820.7459	551.5615	10108.25	9210.05
820.8902	553.704	10136.55	9239.85
821.0346	555.8458	10257.1	9361.7
821.1789	557.987	10448.1	9553.35
821.3233	560.1276	10708.45	9811.85
821.4677	562.2675	11134.05	10239.85
821.6121	564.4069	11697.05	10799.95
821.7565	566.5456	12221.95	11328.4
821.9009	568.6837	12406.55	11515.35
822.0453	570.8212	12023.25	11132.85
822.1897	572.958	11357.1	10465.1
822.3342	575.0942	10656.2	9762.45
822.4786	577.2299	10204.1	9314
822.6231	579.3648	9945.6	9066.1
822.7675	581.4992	9869	8994.1
822.912	583.6329	9930.5	9059
823.0565	585.766	10086.1	9208.15
823.201	587.8985	10218.9	9337.8
823.3454	590.0304	10307.2	9389.15
823.4899	592.1616	10268.1	9372.3
823.6345	594.2922	10172.35	9270.85
823.779	596.4222	9988.6	9083.05
823.9235	598.5515	9803.05	8899.85
824.068	600.6802	9659.15	8757.55
824.2126	602.8083	9516.5	8619.2
824.3571	604.9358	9494.8	8592.25
824.5017	607.0626	9510.5	8607.9
824.6462	609.1888	9634.7	8725
824.7908	611.3144	9815.7	8906.65
824.9354	613.4393	9978.5	9070.2
825.08	615.5636	10114.25	9209.95
825.2246	617.6873	10154.55	9248.65
825.3692	619.8103	10101.15	9194.45
825.5138	621.9327	9915.7	9011.35
825.6584	624.0544	9685.95	8786.15
825.803	626.1756	9464.75	8565.5
825.9477	628.2961	9320.35	8414.25
826.0923	630.4159	9237.8	8328.95
826.237	632.5351	9222.95	8316.5
826.3816	634.6537	9199.2	8290.05
826.5263	636.7716	9224.65	8312.5
826.6709	638.8889	9222.35	8308.1
826.8156	641.0056	9257.3	8342.9
826.9603	643.1216	9238.45	8324.25
827.105	645.237	9207.95	8297.45
827.2497	647.3518	9102.45	8203.15
827.3944	649.4659	9022.85	8121.5
827.5391	651.5793	8987.95	8088.65
827.6838	653.6922	8926.2	8023.4
827.8285	655.8043	8911.35	8006.65
827.9733	657.9159	8911.2	8006.05
828.118	660.0268	8898.35	7989.6
828.2627	662.137	8923.1	8013.9
828.4075	664.2466	8949.75	8034.8
828.5522	666.3556	8941.95	8029.6
828.697	668.4639	8901.55	7990.85
828.8418	670.5716	8847.2	7943
828.9865	672.6786	8785.7	7877.95
829.1313	674.785	8731.15	7818.55
829.2761	676.8907	8678.85	7765.8
829.4209	678.9958	8688.95	7784.6
829.5657	681.1002	8660.9	7752.15
829.7105	683.204	8660.2	7742.5
829.8553	685.3072	8632.65	7719.7
830.0001	687.4097	8632.05	7716.3
830.1449	689.5115	8627.55	7714.15
830.2898	691.6127	8644.7	7732.55
830.4346	693.7132	8647.75	7737
830.5794	695.8131	8683.55	7748.2
830.7243	697.9123	8702.45	7788
830.8691	700.0109	8711.9	7789.85
831.014	702.1089	8787.2	7868.35
831.1588	704.2061	8850.1	7931.3
831.3037	706.3028	8928.25	8006.2
831.4486	708.3987	8981.8	8062.05
831.5935	710.4941	8982.25	8066.65
831.7383	712.5887	8997	8081.15
831.8832	714.6827	9028.2	8109.05
832.0281	716.7761	9116.65	8203.6
832.173	718.8688	9250.9	8334.15
832.3179	720.9608	9350.45	8426.3
832.4628	723.0522	9521.4	8591.5
832.6077	725.1429	9624.1	8699.25
832.7527	727.233	9742.5	8819.45
832.8976	729.3224	9857.1	8939.5
833.0425	731.4112	9823.75	8900.8
833.1874	733.4993	9718.7	8796
833.3324	735.5867	9502.9	8578.1
833.4773	737.6735	9281	8358.95
833.6222	739.7596	9063.8	8142.5
833.7672	741.845	8916.2	7992.95
833.9122	743.9298	8832.85	7911
834.0571	746.014	8805	7882.7
834.2021	748.0974	8803.55	7878.1
834.347	750.1802	8765.55	7838.3
834.492	752.2624	8796.6	7871.95
834.637	754.3439	8860.45	7935.25
834.782	756.4247	8937.55	8001.85
834.9269	758.5048	9119.25	8197.5
835.0719	760.5843	9412.4	8484.9
835.2169	762.6631	9841.75	8911.85
835.3619	764.7413	10384.1	9458.8
835.5069	766.8188	11076.85	10151.9
835.6519	768.8956	11649.95	10723.6
835.7969	770.9718	12062.2	11133
835.9419	773.0473	12082.65	11155.3
836.0869	775.1221	11829.35	10906.35
836.232	777.1962	11605.15	10679.7
836.377	779.2697	11540.55	10611.2
836.522	781.3426	11610.75	10672.45
836.667	783.4147	11717.05	10791.55
836.8121	785.4862	11722.85	10795.9
836.9571	787.557	11493.25	10562.1
837.1021	789.6271	11036.3	10102.25
837.2472	791.6966	10393.45	9464.15
837.3922	793.7654	9797.4	8868.8
837.5373	795.8335	9395.2	8470.15
837.6823	797.901	9092.1	8163.9
837.8274	799.9678	8928.2	7996.4
837.9724	802.0339	8816.5	7888.25
838.1175	804.0993	8763.8	7822.3
838.2626	806.1641	8701.7	7771.75
838.4076	808.2282	8627.4	7700.5
838.5527	810.2916	8559.95	7628.7
838.6978	812.3544	8511.4	7580.85
838.8428	814.4164	8461.3	7529.05
838.9879	816.4778	8494.7	7560.55
839.133	818.5385	8542.3	7610.6
839.2781	820.5986	8685.6	7753.2
839.4232	822.658	8940.6	8005.9
839.5682	824.7166	9305.55	8373.55
839.7133	826.7747	9843.1	8909.1
839.8584	828.832	10427.1	9493.9
840.0035	830.8886	10845.25	9908.3
840.1486	832.9446	11030.95	10093.5
840.2937	834.9999	10902.2	9969.05
840.4388	837.0545	10563.95	9626.25
840.5839	839.1085	10166.05	9233.25
840.729	841.1618	9790.05	8853.45
840.8741	843.2143	9499	8563.8
841.0192	845.2662	9293.05	8360.05
841.1643	847.3175	9185.25	8256.2
841.3095	849.368	9039.85	8106.95
841.4546	851.4179	8982.3	8049.35
841.5997	853.467	8885.6	7951.2
841.7448	855.5155	8841.05	7909.75
841.8899	857.5633	8761.85	7826.25
842.0351	859.6105	8677.05	7742.7
842.1802	861.6569	8603.95	7669.35
842.3253	863.7027	8531.35	7594.45
842.4704	865.7478	8480.2	7543.15
842.6156	867.7922	8451.15	7517.9
842.7607	869.8359	8424.85	7489.65
842.9058	871.8789	8435.85	7501.7
843.0509	873.9212	8483.7	7516
843.1961	875.9629	8540.15	7602.5
843.3412	878.0039	8656.35	7718.55
843.4863	880.0441	8739.2	7807.1
843.6315	882.0837	8785.35	7848
843.7766	884.1226	8841.5	7905.2
843.9218	886.1609	8920.3	7986.85
844.0669	888.1984	9083.05	8145.3
844.212	890.2352	9218.85	8284.4
844.3572	892.2714	9258.45	8317.55
844.5023	894.3069	9217.35	8280.5
844.6475	896.3416	9023.2	8086.05
844.7926	898.3757	8872.25	7932.1
844.9377	900.4091	8777.55	7838.9
845.0829	902.4418	8763.95	7821.6
845.228	904.4739	8777.15	7834.55
845.3732	906.5052	8858.85	7917.6
845.5183	908.5358	8836.35	7897.45
845.6635	910.5658	8728.2	7789.55
845.8086	912.595	8514.8	7575.5
845.9538	914.6236	8296.55	7357.1
846.0989	916.6515	8162.85	7223.55
846.2441	918.6786	8072.55	7129.55
846.3892	920.7051	8039	7095.25
846.5344	922.7309	8089.6	7150.55
846.6795	924.756	8092.3	7153.1
846.8246	926.7804	8167.5	7231.5
846.9698	928.8041	8178.35	7238.5
847.1149	930.8272	8201.7	7262.4
847.2601	932.8495	8190.65	7249.3
847.4052	934.8711	8231.05	7290.65
847.5504	936.892	8181.9	7241.65
847.6955	938.9123	8228.45	7286
847.8407	940.9318	8277.2	7333.6
847.9858	942.9506	8303.05	7361
848.131	944.9688	8239.5	7299.15
848.2761	946.9862	8166.85	7226.2
848.4213	949.003	8009.05	7068.4
848.5664	951.019	7912.7	6970.75
848.7115	953.0344	7833.1	6896.35
848.8567	955.0491	7804.65	6863.35
849.0018	957.063	7839.8	6899.35
849.147	959.0763	7886.4	6949.15
849.2921	961.0888	7920.85	6983.25
849.4373	963.1007	7966.75	7027.65
849.5824	965.1119	7987.75	7054.75
849.7275	967.1223	7962.8	7033.1
849.8727	969.1321	7914.4	6988.45
850.0178	971.1412	7916.7	6984.75
850.1629	973.1495	7905.35	6970.95
850.3081	975.1572	7958.8	6984.65
850.4532	977.1641	7958.1	7020.9
850.5983	979.1704	7938.55	6997.5
850.7435	981.1759	7878.85	6934.6
850.8886	983.1808	7879.65	6935.85
851.0337	985.1849	7866	6916.35
851.1788	987.1884	7918.55	6977.35
851.324	989.1911	8002.95	7059
851.4691	991.1932	8049.85	7106.9
851.6142	993.1945	8059.05	7116.5
851.7593	995.1951	8052.2	7110.95
851.9045	997.1951	8013.4	7068.6
852.0496	999.1943	8000.3	7059.15
852.1947	1001.1928	8028.85	7091.8
852.3398	1003.1906	8072.6	7130.55
852.4849	1005.1877	8180.5	7241.1
852.63	1007.1841	8289.7	7349.6
852.7751	1009.1798	8341.45	7400.6
852.9202	1011.1748	8295.85	7353.15
853.0653	1013.1691	8155.25	7216.45
853.2104	1015.1627	7963.3	7027.5
853.3555	1017.1556	7798.8	6859.05
853.5006	1019.1477	7684	6743.8
853.6457	1021.1392	7558.5	6628.4
853.7908	1023.1299	7535.15	6604.85
853.9359	1025.12	7527.2	6598.4
854.081	1027.1093	7594.5	6679.65
854.2261	1029.0979	7715.95	6801.35
854.3712	1031.0859	7798.4	6881.6
854.5163	1033.0731	7854.75	6929.15
854.6613	1035.0596	7820.9	6889.35
854.8064	1037.0454	7739.55	6806.75
854.9515	1039.0304	7651.1	6716.35
855.0965	1041.0148	7544.2	6610.7
855.2416	1042.9985	7446.95	6508.3
855.3867	1044.9814	7395.3	6460.95
855.5317	1046.9636	7373.65	6435.55
855.6768	1048.9452	7353.5	6420.2
855.8219	1050.926	7399.9	6463.3
855.9669	1052.9061	7428.8	6488.7
856.112	1054.8855	7455.1	6514.35
856.257	1056.8642	7515.65	6580.95
856.4021	1058.8421	7546.3	6606.2
856.5471	1060.8194	7583.7	6644.6
856.6921	1062.7959	7621.45	6684.15
856.8372	1064.7717	7699.55	6759.45
856.9822	1066.7469	7800.1	6862.05
857.1272	1068.7213	7898.95	6958.1
857.2723	1070.695	7973.25	7037.5
857.4173	1072.6679	7999.3	7062.95
857.5623	1074.6402	8050.05	7111.3
857.7073	1076.6117	8023.5	7077.8
857.8523	1078.5826	7909.3	6968.25
857.9973	1080.5527	7730.4	6788.85
858.1423	1082.5221	7606.6	6668.15
858.2873	1084.4908	7544.45	6605.45
858.4323	1086.4587	7543.95	6604.25
858.5773	1088.426	7544.3	6605.6
858.7223	1090.3925	7569.35	6629.5
858.8673	1092.3584	7616.85	6681
859.0123	1094.3235	7642.5	6705.25
859.1573	1096.2879	7768.45	6830.8
859.3022	1098.2515	7910.95	6975.75
859.4472	1100.2145	8095.8	7161.15
859.5922	1102.1767	8297.7	7357.95
859.7371	1104.1382	8534.65	7597.05
859.8821	1106.099	8773.3	7834.25
860.027	1108.0591	8974.75	8039.4
860.172	1110.0185	9131.25	8193.35
860.3169	1111.9771	9209.85	8271.95
860.4619	1113.9351	9156.65	8216.7
860.6068	1115.8923	9076.45	8139.05
860.7517	1117.8488	8991.3	8053.65
860.8967	1119.8045	8839.2	7900.95
861.0416	1121.7596	8698.6	7763.7
861.1865	1123.7139	8547.4	7612.85
861.3314	1125.6675	8466.5	7530.45
861.4763	1127.6204	8498.75	7561.75
861.6212	1129.5726	8480.9	7543.2
861.7661	1131.524	8370.1	7430.7
861.911	1133.4748	8216.3	7281.9
862.0559	1135.4248	8008.3	7070.2
862.2008	1137.3741	7849.4	6913
862.3457	1139.3226	7726.6	6788.95
862.4905	1141.2705	7691.05	6753.35
862.6354	1143.2176	7616.85	6672.6
862.7803	1145.164	7542.4	6606.1
862.9251	1147.1097	7462	6525.35
863.07	1149.0546	7388.65	6450.1
863.2148	1150.9989	7280.8	6344.45
863.3597	1152.9424	7175.2	6241.15
863.5045	1154.8852	7114.8	6177.15
863.6493	1156.8272	7104.75	6170.85
863.7942	1158.7686	7124.8	6182.55
863.939	1160.7092	7163.15	6224.85
864.0838	1162.6491	7207.15	6269.25
864.2286	1164.5883	7301.3	6366.35
864.3734	1166.5267	7419.6	6483.4
864.5182	1168.4644	7605.5	6667.7
864.663	1170.4014	7782.35	6844.2
864.8078	1172.3377	8015.45	7079.05
864.9526	1174.2732	8332.5	7398.85
865.0974	1176.2081	8758.6	7823.35
865.2421	1178.1421	9304	8365.7
865.3869	1180.0755	9868.1	8935.35
865.5317	1182.0082	10295.55	9363.05
865.6764	1183.9401	10444.5	9511.15
865.8212	1185.8713	10295.9	9368.95
865.9659	1187.8017	9941.85	9016
866.1106	1189.7315	9544.8	8626.65
866.2554	1191.6605	9120.35	8204.3
866.4001	1193.5888	8839.65	7917.1
866.5448	1195.5163	8670.3	7743.95
866.6895	1197.4432	8555.85	7624.5
866.8342	1199.3693	8517.65	7584.2
866.9789	1201.2947	8477.05	7541.6
867.1236	1203.2193	8441	7507.25
867.2683	1205.1432	8405.9	7474.35
867.413	1207.0664	8394.4	7461.85
867.5576	1208.9889	8351.5	7413.05
867.7023	1210.9106	8319.85	7386.85
867.847	1212.8316	8325.9	7389.85
867.9916	1214.7519	8358.05	7416.9
868.1363	1216.6715	8409.35	7479.8
868.2809	1218.5903	8479.75	7544.75
868.4255	1220.5084	8584.2	7652.55
868.5701	1222.4257	8726.25	7794.15
868.7148	1224.3424	8772.55	7842.2
868.8594	1226.2583	8923.5	7990.2
869.004	1228.1735	9077.35	8143.7
869.1486	1230.0879	9253.15	8320.05
869.2932	1232.0016	9457.5	8524.65
869.4377	1233.9146	9620.15	8685.8
869.5823	1235.8269	9699	8769.4
869.7269	1237.7384	9679.05	8746.7
869.8715	1239.6492	9584.9	8656.25
870.016	1241.5592	9597	8664.6
870.1606	1243.4686	9689.95	8758.3
870.3051	1245.3772	9919.25	8986
870.4496	1247.285	10182.6	9246.8
870.5941	1249.1922	10429.75	9498.3
870.7387	1251.0986	10673.7	9741.7
870.8832	1253.0042	10794.45	9865.6
871.0277	1254.9092	10900.95	9971.3
871.1722	1256.8134	11025.5	10095.6
871.3167	1258.7169	11161.25	10228.9
871.4611	1260.6196	11287.25	10357.4
871.6056	1262.5216	11504.7	10574.45
871.7501	1264.4229	11656.75	10732.05
871.8945	1266.3234	11876.05	10943.15
872.039	1268.2232	12008.3	11072.95
872.1834	1270.1223	12117.1	11184.65
872.3278	1272.0207	12159.9	11226.55
872.4723	1273.9183	12155	11217.5
872.6167	1275.8151	12105	11171.5
872.7611	1277.7113	12119.6	11189.95
872.9055	1279.6067	12236.05	11307.15
873.0499	1281.5014	12563.1	11630.8
873.1943	1283.3953	13078.8	12148.15
873.3386	1285.2885	13693.6	12759.1
873.483	1287.181	14330.95	13400.05
873.6274	1289.0727	14956.35	14027.75
873.7717	1290.9637	15357.65	14427.5
873.9161	1292.854	15562.95	14633.65
874.0604	1294.7435	15534.3	14603.1
874.2047	1296.6323	15349.65	14421.1
874.349	1298.5204	15105	14172.45
874.4933	1300.4077	14749.85	13819.2
874.6376	1302.2943	14420.6	13491
874.7819	1304.1802	14003.35	13073.7
874.9262	1306.0653	13506.05	12573.3
875.0705	1307.9497	12937.45	12010.3
875.2147	1309.8333	12468.6	11539.8
875.359	1311.7162	12107.3	11178.05
875.5032	1313.5984	11871.35	10938.9
875.6475	1315.4798	11677.5	10747.15
875.7917	1317.3605	11550.3	10605.05
875.9359	1319.2405	11365.05	10432.05
876.0801	1321.1197	11103.85	10171.55
876.2243	1322.9982	10757.1	9823.75
876.3685	1324.876	10396.45	9467.6
876.5127	1326.753	10069.9	9137.75
876.6569	1328.6293	9817.15	8886.05
876.801	1330.5048	9602.85	8669.5
876.9452	1332.3796	9408.25	8475.45
877.0893	1334.2537	9288.8	8330.75
877.2335	1336.127	9155.2	8225.85
877.3776	1337.9996	9120.75	8189.95
877.5217	1339.8714	9129.4	8198.35
877.6658	1341.7426	9136.4	8164.25
877.8099	1343.6129	9145.45	8214.1
877.954	1345.4826	9142	8210.2
878.0981	1347.3515	9150.6	8219.65
878.2422	1349.2196	9122.6	8188.4
878.3862	1351.087	9142.2	8207.4
878.5303	1352.9537	9212	8279.8
878.6743	1354.8197	9289.05	8357.35
878.8184	1356.6849	9462.25	8529.55
878.9624	1358.5493	9632	8698.85
879.1064	1360.4131	9820.7	8890.6
879.2504	1362.276	10009.3	9082.05
879.3944	1364.1383	10058.65	9128.65
879.5384	1365.9998	9929.7	8992.7
879.6823	1367.8606	9628.7	8699.8
879.8263	1369.7206	9294.55	8362.55
879.9702	1371.5799	8951.35	8018.15
880.1142	1373.4384	8680.6	7749.1
880.2581	1375.2962	8450.6	7519.3
880.402	1377.1533	8106.4	7176.95
880.5459	1379.0096	7766.45	6839.65
880.6898	1380.8652	7460.75	6533.15
880.8337	1382.7201	7156.2	6230.95
880.9776	1384.5742	6935.55	6003.05
881.1215	1386.4275	6743.15	5810.4
881.2653	1388.2802	6607.9	5677.3
881.4092	1390.132	6485	5556.3
881.553	1391.9832	6425.75	5495.7
881.6968	1393.8336	6358.2	5429.35
881.8406	1395.6832	6328	5396.55
881.9844	1397.5322	6272.45	5342.95
882.1282	1399.3803	6261.45	5330
882.272	1401.2278	6223.6	5293.95
882.4158	1403.0745	6206.35	5278.4
882.5595	1404.9204	6188.85	5263.95
882.7033	1406.7656	6210	5280.5
882.847	1408.6101	6215.55	5287.05
882.9908	1410.4538	6237.05	5310.3
883.1345	1412.2968	6255	5327.55
883.2782	1414.139	6309.5	5379.15
883.4219	1415.9805	6384.45	5456.35
883.5656	1417.8213	6461.8	5528.35
883.7092	1419.6613	6541.5	5613.85
883.8529	1421.5006	6675.05	5747.65
883.9965	1423.3391	6820.7	5893.55
884.1402	1425.1769	7110.4	6181.7
884.2838	1427.0139	7510.4	6585.95
884.4274	1428.8502	8004.6	7079.45
884.571	1430.6858	8479.25	7552.4
884.7146	1432.5206	8859.35	7934.4
884.8582	1434.3547	9060.45	8132.05
885.0018	1436.188	9095.25	8168.15
885.1453	1438.0206	9008.55	8079.6
885.2889	1439.8524	8852.55	7927.05
885.4324	1441.6835	8752.5	7824.95
885.5759	1443.5139	8636.3	7705.95
885.7194	1445.3435	8602.8	7676.3
885.8629	1447.1724	8577.85	7653
886.0064	1449.0005	8520.75	7598.3
886.1499	1450.8279	8496.65	7570.9
886.2933	1452.6545	8504.55	7579.5
886.4368	1454.4804	8525.9	7603.95
886.5802	1456.3056	8523.4	7592.3
886.7237	1458.13	8471.5	7549
886.8671	1459.9536	8333.55	7406.05
887.0105	1461.7766	8089.9	7165.3
887.1539	1463.5987	7795.95	6867.9
887.2972	1465.4202	7512.9	6589.9
887.4406	1467.2409	7202.1	6280.15
887.584	1469.0608	6972.9	6047.9
887.7273	1470.88	6711.3	5784.85
887.8706	1472.6984	6495.5	5573.4
888.0139	1474.5161	6321.65	5398.85
888.1572	1476.3331	6171.8	5248.95
888.3005	1478.1493	6077.9	5152.9
888.4438	1479.9648	6005.7	5079.7
888.5871	1481.7795	5933.15	5007.45
888.7303	1483.5935	5884.4	4958.45
888.8736	1485.4067	5826	4903.55
889.0168	1487.2192	5805.25	4877.95
889.16	1489.031	5773.05	4845.35
889.3032	1490.842	5743.3	4820.35
889.4464	1492.6522	5714.2	4789.05
889.5896	1494.4618	5689	4764.65
889.7327	1496.2705	5656.05	4728.85
889.8759	1498.0785	5622.1	4696.6
890.019	1499.8858	5576.4	4651.55
890.1622	1501.6924	5537.5	4613.05
890.3053	1503.4981	5501.55	4581.75
890.4484	1505.3032	5454.8	4530.7
890.5914	1507.1075	5424.65	4499.3
890.7345	1508.911	5375.4	4448.9
890.8776	1510.7138	5328.75	4404.85
891.0206	1512.5159	5287.1	4365.15
891.1637	1514.3172	5244.4	4322.5
891.3067	1516.1178	5202.15	4281.1
891.4497	1517.9176	5186.8	4262.9
891.5927	1519.7166	5150.25	4229.1
891.7357	1521.515	5126.8	4198.9
891.8786	1523.3126	5098.35	4177.65
892.0216	1525.1094	5071.4	4151.3
892.1645	1526.9055	5055.05	4138.5
892.3074	1528.7008	5048.25	4126.25
892.4503	1530.4954	5026.7	4105.25
892.5932	1532.2893	5016.15	4100.25
892.7361	1534.0824	4997.3	4074.25
892.879	1535.8747	4983.75	4066.1
893.0218	1537.6663	4959.55	4041.3
893.1647	1539.4572	4988.95	4071
893.3075	1541.2473	5006.9	4086.65
893.4503	1543.0367	5006.65	4088.95
893.5931	1544.8253	5027.7	4104.55
893.7359	1546.6132	5048.8	4128.55
893.8787	1548.4003	5095.45	4169.95
894.0214	1550.1867	5134.85	4209.35
894.1642	1551.9723	5208	4286.65
894.3069	1553.7572	5329.4	4412.9
894.4496	1555.5414	5444.7	4529.5
894.5923	1557.3247	5616.45	4702.6
894.735	1559.1074	5789.5	4878.4
894.8777	1560.8893	5971.25	5057.45
895.0204	1562.6705	6159.45	5246.4
895.163	1564.4509	6284.8	5373.05
895.3056	1566.2305	6372.95	5464.65
895.4482	1568.0094	6394.6	5488
895.5908	1569.7876	6397.85	5486.95
895.7334	1571.565	6395.7	5485.7
895.876	1573.3417	6374.35	5462.55
896.0186	1575.1176	6381.05	5469.6
896.1611	1576.8928	6377.1	5468.55
896.3036	1578.6672	6417.3	5511.1
896.4461	1580.4409	6468.45	5564.65
896.5886	1582.2138	6542.9	5634.3
896.7311	1583.986	6637.65	5727.05
896.8736	1585.7575	6746.2	5839.35
897.0161	1587.5282	6875.2	5966.85
897.1585	1589.2981	7019.95	6117.7
897.3009	1591.0673	7141.45	6235.75
897.4433	1592.8358	7279.75	6374.2
897.5857	1594.6035	7413.25	6504.9
897.7281	1596.3704	7516.5	6608
897.8705	1598.1366	7608.75	6701.4
898.0128	1599.9021	7722.15	6815.9
898.1551	1601.6668	7819.85	6911.05
898.2975	1603.4308	7950.95	7041.6
898.4398	1605.194	8108.2	7197.2
898.5821	1606.9564	8319.4	7416.95
898.7243	1608.7182	8611.4	7709.45
898.8666	1610.4791	8919.65	8022
899.0088	1612.2394	9272.1	8378.95
899.1511	1613.9988	9606.15	8706.3
899.2933	1615.7576	9915.05	9012.9
899.4355	1617.5156	10111.1	9200.15
899.5776	1619.2728	10169.2	9262.15
899.7198	1621.0293	10042.25	9137
899.862	1622.785	9765.4	8856.6
900.0041	1624.54	9333.6	8430.45
900.1462	1626.2942	8895.2	7993
900.2883	1628.0477	8415.45	7512.55
900.4304	1629.8005	8005.45	7101.9
900.5725	1631.5525	7658.55	6757.6
900.7145	1633.3037	7347.9	6448.45
900.8566	1635.0542	7060.75	6160.45
900.9986	1636.804	6878.85	5974.85
901.1406	1638.553	6796.55	5834.4
901.2826	1640.3013	6637.05	5736.25
901.4245	1642.0488	6579.55	5674.9
901.5665	1643.7955	6591.5	5691.35
901.7085	1645.5416	6636	5738.05
901.8504	1647.2868	6712.5	5811.4
901.9923	1649.0313	6803.25	5900.55
902.1342	1650.7751	6950.05	6044.6
902.2761	1652.5181	7087.25	6190.6
902.4179	1654.2604	7252.45	6353.2
902.5598	1656.0019	7422.25	6525.3
902.7016	1657.7427	7694	6794.85
902.8434	1659.4828	7915.3	7014.7
902.9852	1661.222	8082.35	7179
903.127	1662.9606	8077.6	7177.65
903.2687	1664.6984	7850.05	6948.8
903.4105	1666.4354	7445.3	6541.1
903.5522	1668.1717	6946.95	6041.45
903.6939	1669.9072	6416.1	5511.25
903.8356	1671.642	5965.7	5060
903.9773	1673.3761	5613.8	4712.8
904.119	1675.1094	5306.5	4404.95
904.2606	1676.8419	5070.1	4168.5
904.4022	1678.5737	4861.85	3963.25
904.5439	1680.3048	4718.95	3816.1
904.6855	1682.0351	4584.85	3684.65
904.827	1683.7646	4496.3	3590.5
904.9686	1685.4934	4400.3	3498.7
905.1101	1687.2215	4316.65	3417.55
905.2517	1688.9488	4260.5	3361.2
905.3932	1690.6754	4192.25	3295
905.5347	1692.4012	4147.6	3248.85
905.6761	1694.1263	4098.45	3197.8
905.8176	1695.8506	4070.85	3171.05
905.9591	1697.5742	4024.8	3127.45
906.1005	1699.297	3979.1	3081.65
906.2419	1701.0191	3933.55	3037.8
906.3833	1702.7404	3891.85	2994.6
906.5246	1704.461	3879.4	2980.35
906.666	1706.1808	3859.35	2959.8
906.8073	1707.8999	3816.05	2915.5
906.9487	1709.6182	3792.35	2896.65
907.09	1711.3358	3762.55	2868.8
907.2313	1713.0527	3745.05	2853.6
907.3725	1714.7688	3726.35	2826.45
907.5138	1716.4841	3708.15	2809.8
907.655	1718.1987	3713.45	2811.1
907.7962	1719.9126	3677.05	2782.3
907.9374	1721.6257	3658.45	2763.5
908.0786	1723.338	3646.1	2753.15
908.2198	1725.0496	3638.75	2742.35
908.3609	1726.7605	3629.35	2730.35
908.502	1728.4706	3619.1	2722
908.6431	1730.18	3588.95	2691.35
908.7842	1731.8886	3585.85	2692.9
908.9253	1733.5964	3584.05	2668
909.0664	1735.3036	3582.4	2684.15
909.2074	1737.0099	3551.2	2656.25
909.3484	1738.7156	3518.25	2625.45
909.4894	1740.4204	3514.55	2617.7
909.6304	1742.1246	3498.65	2598.6
909.7714	1743.8279	3476.55	2582.95
909.9123	1745.5306	3447.5	2553.05
910.0532	1747.2325	3433.25	2537.25
910.1941	1748.9336	3423.95	2530.5
910.335	1750.634	3403.6	2505.65
910.4759	1752.3336	3382.7	2488.35
910.6168	1754.0325	3388.4	2497.8
910.7576	1755.7307	3356.05	2463.6
910.8984	1757.4281	3367.9	2473.45
911.0392	1759.1247	3355.75	2450.6
911.18	1760.8206	3361.45	2459.4
911.3208	1762.5158	3370.2	2467.6
911.4615	1764.2102	3332.6	2436.55
911.6022	1765.9039	3324.05	2431.6
911.7429	1767.5968	3298.9	2407
911.8836	1769.289	3291.55	2400.75
912.0243	1770.9804	3287.75	2391.5
912.1649	1772.6711	3290.65	2393.25
912.3056	1774.361	3288.25	2390.55
912.4462	1776.0502	3281.5	2384.7
912.5868	1777.7386	3285.85	2387.65
912.7274	1779.4263	3263.25	2367.4
912.8679	1781.1132	3260.55	2366.95
913.0084	1782.7994	3260.4	2366.9
913.149	1784.4849	3234.55	2342.6
913.2895	1786.1696	3232.15	2319.1
913.4299	1787.8535	3241.1	2350.3
913.5704	1789.5367	3216.35	2324.55
913.7108	1791.2192	3225.85	2337.2
913.8513	1792.9009	3227.85	2307.8
913.9917	1794.5818	3212.75	2315.7
914.132	1796.2621	3195.5	2302.1
914.2724	1797.9415	3195.65	2299.25
914.4128	1799.6202	3183.7	2288.7
914.5531	1801.2982	3179.95	2282.4
914.6934	1802.9755	3187	2289.5
914.8337	1804.6519	3167.7	2271.15
914.9739	1806.3277	3168.35	2274.25
915.1142	1808.0027	3136.45	2246.5
915.2544	1809.6769	3144.25	2253.55
915.3946	1811.3504	3142.75	2250.9
915.5348	1813.0231	3133.75	2241.5
915.675	1814.6951	3131.3	2238.2
915.8151	1816.3664	3132.8	2237.1
915.9553	1818.0369	3125.05	2229.15
916.0954	1819.7067	3113.6	2219.5
916.2355	1821.3757	3109.65	2212.05
916.3755	1823.044	3101.25	2206.8
916.5156	1824.7115	3102.15	2207.55
916.6556	1826.3783	3087.8	2194.55
916.7956	1828.0443	3081.95	2190.15
916.9356	1829.7096	3078.55	2185.9
917.0756	1831.3741	3079.65	2182.4
917.2155	1833.0379	3069	2177.15
917.3555	1834.701	3043.85	2152.5
917.4954	1836.3633	3053.8	2158.95
917.6353	1838.0248	3046.85	2155.5
917.7751	1839.6856	3055.8	2162.45
917.915	1841.3457	3057.75	2163.95
918.0548	1843.005	3040.25	2147.2
918.1946	1844.6636	3038.9	2148.8
918.3344	1846.3214	3035.6	2145.3
918.4742	1847.9785	3018.05	2124.45
918.6139	1849.6349	3025.65	2128.75
918.7537	1851.2904	3034.6	2130.25
918.8934	1852.9453	3022.9	2126.8
919.0331	1854.5994	3010.75	2112.35
919.1727	1856.2528	3024.85	2126.45
919.3124	1857.9054	3004.25	2110.7
919.452	1859.5572	3016.3	2124.7
919.5916	1861.2083	2989.25	2095.5
919.7312	1862.8587	2987.3	2091.45
919.8708	1864.5084	2993.7	2096.4
920.0103	1866.1572	2979.5	2083.75
920.1498	1867.8054	2968.55	2073.75
920.2893	1869.4528	2974.6	2077.85
920.4288	1871.0994	2958.6	2062.4
920.5683	1872.7453	2953	2059.15
920.7077	1874.3905	2945.8	2045.7
920.8471	1876.0349	2953.75	2060.95
920.9865	1877.6786	2953.1	2057.4
921.1259	1879.3215	2936.1	2042.95
921.2653	1880.9637	2927.6	2032.45
921.4046	1882.6051	2930.2	2036.05
921.5439	1884.2458	2918.75	2025.45
921.6832	1885.8858	2925.05	2032.45
921.8225	1887.525	2910.2	2016.85
921.9617	1889.1634	2892.45	1998.25
922.101	1890.8011	2890.9	1997.6
922.2402	1892.4381	2895.3	2001.7
922.3794	1894.0743	2881.95	1987.1
922.5185	1895.7098	2888.1	1995
922.6577	1897.3446	2882.05	1987.25
922.7968	1898.9786	2869.5	1971.15
922.9359	1900.6118	2873.75	1979.35
923.075	1902.2443	2860.85	1964.2
923.214	1903.8761	2849.95	1956.9
923.3531	1905.5071	2836.9	1943.5
923.4921	1907.1374	2839.45	1946.25
923.6311	1908.7669	2824.75	1934.75
923.77	1910.3957	2824.25	1931.4
923.909	1912.0237	2819.8	1928
924.0479	1913.651	2823	1927
924.1868	1915.2776	2822	1930.35
924.3257	1916.9034	2796.1	1904.35
924.4646	1918.5285	2783.9	1892.95
924.6034	1920.1528	2785.85	1893.55
924.7422	1921.7764	2783	1889.9
924.881	1923.3992	2769.25	1875.4
925.0198	1925.0213	2761.5	1868.1
925.1586	1926.6427	2759.5	1868.4
925.2973	1928.2633	2824.55	1847.2
925.436	1929.8832	2762.8	1868.5
925.5747	1931.5023	2747.25	1853.8
925.7134	1933.1207	2742.3	1848.05
925.852	1934.7383	2722.9	1831.1
925.9906	1936.3552	2715.7	1824.6
926.1292	1937.9714	2719.45	1826.9
926.2678	1939.5868	2706.25	1811.45
926.4064	1941.2015	2704.75	1810.2
926.5449	1942.8154	2699.45	1804.4
926.6834	1944.4286	2683.35	1789.75
926.8219	1946.041	2697.45	1782.3
926.9604	1947.6528	2672.35	1773.55
927.0988	1949.2637	2677.85	1784.9
927.2372	1950.8739	2661.65	1767.8
927.3756	1952.4834	2658.25	1765.55
927.514	1954.0921	2661.8	1769.95
927.6523	1955.7001	2651.05	1757.05
927.7907	1957.3074	2651.25	1760.25
927.929	1958.9139	2641.35	1752.75
928.0673	1960.5197	2632.35	1740.3
928.2055	1962.1247	2615.75	1725.5
928.3438	1963.729	2620	1729.7
928.482	1965.3325	2613.25	1718.55
928.6202	1966.9353	2601.15	1712.35
928.7584	1968.5374	2597.7	1706.3
928.8965	1970.1387	2572.85	1683.4
929.0346	1971.7393	2574.1	1684.1
929.1727	1973.3392	2582.9	1693.7
929.3108	1974.9383	2572.65	1687.65
929.4489	1976.5366	2570.25	1682.6
929.5869	1978.1342	2569.9	1681.5
929.7249	1979.7311	2568.05	1678.75
929.8629	1981.3273	2555.7	1666.45
930.0009	1982.9227	2541.7	1651.95
930.1388	1984.5173	2535.35	1648.2
930.2767	1986.1112	2533.35	1645.7
930.4146	1987.7044	2521.95	1634.65
930.5525	1989.2968	2522.05	1633.6
930.6904	1990.8885	2522.9	1633.45
930.8282	1992.4795	2525.25	1637
930.966	1994.0697	2515.15	1627.9
931.1038	1995.6592	2498.25	1611
931.2415	1997.2479	2494.95	1608.85
931.3793	1998.8359	2496.9	1610.7
931.517	2000.4232	2490.15	1606.35
931.6547	2002.0097	2486.7	1603.3
931.7923	2003.5955	2472.85	1587
931.93	2005.1805	2483.8	1596.3
932.0676	2006.7648	2486.45	1601.7
932.2052	2008.3484	2477.2	1590.7
932.3427	2009.9312	2470.8	1584.8
932.4803	2011.5133	2461.95	1579.6
932.6178	2013.0946	2467	1582.85
932.7553	2014.6752	2460.25	1577.05
932.8928	2016.2551	2450	1562.7
933.0302	2017.8342	2437.25	1550.8
933.1676	2019.4126	2432.7	1548.65
933.305	2020.9902	2424.4	1540.2
933.4424	2022.5672	2431.9	1546.95
933.5798	2024.1433	2437.7	1548.15
933.7171	2025.7188	2410.5	1528.2
933.8544	2027.2935	2414.25	1529.05
933.9917	2028.8674	2395	1512.95
934.129	2030.4406	2403.15	1522.5
934.2662	2032.0131	2404.75	1523.15
934.4034	2033.5849	2396.85	1506.1
934.5406	2035.1559	2391.8	1510
934.6778	2036.7261	2382.15	1497.15
934.8149	2038.2957	2386.8	1501.95
934.952	2039.8645	2388.15	1499.3
935.0891	2041.4325	2400.7	1511.4
935.2262	2042.9998	2376.7	1490.5
935.3632	2044.5664	2380.9	1494.5
935.5002	2046.1323	2367.95	1485.25
935.6372	2047.6974	2366.4	1480.05
935.7742	2049.2617	2344.7	1463.1
935.9111	2050.8254	2353.8	1464.5
936.048	2052.3883	2356.15	1469.85
936.1849	2053.9504	2364.75	1479.45
936.3218	2055.5118	2353.75	1467.9
936.4586	2057.0725	2342.9	1454.65
936.5955	2058.6325	2344.8	1460.8
936.7323	2060.1917	2345.45	1461.5
936.869	2061.7502	2346.2	1461.3
937.0058	2063.3079	2324.25	1441.05
937.1425	2064.8649	2311.85	1426.45
937.2792	2066.4212	2321	1436.05
937.4159	2067.9767	2315.45	1429.55
937.5525	2069.5315	2305.6	1418.8
937.6891	2071.0856	2299	1412.2
937.8257	2072.6389	2294.5	1408.75
937.9623	2074.1915	2290.7	1408.05
938.0989	2075.7433	2288.35	1401.1
938.2354	2077.2945	2275.5	1391.05
938.3719	2078.8448	2286.95	1399.3
938.5084	2080.3945	2283.8	1397.45
938.6448	2081.9434	2282.75	1396.85
938.7812	2083.4916	2273.55	1384.6
938.9176	2085.039	2273.3	1382.45
939.054	2086.5857	2265.9	1373.5
939.1903	2088.1317	2265.3	1373.95
939.3267	2089.677	2266.4	1373.45
939.463	2091.2215	2257.45	1365.1
939.5992	2092.7652	2254.6	1361.65
939.7355	2094.3083	2258.75	1369.15
939.8717	2095.8506	2234.6	1346
940.0079	2097.3921	2241.65	1353.3
940.1441	2098.933	2233.85	1348.1
940.2802	2100.4731	2238.3	1351.6
940.4163	2102.0124	2251.8	1344.45
940.5524	2103.5511	2232.95	1342.9
940.6885	2105.089	2228.45	1336.5
940.8245	2106.6261	2229.5	1340.45
940.9606	2108.1626	2219.1	1329.8
941.0965	2109.6983	2245.35	1328.3
941.2325	2111.2332	2216.8	1325.1
941.3684	2112.7675	2205.7	1314.25
941.5044	2114.301	2210.45	1320.55
941.6403	2115.8337	2201.05	1311.65
941.7761	2117.3657	2206.45	1315.85
941.912	2118.897	2197.8	1308.2
942.0478	2120.4276	2197.5	1302.15
942.1835	2121.9575	2190.35	1299.05
942.3193	2123.4866	2198	1307.35
942.455	2125.0149	2187.3	1295.4
942.5907	2126.5426	2174.5	1288.45
942.7264	2128.0695	2169.75	1280.65
942.8621	2129.5956	2172.05	1289.35
942.9977	2131.1211	2168.4	1278.45
943.1333	2132.6458	2161.9	1274.35
943.2689	2134.1698	2165.4	1275.75
943.4044	2135.693	2164.1	1270.05
943.54	2137.2155	2148.1	1254.65
943.6755	2138.7373	2148.55	1259.9
943.8109	2140.2584	2142.45	1256.25
943.9464	2141.7787	2144.85	1254.45
944.0818	2143.2983	2134.55	1252.2
944.2172	2144.8171	2134.25	1253.05
944.3526	2146.3353	2126.1	1238.85
944.4879	2147.8527	2129.7	1242.15
944.6232	2149.3693	2123.65	1232.05
944.7585	2150.8853	2127.9	1237.1
944.8938	2152.4005	2114.6	1223.55
945.029	2153.9149	2116.9	1225.2
945.1642	2155.4287	2108.35	1219.4
945.2994	2156.9417	2115.8	1223.1
945.4346	2158.454	2108.05	1218.15
945.5697	2159.9655	2099.8	1213
945.7048	2161.4764	2106.05	1218.1
945.8399	2162.9865	2094.45	1207.15
945.9749	2164.4958	2106.8	1218.15
946.1099	2166.0045	2085.55	1198.2
946.2449	2167.5124	2088.9	1200.55
946.3799	2169.0195	2085.2	1196.75
946.5148	2170.526	2085.9	1194.05
946.6498	2172.0317	2090.9	1200.6
946.7846	2173.5367	2079.5	1189.75
946.9195	2175.0409	2075.5	1186.5
947.0543	2176.5445	2084.15	1194.05
947.1891	2178.0473	2067.7	1177.25
947.3239	2179.5494	2062.7	1168.45
947.4587	2181.0507	2057.2	1166.7
947.5934	2182.5513	2051.8	1162.5
947.7281	2184.0512	2055.2	1164.2
947.8628	2185.5504	2051.9	1163.5
947.9974	2187.0488	2044.45	1156.5
948.132	2188.5465	2033.65	1148.5
948.2666	2190.0435	2040.15	1151.85
948.4012	2191.5397	2041.45	1152.3
948.5357	2193.0353	2036.6	1147.55
948.6702	2194.5301	2035.25	1143.15
948.8047	2196.0241	2029.1	1135.3
948.9392	2197.5175	2034	1140.65
949.0736	2199.0101	2026.45	1132.15
949.208	2200.502	2020.55	1132.55
949.3424	2201.9931	2017.1	1129.85
949.4767	2203.4835	2006.75	1120.5
949.611	2204.9733	2028.15	1122.45
949.7453	2206.4622	2009.2	1122.1
949.8796	2207.9505	2005.1	1117.85
950.0138	2209.438	1989.6	1104.4
950.148	2210.9248	1987.3	1100.9
950.2822	2212.4109	1982.8	1093.1
950.4164	2213.8962	1985.4	1091.65
950.5505	2215.3809	1982.55	1088.95
950.6846	2216.8648	1978.65	1084.95
950.8186	2218.3479	1990.75	1091
950.9527	2219.8304	1989.35	1090.5
951.0867	2221.3121	1978.5	1082
951.2207	2222.7931	1975.8	1082.55
951.3546	2224.2733	1960.2	1066.9
951.4886	2225.7529	1962.6	1069.65
951.6225	2227.2317	1967.55	1077
951.7563	2228.7098	1949.9	1062.7
951.8902	2230.1872	1934.75	1050.15
952.024	2231.6638	1946.3	1059.85
952.1578	2233.1397	1935.05	1042.8
952.2916	2234.6149	1940.55	1055.2
952.4253	2236.0894	1943.2	1055
952.559	2237.5632	1940.7	1042.95
952.6927	2239.0362	1927	1039.5
952.8263	2240.5085	1932.75	1043.5
952.9599	2241.9801	1925.85	1036.55
953.0935	2243.4509	1922.9	1031.85
953.2271	2244.921	1929.95	1039.1
953.3606	2246.3904	1914.2	1018.85
953.4941	2247.8591	1913.6	1023.5
953.6276	2249.3271	1909.65	1019
953.7611	2250.7943	1901.15	1009.6
953.8945	2252.2608	1904.05	1011.55
954.0279	2253.7266	1891.1	997.85
954.1612	2255.1917	1892.35	1002.65
954.2946	2256.656	1887.05	997.75
954.4279	2258.1197	1881.3	994.9
954.5612	2259.5826	1882.4	991.35
954.6944	2261.0447	1883.4	992.2
954.8276	2262.5062	1871.45	979.05
954.9608	2263.9669	1871.45	977.3
955.094	2265.4269	1877.6	986
955.2271	2266.8862	1866.25	976.95
955.3602	2268.3448	1860.3	971.5
955.4933	2269.8026	1868.75	980.35
955.6264	2271.2598	1853.2	963.45
955.7594	2272.7162	1860.95	972.9
955.8924	2274.1719	1867.35	976.1
956.0253	2275.6268	1867.65	974.7
956.1583	2277.0811	1865	970.95
956.2912	2278.5346	1855.5	966.6
956.4241	2279.9874	1847.8	960.4
956.5569	2281.4395	1844.65	957.25
956.6897	2282.8908	1844.2	950.2
956.8225	2284.3414	1851.85	960.8
956.9553	2285.7914	1834.3	943.75
957.088	2287.2406	1847.3	955.95
957.2207	2288.689	1843.55	951.5
957.3534	2290.1368	1847.4	953.95
957.486	2291.5838	1841.15	945.6
957.6186	2293.0302	1845.15	947.95
957.7512	2294.4758	1829.2	934.95
957.8838	2295.9206	1821.85	929.35
958.0163	2297.3648	1821.35	930.25
958.1488	2298.8082	1817.35	926
958.2813	2300.251	1824.9	931.85
958.4137	2301.693	1823.5	927.95
958.5461	2303.1343	1824.25	930.7
958.6785	2304.5748	1813.7	921.9
958.8108	2306.0147	1814.55	924.2
958.9432	2307.4538	1808.05	916.6
959.0754	2308.8922	1800	914.4
959.2077	2310.3299	1803.5	914.2
959.3399	2311.7669	1794.3	906.7
959.4721	2313.2031	1794.8	904.9
959.6043	2314.6387	1799.05	906.1
959.7365	2316.0735	1793.25	904.4
959.8686	2317.5076	1796.4	905.9
960.0006	2318.941	1793.3	900.95
960.1327	2320.3737	1784.4	890.45
960.2647	2321.8056	1783.75	890.5
960.3967	2323.2369	1791.6	897.6
960.5287	2324.6674	1776.1	884.15
960.6606	2326.0972	1775.75	882.7
960.7925	2327.5263	1775.8	884.35
960.9244	2328.9547	1774.35	880.4
961.0562	2330.3823	1771.1	877.85
961.1881	2331.8092	1780	882.65
961.3198	2333.2355	1771.9	876.8
961.4516	2334.661	1766.45	872.5
961.5833	2336.0858	1756.95	863.75
961.715	2337.5098	1765.55	873.65
961.8467	2338.9332	1765.85	873.15
961.9783	2340.3558	1757.3	863.9
962.1099	2341.7778	1745.15	853.75
962.2415	2343.199	1740.55	848.75
962.373	2344.6195	1752.7	861
962.5045	2346.0393	1753.5	862.9
962.636	2347.4583	1745.4	853.05
962.7675	2348.8767	1742.65	849.9
962.8989	2350.2943	1754.25	860.9
963.0303	2351.7113	1747.05	850.3
963.1617	2353.1275	1743.25	847.1
963.293	2354.543	1754.5	850.9
963.4243	2355.9578	1734.55	842.1
963.5556	2357.3718	1728	838.95
963.6868	2358.7852	1733.2	842.75
963.818	2360.1978	1730.2	837.2
963.9492	2361.6098	1726.7	835.5
964.0803	2363.021	1731.75	837.55
964.2114	2364.4315	1714.05	822.45
964.3425	2365.8413	1726.65	834.1
964.4736	2367.2504	1717.05	827.8
964.6046	2368.6587	1709.7	821.7
964.7356	2370.0664	1708.4	816.55
964.8666	2371.4733	1714.25	822.65
964.9975	2372.8795	1715.4	820.7
965.1284	2374.285	1702.2	809.05
965.2593	2375.6899	1698.9	809.3
965.3901	2377.0939	1700.5	811.7
965.5209	2378.4973	1704.95	816.1
965.6517	2379.9	1697.45	805.45
965.7825	2381.3019	1697.2	804.75
965.9132	2382.7032	1683.5	794.1
966.0439	2384.1037	1683.1	795.65
966.1745	2385.5035	1685.6	797.1
966.3051	2386.9027	1671.45	783.7
966.4357	2388.3011	1681.35	789.3
966.5663	2389.6987	1672.8	781.1
966.6968	2391.0957	1670.95	783.25
966.8273	2392.492	1679.5	788.7
966.9578	2393.8876	1662.05	769.9
967.0882	2395.2824	1664.1	773.55
967.2186	2396.6765	1659.95	769.2
967.349	2398.07	1654.7	763.95
967.4793	2399.4627	1657.3	763.7
967.6097	2400.8547	1657.7	763.55
967.7399	2402.246	1657	759.4
967.8702	2403.6366	1646.15	753.55
968.0004	2405.0265	1644.4	754.85
968.1306	2406.4156	1644.85	751.3
968.2607	2407.8041	1648.95	754.05
968.3909	2409.1918	1641.5	745.75
968.521	2410.5789	1634.05	742.4
968.651	2411.9652	1632.25	737.5
968.781	2413.3508	1649.4	759.1
968.911	2414.7358	1634.3	739.3
969.041	2416.12	1632.85	739.9
969.1709	2417.5035	1634.75	743.75
969.3008	2418.8863	1631.8	738.9
969.4307	2420.2684	1636.55	747
969.5606	2421.6497	1623.45	731.2
969.6904	2423.0304	1618.3	729.15
969.8201	2424.4104	1621.15	730.3
969.9499	2425.7896	1630.35	732.45
970.0796	2427.1682	1626.05	736.45
970.2093	2428.546	1622.2	728.55
970.3389	2429.9232	1612.9	718.4
970.4685	2431.2996	1609.85	718.95
970.5981	2432.6753	1616.95	723.7
970.7277	2434.0503	1606.85	714.8
970.8572	2435.4246	1604.25	713
970.9867	2436.7982	1606.3	712.05
971.1161	2438.1711	1599.7	707.1
971.2456	2439.5433	1595.2	704.2
971.375	2440.9148	1604.9	706.4
971.5043	2442.2856	1589.4	698.9
971.6336	2443.6557	1592.3	699.6
971.7629	2445.025	1586.05	695.3
971.8922	2446.3937	1581.35	689.15
972.0214	2447.7617	1585.65	691.55
972.1506	2449.1289	1581.4	688.9
972.2798	2450.4955	1584.2	689.55
972.4089	2451.8613	1577.35	686.8
972.538	2453.2265	1580.7	689.75
972.6671	2454.5909	1577	685.8
972.7961	2455.9546	1564.2	675.5
972.9251	2457.3177	1565.05	673.95
973.0541	2458.68	1567.3	674.65
973.1831	2460.0416	1568.85	677.65
973.312	2461.4025	1572.55	680.75
973.4408	2462.7627	1577.4	676.35
973.5697	2464.1222	1567.7	679.55
973.6985	2465.4811	1569.8	679.3
973.8273	2466.8392	1558.9	668.7
973.956	2468.1966	1575.35	681.8
974.0847	2469.5533	1566.9	674.2
974.2134	2470.9093	1560.15	668.5
974.3421	2472.2645	1565.75	673.4
974.4707	2473.6191	1558.15	669.6
974.5993	2474.973	1562.55	671.25
974.7278	2476.3262	1554.5	662.35
974.8563	2477.6787	1554.15	664
974.9848	2479.0305	1547.55	656.8
975.1132	2480.3816	1548.05	656.85
975.2417	2481.7319	1552.35	662.05
975.37	2483.0816	1546.65	655.25
975.4984	2484.4306	1541.15	650.45
975.6267	2485.7789	1539.15	650.45
975.755	2487.1264	1539.8	647.6
975.8833	2488.4733	1533.55	643.15
976.0115	2489.8195	1547.6	641.1
976.1397	2491.165	1532.65	639.5
976.2678	2492.5097	1540.55	650.9
976.3959	2493.8538	1527.4	637.25
976.524	2495.1972	1527.9	635.6
976.6521	2496.5398	1528.15	636
976.7801	2497.8818	1526.05	632.7
976.9081	2499.2231	1518.2	624.75
977.036	2500.5637	1526.9	633.6
977.164	2501.9035	1518.9	626.55
977.2918	2503.2427	1521.05	626.55
977.4197	2504.5812	1516.55	625.2
977.5475	2505.919	1516.3	622.55
977.6753	2507.256	1518.15	627.3
977.8031	2508.5924	1504.75	613.25
977.9308	2509.9281	1518.05	622.15
978.0585	2511.2631	1505.5	615.6
978.1861	2512.5974	1508.05	619.55
978.3137	2513.9309	1502.45	611.7
978.4413	2515.2638	1535.45	615.1
978.5689	2516.596	1510.35	621
978.6964	2517.9275	1502.85	609.75
978.8239	2519.2583	1498.2	605.2
978.9513	2520.5884	1499.3	607.6
979.0788	2521.9178	1497.2	606.5
979.2062	2523.2465	1487.55	598.3
979.3335	2524.5745	1487.75	597.1
979.4608	2525.9018	1488.7	594.55
979.5881	2527.2284	1494.35	603.05
979.7154	2528.5543	1484.85	595.8
979.8426	2529.8796	1493.4	601.65
979.9698	2531.2041	1487.9	598.7
980.0969	2532.5279	1480.75	590.5
980.224	2533.851	1482.65	589.75
980.3511	2535.1735	1487.9	599.4
980.4781	2536.4952	1482.9	591.4
980.6052	2537.8163	1488.6	597.8
980.7321	2539.1366	1485.6	595.2
980.8591	2540.4562	1482.25	590.05
980.986	2541.7752	1487.65	598.55
981.1129	2543.0935	1474.1	582.35
981.2397	2544.411	1476.7	584.05
981.3665	2545.7279	1481.3	588.1
981.4933	2547.0441	1476.15	586.15
981.62	2548.3596	1472.35	578.65
981.7467	2549.6744	1470.95	580.85
981.8734	2550.9885	1490.75	592.35
982.0001	2552.3019	1478.65	587.4
982.1267	2553.6146	1477.2	585.3
982.2532	2554.9266	1466.25	575.85
982.3798	2556.2379	1468.6	577.2
982.5063	2557.5485	1469.05	580.15
982.6327	2558.8585	1463.35	564.45
982.7592	2560.1677	1467.15	571.1
982.8856	2561.4762	1462	570.45
983.0119	2562.7841	1454.65	560.1
983.1383	2564.0913	1461.1	571.6
983.2646	2565.3977	1458.5	567.35
983.3908	2566.7035	1458	564.95
983.517	2568.0086	1465.1	572.35
983.6432	2569.313	1460.75	570.35
983.7694	2570.6167	1464.7	570.1
983.8955	2571.9197	1456.3	565.6
984.0216	2573.222	1464.7	571
984.1476	2574.5236	1456.85	565.5
984.2737	2575.8246	1452.2	559.7
984.3996	2577.1248	1457.45	562.8
984.5256	2578.4244	1447.95	556.9
984.6515	2579.7232	1460.35	571.8
984.7774	2581.0214	1480.35	558.9
984.9032	2582.3189	1454.5	565.9
985.029	2583.6157	1453.85	558.85
985.1548	2584.9118	1453.2	560.25
985.2806	2586.2072	1456.4	567.25
985.4063	2587.5019	1448.6	557.55
985.5319	2588.7959	1450.2	557.9
985.6576	2590.0893	1451.9	558.05
985.7832	2591.3819	1454.95	565.75
985.9087	2592.6739	1453	563.8
986.0343	2593.9652	1458.8	567.15
986.1597	2595.2557	1454.55	564.55
986.2852	2596.5456	1451.55	560.05
986.4106	2597.8348	1456.65	567.8
986.536	2599.1234	1448.2	561.5
986.6614	2600.4112	1453.25	562.4
986.7867	2601.6983	1462.75	570.45
986.912	2602.9848	1447.25	557
987.0372	2604.2705	1452.9	555.5
987.1624	2605.5556	1444.85	555.25
987.2876	2606.84	1452.55	562.2
987.4128	2608.1237	1444.5	556.3
987.5379	2609.4067	1453	565.25
987.6629	2610.689	1455.1	557.8
987.788	2611.9707	1435.05	539.55
987.913	2613.2516	1444.45	549.15
988.0379	2614.5319	1435.45	546.5
988.1629	2615.8115	1431.05	539.3
988.2878	2617.0903	1428	537.75
988.4126	2618.3685	1426.5	538.1
988.5375	2619.6461	1430.8	543.35
988.6622	2620.9229	1425.8	538.25
988.787	2622.199	1418.75	529.4
988.9117	2623.4745	1422.35	533.85
989.0364	2624.7493	1421.1	533.1
989.161	2626.0234	1416.25	527.85
989.2857	2627.2968	1416.2	527.05
989.4102	2628.5695	1417.05	525.45
989.5348	2629.8415	1413.05	524.3
989.6593	2631.1128	1420.05	530.45
989.7837	2632.3835	1420.65	532.15
989.9082	2633.6535	1417.35	530.7
990.0326	2634.9228	1412.3	525.75
990.1569	2636.1914	1412.4	524.65
990.2812	2637.4593	1410.95	518.3
990.4055	2638.7265	1413.05	522.7
990.5298	2639.9931	1406.4	517.9
990.654	2641.259	1406.4	517.15
990.7782	2642.5242	1410.5	520.1
990.9023	2643.7887	1403.15	513.65
991.0264	2645.0525	1398.35	509.05
991.1505	2646.3156	1404.3	515.4
991.2745	2647.5781	1399	510.25
991.3985	2648.8398	1399.55	512.8
991.5225	2650.1009	1425.7	499.85
991.6464	2651.3613	1394.3	506.35
991.7703	2652.6211	1394.15	506.25
991.8942	2653.8801	1392.05	504.2
992.018	2655.1385	1395.65	505.55
992.1418	2656.3961	1388.45	501.65
992.2655	2657.6531	1392.4	505.25
992.3892	2658.9094	1392.9	503.9
992.5129	2660.1651	1391.45	503.95
992.6366	2661.42	1391.9	503.75
992.7602	2662.6743	1394.6	506.7
992.8837	2663.9279	1399.4	513.5
993.0073	2665.1808	1395.4	505.9
993.1307	2666.433	1395.05	507.2
993.2542	2667.6846	1399.65	512.35
993.3776	2668.9354	1402.3	510.7
993.501	2670.1856	1409.85	520.75
993.6244	2671.4351	1407.15	519.7
993.7477	2672.6839	1408.3	518.45
993.8709	2673.9321	1410.65	522.25
993.9942	2675.1795	1408.25	517.65
994.1174	2676.4263	1418.5	531.15
994.2405	2677.6724	1410.85	523.1
994.3637	2678.9179	1408.15	518.8
994.4868	2680.1626	1410.2	522.8
994.6098	2681.4067	1413.6	527.05
994.7328	2682.6501	1413.1	525.75
994.8558	2683.8928	1407.35	521.55
994.9788	2685.1348	1396.05	509.45
995.1017	2686.3761	1397.15	509.2
995.2245	2687.6168	1393.2	504.85
995.3474	2688.8568	1392.55	506.3
995.4702	2690.0961	1380.95	493.75
995.5929	2691.3348	1376.6	489.2
995.7156	2692.5727	1384.65	494.95
995.8383	2693.81	1385.65	495.8
995.961	2695.0466	1389.5	502.8
996.0836	2696.2826	1384.2	492.45
996.2062	2697.5178	1389.05	498.35
996.3287	2698.7524	1379.35	492
996.4512	2699.9863	1388.25	498.85
996.5737	2701.2195	1387	500.65
996.6961	2702.452	1396.85	508.25
996.8185	2703.6839	1397.5	511.1
996.9408	2704.9151	1396.15	508.6
997.0631	2706.1456	1411.05	520.95
997.1854	2707.3755	1407.8	519.15
997.3077	2708.6046	1414.3	524.7
997.4299	2709.8331	1417.4	529
997.552	2711.0609	1428.15	541.8
997.6742	2712.2881	1433.5	547.2
997.7963	2713.5145	1445.8	557.2
997.9183	2714.7403	1447.35	560.3
998.0403	2715.9654	1447.05	559
998.1623	2717.1899	1469.9	567.75
998.2842	2718.4136	1472.45	585.85
998.4062	2719.6367	1482.35	593.8
998.528	2720.8591	1495.45	602.7
998.6498	2722.0809	1507.45	619.75
998.7716	2723.3019	1522.75	634.1
998.8934	2724.5223	1513.5	625.7
999.0151	2725.7421	1532.95	644.3
999.1368	2726.9611	1528.85	640.15
999.2584	2728.1795	1520.5	630.1
999.38	2729.3972	1517.8	629.7
999.5016	2730.6142	1509.25	615.05
999.6231	2731.8306	1489.95	602.35
999.7446	2733.0462	1483.3	591.75
999.8661	2734.2612	1471.4	580.5
999.9875	2735.4756	1450	562.75
1000.1089	2736.6892	1437.8	552.35
1000.2302	2737.9022	1422.6	537.85
1000.3515	2739.1145	1416.95	530.7
1000.4728	2740.3262	1412	518.3
1000.594	2741.5372	1396	507.5
1000.7152	2742.7475	1390.2	503.1
1000.8363	2743.9571	1387.7	498.9
1000.9575	2745.1661	1379.2	488.2
1001.0785	2746.3744	1367.7	478.25
1001.1996	2747.582	1356.2	470.25
1001.3206	2748.7889	1349.45	461.05
1001.4415	2749.9952	1345.95	459.75
1001.5625	2751.2008	1343.4	456.3
1001.6833	2752.4057	1334.05	444.5
1001.8042	2753.61	1333.2	445.5
1001.925	2754.8136	1326.25	436.8
1002.0458	2756.0165	1329.65	442.45
1002.1665	2757.2188	1326.5	443.4
1002.2872	2758.4204	1323.5	438.15
1002.4078	2759.6213	1332.3	445.15
1002.5285	2760.8215	1327.9	434.95
1002.649	2762.0211	1326.75	438.7
1002.7696	2763.22	1324.05	434.75
1002.8901	2764.4182	1326.35	440.15
1003.0106	2765.6158	1326.95	441.05
1003.131	2766.8127	1321.45	433.85
1003.2514	2768.009	1312.9	425.9
1003.3717	2769.2045	1319.7	432.75
1003.492	2770.3994	1309.45	417.9
1003.6123	2771.5936	1313.65	425.95
1003.7325	2772.7872	1297.05	412.6
1003.8527	2773.9801	1303.6	416.3
1003.9729	2775.1723	1313.3	410.75
1004.093	2776.3639	1297	410.9
1004.2131	2777.5548	1300.9	412.9
1004.3331	2778.745	1301.6	414.35
1004.4531	2779.9346	1300	414.1
1004.5731	2781.1235	1306.6	419.05
1004.693	2782.3117	1300.95	418.55
1004.8129	2783.4992	1301.35	416.9
1004.9328	2784.6861	1308.55	422.85
1005.0526	2785.8723	1307.9	421.75
1005.1723	2787.0579	1317.8	429.25
1005.2921	2788.2428	1311.7	424.35
1005.4118	2789.427	1315.45	428.65
1005.5314	2790.6106	1317.65	432.1
1005.651	2791.7935	1329.9	442.4
1005.7706	2792.9757	1331.25	445.45
1005.8902	2794.1573	1335.7	448.4
1006.0097	2795.3382	1341.85	456.75
1006.1291	2796.5184	1351.45	467.85
1006.2485	2797.698	1360.45	472.3
1006.3679	2798.8769	1371.05	485.85
1006.4873	2800.0551	1381.4	495.6
1006.6066	2801.2327	1388.35	499.65
1006.7258	2802.4096	1393.7	509.55
1006.8451	2803.5859	1407.35	522
1006.9642	2804.7615	1426.7	540.75
1007.0834	2805.9364	1437.25	554.25
1007.2025	2807.1106	1460.65	576.7
1007.3216	2808.2842	1480	593.6
1007.4406	2809.4572	1492.85	608.3
1007.5596	2810.6294	1526.05	637.85
1007.6785	2811.801	1561.55	677.5
1007.7975	2812.972	1596.3	711.25
1007.9163	2814.1423	1617.4	731.3
1008.0352	2815.3119	1659.6	775.35
1008.154	2816.4808	1703.3	817.3
1008.2727	2817.6491	1745.8	859.55
1008.3914	2818.8167	1793.15	909.35
1008.5101	2819.9837	1849.1	959.65
1008.6288	2821.15	1879.25	995.95
1008.7474	2822.3157	1950.25	1066.1
1008.8659	2823.4807	1995.15	1111.2
1008.9844	2824.645	2061.4	1172.35
1009.1029	2825.8086	2115.45	1230.3
1009.2214	2826.9716	2156.5	1273.15
1009.3398	2828.134	2217.9	1334.65
1009.4581	2829.2957	2262.05	1375.6
1009.5764	2830.4567	2288.95	1405.2
1009.6947	2831.617	2307.85	1422.9
1009.813	2832.7767	2323.1	1437.75
1009.9312	2833.9358	2326.9	1443.1
1010.0493	2835.0941	2315.25	1428.1
1010.1675	2836.2519	2298.8	1415.75
1010.2855	2837.4089	2284.6	1398.05
1010.4036	2838.5653	2266.4	1382.75
1010.5216	2839.7211	2246.9	1361.75
1010.6396	2840.8761	2242.2	1355.2
1010.7575	2842.0306	2253.8	1372.8
1010.8754	2843.1843	2275.35	1390.75
1010.9932	2844.3374	2296.45	1413.05
1011.111	2845.4899	2323.4	1437.25
1011.2288	2846.6417	2382.45	1498.5
1011.3465	2847.7928	2424.15	1539.75
1011.4642	2848.9433	2472.7	1588.7
1011.5818	2850.0931	2535.35	1650.8
1011.6995	2851.2422	2580.5	1693
1011.817	2852.3907	2624.9	1738.7
1011.9345	2853.5385	2669.7	1783.65
1012.052	2854.6857	2735.7	1824
1012.1695	2855.8323	2762.7	1879.05
1012.2869	2856.9781	2809.2	1924.4
1012.4042	2858.1233	2845.8	1960.3
1012.5216	2859.2679	2899.4	2015.3
1012.6389	2860.4118	2948.35	2063.2
1012.7561	2861.555	2986.35	2097.75
1012.8733	2862.6976	3033.15	2147.75
1012.9905	2863.8395	3070.45	2184.75
1013.1076	2864.9808	3099.75	2214.05
1013.2247	2866.1214	3113.7	2232
1013.3417	2867.2614	3127.45	2242.95
1013.4587	2868.4007	3136.55	2252.6
1013.5757	2869.5393	3150.5	2266.45
1013.6926	2870.6773	3172.75	2283.8
1013.8095	2871.8146	3187.7	2299.35
1013.9263	2872.9513	3173.35	2287.05
1014.0431	2874.0874	3188.85	2301.55
1014.1599	2875.2227	3167.55	2280.6
1014.2766	2876.3574	3160.55	2277.45
1014.3933	2877.4915	3130.65	2247.3
1014.51	2878.6249	3094.15	2210.55
1014.6266	2879.7577	3083.9	2200.1
1014.7431	2880.8898	3070.6	2176.2
1014.8596	2882.0212	3044.85	2160.05
1014.9761	2883.152	3033.75	2148.75
1015.0925	2884.2821	3026.05	2143
1015.2089	2885.4116	3016.55	2134
1015.3253	2886.5405	3022.7	2139.15
1015.4416	2887.6686	3029.5	2142.1
1015.5579	2888.7962	3035.35	2152.25
1015.6741	2889.923	3034.5	2151.8
1015.7903	2891.0493	3045.9	2164.35
1015.9065	2892.1748	3063.45	2180.7
1016.0226	2893.2997	3061.55	2176.5
1016.1387	2894.424	3075.5	2193.2
1016.2547	2895.5476	3101.65	2218.5
1016.3707	2896.6706	3103.8	2220
1016.4866	2897.7929	3139.15	2253.25
1016.6025	2898.9145	3161.6	2276.8
1016.7184	2900.0355	3165	2281.35
1016.8342	2901.1559	3206	2321.05
1016.95	2902.2756	3229.9	2340.7
1017.0658	2903.3946	3255.1	2371.25
1017.1815	2904.513	3281.15	2394.3
1017.2971	2905.6308	3309.95	2428.65
1017.4127	2906.7479	3318.25	2432.5
1017.5283	2907.8643	3339.15	2455.6
1017.6439	2908.9801	3341.1	2458.9
1017.7594	2910.0953	3359.25	2476.05
1017.8748	2911.2098	3357.75	2471.05
1017.9902	2912.3236	3361.2	2470.7
1018.1056	2913.4368	3339.65	2454.7
1018.2209	2914.5494	3318.9	2433.4
1018.3362	2915.6613	3301.55	2412.65
1018.4515	2916.7725	3269.25	2381.25
1018.5667	2917.8831	3250.65	2365.5
1018.6819	2918.9931	3221.65	2335.3
1018.797	2920.1024	3189.45	2303.45
1018.9121	2921.211	3166.9	2282.4
1019.0271	2922.319	3147.15	2263.05
1019.1421	2923.4264	3158.95	2277.1
1019.2571	2924.5331	3131.1	2249.2
1019.372	2925.6391	3139.3	2257.5
1019.4869	2926.7445	3133.75	2250.9
1019.6017	2927.8493	3141.9	2258.85
1019.7165	2928.9534	3156.15	2273.6
1019.8313	2930.0569	3160.55	2274.9
1019.946	2931.1597	3170.75	2286
1020.0606	2932.2619	3173.5	2289.35
1020.1753	2933.3634	3165.75	2283.15
1020.2899	2934.4643	3182.6	2293
1020.4044	2935.5645	3189.7	2300.4
1020.5189	2936.6641	3159.05	2270
1020.6334	2937.763	3135.65	2253.05
1020.7478	2938.8613	3107.15	2224.4
1020.8622	2939.959	3075.3	2186.95
1020.9765	2941.056	3009.25	2127.9
1021.0908	2942.1523	2945.25	2061.5
1021.2051	2943.248	2885.05	2000.7
1021.3193	2944.3431	2799.8	1919.15
1021.4334	2945.4375	2709.75	1823.15
1021.5476	2946.5313	2634.6	1752.2
1021.6617	2947.6244	2536.05	1654.2
1021.7757	2948.7169	2452.8	1569.25
1021.8897	2949.8087	2379.5	1495.7
1022.0037	2950.8999	2304.45	1419.25
1022.1176	2951.9904	2216.15	1334
1022.2315	2953.0803	2163.65	1282.4
1022.3453	2954.1696	2111.85	1228.1
1022.4591	2955.2582	2076	1195.05
1022.5728	2956.3462	2023.6	1139.05
1022.6865	2957.4335	1995.75	1111.75
1022.8002	2958.5202	1964.6	1077.4
1022.9138	2959.6062	1940.55	1056.65
1023.0274	2960.6916	1913.85	1031.25
1023.141	2961.7764	1900.15	1017.6
1023.2545	2962.8605	1878.6	994.45
1023.3679	2963.9439	1872.95	989.95
1023.4813	2965.0267	1861	977.65
1023.5947	2966.1089	1888.05	980.9
1023.708	2967.1905	1848.95	966.25
1023.8213	2968.2714	1850.8	968.7
1023.9346	2969.3516	1849.85	966.75
1024.0478	2970.4312	1856.2	965.9
1024.1609	2971.5102	1848.45	966.4
1024.274	2972.5885	1860.1	978.75
1024.3871	2973.6662	1866.75	979.15
1024.5002	2974.7432	1864.8	981.75
1024.6132	2975.8196	1863.3	979
1024.7261	2976.8954	1849.95	966.35
1024.839	2977.9705	1838.55	957.55
1024.9519	2979.045	1833.45	952.55
1025.0647	2980.1188	1822.8	940.95
1025.1775	2981.192	1812.35	931.35
1025.2902	2982.2645	1798.9	915.95
1025.4029	2983.3364	1769.6	888.6
1025.5156	2984.4077	1752.9	869.25
1025.6282	2985.4783	1750.3	860.1
1025.7407	2986.5483	1706.25	823.05
1025.8532	2987.6177	1675.25	793
1025.9657	2988.6864	1650.85	769.2
1026.0782	2989.7545	1616.6	733.6
1026.1906	2990.8219	1589.15	705.4
1026.3029	2991.8887	1559.95	675.3
1026.4152	2992.9548	1534.3	650.75
1026.5275	2994.0204	1499.8	619.25
1026.6397	2995.0852	1482.1	599.2
1026.7519	2996.1495	1461.15	579.7
1026.864	2997.2131	1431.7	550
1026.9761	2998.276	1409.75	529.2
1027.0882	2999.3383	1386.1	502.4
1027.2002	3000.4	1366.7	484.05
1027.3122	3001.4611	1352.7	470.4
1027.4241	3002.5215	1335.4	453.8
1027.536	3003.5812	1330.35	447.1
1027.6478	3004.6404	1313.35	429.35
1027.7596	3005.6989	1297.9	415.7
1027.8714	3006.7567	1285.55	403
1027.9831	3007.8139	1310.4	397.75
1028.0947	3008.8705	1268.7	387.05
1028.2064	3009.9264	1269.1	385.3
1028.3179	3010.9818	1259.05	376.75
1028.4295	3012.0364	1249.75	367.5
1028.541	3013.0905	1243.75	359.7
1028.6524	3014.1439	1239.35	356.95
1028.7638	3015.1966	1230.6	347.45
1028.8752	3016.2487	1222	342
1028.9865	3017.3002	1223.15	336.8
1029.0978	3018.3511	1217.3	336.7
1029.209	3019.4013	1216.85	335.35
1029.3202	3020.4509	1213.95	331.2
1029.4314	3021.4998	1207.95	324.3
1029.5425	3022.5481	1208.5	326.05
1029.6535	3023.5958	1208.5	326.05
1029.7645	3024.6428	1207.7	325.2
1029.8755	3025.6892	1207.2	327.95
1029.9864	3026.735	1201.75	318.25
1030.0973	3027.7802	1207.75	325.75
1030.2082	3028.8247	1207.55	326.95
1030.319	3029.8685	1206.7	324.8
1030.4297	3030.9118	1208.05	324.55
1030.5404	3031.9544	1200.85	318.15
1030.6511	3032.9963	1206.5	323.4
1030.7617	3034.0376	1209.45	328.15
1030.8723	3035.0783	1207	320.4
1030.9829	3036.1184	1207.3	325.3
1031.0934	3037.1578	1219.2	338.7
1031.2038	3038.1966	1215.75	331.7
1031.3142	3039.2348	1216.45	335.35
1031.4246	3040.2723	1217.8	327.2
1031.5349	3041.3092	1217.7	336.5
1031.6452	3042.3455	1215.3	333.55
1031.7554	3043.3811	1214.4	332.6
1031.8656	3044.4161	1218.7	335.1
1031.9758	3045.4505	1209.8	329.05
1032.0859	3046.4842	1213.5	331.2
1032.1959	3047.5173	1203.9	323
1032.3059	3048.5498	1207.65	324.9
1032.4159	3049.5816	1211.25	329.85
1032.5258	3050.6128	1202.25	319.05
1032.6357	3051.6434	1203.1	320.15
1032.7455	3052.6734	1200.05	318.3
1032.8553	3053.7027	1191.2	309.4
1032.9651	3054.7314	1195.75	314.4
1033.0748	3055.7594	1196	314.3
1033.1845	3056.7868	1193.3	310
1033.2941	3057.8136	1196.25	314.95
1033.4037	3058.8398	1190.85	309.5
1033.5132	3059.8653	1187.5	306.35
1033.6227	3060.8902	1188.6	306.65
1033.7321	3061.9145	1186.75	305.3
1033.8415	3062.9381	1177.15	295.65
1033.9509	3063.9612	1198.5	303.6
1034.0602	3064.9835	1182.85	301.3
1034.1694	3066.0053	1179.45	295
1034.2787	3067.0264	1167.65	286.15
1034.3878	3068.0469	1169.4	285.4
1034.497	3069.0668	1161	274.35
1034.6061	3070.086	1166.25	285
1034.7151	3071.1046	1160.15	277.8
1034.8241	3072.1226	1160.8	278.7
1034.9331	3073.1399	1152.7	271.1
1035.042	3074.1567	1145.05	264.1
1035.1508	3075.1727	1139.55	255.95
1035.2597	3076.1882	1138.1	256.45
1035.3684	3077.203	1132.15	250.45
1035.4772	3078.2173	1126.5	244.95
1035.5859	3079.2308	1119.5	231.4
1035.6945	3080.2438	1118.15	234.25
1035.8031	3081.2561	1107.75	224.75
1035.9117	3082.2678	1100.6	219.2
1036.0202	3083.2789	1094.75	211.9
1036.1286	3084.2893	1094.2	212.8
1036.2371	3085.2991	1088.25	207.9
1036.3454	3086.3083	1088.9	203.95
1036.4538	3087.3169	1080.6	197.15
1036.562	3088.3248	1082.15	198.95
1036.6703	3089.3321	1071.2	189.25
1036.7785	3090.3388	1066.7	184.45
1036.8866	3091.3449	1065.6	183.1
1036.9948	3092.3503	1065.5	179.65
1037.1028	3093.3551	1055.5	177.7
1037.2108	3094.3593	1057.2	178
1037.3188	3095.3629	1051.65	171.45
1037.4267	3096.3658	1051.55	166.95
1037.5346	3097.3681	1047.7	167.2
1037.6425	3098.3698	1050.1	167.8
1037.7503	3099.3708	1055.05	167.4
1037.858	3100.3713	1043.05	162.8
1037.9657	3101.3711	1041.65	159.3
1038.0734	3102.3702	1154.05	155.85
1038.181	3103.3688	1037.3	155.3
1038.2886	3104.3667	1034.8	153.8
1038.3961	3105.364	1030.35	150.3
1038.5036	3106.3607	1032.65	149.25
1038.611	3107.3568	1027.65	146.35
1038.7184	3108.3522	1027.2	147.8
1038.8257	3109.347	1024.4	142.05
1038.933	3110.3412	1023.65	136.9
1039.0403	3111.3348	1022.25	141.3
1039.1475	3112.3277	1014.6	134.9
1039.2547	3113.32	1019.9	138.8
1039.3618	3114.3117	1019.75	139.55
1039.4689	3115.3028	1011.55	133.25
1039.5759	3116.2932	1013.15	130.3
1039.6829	3117.2831	1014	128
1039.7898	3118.2723	1009.35	127.85
1039.8967	3119.2608	1009.75	125.7
1040.0035	3120.2488	1005.1	125.1
1040.1103	3121.2361	1005.5	125.05
1040.2171	3122.2229	1001.4	119.5
1040.3238	3123.209	1001.3	120.75
1040.4305	3124.1944	999.15	119.35
1040.5371	3125.1793	1005	122.1
1040.6437	3126.1635	996.25	116.25
1040.7502	3127.1471	995.95	116.95
1040.8567	3128.1301	995	112.55
1040.9631	3129.1125	993.6	114.7
1041.0695	3130.0942	993.4	110.55
1041.1759	3131.0753	1001.25	111.5
1041.2822	3132.0558	993.8	110.3
1041.3884	3133.0357	993.25	112.35
1041.4946	3134.015	994.35	111.7
1041.6008	3134.9936	988.65	107.5
1041.7069	3135.9716	1007.8	104.75
1041.813	3136.949	986.65	106.6
1041.919	3137.9258	1007.15	109.95
1042.025	3138.902	990.8	105.7
1042.1309	3139.8775	982.55	100.65
1042.2368	3140.8524	982.65	102.7
1042.3427	3141.8267	986.25	102.6
1042.4485	3142.8004	979.1	98.05
1042.5542	3143.7735	986	98.1
1042.6599	3144.7459	981.6	100.45
1042.7656	3145.7178	979.55	97.05
1042.8712	3146.689	978.85	97.95
1042.9768	3147.6596	977.8	94.45
1043.0823	3148.6295	976.15	96.55
1043.1878	3149.5989	979.75	98.6
1043.2932	3150.5676	973.25	94.3
1043.3986	3151.5357	976.6	97.15
1043.5039	3152.5032	972.75	93.05
1043.6092	3153.4701	976.7	95.85
1043.7145	3154.4364	977.05	94.4
1043.8197	3155.402	969.75	89.1
1043.9248	3156.367	976.8	95.85
1044.03	3157.3315	1007.05	87.4
1044.135	3158.2952	967.8	86.7
1044.24	3159.2584	967.9	87.75
1044.345	3160.221	965.65	83.25
1044.4499	3161.1829	969.6	88.9
1044.5548	3162.1442	967.8	87.65
1044.6596	3163.105	969	89.3
1044.7644	3164.065	964.35	82.35
1044.8692	3165.0245	966.75	82.4
1044.9739	3165.9834	966	86.8
1045.0785	3166.9416	963.8	82.2
1045.1831	3167.8993	964.25	81.95
1045.2877	3168.8563	964.1	81.5
1045.3922	3169.8127	960.5	80.2
1045.4966	3170.7684	962.85	80.65
1045.6011	3171.7236	962.2	82.3
1045.7054	3172.6782	961.85	80.7
1045.8098	3173.6321	961.35	79.65
1045.914	3174.5854	962.5	77.1
1046.0183	3175.5381	959.85	79.1
1046.1224	3176.4902	958.35	77.05
1046.2266	3177.4417	957.15	75.65
1046.3307	3178.3926	957.4	76.05
1046.4347	3179.3428	958.6	80.35
1046.5387	3180.2924	958	77.6
1046.6427	3181.2415	957.05	78.95
1046.7466	3182.1899	954.65	72.55
1046.8504	3183.1377	955.25	75.6
1046.9542	3184.0848	959.1	74.85
1047.058	3185.0314	950.7	69.7
1047.1617	3185.9773	954.4	72.55
1047.2654	3186.9227	952.95	70.85
1047.369	3187.8674	954.8	75.5
1047.4726	3188.8115	953.45	67.25
1047.5761	3189.755	951.6	72.2
1047.6796	3190.6979	950.85	71.05
1047.783	3191.6402	950.2	70.8
1047.8864	3192.5818	952.25	72.4
1047.9898	3193.5229	956.25	69.1
1048.0931	3194.4633	949.25	67.65
1048.1963	3195.4031	949.35	68.5
1048.2995	3196.3423	947.45	66.95
1048.4027	3197.2809	947.95	65.95
1048.5058	3198.2189	952.1	71.05
1048.6089	3199.1563	964.7	65.5
1048.7119	3200.0931	948.55	69.65
1048.8148	3201.0292	945.25	65.1
1048.9178	3201.9648	946.1	66.8
1049.0206	3202.8997	947.6	64.2
1049.1235	3203.834	946.1	65.6
1049.2262	3204.7677	946.45	65.55
1049.329	3205.7008	946.15	64.95
1049.4317	3206.6333	942.7	64.5
1049.5343	3207.5652	946.7	64
1049.6369	3208.4964	941.3	59.95
1049.7394	3209.4271	942.35	62.7
1049.8419	3210.3571	944.3	64.55
1049.9444	3211.2865	945	64.1
1050.0468	3212.2154	944.2	63.35
1050.1491	3213.1436	945.05	61.75
1050.2514	3214.0712	950.4	63.35
1050.3537	3214.9982	936.35	56.3
1050.4559	3215.9246	944.1	63.3
1050.5581	3216.8503	936.85	57.35
1050.6602	3217.7755	937.15	55.7
1050.7623	3218.7001	940.1	61.55
1050.8643	3219.624	937.25	53.6
1050.9663	3220.5473	942.15	62.85
1051.0682	3221.4701	940.95	59.75
1051.1701	3222.3922	940.85	59.75
1051.2719	3223.3137	938.65	59.35
1051.3737	3224.2346	939.05	58.85
1051.4754	3225.1549	938.85	58.3
1051.5771	3226.0746	938.45	58.6
1051.6788	3226.9937	936.2	53.6
1051.7804	3227.9121	937.85	59
1051.8819	3228.83	934.65	54.35
1051.9834	3229.7473	936.3	56.1
1052.0849	3230.6639	936.1	55.75
1052.1863	3231.5799	932.25	51.55
1052.2876	3232.4954	932.7	52.9
1052.3889	3233.4102	932.75	53.1
1052.4902	3234.3244	933.85	52.1
1052.5914	3235.238	932.05	50.95
1052.6926	3236.151	958.75	54.55
1052.7937	3237.0634	931.35	52.45
1052.8948	3237.9752	930.2	49.75
1052.9958	3238.8864	933.4	52.3
1053.0968	3239.797	931.4	53.35
1053.1977	3240.7069	929.95	49.25
1053.2986	3241.6163	931	50.95
1053.3994	3242.5251	929.05	50.95
1053.5002	3243.4332	930.95	50.35
1053.6009	3244.3408	930.55	49.65
1053.7016	3245.2477	928.75	48.7
1053.8022	3246.154	929.95	48.15
1053.9028	3247.0598	928.5	46.75
1054.0034	3247.9649	927.05	45.55
1054.1039	3248.8694	927.7	47.65
1054.2043	3249.7733	925.55	45
1054.3047	3250.6766	927.2	46
1054.4051	3251.5793	929.6	48.95
1054.5054	3252.4814	922.05	42.75
1054.6056	3253.3829	924.45	46.35
1054.7058	3254.2838	923.5	43.4
1054.806	3255.1841	924.5	46.55
1054.9061	3256.0838	924.35	45.45
1055.0061	3256.9829	921.3	42.35
1055.1062	3257.8814	927.2	44.8
1055.2061	3258.7792	924.75	42.9
1055.306	3259.6765	924.1	43.45
1055.4059	3260.5731	920.45	40.3
1055.5057	3261.4692	920.2	38.95
1055.6055	3262.3647	922.1	42.55
1055.7052	3263.2595	919.65	42.4
1055.8049	3264.1538	917.85	36.9
1055.9045	3265.0474	918.75	38.3
1056.0041	3265.9404	917.2	36.95
1056.1036	3266.8329	917.6	37.85
1056.2031	3267.7247	923.4	33.85
1056.3025	3268.616	914.15	35.05
1056.4019	3269.5066	915	37.65
1056.5013	3270.3966	914.4	31.9
1056.6005	3271.286	913.45	35.45
