Software Version:	3.9.2.0
Unit SN:	10000200
Spectrometer SN:	6960
Date:	3/8/2024 12:45:32 PM
Data Line Index:	25
Spectral Points:	2048
Integration time (ms):	125
Averages:	20
Delay (ms):	30000
Sequence Number:	1
Processing:	dark subtract
Laser Power (mW):	305
Laser Current (mA):	822
Laser Diode Temp (C):	25.1
Laser Case Temp (C):	26.1
System Temp (C):	26.1
Spectrometer Temp (C):	24
CCD Temp (C):	0.005
Secondary Temp (C):	20.013
Heatsink Temp (C):	21.057
CCDPCB Temp (C):	36.151
SecondaryPCB Temp (C):	30.271

Wavelength	RamanShift	Raw Counts	Dark Subtracted
787.061	30.1047	454.9	48.1
787.2016	32.3739	454.2	48.25
787.3422	34.6426	460.6	52.4
787.4828	36.9109	463.8	53.2
787.6235	39.1787	476.05	62.85
787.7642	41.4461	483.9	63.9
787.9049	43.7131	493.15	69.95
788.0456	45.9796	499.8	75.25
788.1863	48.2456	510.45	80.9
788.3271	50.5112	517.75	84.15
788.4679	52.7764	525.7	90.2
788.6087	55.0411	537.6	95.85
788.7496	57.3054	549.55	102.6
788.8904	59.5692	557.9	110.45
789.0313	61.8326	568.7	118.6
789.1722	64.0955	580.3	126.85
789.3132	66.3579	598.4	140.4
789.4541	68.6199	617.4	156.6
789.5951	70.8815	652.1	184.1
789.7361	73.1426	737	265
789.8771	75.4032	953.65	479.05
790.0181	77.6634	1483	1003.2
790.1592	79.9231	2722.95	2233.8
790.3003	82.1824	5388.15	4878.45
790.4414	84.4412	10140	9594.55
790.5825	86.6995	16629.45	16037.5
790.7237	88.9574	22885.9	22252.35
790.8648	91.2148	27111.7	26450.8
791.006	93.4717	28972.2	28292.85
791.1472	95.7282	29218.05	28535.05
791.2885	97.9842	28871.25	28182.2
791.4297	100.2398	28076.95	27380.05
791.571	102.4949	27190.3	26496.75
791.7123	104.7495	26199.45	25502.25
791.8536	107.0036	25262.4	24565.15
791.9949	109.2573	24427.9	23734.85
792.1363	111.5105	23626.65	22927.4
792.2777	113.7632	22910.55	22210.8
792.4191	116.0154	22371.15	21657.3
792.5605	118.2672	21957.95	21250.4
792.7019	120.5185	21501.45	20793.3
792.8434	122.7693	21190.8	20473.75
792.9849	125.0197	20933.1	20217.25
793.1264	127.2696	20677.55	19960.15
793.2679	129.519	20431.35	19706
793.4094	131.7679	20151.8	19421.35
793.551	134.0163	19870.05	19139.2
793.6926	136.2642	19523.25	18789.7
793.8342	138.5117	19169.15	18427.5
793.9758	140.7587	18770.2	18032.65
794.1175	143.0052	18417.4	17676.65
794.2591	145.2512	18018.65	17276.05
794.4008	147.4967	17689.95	16945.9
794.5425	149.7417	17451.5	16711.65
794.6842	151.9863	17292.15	16548.1
794.826	154.2304	17172.3	16422.3
794.9677	156.4739	17015.8	16257.4
795.1095	158.717	16873.45	16115.25
795.2513	160.9596	16711.35	15950.7
795.3931	163.2017	16434.7	15666.65
795.535	165.4433	16118.05	15352.35
795.6768	167.6844	15774.65	15008.4
795.8187	169.925	15467.45	14699.35
795.9606	172.1651	15114.45	14344.25
796.1025	174.4047	14838.25	14063.6
796.2445	176.6439	14586.65	13813.35
796.3864	178.8825	14369.95	13589.45
796.5284	181.1206	14252.3	13464.2
796.6704	183.3582	14097.5	13307.55
796.8124	185.5954	14007.55	13221.4
796.9544	187.832	13927	13131.7
797.0965	190.0681	13885.35	13089.15
797.2386	192.3037	13877.65	13075.15
797.3806	194.5388	13885.55	13079.9
797.5228	196.7734	13943.7	13132.95
797.6649	199.0075	14019.1	13206.35
797.807	201.2411	14101.2	13293.75
797.9492	203.4742	14201.05	13385.5
798.0914	205.7068	14357.95	13536.75
798.2336	207.9389	14480.85	13664.15
798.3758	210.1704	14620.3	13807.4
798.518	212.4015	14735.85	13933.95
798.6603	214.632	14895.35	14095.95
798.8025	216.862	15030.25	14235.5
798.9448	219.0915	15095	14302.5
799.0871	221.3205	15229	14433.75
799.2294	223.549	15337.75	14540.05
799.3718	225.777	15421.8	14630.85
799.5141	228.0044	15548.9	14745.55
799.6565	230.2314	15700.7	14906.45
799.7989	232.4578	15805.7	15008.9
799.9413	234.6837	15948.25	15136.5
800.0837	236.909	16036.8	15224.3
800.2262	239.1339	16037.3	15197.05
800.3687	241.3582	15965.25	15141.15
800.5111	243.582	15819.7	14963.85
800.6536	245.8053	15775.15	14933.75
800.7961	248.0281	15684.2	14848.45
800.9387	250.2503	15688.35	14850.6
801.0812	252.472	15736.9	14893.75
801.2238	254.6932	15854.3	15018.15
801.3664	256.9139	15926.65	15080.7
801.509	259.134	16160.9	15307.9
801.6516	261.3536	16361.15	15516.9
801.7942	263.5727	16709.8	15859.8
801.9369	265.7912	16929.1	16083.45
802.0795	268.0092	17238.4	16392.1
802.2222	270.2267	17461.95	16615.4
802.3649	272.4436	17576.05	16728.75
802.5076	274.6601	17594.4	16734.7
802.6504	276.8759	17507.1	16653.3
802.7931	279.0913	17429.1	16577.1
802.9359	281.3061	17258.1	16401.7
803.0787	283.5204	17224.55	16365.15
803.2215	285.7341	17222.95	16361.2
803.3643	287.9473	17269.35	16398.85
803.5071	290.16	17303.75	16439.4
803.6499	292.3721	17385.65	16527.5
803.7928	294.5837	17625.15	16767.75
803.9357	296.7947	17838.2	16982.1
804.0786	299.0052	17990.45	17129
804.2215	301.2152	17974.65	17113.35
804.3644	303.4246	17815.35	16957.7
804.5074	305.6334	17436.8	16581.55
804.6503	307.8418	17046.8	16181.7
804.7933	310.0495	16589.8	15725.95
804.9363	312.2568	16160.2	15293.3
805.0793	314.4635	15788.9	14920.75
805.2223	316.6696	15473.75	14605.85
805.3653	318.8752	15265.3	14386.45
805.5084	321.0802	15175.95	14303.75
805.6514	323.2847	15195.7	14321.9
805.7945	325.4887	15203.95	14329.8
805.9376	327.692	15208.35	14333.95
806.0807	329.8949	15154.75	14278.85
806.2238	332.0972	14967.75	14087.25
806.367	334.2989	14759.95	13877.25
806.5101	336.5001	14512.05	13634.9
806.6533	338.7007	14303.15	13418.6
806.7965	340.9008	14134.2	13254.6
806.9397	343.1003	13955.45	13070.3
807.0829	345.2992	13819.65	12935.2
807.2261	347.4976	13716.1	12832.55
807.3693	349.6955	13681.8	12788.7
807.5126	351.8927	13654.3	12761.65
807.6559	354.0895	13585.2	12681.95
807.7991	356.2856	13553.1	12659.35
807.9424	358.4812	13494.7	12601.4
808.0857	360.6763	13511.75	12620.9
808.2291	362.8707	13465.7	12572.25
808.3724	365.0646	13509.45	12612.55
808.5158	367.258	13564.4	12665.85
808.6591	369.4508	13625.4	12722.15
808.8025	371.643	13756.9	12853.45
808.9459	373.8346	13838.75	12933.45
809.0893	376.0257	13954.6	13044.1
809.2327	378.2162	13957.6	13054.25
809.3762	380.4062	13955.6	13049.55
809.5196	382.5956	13807.05	12903.3
809.6631	384.7844	13709.7	12817.1
809.8066	386.9726	13562.4	12669.5
809.9501	389.1603	13494.05	12603.2
810.0936	391.3474	13439.55	12522.5
810.2371	393.5339	13431.65	12531.1
810.3806	395.7199	13379.05	12481.95
810.5241	397.9052	13402.35	12505.35
810.6677	400.09	13491.85	12594.95
810.8113	402.2743	13645.15	12749.15
810.9548	404.4579	13804.8	12906.85
811.0984	406.641	14018.75	13120.2
811.2421	408.8235	14202.7	13304.45
811.3857	411.0054	14341.6	13438.45
811.5293	413.1868	14535.75	13623.55
811.673	415.3675	14625.4	13712.15
811.8166	417.5477	14587.45	13680.15
811.9603	419.7273	14559.65	13641.3
812.104	421.9064	14491.8	13573
812.2477	424.0848	14384.75	13472
812.3914	426.2627	14234.5	13323.95
812.5351	428.4399	14053.25	13140.1
812.6788	430.6166	13710.6	12794.35
812.8226	432.7928	13356.65	12442.65
812.9663	434.9683	13028.45	12113.65
813.1101	437.1432	12788.25	11872
813.2539	439.3176	12633.5	11728.6
813.3977	441.4914	12509.4	11610
813.5415	443.6645	12470.6	11565.15
813.6853	445.8371	12426.9	11515.85
813.8291	448.0091	12373.65	11462.1
813.973	450.1806	12359.65	11450.65
814.1168	452.3514	12347	11439.1
814.2607	454.5216	12403.5	11485.2
814.4046	456.6913	12360.05	11448.6
814.5485	458.8603	12391.65	11479.45
814.6924	461.0288	12460.6	11558.55
814.8363	463.1967	12441.3	11542
814.9802	465.3639	12484	11578.3
815.1241	467.5306	12466.95	11559.8
815.2681	469.6967	12478.25	11577.2
815.412	471.8622	12485.4	11581.95
815.556	474.0271	12573.85	11670
815.7	476.1914	12591.3	11675.6
815.844	478.3551	12604.2	11692.05
815.988	480.5182	12650.05	11743.2
816.132	482.6807	12719.5	11820.45
816.276	484.8426	12914.95	12025.75
816.4201	487.0039	13260.4	12360.15
816.5641	489.1647	13626.25	12719.1
816.7082	491.3248	13979.85	13067.65
816.8522	493.4843	14102.1	13200.25
816.9963	495.6432	14043.85	13139.1
817.1404	497.8015	13924.55	13006.95
817.2845	499.9592	13797.7	12871.55
817.4286	502.1163	13596.9	12675.45
817.5727	504.2728	13291.75	12378.2
817.7168	506.4287	12992.6	12091.05
817.861	508.5839	12671.65	11772.95
818.0051	510.7386	12476.4	11565.4
818.1493	512.8927	12389.1	11467.35
818.2935	515.0461	12356.9	11441.9
818.4377	517.199	12437.15	11518.05
818.5818	519.3512	12589.8	11667.8
818.726	521.5029	12909.1	11986.1
818.8703	523.6539	13113.5	12195.9
819.0145	525.8043	13267.2	12346.05
819.1587	527.9541	13162.7	12235.3
819.303	530.1033	12980.45	12056.55
819.4472	532.2519	12821.7	11900.35
819.5915	534.3999	12741.2	11814.5
819.7357	536.5472	12854.1	11934.35
819.88	538.694	13056.1	12142.7
820.0243	540.8401	13325.85	12403.6
820.1686	542.9856	13565.7	12633.5
820.3129	545.1305	13613.85	12676.4
820.4572	547.2748	13545.3	12600.5
820.6016	549.4185	13339.25	12396.1
820.7459	551.5615	13190.1	12248.8
820.8902	553.704	13210.65	12268.2
821.0346	555.8458	13266.6	12331.45
821.1789	557.987	13456.85	12528.7
821.3233	560.1276	13677.1	12738.8
821.4677	562.2675	14056.5	13124.9
821.6121	564.4069	14559.05	13625.2
821.7565	566.5456	15036.7	14107.95
821.9009	568.6837	15207.4	14278.75
822.0453	570.8212	14819.4	13893.8
822.1897	572.958	14156.25	13222.3
822.3342	575.0942	13464.55	12536.75
822.4786	577.2299	13011.9	12093.95
822.6231	579.3648	12770.1	11857.2
822.7675	581.4992	12694.8	11797.9
822.912	583.6329	12795.25	11898.7
823.0565	585.766	12961.45	12060.05
823.201	587.8985	13106.45	12198.25
823.3454	590.0304	13179.2	12232.4
823.4899	592.1616	13145	12207.15
823.6345	594.2922	13003.1	12068.95
823.779	596.4222	12858.4	11917.05
823.9235	598.5515	12641.3	11699.1
824.068	600.6802	12454.25	11517.85
824.2126	602.8083	12262	11325.3
824.3571	604.9358	12258.4	11324.3
824.5017	607.0626	12285.05	11343.8
824.6462	609.1888	12355.35	11408.35
824.7908	611.3144	12540.9	11594.05
824.9354	613.4393	12667.55	11725.65
825.08	615.5636	12768.4	11823.95
825.2246	617.6873	12777.3	11832.75
825.3692	619.8103	12716.5	11774.2
825.5138	621.9327	12523.15	11584.25
825.6584	624.0544	12288.85	11353.75
825.803	626.1756	12097.95	11160.9
825.9477	628.2961	11968.6	11027.45
826.0923	630.4159	11903.65	10961.05
826.237	632.5351	11860.9	10912.75
826.3816	634.6537	11846.2	10899.15
826.5263	636.7716	11838.4	10889.95
826.6709	638.8889	11856.75	10904
826.8156	641.0056	11900	10946
826.9603	643.1216	11883.15	10932.2
827.105	645.237	11838.6	10892.2
827.2497	647.3518	11748.6	10813.15
827.3944	649.4659	11677.3	10745.55
827.5391	651.5793	11594.4	10661.3
827.6838	653.6922	11581	10642.8
827.8285	655.8043	11549.75	10610.35
827.9733	657.9159	11544.75	10605.65
828.118	660.0268	11527.25	10587.25
828.2627	662.137	11535.8	10591
828.4075	664.2466	11566.55	10615.55
828.5522	666.3556	11552.1	10599.85
828.697	668.4639	11539.55	10598.2
828.8418	670.5716	11476.25	10538.55
828.9865	672.6786	11446	10498.7
829.1313	674.785	11384.95	10432.75
829.2761	676.8907	11346	10399.75
829.4209	678.9958	11346.85	10407.1
829.5657	681.1002	11324.4	10377.05
829.7105	683.204	11330.85	10372.2
829.8553	685.3072	11272.5	10319.9
830.0001	687.4097	11270.1	10321.35
830.1449	689.5115	11272.65	10319.7
830.2898	691.6127	11256.85	10312.3
830.4346	693.7132	11231.4	10291.9
830.5794	695.8131	11259.8	10293.05
830.7243	697.9123	11303.45	10347
830.8691	700.0109	11283.1	10324.8
831.014	702.1089	11327.7	10372.75
831.1588	704.2061	11391.2	10435.45
831.3037	706.3028	11462.5	10508.8
831.4486	708.3987	11525	10569.55
831.5935	710.4941	11529.65	10580.85
831.7383	712.5887	11584.5	10633
831.8832	714.6827	11659	10710.4
832.0281	716.7761	11805.15	10858.05
832.173	718.8688	11966.45	11017.4
832.3179	720.9608	12106.5	11149.8
832.4628	723.0522	12260.75	11294.85
832.6077	725.1429	12325.15	11362.9
832.7527	727.233	12381	11424.05
832.8976	729.3224	12426.85	11472.2
833.0425	731.4112	12344.15	11390.6
833.1874	733.4993	12243.7	11285.65
833.3324	735.5867	11994.75	11040
833.4773	737.6735	11778.9	10824.4
833.6222	739.7596	11553.05	10593.7
833.7672	741.845	11440	10486.7
833.9122	743.9298	11323.7	10367
834.0571	746.014	11303.8	10350.6
834.2021	748.0974	11286.35	10324.35
834.347	750.1802	11276.45	10317.3
834.492	752.2624	11295.05	10334.85
834.637	754.3439	11370.35	10408.5
834.782	756.4247	11496	10527.75
834.9269	758.5048	11643.55	10685.05
835.0719	760.5843	11958.55	10995.4
835.2169	762.6631	12363.8	11401.5
835.3619	764.7413	12941.95	11981.5
835.5069	766.8188	13688.3	12726.6
835.6519	768.8956	14275.05	13312.35
835.7969	770.9718	14684.15	13719.15
835.9419	773.0473	14600.55	13636.5
836.0869	775.1221	14324.45	13363.2
836.232	777.1962	14056.75	13089.85
836.377	779.2697	13954.55	12991.1
836.522	781.3426	14010.2	13035.6
836.667	783.4147	14161.8	13200.95
836.8121	785.4862	14180.05	13219.1
836.9571	787.557	14030.05	13064
837.1021	789.6271	13540.45	12574.5
837.2472	791.6966	12934.05	11969.45
837.3922	793.7654	12267.25	11300.3
837.5373	795.8335	11864.25	10901.5
837.6823	797.901	11557.35	10596
837.8274	799.9678	11380.9	10413.4
837.9724	802.0339	11305.35	10337.75
838.1175	804.0993	11253.25	10276.4
838.2626	806.1641	11166.4	10202.05
838.4076	808.2282	11108.95	10145
838.5527	810.2916	11015	10050.5
838.6978	812.3544	10969.35	10005.1
838.8428	814.4164	10903.15	9942.55
838.9879	816.4778	10928.95	9957.95
839.133	818.5385	10974.55	10006.2
839.2781	820.5986	11125.5	10158.45
839.4232	822.658	11385.85	10416.35
839.5682	824.7166	11705.95	10739.25
839.7133	826.7747	12248.1	11277.7
839.8584	828.832	12789.75	11822.5
840.0035	830.8886	13166.7	12197.7
840.1486	832.9446	13361.5	12388.35
840.2937	834.9999	13229.9	12264.35
840.4388	837.0545	12914.95	11942.5
840.5839	839.1085	12580.6	11611.3
840.729	841.1618	12240.5	11267.5
840.8741	843.2143	11969.35	11000.15
841.0192	845.2662	11764.75	10799.55
841.1643	847.3175	11638.75	10671.6
841.3095	849.368	11499.95	10533.4
841.4546	851.4179	11419.25	10451.95
841.5997	853.467	11321.05	10351.15
841.7448	855.5155	11235.5	10262.5
841.8899	857.5633	11176.7	10208.25
842.0351	859.6105	11054	10083.55
842.1802	861.6569	10993	10020.1
842.3253	863.7027	10894.75	9919.05
842.4704	865.7478	10895.3	9923.7
842.6156	867.7922	10834.9	9863.25
842.7607	869.8359	10841.35	9869.75
842.9058	871.8789	10876.5	9902
843.0509	873.9212	10915	9912.55
843.1961	875.9629	11005.1	10034.95
843.3412	878.0039	11115.25	10144.95
843.4863	880.0441	11200.35	10234.85
843.6315	882.0837	11274.5	10302.15
843.7766	884.1226	11311.15	10344.3
843.9218	886.1609	11344.6	10374.75
844.0669	888.1984	11469	10501.95
844.212	890.2352	11605.7	10634.3
844.3572	892.2714	11600.3	10626.4
844.5023	894.3069	11566.35	10597.9
844.6475	896.3416	11401.9	10432.7
844.7926	898.3757	11254.25	10281.25
844.9377	900.4091	11175.6	10198.9
845.0829	902.4418	11156.7	10179.5
845.228	904.4739	11169	10191.6
845.3732	906.5052	11246.2	10268.7
845.5183	908.5358	11205.7	10232.95
845.6635	910.5658	11072.6	10095.9
845.8086	912.595	10839.1	9866.15
845.9538	914.6236	10621.1	9647.85
846.0989	916.6515	10509.55	9540.35
846.2441	918.6786	10405.25	9426.2
846.3892	920.7051	10399.05	9423.95
846.5344	922.7309	10446.9	9470.95
846.6795	924.756	10427.7	9456.85
846.8246	926.7804	10544.05	9569.9
846.9698	928.8041	10528.4	9552.15
847.1149	930.8272	10604.6	9629.6
847.2601	932.8495	10568.1	9593.05
847.4052	934.8711	10553.25	9579.45
847.5504	936.892	10492.55	9519.9
847.6955	938.9123	10492.25	9514
847.8407	940.9318	10543.1	9568
847.9858	942.9506	10522.15	9548.25
848.131	944.9688	10462.85	9490.85
848.2761	946.9862	10361.45	9389.6
848.4213	949.003	10220.45	9247.55
848.5664	951.019	10128.6	9159.15
848.7115	953.0344	10049.95	9078.2
848.8567	955.0491	10050.65	9073.25
849.0018	957.063	10077.75	9103.95
849.147	959.0763	10164.85	9188.75
849.2921	961.0888	10175.45	9202.1
849.4373	963.1007	10230.5	9259.65
849.5824	965.1119	10251.55	9293.2
849.7275	967.1223	10247	9292.35
849.8727	969.1321	10229.8	9276.85
850.0178	971.1412	10203.1	9239.45
850.1629	973.1495	10198.5	9234
850.3081	975.1572	10254.5	9236.75
850.4532	977.1641	10222.8	9249.45
850.5983	979.1704	10206.35	9233.25
850.7435	981.1759	10200.75	9221.6
850.8886	983.1808	10192.25	9215.85
851.0337	985.1849	10246.9	9261.95
851.1788	987.1884	10281.25	9306.05
851.324	989.1911	10361.8	9390.3
851.4691	991.1932	10434.75	9464.4
851.6142	993.1945	10470.6	9500.95
851.7593	995.1951	10422.05	9446.45
851.9045	997.1951	10404.6	9426.25
852.0496	999.1943	10344.2	9370.8
852.1947	1001.1928	10346.1	9372
852.3398	1003.1906	10401.3	9427.2
852.4849	1005.1877	10515.75	9543.3
852.63	1007.1841	10613	9641.35
852.7751	1009.1798	10639.65	9666.9
852.9202	1011.1748	10563	9591.55
853.0653	1013.1691	10387.5	9417.3
853.2104	1015.1627	10170.25	9200.1
853.3555	1017.1556	9973.45	9007.25
853.5006	1019.1477	9850.85	8885.05
853.6457	1021.1392	9738.25	8780.15
853.7908	1023.1299	9696.15	8740.5
853.9359	1025.12	9694	8743.45
854.081	1027.1093	9742.35	8806.4
854.2261	1029.0979	9868.75	8933.75
854.3712	1031.0859	9954.65	9012.75
854.5163	1033.0731	10016.4	9063.45
854.6613	1035.0596	9990.55	9028.15
854.8064	1037.0454	9869.75	8910.05
854.9515	1039.0304	9764.25	8799.45
855.0965	1041.0148	9670.85	8704.2
855.2416	1042.9985	9550.45	8578.4
855.3867	1044.9814	9489.5	8521.9
855.5317	1046.9636	9438.8	8472.15
855.6768	1048.9452	9433	8466.3
855.8219	1050.926	9457.95	8490.35
855.9669	1052.9061	9503.6	8539.8
856.112	1054.8855	9538.15	8569.3
856.257	1056.8642	9568.35	8601
856.4021	1058.8421	9629.55	8652.55
856.5471	1060.8194	9649.65	8678.75
856.6921	1062.7959	9697.9	8727.4
856.8372	1064.7717	9771.15	8803.05
856.9822	1066.7469	9864.3	8896.7
857.1272	1068.7213	9943.15	8971.1
857.2723	1070.695	10011.1	9047.3
857.4173	1072.6679	10031.2	9061.6
857.5623	1074.6402	10047.05	9077.3
857.7073	1076.6117	10014.2	9039.25
857.8523	1078.5826	9894.6	8922
857.9973	1080.5527	9773.8	8805.9
858.1423	1082.5221	9684.7	8719.8
858.2873	1084.4908	9637.7	8675.65
858.4323	1086.4587	9656.75	8685.95
858.5773	1088.426	9701.5	8733.5
858.7223	1090.3925	9726.9	8755.5
858.8673	1092.3584	9746.4	8776.8
859.0123	1094.3235	9776.95	8813.4
859.1573	1096.2879	9847.55	8881
859.3022	1098.2515	9984.1	9019.75
859.4472	1100.2145	10149.8	9186.8
859.5922	1102.1767	10329.45	9363.15
859.7371	1104.1382	10577.45	9610.45
859.8821	1106.099	10821	9849.85
860.027	1108.0591	11048.65	10084.65
860.172	1110.0185	11241.3	10274.15
860.3169	1111.9771	11278.35	10310
860.4619	1113.9351	11235.4	10270.65
860.6068	1115.8923	11071.3	10106.25
860.7517	1117.8488	10921.8	9953
860.8967	1119.8045	10749.85	9784.1
861.0416	1121.7596	10592.25	9625.2
861.1865	1123.7139	10447.35	9483.3
861.3314	1125.6675	10385.85	9420.5
861.4763	1127.6204	10430.45	9463.3
861.6212	1129.5726	10393.7	9426.05
861.7661	1131.524	10341.1	9375.25
861.911	1133.4748	10155.65	9188.35
862.0559	1135.4248	9952.55	8983
862.2008	1137.3741	9827.55	8864.05
862.3457	1139.3226	9695.2	8728.65
862.4905	1141.2705	9660.05	8693.1
862.6354	1143.2176	9538.45	8566.85
862.7803	1145.164	9523.35	8558.2
862.9251	1147.1097	9442.9	8476.7
863.07	1149.0546	9348.6	8383.45
863.2148	1150.9989	9238.95	8271.45
863.3597	1152.9424	9146	8179.35
863.5045	1154.8852	9061.6	8092.6
863.6493	1156.8272	9027	8060.75
863.7942	1158.7686	9049.9	8076.45
863.939	1160.7092	9085.9	8118.8
864.0838	1162.6491	9098.6	8131.3
864.2286	1164.5883	9213.3	8247.2
864.3734	1166.5267	9320.55	8349.3
864.5182	1168.4644	9481	8518
864.663	1170.4014	9694.2	8728.9
864.8078	1172.3377	9939.2	8981.1
864.9526	1174.2732	10265.15	9304.8
865.0974	1176.2081	10705.5	9744.95
865.2421	1178.1421	11220.3	10255.55
865.3869	1180.0755	11766.3	10803.7
865.5317	1182.0082	12150.35	11188.85
865.6764	1183.9401	12302.6	11342.1
865.8212	1185.8713	12157.15	11206.75
865.9659	1187.8017	11808.95	10861.4
866.1106	1189.7315	11393.6	10459.25
866.2554	1191.6605	10992.25	10058.55
866.4001	1193.5888	10696.45	9751.15
866.5448	1195.5163	10538.8	9584.3
866.6895	1197.4432	10453.15	9491.75
866.8342	1199.3693	10371.5	9412.05
866.9789	1201.2947	10357.2	9390.9
867.1236	1203.2193	10321.9	9355.85
867.2683	1205.1432	10299.95	9338.4
867.413	1207.0664	10240.1	9282.55
867.5576	1208.9889	10264.6	9303.55
867.7023	1210.9106	10238.9	9278.4
867.847	1212.8316	10225.35	9264.9
867.9916	1214.7519	10284	9314.55
868.1363	1216.6715	10313.6	9356.45
868.2809	1218.5903	10390.3	9429.3
868.4255	1220.5084	10450.55	9487.85
868.5701	1222.4257	10565.8	9604.45
868.7148	1224.3424	10622.5	9666.4
868.8594	1226.2583	10748.15	9788.1
869.004	1228.1735	10880.35	9924.6
869.1486	1230.0879	11051.7	10093.8
869.2932	1232.0016	11242.2	10286
869.4377	1233.9146	11396.55	10438.95
869.5823	1235.8269	11420.3	10459.55
869.7269	1237.7384	11388.95	10429.5
869.8715	1239.6492	11262.9	10303.45
870.016	1241.5592	11257.5	10297.4
870.1606	1243.4686	11309	10350.4
870.3051	1245.3772	11482.75	10521.9
870.4496	1247.285	11719.85	10764.45
870.5941	1249.1922	11934.8	10977.45
870.7387	1251.0986	12101.1	11144.35
870.8832	1253.0042	12184.8	11226.05
871.0277	1254.9092	12299.4	11343.1
871.1722	1256.8134	12390	11437.4
871.3167	1258.7169	12554.2	11596.9
871.4611	1260.6196	12704.5	11748.4
871.6056	1262.5216	12938.85	11979.9
871.7501	1264.4229	13171.95	12216.85
871.8945	1266.3234	13352.15	12392.75
872.039	1268.2232	13500.7	12541.55
872.1834	1270.1223	13608.85	12650.25
872.3278	1272.0207	13621.65	12663.85
872.4723	1273.9183	13587.6	12623.85
872.6167	1275.8151	13540.1	12583.25
872.7611	1277.7113	13555.7	12599.6
872.9055	1279.6067	13633.25	12679.35
873.0499	1281.5014	13864.15	12908.4
873.1943	1283.3953	14331.65	13375
873.3386	1285.2885	14870.9	13915
873.483	1287.181	15404.6	14448.8
873.6274	1289.0727	15975.3	15025.5
873.7717	1290.9637	16318.9	15366.2
873.9161	1292.854	16537	15580.5
874.0604	1294.7435	16520.65	15564.8
874.2047	1296.6323	16393.6	15437.15
874.349	1298.5204	16225.75	15268.85
874.4933	1300.4077	15994.45	15040.6
874.6376	1302.2943	15709.2	14750.95
874.7819	1304.1802	15400.75	14444
874.9262	1306.0653	14877.55	13918.65
875.0705	1307.9497	14363.7	13408.35
875.2147	1309.8333	13900.8	12949.25
875.359	1311.7162	13579.3	12626.55
875.5032	1313.5984	13334.35	12375.5
875.6475	1315.4798	13200.15	12236.05
875.7917	1317.3605	13101.2	12138.45
875.9359	1319.2405	12960.9	12000.85
876.0801	1321.1197	12700.2	11739.5
876.2243	1322.9982	12352.95	11396.55
876.3685	1324.876	12059.7	11107.2
876.5127	1326.753	11762.8	10807.1
876.6569	1328.6293	11532.4	10574.8
876.801	1330.5048	11373.95	10417.7
876.9452	1332.3796	11164.95	10211.25
877.0893	1334.2537	11082.5	10101.5
877.2335	1336.127	10975.45	10022.55
877.3776	1337.9996	10906.3	9954.2
877.5217	1339.8714	10928.7	9973.15
877.6658	1341.7426	10949.35	9949.25
877.8099	1343.6129	10956.95	9997.6
877.954	1345.4826	10955.1	9996.8
878.0981	1347.3515	10950.9	9995.1
878.2422	1349.2196	10946.05	9988.65
878.3862	1351.087	10961.95	10005.3
878.5303	1352.9537	11010	10052.85
878.6743	1354.8197	11111.5	10155.55
878.8184	1356.6849	11278.55	10320.25
878.9624	1358.5493	11443.8	10485.45
879.1064	1360.4131	11638.05	10685.05
879.2504	1362.276	11790.65	10836.1
879.3944	1364.1383	11772.9	10818.7
879.5384	1365.9998	11649.25	10688.4
879.6823	1367.8606	11297.2	10340.15
879.8263	1369.7206	10904.7	9951.4
879.9702	1371.5799	10577.35	9616.65
880.1142	1373.4384	10291.1	9332.2
880.2581	1375.2962	10040.4	9082.45
880.402	1377.1533	9722.55	8769.8
880.5459	1379.0096	9333.65	8386.55
880.6898	1380.8652	9000	8055.4
880.8337	1382.7201	8712.05	7764.2
880.9776	1384.5742	8456.7	7506
881.1215	1386.4275	8267.45	7312.55
881.2653	1388.2802	8122.15	7168.75
881.4092	1390.132	7986.9	7034.4
881.553	1391.9832	7930.95	6976.7
881.6968	1393.8336	7842.1	6888.25
881.8406	1395.6832	7779.45	6824.4
881.9844	1397.5322	7732.75	6777.8
882.1282	1399.3803	7703.35	6742.65
882.272	1401.2278	7678.85	6727.55
882.4158	1403.0745	7690.7	6739.25
882.5595	1404.9204	7633.9	6683.45
882.7033	1406.7656	7675.25	6722.3
882.847	1408.6101	7669.2	6717.25
882.9908	1410.4538	7689.3	6736.4
883.1345	1412.2968	7741.15	6789.95
883.2782	1414.139	7775.75	6820.5
883.4219	1415.9805	7853.3	6899.9
883.5656	1417.8213	7946.35	6988
883.7092	1419.6613	8022.8	7073.75
883.8529	1421.5006	8191.85	7240.15
883.9965	1423.3391	8393.55	7440.35
884.1402	1425.1769	8676.5	7727
884.2838	1427.0139	9122.75	8168.55
884.4274	1428.8502	9656.55	8702.3
884.571	1430.6858	10197.4	9247.8
884.7146	1432.5206	10579.15	9626.75
884.8582	1434.3547	10814.6	9862.75
885.0018	1436.188	10824.35	9872.2
885.1453	1438.0206	10724.05	9774.3
885.2889	1439.8524	10556.7	9606.9
885.4324	1441.6835	10461.55	9512.7
885.5759	1443.5139	10340.9	9389.9
885.7194	1445.3435	10276.45	9325.7
885.8629	1447.1724	10255.5	9306.4
886.0064	1449.0005	10224.35	9276.9
886.1499	1450.8279	10144.5	9195.95
886.2933	1452.6545	10143.05	9197.7
886.4368	1454.4804	10178.3	9232.8
886.5802	1456.3056	10183.2	9229.3
886.7237	1458.13	10120.35	9175.9
886.8671	1459.9536	9950.1	9002.45
887.0105	1461.7766	9666.15	8717
887.1539	1463.5987	9341.3	8391.7
887.2972	1465.4202	9006.25	8058.5
887.4406	1467.2409	8673.2	7723.1
887.584	1469.0608	8400.6	7454.35
887.7273	1470.88	8103.15	7153.15
887.8706	1472.6984	7878.95	6932.8
888.0139	1474.5161	7689.85	6738.65
888.1572	1476.3331	7550.5	6598.4
888.3005	1478.1493	7430.9	6482.5
888.4438	1479.9648	7346.1	6400.7
888.5871	1481.7795	7262.1	6313.6
888.7303	1483.5935	7214.75	6269.9
888.8736	1485.4067	7147.6	6200.45
889.0168	1487.2192	7107.9	6156.5
889.16	1489.031	7087.6	6139.9
889.3032	1490.842	7044.85	6096.65
889.4464	1492.6522	7004.1	6056.15
889.5896	1494.4618	6964	6015.5
889.7327	1496.2705	6910.9	5965.7
889.8759	1498.0785	6886.65	5938.45
890.019	1499.8858	6842.05	5895.25
890.1622	1501.6924	6806.75	5866.6
890.3053	1503.4981	6764.2	5816.15
890.4484	1505.3032	6719.25	5774.85
890.5914	1507.1075	6665.1	5719.55
890.7345	1508.911	6615.5	5670.65
890.8776	1510.7138	6587.5	5641.6
891.0206	1512.5159	6552.9	5607.65
891.1637	1514.3172	6501.55	5559.5
891.3067	1516.1178	6424.9	5481.85
891.4497	1517.9176	6413.8	5467.6
891.5927	1519.7166	6368.05	5425.65
891.7357	1521.515	6367.95	5419.35
891.8786	1523.3126	6311.05	5364.85
892.0216	1525.1094	6294.5	5348.45
892.1645	1526.9055	6286.8	5344.65
892.3074	1528.7008	6253.45	5311.6
892.4503	1530.4954	6222.15	5282.4
892.5932	1532.2893	6212.95	5273.45
892.7361	1534.0824	6184.4	5243.8
892.879	1535.8747	6203.5	5268.2
893.0218	1537.6663	6183	5247.2
893.1647	1539.4572	6160.7	5222.45
893.3075	1541.2473	6194.7	5253.35
893.4503	1543.0367	6186.35	5248.75
893.5931	1544.8253	6180.85	5236.8
893.7359	1546.6132	6218.5	5276.4
893.8787	1548.4003	6251.55	5304.15
894.0214	1550.1867	6313.45	5367.3
894.1642	1551.9723	6376.5	5438.4
894.3069	1553.7572	6469.1	5533.55
894.4496	1555.5414	6589.75	5655.2
894.5923	1557.3247	6739.1	5807.75
894.735	1559.1074	6927.6	5997.15
894.8777	1560.8893	7094.6	6163.7
895.0204	1562.6705	7239.75	6310.85
895.163	1564.4509	7391.3	6459.75
895.3056	1566.2305	7451.9	6523.75
895.4482	1568.0094	7519.3	6594.65
895.5908	1569.7876	7528.2	6598.3
895.7334	1571.565	7489.75	6559.9
895.876	1573.3417	7486.25	6555.9
896.0186	1575.1176	7462.95	6531.9
896.1611	1576.8928	7457.65	6531.25
896.3036	1578.6672	7454.05	6534
896.4461	1580.4409	7494.6	6575.8
896.5886	1582.2138	7550.9	6626.95
896.7311	1583.986	7594.9	6668.9
896.8736	1585.7575	7691.9	6766.35
897.0161	1587.5282	7767.15	6847.3
897.1585	1589.2981	7879.75	6961.1
897.3009	1591.0673	7998.15	7078.9
897.4433	1592.8358	8116.4	7196.4
897.5857	1594.6035	8237.55	7312.25
897.7281	1596.3704	8345.7	7419.35
897.8705	1598.1366	8459.45	7538.95
898.0128	1599.9021	8554.55	7633.35
898.1551	1601.6668	8650.6	7724.8
898.2975	1603.4308	8780.5	7855.7
898.4398	1605.194	8975.95	8046.05
898.5821	1606.9564	9189.75	8273.4
898.7243	1608.7182	9438.9	8525.95
898.8666	1610.4791	9747.65	8840.6
899.0088	1612.2394	10061.75	9159.65
899.1511	1613.9988	10402.8	9496.25
899.2933	1615.7576	10701.15	9789.3
899.4355	1617.5156	10918.2	9992.85
899.5776	1619.2728	11015.8	10092.5
899.7198	1621.0293	10886.95	9965.95
899.862	1622.785	10660.7	9740.8
900.0041	1624.54	10287.4	9370.2
900.1462	1626.2942	9892.85	8976.9
900.2883	1628.0477	9465	8550
900.4304	1629.8005	9054.4	8135.65
900.5725	1631.5525	8727.15	7812.7
900.7145	1633.3037	8414	7501.2
900.8566	1635.0542	8176.1	7264.8
900.9986	1636.804	7982.65	7068.45
901.1406	1638.553	7899	6896.75
901.2826	1640.3013	7770.7	6856.9
901.4245	1642.0488	7717.35	6800.4
901.5665	1643.7955	7733.65	6824.7
901.7085	1645.5416	7778.8	6866.45
901.8504	1647.2868	7875.95	6962.95
901.9923	1649.0313	7988.45	7073.4
902.1342	1650.7751	8150.85	7234.65
902.2761	1652.5181	8268.35	7356.1
902.4179	1654.2604	8466.65	7559.05
902.5598	1656.0019	8692.5	7779.75
902.7016	1657.7427	8938.4	8025.75
902.8434	1659.4828	9237.35	8320.75
902.9852	1661.222	9376.55	8461.7
903.127	1662.9606	9351.9	8435.25
903.2687	1664.6984	9121.35	8207.5
903.4105	1666.4354	8689.7	7771.2
903.5522	1668.1717	8118.6	7197.1
903.6939	1669.9072	7573.65	6652.95
903.8356	1671.642	7092.9	6173.7
903.9773	1673.3761	6649.7	5733.95
904.119	1675.1094	6358.8	5443.55
904.2606	1676.8419	6090.55	5173.6
904.4022	1678.5737	5880.7	4965.45
904.5439	1680.3048	5717.95	4800.45
904.6855	1682.0351	5549.15	4633.35
904.827	1683.7646	5443.15	4524.4
904.9686	1685.4934	5367.9	4452.35
905.1101	1687.2215	5294.3	4378.65
905.2517	1688.9488	5216.9	4304.6
905.3932	1690.6754	5150	4236.4
905.5347	1692.4012	5091.2	4176.4
905.6761	1694.1263	5042.35	4126.45
905.8176	1695.8506	5011.45	4097.35
905.9591	1697.5742	4966.35	4056.15
906.1005	1699.297	4911.35	4002.4
906.2419	1701.0191	4859.4	3950.35
906.3833	1702.7404	4820.7	3912.05
906.5246	1704.461	4786.35	3875.1
906.666	1706.1808	4759.4	3848.15
906.8073	1707.8999	4737.05	3828.2
906.9487	1709.6182	4692.85	3786.85
907.09	1711.3358	4666.7	3761.75
907.2313	1713.0527	4650.05	3746.6
907.3725	1714.7688	4629.15	3717.2
907.5138	1716.4841	4591.5	3679.4
907.655	1718.1987	4578.15	3663.8
907.7962	1719.9126	4567.85	3661.3
907.9374	1721.6257	4516.3	3611.05
908.0786	1723.338	4528.05	3623.6
908.2198	1725.0496	4500.65	3593.55
908.3609	1726.7605	4504.45	3594.1
908.502	1728.4706	4491.95	3585.9
908.6431	1730.18	4465.8	3559.3
908.7842	1731.8886	4451.1	3548.75
908.9253	1733.5964	4446.35	3521.95
909.0664	1735.3036	4415.75	3507.45
909.2074	1737.0099	4398.95	3493.7
909.3484	1738.7156	4382.25	3477.4
909.4894	1740.4204	4340.65	3432
909.6304	1742.1246	4333.8	3425
909.7714	1743.8279	4313.8	3408.9
909.9123	1745.5306	4285.85	3383.2
910.0532	1747.2325	4265.4	3362.6
910.1941	1748.9336	4251.35	3348.15
910.335	1750.634	4242.7	3335.7
910.4759	1752.3336	4219.4	3315.1
910.6168	1754.0325	4206.3	3306.7
910.7576	1755.7307	4189.25	3286.9
910.8984	1757.4281	4178	3273.15
911.0392	1759.1247	4199.05	3284.75
911.18	1760.8206	4180.5	3265.1
911.3208	1762.5158	4163.95	3251.7
911.4615	1764.2102	4148.1	3238.3
911.6022	1765.9039	4144.65	3241
911.7429	1767.5968	4130.65	3229.15
911.8836	1769.289	4090.8	3187.5
912.0243	1770.9804	4106.2	3200.7
912.1649	1772.6711	4097.6	3186.15
912.3056	1774.361	4103.7	3194.35
912.4462	1776.0502	4090.15	3181.25
912.5868	1777.7386	4083	3174.8
912.7274	1779.4263	4078.6	3173.65
912.8679	1781.1132	4049.3	3148.5
913.0084	1782.7994	4044.9	3143.45
913.149	1784.4849	4028.55	3129.95
913.2895	1786.1696	4035.9	3115.05
913.4299	1787.8535	4012.9	3113.65
913.5704	1789.5367	4003.4	3106.25
913.7108	1791.2192	4005.5	3106
913.8513	1792.9009	4011.15	3083.55
913.9917	1794.5818	4005.75	3098.7
914.132	1796.2621	3972.75	3066.95
914.2724	1797.9415	3963.7	3055.8
914.4128	1799.6202	3951.1	3045.6
914.5531	1801.2982	3951.25	3046.75
914.6934	1802.9755	3948	3041.1
914.8337	1804.6519	3932.75	3026.7
914.9739	1806.3277	3916.7	3013.65
915.1142	1808.0027	3896.25	2998.3
915.2544	1809.6769	3893.45	2994.3
915.3946	1811.3504	3889.9	2992.8
915.5348	1813.0231	3887.3	2991.05
915.675	1814.6951	3874.1	2973.7
915.8151	1816.3664	3876.45	2971.25
915.9553	1818.0369	3874.3	2969.95
916.0954	1819.7067	3861.55	2957.85
916.2355	1821.3757	3862.7	2955.1
916.3755	1823.044	3849.2	2944.55
916.5156	1824.7115	3856.15	2952.3
916.6556	1826.3783	3826.5	2923.1
916.7956	1828.0443	3819.25	2915.35
916.9356	1829.7096	3813.25	2909.5
917.0756	1831.3741	3819.1	2913.55
917.2155	1833.0379	3787.8	2888.65
917.3555	1834.701	3801.2	2901.2
917.4954	1836.3633	3788.05	2888.05
917.6353	1838.0248	3778.3	2877.05
917.7751	1839.6856	3770.1	2867.3
917.915	1841.3457	3773.05	2871.5
918.0548	1843.005	3758.15	2855.45
918.1946	1844.6636	3766.65	2862.95
918.3344	1846.3214	3770.75	2868.65
918.4742	1847.9785	3756.95	2854.35
918.6139	1849.6349	3743.05	2838.2
918.7537	1851.2904	3736	2822.1
918.8934	1852.9453	3731.05	2824.1
919.0331	1854.5994	3713	2803.95
919.1727	1856.2528	3733.95	2822.75
919.3124	1857.9054	3714.25	2810.55
919.452	1859.5572	3718.55	2816.15
919.5916	1861.2083	3703.6	2801.45
919.7312	1862.8587	3697.55	2794.5
919.8708	1864.5084	3688.9	2782.7
920.0103	1866.1572	3681.35	2774.3
920.1498	1867.8054	3673.95	2766.35
920.2893	1869.4528	3684.6	2775
920.4288	1871.0994	3660.35	2753.85
920.5683	1872.7453	3649.25	2744.15
920.7077	1874.3905	3642.9	2733.4
920.8471	1876.0349	3628	2724.4
920.9865	1877.6786	3621.2	2716.9
921.1259	1879.3215	3620.7	2717.8
921.2653	1880.9637	3613.55	2709.35
921.4046	1882.6051	3612.75	2710.7
921.5439	1884.2458	3586.55	2682.9
921.6832	1885.8858	3594.35	2690.5
921.8225	1887.525	3586.6	2682.05
921.9617	1889.1634	3589	2684.2
922.101	1890.8011	3554.9	2648.9
922.2402	1892.4381	3559.7	2654.95
922.3794	1894.0743	3557.45	2653.2
922.5185	1895.7098	3547.7	2645.05
922.6577	1897.3446	3558.4	2654
922.7968	1898.9786	3529.1	2622.45
922.9359	1900.6118	3536.65	2636.25
923.075	1902.2443	3519.75	2613.05
923.214	1903.8761	3517.25	2613.6
923.3531	1905.5071	3501.5	2598.65
923.4921	1907.1374	3486.75	2584.5
923.6311	1908.7669	3484.1	2581.35
923.77	1910.3957	3484.6	2583.05
923.909	1912.0237	3462.85	2561.25
924.0479	1913.651	3454.4	2551.8
924.1868	1915.2776	3456.85	2555.65
924.3257	1916.9034	3447.15	2545.65
924.4646	1918.5285	3424.65	2524.95
924.6034	1920.1528	3406.9	2506.45
924.7422	1921.7764	3413.3	2513
924.881	1923.3992	3407.2	2504.15
925.0198	1925.0213	3388.25	2485.05
925.1586	1926.6427	3378.9	2479.1
925.2973	1928.2633	3444.25	2460.45
925.436	1929.8832	3398.4	2493.95
925.5747	1931.5023	3366.65	2464.3
925.7134	1933.1207	3357.9	2455.85
925.852	1934.7383	3351.05	2449.25
925.9906	1936.3552	3334.8	2433.45
926.1292	1937.9714	3338.15	2436.7
926.2678	1939.5868	3326.85	2424.35
926.4064	1941.2015	3317.95	2413.9
926.5449	1942.8154	3302.1	2398.5
926.6834	1944.4286	3288.7	2385.65
926.8219	1946.041	3288.45	2370.15
926.9604	1947.6528	3272.05	2367.4
927.0988	1949.2637	3269.35	2367.85
927.2372	1950.8739	3269.65	2368.95
927.3756	1952.4834	3245.45	2344.7
927.514	1954.0921	3255.8	2353.35
927.6523	1955.7001	3251.2	2345.75
927.7907	1957.3074	3233.3	2335.95
927.929	1958.9139	3221.8	2328.1
928.0673	1960.5197	3216.05	2319.25
928.2055	1962.1247	3202.1	2306.2
928.3438	1963.729	3180.1	2284.25
928.482	1965.3325	3187.2	2284.4
928.6202	1966.9353	3172.95	2277.9
928.7584	1968.5374	3163.3	2264.8
928.8965	1970.1387	3162.3	2264.4
929.0346	1971.7393	3146.1	2249.9
929.1727	1973.3392	3131.35	2235.35
929.3108	1974.9383	3127.15	2233.55
929.4489	1976.5366	3111.3	2215.05
929.5869	1978.1342	3111.05	2217
929.7249	1979.7311	3103.35	2207.45
929.8629	1981.3273	3096.55	2204.45
930.0009	1982.9227	3100.6	2206.8
930.1388	1984.5173	3086.25	2193.45
930.2767	1986.1112	3076.7	2184.8
930.4146	1987.7044	3079.3	2187.65
930.5525	1989.2968	3086.5	2192.8
930.6904	1990.8885	3063.35	2167.6
930.8282	1992.4795	3056.15	2164.55
930.966	1994.0697	3048.75	2160
931.1038	1995.6592	3052.3	2161.35
931.2415	1997.2479	3033.5	2139.2
931.3793	1998.8359	3020.95	2129.6
931.517	2000.4232	3007	2118.8
931.6547	2002.0097	3011.2	2124.9
931.7923	2003.5955	2996.6	2110.9
931.93	2005.1805	3009.2	2117.25
932.0676	2006.7648	2996.1	2108.75
932.2052	2008.3484	2996.45	2105.3
932.3427	2009.9312	2990.1	2101.25
932.4803	2011.5133	2985.6	2099.95
932.6178	2013.0946	2978.7	2092.2
932.7553	2014.6752	2970.75	2082.25
932.8928	2016.2551	2968.65	2078.25
933.0302	2017.8342	2960.15	2068.05
933.1676	2019.4126	2945	2057.9
933.305	2020.9902	2940.05	2054.35
933.4424	2022.5672	2943.4	2058.45
933.5798	2024.1433	2928.9	2040.9
933.7171	2025.7188	2913.95	2032.35
933.8544	2027.2935	2920.9	2034.95
933.9917	2028.8674	2905.5	2022.7
934.129	2030.4406	2906.15	2021.2
934.2662	2032.0131	2887.65	2006.9
934.4034	2033.5849	2886.55	2000.15
934.5406	2035.1559	2879.85	1996.65
934.6778	2036.7261	2880	1991.5
934.8149	2038.2957	2877.5	1986.55
934.952	2039.8645	2876.5	1983.25
935.0891	2041.4325	2873.1	1978.95
935.2262	2042.9998	2849.85	1960.95
935.3632	2044.5664	2852.75	1966
935.5002	2046.1323	2858.7	1973.75
935.6372	2047.6974	2857.45	1974.45
935.7742	2049.2617	2841.85	1956.45
935.9111	2050.8254	2866.7	1956.2
936.048	2052.3883	2846.55	1954.2
936.1849	2053.9504	2824	1931.35
936.3218	2055.5118	2820.15	1927.7
936.4586	2057.0725	2809.6	1917.9
936.5955	2058.6325	2805.25	1918.5
936.7323	2060.1917	2802.2	1915.35
936.869	2061.7502	2811.6	1924.6
937.0058	2063.3079	2789.15	1906.3
937.1425	2064.8649	2784.65	1897.8
937.2792	2066.4212	2778.15	1890.25
937.4159	2067.9767	2783.1	1894.15
937.5525	2069.5315	2778.35	1888.55
937.6891	2071.0856	2768.4	1881.6
937.8257	2072.6389	2758.55	1872.45
937.9623	2074.1915	2738.25	1854.35
938.0989	2075.7433	2731.15	1845.65
938.2354	2077.2945	2730.25	1844.5
938.3719	2078.8448	2729.2	1840.6
938.5084	2080.3945	2733.45	1842.25
938.6448	2081.9434	2724.95	1833.25
938.7812	2083.4916	2716	1820
938.9176	2085.039	2712.15	1815.5
939.054	2086.5857	2714	1814.25
939.1903	2088.1317	2714.05	1815.55
939.3267	2089.677	2692.7	1793.55
939.463	2091.2215	2702.45	1804.1
939.5992	2092.7652	2697.2	1797.25
939.7355	2094.3083	2686.65	1790.7
939.8717	2095.8506	2682.25	1785
940.0079	2097.3921	2669.4	1776.45
940.1441	2098.933	2679.25	1787.2
940.2802	2100.4731	2672.75	1778.7
940.4163	2102.0124	2681.45	1770.2
940.5524	2103.5511	2677.1	1783.8
940.6885	2105.089	2656.8	1762.25
940.8245	2106.6261	2655.8	1764.15
940.9606	2108.1626	2645	1754.7
941.0965	2109.6983	2664.25	1744.5
941.2325	2111.2332	2640.9	1747
941.3684	2112.7675	2631	1733.05
941.5044	2114.301	2631.45	1735.45
941.6403	2115.8337	2636.95	1740.75
941.7761	2117.3657	2634.75	1742.25
941.912	2118.897	2623.15	1726.7
942.0478	2120.4276	2618	1717.95
942.1835	2121.9575	2611.3	1717.55
942.3193	2123.4866	2607.4	1709.25
942.455	2125.0149	2603.9	1706.7
942.5907	2126.5426	2594.1	1703.15
942.7264	2128.0695	2595.9	1703.2
942.8621	2129.5956	2580.25	1694.05
942.9977	2131.1211	2578.6	1685.65
943.1333	2132.6458	2583.15	1691.4
943.2689	2134.1698	2588.8	1692.7
943.4044	2135.693	2579.6	1678.9
943.54	2137.2155	2568.55	1669.3
943.6755	2138.7373	2560.65	1666.65
943.8109	2140.2584	2553.9	1664.3
943.9464	2141.7787	2549.2	1658.4
944.0818	2143.2983	2537.55	1652.85
944.2172	2144.8171	2523.95	1640.3
944.3526	2146.3353	2519.7	1631.3
944.4879	2147.8527	2528.4	1640.6
944.6232	2149.3693	2523.85	1628.1
944.7585	2150.8853	2521.7	1625.1
944.8938	2152.4005	2514.45	1617.45
945.029	2153.9149	2517.35	1618.2
945.1642	2155.4287	2512	1617.9
945.2994	2156.9417	2506	1612.4
945.4346	2158.454	2493	1599.55
945.5697	2159.9655	2484.2	1594.6
945.7048	2161.4764	2496.85	1607.6
945.8399	2162.9865	2477.35	1586.7
945.9749	2164.4958	2468.85	1579.65
946.1099	2166.0045	2472.15	1581.2
946.2449	2167.5124	2468.35	1576.3
946.3799	2169.0195	2460.4	1564.5
946.5148	2170.526	2461.85	1566.1
946.6498	2172.0317	2454.25	1560.7
946.7846	2173.5367	2461.9	1569.75
946.9195	2175.0409	2439	1547.2
947.0543	2176.5445	2449.35	1555.15
947.1891	2178.0473	2446	1551.8
947.3239	2179.5494	2448	1548.45
947.4587	2181.0507	2430.6	1536.5
947.5934	2182.5513	2426.95	1532.9
947.7281	2184.0512	2430	1535.6
947.8628	2185.5504	2420.35	1525.95
947.9974	2187.0488	2404.6	1513.35
948.132	2188.5465	2401	1512.4
948.2666	2190.0435	2405.25	1513.6
948.4012	2191.5397	2406.25	1511.6
948.5357	2193.0353	2403.5	1506.75
948.6702	2194.5301	2393.85	1492.25
948.8047	2196.0241	2394.35	1494
948.9392	2197.5175	2394.65	1495.35
949.0736	2199.0101	2388.8	1487
949.208	2200.502	2386.05	1491.5
949.3424	2201.9931	2363.5	1471.6
949.4767	2203.4835	2351.05	1460.35
949.611	2204.9733	2369.1	1464
949.7453	2206.4622	2354.6	1466.15
949.8796	2207.9505	2343.1	1453.65
950.0138	2209.438	2331.2	1447.9
950.148	2210.9248	2337.2	1445.8
950.2822	2212.4109	2326.3	1435.55
950.4164	2213.8962	2332.1	1433.65
950.5505	2215.3809	2332.35	1431.65
950.6846	2216.8648	2332.7	1431.95
950.8186	2218.3479	2333.5	1426.7
950.9527	2219.8304	2321	1418.35
951.0867	2221.3121	2321.3	1418
951.2207	2222.7931	2318.35	1418.3
951.3546	2224.2733	2306.55	1411.3
951.4886	2225.7529	2291.95	1399.25
951.6225	2227.2317	2288.85	1395.25
951.7563	2228.7098	2280	1389.15
951.8902	2230.1872	2270.2	1379.7
952.024	2231.6638	2267	1377.65
952.1578	2233.1397	2271.7	1378.55
952.2916	2234.6149	2264.75	1374.75
952.4253	2236.0894	2254.85	1362.3
952.559	2237.5632	2266.2	1364.1
952.6927	2239.0362	2255.8	1363.65
952.8263	2240.5085	2254.85	1362.3
952.9599	2241.9801	2253.55	1357.75
953.0935	2243.4509	2241.75	1344.45
953.2271	2244.921	2235.5	1337.6
953.3606	2246.3904	2230.55	1332.05
953.4941	2247.8591	2230.5	1334.6
953.6276	2249.3271	2221.2	1325.65
953.7611	2250.7943	2217.3	1319.75
953.8945	2252.2608	2210.85	1313.95
954.0279	2253.7266	2203.1	1307.95
954.1612	2255.1917	2198.2	1303.7
954.2946	2256.656	2199.8	1308.15
954.4279	2258.1197	2195.3	1305.05
954.5612	2259.5826	2194.45	1301.55
954.6944	2261.0447	2197.25	1304.45
954.8276	2262.5062	2183	1286.55
954.9608	2263.9669	2183	1285.7
955.094	2265.4269	2176.5	1278.95
955.2271	2266.8862	2176.25	1282.85
955.3602	2268.3448	2172.4	1280.75
955.4933	2269.8026	2164.4	1273.75
955.6264	2271.2598	2155.4	1265.35
955.7594	2272.7162	2165.2	1273.35
955.8924	2274.1719	2165.9	1271.1
956.0253	2275.6268	2163.1	1264.15
956.1583	2277.0811	2153.55	1256
956.2912	2278.5346	2152.3	1260.75
956.4241	2279.9874	2148.8	1259.45
956.5569	2281.4395	2136.75	1245.75
956.6897	2282.8908	2149.4	1252.9
956.8225	2284.3414	2150.7	1254.9
956.9553	2285.7914	2134.95	1241.2
957.088	2287.2406	2138.1	1240.5
957.2207	2288.689	2129.85	1229.25
957.3534	2290.1368	2130.7	1228
957.486	2291.5838	2136	1232.2
957.6186	2293.0302	2125.4	1221.9
957.7512	2294.4758	2116.75	1216.35
957.8838	2295.9206	2118.9	1220.25
958.0163	2297.3648	2105.05	1212.9
958.1488	2298.8082	2114.1	1219
958.2813	2300.251	2105.65	1208.3
958.4137	2301.693	2100.8	1199.45
958.5461	2303.1343	2096.4	1199.8
958.6785	2304.5748	2102.2	1207.7
958.8108	2306.0147	2092	1200.2
958.9432	2307.4538	2086.45	1195.05
959.0754	2308.8922	2073.7	1185.7
959.2077	2310.3299	2075.95	1187
959.3399	2311.7669	2087.95	1195.3
959.4721	2313.2031	2076.45	1182.7
959.6043	2314.6387	2062.6	1167.95
959.7365	2316.0735	2059.95	1162.8
959.8686	2317.5076	2072.9	1175.3
960.0006	2318.941	2064.9	1169.45
960.1327	2320.3737	2064.9	1167.35
960.2647	2321.8056	2061.35	1162.75
960.3967	2323.2369	2049.9	1154.5
960.5287	2324.6674	2051.35	1153.9
960.6606	2326.0972	2053.15	1157.85
960.7925	2327.5263	2042.65	1147.9
960.9244	2328.9547	2034.35	1137.2
961.0562	2330.3823	2047.4	1150.05
961.1881	2331.8092	2041.1	1138.3
961.3198	2333.2355	2025.35	1126.85
961.4516	2334.661	2018.4	1119
961.5833	2336.0858	2026.3	1124.05
961.715	2337.5098	2022.4	1125.45
961.8467	2338.9332	2017.25	1118.25
961.9783	2340.3558	2012.95	1118.3
962.1099	2341.7778	2009.55	1116.7
962.2415	2343.199	2007.2	1111.3
962.373	2344.6195	2002.4	1109.95
962.5045	2346.0393	2004.3	1110.15
962.636	2347.4583	2004.95	1108.7
962.7675	2348.8767	1994.5	1096.75
962.8989	2350.2943	2004.05	1105.5
963.0303	2351.7113	2002.75	1100.8
963.1617	2353.1275	1999.85	1098.95
963.293	2354.543	2012.65	1105.15
963.4243	2355.9578	1988.2	1090.8
963.5556	2357.3718	1987.6	1092.6
963.6868	2358.7852	1989.85	1093.45
963.818	2360.1978	1986.55	1091.1
963.9492	2361.6098	1964.85	1069
964.0803	2363.021	1981.75	1080.4
964.2114	2364.4315	1962.15	1065.55
964.3425	2365.8413	1964.4	1065.85
964.4736	2367.2504	1962.6	1069.8
964.6046	2368.6587	1962.05	1071.35
964.7356	2370.0664	1954.85	1062.15
964.8666	2371.4733	1946.65	1051.35
964.9975	2372.8795	1963.95	1067.85
965.1284	2374.285	1958.7	1062.05
965.2593	2375.6899	1940.65	1045.4
965.3901	2377.0939	1929.6	1035.7
965.5209	2378.4973	1934.2	1040.75
965.6517	2379.9	1931.75	1035.6
965.7825	2381.3019	1924.2	1030.95
965.9132	2382.7032	1922.9	1031
966.0439	2384.1037	1916.3	1022.8
966.1745	2385.5035	1914	1022.25
966.3051	2386.9027	1912.05	1020
966.4357	2388.3011	1917.95	1023.85
966.5663	2389.6987	1906.95	1014.65
966.6968	2391.0957	1900.15	1008.65
966.8273	2392.492	1897.15	1005.9
966.9578	2393.8876	1896.05	1005.65
967.0882	2395.2824	1890.85	997.95
967.2186	2396.6765	1885.85	992.45
967.349	2398.07	1884.05	989.95
967.4793	2399.4627	1879.4	981.95
967.6097	2400.8547	1882.25	987.3
967.7399	2402.246	1882.85	980.1
967.8702	2403.6366	1873.55	979.6
968.0004	2405.0265	1868.4	975.15
968.1306	2406.4156	1869.4	973.45
968.2607	2407.8041	1862	966.25
968.3909	2409.1918	1867.45	969.5
968.521	2410.5789	1861.65	964.65
968.651	2411.9652	1860.1	963.2
968.781	2413.3508	1861.05	967.65
968.911	2414.7358	1856	960.05
969.041	2416.12	1847.95	955.25
969.1709	2417.5035	1846.4	952.2
969.3008	2418.8863	1839	942.85
969.4307	2420.2684	1842.75	946.25
969.5606	2421.6497	1840	942.8
969.6904	2423.0304	1826.35	932.6
969.8201	2424.4104	1835.75	941.5
969.9499	2425.7896	1839.9	937.75
970.0796	2427.1682	1820.6	928.8
970.2093	2428.546	1821.7	927.05
970.3389	2429.9232	1824.15	926.25
970.4685	2431.2996	1816.8	920.15
970.5981	2432.6753	1818.95	924.5
970.7277	2434.0503	1821.5	925
970.8572	2435.4246	1812.05	917.5
970.9867	2436.7982	1812.05	914.25
971.1161	2438.1711	1806.05	910.4
971.2456	2439.5433	1809	912.6
971.375	2440.9148	1805.75	904.05
971.5043	2442.2856	1794.1	900.45
971.6336	2443.6557	1791	896.95
971.7629	2445.025	1786.75	890.85
971.8922	2446.3937	1790.5	893.05
972.0214	2447.7617	1785	889.5
972.1506	2449.1289	1778.6	883.65
972.2798	2450.4955	1784	887.35
972.4089	2451.8613	1775.5	881.55
972.538	2453.2265	1765.45	872
972.6671	2454.5909	1773	879.1
972.7961	2455.9546	1777.5	880.5
972.9251	2457.3177	1765.45	872.8
973.0541	2458.68	1768.2	874.35
973.1831	2460.0416	1768.9	874.25
973.312	2461.4025	1763.15	868.15
973.4408	2462.7627	1767.75	862.7
973.5697	2464.1222	1757.65	864.95
973.6985	2465.4811	1755	860.5
973.8273	2466.8392	1743.05	851.65
973.956	2468.1966	1749.5	853.15
974.0847	2469.5533	1754	857.15
974.2134	2470.9093	1753.9	858.15
974.3421	2472.2645	1754.45	858.85
974.4707	2473.6191	1749.85	857.65
974.5993	2474.973	1740.65	845.7
974.7278	2476.3262	1748.75	852.3
974.8563	2477.6787	1734.4	839.2
974.9848	2479.0305	1731.6	839.65
975.1132	2480.3816	1735.5	840.25
975.2417	2481.7319	1724.05	830.65
975.37	2483.0816	1733.4	836.2
975.4984	2484.4306	1727.4	834.85
975.6267	2485.7789	1725.55	834
975.755	2487.1264	1721.25	827.35
975.8833	2488.4733	1708.85	816
976.0115	2489.8195	1720.1	821.5
976.1397	2491.165	1711.3	815.55
976.2678	2492.5097	1715.8	820.8
976.3959	2493.8538	1707.95	814
976.524	2495.1972	1696.4	802.45
976.6521	2496.5398	1705.3	810
976.7801	2497.8818	1708.4	810.6
976.9081	2499.2231	1699.3	803.35
977.036	2500.5637	1698.15	800.75
977.164	2501.9035	1694	799.7
977.2918	2503.2427	1687.95	787.55
977.4197	2504.5812	1685.7	790.3
977.5475	2505.919	1685.7	790.8
977.6753	2507.256	1688.3	790.8
977.8031	2508.5924	1687	792.15
977.9308	2509.9281	1683	784.35
978.0585	2511.2631	1671.75	776.45
978.1861	2512.5974	1675.7	782.7
978.3137	2513.9309	1674.05	781.8
978.4413	2515.2638	1690.6	770.65
978.5689	2516.596	1669.85	777.55
978.6964	2517.9275	1673.25	777.35
978.8239	2519.2583	1662.3	766.05
978.9513	2520.5884	1661.85	764.3
979.0788	2521.9178	1662.3	770.3
979.2062	2523.2465	1645.6	752.95
979.3335	2524.5745	1654.2	762.9
979.4608	2525.9018	1656.55	762.85
979.5881	2527.2284	1653.25	758.35
979.7154	2528.5543	1646.95	755.95
979.8426	2529.8796	1651.55	758.35
979.9698	2531.2041	1643.35	750.9
980.0969	2532.5279	1647.65	755.5
980.224	2533.851	1653.95	760.35
980.3511	2535.1735	1638.1	745.9
980.4781	2536.4952	1644.65	747.8
980.6052	2537.8163	1644.8	749.4
980.7321	2539.1366	1651.95	756.3
980.8591	2540.4562	1641.2	744.6
980.986	2541.7752	1640.8	746.5
981.1129	2543.0935	1648.1	753.9
981.2397	2544.411	1635.15	740.05
981.3665	2545.7279	1632.8	737.25
981.4933	2547.0441	1628.3	732.85
981.62	2548.3596	1630.8	733.7
981.7467	2549.6744	1634.35	739.8
981.8734	2550.9885	1631.95	733.5
982.0001	2552.3019	1626.35	732.6
982.1267	2553.6146	1624.85	730.65
982.2532	2554.9266	1624.8	729.95
982.3798	2556.2379	1621.95	725.05
982.5063	2557.5485	1612.85	720.25
982.6327	2558.8585	1628.95	727
982.7592	2560.1677	1619.15	720.4
982.8856	2561.4762	1614.75	716.85
983.0119	2562.7841	1624.3	726.25
983.1383	2564.0913	1610.75	717.25
983.2646	2565.3977	1614.85	721.5
983.3908	2566.7035	1611.15	718.1
983.517	2568.0086	1611.6	713.65
983.6432	2569.313	1613.95	717.15
983.7694	2570.6167	1611.6	711.75
983.8955	2571.9197	1607.6	712.75
984.0216	2573.222	1613.6	718.15
984.1476	2574.5236	1603.05	706.65
984.2737	2575.8246	1600.5	704.4
984.3996	2577.1248	1599.55	699.7
984.5256	2578.4244	1599.75	707.2
984.6515	2579.7232	1603.55	709.25
984.7774	2581.0214	1622.5	701.1
984.9032	2582.3189	1598.8	705.85
985.029	2583.6157	1601.5	702.9
985.1548	2584.9118	1588.5	695.6
985.2806	2586.2072	1599.45	703.75
985.4063	2587.5019	1605.85	713.5
985.5319	2588.7959	1600.05	706.2
985.6576	2590.0893	1605.8	710.7
985.7832	2591.3819	1593.5	700.3
985.9087	2592.6739	1596.8	703.1
986.0343	2593.9652	1597.6	701.25
986.1597	2595.2557	1600	703.75
986.2852	2596.5456	1594.8	698.7
986.4106	2597.8348	1593.45	699.8
986.536	2599.1234	1591.65	698.05
986.6614	2600.4112	1591.75	698.85
986.7867	2601.6983	1591.8	693.7
986.912	2602.9848	1597.1	703.6
987.0372	2604.2705	1596.3	695.7
987.1624	2605.5556	1595.65	701.9
987.2876	2606.84	1593.2	701.25
987.4128	2608.1237	1587.35	693.1
987.5379	2609.4067	1575.65	683.2
987.6629	2610.689	1591.7	691.9
987.788	2611.9707	1579.6	682.75
987.913	2613.2516	1580.05	681.35
988.0379	2614.5319	1571.7	678.05
988.1629	2615.8115	1569	675.35
988.2878	2617.0903	1565.25	672.35
988.4126	2618.3685	1571.15	678.45
988.5375	2619.6461	1561.6	668.75
988.6622	2620.9229	1556.2	661.9
988.787	2622.199	1553.3	661.05
988.9117	2623.4745	1552.3	659.8
989.0364	2624.7493	1548.25	657.85
989.161	2626.0234	1554.05	665.05
989.2857	2627.2968	1551.35	659.2
989.4102	2628.5695	1554.4	659.85
989.5348	2629.8415	1546.65	654.25
989.6593	2631.1128	1549.05	654.2
989.7837	2632.3835	1549.55	658.85
989.9082	2633.6535	1540.3	650.3
990.0326	2634.9228	1541.6	651.1
990.1569	2636.1914	1546.75	655.65
990.2812	2637.4593	1543.35	649.45
990.4055	2638.7265	1530.4	637.45
990.5298	2639.9931	1538.3	646.3
990.654	2641.259	1540.15	648.4
990.7782	2642.5242	1520.15	627.75
990.9023	2643.7887	1525.25	634.95
991.0264	2645.0525	1525.3	634.65
991.1505	2646.3156	1528.4	637
991.2745	2647.5781	1522.3	631.95
991.3985	2648.8398	1525	634.9
991.5225	2650.1009	1556.15	626.2
991.6464	2651.3613	1514	623.55
991.7703	2652.6211	1518.25	630.05
991.8942	2653.8801	1509.15	620.4
992.018	2655.1385	1512.55	621.6
992.1418	2656.3961	1515.05	624.1
992.2655	2657.6531	1511	620.05
992.3892	2658.9094	1513	622.25
992.5129	2660.1651	1517.3	627.25
992.6366	2661.42	1519.1	627.8
992.7602	2662.6743	1515.9	623.25
992.8837	2663.9279	1515.85	623.95
993.0073	2665.1808	1513.05	619.5
993.1307	2666.433	1525.2	633.15
993.2542	2667.6846	1523.65	632.25
993.3776	2668.9354	1524.9	630.65
993.501	2670.1856	1519.2	626.55
993.6244	2671.4351	1533.4	642.7
993.7477	2672.6839	1532.95	639.3
993.8709	2673.9321	1536	644.5
993.9942	2675.1795	1534.7	642.15
994.1174	2676.4263	1533.4	644.05
994.2405	2677.6724	1533.1	642.55
994.3637	2678.9179	1534.55	642.05
994.4868	2680.1626	1539.05	648.6
994.6098	2681.4067	1532.05	641.3
994.7328	2682.6501	1533.6	640.95
994.8558	2683.8928	1528.75	637.6
994.9788	2685.1348	1525.25	637.55
995.1017	2686.3761	1521.2	631.05
995.2245	2687.6168	1512.25	622.45
995.3474	2688.8568	1506.95	616.55
995.4702	2690.0961	1511	620.75
995.5929	2691.3348	1501	607.45
995.7156	2692.5727	1498.9	607.9
995.8383	2693.81	1494.75	605
995.961	2695.0466	1497.75	607
996.0836	2696.2826	1497.25	603.45
996.2062	2697.5178	1506.4	613.65
996.3287	2698.7524	1498.5	607
996.4512	2699.9863	1506.8	612.25
996.5737	2701.2195	1505.05	614.55
996.6961	2702.452	1512.4	621.45
996.8185	2703.6839	1504.8	613.05
996.9408	2704.9151	1513.1	621.65
997.0631	2706.1456	1521.2	630.3
997.1854	2707.3755	1523.8	632.95
997.3077	2708.6046	1531.1	639.2
997.4299	2709.8331	1534.05	642
997.552	2711.0609	1533.85	643.3
997.6742	2712.2881	1544	652.55
997.7963	2713.5145	1553.7	662.4
997.9183	2714.7403	1565.6	674.05
998.0403	2715.9654	1566.8	674.15
998.1623	2717.1899	1594.2	690.2
998.2842	2718.4136	1591.5	703.55
998.4062	2719.6367	1598.5	708.2
998.528	2720.8591	1616.8	720.45
998.6498	2722.0809	1626.9	737.5
998.7716	2723.3019	1629	737.65
998.8934	2724.5223	1645.7	753
999.0151	2725.7421	1646.65	755.1
999.1368	2726.9611	1652.25	759.55
999.2584	2728.1795	1650	754.4
999.38	2729.3972	1640.4	748.75
999.5016	2730.6142	1644.25	743.75
999.6231	2731.8306	1617.1	724.65
999.7446	2733.0462	1594.6	704.35
999.8661	2734.2612	1584.5	690.15
999.9875	2735.4756	1572.55	680
1000.1089	2736.6892	1553.65	664.25
1000.2302	2737.9022	1537.2	648.4
1000.3515	2739.1145	1525.95	633.9
1000.4728	2740.3262	1525.95	630.25
1000.594	2741.5372	1500.95	610.35
1000.7152	2742.7475	1492.95	602.1
1000.8363	2743.9571	1488.85	599
1000.9575	2745.1661	1475.5	583.1
1001.0785	2746.3744	1463.7	575.3
1001.1996	2747.582	1455.8	566.1
1001.3206	2748.7889	1455.85	563.15
1001.4415	2749.9952	1444.3	554.95
1001.5625	2751.2008	1437.65	548.1
1001.6833	2752.4057	1435.05	543.2
1001.8042	2753.61	1428.35	536.8
1001.925	2754.8136	1430.35	539.75
1002.0458	2756.0165	1425.55	536.65
1002.1665	2757.2188	1418.4	530.9
1002.2872	2758.4204	1418.9	531.7
1002.4078	2759.6213	1419	526.5
1002.5285	2760.8215	1423.7	530.2
1002.649	2762.0211	1430.8	540
1002.7696	2763.22	1424.25	532.05
1002.8901	2764.4182	1417.45	526.85
1003.0106	2765.6158	1424.95	535.95
1003.131	2766.8127	1417.1	527.6
1003.2514	2768.009	1417.8	530.35
1003.3717	2769.2045	1406.8	516.2
1003.492	2770.3994	1415.1	524.95
1003.6123	2771.5936	1399	508.55
1003.7325	2772.7872	1397.35	508
1003.8527	2773.9801	1399	509
1003.9729	2775.1723	1405.65	502.85
1004.093	2776.3639	1392.65	505.15
1004.2131	2777.5548	1395.2	503.7
1004.3331	2778.745	1398.6	508.6
1004.4531	2779.9346	1385.4	497.5
1004.5731	2781.1235	1387.6	498.8
1004.693	2782.3117	1391.4	503.65
1004.8129	2783.4992	1395.2	510
1004.9328	2784.6861	1390.05	503.55
1005.0526	2785.8723	1400.95	511.05
1005.1723	2787.0579	1406.1	516.15
1005.2921	2788.2428	1415.25	524.65
1005.4118	2789.427	1406.7	520.3
1005.5314	2790.6106	1411	522.55
1005.651	2791.7935	1418.3	530.1
1005.7706	2792.9757	1426.25	539.55
1005.8902	2794.1573	1438.6	550.1
1006.0097	2795.3382	1442.35	557.1
1006.1291	2796.5184	1451.2	563.8
1006.2485	2797.698	1465.45	575.5
1006.3679	2798.8769	1466.3	580.1
1006.4873	2800.0551	1484.2	595.8
1006.6066	2801.2327	1496.1	605.7
1006.7258	2802.4096	1506.45	621.1
1006.8451	2803.5859	1525.7	638.05
1006.9642	2804.7615	1540.45	653.35
1007.0834	2805.9364	1557.2	669.65
1007.2025	2807.1106	1584.35	695.35
1007.3216	2808.2842	1601.45	714
1007.4406	2809.4572	1625.2	737.25
1007.5596	2810.6294	1652.05	764.85
1007.6785	2811.801	1686.75	799.05
1007.7975	2812.972	1717.05	832.3
1007.9163	2814.1423	1759.45	870.3
1008.0352	2815.3119	1801.75	914.05
1008.154	2816.4808	1853.25	967.35
1008.2727	2817.6491	1898.1	1010.2
1008.3914	2818.8167	1942.4	1057.4
1008.5101	2819.9837	2017.3	1125.85
1008.6288	2821.15	2053.15	1165.9
1008.7474	2822.3157	2113.5	1228.75
1008.8659	2823.4807	2162.35	1275.95
1008.9844	2824.645	2228.4	1341
1009.1029	2825.8086	2278.55	1392.85
1009.2214	2826.9716	2337.75	1452.7
1009.3398	2828.134	2392.1	1505.9
1009.4581	2829.2957	2444.3	1556.25
1009.5764	2830.4567	2473.45	1587.15
1009.6947	2831.617	2500.2	1613.3
1009.813	2832.7767	2510.05	1621.85
1009.9312	2833.9358	2515.55	1630.15
1010.0493	2835.0941	2507.4	1618.1
1010.1675	2836.2519	2490.4	1602.6
1010.2855	2837.4089	2474.45	1587.1
1010.4036	2838.5653	2457.7	1571.9
1010.5216	2839.7211	2443.55	1558.85
1010.6396	2840.8761	2435.7	1548.1
1010.7575	2842.0306	2438.8	1552.55
1010.8754	2843.1843	2468.45	1583.9
1010.9932	2844.3374	2493.5	1608.05
1011.111	2845.4899	2541.3	1654.5
1011.2288	2846.6417	2605.15	1718.2
1011.3465	2847.7928	2659.9	1773.2
1011.4642	2848.9433	2714.2	1829.5
1011.5818	2850.0931	2765.55	1881.55
1011.6995	2851.2422	2832.2	1943.25
1011.817	2852.3907	2893.85	2007
1011.9345	2853.5385	2941.1	2051.35
1012.052	2854.6857	3009.6	2096.95
1012.1695	2855.8323	3031.55	2146.4
1012.2869	2856.9781	3085.4	2199.05
1012.4042	2858.1233	3130.65	2244.4
1012.5216	2859.2679	3176.4	2291.55
1012.6389	2860.4118	3237.8	2353
1012.7561	2861.555	3286.55	2396.8
1012.8733	2862.6976	3321.65	2434.25
1012.9905	2863.8395	3358.7	2474.3
1013.1076	2864.9808	3388.7	2501.75
1013.2247	2866.1214	3409.3	2524.85
1013.3417	2867.2614	3443.4	2555.75
1013.4587	2868.4007	3443.5	2555.75
1013.5757	2869.5393	3446.2	2557.9
1013.6926	2870.6773	3480.1	2590.6
1013.8095	2871.8146	3498.9	2609.4
1013.9263	2872.9513	3490.75	2601.55
1014.0431	2874.0874	3477.45	2589.8
1014.1599	2875.2227	3469.9	2584.55
1014.2766	2876.3574	3454.95	2568.25
1014.3933	2877.4915	3418.15	2533.7
1014.51	2878.6249	3388.5	2505.25
1014.6266	2879.7577	3371.3	2482.45
1014.7431	2880.8898	3362.65	2466.65
1014.8596	2882.0212	3336.25	2449.8
1014.9761	2883.152	3326.45	2441.5
1015.0925	2884.2821	3321.5	2437.3
1015.2089	2885.4116	3309.9	2426.5
1015.3253	2886.5405	3304.65	2420.4
1015.4416	2887.6686	3320.45	2432.2
1015.5579	2888.7962	3330.75	2445.2
1015.6741	2889.923	3328.9	2444.6
1015.7903	2891.0493	3330.7	2446.55
1015.9065	2892.1748	3347.7	2463.5
1016.0226	2893.2997	3351.7	2465.55
1016.1387	2894.424	3370.65	2487.35
1016.2547	2895.5476	3382.8	2497.2
1016.3707	2896.6706	3408.15	2523.1
1016.4866	2897.7929	3419.1	2533.3
1016.6025	2898.9145	3464.45	2580.3
1016.7184	2900.0355	3483.1	2596.9
1016.8342	2901.1559	3518.3	2632.1
1016.95	2902.2756	3554.3	2666.05
1017.0658	2903.3946	3580.75	2697.2
1017.1815	2904.513	3598.3	2709.85
1017.2971	2905.6308	3622.55	2738.4
1017.4127	2906.7479	3642.55	2758.65
1017.5283	2907.8643	3675	2789.5
1017.6439	2908.9801	3678	2793.3
1017.7594	2910.0953	3678.6	2792.25
1017.8748	2911.2098	3684.95	2796.3
1017.9902	2912.3236	3682.1	2787.55
1018.1056	2913.4368	3674.6	2787.4
1018.2209	2914.5494	3649.4	2762.75
1018.3362	2915.6613	3617.45	2728.8
1018.4515	2916.7725	3596	2709.2
1018.5667	2917.8831	3569.35	2685.3
1018.6819	2918.9931	3540.2	2653.3
1018.797	2920.1024	3502.8	2616
1018.9121	2921.211	3482.85	2597.9
1019.0271	2922.319	3475.4	2590.2
1019.1421	2923.4264	3466.95	2581.9
1019.2571	2924.5331	3450.6	2568.1
1019.372	2925.6391	3449.45	2562.7
1019.4869	2926.7445	3432.8	2549.65
1019.6017	2927.8493	3449.05	2565.5
1019.7165	2928.9534	3449.75	2564.9
1019.8313	2930.0569	3453.75	2566.5
1019.946	2931.1597	3458.45	2572.9
1020.0606	2932.2619	3460.05	2575.6
1020.1753	2933.3634	3465.4	2584.8
1020.2899	2934.4643	3475.85	2584.75
1020.4044	2935.5645	3454.4	2563.55
1020.5189	2936.6641	3441.1	2552.3
1020.6334	2937.763	3409.65	2526.6
1020.7478	2938.8613	3391.4	2506
1020.8622	2939.959	3335.2	2446.15
1020.9765	2941.056	3267.3	2383.65
1021.0908	2942.1523	3200.95	2317.4
1021.2051	2943.248	3126.25	2241.9
1021.3193	2944.3431	3036.4	2155.55
1021.4334	2945.4375	2942.5	2057.35
1021.5476	2946.5313	2840.3	1957.3
1021.6617	2947.6244	2752.5	1868.95
1021.7757	2948.7169	2648.4	1763.4
1021.8897	2949.8087	2565.65	1683.55
1022.0037	2950.8999	2475.15	1591.1
1022.1176	2951.9904	2400.95	1517.1
1022.2315	2953.0803	2324.75	1439.7
1022.3453	2954.1696	2261.1	1377.3
1022.4591	2955.2582	2220.05	1338.9
1022.5728	2956.3462	2171.5	1289.35
1022.6865	2957.4335	2132.45	1248.1
1022.8002	2958.5202	2095.05	1209.15
1022.9138	2959.6062	2058.8	1176
1023.0274	2960.6916	2053.05	1170.75
1023.141	2961.7764	2026.85	1140.6
1023.2545	2962.8605	2005.2	1121.95
1023.3679	2963.9439	2000.7	1118.35
1023.4813	2965.0267	1986.9	1102.2
1023.5947	2966.1089	1994.55	1089.3
1023.708	2967.1905	1976.05	1091.95
1023.8213	2968.2714	1968.4	1085.5
1023.9346	2969.3516	1967.95	1084.15
1024.0478	2970.4312	1977.05	1085.35
1024.1609	2971.5102	1971.3	1087.3
1024.274	2972.5885	1991.2	1110.35
1024.3871	2973.6662	2000.9	1111.35
1024.5002	2974.7432	1982.5	1100.35
1024.6132	2975.8196	1981.05	1097.25
1024.7261	2976.8954	1972.55	1092.45
1024.839	2977.9705	1964.9	1078.95
1024.9519	2979.045	1958.8	1074.95
1025.0647	2980.1188	1944	1062.35
1025.1775	2981.192	1921.5	1038.85
1025.2902	2982.2645	1907.1	1024.85
1025.4029	2983.3364	1878.4	995.6
1025.5156	2984.4077	1863.5	980.3
1025.6282	2985.4783	1846.35	957.5
1025.7407	2986.5483	1802.15	919.2
1025.8532	2987.6177	1775.1	892.85
1025.9657	2988.6864	1745.8	863.75
1026.0782	2989.7545	1719.2	835.7
1026.1906	2990.8219	1669.5	785.45
1026.3029	2991.8887	1652.95	766.05
1026.4152	2992.9548	1606.15	723.4
1026.5275	2994.0204	1579.85	698.5
1026.6397	2995.0852	1550.6	670.7
1026.7519	2996.1495	1522.55	638.2
1026.864	2997.2131	1498.1	616.1
1026.9761	2998.276	1475.8	594.35
1027.0882	2999.3383	1462.05	578.6
1027.2002	3000.4	1433.8	550.55
1027.3122	3001.4611	1415.75	532.5
1027.4241	3002.5215	1405.05	520.8
1027.536	3003.5812	1389.75	507.45
1027.6478	3004.6404	1370.45	488.1
1027.7596	3005.6989	1361.7	474.25
1027.8714	3006.7567	1353.75	471.85
1027.9831	3007.8139	1372.35	458.45
1028.0947	3008.8705	1324.35	444.55
1028.2064	3009.9264	1318.7	431.85
1028.3179	3010.9818	1310.5	429.05
1028.4295	3012.0364	1312.1	428.3
1028.541	3013.0905	1296.25	414.25
1028.6524	3014.1439	1293.95	409.1
1028.7638	3015.1966	1287.25	404.35
1028.8752	3016.2487	1287.1	405.25
1028.9865	3017.3002	1282.8	391.8
1029.0978	3018.3511	1281.55	400.55
1029.209	3019.4013	1276.8	394.85
1029.3202	3020.4509	1278.15	398.95
1029.4314	3021.4998	1272.05	389.9
1029.5425	3022.5481	1266.45	384.05
1029.6535	3023.5958	1265.95	383.05
1029.7645	3024.6428	1266	381.7
1029.8755	3025.6892	1261.55	377.3
1029.9864	3026.735	1254.9	373.45
1030.0973	3027.7802	1261.55	379.35
1030.2082	3028.8247	1271.45	391.25
1030.319	3029.8685	1262.65	380.85
1030.4297	3030.9118	1260.85	377.65
1030.5404	3031.9544	1269.65	387.25
1030.6511	3032.9963	1269.95	386.5
1030.7617	3034.0376	1272.6	392.8
1030.8723	3035.0783	1275.7	387.95
1030.9829	3036.1184	1278.55	396.75
1031.0934	3037.1578	1269.6	388.45
1031.2038	3038.1966	1276.1	394.9
1031.3142	3039.2348	1278.7	396.65
1031.4246	3040.2723	1285.95	394.5
1031.5349	3041.3092	1279.5	398.7
1031.6452	3042.3455	1278.65	398.75
1031.7554	3043.3811	1277	393.25
1031.8656	3044.4161	1272.2	390.05
1031.9758	3045.4505	1277.45	396.1
1032.0859	3046.4842	1273.95	389.55
1032.1959	3047.5173	1269.4	387.2
1032.3059	3048.5498	1260.55	378.5
1032.4159	3049.5816	1266.75	382.6
1032.5258	3050.6128	1261.25	380.7
1032.6357	3051.6434	1258.6	377.1
1032.7455	3052.6734	1258.9	375.25
1032.8553	3053.7027	1253.35	371.15
1032.9651	3054.7314	1246.65	366.5
1033.0748	3055.7594	1250.2	368.8
1033.1845	3056.7868	1245.95	363.1
1033.2941	3057.8136	1249.85	365.95
1033.4037	3058.8398	1235.2	355.1
1033.5132	3059.8653	1243.9	362.2
1033.6227	3060.8902	1236.05	353.45
1033.7321	3061.9145	1236.35	356.1
1033.8415	3062.9381	1233.8	351.25
1033.9509	3063.9612	1242.2	344.75
1034.0602	3064.9835	1226.75	343.65
1034.1694	3066.0053	1226	340.7
1034.2787	3067.0264	1217.7	337.05
1034.3878	3068.0469	1217.8	334.3
1034.497	3069.0668	1209.8	325.4
1034.6061	3070.086	1203.95	321
1034.7151	3071.1046	1203.15	321.75
1034.8241	3072.1226	1197.7	314.5
1034.9331	3073.1399	1189.55	308.35
1035.042	3074.1567	1179.8	298.75
1035.1508	3075.1727	1182.4	298.5
1035.2597	3076.1882	1170.65	290.9
1035.3684	3077.203	1165.75	284.3
1035.4772	3078.2173	1162.75	279.65
1035.5859	3079.2308	1152.25	268.2
1035.6945	3080.2438	1149.95	268.15
1035.8031	3081.2561	1134.45	252.1
1035.9117	3082.2678	1137	254.4
1036.0202	3083.2789	1123.3	240.95
1036.1286	3084.2893	1123.85	243.25
1036.2371	3085.2991	1114.8	232.65
1036.3454	3086.3083	1114.45	230.55
1036.4538	3087.3169	1109.3	226.4
1036.562	3088.3248	1106.25	223.6
1036.6703	3089.3321	1099.25	214.3
1036.7785	3090.3388	1091.65	211.5
1036.8866	3091.3449	1088.7	205.65
1036.9948	3092.3503	1091	209.55
1037.1028	3093.3551	1082.6	201.65
1037.2108	3094.3593	1078.45	199.1
1037.3188	3095.3629	1077.6	197.45
1037.4267	3096.3658	1074.6	190.8
1037.5346	3097.3681	1070.85	190.45
1037.6425	3098.3698	1073	188.75
1037.7503	3099.3708	1074.25	188.1
1037.858	3100.3713	1063.75	183.45
1037.9657	3101.3711	1065.65	184.5
1038.0734	3102.3702	1176.7	178.4
1038.181	3103.3688	1059.1	176.5
1038.2886	3104.3667	1054.45	174.45
1038.3961	3105.364	1050.5	170.2
1038.5036	3106.3607	1049.95	166.4
1038.611	3107.3568	1050.25	168.25
1038.7184	3108.3522	1045.65	167.05
1038.8257	3109.347	1045.3	165.4
1038.933	3110.3412	1047.2	162
1039.0403	3111.3348	1039.4	158.95
1039.1475	3112.3277	1041.9	162.3
1039.2547	3113.32	1032.25	152.05
1039.3618	3114.3117	1032.75	150.3
1039.4689	3115.3028	1035.2	154
1039.5759	3116.2932	1033.95	150.3
1039.6829	3117.2831	1037	150.5
1039.7898	3118.2723	1028.95	151.95
1039.8967	3119.2608	1027.45	145.25
1040.0035	3120.2488	1027.45	146.05
1040.1103	3121.2361	1024.05	142.45
1040.2171	3122.2229	1021.95	140.7
1040.3238	3123.209	1024.5	144.1
1040.4305	3124.1944	1018.5	138.6
1040.5371	3125.1793	1016.55	135.15
1040.6437	3126.1635	1017.8	138.75
1040.7502	3127.1471	1011.6	129.8
1040.8567	3128.1301	1012.05	130.65
1040.9631	3129.1125	1015.45	135.65
1041.0695	3130.0942	1011	129.85
1041.1759	3131.0753	1018.5	130.15
1041.2822	3132.0558	1014.6	132.75
1041.3884	3133.0357	1008.75	129.65
1041.4946	3134.015	1006.15	123.75
1041.6008	3134.9936	1005.75	124.3
1041.7069	3135.9716	1027.6	124.9
1041.813	3136.949	1002.85	121
1041.919	3137.9258	1021.05	123.75
1042.025	3138.902	1009.25	123.8
1042.1309	3139.8775	1003.75	125.95
1042.2368	3140.8524	1002.15	121.35
1042.3427	3141.8267	1002.5	120.6
1042.4485	3142.8004	999.15	118.4
1042.5542	3143.7735	1005.9	119.65
1042.6599	3144.7459	998.75	118.1
1042.7656	3145.7178	997.4	115.3
1042.8712	3146.689	992.75	112.6
1042.9768	3147.6596	991.8	108
1043.0823	3148.6295	992.65	111.05
1043.1878	3149.5989	990.15	111.55
1043.2932	3150.5676	988.9	110.75
1043.3986	3151.5357	991.4	112.35
1043.5039	3152.5032	990.15	111.35
1043.6092	3153.4701	990.05	108.55
1043.7145	3154.4364	988.85	106.75
1043.8197	3155.402	988.1	108.55
1043.9248	3156.367	984.5	101.75
1044.03	3157.3315	1018.45	101.8
1044.135	3158.2952	985.95	104.15
1044.24	3159.2584	982.5	104.65
1044.345	3160.221	980.4	99.2
1044.4499	3161.1829	985.4	106.35
1044.5548	3162.1442	978.25	99.3
1044.6596	3163.105	980.1	99.05
1044.7644	3164.065	981.05	99.45
1044.8692	3165.0245	979.95	97.15
1044.9739	3165.9834	977.15	98.8
1045.0785	3166.9416	975.95	95.4
1045.1831	3167.8993	982.5	102.1
1045.2877	3168.8563	978.4	98.85
1045.3922	3169.8127	976.75	96.9
1045.4966	3170.7684	975.2	95.25
1045.6011	3171.7236	971.7	91.5
1045.7054	3172.6782	972.75	94
1045.8098	3173.6321	974.55	92.7
1045.914	3174.5854	976.9	91.9
1046.0183	3175.5381	974.05	93.15
1046.1224	3176.4902	971.6	92.7
1046.2266	3177.4417	969.45	89.05
1046.3307	3178.3926	967.75	88.45
1046.4347	3179.3428	970.2	91.4
1046.5387	3180.2924	965.6	85.55
1046.6427	3181.2415	967.45	87.3
1046.7466	3182.1899	968.5	87.25
1046.8504	3183.1377	965.3	85.75
1046.9542	3184.0848	969.65	86.6
1047.058	3185.0314	967.6	87.5
1047.1617	3185.9773	964.35	81.8
1047.2654	3186.9227	965.75	86.6
1047.369	3187.8674	965.15	87.3
1047.4726	3188.8115	964.75	81.1
1047.5761	3189.755	961.4	84.2
1047.6796	3190.6979	962.6	82.65
1047.783	3191.6402	961.65	84.35
1047.8864	3192.5818	958.4	77.65
1047.9898	3193.5229	966.4	81
1048.0931	3194.4633	959.55	80.05
1048.1963	3195.4031	961.6	80.75
1048.2995	3196.3423	959.3	80.65
1048.4027	3197.2809	959.65	78.65
1048.5058	3198.2189	961.7	82.15
1048.6089	3199.1563	980.05	82.9
1048.7119	3200.0931	958.7	81.4
1048.8148	3201.0292	957.15	77.4
1048.9178	3201.9648	954.7	74.2
1049.0206	3202.8997	956.6	75.45
1049.1235	3203.834	956.25	75.65
1049.2262	3204.7677	955.55	76.15
1049.329	3205.7008	955.2	73.85
1049.4317	3206.6333	955.45	76.8
1049.5343	3207.5652	956	71.5
1049.6369	3208.4964	953.4	74.8
1049.7394	3209.4271	953.4	74.35
1049.8419	3210.3571	950	70.1
1049.9444	3211.2865	955.25	76.9
1050.0468	3212.2154	951.9	70.65
1050.1491	3213.1436	954.2	72.25
1050.2514	3214.0712	953.8	68.05
1050.3537	3214.9982	951.85	72.9
1050.4559	3215.9246	951.3	68.35
1050.5581	3216.8503	949.1	69.1
1050.6602	3217.7755	949.8	69.1
1050.7623	3218.7001	949.5	69.7
1050.8643	3219.624	949.05	70.65
1050.9663	3220.5473	947.65	67.75
1051.0682	3221.4701	947.7	65.9
1051.1701	3222.3922	947.4	67.55
1051.2719	3223.3137	945.35	66.45
1051.3737	3224.2346	945.3	64.9
1051.4754	3225.1549	945.05	64.5
1051.5771	3226.0746	946.45	67.35
1051.6788	3226.9937	944.9	65.15
1051.7804	3227.9121	945.3	68.65
1051.8819	3228.83	945	65.75
1051.9834	3229.7473	943.6	64.9
1052.0849	3230.6639	943.5	64.45
1052.1863	3231.5799	942.45	63.4
1052.2876	3232.4954	942.35	61.9
1052.3889	3233.4102	940.65	63.3
1052.4902	3234.3244	942.05	61.95
1052.5914	3235.238	939.8	60.15
1052.6926	3236.151	965.85	62.9
1052.7937	3237.0634	941.55	65.2
1052.8948	3237.9752	939.35	61.45
1052.9958	3238.8864	939	58.6
1053.0968	3239.797	939.05	61.1
1053.1977	3240.7069	940.8	59.9
1053.2986	3241.6163	939.15	57.75
1053.3994	3242.5251	935.25	56.55
1053.5002	3243.4332	936.35	57.65
1053.6009	3244.3408	937.45	57.05
1053.7016	3245.2477	936.5	59.45
1053.8022	3246.154	938.4	58.35
1053.9028	3247.0598	937.25	57.55
1054.0034	3247.9649	934.65	54.15
1054.1039	3248.8694	934.35	54.8
1054.2043	3249.7733	934.85	55.6
1054.3047	3250.6766	933.65	54.15
1054.4051	3251.5793	936.4	58.4
1054.5054	3252.4814	932.95	53.95
1054.6056	3253.3829	932.65	51.85
1054.7058	3254.2838	931.15	54.05
1054.806	3255.1841	933.35	55.85
1054.9061	3256.0838	927.85	50.05
1055.0061	3256.9829	927.6	48.8
1055.1062	3257.8814	930.35	49.8
1055.2061	3258.7792	930.65	49.3
1055.306	3259.6765	930.45	51.95
1055.4059	3260.5731	929.6	50.25
1055.5057	3261.4692	929.35	50.85
1055.6055	3262.3647	929.1	50.45
1055.7052	3263.2595	925.4	46.5
1055.8049	3264.1538	924.9	47.45
1055.9045	3265.0474	923.05	44.55
1056.0041	3265.9404	925.95	49.15
1056.1036	3266.8329	923	44.1
1056.2031	3267.7247	932.55	42.35
1056.3025	3268.616	922.15	46.9
1056.4019	3269.5066	918.2	37.35
1056.5013	3270.3966	922.25	41.9
1056.6005	3271.286	916.85	40.3
