Software Version:	3.9.2.0
Unit SN:	10000200
Spectrometer SN:	6960
Date:	3/8/2024 11:58:51 AM
Data Line Index:	25
Spectral Points:	2048
Integration time (ms):	125
Averages:	20
Delay (ms):	30000
Sequence Number:	1
Processing:	dark subtract
Laser Power (mW):	300
Laser Current (mA):	822
Laser Diode Temp (C):	25
Laser Case Temp (C):	25.5
System Temp (C):	25.5
Spectrometer Temp (C):	23.4
CCD Temp (C):	0.002
Secondary Temp (C):	20
Heatsink Temp (C):	20.255
CCDPCB Temp (C):	35.551
SecondaryPCB Temp (C):	27.959

Wavelength	RamanShift	Raw Counts	Dark Subtracted
787.061	30.1047	415.25	5.5
787.2016	32.3739	412.85	4.5
787.3422	34.6426	414.35	6
787.4828	36.9109	417.05	5.05
787.6235	39.1787	422.4	8.2
787.7642	41.4461	427.1	9.2
787.9049	43.7131	431.75	10.65
788.0456	45.9796	431.45	6.85
788.1863	48.2456	437.95	9.35
788.3271	50.5112	442.8	10
788.4679	52.7764	446.65	9.9
788.6087	55.0411	453.5	12.55
788.7496	57.3054	457.15	12.65
788.8904	59.5692	461.8	15.35
789.0313	61.8326	465.05	15.55
789.1722	64.0955	466.5	14.55
789.3132	66.3579	473.15	15.3
789.4541	68.6199	480.2	20.1
789.5951	70.8815	491.5	26.65
789.7361	73.1426	509.1	39.85
789.8771	75.4032	541.7	68.6
790.0181	77.6634	612.9	135.1
790.1592	79.9231	778.05	293.9
790.3003	82.1824	1125.6	632.65
790.4414	84.4412	1700.55	1186.45
790.5825	86.6995	2413.9	1881.55
790.7237	88.9574	3096.05	2543.2
790.8648	91.2148	3565.7	3001.75
791.006	93.4717	3750.3	3174.55
791.1472	95.7282	3768.45	3190.2
791.2885	97.9842	3759.9	3176.95
791.4297	100.2398	3707.2	3125.3
791.571	102.4949	3653.9	3067.35
791.7123	104.7495	3616	3022.5
791.8536	107.0036	3565.1	2973.95
791.9949	109.2573	3477.85	2886.95
792.1363	111.5105	3388.65	2797.45
792.2777	113.7632	3292.4	2696.35
792.4191	116.0154	3198.7	2592.75
792.5605	118.2672	3062.45	2461.2
792.7019	120.5185	2969.85	2369.75
792.8434	122.7693	2882.35	2277.55
792.9849	125.0197	2799.95	2190.5
793.1264	127.2696	2745.6	2130.65
793.2679	129.519	2708.75	2092.4
793.4094	131.7679	2677.05	2061.45
793.551	134.0163	2663.75	2042.6
793.6926	136.2642	2654.7	2031.45
793.8342	138.5117	2640.5	2005.25
793.9758	140.7587	2600.3	1971.15
794.1175	143.0052	2553.3	1923.05
794.2591	145.2512	2503.75	1873.8
794.4008	147.4967	2454.25	1824
794.5425	149.7417	2412.65	1776.1
794.6842	151.9863	2389.95	1751.45
794.826	154.2304	2387.8	1744
794.9677	156.4739	2378.6	1728.05
795.1095	158.717	2399.35	1747.5
795.2513	160.9596	2412	1758
795.3931	163.2017	2428.05	1772.45
795.535	165.4433	2431.3	1771.05
795.6768	167.6844	2420.1	1758.35
795.8187	169.925	2380.8	1719.35
795.9606	172.1651	2344.6	1680.65
796.1025	174.4047	2292.45	1623.9
796.2445	176.6439	2256.75	1587.55
796.3864	178.8825	2230.45	1554.9
796.5284	181.1206	2211.9	1531.8
796.6704	183.3582	2213.05	1533.1
796.8124	185.5954	2215.7	1530.05
796.9544	187.832	2199.65	1509.6
797.0965	190.0681	2211.85	1521.65
797.2386	192.3037	2232.6	1542.1
797.3806	194.5388	2228.8	1528.75
797.5228	196.7734	2229.6	1531.6
797.6649	199.0075	2237.85	1538.2
797.807	201.2411	2270.05	1569.7
797.9492	203.4742	2281.75	1581.4
798.0914	205.7068	2312.55	1603.65
798.2336	207.9389	2332.6	1623.45
798.3758	210.1704	2341.9	1639.5
798.518	212.4015	2337.65	1645.55
798.6603	214.632	2343.95	1655.7
798.8025	216.862	2341.05	1657.65
798.9448	219.0915	2356.45	1668.75
799.0871	221.3205	2369	1677.15
799.2294	223.549	2368.8	1682.25
799.3718	225.777	2367.25	1682.8
799.5141	228.0044	2362.15	1672.7
799.6565	230.2314	2357.6	1667.4
799.7989	232.4578	2340.5	1642.5
799.9413	234.6837	2311.25	1607.9
800.0837	236.909	2318.1	1607.75
800.2262	239.1339	2327.35	1595.1
800.3687	241.3582	2313.9	1592.85
800.5111	243.582	2335.45	1586.5
800.6536	245.8053	2335.05	1599.55
800.7961	248.0281	2336.6	1605.6
800.9387	250.2503	2339.65	1607.7
801.0812	252.472	2349.6	1611.3
801.2238	254.6932	2353.15	1618.3
801.3664	256.9139	2359.85	1623.65
801.509	259.134	2389.2	1648.85
801.6516	261.3536	2405.85	1667.8
801.7942	263.5727	2445.05	1705.35
801.9369	265.7912	2490.95	1752.05
802.0795	268.0092	2554.2	1815.1
802.2222	270.2267	2598	1857.25
802.3649	272.4436	2658.3	1915.75
802.5076	274.6601	2686.05	1928.6
802.6504	276.8759	2701.15	1952.7
802.7931	279.0913	2718.3	1969.25
802.9359	281.3061	2735.15	1986.1
803.0787	283.5204	2756.5	2004.85
803.2215	285.7341	2779.85	2022.15
803.3643	287.9473	2796.45	2039.45
803.5071	290.16	2798.3	2038.05
803.6499	292.3721	2753.55	2000.1
803.7928	294.5837	2729.25	1972.4
803.9357	296.7947	2711.2	1957.5
804.0786	299.0052	2702	1946.5
804.2215	301.2152	2686.2	1925.65
804.3644	303.4246	2672.4	1913.9
804.5074	305.6334	2641.15	1884.45
804.6503	307.8418	2631.4	1871.95
804.7933	310.0495	2594.1	1831.55
804.9363	312.2568	2550.85	1787.85
805.0793	314.4635	2514	1751.3
805.2223	316.6696	2466.75	1699.65
805.3653	318.8752	2429.45	1655.05
805.5084	321.0802	2413.7	1644.55
805.6514	323.2847	2394.85	1624.55
805.7945	325.4887	2400.95	1631.55
805.9376	327.692	2427.65	1654.6
806.0807	329.8949	2470	1698.6
806.2238	332.0972	2481.35	1704.85
806.367	334.2989	2500.6	1719.2
806.5101	336.5001	2504.35	1722.95
806.6533	338.7007	2478.6	1696.9
806.7965	340.9008	2443.5	1661.25
806.9397	343.1003	2379.1	1598.75
807.0829	345.2992	2339.8	1557.8
807.2261	347.4976	2303.25	1518.35
807.3693	349.6955	2271.65	1482.55
807.5126	351.8927	2262.85	1469.35
807.6559	354.0895	2243.3	1437.6
807.7991	356.2856	2225.75	1432.65
807.9424	358.4812	2215.3	1423.6
808.0857	360.6763	2227.3	1431
808.2291	362.8707	2218	1422.65
808.3724	365.0646	2232.45	1435.1
808.5158	367.258	2248.75	1449.35
808.6591	369.4508	2251.35	1447.3
808.8025	371.643	2283.75	1477.05
808.9459	373.8346	2300.95	1497.2
809.0893	376.0257	2335.1	1527.15
809.2327	378.2162	2355.1	1550.9
809.3762	380.4062	2369.8	1565.65
809.5196	382.5956	2335.95	1534.45
809.6631	384.7844	2292.05	1489.1
809.8066	386.9726	2263.8	1464.85
809.9501	389.1603	2238.85	1440.25
810.0936	391.3474	2248.05	1417.25
810.2371	393.5339	2235.45	1438.75
810.3806	395.7199	2231.2	1433.65
810.5241	397.9052	2263.5	1465.45
810.6677	400.09	2304.8	1505.9
810.8113	402.2743	2346.6	1547.1
810.9548	404.4579	2376.95	1578.4
811.0984	406.641	2420.65	1621.2
811.2421	408.8235	2453.3	1648.9
811.3857	411.0054	2504.7	1696.6
811.5293	413.1868	2568.2	1757.1
811.673	415.3675	2628.8	1815.45
811.8166	417.5477	2617.4	1803.7
811.9603	419.7273	2550.75	1734.2
812.104	421.9064	2465.85	1641.55
812.2477	424.0848	2407.5	1590.95
812.3914	426.2627	2356.65	1537.8
812.5351	428.4399	2309.25	1490.3
812.6788	430.6166	2262.6	1439.6
812.8226	432.7928	2211.55	1387.95
812.9663	434.9683	2170.55	1348.05
813.1101	437.1432	2138.25	1315
813.2539	439.3176	2132.85	1312.95
813.3977	441.4914	2111.35	1291.6
813.5415	443.6645	2107.9	1287.3
813.6853	445.8371	2111.3	1286.6
813.8291	448.0091	2112.15	1288.2
813.973	450.1806	2110.6	1288.75
814.1168	452.3514	2097.45	1272.1
814.2607	454.5216	2104.6	1270.4
814.4046	456.6913	2103	1276.1
814.5485	458.8603	2107.2	1281.75
814.6924	461.0288	2103.8	1284.2
814.8363	463.1967	2111.8	1291.05
814.9802	465.3639	2101.5	1276.3
815.1241	467.5306	2097.55	1273
815.2681	469.6967	2094.65	1269.45
815.412	471.8622	2081.4	1256.7
815.556	474.0271	2082.2	1256.75
815.7	476.1914	2084.8	1255.7
815.844	478.3551	2081.55	1251.45
815.988	480.5182	2076.35	1246.05
816.132	482.6807	2085.05	1259.25
816.276	484.8426	2094.4	1271.75
816.4201	487.0039	2140.75	1312.55
816.5641	489.1647	2184.55	1355.85
816.7082	491.3248	2243.1	1411.4
816.8522	493.4843	2243.95	1412.1
816.9963	495.6432	2245.6	1415.9
817.1404	497.8015	2213.9	1373.7
817.2845	499.9592	2175.8	1338.05
817.4286	502.1163	2124	1284.2
817.5727	504.2728	2076.9	1243.8
817.7168	506.4287	2056.75	1224.55
817.861	508.5839	2040.6	1210.45
818.0051	510.7386	2035.35	1199.8
818.1493	512.8927	2052.2	1211.4
818.2935	515.0461	2053.25	1215.2
818.4377	517.199	2082.75	1241.8
818.5818	519.3512	2109.65	1269.65
818.726	521.5029	2185.25	1337.8
818.8703	523.6539	2223.5	1381
819.0145	525.8043	2238.05	1395.2
819.1587	527.9541	2189.75	1345.7
819.303	530.1033	2112.9	1268.5
819.4472	532.2519	2076.65	1231.2
819.5915	534.3999	2060.75	1214.8
819.7357	536.5472	2051.6	1207.7
819.88	538.694	2045.55	1210.05
820.0243	540.8401	2071.3	1226.6
820.1686	542.9856	2086.85	1236.05
820.3129	545.1305	2092.75	1239.9
820.4572	547.2748	2110.85	1257.9
820.6016	549.4185	2118.65	1265.65
820.7459	551.5615	2124	1274.15
820.8902	553.704	2142.35	1292.3
821.0346	555.8458	2157.75	1310.7
821.1789	557.987	2174.9	1328.6
821.3233	560.1276	2195.8	1344.6
821.4677	562.2675	2260.9	1410.85
821.6121	564.4069	2307.45	1454.9
821.7565	566.5456	2332.9	1482.05
821.9009	568.6837	2330.95	1481.25
822.0453	570.8212	2257.4	1406.1
822.1897	572.958	2206.95	1356.95
822.3342	575.0942	2138.9	1288.7
822.4786	577.2299	2103.7	1257.45
822.6231	579.3648	2076.45	1231.15
822.7675	581.4992	2057.75	1215.05
822.912	583.6329	2064.1	1222.5
823.0565	585.766	2100.4	1256.6
823.201	587.8985	2141.65	1293.95
823.3454	590.0304	2195.85	1331.5
823.4899	592.1616	2227.45	1371.25
823.6345	594.2922	2209.2	1352.35
823.779	596.4222	2161.5	1304.2
823.9235	598.5515	2108.1	1250.15
824.068	600.6802	2066.65	1210.35
824.2126	602.8083	2035.45	1178.1
824.3571	604.9358	2020.85	1161.65
824.5017	607.0626	2012.45	1152
824.6462	609.1888	2034.2	1173.25
824.7908	611.3144	2061.15	1200.6
824.9354	613.4393	2090.4	1232.95
825.08	615.5636	2137.7	1276.05
825.2246	617.6873	2177.75	1315.15
825.3692	619.8103	2207.5	1344.45
825.5138	621.9327	2210.65	1345.35
825.6584	624.0544	2168	1306.75
825.803	626.1756	2113.1	1253.25
825.9477	628.2961	2074	1209.1
826.0923	630.4159	2056.85	1192.9
826.237	632.5351	2052.45	1188.7
826.3816	634.6537	2038.3	1172.15
826.5263	636.7716	2034.8	1166.6
826.6709	638.8889	2026.5	1159.2
826.8156	641.0056	2033.95	1166.65
826.9603	643.1216	2027.35	1160.95
827.105	645.237	2039.7	1172.3
827.2497	647.3518	2013.7	1150.2
827.3944	649.4659	1988.75	1126.8
827.5391	651.5793	1984.45	1122.35
827.6838	653.6922	1973	1109.7
827.8285	655.8043	1945.7	1083.2
827.9733	657.9159	1948.75	1080.95
828.118	660.0268	1943.4	1076.7
828.2627	662.137	1936.85	1069.25
828.4075	664.2466	1945.15	1073.2
828.5522	666.3556	1929.55	1059.6
828.697	668.4639	1929.1	1055.95
828.8418	670.5716	1915.25	1048.3
828.9865	672.6786	1919.85	1049.35
829.1313	674.785	1919.25	1044.95
829.2761	676.8907	1915.65	1044.05
829.4209	678.9958	1908.7	1042.85
829.5657	681.1002	1911.9	1039.35
829.7105	683.204	1909.8	1028.5
829.8553	685.3072	1912.8	1037.9
830.0001	687.4097	1906.6	1030.75
830.1449	689.5115	1912.95	1036.4
830.2898	691.6127	1900.05	1031.3
830.4346	693.7132	1903.4	1029.55
830.5794	695.8131	1928.7	1036.3
830.7243	697.9123	1909.3	1034.3
830.8691	700.0109	1918.9	1042.65
831.014	702.1089	1920.6	1045.35
831.1588	704.2061	1940.9	1066.15
831.3037	706.3028	1957.35	1080.85
831.4486	708.3987	1976.35	1099.1
831.5935	710.4941	1983.9	1110
831.7383	712.5887	1997.5	1121.45
831.8832	714.6827	1990.25	1111.35
832.0281	716.7761	1973.95	1096.8
832.173	718.8688	1988.5	1109.1
832.3179	720.9608	1990.05	1107.05
832.4628	723.0522	2009.2	1125.15
832.6077	725.1429	2030.45	1149.35
832.7527	727.233	2072.1	1191.75
832.8976	729.3224	2128	1247.4
833.0425	731.4112	2173.1	1292.7
833.1874	733.4993	2166.9	1283.95
833.3324	735.5867	2120.45	1243.65
833.4773	737.6735	2062.3	1180.25
833.6222	739.7596	1998.9	1118.2
833.7672	741.845	1977.15	1094.4
833.9122	743.9298	1983.1	1102.05
834.0571	746.014	1985.25	1102.6
834.2021	748.0974	1992.5	1109.2
834.347	750.1802	1984.8	1100.35
834.492	752.2624	1990.05	1105
834.637	754.3439	1972.15	1086.9
834.782	756.4247	1971.8	1080.4
834.9269	758.5048	1981.1	1097.9
835.0719	760.5843	1994.35	1108.55
835.2169	762.6631	2034.15	1149.55
835.3619	764.7413	2076.55	1194.5
835.5069	766.8188	2150.55	1265.6
835.6519	768.8956	2246.65	1359.3
835.7969	770.9718	2298.75	1413.7
835.9419	773.0473	2288.95	1403.2
836.0869	775.1221	2264.1	1376.5
836.232	777.1962	2252.4	1367.2
836.377	779.2697	2296.2	1407.7
836.522	781.3426	2397.9	1492
836.667	783.4147	2450.15	1562.55
836.8121	785.4862	2404	1519.25
836.9571	787.557	2325.45	1438.15
837.1021	789.6271	2211.45	1324.45
837.2472	791.6966	2098.7	1210.8
837.3922	793.7654	2004.3	1116.75
837.5373	795.8335	1960.6	1071.45
837.6823	797.901	1932.55	1045.5
837.8274	799.9678	1929.95	1039.95
837.9724	802.0339	1933.95	1044.1
838.1175	804.0993	1940.1	1043.25
838.2626	806.1641	1915.85	1029.35
838.4076	808.2282	1885.85	998.5
838.5527	810.2916	1885.95	997
838.6978	812.3544	1878.95	993.1
838.8428	814.4164	1860	974.7
838.9879	816.4778	1872.6	982.9
839.133	818.5385	1885.35	993.1
839.2781	820.5986	1914.65	1025.05
839.4232	822.658	1965.95	1073.65
839.5682	824.7166	2016.95	1128.2
839.7133	826.7747	2104.7	1214.65
839.8584	828.832	2192.7	1304.05
840.0035	830.8886	2238.95	1347.4
840.1486	832.9446	2262.1	1371.8
840.2937	834.9999	2212.45	1319.75
840.4388	837.0545	2159.45	1263.1
840.5839	839.1085	2069.85	1176.15
840.729	841.1618	2018.25	1118.5
840.8741	843.2143	1962.35	1069.9
841.0192	845.2662	1923.05	1031.7
841.1643	847.3175	1907.5	1014.1
841.3095	849.368	1902.85	1010.6
841.4546	851.4179	1902.25	1010.8
841.5997	853.467	1900.4	1007.75
841.7448	855.5155	1900.5	1007.4
841.8899	857.5633	1908.4	1014.7
842.0351	859.6105	1905.15	1012.45
842.1802	861.6569	1881.95	989.1
842.3253	863.7027	1873.2	979.45
842.4704	865.7478	1866.5	972.2
842.6156	867.7922	1860.4	965.15
842.7607	869.8359	1848.95	952.4
842.9058	871.8789	1852.05	957.55
843.0509	873.9212	1879.65	953.7
843.1961	875.9629	1856.6	962.6
843.3412	878.0039	1861.05	966.1
843.4863	880.0441	1888.5	997.3
843.6315	882.0837	1899.7	1004.35
843.7766	884.1226	1921.25	1023.65
843.9218	886.1609	1956.85	1059.9
844.0669	888.1984	1996.9	1103.4
844.212	890.2352	2036.6	1141.15
844.3572	892.2714	2054.6	1155.05
844.5023	894.3069	2025.05	1126.85
844.6475	896.3416	1971.65	1072.95
844.7926	898.3757	1932.2	1039.3
844.9377	900.4091	1922.25	1023.45
845.0829	902.4418	1919.75	1017.3
845.228	904.4739	1935.7	1036.15
845.3732	906.5052	1940	1043.65
845.5183	908.5358	1935	1036.35
845.6635	910.5658	1918.45	1020.5
845.8086	912.595	1890.65	993.05
845.9538	914.6236	1850.35	953.2
846.0989	916.6515	1817.8	920
846.2441	918.6786	1801.45	902.05
846.3892	920.7051	1798.95	897.6
846.5344	922.7309	1797.9	898
846.6795	924.756	1785.75	888.2
846.8246	926.7804	1804.85	907.35
846.9698	928.8041	1820.65	921.85
847.1149	930.8272	1829.55	930.75
847.2601	932.8495	1843	945.5
847.4052	934.8711	1852.05	954.15
847.5504	936.892	1860.95	961.25
847.6955	938.9123	1876.05	973.2
847.8407	940.9318	1889.5	987.65
847.9858	942.9506	1903.6	1001.3
848.131	944.9688	1898.15	1001.4
848.2761	946.9862	1873.15	971.15
848.4213	949.003	1832.85	930.8
848.5664	951.019	1812.4	912.35
848.7115	953.0344	1798.6	898.6
848.8567	955.0491	1792.9	891.2
849.0018	957.063	1786.7	887.1
849.147	959.0763	1781.45	883.9
849.2921	961.0888	1777.05	876.45
849.4373	963.1007	1783.7	885.6
849.5824	965.1119	1780.15	886.2
849.7275	967.1223	1774.9	881.05
849.8727	969.1321	1761.8	865.8
850.0178	971.1412	1759.5	865.05
850.1629	973.1495	1755.65	860.4
850.3081	975.1572	1788.2	857.95
850.4532	977.1641	1761.25	859
850.5983	979.1704	1758.9	859.05
850.7435	981.1759	1752.6	848.9
850.8886	983.1808	1754.6	853.1
851.0337	985.1849	1756.45	842.9
851.1788	987.1884	1744.05	842.45
851.324	989.1911	1753.6	851.1
851.4691	991.1932	1748.8	846.35
851.6142	993.1945	1751.4	850.5
851.7593	995.1951	1742.05	841.6
851.9045	997.1951	1751.45	845.75
852.0496	999.1943	1748.65	849.1
852.1947	1001.1928	1753.55	853.25
852.3398	1003.1906	1755.4	854.15
852.4849	1005.1877	1782.35	879.9
852.63	1007.1841	1802.3	900.25
852.7751	1009.1798	1815.1	914.5
852.9202	1011.1748	1806.8	904.6
853.0653	1013.1691	1781.95	880.1
853.2104	1015.1627	1757.95	859.1
853.3555	1017.1556	1717.6	816.35
853.5006	1019.1477	1706.85	805.6
853.6457	1021.1392	1681.55	784.05
853.7908	1023.1299	1686.05	789.5
853.9359	1025.12	1681.05	787.05
854.081	1027.1093	1681.95	794.8
854.2261	1029.0979	1698.25	810.3
854.3712	1031.0859	1720.15	832.1
854.5163	1033.0731	1730.45	833.8
854.6613	1035.0596	1727	831.15
854.8064	1037.0454	1732.45	834.3
854.9515	1039.0304	1713.65	814.15
855.0965	1041.0148	1697.9	796.1
855.2416	1042.9985	1677.95	776.4
855.3867	1044.9814	1674.8	775.15
855.5317	1046.9636	1674.25	770.8
855.6768	1048.9452	1680.25	779.65
855.8219	1050.926	1697.5	797.1
855.9669	1052.9061	1707.3	807
856.112	1054.8855	1706.25	807.6
856.257	1056.8642	1706.2	804.95
856.4021	1058.8421	1707.9	802
856.5471	1060.8194	1708.4	806.05
856.6921	1062.7959	1704.8	802.45
856.8372	1064.7717	1704.75	800.25
856.9822	1066.7469	1704.9	800.95
857.1272	1068.7213	1705.8	801.4
857.2723	1070.695	1723.85	819.2
857.4173	1072.6679	1746.5	843.3
857.5623	1074.6402	1756.15	855.15
857.7073	1076.6117	1759.8	850.85
857.8523	1078.5826	1733.7	829.85
857.9973	1080.5527	1709.5	805.7
858.1423	1082.5221	1676.7	775.2
858.2873	1084.4908	1651.3	749.4
858.4323	1086.4587	1640.15	737.95
858.5773	1088.426	1637.35	731
858.7223	1090.3925	1634.3	725
858.8673	1092.3584	1638.45	738
859.0123	1094.3235	1654.7	752.8
859.1573	1096.2879	1672.35	769.2
859.3022	1098.2515	1695.9	793.65
859.4472	1100.2145	1719.9	818.25
859.5922	1102.1767	1750.35	845.8
859.7371	1104.1382	1786.55	889
859.8821	1106.099	1841.75	938.5
860.027	1108.0591	1880.95	978.85
860.172	1110.0185	1911.6	1008.25
860.3169	1111.9771	1946.35	1041.85
860.4619	1113.9351	2002.8	1099.6
860.6068	1115.8923	2040.15	1137.95
860.7517	1117.8488	2051.9	1142.7
860.8967	1119.8045	1999.85	1096.9
861.0416	1121.7596	1923.35	1022.9
861.1865	1123.7139	1836.85	934.95
861.3314	1125.6675	1792.9	891.25
861.4763	1127.6204	1794.2	891
861.6212	1129.5726	1796.95	892.05
861.7661	1131.524	1798.85	895.9
861.911	1133.4748	1763.9	862.9
862.0559	1135.4248	1715.65	812.45
862.2008	1137.3741	1667.55	764.85
862.3457	1139.3226	1655	750.5
862.4905	1141.2705	1650.6	747.2
862.6354	1143.2176	1658.7	750.65
862.7803	1145.164	1660.85	753.9
862.9251	1147.1097	1660	757
863.07	1149.0546	1638.1	732.25
863.2148	1150.9989	1621	719.85
863.3597	1152.9424	1610.55	705.45
863.5045	1154.8852	1587.65	684.1
863.6493	1156.8272	1592.55	690.75
863.7942	1158.7686	1593.6	685.95
863.939	1160.7092	1587.45	682.35
864.0838	1162.6491	1595.5	691.5
864.2286	1164.5883	1607.05	703.65
864.3734	1166.5267	1614.95	710.5
864.5182	1168.4644	1647.4	744.45
864.663	1170.4014	1673.5	767.45
864.8078	1172.3377	1711.1	810
864.9526	1174.2732	1757.3	855.6
865.0974	1176.2081	1848.45	945.4
865.2421	1178.1421	1962.15	1053.85
865.3869	1180.0755	2058.95	1156.25
865.5317	1182.0082	2092.8	1190.5
865.6764	1183.9401	2072.5	1172.55
865.8212	1185.8713	1969.55	1070.65
865.9659	1187.8017	1864.05	964.9
866.1106	1189.7315	1763.6	869.95
866.2554	1191.6605	1724.55	799.8
866.4001	1193.5888	1670.6	775.3
866.5448	1195.5163	1641.4	742.8
866.6895	1197.4432	1617	712.6
866.8342	1199.3693	1606.35	704.95
866.9789	1201.2947	1604.95	700.55
867.1236	1203.2193	1587.8	687.25
867.2683	1205.1432	1582.65	680.1
867.413	1207.0664	1587.55	683.45
867.5576	1208.9889	1586.5	680.95
867.7023	1210.9106	1589.8	686.6
867.847	1212.8316	1597.75	695.3
867.9916	1214.7519	1614.3	702.7
868.1363	1216.6715	1615.8	713.7
868.2809	1218.5903	1628.3	724.35
868.4255	1220.5084	1637.25	733.85
868.5701	1222.4257	1654.75	752.9
868.7148	1224.3424	1665.95	766.1
868.8594	1226.2583	1688.35	782.65
869.004	1228.1735	1720.85	818.05
869.1486	1230.0879	1747.35	844.2
869.2932	1232.0016	1788.8	885.5
869.4377	1233.9146	1822.5	914.45
869.5823	1235.8269	1838.95	936.3
869.7269	1237.7384	1842.2	938.55
869.8715	1239.6492	1842.35	941.65
870.016	1241.5592	1877.65	975
870.1606	1243.4686	1919.2	1016.45
870.3051	1245.3772	1984.25	1080.5
870.4496	1247.285	2056.4	1151.25
870.5941	1249.1922	2140.8	1235.9
870.7387	1251.0986	2211	1308.1
870.8832	1253.0042	2275	1372.2
871.0277	1254.9092	2340	1437.9
871.1722	1256.8134	2408.25	1506.2
871.3167	1258.7169	2455.05	1551.7
871.4611	1260.6196	2481.4	1581.65
871.6056	1262.5216	2482.55	1578.75
871.7501	1264.4229	2462.4	1560.6
871.8945	1266.3234	2430.9	1528.4
872.039	1268.2232	2384.1	1478.8
872.1834	1270.1223	2347.9	1441.85
872.3278	1272.0207	2324.2	1418.65
872.4723	1273.9183	2316.3	1406.1
872.6167	1275.8151	2309.35	1407.95
872.7611	1277.7113	2354.65	1453.05
872.9055	1279.6067	2438.7	1535.25
873.0499	1281.5014	2567.4	1661.75
873.1943	1283.3953	2721.85	1816.85
873.3386	1285.2885	2867.65	1963.15
873.483	1287.181	2967.6	2066.45
873.6274	1289.0727	2994.75	2093.8
873.7717	1290.9637	2967.35	2065.7
873.9161	1292.854	2890.9	1989
874.0604	1294.7435	2809.95	1905.05
874.2047	1296.6323	2718.75	1815.1
874.349	1298.5204	2643.15	1733.95
874.4933	1300.4077	2593.8	1689.05
874.6376	1302.2943	2539.25	1636.55
874.7819	1304.1802	2518.65	1615.3
874.9262	1306.0653	2480.85	1576.3
875.0705	1307.9497	2446.55	1543.25
875.2147	1309.8333	2401.3	1499.55
875.359	1311.7162	2367.8	1467.15
875.5032	1313.5984	2318	1412.25
875.6475	1315.4798	2321.9	1408.6
875.7917	1317.3605	2319.2	1407.55
875.9359	1319.2405	2291.3	1385.95
876.0801	1321.1197	2244.25	1337.05
876.2243	1322.9982	2199	1291.9
876.3685	1324.876	2136.65	1232.95
876.5127	1326.753	2038.7	1136.6
876.6569	1328.6293	1969	1063.55
876.801	1330.5048	1906.5	1000.3
876.9452	1332.3796	1853.55	950.65
877.0893	1334.2537	1832	902.75
877.2335	1336.127	1771.55	868.85
877.3776	1337.9996	1739.05	834.3
877.5217	1339.8714	1737.45	834.5
877.6658	1341.7426	1766.55	816.5
877.8099	1343.6129	1700.05	792.55
877.954	1345.4826	1695.2	787.35
878.0981	1347.3515	1681.4	773.95
878.2422	1349.2196	1668.25	762.95
878.3862	1351.087	1666.1	760.6
878.5303	1352.9537	1657.75	752.2
878.6743	1354.8197	1670.95	766.2
878.8184	1356.6849	1677.2	771.75
878.9624	1358.5493	1683.45	782.1
879.1064	1360.4131	1707.35	805.4
879.2504	1362.276	1748.25	843.95
879.3944	1364.1383	1780.2	876
879.5384	1365.9998	1788.2	878.5
879.6823	1367.8606	1768.45	862.85
879.8263	1369.7206	1754.7	849.15
879.9702	1371.5799	1759.9	854.1
880.1142	1373.4384	1742.2	836.4
880.2581	1375.2962	1715.05	807.95
880.402	1377.1533	1678.3	772.9
880.5459	1379.0096	1629.85	729.05
880.6898	1380.8652	1597.9	696
880.8337	1382.7201	1570.4	670.3
880.9776	1384.5742	1543.15	638.75
881.1215	1386.4275	1536.6	630.75
881.2653	1388.2802	1527.95	623.5
881.4092	1390.132	1511.65	606.3
881.553	1391.9832	1499.6	593.55
881.6968	1393.8336	1487.95	583.2
881.8406	1395.6832	1485.25	579.4
881.9844	1397.5322	1480.45	577.75
882.1282	1399.3803	1476.05	565.6
882.272	1401.2278	1461.65	557.15
882.4158	1403.0745	1452.6	549.5
882.5595	1404.9204	1442.5	540.35
882.7033	1406.7656	1453.15	550.25
882.847	1408.6101	1443.65	538.7
882.9908	1410.4538	1437.75	529.1
883.1345	1412.2968	1432.4	528.4
883.2782	1414.139	1439.2	536.9
883.4219	1415.9805	1448.05	545.15
883.5656	1417.8213	1468.4	557.95
883.7092	1419.6613	1476.45	573.8
883.8529	1421.5006	1495.2	593.05
883.9965	1423.3391	1532.4	628.25
884.1402	1425.1769	1577.4	671.1
884.2838	1427.0139	1645.45	741.15
884.4274	1428.8502	1719.15	813.5
884.571	1430.6858	1777.6	873.15
884.7146	1432.5206	1795.55	893.3
884.8582	1434.3547	1793	890.05
885.0018	1436.188	1776.6	875.3
885.1453	1438.0206	1753.6	850.5
885.2889	1439.8524	1742.65	836.55
885.4324	1441.6835	1752.9	850.7
885.5759	1443.5139	1747.15	841.1
885.7194	1445.3435	1753.15	850.45
885.8629	1447.1724	1754.25	853.7
886.0064	1449.0005	1745	844.2
886.1499	1450.8279	1734.45	832.35
886.2933	1452.6545	1728.2	825.9
886.4368	1454.4804	1731.25	832.65
886.5802	1456.3056	1729.35	820.7
886.7237	1458.13	1711.15	811.4
886.8671	1459.9536	1687.5	783.7
887.0105	1461.7766	1656.6	756.05
887.1539	1463.5987	1627.85	724.5
887.2972	1465.4202	1599.2	700.2
887.4406	1467.2409	1556.05	655.65
887.584	1469.0608	1522.55	618.5
887.7273	1470.88	1498.1	593.95
887.8706	1472.6984	1477	574.05
888.0139	1474.5161	1463.45	557.85
888.1572	1476.3331	1448.95	548.75
888.3005	1478.1493	1446.05	542.55
888.4438	1479.9648	1438.75	535.9
888.5871	1481.7795	1429.75	527.45
888.7303	1483.5935	1438.1	534.9
888.8736	1485.4067	1433	530.5
889.0168	1487.2192	1435.15	531.25
889.16	1489.031	1435.9	528.4
889.3032	1490.842	1430.3	527.95
889.4464	1492.6522	1424	522
889.5896	1494.4618	1430.7	527.05
889.7327	1496.2705	1422.9	520.95
889.8759	1498.0785	1417.7	516.05
890.019	1499.8858	1406.1	501.1
890.1622	1501.6924	1409.4	509.7
890.3053	1503.4981	1397.5	496.3
890.4484	1505.3032	1399.5	499.45
890.5914	1507.1075	1388.05	484.7
890.7345	1508.911	1381.7	479.95
890.8776	1510.7138	1384.35	480.9
891.0206	1512.5159	1363.85	463.1
891.1637	1514.3172	1361.2	460.6
891.3067	1516.1178	1357.8	459.3
891.4497	1517.9176	1355.1	451.05
891.5927	1519.7166	1348.45	446.45
891.7357	1521.515	1348.15	441.25
891.8786	1523.3126	1342.9	439.65
892.0216	1525.1094	1339.3	437.1
892.1645	1526.9055	1326.5	427.25
892.3074	1528.7008	1325.6	424.9
892.4503	1530.4954	1336.35	429.95
892.5932	1532.2893	1320.8	420.4
892.7361	1534.0824	1325.2	421.65
892.879	1535.8747	1322.65	421.65
893.0218	1537.6663	1322.5	423.85
893.1647	1539.4572	1319.9	418.25
893.3075	1541.2473	1321.5	420.65
893.4503	1543.0367	1317.05	416.8
893.5931	1544.8253	1322.1	419.2
893.7359	1546.6132	1323.95	422.7
893.8787	1548.4003	1341.15	430.7
894.0214	1550.1867	1342.4	432.1
894.1642	1551.9723	1345.1	443
894.3069	1553.7572	1357.6	457.45
894.4496	1555.5414	1376.6	477.45
894.5923	1557.3247	1401.4	503.5
894.735	1559.1074	1435.1	538.65
894.8777	1560.8893	1466.35	570.9
895.0204	1562.6705	1498.35	601.3
895.163	1564.4509	1512.35	614.6
895.3056	1566.2305	1519.6	627
895.4482	1568.0094	1514.45	617.7
895.5908	1569.7876	1516.45	621.7
895.7334	1571.565	1511.5	613.7
895.876	1573.3417	1511.15	614.85
896.0186	1575.1176	1509.3	612.55
896.1611	1576.8928	1526.4	631.8
896.3036	1578.6672	1544.9	654.95
896.4461	1580.4409	1561.6	669.05
896.5886	1582.2138	1597.3	702.1
896.7311	1583.986	1625.95	731.5
896.8736	1585.7575	1651.75	756.1
897.0161	1587.5282	1677.55	785.1
897.1585	1589.2981	1699.9	807.3
897.3009	1591.0673	1707.45	816.05
897.4433	1592.8358	1717.35	824
897.5857	1594.6035	1724	826.2
897.7281	1596.3704	1727.75	831.85
897.8705	1598.1366	1708.75	812.35
898.0128	1599.9021	1685.9	791.85
898.1551	1601.6668	1678.25	784.15
898.2975	1603.4308	1669.95	770.65
898.4398	1605.194	1673.5	773.95
898.5821	1606.9564	1695.25	804.4
898.7243	1608.7182	1752.3	860.45
898.8666	1610.4791	1819.15	931.95
899.0088	1612.2394	1900.05	1012.9
899.1511	1613.9988	1976	1086.6
899.2933	1615.7576	2021.45	1129.55
899.4355	1617.5156	2041.6	1140.8
899.5776	1619.2728	1997.7	1101.55
899.7198	1621.0293	1920.5	1025
899.862	1622.785	1817.75	922.55
900.0041	1624.54	1727	834.25
900.1462	1626.2942	1628.6	736.25
900.2883	1628.0477	1545.15	650.05
900.4304	1629.8005	1495.4	599.45
900.5725	1631.5525	1437.35	546.95
900.7145	1633.3037	1396.3	504.8
900.8566	1635.0542	1361.4	469
900.9986	1636.804	1332.15	438.5
901.1406	1638.553	1378.9	414.35
901.2826	1640.3013	1298.3	404.55
901.4245	1642.0488	1278.05	385.2
901.5665	1643.7955	1267.45	375.6
901.7085	1645.5416	1258.15	367.2
901.8504	1647.2868	1249.35	355.7
901.9923	1649.0313	1248.6	356.9
902.1342	1650.7751	1243	347.75
902.2761	1652.5181	1235.65	341.65
902.4179	1654.2604	1240.75	349.3
902.5598	1656.0019	1249.6	360.9
902.7016	1657.7427	1250.45	361.35
902.8434	1659.4828	1278.7	386.8
902.9852	1661.222	1304.7	407.75
903.127	1662.9606	1320.55	427.65
903.2687	1664.6984	1345.95	452.2
903.4105	1666.4354	1343.65	447.65
903.5522	1668.1717	1320.05	424.3
903.6939	1669.9072	1278	382.2
903.8356	1671.642	1249.1	351.45
903.9773	1673.3761	1218.45	326.3
904.119	1675.1094	1190.6	297.25
904.2606	1676.8419	1180.7	286.45
904.4022	1678.5737	1174.7	281
904.5439	1680.3048	1167.1	270.25
904.6855	1682.0351	1162.3	268.5
904.827	1683.7646	1156.6	258.1
904.9686	1685.4934	1149.55	257.1
905.1101	1687.2215	1139.25	244.1
905.2517	1688.9488	1137.25	243.2
905.3932	1690.6754	1139.95	249.8
905.5347	1692.4012	1141	247.95
905.6761	1694.1263	1130.15	236.3
905.8176	1695.8506	1132.95	239.9
905.9591	1697.5742	1125.3	232.75
906.1005	1699.297	1127.35	236.55
906.2419	1701.0191	1118.15	225.85
906.3833	1702.7404	1121.1	231.5
906.5246	1704.461	1116.75	221.6
906.666	1706.1808	1121.6	229.65
906.8073	1707.8999	1110.2	217.7
906.9487	1709.6182	1106.85	213.3
907.09	1711.3358	1108.35	218.2
907.2313	1713.0527	1107.55	219.8
907.3725	1714.7688	1112.15	218.2
907.5138	1716.4841	1109.8	217.3
907.655	1718.1987	1110.35	212.1
907.7962	1719.9126	1098.7	209.8
907.9374	1721.6257	1098.6	206.1
908.0786	1723.338	1097.2	207.9
908.2198	1725.0496	1099.55	208.5
908.3609	1726.7605	1098.65	207.9
908.502	1728.4706	1096.8	205.5
908.6431	1730.18	1094.85	203.7
908.7842	1731.8886	1095.25	207.75
908.9253	1733.5964	1117.8	207.3
909.0664	1735.3036	1099.45	203.3
909.2074	1737.0099	1095.2	204.45
909.3484	1738.7156	1091.35	200.7
909.4894	1740.4204	1096.4	203.5
909.6304	1742.1246	1095.65	203.25
909.7714	1743.8279	1092.05	200.95
909.9123	1745.5306	1095.2	203.25
910.0532	1747.2325	1090.5	202.5
910.1941	1748.9336	1088.35	198.2
910.335	1750.634	1095.4	204.5
910.4759	1752.3336	1089	196.5
910.6168	1754.0325	1085.35	197.75
910.7576	1755.7307	1085.45	196.15
910.8984	1757.4281	1089.3	196.75
911.0392	1759.1247	1098.4	201.45
911.18	1760.8206	1093.1	197.4
911.3208	1762.5158	1092.15	196.3
911.4615	1764.2102	1083.95	193.35
911.6022	1765.9039	1087.8	196.45
911.7429	1767.5968	1085	196.35
911.8836	1769.289	1083.8	193.1
912.0243	1770.9804	1087.85	197.05
912.1649	1772.6711	1084.65	189.9
912.3056	1774.361	1088.65	193.15
912.4462	1776.0502	1082.75	191.7
912.5868	1777.7386	1082.35	188.75
912.7274	1779.4263	1080.85	188.3
912.8679	1781.1132	1080.25	192.25
913.0084	1782.7994	1083.45	192.7
913.149	1784.4849	1075.6	186.35
913.2895	1786.1696	1096.25	186.8
913.4299	1787.8535	1073.15	183.6
913.5704	1789.5367	1072.35	186.6
913.7108	1791.2192	1072.05	183.2
913.8513	1792.9009	1102.7	187.55
913.9917	1794.5818	1078.6	186.9
914.132	1796.2621	1074.25	185.05
914.2724	1797.9415	1071.8	181.1
914.4128	1799.6202	1071.1	179.25
914.5531	1801.2982	1067	175.8
914.6934	1802.9755	1077.35	185.75
914.8337	1804.6519	1070.3	179.05
914.9739	1806.3277	1070.4	182.35
915.1142	1808.0027	1069.75	181.95
915.2544	1809.6769	1065.05	176.15
915.3946	1811.3504	1068.6	182.25
915.5348	1813.0231	1062.65	174
915.675	1814.6951	1067.3	179.05
915.8151	1816.3664	1067.85	176.15
915.9553	1818.0369	1065.95	174.7
916.0954	1819.7067	1067.6	179.05
916.2355	1821.3757	1067.45	174.25
916.3755	1823.044	1068.55	176.2
916.5156	1824.7115	1065.35	172.3
916.6556	1826.3783	1060.4	171.8
916.7956	1828.0443	1063.55	174.7
916.9356	1829.7096	1067.15	175.05
917.0756	1831.3741	1067.8	175.6
917.2155	1833.0379	1065.4	174.6
917.3555	1834.701	1062.4	173.65
917.4954	1836.3633	1063.65	175.8
917.6353	1838.0248	1059.9	169.05
917.7751	1839.6856	1060.25	170
917.915	1841.3457	1059.75	171.8
918.0548	1843.005	1058.45	166.5
918.1946	1844.6636	1056.55	169.2
918.3344	1846.3214	1059.2	168.3
918.4742	1847.9785	1059.95	172.9
918.6139	1849.6349	1060.65	168.8
918.7537	1851.2904	1066.8	165.4
918.8934	1852.9453	1059.45	166.4
919.0331	1854.5994	1058.05	163.1
919.1727	1856.2528	1064.05	169.85
919.3124	1857.9054	1059.35	168.2
919.452	1859.5572	1057	167.5
919.5916	1861.2083	1053.7	162.7
919.7312	1862.8587	1058.4	166.5
919.8708	1864.5084	1061.55	168.7
920.0103	1866.1572	1055.95	166.3
920.1498	1867.8054	1054.65	161.2
920.2893	1869.4528	1053.2	163.15
920.4288	1871.0994	1053.4	162.5
920.5683	1872.7453	1051.15	158.7
920.7077	1874.3905	1060.65	165.05
920.8471	1876.0349	1054	162.8
920.9865	1877.6786	1055.7	163.8
921.1259	1879.3215	1048.45	157.2
921.2653	1880.9637	1051.5	158.35
921.4046	1882.6051	1047.65	157.45
921.5439	1884.2458	1053.65	161.45
921.6832	1885.8858	1048.45	159.2
921.8225	1887.525	1046.2	156.65
921.9617	1889.1634	1047.45	158.2
922.101	1890.8011	1046.3	155.65
922.2402	1892.4381	1048	156.9
922.3794	1894.0743	1050.1	158.75
922.5185	1895.7098	1045.15	154.65
922.6577	1897.3446	1047.5	156.1
922.7968	1898.9786	1050.4	155.45
922.9359	1900.6118	1045	156.95
923.075	1902.2443	1048.55	157.6
923.214	1903.8761	1044.95	154.55
923.3531	1905.5071	1045.05	154.2
923.4921	1907.1374	1044.6	155.5
923.6311	1908.7669	1044.9	153.45
923.77	1910.3957	1043.4	157.1
923.909	1912.0237	1041.75	151.1
924.0479	1913.651	1044.75	153.75
924.1868	1915.2776	1040.1	151.95
924.3257	1916.9034	1036.4	147.9
924.4646	1918.5285	1036.9	147.4
924.6034	1920.1528	1039.65	149.1
924.7422	1921.7764	1036.1	147.7
924.881	1923.3992	1038.15	147.2
925.0198	1925.0213	1038.05	147.3
925.1586	1926.6427	1031	142.2
925.2973	1928.2633	1249.85	147.7
925.436	1929.8832	1042.75	148.05
925.5747	1931.5023	1038.85	148.2
925.7134	1933.1207	1035.65	144.3
925.852	1934.7383	1033.8	145.05
925.9906	1936.3552	1030.1	140.5
926.1292	1937.9714	1039.4	149.3
926.2678	1939.5868	1039.45	148.2
926.4064	1941.2015	1035.45	146.15
926.5449	1942.8154	1036.05	145
926.6834	1944.4286	1028.45	137.45
926.8219	1946.041	1055.15	143
926.9604	1947.6528	1033.9	136.45
927.0988	1949.2637	1031.35	141.5
927.2372	1950.8739	1030.95	140.75
927.3756	1952.4834	1028.45	141.1
927.514	1954.0921	1032.7	142.55
927.6523	1955.7001	1036	143.25
927.7907	1957.3074	1026.95	139.45
927.929	1958.9139	1027.05	142.75
928.0673	1960.5197	1025.15	135.7
928.2055	1962.1247	1025	135.3
928.3438	1963.729	1023.9	136.95
928.482	1965.3325	1031.1	135.35
928.6202	1966.9353	1022.95	135.85
928.7584	1968.5374	1025.65	139.6
928.8965	1970.1387	1023.7	135.8
929.0346	1971.7393	1020.45	131.4
929.1727	1973.3392	1023.55	135.6
929.3108	1974.9383	1019.65	134.15
929.4489	1976.5366	1021.1	135.1
929.5869	1978.1342	1020.5	133.9
929.7249	1979.7311	1024.5	136.55
929.8629	1981.3273	1019.6	133.9
930.0009	1982.9227	1024.8	136.65
930.1388	1984.5173	1020.15	136.3
930.2767	1986.1112	1017.7	132.45
930.4146	1987.7044	1015.5	130.15
930.5525	1989.2968	1020.3	133.6
930.6904	1990.8885	1022.55	134.9
930.8282	1992.4795	1017.55	131.75
930.966	1994.0697	1013.1	130.05
931.1038	1995.6592	1012.25	127.75
931.2415	1997.2479	1016.45	131.3
931.3793	1998.8359	1015.95	131.3
931.517	2000.4232	1010.8	128.75
931.6547	2002.0097	1007.35	126.75
931.7923	2003.5955	1013.3	132.95
931.93	2005.1805	1018.05	132.95
932.0676	2006.7648	1011	128.3
932.2052	2008.3484	1013.35	129.85
932.3427	2009.9312	1011.85	126.8
932.4803	2011.5133	1007.55	128.85
932.6178	2013.0946	1010.7	129.3
932.7553	2014.6752	1011.5	129.55
932.8928	2016.2551	1011.25	125.35
933.0302	2017.8342	1009.5	125.55
933.1676	2019.4126	1009.75	128.55
933.305	2020.9902	1007.65	127.25
933.4424	2022.5672	1009.85	127.1
933.5798	2024.1433	1010.5	125.25
933.7171	2025.7188	1008.25	130.8
933.8544	2027.2935	1008.55	125.15
933.9917	2028.8674	1007	127.45
934.129	2030.4406	1005.3	125.45
934.2662	2032.0131	1007.75	128.05
934.4034	2033.5849	1006.25	121.55
934.5406	2035.1559	1003.5	122.75
934.6778	2036.7261	1007.05	125.7
934.8149	2038.2957	1008.85	124.7
934.952	2039.8645	1008.1	123.75
935.0891	2041.4325	1012.25	127.95
935.2262	2042.9998	1005.6	122.75
935.3632	2044.5664	1008.55	125.85
935.5002	2046.1323	1000	118.3
935.6372	2047.6974	1005.55	125.9
935.7742	2049.2617	1005.8	127.1
935.9111	2050.8254	1011.55	123.45
936.048	2052.3883	1004.25	122.05
936.1849	2053.9504	1002.85	121.45
936.3218	2055.5118	1011.8	128.85
936.4586	2057.0725	1005.95	118.05
936.5955	2058.6325	1005.2	123.85
936.7323	2060.1917	1001.85	121.5
936.869	2061.7502	1005	119.85
937.0058	2063.3079	1004.15	124
937.1425	2064.8649	1007.15	125.1
937.2792	2066.4212	1005.75	124.3
937.4159	2067.9767	1005.15	122.45
937.5525	2069.5315	1005.8	121.95
937.6891	2071.0856	1005.45	124.3
937.8257	2072.6389	1005.75	125.95
937.9623	2074.1915	1003.05	122.85
938.0989	2075.7433	1003.65	121.05
938.2354	2077.2945	1007.6	127.55
938.3719	2078.8448	1005.4	122.15
938.5084	2080.3945	1003.15	118.95
938.6448	2081.9434	1004.15	121.7
938.7812	2083.4916	1007	121.1
938.9176	2085.039	1003.9	118.6
939.054	2086.5857	1009.2	122.55
939.1903	2088.1317	1007.7	122.65
939.3267	2089.677	1006.5	118.15
939.463	2091.2215	1004.05	119.1
939.5992	2092.7652	1007.2	119.75
939.7355	2094.3083	1009.4	122.35
939.8717	2095.8506	1005.65	121.65
940.0079	2097.3921	1001.7	120
940.1441	2098.933	1003.95	119.25
940.2802	2100.4731	1004.45	119.05
940.4163	2102.0124	1023.1	123.35
940.5524	2103.5511	1003.8	120.4
940.6885	2105.089	1007.5	120
940.8245	2106.6261	1004.2	120.75
940.9606	2108.1626	1004.65	120.1
941.0965	2109.6983	1032.55	120.05
941.2325	2111.2332	1004.2	117.9
941.3684	2112.7675	1008.9	123.8
941.5044	2114.301	1006.3	120
941.6403	2115.8337	1004.1	119.5
941.7761	2117.3657	1000.95	116.85
941.912	2118.897	1001.75	117.4
942.0478	2120.4276	1010.8	119.1
942.1835	2121.9575	1004	118.2
942.3193	2123.4866	1005.9	119
942.455	2125.0149	1001.95	113.75
942.5907	2126.5426	1005.2	122.3
942.7264	2128.0695	1004.85	118.75
942.8621	2129.5956	995.2	115.1
942.9977	2131.1211	1001.1	113.65
943.1333	2132.6458	996.65	114.45
943.2689	2134.1698	1004.35	120.75
943.4044	2135.693	1005.75	119.3
943.54	2137.2155	1004.95	115.45
943.6755	2138.7373	1003.6	120.2
943.8109	2140.2584	998.45	116.1
943.9464	2141.7787	1002.25	116.7
944.0818	2143.2983	997	117.45
944.2172	2144.8171	995.95	114.5
944.3526	2146.3353	999.1	117.9
944.4879	2147.8527	994.15	110.25
944.6232	2149.3693	1000.8	117.9
944.7585	2150.8853	1002.65	118.65
944.8938	2152.4005	997.9	111.5
945.029	2153.9149	999.9	116.65
945.1642	2155.4287	996.05	111.85
945.2994	2156.9417	1002.65	118.7
945.4346	2158.454	1002.15	116.95
945.5697	2159.9655	994.95	112.5
945.7048	2161.4764	998.2	117.25
945.8399	2162.9865	994.2	111.8
945.9749	2164.4958	996.1	111.55
946.1099	2166.0045	996.6	111.35
946.2449	2167.5124	1000.75	116.5
946.3799	2169.0195	998.4	116.55
946.5148	2170.526	997.5	111.9
946.6498	2172.0317	994.95	110.7
946.7846	2173.5367	995.7	109.75
946.9195	2175.0409	998.45	117.25
947.0543	2176.5445	993.3	109.2
947.1891	2178.0473	996	111.5
947.3239	2179.5494	1002.25	115.55
947.4587	2181.0507	1001.15	117.9
947.5934	2182.5513	996.75	111.5
947.7281	2184.0512	996.6	113.05
947.8628	2185.5504	994.75	111
947.9974	2187.0488	990.1	108.35
948.132	2188.5465	994	110.7
948.2666	2190.0435	994.95	112.25
948.4012	2191.5397	993.05	108.9
948.5357	2193.0353	993.45	108.9
948.6702	2194.5301	997.05	110.75
948.8047	2196.0241	997.2	111.4
948.9392	2197.5175	994.75	108.1
949.0736	2199.0101	999.65	111.35
949.208	2200.502	993.55	108.9
949.3424	2201.9931	993.8	110.3
949.4767	2203.4835	989.75	107.65
949.611	2204.9733	1006.4	107.45
949.7453	2206.4622	990.8	109.75
949.8796	2207.9505	994.1	109.8
950.0138	2209.438	984.9	104.55
950.148	2210.9248	992.85	108.55
950.2822	2212.4109	988.7	105.6
950.4164	2213.8962	989.6	100.35
950.5505	2215.3809	994.25	107.7
950.6846	2216.8648	994.55	108
950.8186	2218.3479	999.45	107.7
950.9527	2219.8304	993.7	105.3
951.0867	2221.3121	993.35	103.75
951.2207	2222.7931	990.05	105.25
951.3546	2224.2733	987.1	102.75
951.4886	2225.7529	989	105.3
951.6225	2227.2317	989.8	104
951.7563	2228.7098	986.5	104.15
951.8902	2230.1872	987.05	106.25
952.024	2231.6638	985.5	102.8
952.1578	2233.1397	990.1	103.4
952.2916	2234.6149	983.7	101.45
952.4253	2236.0894	989.25	105.5
952.559	2237.5632	998.7	104.6
952.6927	2239.0362	983.5	99.95
952.8263	2240.5085	985.25	102.6
952.9599	2241.9801	986.1	102
953.0935	2243.4509	982.5	98.15
953.2271	2244.921	984.1	99.3
953.3606	2246.3904	986.35	98.5
953.4941	2247.8591	982.65	99.55
953.6276	2249.3271	982.45	98.25
953.7611	2250.7943	986.75	103.2
953.8945	2252.2608	981.7	98.3
954.0279	2253.7266	979.9	95.9
954.1612	2255.1917	982.2	95.6
954.2946	2256.656	982.9	99.05
954.4279	2258.1197	978.65	96.45
954.5612	2259.5826	981.35	98.25
954.6944	2261.0447	982.15	96.9
954.8276	2262.5062	986.6	99.45
954.9608	2263.9669	987.2	102.1
955.094	2265.4269	981.85	97.9
955.2271	2266.8862	980	97.2
955.3602	2268.3448	976.3	92.65
955.4933	2269.8026	977.25	96.5
955.6264	2271.2598	981.75	99.65
955.7594	2272.7162	979.75	97.85
955.8924	2274.1719	980.65	96.4
956.0253	2275.6268	978.35	94.45
956.1583	2277.0811	979.55	95.1
956.2912	2278.5346	980.55	98.3
956.4241	2279.9874	980.05	96.1
956.5569	2281.4395	977.35	95.4
956.6897	2282.8908	986.85	101.1
956.8225	2284.3414	983	98.25
956.9553	2285.7914	979.7	96.6
957.088	2287.2406	977.65	91.45
957.2207	2288.689	980.2	95.45
957.3534	2290.1368	979.15	91.85
957.486	2291.5838	983.65	95.35
957.6186	2293.0302	977.25	89.15
957.7512	2294.4758	977.3	92
957.8838	2295.9206	978.7	90.65
958.0163	2297.3648	977.45	94.7
958.1488	2298.8082	978.55	92.9
958.2813	2300.251	979.55	94.2
958.4137	2301.693	978.15	88.25
958.5461	2303.1343	979.3	93.75
958.6785	2304.5748	977.1	93.95
958.8108	2306.0147	975.9	93.3
958.9432	2307.4538	974.7	89.6
959.0754	2308.8922	970.9	93.05
959.2077	2310.3299	970.35	87.9
959.3399	2311.7669	974	91.8
959.4721	2313.2031	975.95	90.45
959.6043	2314.6387	974.2	89.95
959.7365	2316.0735	975.2	90.95
959.8686	2317.5076	973.6	89.35
960.0006	2318.941	974.8	90.4
960.1327	2320.3737	975.4	89.75
960.2647	2321.8056	979.5	92.2
960.3967	2323.2369	978.1	93.2
960.5287	2324.6674	977.55	90.55
960.6606	2326.0972	983.35	96.2
960.7925	2327.5263	983.05	97.2
960.9244	2328.9547	981.05	95.05
961.0562	2330.3823	980.95	95.4
961.1881	2331.8092	984.1	96.5
961.3198	2333.2355	973.8	89
961.4516	2334.661	972.3	85.85
961.5833	2336.0858	974.15	86.75
961.715	2337.5098	974	87.35
961.8467	2338.9332	971.45	86.1
961.9783	2340.3558	971.85	85.85
962.1099	2341.7778	968.85	84.15
962.2415	2343.199	969.7	84.05
962.373	2344.6195	968.7	86.45
962.5045	2346.0393	968.3	85.55
962.636	2347.4583	972.85	89.15
962.7675	2348.8767	968.3	82.2
962.8989	2350.2943	972.35	88.15
963.0303	2351.7113	974.3	85.95
963.1617	2353.1275	972.8	86.05
963.293	2354.543	994.5	86.55
963.4243	2355.9578	970	85.4
963.5556	2357.3718	965.65	80.25
963.6868	2358.7852	970.55	83.2
963.818	2360.1978	970	85.5
963.9492	2361.6098	968.8	85.4
964.0803	2363.021	971.05	81.5
964.2114	2364.4315	971	85.45
964.3425	2365.8413	971.15	84.6
964.4736	2367.2504	969.05	83.95
964.6046	2368.6587	966.35	80.95
964.7356	2370.0664	967.7	84.55
964.8666	2371.4733	970.05	82.5
964.9975	2372.8795	966.7	81.55
965.1284	2374.285	969.2	83.3
965.2593	2375.6899	966.7	84.45
965.3901	2377.0939	968.45	80.4
965.5209	2378.4973	964.95	79.65
965.6517	2379.9	968.4	81.8
965.7825	2381.3019	965.5	80.65
965.9132	2382.7032	965.1	81.4
966.0439	2384.1037	960.8	78.25
966.1745	2385.5035	965.05	80.8
966.3051	2386.9027	962.95	79.65
966.4357	2388.3011	968.1	79.75
966.5663	2389.6987	961.2	77.3
966.6968	2391.0957	965.7	80.95
966.8273	2392.492	961.15	75.65
966.9578	2393.8876	964.65	79.2
967.0882	2395.2824	964.25	78.5
967.2186	2396.6765	964.6	79.4
967.349	2398.07	963.1	75.7
967.4793	2399.4627	965	76.3
967.6097	2400.8547	961.5	72.3
967.7399	2402.246	969.4	77
967.8702	2403.6366	964.45	77.55
968.0004	2405.0265	960.7	73.1
968.1306	2406.4156	966.5	77.25
968.2607	2407.8041	964.15	77.05
968.3909	2409.1918	965.55	75.15
968.521	2410.5789	964.4	74.35
968.651	2411.9652	963.5	72.3
968.781	2413.3508	961.1	75.4
968.911	2414.7358	962.2	74.3
969.041	2416.12	962.65	78
969.1709	2417.5035	957.7	70.65
969.3008	2418.8863	961.2	74.9
969.4307	2420.2684	960.4	75
969.5606	2421.6497	961.3	72.55
969.6904	2423.0304	959.35	72.55
969.8201	2424.4104	961.3	74.1
969.9499	2425.7896	966.9	76.35
970.0796	2427.1682	959.7	73.25
970.2093	2428.546	958.8	72.05
970.3389	2429.9232	961.15	74.35
970.4685	2431.2996	955.9	69.1
970.5981	2432.6753	957.65	72.15
970.7277	2434.0503	955.75	68.75
970.8572	2435.4246	957.95	71.7
970.9867	2436.7982	962.7	76.45
971.1161	2438.1711	959.45	73.35
971.2456	2439.5433	959.25	71.5
971.375	2440.9148	956.25	68.35
971.5043	2442.2856	955	69.8
971.6336	2443.6557	956.75	68.4
971.7629	2445.025	956.75	71.5
971.8922	2446.3937	958.7	71.75
972.0214	2447.7617	957.2	69.45
972.1506	2449.1289	955.5	68.1
972.2798	2450.4955	955.75	64.55
972.4089	2451.8613	955.95	68.5
972.538	2453.2265	957.2	69.5
972.6671	2454.5909	956.1	68.85
972.7961	2455.9546	954.75	69.75
972.9251	2457.3177	954.7	69.85
973.0541	2458.68	959.25	72.4
973.1831	2460.0416	957.85	70.6
973.312	2461.4025	956.25	67.95
973.4408	2462.7627	969.85	74.15
973.5697	2464.1222	953.15	67.9
973.6985	2465.4811	955.1	69.35
973.8273	2466.8392	949.95	63.2
973.956	2468.1966	955.9	68.45
974.0847	2469.5533	953.45	65.4
974.2134	2470.9093	953	67.55
974.3421	2472.2645	952.95	66
974.4707	2473.6191	952.8	66.7
974.5993	2474.973	954.8	70.65
974.7278	2476.3262	953.75	66.1
974.8563	2477.6787	953.65	69.8
974.9848	2479.0305	952.35	68.75
975.1132	2480.3816	956.5	71.8
975.2417	2481.7319	949.6	63.15
975.37	2483.0816	954.95	67.45
975.4984	2484.4306	950.35	62
975.6267	2485.7789	950	64.5
975.755	2487.1264	951.5	64.85
975.8833	2488.4733	951.55	70.1
976.0115	2489.8195	967.25	64
976.1397	2491.165	957.2	71.7
976.2678	2492.5097	955.3	69.2
976.3959	2493.8538	954.8	69.85
976.524	2495.1972	951.05	65.55
976.6521	2496.5398	951.15	65.6
976.7801	2497.8818	955.3	66.95
976.9081	2499.2231	949.6	61.45
977.036	2500.5637	949.5	60.8
977.164	2501.9035	949.45	61.15
977.2918	2503.2427	952.9	63.5
977.4197	2504.5812	945.9	58.55
977.5475	2505.919	949.7	62.7
977.6753	2507.256	950.85	66.7
977.8031	2508.5924	945.65	61.05
977.9308	2509.9281	952.55	60.95
978.0585	2511.2631	949.15	62.4
978.1861	2512.5974	948.55	64.25
978.3137	2513.9309	947.7	62.05
978.4413	2515.2638	971.9	61.1
978.5689	2516.596	949.2	63.8
978.6964	2517.9275	949.55	63.2
978.8239	2519.2583	950.65	66.6
978.9513	2520.5884	948.05	61.9
979.0788	2521.9178	945.85	62.1
979.2062	2523.2465	943.8	59.3
979.3335	2524.5745	945.05	62.05
979.4608	2525.9018	948.7	62.65
979.5881	2527.2284	947.65	63.4
979.7154	2528.5543	941.6	59.05
979.8426	2529.8796	946.6	59.75
979.9698	2531.2041	944.75	62.25
980.0969	2532.5279	942.1	59.1
980.224	2533.851	942.85	58.15
980.3511	2535.1735	941.6	57
980.4781	2536.4952	944.5	57.6
980.6052	2537.8163	948.7	62.5
980.7321	2539.1366	949.05	64.8
980.8591	2540.4562	947.55	60.55
980.986	2541.7752	946.8	62.65
981.1129	2543.0935	945.3	58.45
981.2397	2544.411	946.25	59.1
981.3665	2545.7279	943.6	58.4
981.4933	2547.0441	944.15	60.55
981.62	2548.3596	948.7	59.55
981.7467	2549.6744	945.55	59.85
981.8734	2550.9885	954.35	59.1
982.0001	2552.3019	941.65	56.3
982.1267	2553.6146	944.95	57.85
982.2532	2554.9266	942.45	57.4
982.3798	2556.2379	942.95	56.1
982.5063	2557.5485	939.7	54.75
982.6327	2558.8585	949.3	56.85
982.7592	2560.1677	948.2	59.15
982.8856	2561.4762	942.8	56.45
983.0119	2562.7841	944.65	56.5
983.1383	2564.0913	940.8	57.7
983.2646	2565.3977	942.3	57.85
983.3908	2566.7035	942.65	56.4
983.517	2568.0086	941.95	54.7
983.6432	2569.313	940.45	55.5
983.7694	2570.6167	942.55	54.9
983.8955	2571.9197	942.65	58.05
984.0216	2573.222	945.6	56.1
984.1476	2574.5236	941.8	55.1
984.2737	2575.8246	945.5	57.65
984.3996	2577.1248	946.3	60.5
984.5256	2578.4244	937.35	52.85
984.6515	2579.7232	939.95	54
984.7774	2581.0214	965.75	55.05
984.9032	2582.3189	939.85	52.85
985.029	2583.6157	941.95	53.9
985.1548	2584.9118	940.9	54.85
985.2806	2586.2072	938.45	54.1
985.4063	2587.5019	939.15	52.6
985.5319	2588.7959	940.55	52.9
985.6576	2590.0893	944	57.7
985.7832	2591.3819	938.4	51.55
985.9087	2592.6739	940.4	54.95
986.0343	2593.9652	940.6	54.9
986.1597	2595.2557	941.75	55.15
986.2852	2596.5456	946.25	58.1
986.4106	2597.8348	941.4	56.5
986.536	2599.1234	938.65	53.05
986.6614	2600.4112	938.75	52.2
986.7867	2601.6983	945.25	57.5
986.912	2602.9848	942.75	58
987.0372	2604.2705	945.35	52.3
987.1624	2605.5556	940.7	54
987.2876	2606.84	939.75	54.3
987.4128	2608.1237	937.6	51.6
987.5379	2609.4067	940.85	55
987.6629	2610.689	950.3	56.8
987.788	2611.9707	943.35	54.5
987.913	2613.2516	942.4	51.6
988.0379	2614.5319	936.85	53.15
988.1629	2615.8115	938.25	51.1
988.2878	2617.0903	940.75	54.2
988.4126	2618.3685	937.4	52.95
988.5375	2619.6461	935.7	50.1
988.6622	2620.9229	937.15	51.55
988.787	2622.199	934.7	49.75
988.9117	2623.4745	936.95	51.3
989.0364	2624.7493	936.55	52.3
989.161	2626.0234	937.05	54.1
989.2857	2627.2968	934.35	49.7
989.4102	2628.5695	937.55	51.3
989.5348	2629.8415	936.4	52.55
989.6593	2631.1128	936.25	50.15
989.7837	2632.3835	933.15	47.7
989.9082	2633.6535	935	51.9
990.0326	2634.9228	934.95	52.15
990.1569	2636.1914	932.7	49.05
990.2812	2637.4593	937.55	48.7
990.4055	2638.7265	936.15	51.85
990.5298	2639.9931	934.9	50.55
990.654	2641.259	934.8	51.8
990.7782	2642.5242	933.2	47.5
990.9023	2643.7887	934.75	50.05
991.0264	2645.0525	932.7	47.25
991.1505	2646.3156	936.1	50.1
991.2745	2647.5781	930.1	46.25
991.3985	2648.8398	930.55	47.7
991.5225	2650.1009	938.55	44.7
991.6464	2651.3613	932.75	47
991.7703	2652.6211	933.85	48.85
991.8942	2653.8801	930.1	46.4
992.018	2655.1385	934.5	49.1
992.1418	2656.3961	932.35	49.85
992.2655	2657.6531	932.7	46.85
992.3892	2658.9094	931.9	46.1
992.5129	2660.1651	930.65	47.1
992.6366	2661.42	931.5	49.35
992.7602	2662.6743	931.7	45.4
992.8837	2663.9279	929.95	44.95
993.0073	2665.1808	930.95	47.15
993.1307	2666.433	933	47.55
993.2542	2667.6846	928.8	43.95
993.3776	2668.9354	933.05	47.65
993.501	2670.1856	935.5	50.15
993.6244	2671.4351	931.1	49.25
993.7477	2672.6839	933.8	49
993.8709	2673.9321	931.15	47.95
993.9942	2675.1795	932.35	50.35
994.1174	2676.4263	931.65	46.8
994.2405	2677.6724	931	48.25
994.3637	2678.9179	932.35	47.3
994.4868	2680.1626	931.45	48.8
994.6098	2681.4067	933.15	49.1
994.7328	2682.6501	929.05	45.7
994.8558	2683.8928	930.65	45.9
994.9788	2685.1348	929	44.75
995.1017	2686.3761	928.25	44.1
995.2245	2687.6168	930.5	48.4
995.3474	2688.8568	928.2	43.2
995.4702	2690.0961	926	42.15
995.5929	2691.3348	928.65	43.95
995.7156	2692.5727	926.9	43
995.8383	2693.81	930.55	48.45
995.961	2695.0466	926	44.1
996.0836	2696.2826	928.85	44.05
996.2062	2697.5178	932.95	47.9
996.3287	2698.7524	925.15	41.45
996.4512	2699.9863	928.8	43.4
996.5737	2701.2195	928.45	46.1
996.6961	2702.452	930.85	42.85
996.8185	2703.6839	928.9	45.7
996.9408	2704.9151	929.15	48.65
997.0631	2706.1456	931.05	48
997.1854	2707.3755	928.4	43.85
997.3077	2708.6046	931.7	46.25
997.4299	2709.8331	931.2	47.45
997.552	2711.0609	932.95	48.55
997.6742	2712.2881	930.4	43.25
997.7963	2713.5145	931.9	45.25
997.9183	2714.7403	930.7	47.1
998.0403	2715.9654	933.45	50
998.1623	2717.1899	947.2	49.8
998.2842	2718.4136	930.1	47.95
998.4062	2719.6367	933.4	50.95
998.528	2720.8591	940.9	50.05
998.6498	2722.0809	936.5	51.15
998.7716	2723.3019	943.6	56.45
998.8934	2724.5223	937.1	52.85
999.0151	2725.7421	938.05	54.9
999.1368	2726.9611	937.25	48.75
999.2584	2728.1795	940.55	53.35
999.38	2729.3972	932.95	49.4
999.5016	2730.6142	939.6	48.95
999.6231	2731.8306	931.7	47.8
999.7446	2733.0462	932.85	49.55
999.8661	2734.2612	936.7	49.8
999.9875	2735.4756	929.65	46.25
1000.1089	2736.6892	927.9	42.7
1000.2302	2737.9022	926.1	45.2
1000.3515	2739.1145	927.2	43.5
1000.4728	2740.3262	935.4	44.65
1000.594	2741.5372	926.15	45.2
1000.7152	2742.7475	928.5	43.85
1000.8363	2743.9571	926.15	41.85
1000.9575	2745.1661	928.8	41.25
1001.0785	2746.3744	923.1	39.65
1001.1996	2747.582	922.15	37.9
1001.3206	2748.7889	925.05	41.2
1001.4415	2749.9952	921.2	38.65
1001.5625	2751.2008	922.7	40.9
1001.6833	2752.4057	922.6	38.75
1001.8042	2753.61	919.8	34.55
1001.925	2754.8136	922.5	38.1
1002.0458	2756.0165	923.25	41.3
1002.1665	2757.2188	919.65	37.15
1002.2872	2758.4204	922.75	41.2
1002.4078	2759.6213	922.9	39.15
1002.5285	2760.8215	927.4	38.8
1002.649	2762.0211	921.65	37.75
1002.7696	2763.22	924.6	38.25
1002.8901	2764.4182	922.8	38.2
1003.0106	2765.6158	918.4	36
1003.131	2766.8127	919.15	35.25
1003.2514	2768.009	918.55	36.75
1003.3717	2769.2045	919.4	35
1003.492	2770.3994	922.6	38.8
1003.6123	2771.5936	919.2	36.05
1003.7325	2772.7872	916.45	35.1
1003.8527	2773.9801	918.1	35.4
1003.9729	2775.1723	932.3	33
1004.093	2776.3639	919.15	37.75
1004.2131	2777.5548	918.35	34.15
1004.3331	2778.745	919.8	34.1
1004.4531	2779.9346	918.4	35.6
1004.5731	2781.1235	918.75	36.8
1004.693	2782.3117	918.65	36.85
1004.8129	2783.4992	916.85	34.25
1004.9328	2784.6861	913.7	31.2
1005.0526	2785.8723	917.8	35.15
1005.1723	2787.0579	918.05	35.25
1005.2921	2788.2428	920.2	37.65
1005.4118	2789.427	916.45	35.45
1005.5314	2790.6106	916.05	33.1
1005.651	2791.7935	920.75	37.5
1005.7706	2792.9757	913.2	31.6
1005.8902	2794.1573	920.45	35.5
1006.0097	2795.3382	917.95	35
1006.1291	2796.5184	914.35	34.05
1006.2485	2797.698	920.8	38.9
1006.3679	2798.8769	919.45	36.15
1006.4873	2800.0551	920.65	37.55
1006.6066	2801.2327	919.3	33.3
1006.7258	2802.4096	919.1	38.35
1006.8451	2803.5859	919.7	37.05
1006.9642	2804.7615	920	36.05
1007.0834	2805.9364	919.5	38.95
1007.2025	2807.1106	920.4	39.95
1007.3216	2808.2842	922.75	38.4
1007.4406	2809.4572	922.8	42.4
1007.5596	2810.6294	926.65	42.55
1007.6785	2811.801	922.95	43.35
1007.7975	2812.972	925.85	44.25
1007.9163	2814.1423	926.85	45.05
1008.0352	2815.3119	931.8	49.4
1008.154	2816.4808	931.85	51.5
1008.2727	2817.6491	937.4	53.65
1008.3914	2818.8167	936.5	56.3
1008.5101	2819.9837	943.5	56.55
1008.6288	2821.15	946.65	64.9
1008.7474	2822.3157	946.6	66.3
1008.8659	2823.4807	956	72.25
1008.9844	2824.645	962.25	79.05
1009.1029	2825.8086	963.7	84.45
1009.2214	2826.9716	974.85	95.35
1009.3398	2828.134	978.4	95.9
1009.4581	2829.2957	985.55	103.9
1009.5764	2830.4567	988.05	106.75
1009.6947	2831.617	992	108.5
1009.813	2832.7767	995.25	113.95
1009.9312	2833.9358	992.5	111.5
1010.0493	2835.0941	999.7	116.75
1010.1675	2836.2519	992.65	112.15
1010.2855	2837.4089	991.85	108.5
1010.4036	2838.5653	986.1	102.25
1010.5216	2839.7211	982.85	103.05
1010.6396	2840.8761	981.65	99.3
1010.7575	2842.0306	977.15	98.95
1010.8754	2843.1843	977.75	96.9
1010.9932	2844.3374	978.15	96.9
1011.111	2845.4899	980.8	98.25
1011.2288	2846.6417	983.55	102.8
1011.3465	2847.7928	986.1	105.15
1011.4642	2848.9433	988	107.8
1011.5818	2850.0931	982.5	101.35
1011.6995	2851.2422	989.3	106.15
1011.817	2852.3907	990.95	107.55
1011.9345	2853.5385	991.85	109.15
1012.052	2854.6857	1018.9	110.8
1012.1695	2855.8323	992.25	111.3
1012.2869	2856.9781	993.8	112.35
1012.4042	2858.1233	997.1	116.4
1012.5216	2859.2679	1004.1	124.05
1012.6389	2860.4118	1001.9	121
1012.7561	2861.555	1011.8	125.7
1012.8733	2862.6976	1006.7	125.75
1012.9905	2863.8395	1007.65	126
1013.1076	2864.9808	1013.3	132.4
1013.2247	2866.1214	1008.85	128.55
1013.3417	2867.2614	1015.6	135
1013.4587	2868.4007	1014.55	131.8
1013.5757	2869.5393	1014.5	133.1
1013.6926	2870.6773	1023.05	138.85
1013.8095	2871.8146	1024.35	140
1013.9263	2872.9513	1024.55	139.05
1014.0431	2874.0874	1022.75	143.5
1014.1599	2875.2227	1025.95	143.45
1014.2766	2876.3574	1025.45	144.35
1014.3933	2877.4915	1024.7	144.85
1014.51	2878.6249	1029.05	147.55
1014.6266	2879.7577	1029.75	144.9
1014.7431	2880.8898	1040.95	147.75
1014.8596	2882.0212	1036.5	154.95
1014.9761	2883.152	1036.3	155.45
1015.0925	2884.2821	1032.75	152.65
1015.2089	2885.4116	1039.4	158.75
1015.3253	2886.5405	1035.15	155.6
1015.4416	2887.6686	1043.3	159.4
1015.5579	2888.7962	1038.3	160.15
1015.6741	2889.923	1037.4	156.85
1015.7903	2891.0493	1039.85	158.7
1015.9065	2892.1748	1036.35	155.7
1016.0226	2893.2997	1035.4	153.25
1016.1387	2894.424	1038.25	157.5
1016.2547	2895.5476	1038.35	159.85
1016.3707	2896.6706	1039.55	159.2
1016.4866	2897.7929	1039.75	159.75
1016.6025	2898.9145	1042.35	160.8
1016.7184	2900.0355	1039.05	158.6
1016.8342	2901.1559	1038.6	158.05
1016.95	2902.2756	1042.9	158.15
1017.0658	2903.3946	1038.35	158.95
1017.1815	2904.513	1044.8	159
1017.2971	2905.6308	1039.2	159.05
1017.4127	2906.7479	1040.2	158
1017.5283	2907.8643	1041.75	160.4
1017.6439	2908.9801	1036.55	156.85
1017.7594	2910.0953	1039.8	159.4
1017.8748	2911.2098	1040.25	156.4
1017.9902	2912.3236	1045.35	158.65
1018.1056	2913.4368	1043.45	159.6
1018.2209	2914.5494	1036.9	157.25
1018.3362	2915.6613	1040.3	154.3
1018.4515	2916.7725	1033.05	151.05
1018.5667	2917.8831	1035.1	154
1018.6819	2918.9931	1032.25	148.85
1018.797	2920.1024	1026.85	144.45
1018.9121	2921.211	1023.4	143.95
1019.0271	2922.319	1024.1	143.6
1019.1421	2923.4264	1024.9	143.7
1019.2571	2924.5331	1017.8	138.45
1019.372	2925.6391	1019.85	139.95
1019.4869	2926.7445	1021.15	141.2
1019.6017	2927.8493	1021.85	139.45
1019.7165	2928.9534	1023.2	141.9
1019.8313	2930.0569	1026.4	144.8
1019.946	2931.1597	1026.2	144.25
1020.0606	2932.2619	1021.7	139.85
1020.1753	2933.3634	1022	142.35
1020.2899	2934.4643	1033.6	144.5
1020.4044	2935.5645	1036.1	148.2
1020.5189	2936.6641	1033.7	147.8
1020.6334	2937.763	1028.6	149.5
1020.7478	2938.8613	1027.95	148.75
1020.8622	2939.959	1030.5	144.2
1020.9765	2941.056	1026.9	147.65
1021.0908	2942.1523	1020.15	140.15
1021.2051	2943.248	1012.1	133.2
1021.3193	2944.3431	1002.1	121.35
1021.4334	2945.4375	998.15	115.9
1021.5476	2946.5313	990.3	112.35
1021.6617	2947.6244	986.1	104.95
1021.7757	2948.7169	980.55	99.2
1021.8897	2949.8087	978.45	98.05
1022.0037	2950.8999	970.4	89.4
1022.1176	2951.9904	967.65	88.05
1022.2315	2953.0803	966.9	87.85
1022.3453	2954.1696	959.8	80.95
1022.4591	2955.2582	957.15	78.05
1022.5728	2956.3462	954.15	75.55
1022.6865	2957.4335	954.7	73.15
1022.8002	2958.5202	956.2	74.95
1022.9138	2959.6062	954.45	72.9
1023.0274	2960.6916	953.8	71.25
1023.141	2961.7764	953.9	73.3
1023.2545	2962.8605	951.5	69.65
1023.3679	2963.9439	952.55	73.35
1023.4813	2965.0267	951.7	70.25
1023.5947	2966.1089	973.7	71.75
1023.708	2967.1905	949.9	71.55
1023.8213	2968.2714	949.2	69.1
1023.9346	2969.3516	955.35	76.5
1024.0478	2970.4312	954.25	66.15
1024.1609	2971.5102	947.8	68.5
1024.274	2972.5885	948.85	69.85
1024.3871	2973.6662	952.85	69.05
1024.5002	2974.7432	951.15	71.05
1024.6132	2975.8196	948.5	69.55
1024.7261	2976.8954	950.65	71.8
1024.839	2977.9705	949.05	68.8
1024.9519	2979.045	944.5	65.95
1025.0647	2980.1188	949.4	70.05
1025.1775	2981.192	949.45	70.65
1025.2902	2982.2645	952.05	69.7
1025.4029	2983.3364	947.7	65.45
1025.5156	2984.4077	942.95	63.3
1025.6282	2985.4783	947.05	59.85
1025.7407	2986.5483	935.95	56.8
1025.8532	2987.6177	938.6	59.75
1025.9657	2988.6864	938.1	58.35
1026.0782	2989.7545	937.6	55.4
1026.1906	2990.8219	933.85	55.45
1026.3029	2991.8887	931.25	47.95
1026.4152	2992.9548	926.9	47.2
1026.5275	2994.0204	923.65	44.9
1026.6397	2995.0852	921.25	41.45
1026.7519	2996.1495	921.65	41.75
1026.864	2997.2131	918.8	37.35
1026.9761	2998.276	917.1	37.6
1027.0882	2999.3383	917.75	36.75
1027.2002	3000.4	915.75	36
1027.3122	3001.4611	912.75	32.7
1027.4241	3002.5215	908.75	27.65
1027.536	3003.5812	911.25	31.6
1027.6478	3004.6404	910.1	29.7
1027.7596	3005.6989	909.95	29.35
1027.8714	3006.7567	908.85	27.2
1027.9831	3007.8139	940.05	28.15
1028.0947	3008.8705	907.6	28.95
1028.2064	3009.9264	909.45	24.7
1028.3179	3010.9818	906.7	27.7
1028.4295	3012.0364	906.2	27.15
1028.541	3013.0905	905.6	26.7
1028.6524	3014.1439	904.4	24.85
1028.7638	3015.1966	904.55	26.1
1028.8752	3016.2487	903.05	24.6
1028.9865	3017.3002	908	22.9
1029.0978	3018.3511	902.5	25.2
1029.209	3019.4013	903	21.55
1029.3202	3020.4509	902	23.65
1029.4314	3021.4998	903.15	23.1
1029.5425	3022.5481	902.8	22.7
1029.6535	3023.5958	899.85	19.15
1029.7645	3024.6428	901.45	20.3
1029.8755	3025.6892	900.8	21.75
1029.9864	3026.735	900.65	20.35
1030.0973	3027.7802	901.85	21.85
1030.2082	3028.8247	901.85	20.95
1030.319	3029.8685	902.5	24.25
1030.4297	3030.9118	903.05	23.8
1030.5404	3031.9544	900.95	22.5
1030.6511	3032.9963	901.3	23.75
1030.7617	3034.0376	901.65	21.1
1030.8723	3035.0783	901.8	19.6
1030.9829	3036.1184	904.3	23.8
1031.0934	3037.1578	899.8	22
1031.2038	3038.1966	903.95	22.8
1031.3142	3039.2348	900.45	23.3
1031.4246	3040.2723	908.75	21.5
1031.5349	3041.3092	900.9	21.35
1031.6452	3042.3455	899.85	19.25
1031.7554	3043.3811	902.2	21.85
1031.8656	3044.4161	904.55	24.4
1031.9758	3045.4505	899.25	21.15
1032.0859	3046.4842	901.7	23.25
1032.1959	3047.5173	899.7	22.2
1032.3059	3048.5498	900.3	20.75
1032.4159	3049.5816	904	24.2
1032.5258	3050.6128	901.4	21.55
1032.6357	3051.6434	903.05	21.15
1032.7455	3052.6734	902.85	21.85
1032.8553	3053.7027	902.45	23.25
1032.9651	3054.7314	900.6	20.15
1033.0748	3055.7594	900.65	23.35
1033.1845	3056.7868	904.1	23.2
1033.2941	3057.8136	901.55	20.25
1033.4037	3058.8398	903.7	27.55
1033.5132	3059.8653	903.55	23.75
1033.6227	3060.8902	902.45	23.35
1033.7321	3061.9145	903	24.15
1033.8415	3062.9381	902.7	23
1033.9509	3063.9612	917.8	22.25
1034.0602	3064.9835	906.9	27.45
1034.1694	3066.0053	905.55	23.75
1034.2787	3067.0264	903	23.95
1034.3878	3068.0469	905.35	25.2
1034.497	3069.0668	905.75	23.55
1034.6061	3070.086	901.2	20.7
1034.7151	3071.1046	903	23.15
1034.8241	3072.1226	902.4	20.9
1034.9331	3073.1399	900.6	24.05
1035.042	3074.1567	903.65	24.25
1035.1508	3075.1727	904	24
1035.2597	3076.1882	899.7	20.15
1035.3684	3077.203	900.2	21.5
1035.4772	3078.2173	899.2	18.45
1035.5859	3079.2308	900.75	18.5
1035.6945	3080.2438	901.4	20.5
1035.8031	3081.2561	897.2	17.05
1035.9117	3082.2678	899.45	20.7
1036.0202	3083.2789	897.3	18.6
1036.1286	3084.2893	896.6	18.45
1036.2371	3085.2991	897.65	16.65
1036.3454	3086.3083	901	16.8
1036.4538	3087.3169	898	17.85
1036.562	3088.3248	898.85	19
1036.6703	3089.3321	896.35	16.5
1036.7785	3090.3388	893.7	16.6
1036.8866	3091.3449	896.35	16.45
1036.9948	3092.3503	897.6	17.25
1037.1028	3093.3551	894.9	16.15
1037.2108	3094.3593	893.8	16.6
1037.3188	3095.3629	893.4	16.1
1037.4267	3096.3658	895.7	16.25
1037.5346	3097.3681	893.85	14.25
1037.6425	3098.3698	896.55	14
1037.7503	3099.3708	893.1	14
1037.858	3100.3713	893.7	15.05
1037.9657	3101.3711	894.25	16.65
1038.0734	3102.3702	1032	14
1038.181	3103.3688	897.05	15.3
1038.2886	3104.3667	889.15	11.45
1038.3961	3105.364	892.2	14.6
1038.5036	3106.3607	893.85	11.3
1038.611	3107.3568	892.75	13.35
1038.7184	3108.3522	891.45	12.75
1038.8257	3109.347	892.5	12.35
1038.933	3110.3412	897.3	13.2
1039.0403	3111.3348	891.3	14.8
1039.1475	3112.3277	893.8	13.8
1039.2547	3113.32	890.85	13.4
1039.3618	3114.3117	893.55	12.5
1039.4689	3115.3028	891.7	12.25
1039.5759	3116.2932	893	11.75
1039.6829	3117.2831	895.3	11.95
1039.7898	3118.2723	890.95	13.45
1039.8967	3119.2608	891.05	11.05
1040.0035	3120.2488	891.9	10.65
1040.1103	3121.2361	891	12.55
1040.2171	3122.2229	889.7	9.5
1040.3238	3123.209	891.5	11.95
1040.4305	3124.1944	890.2	13.1
1040.5371	3125.1793	892.8	14.2
1040.6437	3126.1635	889.5	10.9
1040.7502	3127.1471	888.8	11.5
1040.8567	3128.1301	890.8	11.95
1040.9631	3129.1125	891.7	15.55
1041.0695	3130.0942	889.7	11.3
1041.1759	3131.0753	896.75	9.2
1041.2822	3132.0558	892.8	12.5
1041.3884	3133.0357	891.05	12.95
1041.4946	3134.015	889.9	11.4
1041.6008	3134.9936	889.75	9.15
1041.7069	3135.9716	908.9	11.1
1041.813	3136.949	889.1	11.35
1041.919	3137.9258	907.1	11.05
1042.025	3138.902	895.05	11.3
1042.1309	3139.8775	887.55	9.3
1042.2368	3140.8524	890.05	10.7
1042.3427	3141.8267	888.5	9.45
1042.4485	3142.8004	887.9	8.7
1042.5542	3143.7735	894.4	8.75
1042.6599	3144.7459	890.05	9.25
1042.7656	3145.7178	888.55	9.6
1042.8712	3146.689	887.05	8.65
1042.9768	3147.6596	889.1	9.1
1043.0823	3148.6295	888.75	10.15
1043.1878	3149.5989	888.9	10.3
1043.2932	3150.5676	886.75	7.45
1043.3986	3151.5357	886.2	8.6
1043.5039	3152.5032	887.15	9.9
1043.6092	3153.4701	887.15	10.55
1043.7145	3154.4364	888.9	8.65
1043.8197	3155.402	886	9.6
1043.9248	3156.367	890.55	10.8
1044.03	3157.3315	928.65	8.7
1044.135	3158.2952	889.55	11.3
1044.24	3159.2584	884.4	5.5
1044.345	3160.221	888.3	8
1044.4499	3161.1829	887.25	8.8
1044.5548	3162.1442	886.55	8.15
1044.6596	3163.105	886.1	6.9
1044.7644	3164.065	886.25	8.2
1044.8692	3165.0245	889.15	8.2
1044.9739	3165.9834	884.85	8.65
1045.0785	3166.9416	885	6.95
1045.1831	3167.8993	887.55	6.5
1045.2877	3168.8563	887.85	10
1045.3922	3169.8127	888.1	9.25
1045.4966	3170.7684	886	7.85
1045.6011	3171.7236	886.4	7.55
1045.7054	3172.6782	889	7.95
1045.8098	3173.6321	886	8.7
1045.914	3174.5854	891.85	7.65
1046.0183	3175.5381	885.8	9.85
1046.1224	3176.4902	884.9	7.5
1046.2266	3177.4417	885	6.3
1046.3307	3178.3926	884.6	7.55
1046.4347	3179.3428	884.75	7.75
1046.5387	3180.2924	885.45	7.4
1046.6427	3181.2415	884.3	6.8
1046.7466	3182.1899	886.45	5.35
1046.8504	3183.1377	884.75	6.05
1046.9542	3184.0848	887.9	6.65
1047.058	3185.0314	885.6	7.6
1047.1617	3185.9773	886.3	8.05
1047.2654	3186.9227	887	8.1
1047.369	3187.8674	884.55	7.7
1047.4726	3188.8115	890.7	8.7
1047.5761	3189.755	885.5	4.95
1047.6796	3190.6979	885.4	6.9
1047.783	3191.6402	884.35	8.25
1047.8864	3192.5818	886.45	7.85
1047.9898	3193.5229	903.4	4.95
1048.0931	3194.4633	887.2	8.45
1048.1963	3195.4031	883.85	4.95
1048.2995	3196.3423	885.65	7.2
1048.4027	3197.2809	883.95	3.7
1048.5058	3198.2189	884.9	6.6
1048.6089	3199.1563	903.7	6.6
1048.7119	3200.0931	883	6.85
1048.8148	3201.0292	884.7	8.55
1048.9178	3201.9648	884.95	6.15
1049.0206	3202.8997	887.05	6.85
1049.1235	3203.834	885.4	6.7
1049.2262	3204.7677	884.95	5.85
1049.329	3205.7008	886.1	5.9
1049.4317	3206.6333	883.95	6
1049.5343	3207.5652	886.35	4.6
1049.6369	3208.4964	886.85	9.3
1049.7394	3209.4271	883.05	6.75
1049.8419	3210.3571	883.9	7.55
1049.9444	3211.2865	885.85	7
1050.0468	3212.2154	885.55	6.55
1050.1491	3213.1436	886.95	3.9
1050.2514	3214.0712	890.65	6.35
1050.3537	3214.9982	884	7.7
1050.4559	3215.9246	884.8	4.45
1050.5581	3216.8503	882.2	5.2
1050.6602	3217.7755	887.1	6.75
1050.7623	3218.7001	881.9	2.75
1050.8643	3219.624	886.35	8.15
1050.9663	3220.5473	885.5	6.35
1051.0682	3221.4701	887.2	8.95
1051.1701	3222.3922	887.9	6.85
1051.2719	3223.3137	885.2	7.7
1051.3737	3224.2346	885.4	8.3
1051.4754	3225.1549	883	5.7
1051.5771	3226.0746	881.35	1.65
1051.6788	3226.9937	883.75	3.75
1051.7804	3227.9121	881.3	4.05
1051.8819	3228.83	881.55	2.95
1051.9834	3229.7473	883.25	5.55
1052.0849	3230.6639	883.05	4
1052.1863	3231.5799	884.4	6.55
1052.2876	3232.4954	884.95	4.85
1052.3889	3233.4102	882.85	5.7
1052.4902	3234.3244	884.25	6.25
1052.5914	3235.238	881.9	4.2
1052.6926	3236.151	907.65	7
1052.7937	3237.0634	882.65	6.05
1052.8948	3237.9752	882.15	4.2
1052.9958	3238.8864	883.6	5.05
1053.0968	3239.797	881.5	4.7
1053.1977	3240.7069	883.65	5.55
1053.2986	3241.6163	886	7.35
1053.3994	3242.5251	881.55	4.8
1053.5002	3243.4332	882	5.05
1053.6009	3244.3408	884.75	6.9
1053.7016	3245.2477	882.5	4.35
1053.8022	3246.154	882.35	3.2
1053.9028	3247.0598	884.45	5.7
1054.0034	3247.9649	881.9	2.9
1054.1039	3248.8694	881.25	4.4
1054.2043	3249.7733	884.4	6.45
1054.3047	3250.6766	883.5	4.5
1054.4051	3251.5793	883.95	6.45
1054.5054	3252.4814	881.7	3.05
1054.6056	3253.3829	883.5	6.95
1054.7058	3254.2838	882.75	6.3
1054.806	3255.1841	881.5	4.25
1054.9061	3256.0838	882.8	5.25
1055.0061	3256.9829	882.15	5.85
1055.1062	3257.8814	883.5	3.1
1055.2061	3258.7792	884	3.8
1055.306	3259.6765	883.2	3.45
1055.4059	3260.5731	882.25	2.6
1055.5057	3261.4692	884.45	5.5
1055.6055	3262.3647	884.15	5.8
1055.7052	3263.2595	882.35	6.8
1055.8049	3264.1538	881.7	4.45
1055.9045	3265.0474	882.4	4
1056.0041	3265.9404	882.1	4.55
1056.1036	3266.8329	879.1	0.5
1056.2031	3267.7247	891.95	2.5
1056.3025	3268.616	878.95	2.35
1056.4019	3269.5066	881.8	3.15
1056.5013	3270.3966	881.85	3.9
1056.6005	3271.286	879.65	0.95
