Software Version:	3.9.2.0
Unit SN:	10000200
Spectrometer SN:	6960
Date:	3/8/2024 1:36:45 PM
Data Line Index:	25
Spectral Points:	2048
Integration time (ms):	125
Averages:	20
Delay (ms):	30000
Sequence Number:	1
Processing:	dark subtract
Laser Power (mW):	300
Laser Current (mA):	823
Laser Diode Temp (C):	25.1
Laser Case Temp (C):	26.3
System Temp (C):	26.3
Spectrometer Temp (C):	24.2
CCD Temp (C):	0.01
Secondary Temp (C):	20.013
Heatsink Temp (C):	20.44
CCDPCB Temp (C):	35.651
SecondaryPCB Temp (C):	30.593

Wavelength	RamanShift	Raw Counts	Dark Subtracted
787.061	30.1047	461.2	54.8
787.2016	32.3739	458.65	51.95
787.3422	34.6426	467.35	59.8
787.4828	36.9109	471.95	61.95
787.6235	39.1787	478.6	65.5
787.7642	41.4461	488.9	71
787.9049	43.7131	497.75	77.55
788.0456	45.9796	504.25	81.65
788.1863	48.2456	515.35	88.45
788.3271	50.5112	521.65	90.05
788.4679	52.7764	533.5	97.2
788.6087	55.0411	546.55	107
788.7496	57.3054	560.15	113.95
788.8904	59.5692	568.65	122.75
789.0313	61.8326	578.65	132.7
789.1722	64.0955	587.25	135.8
789.3132	66.3579	605.3	148.85
789.4541	68.6199	622.7	160.05
789.5951	70.8815	665.25	199.15
789.7361	73.1426	742.85	271.75
789.8771	75.4032	946.25	474.15
790.0181	77.6634	1453.1	976.3
790.1592	79.9231	2657.6	2169.1
790.3003	82.1824	5256.3	4750.45
790.4414	84.4412	9946.35	9410.85
790.5825	86.6995	16423.95	15852.95
790.7237	88.9574	22698.65	22092.35
790.8648	91.2148	27113.3	26483.6
791.006	93.4717	29076.25	28429.5
791.1472	95.7282	29524	28875.7
791.2885	97.9842	29385.25	28732.2
791.4297	100.2398	28804.75	28147.2
791.571	102.4949	28166.75	27505.4
791.7123	104.7495	27425.15	26763.65
791.8536	107.0036	26638.3	25972.55
791.9949	109.2573	25852.25	25189.25
792.1363	111.5105	25105.4	24437.9
792.2777	113.7632	24395.95	23727.75
792.4191	116.0154	23807.9	23127.45
792.5605	118.2672	23344.2	22671.7
792.7019	120.5185	22882.55	22209.5
792.8434	122.7693	22556.2	21878.8
792.9849	125.0197	22262.65	21579.2
793.1264	127.2696	21945.5	21261.15
793.2679	129.519	21819.55	21131.45
793.4094	131.7679	21617.85	20920.65
793.551	134.0163	21466.3	20771.5
793.6926	136.2642	21219.55	20521.35
793.8342	138.5117	20956.3	20253.35
793.9758	140.7587	20706.8	20005.4
794.1175	143.0052	20515.3	19805.75
794.2591	145.2512	20234.45	19530.75
794.4008	147.4967	20039.25	19331.15
794.5425	149.7417	19855.3	19149.6
794.6842	151.9863	19701.3	18986.35
794.826	154.2304	19637	18919.25
794.9677	156.4739	19493.45	18768.2
795.1095	158.717	19409.8	18688.85
795.2513	160.9596	19289.4	18560
795.3931	163.2017	19033.45	18302.85
795.535	165.4433	18728.5	17998.8
795.6768	167.6844	18423.35	17685.65
795.8187	169.925	18088.7	17357.9
795.9606	172.1651	17714.25	16979.9
796.1025	174.4047	17468.65	16729.1
796.2445	176.6439	17228.2	16485.15
796.3864	178.8825	16995.65	16249.4
796.5284	181.1206	16835.3	16082.65
796.6704	183.3582	16686.25	15927.35
796.8124	185.5954	16589.15	15831.15
796.9544	187.832	16483.4	15720.8
797.0965	190.0681	16489.35	15729.8
797.2386	192.3037	16492.6	15728.55
797.3806	194.5388	16505.65	15739.4
797.5228	196.7734	16520.6	15748.05
797.6649	199.0075	16613.25	15843.15
797.807	201.2411	16754.15	15981.35
797.9492	203.4742	16803.7	16024.55
798.0914	205.7068	16996.8	16218.65
798.2336	207.9389	17105.7	16326.9
798.3758	210.1704	17242.3	16471.35
798.518	212.4015	17348.8	16587.35
798.6603	214.632	17529.3	16774.65
798.8025	216.862	17749.25	16994.7
798.9448	219.0915	17868.6	17109.6
799.0871	221.3205	18082.2	17321.2
799.2294	223.549	18328.7	17570.9
799.3718	225.777	18601.45	17841.1
799.5141	228.0044	18925.35	18160.85
799.6565	230.2314	19344.05	18577.65
799.7989	232.4578	19711.05	18944.65
799.9413	234.6837	20053.2	19275.45
800.0837	236.909	20275.9	19498.75
800.2262	239.1339	20255	19449.35
800.3687	241.3582	20060.05	19268.35
800.5111	243.582	19795.15	18974.25
800.6536	245.8053	19476.75	18670.25
800.7961	248.0281	19234.75	18432.6
800.9387	250.2503	19014.4	18209.75
801.0812	252.472	18890.45	18081.75
801.2238	254.6932	18868.25	18068.7
801.3664	256.9139	18855.6	18048.95
801.509	259.134	18875.3	18059.85
801.6516	261.3536	18894.45	18086.25
801.7942	263.5727	19019.6	18206.9
801.9369	265.7912	19005.55	18194.35
802.0795	268.0092	19054.5	18242.4
802.2222	270.2267	19106.65	18295.35
802.3649	272.4436	19116.15	18300.15
802.5076	274.6601	19037.2	18214.3
802.6504	276.8759	18977.85	18161.95
802.7931	279.0913	18922.1	18101.2
802.9359	281.3061	18843.2	18024.6
803.0787	283.5204	18896.55	18070.45
803.2215	285.7341	18960.35	18132.25
803.3643	287.9473	19095.8	18258.9
803.5071	290.16	19312.25	18482.5
803.6499	292.3721	19590.85	18768.45
803.7928	294.5837	20024.4	19197.65
803.9357	296.7947	20343.15	19521.2
804.0786	299.0052	20524.05	19697.6
804.2215	301.2152	20430.9	19604.9
804.3644	303.4246	20115.05	19288.35
804.5074	305.6334	19594.1	18770.15
804.6503	307.8418	19088.35	18260.05
804.7933	310.0495	18660.7	17829.4
804.9363	312.2568	18347.9	17519.25
805.0793	314.4635	18109.15	17272.85
805.2223	316.6696	18007.3	17172.5
805.3653	318.8752	17927.05	17077.7
805.5084	321.0802	17944.3	17104.2
805.6514	323.2847	18087.25	17246.2
805.7945	325.4887	18097.3	17257.65
805.9376	327.692	18048.8	17207.15
806.0807	329.8949	17945.7	17100
806.2238	332.0972	17678.1	16835.15
806.367	334.2989	17438.6	16591.05
806.5101	336.5001	17179.35	16332.05
806.6533	338.7007	16955	16107.4
806.7965	340.9008	16871.35	16020.35
806.9397	343.1003	16711.8	15861.3
807.0829	345.2992	16667.6	15815.75
807.2261	347.4976	16632	15780
807.3693	349.6955	16669.45	15810.6
807.5126	351.8927	16725.1	15866.9
807.6559	354.0895	16700.35	15832.55
807.7991	356.2856	16754.5	15896.9
807.9424	358.4812	16718.15	15853.4
808.0857	360.6763	16768.4	15904.9
808.2291	362.8707	16730.1	15862.7
808.3724	365.0646	16774.4	15910
808.5158	367.258	16749.2	15883.75
808.6591	369.4508	16798.15	15926.5
808.8025	371.643	16934.35	16067.35
808.9459	373.8346	16954.05	16082.45
809.0893	376.0257	16925.1	16050.25
809.2327	378.2162	16860.05	15991.4
809.3762	380.4062	16812	15939.4
809.5196	382.5956	16637.35	15768.55
809.6631	384.7844	16565.35	15700.9
809.8066	386.9726	16424.2	15553.8
809.9501	389.1603	16371.05	15514.45
810.0936	391.3474	16377.2	15478.45
810.2371	393.5339	16334.9	15469.1
810.3806	395.7199	16292.55	15430.35
810.5241	397.9052	16320.7	15459.65
810.6677	400.09	16352.55	15491.4
810.8113	402.2743	16383.75	15515.75
810.9548	404.4579	16506.65	15644.1
811.0984	406.641	16697.45	15831.6
811.2421	408.8235	16903.8	16034.95
811.3857	411.0054	17208.25	16335.95
811.5293	413.1868	17598.5	16720.65
811.673	415.3675	17903.5	17021.75
811.8166	417.5477	18089.65	17209.95
811.9603	419.7273	18108.8	17233.45
812.104	421.9064	17993.05	17105.15
812.2477	424.0848	17861.55	16982.15
812.3914	426.2627	17677.45	16796.9
812.5351	428.4399	17400.4	16519.15
812.6788	430.6166	17082.55	16199.5
812.8226	432.7928	16717.45	15833.7
812.9663	434.9683	16388.5	15507.15
813.1101	437.1432	16151.75	15272.15
813.2539	439.3176	15982.3	15110.1
813.3977	441.4914	15902.6	15031.35
813.5415	443.6645	15860.4	14986.95
813.6853	445.8371	15779.2	14898.05
813.8291	448.0091	15720.5	14840.95
813.973	450.1806	15695.3	14814.2
814.1168	452.3514	15649.6	14772.3
814.2607	454.5216	15684.65	14795
814.4046	456.6913	15626.15	14742.15
814.5485	458.8603	15656.45	14775.6
814.6924	461.0288	15714.05	14842.5
814.8363	463.1967	15728.9	14856
814.9802	465.3639	15843	14965.05
815.1241	467.5306	15911.45	15028.2
815.2681	469.6967	16073.35	15198
815.412	471.8622	16183.7	15310.25
815.556	474.0271	16296.95	15417.8
815.7	476.1914	16374.1	15487.95
815.844	478.3551	16399.25	15517.5
815.988	480.5182	16372.5	15493.05
816.132	482.6807	16404.55	15529.8
816.276	484.8426	16513.5	15648.75
816.4201	487.0039	16815.6	15941.05
816.5641	489.1647	17240.4	16361
816.7082	491.3248	17624.35	16743.3
816.8522	493.4843	17819.85	16941.75
816.9963	495.6432	17814.75	16940.6
817.1404	497.8015	17727	16840.8
817.2845	499.9592	17730.15	16838.45
817.4286	502.1163	17649.45	16758.5
817.5727	504.2728	17363.65	16478.65
817.7168	506.4287	17113.9	16239.6
817.861	508.5839	16706.25	15825.25
818.0051	510.7386	16392.95	15512.2
818.1493	512.8927	16221.55	15335.25
818.2935	515.0461	16134.1	15248.35
818.4377	517.199	16100	15208.2
818.5818	519.3512	16143.65	15250.3
818.726	521.5029	16249.65	15352.05
818.8703	523.6539	16326.7	15435.5
819.0145	525.8043	16415	15518.2
819.1587	527.9541	16389.25	15491.65
819.303	530.1033	16364.3	15469.6
819.4472	532.2519	16375.6	15481.15
819.5915	534.3999	16489.45	15593.85
819.7357	536.5472	16720.55	15829.15
819.88	538.694	17126.5	16237.9
820.0243	540.8401	17680.75	16788.95
820.1686	542.9856	18135.25	17230.5
820.3129	545.1305	18273.95	17365.35
820.4572	547.2748	18167.1	17258.4
820.6016	549.4185	17838.95	16926
820.7459	551.5615	17526.15	16617.75
820.8902	553.704	17408.1	16501.65
821.0346	555.8458	17360.65	16459.05
821.1789	557.987	17433.6	16531.5
821.3233	560.1276	17448.2	16543.8
821.4677	562.2675	17558.3	16654.75
821.6121	564.4069	17655.05	16748.65
821.7565	566.5456	17718.35	16812.45
821.9009	568.6837	17694.2	16797.15
822.0453	570.8212	17389.9	16490.25
822.1897	572.958	17002.45	16098.6
822.3342	575.0942	16677	15776.4
822.4786	577.2299	16423.2	15527.8
822.6231	579.3648	16343.55	15456.85
822.7675	581.4992	16416.3	15543.55
822.912	583.6329	16580.5	15703.4
823.0565	585.766	16816.05	15936.6
823.201	587.8985	16928.8	16042.45
823.3454	590.0304	17005.1	16085.8
823.4899	592.1616	16927.2	16023.55
823.6345	594.2922	16780.1	15876.05
823.779	596.4222	16633	15723.8
823.9235	598.5515	16455.35	15547.05
824.068	600.6802	16305.95	15398.75
824.2126	602.8083	16135.25	15228.7
824.3571	604.9358	16063.25	15154.2
824.5017	607.0626	16055.1	15143.9
824.6462	609.1888	16024.55	15113.3
824.7908	611.3144	16001.45	15085.65
824.9354	613.4393	15956.7	15043.65
825.08	615.5636	15906.2	14992.1
825.2246	617.6873	15867.5	14956.4
825.3692	619.8103	15783.8	14868.75
825.5138	621.9327	15669.05	14755.85
825.6584	624.0544	15582.05	14675.55
825.803	626.1756	15526.7	14621.3
825.9477	628.2961	15509.9	14597.4
826.0923	630.4159	15435.4	14523.3
826.237	632.5351	15392.9	14477.05
826.3816	634.6537	15339.6	14422.65
826.5263	636.7716	15329.35	14409.8
826.6709	638.8889	15365.5	14442.85
826.8156	641.0056	15392.5	14470.25
826.9603	643.1216	15387.4	14462.35
827.105	645.237	15416.25	14497.8
827.2497	647.3518	15372.7	14461.8
827.3944	649.4659	15396	14488.15
827.5391	651.5793	15394.5	14488.35
827.6838	653.6922	15395.55	14486
827.8285	655.8043	15376.45	14464.45
827.9733	657.9159	15345.8	14434.9
828.118	660.0268	15286.6	14369.7
828.2627	662.137	15236.2	14322.4
828.4075	664.2466	15239.4	14317.5
828.5522	666.3556	15239.55	14319.75
828.697	668.4639	15186.6	14274.75
828.8418	670.5716	15234.3	14325.45
828.9865	672.6786	15323	14407.95
829.1313	674.785	15343.7	14424.05
829.2761	676.8907	15388.55	14472
829.4209	678.9958	15467.85	14554.35
829.5657	681.1002	15449.75	14532.05
829.7105	683.204	15431.25	14503.75
829.8553	685.3072	15390.5	14464.95
830.0001	687.4097	15358.45	14437.1
830.1449	689.5115	15312	14389.45
830.2898	691.6127	15280.2	14365.75
830.4346	693.7132	15219.15	14302.75
830.5794	695.8131	15209.85	14282.2
830.7243	697.9123	15207.15	14278.45
830.8691	700.0109	15133.85	14205.05
831.014	702.1089	15146.7	14222.6
831.1588	704.2061	15175.95	14250.3
831.3037	706.3028	15217.85	14288.75
831.4486	708.3987	15259.5	14331.1
831.5935	710.4941	15360.15	14436.25
831.7383	712.5887	15504.7	14581.65
831.8832	714.6827	15754.95	14826.05
832.0281	716.7761	16070.1	15149.3
832.173	718.8688	16403.9	15484.45
832.3179	720.9608	16608.25	15676.6
832.4628	723.0522	16674.65	15739.65
832.6077	725.1429	16522.55	15592.9
832.7527	727.233	16324.05	15398.25
832.8976	729.3224	16138.9	15214.45
833.0425	731.4112	15871.55	14948.05
833.1874	733.4993	15710.6	14782.5
833.3324	735.5867	15514.15	14592.05
833.4773	737.6735	15422.9	14491.2
833.6222	739.7596	15312.05	14378.75
833.7672	741.845	15286	14362.1
833.9122	743.9298	15242.9	14313.55
834.0571	746.014	15225.3	14301.85
834.2021	748.0974	15261.85	14329.3
834.347	750.1802	15229.75	14295.3
834.492	752.2624	15243.6	14311.3
834.637	754.3439	15289.45	14356.95
834.782	756.4247	15373.75	14438.1
834.9269	758.5048	15509.8	14580
835.0719	760.5843	15715.75	14780
835.2169	762.6631	16069.9	15136.3
835.3619	764.7413	16536.15	15604.6
835.5069	766.8188	17182.6	16246.85
835.6519	768.8956	17633.05	16698
835.7969	770.9718	17925.3	16992.95
835.9419	773.0473	17828.55	16894.05
836.0869	775.1221	17476.6	16542.8
836.232	777.1962	17108.6	16174.35
836.377	779.2697	16970.15	16032.75
836.522	781.3426	17007.55	16054.6
836.667	783.4147	17212.75	16277.4
836.8121	785.4862	17481.95	16547.75
836.9571	787.557	17470.3	16535.65
837.1021	789.6271	17132.05	16196.05
837.2472	791.6966	16580.4	15643.9
837.3922	793.7654	16048.05	15113.5
837.5373	795.8335	15718.05	14783.85
837.6823	797.901	15484.8	14550.35
837.8274	799.9678	15423.6	14486.1
837.9724	802.0339	15428.9	14496.4
838.1175	804.0993	15452.65	14502.25
838.2626	806.1641	15426.8	14487.6
838.4076	808.2282	15369.15	14432.7
838.5527	810.2916	15269.9	14329.9
838.6978	812.3544	15207.5	14272.25
838.8428	814.4164	15148.95	14213.95
838.9879	816.4778	15185.75	14246.2
839.133	818.5385	15157.6	14221.35
839.2781	820.5986	15220.75	14282.75
839.4232	822.658	15368.95	14425.9
839.5682	824.7166	15523.05	14583.2
839.7133	826.7747	15835.8	14893.1
839.8584	828.832	16059.4	15118.4
840.0035	830.8886	16250.15	15309.35
840.1486	832.9446	16384.7	15442.55
840.2937	834.9999	16410.1	15469.85
840.4388	837.0545	16348.65	15405.7
840.5839	839.1085	16298	15358.5
840.729	841.1618	16223.05	15278.25
840.8741	843.2143	16135.5	15197.8
841.0192	845.2662	16008.15	15069.9
841.1643	847.3175	15957.15	15015.55
841.3095	849.368	15864.8	14923.15
841.4546	851.4179	15757.8	14819.35
841.5997	853.467	15584.95	14647.5
841.7448	855.5155	15506.8	14564.9
841.8899	857.5633	15433.8	14493.9
842.0351	859.6105	15334.4	14391.5
842.1802	861.6569	15288.5	14347.25
842.3253	863.7027	15256.6	14310.95
842.4704	865.7478	15203.5	14263.7
842.6156	867.7922	15218.8	14273.25
842.7607	869.8359	15220	14278.55
842.9058	871.8789	15332.8	14392.3
843.0509	873.9212	15505.15	14527.7
843.1961	875.9629	15631.6	14689.35
843.3412	878.0039	15827.2	14888.3
843.4863	880.0441	15899.5	14959.6
843.6315	882.0837	15973.1	15033.45
843.7766	884.1226	15876.5	14935.9
843.9218	886.1609	15840.8	14900.25
844.0669	888.1984	15788.25	14846.1
844.212	890.2352	15798.05	14858.45
844.3572	892.2714	15746.55	14798.25
844.5023	894.3069	15730.3	14786.45
844.6475	896.3416	15650.65	14705.6
844.7926	898.3757	15593.05	14651.75
844.9377	900.4091	15592.85	14646.05
845.0829	902.4418	15580.25	14631.15
845.228	904.4739	15623.25	14673.6
845.3732	906.5052	15636.75	14685.2
845.5183	908.5358	15535.95	14590.75
845.6635	910.5658	15417.1	14466
845.8086	912.595	15220.35	14274.8
845.9538	914.6236	15064.95	14118.95
846.0989	916.6515	14994.25	14044.85
846.2441	918.6786	14975.2	14028.25
846.3892	920.7051	15021.95	14077.4
846.5344	922.7309	15176.65	14231.85
846.6795	924.756	15207.7	14262.95
846.8246	926.7804	15311.85	14367.1
846.9698	928.8041	15256.95	14312.65
847.1149	930.8272	15284.5	14338.8
847.2601	932.8495	15239.55	14293.2
847.4052	934.8711	15174.2	14228.1
847.5504	936.892	15063.9	14113.9
847.6955	938.9123	14967.5	14019.95
847.8407	940.9318	14871.7	13928.05
847.9858	942.9506	14790.95	13846.8
848.131	944.9688	14667.95	13720.25
848.2761	946.9862	14636.2	13686.7
848.4213	949.003	14521.1	13573.05
848.5664	951.019	14501.45	13554.6
848.7115	953.0344	14519.25	13575.35
848.8567	955.0491	14540.1	13596.4
849.0018	957.063	14609.45	13667.25
849.147	959.0763	14721.5	13779
849.2921	961.0888	14789.05	13842.5
849.4373	963.1007	14860.9	13917.9
849.5824	965.1119	14900.6	13966.65
849.7275	967.1223	14936.75	14005.45
849.8727	969.1321	14923.15	13996.65
850.0178	971.1412	14976.35	14040
850.1629	973.1495	14986.7	14044.5
850.3081	975.1572	15056.1	14061.2
850.4532	977.1641	15056.5	14108.45
850.5983	979.1704	15038.1	14094.1
850.7435	981.1759	15044.2	14096.2
850.8886	983.1808	15078.55	14131.3
851.0337	985.1849	15163.85	14207.15
851.1788	987.1884	15301.85	14354.35
851.324	989.1911	15463.5	14517.25
851.4691	991.1932	15546.7	14599.75
851.6142	993.1945	15629.45	14685.75
851.7593	995.1951	15572.85	14625.4
851.9045	997.1951	15546.65	14593.7
852.0496	999.1943	15481.85	14538.7
852.1947	1001.1928	15439.45	14496.5
852.3398	1003.1906	15421.05	14477.55
852.4849	1005.1877	15507.1	14562.5
852.63	1007.1841	15502.9	14558.85
852.7751	1009.1798	15439.9	14496.95
852.9202	1011.1748	15277.9	14329.35
853.0653	1013.1691	15106.8	14161.95
853.2104	1015.1627	14872.5	13925.45
853.3555	1017.1556	14618.5	13675.7
853.5006	1019.1477	14568.75	13625.1
853.6457	1021.1392	14475.55	13538.3
853.7908	1023.1299	14437.95	13504.3
853.9359	1025.12	14446.6	13519.1
854.081	1027.1093	14485.4	13566.05
854.2261	1029.0979	14601.2	13687.5
854.3712	1031.0859	14654.05	13731.65
854.5163	1033.0731	14674	13743.2
854.6613	1035.0596	14612.3	13675.35
854.8064	1037.0454	14432.55	13494.8
854.9515	1039.0304	14335.4	13393.8
855.0965	1041.0148	14218.75	13277.25
855.2416	1042.9985	14115.55	13171.85
855.3867	1044.9814	14113.45	13171.25
855.5317	1046.9636	14020.55	13075.6
855.6768	1048.9452	14014.3	13075.6
855.8219	1050.926	14064.75	13125.8
855.9669	1052.9061	14075.2	13134.45
856.112	1054.8855	14050.05	13109.5
856.257	1056.8642	14117.8	13175.45
856.4021	1058.8421	14165.9	13219.95
856.5471	1060.8194	14171.75	13224.7
856.6921	1062.7959	14238	13291.1
856.8372	1064.7717	14243.65	13301.15
856.9822	1066.7469	14278.8	13331.4
857.1272	1068.7213	14286.2	13338.4
857.2723	1070.695	14299.1	13355.7
857.4173	1072.6679	14231.5	13288.05
857.5623	1074.6402	14224.9	13280.45
857.7073	1076.6117	14200.95	13248.9
857.8523	1078.5826	14187	13242.05
857.9973	1080.5527	14158.05	13210.95
858.1423	1082.5221	14222.4	13280.6
858.2873	1084.4908	14348.4	13408.6
858.4323	1086.4587	14513.2	13568.5
858.5773	1088.426	14634.6	13690.5
858.7223	1090.3925	14651.25	13705.75
858.8673	1092.3584	14615	13673.15
859.0123	1094.3235	14500.1	13560.05
859.1573	1096.2879	14463.75	13518.95
859.3022	1098.2515	14476.4	13534.05
859.4472	1100.2145	14570.1	13626.45
859.5922	1102.1767	14687.95	13743.85
859.7371	1104.1382	14811.1	13868.6
859.8821	1106.099	15064.95	14126.6
860.027	1108.0591	15256.35	14315.15
860.172	1110.0185	15398.05	14453.7
860.3169	1111.9771	15449.2	14508.2
860.4619	1113.9351	15237.6	14295.6
860.6068	1115.8923	14978.2	14036.5
860.7517	1117.8488	14711.75	13765.6
860.8967	1119.8045	14456.1	13512.95
861.0416	1121.7596	14345.4	13404.5
861.1865	1123.7139	14247.9	13308.35
861.3314	1125.6675	14242.15	13301.45
861.4763	1127.6204	14327.6	13384.25
861.6212	1129.5726	14294.6	13354.5
861.7661	1131.524	14261.9	13320.55
861.911	1133.4748	14252.95	13312.95
862.0559	1135.4248	14177.2	13238.5
862.2008	1137.3741	14147.6	13204.6
862.3457	1139.3226	14090.4	13148.85
862.4905	1141.2705	14062.45	13119.2
862.6354	1143.2176	13965.7	13018.15
862.7803	1145.164	13957.85	13013.35
862.9251	1147.1097	13949.5	13006.95
863.07	1149.0546	13910.55	12965.75
863.2148	1150.9989	13832.85	12888.85
863.3597	1152.9424	13735	12792.05
863.5045	1154.8852	13580.05	12638.55
863.6493	1156.8272	13508.7	12567.4
863.7942	1158.7686	13433.75	12485.4
863.939	1160.7092	13402.7	12457.95
864.0838	1162.6491	13358.25	12414.2
864.2286	1164.5883	13493.5	12551.75
864.3734	1166.5267	13576.8	12632.6
864.5182	1168.4644	13739.1	12796.35
864.663	1170.4014	13886.65	12947.1
864.8078	1172.3377	14157.75	13222.4
864.9526	1174.2732	14387.55	13447.65
865.0974	1176.2081	14692.05	13751.05
865.2421	1178.1421	14957.9	14011.6
865.3869	1180.0755	15213.6	14275.2
865.5317	1182.0082	15357.7	14418.45
865.6764	1183.9401	15428.5	14490.5
865.8212	1185.8713	15260.05	14329.1
865.9659	1187.8017	15003.85	14078.2
866.1106	1189.7315	14742.95	13822.75
866.2554	1191.6605	14441.75	13520.05
866.4001	1193.5888	14228.45	13304.65
866.5448	1195.5163	14124.45	13194.05
866.6895	1197.4432	14042.1	13106.65
866.8342	1199.3693	13995.5	13062.8
866.9789	1201.2947	13947.45	13007.35
867.1236	1203.2193	13913.45	12975.2
867.2683	1205.1432	13952.15	13016.45
867.413	1207.0664	13943.05	13002.8
867.5576	1208.9889	13973.6	13036.2
867.7023	1210.9106	13991.8	13055.3
867.847	1212.8316	14016.65	13077.7
867.9916	1214.7519	14105.4	13155.85
868.1363	1216.6715	14071.2	13133.8
868.2809	1218.5903	14095.2	13158.3
868.4255	1220.5084	14068.95	13129.1
868.5701	1222.4257	14074.5	13134.35
868.7148	1224.3424	14055.85	13122.25
868.8594	1226.2583	14113.9	13176.65
869.004	1228.1735	14219.35	13283.5
869.1486	1230.0879	14286.55	13348.55
869.2932	1232.0016	14402.3	13466.25
869.4377	1233.9146	14463.75	13526.75
869.5823	1235.8269	14376.05	13437.4
869.7269	1237.7384	14283.75	13348.5
869.8715	1239.6492	14089.05	13153.5
870.016	1241.5592	14013.75	13074.65
870.1606	1243.4686	13950.6	13010.9
870.3051	1245.3772	13964.6	13028.45
870.4496	1247.285	13963.65	13025.45
870.5941	1249.1922	13976.55	13039.05
870.7387	1251.0986	13975.5	13042.1
870.8832	1253.0042	13968.5	13034.15
871.0277	1254.9092	14033.5	13095.6
871.1722	1256.8134	14116.25	13181.7
871.3167	1258.7169	14225.1	13287.7
871.4611	1260.6196	14389.85	13452.55
871.6056	1262.5216	14605.6	13669.4
871.7501	1264.4229	14780.45	13843.85
871.8945	1266.3234	14952.8	14019.8
872.039	1268.2232	15049.9	14114.6
872.1834	1270.1223	15055.3	14116.75
872.3278	1272.0207	15027.2	14093.05
872.4723	1273.9183	15005.5	14063.2
872.6167	1275.8151	14927.1	13991.9
872.7611	1277.7113	14880	13944.1
872.9055	1279.6067	14781.5	13847.9
873.0499	1281.5014	14745.1	13810.55
873.1943	1283.3953	14734.85	13796.35
873.3386	1285.2885	14849.7	13914.85
873.483	1287.181	14969.95	14034.75
873.6274	1289.0727	15103.5	14170.6
873.7717	1290.9637	15231.9	14299.85
873.9161	1292.854	15357.65	14424.2
874.0604	1294.7435	15449.45	14518.4
874.2047	1296.6323	15601.25	14668.35
874.349	1298.5204	15744.2	14809.25
874.4933	1300.4077	15903.75	14968.9
874.6376	1302.2943	16022.6	15091.75
874.7819	1304.1802	15974	15041.5
874.9262	1306.0653	15779.95	14842.4
875.0705	1307.9497	15570.5	14639.65
875.2147	1309.8333	15369.35	14436.6
875.359	1311.7162	15214.15	14278.45
875.5032	1313.5984	15204.5	14269.5
875.6475	1315.4798	15185.95	14251.4
875.7917	1317.3605	15237.15	14299.4
875.9359	1319.2405	15267.25	14330.3
876.0801	1321.1197	15227.15	14290.2
876.2243	1322.9982	15064.9	14126.4
876.3685	1324.876	14935.7	14001.4
876.5127	1326.753	14802.75	13867.7
876.6569	1328.6293	14733.55	13796.55
876.801	1330.5048	14719.6	13780.7
876.9452	1332.3796	14645.6	13711.2
877.0893	1334.2537	14648.95	13690.2
877.2335	1336.127	14562	13628.15
877.3776	1337.9996	14549.65	13614.4
877.5217	1339.8714	14528	13593.1
877.6658	1341.7426	14507.15	13527.6
877.8099	1343.6129	14504.7	13572.65
877.954	1345.4826	14433.6	13495.35
878.0981	1347.3515	14446	13507.4
878.2422	1349.2196	14354.8	13419.9
878.3862	1351.087	14378.5	13441.3
878.5303	1352.9537	14443.15	13505.5
878.6743	1354.8197	14548.5	13612.25
878.8184	1356.6849	14724.6	13790.95
878.9624	1358.5493	14823.6	13889.45
879.1064	1360.4131	14860.05	13926.1
879.2504	1362.276	14844.85	13911.3
879.3944	1364.1383	14726.45	13791.15
879.5384	1365.9998	14487.1	13548.35
879.6823	1367.8606	14163.95	13227.65
879.8263	1369.7206	13845.1	12913.45
879.9702	1371.5799	13611.6	12673.6
880.1142	1373.4384	13417.75	12481.3
880.2581	1375.2962	13242.8	12307.8
880.402	1377.1533	12963.85	12032.85
880.5459	1379.0096	12638.35	11710.5
880.6898	1380.8652	12355.4	11428.55
880.8337	1382.7201	12082.6	11151.3
880.9776	1384.5742	11828.8	10890.7
881.1215	1386.4275	11670.65	10735.05
881.2653	1388.2802	11527.35	10593.6
881.4092	1390.132	11407.65	10473.3
881.553	1391.9832	11358.05	10424.3
881.6968	1393.8336	11241.2	10306.05
881.8406	1395.6832	11220.5	10285.2
881.9844	1397.5322	11148.35	10213
882.1282	1399.3803	11141.45	10202.45
882.272	1401.2278	11079.05	10148
882.4158	1403.0745	11090.8	10158.65
882.5595	1404.9204	11081.4	10153.1
882.7033	1406.7656	11082.2	10148.25
882.847	1408.6101	11081.65	10146.6
882.9908	1410.4538	11083.7	10152.15
883.1345	1412.2968	11120	10188.4
883.2782	1414.139	11168.7	10238.25
883.4219	1415.9805	11248	10315.5
883.5656	1417.8213	11314.8	10377.05
883.7092	1419.6613	11416.65	10485.15
883.8529	1421.5006	11589.85	10658.75
883.9965	1423.3391	11829.5	10899.1
884.1402	1425.1769	12135.8	11202.9
884.2838	1427.0139	12589.5	11656.7
884.4274	1428.8502	13158	12225.85
884.571	1430.6858	13721.45	12788.95
884.7146	1432.5206	14107.45	13176.2
884.8582	1434.3547	14331.7	13401.4
885.0018	1436.188	14378.9	13449.8
885.1453	1438.0206	14302.65	13369.5
885.2889	1439.8524	14145.5	13213.2
885.4324	1441.6835	14029.25	13098.7
885.5759	1443.5139	13915.3	12980.55
885.7194	1445.3435	13846.4	12915.15
885.8629	1447.1724	13799.4	12872.1
886.0064	1449.0005	13722.5	12792.6
886.1499	1450.8279	13603	12672.35
886.2933	1452.6545	13584.2	12658.1
886.4368	1454.4804	13611.65	12684.5
886.5802	1456.3056	13606.65	12672.1
886.7237	1458.13	13495.6	12568.35
886.8671	1459.9536	13311.6	12385.1
887.0105	1461.7766	12996.45	12066.55
887.1539	1463.5987	12589.6	11657.6
887.2972	1465.4202	12206.95	11275.2
887.4406	1467.2409	11853.15	10923.65
887.584	1469.0608	11564.55	10636.05
887.7273	1470.88	11281.85	10352.05
887.8706	1472.6984	11089.7	10160.05
888.0139	1474.5161	10866.55	9933.45
888.1572	1476.3331	10662.05	9732.7
888.3005	1478.1493	10576.85	9644.2
888.4438	1479.9648	10446.85	9518
888.5871	1481.7795	10396.45	9468.75
888.7303	1483.5935	10310.85	9384.45
888.8736	1485.4067	10246.75	9317.6
889.0168	1487.2192	10196.55	9268.6
889.16	1489.031	10139.85	9207.5
889.3032	1490.842	10106.4	9178.95
889.4464	1492.6522	10072.3	9146.4
889.5896	1494.4618	10020.2	9093.2
889.7327	1496.2705	10002.55	9076.1
889.8759	1498.0785	9947.65	9019
890.019	1499.8858	9913	8983.45
890.1622	1501.6924	9866.45	8938.7
890.3053	1503.4981	9839.75	8912.25
890.4484	1505.3032	9820.6	8894.95
890.5914	1507.1075	9784.6	8856.1
890.7345	1508.911	9744.4	8817.25
890.8776	1510.7138	9700.65	8772.55
891.0206	1512.5159	9628.25	8701.45
891.1637	1514.3172	9603.9	8675.2
891.3067	1516.1178	9541.9	8616.15
891.4497	1517.9176	9526.9	8597.2
891.5927	1519.7166	9451.3	8524.65
891.7357	1521.515	9428.1	8495.2
891.8786	1523.3126	9404	8478.4
892.0216	1525.1094	9367.25	8437.75
892.1645	1526.9055	9340.45	8416.8
892.3074	1528.7008	9329.35	8404.85
892.4503	1530.4954	9240.85	8316.25
892.5932	1532.2893	9227.25	8305.15
892.7361	1534.0824	9196.25	8270.25
892.879	1535.8747	9201.75	8280.1
893.0218	1537.6663	9152.25	8232.5
893.1647	1539.4572	9155.85	8236.1
893.3075	1541.2473	9139.65	8217.9
893.4503	1543.0367	9110.15	8188.25
893.5931	1544.8253	9109.05	8181.8
893.7359	1546.6132	9126.05	8200.65
893.8787	1548.4003	9135.65	8202.95
894.0214	1550.1867	9157.2	8230.35
894.1642	1551.9723	9174.95	8252.65
894.3069	1553.7572	9204.55	8282.6
894.4496	1555.5414	9263.7	8347
894.5923	1557.3247	9315.4	8400.05
894.735	1559.1074	9390.05	8472.15
894.8777	1560.8893	9480.2	8563.5
895.0204	1562.6705	9548.35	8630.6
895.163	1564.4509	9632.8	8719.95
895.3056	1566.2305	9674	8762.8
895.4482	1568.0094	9754.65	8841.9
895.5908	1569.7876	9766.15	8854.8
895.7334	1571.565	9774.9	8858.95
895.876	1573.3417	9798.15	8881.35
896.0186	1575.1176	9752.7	8839.05
896.1611	1576.8928	9725.9	8815.65
896.3036	1578.6672	9664.8	8761.05
896.4461	1580.4409	9565.2	8662.4
896.5886	1582.2138	9454.2	8544
896.7311	1583.986	9366.45	8456.55
896.8736	1585.7575	9328.4	8417.15
897.0161	1587.5282	9282.2	8373.9
897.1585	1589.2981	9274.1	8366.7
897.3009	1591.0673	9273.55	8368.4
897.4433	1592.8358	9282.35	8375.2
897.5857	1594.6035	9332.2	8421.15
897.7281	1596.3704	9321.7	8409.65
897.8705	1598.1366	9361.7	8452
898.0128	1599.9021	9423.95	8517.25
898.1551	1601.6668	9477.85	8567.8
898.2975	1603.4308	9578.25	8668.7
898.4398	1605.194	9696.55	8781.15
898.5821	1606.9564	9818.1	8915.1
898.7243	1608.7182	9993.6	9091.8
898.8666	1610.4791	10174.1	9278.3
899.0088	1612.2394	10317.2	9422.95
899.1511	1613.9988	10538.65	9641.45
899.2933	1615.7576	10733	9831.4
899.4355	1617.5156	10947.65	10033.6
899.5776	1619.2728	11110.4	10198.15
899.7198	1621.0293	11183.55	10273.75
899.862	1622.785	11174.05	10269.25
900.0041	1624.54	11033.25	10127.6
900.1462	1626.2942	10859.3	9957.9
900.2883	1628.0477	10596.8	9695.95
900.4304	1629.8005	10365.8	9459.5
900.5725	1631.5525	10132.8	9230.05
900.7145	1633.3037	9917.5	9018.75
900.8566	1635.0542	9808.05	8906.65
900.9986	1636.804	9676.05	8773.3
901.1406	1638.553	9641.25	8673.15
901.2826	1640.3013	9537.95	8635.5
901.4245	1642.0488	9533.2	8630.75
901.5665	1643.7955	9578.05	8678.05
901.7085	1645.5416	9623.55	8725.9
901.8504	1647.2868	9697.1	8796.7
901.9923	1649.0313	9783.55	8881.9
902.1342	1650.7751	9946.05	9040.05
902.2761	1652.5181	10115.85	9215.3
902.4179	1654.2604	10316.75	9419.75
902.5598	1656.0019	10542.05	9641.55
902.7016	1657.7427	10817.05	9916.95
902.8434	1659.4828	11118.7	10216.9
902.9852	1661.222	11272.7	10368.3
903.127	1662.9606	11248.4	10345.95
903.2687	1664.6984	11055.1	10150.65
903.4105	1666.4354	10618.95	9713.4
903.5522	1668.1717	10122.95	9214.1
903.6939	1669.9072	9590.7	8685.75
903.8356	1671.642	9158.25	8250
903.9773	1673.3761	8780.25	7876
904.119	1675.1094	8508.25	7608.25
904.2606	1676.8419	8252.3	7348.9
904.4022	1678.5737	8079.35	7175.4
904.5439	1680.3048	7928.65	7024.1
904.6855	1682.0351	7800.45	6895.3
904.827	1683.7646	7701.65	6796.75
904.9686	1685.4934	7641.8	6741
905.1101	1687.2215	7558.95	6657.75
905.2517	1688.9488	7503.9	6603.9
905.3932	1690.6754	7441.8	6541.75
905.5347	1692.4012	7408.7	6506.7
905.6761	1694.1263	7357.65	6457.2
905.8176	1695.8506	7336.35	6432.65
905.9591	1697.5742	7260.7	6360
906.1005	1699.297	7235.6	6336.45
906.2419	1701.0191	7177.1	6281.75
906.3833	1702.7404	7124.95	6228
906.5246	1704.461	7094.6	6191.35
906.666	1706.1808	7060.15	6161.05
906.8073	1707.8999	7068.85	6172.55
906.9487	1709.6182	7000.75	6105.8
907.09	1711.3358	6967.05	6074.5
907.2313	1713.0527	6935	6041.9
907.3725	1714.7688	6938.75	6040.75
907.5138	1716.4841	6897.8	5999.7
907.655	1718.1987	6890.05	5988.7
907.7962	1719.9126	6856.85	5963.25
907.9374	1721.6257	6837.05	5942.8
908.0786	1723.338	6802.7	5910.25
908.2198	1725.0496	6782.8	5889.95
908.3609	1726.7605	6728.2	5831.6
908.502	1728.4706	6719.4	5824.4
908.6431	1730.18	6699.95	5805.75
908.7842	1731.8886	6683.35	5788.8
908.9253	1733.5964	6674.15	5759.95
909.0664	1735.3036	6654.8	5760
909.2074	1737.0099	6631.4	5737.45
909.3484	1738.7156	6572.2	5683.85
909.4894	1740.4204	6569.4	5675.9
909.6304	1742.1246	6540.2	5645.75
909.7714	1743.8279	6531.1	5636.6
909.9123	1745.5306	6504.35	5612.6
910.0532	1747.2325	6473.8	5579.65
910.1941	1748.9336	6447.5	5553.8
910.335	1750.634	6415.55	5519.15
910.4759	1752.3336	6405.1	5509.55
910.6168	1754.0325	6403.2	5514.55
910.7576	1755.7307	6378.95	5487.9
910.8984	1757.4281	6384	5490.05
911.0392	1759.1247	6381.15	5477.3
911.18	1760.8206	6351.55	5448.2
911.3208	1762.5158	6351.55	5450.45
911.4615	1764.2102	6300.4	5405.9
911.6022	1765.9039	6273.15	5380.85
911.7429	1767.5968	6270.05	5379.1
911.8836	1769.289	6241.3	5349.1
912.0243	1770.9804	6232.85	5337.55
912.1649	1772.6711	6234.7	5338.4
912.3056	1774.361	6217.75	5319
912.4462	1776.0502	6205.2	5308.8
912.5868	1777.7386	6201.55	5304
912.7274	1779.4263	6168.55	5274.8
912.8679	1781.1132	6153.6	5264.2
913.0084	1782.7994	6145.85	5255.25
913.149	1784.4849	6115.3	5225.25
913.2895	1786.1696	6111.85	5214.75
913.4299	1787.8535	6113.35	5223.35
913.5704	1789.5367	6078.8	5190.3
913.7108	1791.2192	6079.7	5190.4
913.8513	1792.9009	6072.15	5157.85
913.9917	1794.5818	6049.35	5154.5
914.132	1796.2621	6016.15	5124.5
914.2724	1797.9415	6022.35	5126.5
914.4128	1799.6202	5998.05	5104.05
914.5531	1801.2982	5999.65	5104.2
914.6934	1802.9755	5975.5	5079.8
914.8337	1804.6519	5967.2	5071.9
914.9739	1806.3277	5938.85	5047.65
915.1142	1808.0027	5916.5	5027.65
915.2544	1809.6769	5909.4	5022.85
915.3946	1811.3504	5897.15	5008.2
915.5348	1813.0231	5888.75	4999.9
915.675	1814.6951	5882.7	4993.05
915.8151	1816.3664	5875.1	4981.65
915.9553	1818.0369	5861.8	4970.35
916.0954	1819.7067	5832	4941
916.2355	1821.3757	5831.55	4936.25
916.3755	1823.044	5832.3	4939.7
916.5156	1824.7115	5783.3	4887.3
916.6556	1826.3783	5780.6	4891.2
916.7956	1828.0443	5765.65	4875.45
916.9356	1829.7096	5756.9	4863.35
917.0756	1831.3741	5769.75	4877.2
917.2155	1833.0379	5725.2	4837.7
917.3555	1834.701	5725.9	4836.25
917.4954	1836.3633	5721.5	4832.8
917.6353	1838.0248	5704.1	4812.4
917.7751	1839.6856	5681	4791.1
917.915	1841.3457	5685.05	4793.9
918.0548	1843.005	5684.25	4792.6
918.1946	1844.6636	5668.95	4778.15
918.3344	1846.3214	5646.35	4753.65
918.4742	1847.9785	5656.35	4765.25
918.6139	1849.6349	5643.5	4748.75
918.7537	1851.2904	5650.45	4749.6
918.8934	1852.9453	5623.45	4731.3
919.0331	1854.5994	5613.35	4718.05
919.1727	1856.2528	5594.8	4696.15
919.3124	1857.9054	5573.95	4682.3
919.452	1859.5572	5562.25	4672.3
919.5916	1861.2083	5561.2	4670.15
919.7312	1862.8587	5543.4	4649.25
919.8708	1864.5084	5532.25	4637.3
920.0103	1866.1572	5527.3	4634.6
920.1498	1867.8054	5510.8	4614.5
920.2893	1869.4528	5498	4604.15
920.4288	1871.0994	5466.25	4573.35
920.5683	1872.7453	5474.5	4583.45
920.7077	1874.3905	5481.95	4570.85
920.8471	1876.0349	5447.65	4554.6
920.9865	1877.6786	5452.7	4558.2
921.1259	1879.3215	5423.9	4532.95
921.2653	1880.9637	5420.55	4529.05
921.4046	1882.6051	5409.1	4516.8
921.5439	1884.2458	5379.9	4486.65
921.6832	1885.8858	5366.55	4476.8
921.8225	1887.525	5376.35	4483.75
921.9617	1889.1634	5338.15	4447.25
922.101	1890.8011	5321.65	4429.55
922.2402	1892.4381	5335.6	4442
922.3794	1894.0743	5323.75	4432.8
922.5185	1895.7098	5300.7	4410.45
922.6577	1897.3446	5288.25	4395.5
922.7968	1898.9786	5288.35	4394.3
922.9359	1900.6118	5256.9	4367
923.075	1902.2443	5242.45	4353.95
923.214	1903.8761	5233.55	4342
923.3531	1905.5071	5194.1	4302.7
923.4921	1907.1374	5200.75	4310.9
923.6311	1908.7669	5185.2	4295.6
923.77	1910.3957	5179.7	4289.65
923.909	1912.0237	5152.45	4262.65
924.0479	1913.651	5161.95	4269.15
924.1868	1915.2776	5144.05	4254.65
924.3257	1916.9034	5104.8	4215.6
924.4646	1918.5285	5092.15	4203.75
924.6034	1920.1528	5082.3	4194.55
924.7422	1921.7764	5066.5	4173.95
924.881	1923.3992	5062	4170.1
925.0198	1925.0213	5038.8	4148.4
925.1586	1926.6427	5019.35	4128.65
925.2973	1928.2633	5173.5	4077.6
925.436	1929.8832	5023.3	4127.85
925.5747	1931.5023	4974	4084.3
925.7134	1933.1207	4957.2	4067.2
925.852	1934.7383	4952.9	4061.5
925.9906	1936.3552	4926.8	4038.8
926.1292	1937.9714	4923.6	4034.15
926.2678	1939.5868	4899.9	4007.35
926.4064	1941.2015	4902.65	4010.3
926.5449	1942.8154	4882.3	3990.35
926.6834	1944.4286	4856.4	3967.15
926.8219	1946.041	4851.85	3935.35
926.9604	1947.6528	4824.05	3930.65
927.0988	1949.2637	4814.9	3923.6
927.2372	1950.8739	4804.75	3914.6
927.3756	1952.4834	4804.3	3911.3
927.514	1954.0921	4777.25	3888.6
927.6523	1955.7001	4750.55	3857.3
927.7907	1957.3074	4750.25	3863.1
927.929	1958.9139	4733.2	3849.1
928.0673	1960.5197	4721.25	3834.3
928.2055	1962.1247	4716.05	3826.75
928.3438	1963.729	4698.15	3813.65
928.482	1965.3325	4667.4	3775.05
928.6202	1966.9353	4659.8	3776.35
928.7584	1968.5374	4646.35	3760.3
928.8965	1970.1387	4622.25	3735
929.0346	1971.7393	4611.15	3723.7
929.1727	1973.3392	4600.65	3712.1
929.3108	1974.9383	4574.7	3689.75
929.4489	1976.5366	4579.9	3694.55
929.5869	1978.1342	4563.95	3680.75
929.7249	1979.7311	4549.75	3666.75
929.8629	1981.3273	4547.7	3661.9
930.0009	1982.9227	4536.05	3651.25
930.1388	1984.5173	4527.6	3642.7
930.2767	1986.1112	4510.55	3627.25
930.4146	1987.7044	4491.85	3609.75
930.5525	1989.2968	4487.1	3600.7
930.6904	1990.8885	4467.75	3579.75
930.8282	1992.4795	4453.1	3570.1
930.966	1994.0697	4453.15	3571.7
931.1038	1995.6592	4446.65	3565.9
931.2415	1997.2479	4434.45	3549.75
931.3793	1998.8359	4416.75	3534.3
931.517	2000.4232	4402.75	3525.5
931.6547	2002.0097	4389.5	3512.5
931.7923	2003.5955	4363.7	3483.35
931.93	2005.1805	4370.6	3489.5
932.0676	2006.7648	4351.35	3470.75
932.2052	2008.3484	4340.45	3461.05
932.3427	2009.9312	4352.65	3473.05
932.4803	2011.5133	4321.7	3445.55
932.6178	2013.0946	4324.25	3443.65
932.7553	2014.6752	4305.9	3429.65
932.8928	2016.2551	4295.3	3412.8
933.0302	2017.8342	4275.75	3395.25
933.1676	2019.4126	4264.65	3386.1
933.305	2020.9902	4269.5	3391
933.4424	2022.5672	4263.75	3384.85
933.5798	2024.1433	4240.6	3357.35
933.7171	2025.7188	4235	3359
933.8544	2027.2935	4217.65	3338.55
933.9917	2028.8674	4192.1	3316.3
934.129	2030.4406	4192.35	3315.6
934.2662	2032.0131	4175.9	3300
934.4034	2033.5849	4164	3281.7
934.5406	2035.1559	4165.6	3289.8
934.6778	2036.7261	4153.05	3274.1
934.8149	2038.2957	4155.45	3275.1
934.952	2039.8645	4153.55	3269.7
935.0891	2041.4325	4147.9	3262.7
935.2262	2042.9998	4113.45	3233.2
935.3632	2044.5664	4106.8	3226.6
935.5002	2046.1323	4107.55	3231.2
935.6372	2047.6974	4086.35	3207.9
935.7742	2049.2617	4073.2	3195.85
935.9111	2050.8254	4107.85	3195
936.048	2052.3883	4084.75	3203.2
936.1849	2053.9504	4055.2	3173.25
936.3218	2055.5118	4044.1	3159.75
936.4586	2057.0725	4035.6	3151.45
936.5955	2058.6325	4034.35	3154.6
936.7323	2060.1917	4026.7	3146.95
936.869	2061.7502	4007.4	3125.75
937.0058	2063.3079	3988.05	3110.75
937.1425	2064.8649	3977.95	3098.45
937.2792	2066.4212	3984.9	3105.45
937.4159	2067.9767	3972.3	3091.55
937.5525	2069.5315	3951.55	3071.35
937.6891	2071.0856	3943.75	3064.5
937.8257	2072.6389	3930.85	3051.15
937.9623	2074.1915	3922.4	3045.85
938.0989	2075.7433	3907.15	3026.4
938.2354	2077.2945	3891.75	3013.7
938.3719	2078.8448	3900.5	3018.5
938.5084	2080.3945	3876.1	2992.2
938.6448	2081.9434	3872.1	2989.9
938.7812	2083.4916	3853.55	2969.05
938.9176	2085.039	3852.1	2965.9
939.054	2086.5857	3839.6	2951.25
939.1903	2088.1317	3850.05	2960.15
939.3267	2089.677	3836.95	2948.65
939.463	2091.2215	3824.5	2935.95
939.5992	2092.7652	3816.25	2925.6
939.7355	2094.3083	3799.1	2910.4
939.8717	2095.8506	3796.35	2913.5
940.0079	2097.3921	3810.6	2927.15
940.1441	2098.933	3792.15	2909.3
940.2802	2100.4731	3784.7	2900.7
940.4163	2102.0124	3790.95	2898.25
940.5524	2103.5511	3773	2886.2
940.6885	2105.089	3768.95	2884.65
940.8245	2106.6261	3759.8	2875.35
940.9606	2108.1626	3730.35	2846.75
941.0965	2109.6983	3756	2845
941.2325	2111.2332	3733.15	2849.6
941.3684	2112.7675	3722.35	2833.7
941.5044	2114.301	3709.5	2822.4
941.6403	2115.8337	3709.85	2821.8
941.7761	2117.3657	3695.35	2811.7
941.912	2118.897	3694.2	2805.75
942.0478	2120.4276	3674.25	2781.2
942.1835	2121.9575	3683.05	2799.1
942.3193	2123.4866	3686.65	2798.45
942.455	2125.0149	3658.55	2771.9
942.5907	2126.5426	3636.65	2754.5
942.7264	2128.0695	3635.1	2752.45
942.8621	2129.5956	3618.15	2742.5
942.9977	2131.1211	3622.65	2736.6
943.1333	2132.6458	3609.75	2726.85
943.2689	2134.1698	3608.2	2722.7
943.4044	2135.693	3593.4	2704.9
943.54	2137.2155	3610.2	2722.25
943.6755	2138.7373	3582.75	2699.35
943.8109	2140.2584	3585.75	2707.1
943.9464	2141.7787	3573.05	2685.2
944.0818	2143.2983	3553.75	2677.1
944.2172	2144.8171	3533.15	2654.65
944.3526	2146.3353	3526.85	2646.6
944.4879	2147.8527	3532.35	2652.8
944.6232	2149.3693	3533.5	2648.9
944.7585	2150.8853	3529.85	2642.3
944.8938	2152.4005	3505	2616.2
945.029	2153.9149	3508.65	2620.35
945.1642	2155.4287	3499.15	2615.05
945.2994	2156.9417	3485.3	2597.6
945.4346	2158.454	3478.55	2593
945.5697	2159.9655	3467.15	2585.95
945.7048	2161.4764	3454.55	2573.25
945.8399	2162.9865	3454.25	2571.95
945.9749	2164.4958	3444.7	2562.8
946.1099	2166.0045	3444.65	2560.2
946.2449	2167.5124	3439.6	2557.45
946.3799	2169.0195	3437.15	2553.05
946.5148	2170.526	3425.55	2540
946.6498	2172.0317	3412	2529.1
946.7846	2173.5367	3406.2	2521.65
946.9195	2175.0409	3409.9	2527.9
947.0543	2176.5445	3409.45	2524.55
947.1891	2178.0473	3390.9	2502.85
947.3239	2179.5494	3379.65	2490.8
947.4587	2181.0507	3369.5	2483.75
947.5934	2182.5513	3353.1	2468.7
947.7281	2184.0512	3371.7	2486.65
947.8628	2185.5504	3367.6	2483.15
947.9974	2187.0488	3334.95	2454.4
948.132	2188.5465	3310.95	2426.3
948.2666	2190.0435	3319.4	2435.65
948.4012	2191.5397	3315.3	2429.4
948.5357	2193.0353	3312.95	2427.2
948.6702	2194.5301	3289.7	2400.4
948.8047	2196.0241	3289.75	2398.95
948.9392	2197.5175	3284.65	2395
949.0736	2199.0101	3285.15	2393.5
949.208	2200.502	3257.65	2372.1
949.3424	2201.9931	3248.95	2365.35
949.4767	2203.4835	3245.9	2361.95
949.611	2204.9733	3248.85	2361.7
949.7453	2206.4622	3243.6	2363.45
949.8796	2207.9505	3216.55	2332.75
950.0138	2209.438	3216.6	2340
950.148	2210.9248	3205.9	2323.9
950.2822	2212.4109	3191.75	2309.65
950.4164	2213.8962	3190.45	2300.2
950.5505	2215.3809	3194.2	2302.1
950.6846	2216.8648	3183.8	2290.6
950.8186	2218.3479	3184.25	2288.4
950.9527	2219.8304	3167.6	2273.4
951.0867	2221.3121	3155.4	2265.4
951.2207	2222.7931	3152.95	2267.9
951.3546	2224.2733	3149.8	2261.7
951.4886	2225.7529	3129.3	2245.85
951.6225	2227.2317	3117.4	2231.1
951.7563	2228.7098	3120.1	2239.65
951.8902	2230.1872	3105.95	2224.95
952.024	2231.6638	3097	2215.1
952.1578	2233.1397	3101.05	2216
952.2916	2234.6149	3078.9	2194.85
952.4253	2236.0894	3078.55	2193.75
952.559	2237.5632	3077.9	2181.5
952.6927	2239.0362	3071.9	2188.1
952.8263	2240.5085	3055.6	2171.05
952.9599	2241.9801	3053.75	2168.25
953.0935	2243.4509	3039.45	2155.75
953.2271	2244.921	3029.15	2139.3
953.3606	2246.3904	3038.85	2148.9
953.4941	2247.8591	3018.35	2132.15
953.6276	2249.3271	3010.95	2123.55
953.7611	2250.7943	3001.85	2114.6
953.8945	2252.2608	2992.75	2103.55
954.0279	2253.7266	2999.1	2110.25
954.1612	2255.1917	2992.85	2107.5
954.2946	2256.656	2973.25	2089.6
954.4279	2258.1197	2964.8	2081.4
954.5612	2259.5826	2963.25	2078.9
954.6944	2261.0447	2964.75	2076.95
954.8276	2262.5062	2950.95	2063.25
954.9608	2263.9669	2951	2063.1
955.094	2265.4269	2942	2057.3
955.2271	2266.8862	2930.6	2046.7
955.3602	2268.3448	2924.35	2039.9
955.4933	2269.8026	2926.2	2041.65
955.6264	2271.2598	2913.65	2032
955.7594	2272.7162	2906.15	2022.1
955.8924	2274.1719	2908.15	2021.95
956.0253	2275.6268	2892.15	2003.75
956.1583	2277.0811	2892	2003.4
956.2912	2278.5346	2900.85	2016.35
956.4241	2279.9874	2877.75	1994.75
956.5569	2281.4395	2878.35	1996.95
956.6897	2282.8908	2882.1	1992.35
956.8225	2284.3414	2867.75	1982.6
956.9553	2285.7914	2867.35	1983.7
957.088	2287.2406	2854.35	1966.8
957.2207	2288.689	2854.65	1964.45
957.3534	2290.1368	2856.65	1965.65
957.486	2291.5838	2842.9	1951.7
957.6186	2293.0302	2847.45	1954.85
957.7512	2294.4758	2820.65	1932.35
957.8838	2295.9206	2816.35	1928.4
958.0163	2297.3648	2805.65	1920.85
958.1488	2298.8082	2808.35	1923.6
958.2813	2300.251	2809.7	1922
958.4137	2301.693	2809.55	1918.3
958.5461	2303.1343	2794.2	1907.25
958.6785	2304.5748	2800.75	1916.1
958.8108	2306.0147	2793.05	1909.3
958.9432	2307.4538	2780.8	1895.7
959.0754	2308.8922	2772.05	1892.7
959.2077	2310.3299	2761.85	1879.85
959.3399	2311.7669	2747.3	1863.9
959.4721	2313.2031	2759.5	1875.65
959.6043	2314.6387	2747.1	1859.9
959.7365	2316.0735	2735	1848.25
959.8686	2317.5076	2723.15	1836.7
960.0006	2318.941	2731.3	1843.9
960.1327	2320.3737	2716.35	1826.95
960.2647	2321.8056	2718.95	1828.05
960.3967	2323.2369	2707.25	1820.25
960.5287	2324.6674	2707.05	1819.35
960.6606	2326.0972	2713.55	1827.4
960.7925	2327.5263	2700.5	1815.05
960.9244	2328.9547	2702.25	1813.65
961.0562	2330.3823	2684.4	1796.1
961.1881	2331.8092	2677.15	1783.95
961.3198	2333.2355	2678.7	1790.15
961.4516	2334.661	2673.25	1784.55
961.5833	2336.0858	2675.7	1784.7
961.715	2337.5098	2655.75	1767.85
961.8467	2338.9332	2655.7	1768.25
961.9783	2340.3558	2652.9	1765.85
962.1099	2341.7778	2643.1	1760.55
962.2415	2343.199	2639.95	1753.1
962.373	2344.6195	2640.95	1755.2
962.5045	2346.0393	2628.55	1741.5
962.636	2347.4583	2638.05	1752.65
962.7675	2348.8767	2625.85	1738.35
962.8989	2350.2943	2617	1730
963.0303	2351.7113	2629.05	1738.6
963.1617	2353.1275	2618.7	1731.15
963.293	2354.543	2618.7	1721.85
963.4243	2355.9578	2609.1	1722.9
963.5556	2357.3718	2581.8	1697
963.6868	2358.7852	2575.3	1688.35
963.818	2360.1978	2578.75	1695.85
963.9492	2361.6098	2569.2	1683.6
964.0803	2363.021	2567.85	1678.45
964.2114	2364.4315	2567.2	1681.95
964.3425	2365.8413	2564.85	1679.1
964.4736	2367.2504	2547.6	1664.9
964.6046	2368.6587	2543.5	1661.35
964.7356	2370.0664	2534.75	1652.1
964.8666	2371.4733	2527.35	1641.25
964.9975	2372.8795	2528.5	1643.8
965.1284	2374.285	2521.45	1634.55
965.2593	2375.6899	2517.65	1633.1
965.3901	2377.0939	2506.9	1624.9
965.5209	2378.4973	2493.55	1611.85
965.6517	2379.9	2490.35	1607.35
965.7825	2381.3019	2485.9	1603.6
965.9132	2382.7032	2483	1603.5
966.0439	2384.1037	2477.95	1598.55
966.1745	2385.5035	2469	1590
966.3051	2386.9027	2466.2	1584.2
966.4357	2388.3011	2469.7	1587.35
966.5663	2389.6987	2460.7	1577.8
966.6968	2391.0957	2458.55	1579.8
966.8273	2392.492	2428.65	1549.6
966.9578	2393.8876	2434.55	1552.6
967.0882	2395.2824	2420.6	1541.55
967.2186	2396.6765	2418.05	1537.5
967.349	2398.07	2413.2	1531.95
967.4793	2399.4627	2418.4	1534.4
967.6097	2400.8547	2411.45	1530.85
967.7399	2402.246	2401.45	1512.8
967.8702	2403.6366	2403	1520.1
968.0004	2405.0265	2395.5	1515.05
968.1306	2406.4156	2390.6	1504.45
968.2607	2407.8041	2386.05	1500.55
968.3909	2409.1918	2381.45	1499.25
968.521	2410.5789	2374.85	1490.75
968.651	2411.9652	2377.1	1490.45
968.781	2413.3508	2360.65	1476.85
968.911	2414.7358	2363.5	1480
969.041	2416.12	2340.3	1459.6
969.1709	2417.5035	2352.65	1468.9
969.3008	2418.8863	2350.95	1467.45
969.4307	2420.2684	2331.35	1449.3
969.5606	2421.6497	2315.85	1432.45
969.6904	2423.0304	2324.25	1440.7
969.8201	2424.4104	2318.35	1432.7
969.9499	2425.7896	2321.5	1433.25
970.0796	2427.1682	2316.75	1434.8
970.2093	2428.546	2308.6	1425.2
970.3389	2429.9232	2305.05	1421.1
970.4685	2431.2996	2302	1419.35
970.5981	2432.6753	2303.9	1420.9
970.7277	2434.0503	2308.1	1423.85
970.8572	2435.4246	2286.05	1404.2
970.9867	2436.7982	2277.8	1392.45
971.1161	2438.1711	2269.35	1387.2
971.2456	2439.5433	2261.2	1377.75
971.375	2440.9148	2278.65	1390.05
971.5043	2442.2856	2261.65	1378.9
971.6336	2443.6557	2254.15	1367.3
971.7629	2445.025	2254.9	1370.9
971.8922	2446.3937	2245.25	1358.65
972.0214	2447.7617	2247.45	1363.8
972.1506	2449.1289	2246.9	1363.2
972.2798	2450.4955	2247.25	1361.45
972.4089	2451.8613	2235.1	1354.3
972.538	2453.2265	2229.65	1345.8
972.6671	2454.5909	2230.2	1346.65
972.7961	2455.9546	2213.3	1329.8
972.9251	2457.3177	2222.75	1341
973.0541	2458.68	2219.2	1334.95
973.1831	2460.0416	2216.95	1331.9
973.312	2461.4025	2211.9	1326.9
973.4408	2462.7627	2216.5	1320.7
973.5697	2464.1222	2200.4	1319.85
973.6985	2465.4811	2190.85	1310.2
973.8273	2466.8392	2199.9	1316.75
973.956	2468.1966	2195.7	1309.6
974.0847	2469.5533	2189.55	1305
974.2134	2470.9093	2179.6	1297.85
974.3421	2472.2645	2181.95	1297.9
974.4707	2473.6191	2181.15	1297.55
974.5993	2474.973	2175.7	1291.05
974.7278	2476.3262	2167.35	1281.7
974.8563	2477.6787	2174.2	1292.85
974.9848	2479.0305	2157.9	1275.3
975.1132	2480.3816	2148.15	1264.2
975.2417	2481.7319	2153.85	1270
975.37	2483.0816	2144.8	1259.75
975.4984	2484.4306	2149.15	1264
975.6267	2485.7789	2135.05	1253.2
975.755	2487.1264	2121.65	1238.65
975.8833	2488.4733	2115.35	1234.3
976.0115	2489.8195	2125.95	1236.4
976.1397	2491.165	2115.2	1230.2
976.2678	2492.5097	2110.25	1225.95
976.3959	2493.8538	2106.05	1220.95
976.524	2495.1972	2108.75	1224
976.6521	2496.5398	2105.95	1220.85
976.7801	2497.8818	2104.95	1219.65
976.9081	2499.2231	2089.95	1207.45
977.036	2500.5637	2082.35	1195.75
977.164	2501.9035	2088.9	1203.9
977.2918	2503.2427	2087.45	1200.3
977.4197	2504.5812	2072.85	1187.25
977.5475	2505.919	2074.75	1188.6
977.6753	2507.256	2073.5	1189.4
977.8031	2508.5924	2073.5	1189.5
977.9308	2509.9281	2073.1	1183.55
978.0585	2511.2631	2071.9	1188.3
978.1861	2512.5974	2066.25	1182.65
978.3137	2513.9309	2066.05	1181.3
978.4413	2515.2638	2079.25	1170.6
978.5689	2516.596	2053.5	1170.4
978.6964	2517.9275	2041.4	1154.75
978.8239	2519.2583	2032.5	1148.25
978.9513	2520.5884	2033.75	1149.5
979.0788	2521.9178	2024.1	1140.4
979.2062	2523.2465	2023.9	1142
979.3335	2524.5745	2028.55	1144.65
979.4608	2525.9018	2024.85	1140.5
979.5881	2527.2284	2019.85	1138.15
979.7154	2528.5543	2017.75	1137.55
979.8426	2529.8796	2010.8	1127.75
979.9698	2531.2041	2009.65	1126.4
980.0969	2532.5279	2000.6	1119.45
980.224	2533.851	2007.25	1123.7
980.3511	2535.1735	1994.35	1111.15
980.4781	2536.4952	1992.75	1107.1
980.6052	2537.8163	1985.85	1100.3
980.7321	2539.1366	1989.55	1107.85
980.8591	2540.4562	1994.45	1107.55
980.986	2541.7752	1994.05	1110.35
981.1129	2543.0935	1990.35	1103.6
981.2397	2544.411	1988.35	1103.7
981.3665	2545.7279	1979.35	1096.05
981.4933	2547.0441	1979.45	1096.25
981.62	2548.3596	1980.65	1091.95
981.7467	2549.6744	1973.9	1091.65
981.8734	2550.9885	1968.9	1081.35
982.0001	2552.3019	1955.5	1071.2
982.1267	2553.6146	1962.6	1077.95
982.2532	2554.9266	1961.2	1075.8
982.3798	2556.2379	1955	1070.6
982.5063	2557.5485	1952.5	1069.75
982.6327	2558.8585	1954.65	1062.3
982.7592	2560.1677	1953.65	1066.45
982.8856	2561.4762	1951.85	1066.8
983.0119	2562.7841	1948.2	1064.1
983.1383	2564.0913	1931.75	1050.3
983.2646	2565.3977	1935.1	1053.05
983.3908	2566.7035	1945.2	1060
983.517	2568.0086	1930.25	1043
983.6432	2569.313	1936.85	1050.4
983.7694	2570.6167	1933.95	1045.8
983.8955	2571.9197	1933.1	1046.5
984.0216	2573.222	1926.4	1039.05
984.1476	2574.5236	1923.65	1038.85
984.2737	2575.8246	1925.65	1041.15
984.3996	2577.1248	1917.4	1030.45
984.5256	2578.4244	1928.05	1045.1
984.6515	2579.7232	1916.4	1033.45
984.7774	2581.0214	1939.8	1021.35
984.9032	2582.3189	1921.45	1037.2
985.029	2583.6157	1914.4	1025
985.1548	2584.9118	1912.55	1027.95
985.2806	2586.2072	1908.15	1025
985.4063	2587.5019	1907	1021.95
985.5319	2588.7959	1915.1	1029.05
985.6576	2590.0893	1914.95	1027.7
985.7832	2591.3819	1905.05	1023.25
985.9087	2592.6739	1910.6	1027.75
986.0343	2593.9652	1909.7	1024.4
986.1597	2595.2557	1905.7	1022.35
986.2852	2596.5456	1904.85	1018.55
986.4106	2597.8348	1892.75	1009.25
986.536	2599.1234	1891.7	1008.35
986.6614	2600.4112	1899.85	1014.3
986.7867	2601.6983	1896.8	1009.95
986.912	2602.9848	1892.2	1007.2
987.0372	2604.2705	1896.75	1006.05
987.1624	2605.5556	1885.8	1004.4
987.2876	2606.84	1877.55	993.35
987.4128	2608.1237	1886.7	1000.6
987.5379	2609.4067	1880.7	998.85
987.6629	2610.689	1879.8	987.35
987.788	2611.9707	1871.4	984.95
987.913	2613.2516	1872.4	982.85
988.0379	2614.5319	1864.65	981.3
988.1629	2615.8115	1857.35	972.35
988.2878	2617.0903	1850.95	965.95
988.4126	2618.3685	1852.15	968.7
988.5375	2619.6461	1843.2	958.65
988.6622	2620.9229	1843.2	957.3
988.787	2622.199	1836.85	953.35
988.9117	2623.4745	1842.6	957.8
989.0364	2624.7493	1843.1	961.35
989.161	2626.0234	1843.1	960.95
989.2857	2627.2968	1836.7	953.9
989.4102	2628.5695	1826.6	942.95
989.5348	2629.8415	1817.6	934
989.6593	2631.1128	1825.65	942.25
989.7837	2632.3835	1823.9	941
989.9082	2633.6535	1830.55	948.25
990.0326	2634.9228	1815.8	934.1
990.1569	2636.1914	1814.05	930.45
990.2812	2637.4593	1819.8	932.3
990.4055	2638.7265	1816.95	931.1
990.5298	2639.9931	1810.45	927.45
990.654	2641.259	1814.6	931.9
990.7782	2642.5242	1811.1	928.9
990.9023	2643.7887	1801.05	917.9
991.0264	2645.0525	1797.5	913.3
991.1505	2646.3156	1790.8	906.4
991.2745	2647.5781	1784.9	903.35
991.3985	2648.8398	1777.1	894.35
991.5225	2650.1009	1789.95	899.5
991.6464	2651.3613	1795.7	913.1
991.7703	2652.6211	1781.8	899.7
991.8942	2653.8801	1775.15	893.2
992.018	2655.1385	1781.5	896
992.1418	2656.3961	1779.95	898.1
992.2655	2657.6531	1782.9	899.95
992.3892	2658.9094	1777.3	893.8
992.5129	2660.1651	1778.55	896.4
992.6366	2661.42	1768.1	883.8
992.7602	2662.6743	1771.85	888.75
992.8837	2663.9279	1774.55	892.7
993.0073	2665.1808	1769.4	885.5
993.1307	2666.433	1782.15	896.55
993.2542	2667.6846	1770.35	887.5
993.3776	2668.9354	1772.85	887.65
993.501	2670.1856	1767.15	882.8
993.6244	2671.4351	1772.55	890.85
993.7477	2672.6839	1784.2	902.05
993.8709	2673.9321	1764.65	884.2
993.9942	2675.1795	1776.85	893.7
994.1174	2676.4263	1776.3	892.75
994.2405	2677.6724	1771.35	890.35
994.3637	2678.9179	1777.5	894.25
994.4868	2680.1626	1775.85	893.35
994.6098	2681.4067	1772.65	890.05
994.7328	2682.6501	1770.55	886.35
994.8558	2683.8928	1767.8	886.35
994.9788	2685.1348	1756.4	872.3
995.1017	2686.3761	1758.6	876.55
995.2245	2687.6168	1755.5	871.9
995.3474	2688.8568	1750.8	870.35
995.4702	2690.0961	1742.95	863.15
995.5929	2691.3348	1744.95	862.3
995.7156	2692.5727	1737.25	852.2
995.8383	2693.81	1733.05	851.3
995.961	2695.0466	1721.1	840.55
996.0836	2696.2826	1734.5	850.25
996.2062	2697.5178	1738.8	853.85
996.3287	2698.7524	1734.8	849.7
996.4512	2699.9863	1732.5	847.35
996.5737	2701.2195	1727.45	845.6
996.6961	2702.452	1727.6	843.05
996.8185	2703.6839	1732.1	848.4
996.9408	2704.9151	1735.55	853.85
997.0631	2706.1456	1745.05	861.95
997.1854	2707.3755	1743.9	860.55
997.3077	2708.6046	1761.4	878.1
997.4299	2709.8331	1754.05	873.5
997.552	2711.0609	1765.35	880.85
997.6742	2712.2881	1766.05	883.65
997.7963	2713.5145	1774.9	891.15
997.9183	2714.7403	1780.6	899.3
998.0403	2715.9654	1794.55	911.75
998.1623	2717.1899	1812.9	916.4
998.2842	2718.4136	1811.35	931.4
998.4062	2719.6367	1817.55	934.5
998.528	2720.8591	1841.15	953.05
998.6498	2722.0809	1834.65	951.95
998.7716	2723.3019	1849.85	965.75
998.8934	2724.5223	1854.1	969.75
999.0151	2725.7421	1852.65	970.25
999.1368	2726.9611	1867.45	982.45
999.2584	2728.1795	1859.1	971.7
999.38	2729.3972	1856.95	975.35
999.5016	2730.6142	1847.5	951.85
999.6231	2731.8306	1826.85	944.55
999.7446	2733.0462	1811.75	927.4
999.8661	2734.2612	1785.85	898.2
999.9875	2735.4756	1769.8	886.3
1000.1089	2736.6892	1752.6	870.5
1000.2302	2737.9022	1740.4	858.45
1000.3515	2739.1145	1731.85	848
1000.4728	2740.3262	1712.15	820.85
1000.594	2741.5372	1702.6	821.2
1000.7152	2742.7475	1691.35	808.7
1000.8363	2743.9571	1676.3	793.45
1000.9575	2745.1661	1665.45	778.8
1001.0785	2746.3744	1653.55	769.35
1001.1996	2747.582	1653.9	772.35
1001.3206	2748.7889	1643.35	759.7
1001.4415	2749.9952	1628.5	748.4
1001.5625	2751.2008	1626.3	745.1
1001.6833	2752.4057	1621.8	736.85
1001.8042	2753.61	1618.65	738.1
1001.925	2754.8136	1618.55	735.25
1002.0458	2756.0165	1611.8	729.8
1002.1665	2757.2188	1608.85	727.05
1002.2872	2758.4204	1609.55	730.55
1002.4078	2759.6213	1606.7	724.7
1002.5285	2760.8215	1609.65	724.3
1002.649	2762.0211	1597.85	713.05
1002.7696	2763.22	1598.3	713.85
1002.8901	2764.4182	1598.75	715
1003.0106	2765.6158	1594.8	713.45
1003.131	2766.8127	1586.5	705.85
1003.2514	2768.009	1588.45	705.75
1003.3717	2769.2045	1578.1	697.9
1003.492	2770.3994	1585.35	701.95
1003.6123	2771.5936	1572.3	690.25
1003.7325	2772.7872	1576.4	694.15
1003.8527	2773.9801	1578.5	695.75
1003.9729	2775.1723	1582	686.6
1004.093	2776.3639	1574.55	694.3
1004.2131	2777.5548	1570	688
1004.3331	2778.745	1572.8	693.25
1004.4531	2779.9346	1570.4	688.65
1004.5731	2781.1235	1570.35	690.25
1004.693	2782.3117	1576.85	696.25
1004.8129	2783.4992	1573.05	694.95
1004.9328	2784.6861	1567.2	686.4
1005.0526	2785.8723	1581.3	698.45
1005.1723	2787.0579	1579.35	699.35
1005.2921	2788.2428	1583.25	701.4
1005.4118	2789.427	1595.85	717.3
1005.5314	2790.6106	1607.75	729.4
1005.651	2791.7935	1612.8	731.05
1005.7706	2792.9757	1618.7	741.2
1005.8902	2794.1573	1623.3	740.4
1006.0097	2795.3382	1637.85	757.05
1006.1291	2796.5184	1648.95	769.65
1006.2485	2797.698	1663.25	780.05
1006.3679	2798.8769	1676.1	795.7
1006.4873	2800.0551	1696.45	814.2
1006.6066	2801.2327	1706.8	823.1
1006.7258	2802.4096	1728.2	850.3
1006.8451	2803.5859	1740.85	859.7
1006.9642	2804.7615	1757.25	877.05
1007.0834	2805.9364	1785.85	906.75
1007.2025	2807.1106	1795.7	917.1
1007.3216	2808.2842	1827.75	946.3
1007.4406	2809.4572	1859.3	977.95
1007.5596	2810.6294	1903.7	1024.05
1007.6785	2811.801	1930.2	1049.4
1007.7975	2812.972	1960.15	1079.85
1007.9163	2814.1423	2017.8	1137.35
1008.0352	2815.3119	2061.15	1181.15
1008.154	2816.4808	2099.4	1221.9
1008.2727	2817.6491	2142.6	1261.05
1008.3914	2818.8167	2202.35	1322.9
1008.5101	2819.9837	2247.1	1364.55
1008.6288	2821.15	2292.6	1412.6
1008.7474	2822.3157	2348.3	1471.5
1008.8659	2823.4807	2400.2	1520.2
1008.9844	2824.645	2442.6	1563.05
1009.1029	2825.8086	2497.5	1619.5
1009.2214	2826.9716	2530.4	1650.7
1009.3398	2828.134	2582.55	1703.45
1009.4581	2829.2957	2622.15	1743.8
1009.5764	2830.4567	2648.25	1767.75
1009.6947	2831.617	2665.7	1786.05
1009.813	2832.7767	2673.3	1795.15
1009.9312	2833.9358	2667.25	1791.6
1010.0493	2835.0941	2682.55	1800.85
1010.1675	2836.2519	2666.8	1788.45
1010.2855	2837.4089	2654.1	1774.45
1010.4036	2838.5653	2640.75	1760.15
1010.5216	2839.7211	2637.1	1758
1010.6396	2840.8761	2637.75	1755.45
1010.7575	2842.0306	2668	1789.2
1010.8754	2843.1843	2692.4	1810.5
1010.9932	2844.3374	2738	1858
1011.111	2845.4899	2795	1912.9
1011.2288	2846.6417	2858.1	1978.1
1011.3465	2847.7928	2931.2	2051.4
1011.4642	2848.9433	2995.4	2117.95
1011.5818	2850.0931	3063.9	2182.55
1011.6995	2851.2422	3141.2	2258.2
1011.817	2852.3907	3202.7	2320.9
1011.9345	2853.5385	3278.75	2396.6
1012.052	2854.6857	3334.15	2428.55
1012.1695	2855.8323	3382	2504.3
1012.2869	2856.9781	3433.15	2552.1
1012.4042	2858.1233	3486.2	2606.1
1012.5216	2859.2679	3520.5	2640.8
1012.6389	2860.4118	3569.65	2692.25
1012.7561	2861.555	3601.9	2716.9
1012.8733	2862.6976	3636.95	2756.95
1012.9905	2863.8395	3659.15	2781.15
1013.1076	2864.9808	3696	2816.95
1013.2247	2866.1214	3722.35	2844.45
1013.3417	2867.2614	3737.35	2855.3
1013.4587	2868.4007	3742.75	2860.05
1013.5757	2869.5393	3745.2	2862.25
1013.6926	2870.6773	3769	2885.3
1013.8095	2871.8146	3786.35	2901.75
1013.9263	2872.9513	3787.55	2907
1014.0431	2874.0874	3774.9	2895.45
1014.1599	2875.2227	3778.15	2897.65
1014.2766	2876.3574	3742.3	2864.1
1014.3933	2877.4915	3726.2	2847.4
1014.51	2878.6249	3701.85	2824.6
1014.6266	2879.7577	3669.35	2788.6
1014.7431	2880.8898	3669.85	2780.9
1014.8596	2882.0212	3647.85	2770.25
1014.9761	2883.152	3629.1	2749.6
1015.0925	2884.2821	3617.95	2739.2
1015.2089	2885.4116	3608.4	2730.55
1015.3253	2886.5405	3604.2	2726.8
1015.4416	2887.6686	3606.15	2724.3
1015.5579	2888.7962	3622.85	2746.4
1015.6741	2889.923	3631.25	2753.95
1015.7903	2891.0493	3626.45	2750.5
1015.9065	2892.1748	3642.45	2763.9
1016.0226	2893.2997	3646.85	2767.6
1016.1387	2894.424	3667.9	2790.5
1016.2547	2895.5476	3685.65	2805.75
1016.3707	2896.6706	3719.1	2844
1016.4866	2897.7929	3731.7	2851.9
1016.6025	2898.9145	3767.05	2889.45
1016.7184	2900.0355	3802.55	2922.35
1016.8342	2901.1559	3834.2	2955.75
1016.95	2902.2756	3864.95	2986.55
1017.0658	2903.3946	3896.9	3019.55
1017.1815	2904.513	3903.25	3023.35
1017.2971	2905.6308	3937.45	3056.35
1017.4127	2906.7479	3962.1	3084.25
1017.5283	2907.8643	3981.5	3101.85
1017.6439	2908.9801	3988.25	3110.7
1017.7594	2910.0953	4014.1	3134.8
1017.8748	2911.2098	4008	3125.85
1017.9902	2912.3236	4010.8	3124.4
1018.1056	2913.4368	3998.55	3116.85
1018.2209	2914.5494	3965.55	3088.15
1018.3362	2915.6613	3943.2	3056.95
1018.4515	2916.7725	3906.95	3025.55
1018.5667	2917.8831	3879.1	3001.1
1018.6819	2918.9931	3856.15	2975.7
1018.797	2920.1024	3835.9	2958
1018.9121	2921.211	3802.15	2923.45
1019.0271	2922.319	3788.6	2911.05
1019.1421	2923.4264	3762.75	2884.45
1019.2571	2924.5331	3747.85	2869.95
1019.372	2925.6391	3746.55	2867.6
1019.4869	2926.7445	3736.4	2860.05
1019.6017	2927.8493	3725.45	2847.35
1019.7165	2928.9534	3724.15	2846.2
1019.8313	2930.0569	3716.6	2835.4
1019.946	2931.1597	3714.55	2835.8
1020.0606	2932.2619	3712.65	2833.05
1020.1753	2933.3634	3720.2	2844.7
1020.2899	2934.4643	3717.4	2836
1020.4044	2935.5645	3694.5	2808.8
1020.5189	2936.6641	3660.3	2777.9
1020.6334	2937.763	3618.3	2741.05
1020.7478	2938.8613	3559.5	2681.85
1020.8622	2939.959	3527.5	2644.25
1020.9765	2941.056	3437.25	2559.3
1021.0908	2942.1523	3362.8	2485.5
1021.2051	2943.248	3274.8	2397.75
1021.3193	2944.3431	3186.3	2308.85
1021.4334	2945.4375	3090.5	2212.1
1021.5476	2946.5313	2983.8	2105.25
1021.6617	2947.6244	2887.25	2010.7
1021.7757	2948.7169	2793.1	1913.95
1021.8897	2949.8087	2685.75	1808.15
1022.0037	2950.8999	2599.3	1722.45
1022.1176	2951.9904	2522.3	1645.65
1022.2315	2953.0803	2448	1571.05
1022.3453	2954.1696	2384.35	1507.3
1022.4591	2955.2582	2330.4	1454.15
1022.5728	2956.3462	2277.9	1402.8
1022.6865	2957.4335	2240	1360.55
1022.8002	2958.5202	2206.55	1326.2
1022.9138	2959.6062	2185.1	1306.9
1023.0274	2960.6916	2167.7	1289.3
1023.141	2961.7764	2138.45	1260.75
1023.2545	2962.8605	2125.05	1247.15
1023.3679	2963.9439	2111.9	1236.25
1023.4813	2965.0267	2097.85	1218.7
1023.5947	2966.1089	2116.15	1217.5
1023.708	2967.1905	2079.7	1202.7
1023.8213	2968.2714	2077.9	1199.8
1023.9346	2969.3516	2074.4	1197.15
1024.0478	2970.4312	2092.95	1207.1
1024.1609	2971.5102	2081.3	1204.4
1024.274	2972.5885	2079.75	1202
1024.3871	2973.6662	2078.05	1195.65
1024.5002	2974.7432	2079.65	1206.15
1024.6132	2975.8196	2068.7	1190.45
1024.7261	2976.8954	2058.75	1182.45
1024.839	2977.9705	2054.5	1175.1
1024.9519	2979.045	2038.1	1162.7
1025.0647	2980.1188	2025.85	1149.25
1025.1775	2981.192	1999.65	1126.5
1025.2902	2982.2645	1987.6	1109.65
1025.4029	2983.3364	1960.05	1082.1
1025.5156	2984.4077	1936.95	1061.6
1025.6282	2985.4783	1906.85	1024.75
1025.7407	2986.5483	1876.9	1001.3
1025.8532	2987.6177	1845.3	969.25
1025.9657	2988.6864	1815.35	937.95
1026.0782	2989.7545	1776.25	900.6
1026.1906	2990.8219	1734	860.2
1026.3029	2991.8887	1702.9	825.75
1026.4152	2992.9548	1683.05	804.25
1026.5275	2994.0204	1645.4	771.15
1026.6397	2995.0852	1616	740.55
1026.7519	2996.1495	1592.55	714.5
1026.864	2997.2131	1557.05	679.8
1026.9761	2998.276	1541.3	663.05
1027.0882	2999.3383	1518.3	640.4
1027.2002	3000.4	1499.65	623.2
1027.3122	3001.4611	1486.7	610.2
1027.4241	3002.5215	1473.6	596.5
1027.536	3003.5812	1448.8	570.7
1027.6478	3004.6404	1441	565.55
1027.7596	3005.6989	1435	555.3
1027.8714	3006.7567	1419.45	540.55
1027.9831	3007.8139	1449.25	540.1
1028.0947	3008.8705	1396.2	520.7
1028.2064	3009.9264	1397.15	514.95
1028.3179	3010.9818	1389.15	513.55
1028.4295	3012.0364	1395.5	520.9
1028.541	3013.0905	1379.45	502
1028.6524	3014.1439	1380.1	503.85
1028.7638	3015.1966	1373.6	498.85
1028.8752	3016.2487	1372.25	496.2
1028.9865	3017.3002	1375.3	494.4
1029.0978	3018.3511	1373.7	500.6
1029.209	3019.4013	1370.5	495.25
1029.3202	3020.4509	1370.75	494.85
1029.4314	3021.4998	1360.85	483.7
1029.5425	3022.5481	1364.1	486.45
1029.6535	3023.5958	1362.75	486.95
1029.7645	3024.6428	1364.1	485.7
1029.8755	3025.6892	1363.55	488.15
1029.9864	3026.735	1359.65	485.05
1030.0973	3027.7802	1366.9	491.5
1030.2082	3028.8247	1371.85	494.85
1030.319	3029.8685	1375.15	497.75
1030.4297	3030.9118	1371.6	494.95
1030.5404	3031.9544	1376.15	500.75
1030.6511	3032.9963	1369.7	493.5
1030.7617	3034.0376	1382.7	506.35
1030.8723	3035.0783	1385.2	507.45
1030.9829	3036.1184	1390.5	510.7
1031.0934	3037.1578	1390.85	517.15
1031.2038	3038.1966	1400.6	522.65
1031.3142	3039.2348	1388.35	513.6
1031.4246	3040.2723	1408.35	522.7
1031.5349	3041.3092	1396.35	523.3
1031.6452	3042.3455	1388.7	510.95
1031.7554	3043.3811	1386.75	508
1031.8656	3044.4161	1380.4	501.15
1031.9758	3045.4505	1378.05	503.55
1032.0859	3046.4842	1374.05	495.35
1032.1959	3047.5173	1363.85	490.6
1032.3059	3048.5498	1362.3	486.85
1032.4159	3049.5816	1355.65	479.5
1032.5258	3050.6128	1352.2	478.1
1032.6357	3051.6434	1351.35	472.7
1032.7455	3052.6734	1337.95	461.5
1032.8553	3053.7027	1333.15	459.45
1032.9651	3054.7314	1325.25	447.75
1033.0748	3055.7594	1316.85	438.75
1033.1845	3056.7868	1323.2	444.4
1033.2941	3057.8136	1316.2	441.35
1033.4037	3058.8398	1309.1	435.35
1033.5132	3059.8653	1303.3	427.35
1033.6227	3060.8902	1304.65	428.25
1033.7321	3061.9145	1302.25	427.4
1033.8415	3062.9381	1300.8	426.05
1033.9509	3063.9612	1307.3	418
1034.0602	3064.9835	1291.1	414.8
1034.1694	3066.0053	1284.9	406.8
1034.2787	3067.0264	1276.4	400.45
1034.3878	3068.0469	1266.1	390.15
1034.497	3069.0668	1265.3	386.8
1034.6061	3070.086	1250.2	373.3
1034.7151	3071.1046	1252.9	376.95
1034.8241	3072.1226	1241.6	364.65
1034.9331	3073.1399	1231.8	356.9
1035.042	3074.1567	1223.05	346.75
1035.1508	3075.1727	1218.9	342.95
1035.2597	3076.1882	1205.8	329.8
1035.3684	3077.203	1190.15	314.35
1035.4772	3078.2173	1193.1	316.65
1035.5859	3079.2308	1189.15	311.4
1035.6945	3080.2438	1178.25	301.9
1035.8031	3081.2561	1167.6	292.05
1035.9117	3082.2678	1165.4	288.5
1036.0202	3083.2789	1157.2	280
1036.1286	3084.2893	1148.75	273.15
1036.2371	3085.2991	1143.15	267.4
1036.3454	3086.3083	1146.5	267.7
1036.4538	3087.3169	1135.8	258.35
1036.562	3088.3248	1128.75	252.05
1036.6703	3089.3321	1124.35	244.7
1036.7785	3090.3388	1122.65	247.15
1036.8866	3091.3449	1116.3	239.3
1036.9948	3092.3503	1119.95	242.4
1037.1028	3093.3551	1108.7	235.8
1037.2108	3094.3593	1101.5	226.65
1037.3188	3095.3629	1097.9	223.15
1037.4267	3096.3658	1098.65	220.7
1037.5346	3097.3681	1095.5	220.65
1037.6425	3098.3698	1095.75	218.85
1037.7503	3099.3708	1090.35	209.35
1037.858	3100.3713	1085.95	211.05
1037.9657	3101.3711	1086.75	209.9
1038.0734	3102.3702	1215.65	205.95
1038.181	3103.3688	1081.4	203.35
1038.2886	3104.3667	1074.25	200.2
1038.3961	3105.364	1075.95	199.75
1038.5036	3106.3607	1072.9	195.25
1038.611	3107.3568	1076.35	200.2
1038.7184	3108.3522	1070.2	196.55
1038.8257	3109.347	1069.8	192.15
1038.933	3110.3412	1072	192.8
1039.0403	3111.3348	1069.2	196.8
1039.1475	3112.3277	1061.75	185.65
1039.2547	3113.32	1059.55	185.1
1039.3618	3114.3117	1058.6	181.3
1039.4689	3115.3028	1059.25	185.25
1039.5759	3116.2932	1057.6	180.75
1039.6829	3117.2831	1055.85	174
1039.7898	3118.2723	1048.8	174.1
1039.8967	3119.2608	1050.25	175.1
1040.0035	3120.2488	1051.75	175.15
1040.1103	3121.2361	1046.2	169.15
1040.2171	3122.2229	1045.05	172.05
1040.3238	3123.209	1045.15	166.9
1040.4305	3124.1944	1044.6	169.2
1040.5371	3125.1793	1043.45	167.3
1040.6437	3126.1635	1039.05	165.2
1040.7502	3127.1471	1041.7	169.75
1040.8567	3128.1301	1037.65	163.05
1040.9631	3129.1125	1034.25	157.6
1041.0695	3130.0942	1035	160.2
1041.1759	3131.0753	1040.6	157.3
1041.2822	3132.0558	1039.45	161.8
1041.3884	3133.0357	1032.85	156.1
1041.4946	3134.015	1037.05	161.9
1041.6008	3134.9936	1031.1	154.2
1041.7069	3135.9716	1045.5	150.9
1041.813	3136.949	1025.35	149.6
1041.919	3137.9258	1044	150.35
1042.025	3138.902	1028.5	148.85
1042.1309	3139.8775	1024.5	149.65
1042.2368	3140.8524	1021.65	144.95
1042.3427	3141.8267	1024.85	148.4
1042.4485	3142.8004	1022.3	148.25
1042.5542	3143.7735	1025	145.05
1042.6599	3144.7459	1016.6	139.9
1042.7656	3145.7178	1017.9	143.85
1042.8712	3146.689	1011.15	136.55
1042.9768	3147.6596	1016.65	141.2
1043.0823	3148.6295	1014.3	139.45
1043.1878	3149.5989	1015	140
1043.2932	3150.5676	1013.45	139.65
1043.3986	3151.5357	1012.5	139.85
1043.5039	3152.5032	1010.85	136.65
1043.6092	3153.4701	1007.4	132.25
1043.7145	3154.4364	1007.75	129.5
1043.8197	3155.402	1002.05	128.55
1043.9248	3156.367	1010.05	135.05
1044.03	3157.3315	1034.25	132.4
1044.135	3158.2952	1001.45	126.3
1044.24	3159.2584	1000.5	126.1
1044.345	3160.221	1001.1	126.25
1044.4499	3161.1829	999.9	124.7
1044.5548	3162.1442	999.95	127.35
1044.6596	3163.105	1001.9	128.8
1044.7644	3164.065	1001.75	126.05
1044.8692	3165.0245	1001.65	126.85
1044.9739	3165.9834	994.8	119.95
1045.0785	3166.9416	995.55	121.4
1045.1831	3167.8993	999.95	126.05
1045.2877	3168.8563	996.7	120.95
1045.3922	3169.8127	991.9	118.55
1045.4966	3170.7684	992.05	117.85
1045.6011	3171.7236	994.4	118.4
1045.7054	3172.6782	994	119.8
1045.8098	3173.6321	994.5	119.25
1045.914	3174.5854	991.5	112.1
1046.0183	3175.5381	986.45	112.75
1046.1224	3176.4902	985.75	112
1046.2266	3177.4417	985.85	110.65
1046.3307	3178.3926	984.1	109.35
1046.4347	3179.3428	983.25	111.75
1046.5387	3180.2924	983.8	110
1046.6427	3181.2415	986.15	110.2
1046.7466	3182.1899	986.2	110.35
1046.8504	3183.1377	985.6	110.6
1046.9542	3184.0848	985.8	107.75
1047.058	3185.0314	982.05	108.25
1047.1617	3185.9773	980.65	105.4
1047.2654	3186.9227	982.1	107.95
1047.369	3187.8674	978.65	104.9
1047.4726	3188.8115	983.25	104.5
1047.5761	3189.755	977.4	102.6
1047.6796	3190.6979	975.9	99.5
1047.783	3191.6402	975	101
1047.8864	3192.5818	979.6	104.7
1047.9898	3193.5229	995.2	103.7
1048.0931	3194.4633	975.9	103.7
1048.1963	3195.4031	974.1	99.65
1048.2995	3196.3423	970.4	96.3
1048.4027	3197.2809	974.9	99.9
1048.5058	3198.2189	974.05	98.45
1048.6089	3199.1563	979.75	100.4
1048.7119	3200.0931	975.8	102
1048.8148	3201.0292	972.3	100.45
1048.9178	3201.9648	965.8	91.85
1049.0206	3202.8997	975.35	96.65
1049.1235	3203.834	967.6	93
1049.2262	3204.7677	968.95	94.8
1049.329	3205.7008	969.8	91.45
1049.4317	3206.6333	966.3	92.55
1049.5343	3207.5652	971.75	94.75
1049.6369	3208.4964	967.75	94.7
1049.7394	3209.4271	968.15	95.3
1049.8419	3210.3571	965.8	93.2
1049.9444	3211.2865	967.7	93.2
1050.0468	3212.2154	968.75	94.35
1050.1491	3213.1436	966.25	89.25
1050.2514	3214.0712	968.55	88.05
1050.3537	3214.9982	966.5	92.85
1050.4559	3215.9246	961.75	86.55
1050.5581	3216.8503	962.15	89.2
1050.6602	3217.7755	961.45	88.85
1050.7623	3218.7001	964.4	91.85
1050.8643	3219.624	963.15	91.15
1050.9663	3220.5473	959	86.2
1051.0682	3221.4701	960.65	83.9
1051.1701	3222.3922	962.3	86.95
1051.2719	3223.3137	960.8	86.4
1051.3737	3224.2346	958.6	85.3
1051.4754	3225.1549	960.2	86.75
1051.5771	3226.0746	958.9	85.35
1051.6788	3226.9937	958.9	83.65
1051.7804	3227.9121	954.75	80.35
1051.8819	3228.83	959	86.75
1051.9834	3229.7473	958.25	84.85
1052.0849	3230.6639	958.65	86
1052.1863	3231.5799	955.4	81.7
1052.2876	3232.4954	956.7	82.3
1052.3889	3233.4102	954.25	79.9
1052.4902	3234.3244	955.75	81.15
1052.5914	3235.238	953.75	78.85
1052.6926	3236.151	974.5	76.25
1052.7937	3237.0634	951.55	79.5
1052.8948	3237.9752	948.55	75.3
1052.9958	3238.8864	951	77.45
1053.0968	3239.797	948.2	75.15
1053.1977	3240.7069	950.35	75.65
1053.2986	3241.6163	950.7	77.25
1053.3994	3242.5251	949.5	76.1
1053.5002	3243.4332	948.6	77
1053.6009	3244.3408	947	72.35
1053.7016	3245.2477	948.4	76
1053.8022	3246.154	946.95	72.6
1053.9028	3247.0598	947.2	71.05
1054.0034	3247.9649	946.45	73.1
1054.1039	3248.8694	948.45	73.8
1054.2043	3249.7733	947.2	73.25
1054.3047	3250.6766	947.1	74.55
1054.4051	3251.5793	945.65	71.85
1054.5054	3252.4814	940.45	68.25
1054.6056	3253.3829	940.5	68
1054.7058	3254.2838	941.95	67.75
1054.806	3255.1841	938.15	65.55
1054.9061	3256.0838	939.1	64.55
1055.0061	3256.9829	937.55	64.5
1055.1062	3257.8814	939	64.15
1055.2061	3258.7792	940	65
1055.306	3259.6765	940.55	66.6
1055.4059	3260.5731	937.6	65.3
1055.5057	3261.4692	938.35	63.6
1055.6055	3262.3647	935.55	60.65
1055.7052	3263.2595	934.2	60.35
1055.8049	3264.1538	934.65	62.25
1055.9045	3265.0474	932.7	57.4
1056.0041	3265.9404	931.6	59.45
1056.1036	3266.8329	927.75	55.9
1056.2031	3267.7247	939.25	55.4
1056.3025	3268.616	924.9	52.4
1056.4019	3269.5066	923.85	51.4
1056.5013	3270.3966	925.7	50.75
1056.6005	3271.286	919.9	47.8
