Software Version:	3.9.2.0
Unit SN:	10000200
Spectrometer SN:	6960
Date:	3/8/2024 11:08:36 AM
Data Line Index:	25
Spectral Points:	2048
Integration time (ms):	125
Averages:	20
Delay (ms):	30000
Sequence Number:	1
Processing:	dark subtract
Laser Power (mW):	305
Laser Current (mA):	818
Laser Diode Temp (C):	25.1
Laser Case Temp (C):	24.3
System Temp (C):	24.2
Spectrometer Temp (C):	22.3
CCD Temp (C):	0.01
Secondary Temp (C):	20.008
Heatsink Temp (C):	19
CCDPCB Temp (C):	32.628
SecondaryPCB Temp (C):	25.991

Wavelength	RamanShift	Raw Counts	Dark Subtracted
787.061	30.1047	435.6	24.25
787.2016	32.3739	436.7	26.25
787.3422	34.6426	438.2	28.45
787.4828	36.9109	441.6	29.65
787.6235	39.1787	446.8	32.35
787.7642	41.4461	452.3	33.35
787.9049	43.7131	460.5	38.5
788.0456	45.9796	463.95	37.45
788.1863	48.2456	468.4	37.65
788.3271	50.5112	478	42.3
788.4679	52.7764	481.4	42.95
788.6087	55.0411	491.75	50.8
788.7496	57.3054	500.05	53.85
788.8904	59.5692	505.1	58
789.0313	61.8326	509.65	61.55
789.1722	64.0955	518.8	67.1
789.3132	66.3579	532.6	74.9
789.4541	68.6199	542.95	79.25
789.5951	70.8815	566.45	99.25
789.7361	73.1426	612.4	141.85
789.8771	75.4032	724.4	252.6
790.0181	77.6634	1002.25	527.4
790.1592	79.9231	1651.3	1173
790.3003	82.1824	2972.4	2492.6
790.4414	84.4412	5224.45	4737.8
790.5825	86.6995	8162.95	7671.35
790.7237	88.9574	10940.4	10443
790.8648	91.2148	12868.35	12366.35
791.006	93.4717	13761.6	13255.45
791.1472	95.7282	14005.8	13498.4
791.2885	97.9842	13998.6	13490.2
791.4297	100.2398	13842.9	13333.3
791.571	102.4949	13663.95	13151.2
791.7123	104.7495	13523.9	13009
791.8536	107.0036	13313.7	12795.75
791.9949	109.2573	13125.35	12607.2
792.1363	111.5105	12912.45	12392.95
792.2777	113.7632	12615.2	12095.45
792.4191	116.0154	12277.25	11743.1
792.5605	118.2672	11926.05	11400.95
792.7019	120.5185	11514.95	10987.4
792.8434	122.7693	11142.35	10608.95
792.9849	125.0197	10816	10279.7
793.1264	127.2696	10511.75	9971.8
793.2679	129.519	10320.1	9777.25
793.4094	131.7679	10186.45	9643.65
793.551	134.0163	10104.85	9558.75
793.6926	136.2642	10055.5	9504.05
793.8342	138.5117	10025.1	9471.85
793.9758	140.7587	9980.45	9425.7
794.1175	143.0052	9847.1	9291.35
794.2591	145.2512	9681.65	9124.25
794.4008	147.4967	9466.9	8905.35
794.5425	149.7417	9277.2	8714
794.6842	151.9863	9111.9	8543.95
794.826	154.2304	9035.55	8466.5
794.9677	156.4739	8993.6	8417.35
795.1095	158.717	9036.95	8461
795.2513	160.9596	9111.05	8529.75
795.3931	163.2017	9254.55	8671.35
795.535	165.4433	9343.45	8759.15
795.6768	167.6844	9364.15	8775.8
795.8187	169.925	9270.25	8679.8
795.9606	172.1651	9092	8496.15
796.1025	174.4047	8908	8308.15
796.2445	176.6439	8730.15	8130.75
796.3864	178.8825	8599.75	7997.25
796.5284	181.1206	8521.7	7916
796.6704	183.3582	8477.5	7865.6
796.8124	185.5954	8442.75	7830
796.9544	187.832	8421.5	7805.85
797.0965	190.0681	8440.75	7822.55
797.2386	192.3037	8454.85	7833.8
797.3806	194.5388	8458.85	7834.15
797.5228	196.7734	8510.95	7885.1
797.6649	199.0075	8538.85	7912.7
797.807	201.2411	8623.8	7996.45
797.9492	203.4742	8693.75	8061.25
798.0914	205.7068	8811.15	8174.75
798.2336	207.9389	8878.05	8241.35
798.3758	210.1704	8960.95	8333.25
798.518	212.4015	8985.6	8369.3
798.6603	214.632	8982.95	8368.8
798.8025	216.862	9008.25	8395.85
798.9448	219.0915	9034.75	8420.95
799.0871	221.3205	9100.75	8482.9
799.2294	223.549	9152.05	8541.1
799.3718	225.777	9158.75	8542.5
799.5141	228.0044	9160	8535.9
799.6565	230.2314	9125.95	8499.6
799.7989	232.4578	9088.25	8459.05
799.9413	234.6837	9041.05	8403.8
800.0837	236.909	8991	8352.1
800.2262	239.1339	8905.5	8240.9
800.3687	241.3582	8902.85	8253.65
800.5111	243.582	8888.1	8208.5
800.6536	245.8053	8911.2	8245.65
800.7961	248.0281	8928.2	8266.75
800.9387	250.2503	8946.75	8282.6
801.0812	252.472	8957.25	8293.8
801.2238	254.6932	8990.95	8325.7
801.3664	256.9139	8974.4	8306.9
801.509	259.134	9017.35	8346.85
801.6516	261.3536	9087	8417.8
801.7942	263.5727	9211.2	8542.5
801.9369	265.7912	9348.75	8676.35
802.0795	268.0092	9615.95	8946.7
802.2222	270.2267	9870.7	9198.65
802.3649	272.4436	10034.75	9359.4
802.5076	274.6601	10205.6	9521.75
802.6504	276.8759	10273.7	9593
802.7931	279.0913	10377.3	9695.85
802.9359	281.3061	10430.55	9748.1
803.0787	283.5204	10537.2	9854.75
803.2215	285.7341	10648	9961.2
803.3643	287.9473	10754.85	10066.25
803.5071	290.16	10734.45	10043.7
803.6499	292.3721	10575.35	9889.1
803.7928	294.5837	10345.65	9659.85
803.9357	296.7947	10195.25	9507.85
804.0786	299.0052	10118.7	9430.3
804.2215	301.2152	10030.2	9338.25
804.3644	303.4246	10004.15	9315.75
804.5074	305.6334	9974.7	9285.55
804.6503	307.8418	9943.1	9249.25
804.7933	310.0495	9873.2	9177.3
804.9363	312.2568	9756.55	9061.7
805.0793	314.4635	9600.5	8902.1
805.2223	316.6696	9379	8678.1
805.3653	318.8752	9192.5	8484.9
805.5084	321.0802	9038	8335.65
805.6514	323.2847	9004	8298.8
805.7945	325.4887	8983.6	8278.6
805.9376	327.692	9042.1	8335
806.0807	329.8949	9212.95	8506.5
806.2238	332.0972	9380.45	8670.55
806.367	334.2989	9590.7	8879.7
806.5101	336.5001	9615.05	8902.55
806.6533	338.7007	9524.3	8812.9
806.7965	340.9008	9371.05	8657.75
806.9397	343.1003	9093.15	8377.75
807.0829	345.2992	8838.85	8121.4
807.2261	347.4976	8665.35	7945.8
807.3693	349.6955	8506.3	7784.15
807.5126	351.8927	8407.7	7684.65
807.6559	354.0895	8335.95	7600.35
807.7991	356.2856	8296.5	7570.8
807.9424	358.4812	8255.3	7529.5
808.0857	360.6763	8241.8	7513.45
808.2291	362.8707	8178.7	7448.7
808.3724	365.0646	8175.25	7441.2
808.5158	367.258	8206.7	7472.05
808.6591	369.4508	8250.25	7509.5
808.8025	371.643	8374.5	7638.7
808.9459	373.8346	8469.85	7731.1
809.0893	376.0257	8622.5	7880.65
809.2327	378.2162	8726.85	7986.9
809.3762	380.4062	8824.05	8082.15
809.5196	382.5956	8737.5	7996.95
809.6631	384.7844	8591.7	7855.75
809.8066	386.9726	8404.8	7668.75
809.9501	389.1603	8248.2	7514.1
810.0936	391.3474	8171.95	7396.95
810.2371	393.5339	8147.4	7409.9
810.3806	395.7199	8130.6	7397.35
810.5241	397.9052	8250.7	7516
810.6677	400.09	8410.95	7673.3
810.8113	402.2743	8588.7	7849.8
810.9548	404.4579	8751.75	8012.55
811.0984	406.641	8883.45	8141.1
811.2421	408.8235	9065.1	8320.25
811.3857	411.0054	9183.4	8436
811.5293	413.1868	9306.5	8557.35
811.673	415.3675	9326.7	8574.95
811.8166	417.5477	9295.55	8541.8
811.9603	419.7273	9195.1	8438.4
812.104	421.9064	9047.85	8284.4
812.2477	424.0848	8836.65	8078.8
812.3914	426.2627	8593.5	7833.1
812.5351	428.4399	8343.1	7583.15
812.6788	430.6166	8122.4	7358.4
812.8226	432.7928	7917.9	7153.95
812.9663	434.9683	7766.95	7001.2
813.1101	437.1432	7684.2	6915.8
813.2539	439.3176	7578.4	6814.4
813.3977	441.4914	7522.5	6759.15
813.5415	443.6645	7495.25	6728.15
813.6853	445.8371	7461.4	6695.75
813.8291	448.0091	7448.4	6682.35
813.973	450.1806	7427.35	6661.55
814.1168	452.3514	7401.3	6631.65
814.2607	454.5216	7438.65	6658
814.4046	456.6913	7416.85	6645.7
814.5485	458.8603	7456.5	6685.2
814.6924	461.0288	7475.2	6706.05
814.8363	463.1967	7447.4	6676.6
814.9802	465.3639	7458.8	6686.7
815.1241	467.5306	7396.95	6623
815.2681	469.6967	7389.45	6617.5
815.412	471.8622	7343.85	6570.5
815.556	474.0271	7327.15	6554.2
815.7	476.1914	7313.3	6537.75
815.844	478.3551	7271.25	6495.65
815.988	480.5182	7275.1	6499
816.132	482.6807	7298.35	6520.3
816.276	484.8426	7353.45	6577.9
816.4201	487.0039	7523.9	6745.4
816.5641	489.1647	7737.8	6959.55
816.7082	491.3248	7941.85	7164.6
816.8522	493.4843	7992.6	7213.75
816.9963	495.6432	7954.15	7176.15
817.1404	497.8015	7849.95	7066.05
817.2845	499.9592	7658.6	6875.8
817.4286	502.1163	7436.35	6653.95
817.5727	504.2728	7229.55	6446.15
817.7168	506.4287	7167.35	6384.9
817.861	508.5839	7068.05	6282.8
818.0051	510.7386	7037.3	6254.9
818.1493	512.8927	7029.65	6235.85
818.2935	515.0461	7054.55	6266
818.4377	517.199	7100.6	6314.45
818.5818	519.3512	7255.05	6469.85
818.726	521.5029	7549.7	6756
818.8703	523.6539	7815.65	7025.25
819.0145	525.8043	7888.3	7094.5
819.1587	527.9541	7697	6903.35
819.303	530.1033	7381.15	6589.85
819.4472	532.2519	7159.7	6366
819.5915	534.3999	7026.85	6231.4
819.7357	536.5472	6973.65	6178.85
819.88	538.694	6971.1	6175.4
820.0243	540.8401	7025.8	6230.45
820.1686	542.9856	7100	6300
820.3129	545.1305	7149.65	6350.75
820.4572	547.2748	7214.85	6415.55
820.6016	549.4185	7225.9	6425.05
820.7459	551.5615	7225.55	6426.65
820.8902	553.704	7275.7	6476.85
821.0346	555.8458	7365.95	6568.95
821.1789	557.987	7453.7	6656.5
821.3233	560.1276	7570.45	6768.55
821.4677	562.2675	7831.7	7034.4
821.6121	564.4069	8196.7	7399.2
821.7565	566.5456	8393.6	7597.15
821.9009	568.6837	8333.1	7533.75
822.0453	570.8212	7933.2	7135.45
822.1897	572.958	7514.9	6716.75
822.3342	575.0942	7212.35	6412.9
822.4786	577.2299	7058.65	6259.15
822.6231	579.3648	6938	6140
822.7675	581.4992	6896.7	6098
822.912	583.6329	6937.85	6138.15
823.0565	585.766	7054.5	6253.9
823.201	587.8985	7216.25	6415.45
823.3454	590.0304	7415.75	6597.85
823.4899	592.1616	7622.8	6815.55
823.6345	594.2922	7682.2	6875
823.779	596.4222	7555.35	6749.1
823.9235	598.5515	7295.8	6488.1
824.068	600.6802	7025.7	6216.2
824.2126	602.8083	6823.7	6015.55
824.3571	604.9358	6732.15	5921.85
824.5017	607.0626	6693.9	5883.65
824.6462	609.1888	6707.6	5898.05
824.7908	611.3144	6797.55	5985.65
824.9354	613.4393	6933.8	6125.7
825.08	615.5636	7165.35	6354.2
825.2246	617.6873	7395.7	6586.3
825.3692	619.8103	7554.45	6742.45
825.5138	621.9327	7588.6	6772.05
825.6584	624.0544	7467.25	6654.45
825.803	626.1756	7194.85	6381.35
825.9477	628.2961	6933	6118.9
826.0923	630.4159	6780.35	5966.4
826.237	632.5351	6745.45	5931.7
826.3816	634.6537	6722.95	5908.1
826.5263	636.7716	6674.65	5857
826.6709	638.8889	6653.6	5837.25
826.8156	641.0056	6690.8	5874.8
826.9603	643.1216	6754	5937.25
827.105	645.237	6803.15	5983.85
827.2497	647.3518	6714.05	5895.35
827.3944	649.4659	6583.95	5766.4
827.5391	651.5793	6481.8	5663.7
827.6838	653.6922	6404.7	5589
827.8285	655.8043	6334.9	5519.25
827.9733	657.9159	6299.75	5479.25
828.118	660.0268	6254.2	5431.95
828.2627	662.137	6245.5	5427.3
828.4075	664.2466	6226.05	5404.3
828.5522	666.3556	6240.8	5419.85
828.697	668.4639	6205.1	5380.3
828.8418	670.5716	6186	5363.95
828.9865	672.6786	6166.1	5341.2
829.1313	674.785	6103.45	5278.05
829.2761	676.8907	6063.95	5239.4
829.4209	678.9958	6071.85	5249.95
829.5657	681.1002	6077.15	5252.65
829.7105	683.204	6074.45	5246.7
829.8553	685.3072	6080.75	5255.3
830.0001	687.4097	6053.85	5228.45
830.1449	689.5115	6059.4	5231
830.2898	691.6127	6045.25	5220.65
830.4346	693.7132	6042.35	5215.95
830.5794	695.8131	6031	5192.65
830.7243	697.9123	6038.65	5210.6
830.8691	700.0109	6053.1	5224.8
831.014	702.1089	6090.9	5266.6
831.1588	704.2061	6130.5	5303.15
831.3037	706.3028	6240.65	5410.3
831.4486	708.3987	6348	5518.3
831.5935	710.4941	6420.1	5591.4
831.7383	712.5887	6449.65	5618.75
831.8832	714.6827	6420.25	5584.55
832.0281	716.7761	6384.6	5555.15
832.173	718.8688	6345.85	5515.05
832.3179	720.9608	6321.3	5485.15
832.4628	723.0522	6356.4	5522.5
832.6077	725.1429	6406.95	5574.85
832.7527	727.233	6547.45	5716.05
832.8976	729.3224	6779.8	5947.95
833.0425	731.4112	7056.25	6221.65
833.1874	733.4993	7162.05	6326.05
833.3324	735.5867	6987.65	6152.9
833.4773	737.6735	6659.9	5824.3
833.6222	739.7596	6368.6	5533.85
833.7672	741.845	6187.3	5353.8
833.9122	743.9298	6089	5251.95
834.0571	746.014	6048.45	5214.45
834.2021	748.0974	6050.05	5213.15
834.347	750.1802	6051.25	5213.3
834.492	752.2624	6045.95	5210.75
834.637	754.3439	6026.85	5189.4
834.782	756.4247	6044.3	5196.9
834.9269	758.5048	6072.8	5236.2
835.0719	760.5843	6156	5318.7
835.2169	762.6631	6304.45	5466.15
835.3619	764.7413	6535.4	5698.3
835.5069	766.8188	6893.05	6053.35
835.6519	768.8956	7245.85	6403.55
835.7969	770.9718	7513.35	6676.15
835.9419	773.0473	7504.35	6666.25
836.0869	775.1221	7327.05	6486.75
836.232	777.1962	7235.3	6394.65
836.377	779.2697	7460.1	6619.75
836.522	781.3426	7941.45	7085.3
836.667	783.4147	8300.35	7459.7
836.8121	785.4862	8356.85	7518.5
836.9571	787.557	8004.05	7165.3
837.1021	789.6271	7461.25	6620.35
837.2472	791.6966	6861.05	6020.15
837.3922	793.7654	6409.8	5569.35
837.5373	795.8335	6128.6	5287.95
837.6823	797.901	5968.35	5128.4
837.8274	799.9678	5885.55	5040.95
837.9724	802.0339	5881.2	5041.3
838.1175	804.0993	5907.45	5055.9
838.2626	806.1641	5901.65	5057.4
838.4076	808.2282	5847.75	5006.5
838.5527	810.2916	5784.6	4938.7
838.6978	812.3544	5712.35	4869.75
838.8428	814.4164	5644.8	4803.75
838.9879	816.4778	5676.85	4833.2
839.133	818.5385	5729.75	4888.45
839.2781	820.5986	5859.25	5014.6
839.4232	822.658	6071.15	5224.05
839.5682	824.7166	6341.65	5497.35
839.7133	826.7747	6709.85	5865.75
839.8584	828.832	7041.75	6198.85
840.0035	830.8886	7286	6441.25
840.1486	832.9446	7442.75	6596.6
840.2937	834.9999	7371.65	6528.85
840.4388	837.0545	7114.15	6263.2
840.5839	839.1085	6700.7	5854.65
840.729	841.1618	6358.35	5507.3
840.8741	843.2143	6110.25	5264.6
841.0192	845.2662	5942.25	5097.05
841.1643	847.3175	5849.3	5004.15
841.3095	849.368	5789.05	4941.05
841.4546	851.4179	5789.3	4943.1
841.5997	853.467	5776.35	4928.8
841.7448	855.5155	5800.9	4952.9
841.8899	857.5633	5802.7	4955.25
842.0351	859.6105	5793.8	4945.85
842.1802	861.6569	5759.8	4911.2
842.3253	863.7027	5677.95	4827.85
842.4704	865.7478	5621.05	4772.45
842.6156	867.7922	5549.55	4700.5
842.7607	869.8359	5516.85	4667.6
842.9058	871.8789	5504.9	4655.4
843.0509	873.9212	5515.9	4631.95
843.1961	875.9629	5509.7	4660.55
843.3412	878.0039	5542.7	4690.75
843.4863	880.0441	5594.15	4744.1
843.6315	882.0837	5687.35	4837.55
843.7766	884.1226	5779.05	4926.9
843.9218	886.1609	5909.55	5062.1
844.0669	888.1984	6146.85	5298.55
844.212	890.2352	6383.1	5533.05
844.3572	892.2714	6434.45	5579.6
844.5023	894.3069	6356.6	5503.45
844.6475	896.3416	6121.55	5267
844.7926	898.3757	5906.25	5054.5
844.9377	900.4091	5780.4	4927.8
845.0829	902.4418	5785.95	4926.95
845.228	904.4739	5867.3	5013.6
845.3732	906.5052	5975.65	5124.35
845.5183	908.5358	6012.25	5160.85
845.6635	910.5658	5934.5	5080.35
845.8086	912.595	5775.5	4923.25
845.9538	914.6236	5599.85	4747
846.0989	916.6515	5487.85	4635
846.2441	918.6786	5393.9	4539.8
846.3892	920.7051	5335.7	4480.25
846.5344	922.7309	5320.75	4466.5
846.6795	924.756	5318.8	4463.6
846.8246	926.7804	5381.65	4525.2
846.9698	928.8041	5395.65	4539.7
847.1149	930.8272	5479.95	4625.2
847.2601	932.8495	5534.15	4678.1
847.4052	934.8711	5558.5	4703.45
847.5504	936.892	5589.35	4733.8
847.6955	938.9123	5660.35	4805.35
847.8407	940.9318	5793.2	4938.25
847.9858	942.9506	5868.95	5012.55
848.131	944.9688	5862.5	5007
848.2761	946.9862	5757.05	4903.1
848.4213	949.003	5607.05	4748.75
848.5664	951.019	5490.05	4633.7
848.7115	953.0344	5397.85	4542.5
848.8567	955.0491	5344.8	4486.75
849.0018	957.063	5270.8	4413.9
849.147	959.0763	5279.1	4423.7
849.2921	961.0888	5268.9	4411.55
849.4373	963.1007	5283.1	4424.3
849.5824	965.1119	5238	4381
849.7275	967.1223	5188.45	4331.6
849.8727	969.1321	5141.95	4285.65
850.0178	971.1412	5137.2	4281.2
850.1629	973.1495	5105.7	4247.7
850.3081	975.1572	5142.35	4246
850.4532	977.1641	5149.55	4293.1
850.5983	979.1704	5144.55	4284.15
850.7435	981.1759	5132.45	4271.65
850.8886	983.1808	5099.75	4240.3
851.0337	985.1849	5081	4211.55
851.1788	987.1884	5052.35	4190.9
851.324	989.1911	5053.35	4191.05
851.4691	991.1932	5083.25	4223.5
851.6142	993.1945	5111.85	4253.55
851.7593	995.1951	5110.95	4250.65
851.9045	997.1951	5097.3	4231.2
852.0496	999.1943	5056.9	4197.05
852.1947	1001.1928	5064.1	4202.85
852.3398	1003.1906	5102.95	4242.65
852.4849	1005.1877	5210.85	4349.05
852.63	1007.1841	5323.55	4464.8
852.7751	1009.1798	5413.2	4554.55
852.9202	1011.1748	5379.5	4518.7
853.0653	1013.1691	5276.5	4415.05
853.2104	1015.1627	5136.9	4274.8
853.3555	1017.1556	4996.35	4136.05
853.5006	1019.1477	4905.95	4043.9
853.6457	1021.1392	4825.15	3966.85
853.7908	1023.1299	4794.55	3934.3
853.9359	1025.12	4794.9	3929.6
854.081	1027.1093	4817.75	3958
854.2261	1029.0979	4897.25	4039.15
854.3712	1031.0859	4985.3	4126.45
854.5163	1033.0731	5044	4182.1
854.6613	1035.0596	5074.15	4211.1
854.8064	1037.0454	5051.65	4191.7
854.9515	1039.0304	4997.95	4134.55
855.0965	1041.0148	4913.15	4050.45
855.2416	1042.9985	4801.45	3937.5
855.3867	1044.9814	4749.8	3889.1
855.5317	1046.9636	4720.15	3854.9
855.6768	1048.9452	4719.8	3859.3
855.8219	1050.926	4796.55	3934.75
855.9669	1052.9061	4870.35	4008.9
856.112	1054.8855	4910	4046.7
856.257	1056.8642	4918.3	4056.15
856.4021	1058.8421	4903.5	4037.8
856.5471	1060.8194	4890.35	4022.75
856.6921	1062.7959	4890.25	4026.4
856.8372	1064.7717	4871.45	4005.8
856.9822	1066.7469	4863.55	3997.75
857.1272	1068.7213	4892.15	4028.25
857.2723	1070.695	4917.15	4054.75
857.4173	1072.6679	5013.15	4150.15
857.5623	1074.6402	5143.45	4279.3
857.7073	1076.6117	5210.8	4341.55
857.8523	1078.5826	5170.1	4303.35
857.9973	1080.5527	4989.95	4122.6
858.1423	1082.5221	4831.9	3966.85
858.2873	1084.4908	4718.9	3853.45
858.4323	1086.4587	4616.8	3749.3
858.5773	1088.426	4568.6	3704
858.7223	1090.3925	4562.1	3690.75
858.8673	1092.3584	4584	3720.65
859.0123	1094.3235	4606.9	3742.75
859.1573	1096.2879	4690.5	3824.45
859.3022	1098.2515	4770.45	3903.7
859.4472	1100.2145	4877.8	4011.8
859.5922	1102.1767	5003.5	4137.7
859.7371	1104.1382	5188.95	4322.2
859.8821	1106.099	5427.2	4562.1
860.027	1108.0591	5667.95	4801.75
860.172	1110.0185	5849	4980.3
860.3169	1111.9771	6006.25	5140.4
860.4619	1113.9351	6196.6	5330.3
860.6068	1115.8923	6512.8	5646.2
860.7517	1117.8488	6733.55	5866.75
860.8967	1119.8045	6633.35	5767.65
861.0416	1121.7596	6223.6	5357
861.1865	1123.7139	5712.05	4846.6
861.3314	1125.6675	5394.25	4528.55
861.4763	1127.6204	5354.85	4487.8
861.6212	1129.5726	5430.25	4561.7
861.7661	1131.524	5464.2	4598.2
861.911	1133.4748	5317.6	4452.15
862.0559	1135.4248	5057.8	4189.4
862.2008	1137.3741	4826.35	3960.75
862.3457	1139.3226	4670.3	3802.3
862.4905	1141.2705	4664.8	3799.45
862.6354	1143.2176	4669.5	3797.35
862.7803	1145.164	4733.85	3866.85
862.9251	1147.1097	4783.9	3916.75
863.07	1149.0546	4698.3	3830.7
863.2148	1150.9989	4580.45	3711.65
863.3597	1152.9424	4492.8	3625.4
863.5045	1154.8852	4420.65	3552
863.6493	1156.8272	4377.05	3510.6
863.7942	1158.7686	4366.65	3490.95
863.939	1160.7092	4349.5	3482.05
864.0838	1162.6491	4377.3	3508.05
864.2286	1164.5883	4413.6	3546.05
864.3734	1166.5267	4483.7	3615.95
864.5182	1168.4644	4567	3697.75
864.663	1170.4014	4688.55	3819.1
864.8078	1172.3377	4860.95	3994.05
864.9526	1174.2732	5049.55	4182.15
865.0974	1176.2081	5387.8	4520.7
865.2421	1178.1421	5900.3	5029.9
865.3869	1180.0755	6491.25	5621.95
865.5317	1182.0082	6920.35	6053.3
865.6764	1183.9401	6982.25	6113.6
865.8212	1185.8713	6640.35	5772.25
865.9659	1187.8017	6067.45	5199.2
866.1106	1189.7315	5542.7	4675.7
866.2554	1191.6605	5152	4256.9
866.4001	1193.5888	4897.1	4029.85
866.5448	1195.5163	4729.15	3861.25
866.6895	1197.4432	4635.25	3765.9
866.8342	1199.3693	4537.3	3668.05
866.9789	1201.2947	4475.25	3599.8
867.1236	1203.2193	4410.75	3542.7
867.2683	1205.1432	4402.9	3531.7
867.413	1207.0664	4376.8	3508
867.5576	1208.9889	4375.1	3502.8
867.7023	1210.9106	4385.7	3517.05
867.847	1212.8316	4386.9	3519.15
867.9916	1214.7519	4430.2	3551.85
868.1363	1216.6715	4493.4	3624.15
868.2809	1218.5903	4519.25	3647
868.4255	1220.5084	4583.95	3713.6
868.5701	1222.4257	4645.9	3775.85
868.7148	1224.3424	4691	3823.3
868.8594	1226.2583	4762.5	3887.9
869.004	1228.1735	4868.2	3999.7
869.1486	1230.0879	5014.95	4144.85
869.2932	1232.0016	5188.1	4317.95
869.4377	1233.9146	5351.85	4479.9
869.5823	1235.8269	5416	4545.65
869.7269	1237.7384	5449.55	4577.95
869.8715	1239.6492	5393.25	4523.4
870.016	1241.5592	5459.9	4590.3
870.1606	1243.4686	5604.2	4733.85
870.3051	1245.3772	5904.9	5036.8
870.4496	1247.285	6283.2	5410.8
870.5941	1249.1922	6659.05	5787.3
870.7387	1251.0986	6965	6093.5
870.8832	1253.0042	7240.2	6369.35
871.0277	1254.9092	7610.35	6739.65
871.1722	1256.8134	8019.5	7150.1
871.3167	1258.7169	8487.95	7617.45
871.4611	1260.6196	8892.1	8022.5
871.6056	1262.5216	9156.65	8282.55
871.7501	1264.4229	9192	8322.1
871.8945	1266.3234	9093.2	8222.35
872.039	1268.2232	8835.05	7962.85
872.1834	1270.1223	8539.9	7667.9
872.3278	1272.0207	8352.9	7479.25
872.4723	1273.9183	8239.25	7361.7
872.6167	1275.8151	8203.2	7333.65
872.7611	1277.7113	8304.05	7432.7
872.9055	1279.6067	8626.6	7753.25
873.0499	1281.5014	9224	8350.9
873.1943	1283.3953	10094.25	9219.65
873.3386	1285.2885	11025.3	10154.2
873.483	1287.181	11855.15	10982.5
873.6274	1289.0727	12284.8	11416
873.7717	1290.9637	12110.6	11237.7
873.9161	1292.854	11571.4	10699.6
874.0604	1294.7435	10862.2	9988
874.2047	1296.6323	10218.6	9346.8
874.349	1298.5204	9657.4	8781.35
874.4933	1300.4077	9239.3	8365.85
874.6376	1302.2943	8920.65	8048.75
874.7819	1304.1802	8716.65	7846.25
874.9262	1306.0653	8524.5	7648.75
875.0705	1307.9497	8369.45	7496.35
875.2147	1309.8333	8245.1	7374.2
875.359	1311.7162	8143.65	7271.3
875.5032	1313.5984	8056.2	7181.25
875.6475	1315.4798	7990	7102.15
875.7917	1317.3605	7985.95	7096.3
875.9359	1319.2405	8052.35	7178.2
876.0801	1321.1197	8117.2	7239.8
876.2243	1322.9982	8028.5	7151.05
876.3685	1324.876	7844.8	6972.55
876.5127	1326.753	7450.45	6577.2
876.6569	1328.6293	7025.6	6152.25
876.801	1330.5048	6584.4	5710.75
876.9452	1332.3796	6145.25	5275.2
877.0893	1334.2537	5848.1	4950.85
877.2335	1336.127	5581.4	4708.55
877.3776	1337.9996	5423.3	4549.15
877.5217	1339.8714	5311.05	4439.85
877.6658	1341.7426	5243.05	4326.1
877.8099	1343.6129	5113.25	4238.85
877.954	1345.4826	5022.15	4146.7
878.0981	1347.3515	4951.3	4076.2
878.2422	1349.2196	4875.5	4000.6
878.3862	1351.087	4848.6	3975.1
878.5303	1352.9537	4809.3	3936.2
878.6743	1354.8197	4815.75	3941.95
878.8184	1356.6849	4852.15	3980.4
878.9624	1358.5493	4906.1	4031.25
879.1064	1360.4131	4999.6	4127
879.2504	1362.276	5166.6	4292.95
879.3944	1364.1383	5351.95	4479.3
879.5384	1365.9998	5440	4560.85
879.6823	1367.8606	5410.45	4537.9
879.8263	1369.7206	5375.25	4501
879.9702	1371.5799	5381.75	4506.4
880.1142	1373.4384	5373.45	4499.7
880.2581	1375.2962	5278.6	4404.9
880.402	1377.1533	5049.7	4174.95
880.5459	1379.0096	4857.65	3982.8
880.6898	1380.8652	4691.75	3817.9
880.8337	1382.7201	4557.8	3683.55
880.9776	1384.5742	4429.45	3557.7
881.1215	1386.4275	4315.95	3441.25
881.2653	1388.2802	4222.7	3350.7
881.4092	1390.132	4168.55	3294.55
881.553	1391.9832	4134.65	3258.5
881.6968	1393.8336	4097.9	3222.85
881.8406	1395.6832	4076.85	3201
881.9844	1397.5322	4035.5	3163.4
882.1282	1399.3803	4009.3	3131.7
882.272	1401.2278	3948.85	3073.5
882.4158	1403.0745	3912.45	3036.7
882.5595	1404.9204	3883.5	3011.8
882.7033	1406.7656	3850.15	2974.5
882.847	1408.6101	3828.8	2951.35
882.9908	1410.4538	3804.75	2928.95
883.1345	1412.2968	3818.6	2943.45
883.2782	1414.139	3805.9	2931.25
883.4219	1415.9805	3842.35	2968.45
883.5656	1417.8213	3886.35	3006.5
883.7092	1419.6613	3945.1	3069.45
883.8529	1421.5006	4083.1	3207.75
883.9965	1423.3391	4248	3373.4
884.1402	1425.1769	4484.25	3608.2
884.2838	1427.0139	4828.6	3954.6
884.4274	1428.8502	5223.6	4347.35
884.571	1430.6858	5561.2	4686.35
884.7146	1432.5206	5684.55	4809.6
884.8582	1434.3547	5702	4828
885.0018	1436.188	5614.65	4739.05
885.1453	1438.0206	5558.35	4682.3
885.2889	1439.8524	5507.5	4632.5
885.4324	1441.6835	5470.35	4595.25
885.5759	1443.5139	5486.8	4607.1
885.7194	1445.3435	5505.2	4629.7
885.8629	1447.1724	5520.8	4646.7
886.0064	1449.0005	5491.35	4615.85
886.1499	1450.8279	5467.65	4590.2
886.2933	1452.6545	5443.9	4568.35
886.4368	1454.4804	5434.7	4561.85
886.5802	1456.3056	5381.3	4498.15
886.7237	1458.13	5306.55	4433.2
886.8671	1459.9536	5209.25	4335.2
887.0105	1461.7766	5050.45	4173.95
887.1539	1463.5987	4895.7	4018.75
887.2972	1465.4202	4722.95	3846.6
887.4406	1467.2409	4541.8	3666.95
887.584	1469.0608	4406.65	3532.2
887.7273	1470.88	4245.1	3368.3
887.8706	1472.6984	4112.95	3238.5
888.0139	1474.5161	3995.75	3120.25
888.1572	1476.3331	3915.1	3041.9
888.3005	1478.1493	3880.5	3003.4
888.4438	1479.9648	3845.85	2970.75
888.5871	1481.7795	3820.75	2944.3
888.7303	1483.5935	3823.8	2950.9
888.8736	1485.4067	3836.45	2959.6
889.0168	1487.2192	3848.65	2972.25
889.16	1489.031	3869	2992.2
889.3032	1490.842	3871.1	2996.3
889.4464	1492.6522	3855.95	2980.9
889.5896	1494.4618	3843.95	2966.7
889.7327	1496.2705	3837.65	2964.5
889.8759	1498.0785	3837.15	2960.7
890.019	1499.8858	3811.3	2934.75
890.1622	1501.6924	3777.45	2902.75
890.3053	1503.4981	3751.3	2874.75
890.4484	1505.3032	3714.5	2839.5
890.5914	1507.1075	3690.8	2812.35
890.7345	1508.911	3667.3	2792.35
890.8776	1510.7138	3660.3	2783.4
891.0206	1512.5159	3605.35	2729.1
891.1637	1514.3172	3577.8	2703.6
891.3067	1516.1178	3547.9	2672.25
891.4497	1517.9176	3528.75	2650.5
891.5927	1519.7166	3500.4	2625.5
891.7357	1521.515	3481.8	2599.3
891.8786	1523.3126	3458.55	2584
892.0216	1525.1094	3451.65	2571.4
892.1645	1526.9055	3423.3	2550.75
892.3074	1528.7008	3393.75	2515.7
892.4503	1530.4954	3392.95	2510.6
892.5932	1532.2893	3380.25	2507.4
892.7361	1534.0824	3385.2	2503.5
892.879	1535.8747	3361.1	2487.55
893.0218	1537.6663	3357.6	2479.05
893.1647	1539.4572	3356.45	2479.05
893.3075	1541.2473	3355.75	2478.55
893.4503	1543.0367	3363.35	2487.45
893.5931	1544.8253	3367.7	2488.85
893.7359	1546.6132	3389.25	2511.85
893.8787	1548.4003	3407.25	2519.75
894.0214	1550.1867	3433.45	2548.9
894.1642	1551.9723	3465.8	2584.95
894.3069	1553.7572	3533.65	2655.25
894.4496	1555.5414	3592.5	2715
894.5923	1557.3247	3722.9	2844.6
894.735	1559.1074	3865.6	2989.2
894.8777	1560.8893	4051.8	3176.2
895.0204	1562.6705	4242	3367.15
895.163	1564.4509	4379.7	3503.85
895.3056	1566.2305	4450.15	3576.6
895.4482	1568.0094	4486.95	3614.05
895.5908	1569.7876	4483.2	3607.7
895.7334	1571.565	4476.25	3600.4
895.876	1573.3417	4485	3610.2
896.0186	1575.1176	4510.95	3632.55
896.1611	1576.8928	4575.85	3700.4
896.3036	1578.6672	4666	3791.05
896.4461	1580.4409	4816.9	3942.9
896.5886	1582.2138	5001.45	4126.75
896.7311	1583.986	5197.9	4322.4
896.8736	1585.7575	5408.8	4536.2
897.0161	1587.5282	5576.95	4700.8
897.1585	1589.2981	5739.45	4864.1
897.3009	1591.0673	5815.2	4939.4
897.4433	1592.8358	5859.45	4984.2
897.5857	1594.6035	5877.9	5000.3
897.7281	1596.3704	5798.85	4922.05
897.8705	1598.1366	5699.5	4823.15
898.0128	1599.9021	5564.25	4690.25
898.1551	1601.6668	5431.3	4554.4
898.2975	1603.4308	5318.2	4441.25
898.4398	1605.194	5296.9	4415.8
898.5821	1606.9564	5364.4	4490.65
898.7243	1608.7182	5581.3	4700.6
898.8666	1610.4791	5943.65	5069.15
899.0088	1612.2394	6451.4	5573.5
899.1511	1613.9988	7025.25	6149.65
899.2933	1615.7576	7490.1	6613.35
899.4355	1617.5156	7784.05	6902.35
899.5776	1619.2728	7762.25	6886
899.7198	1621.0293	7420.65	6544.1
899.862	1622.785	6913.05	6036.5
900.0041	1624.54	6294.6	5411.65
900.1462	1626.2942	5713.7	4836.4
900.2883	1628.0477	5155.5	4276.25
900.4304	1629.8005	4740.55	3861.45
900.5725	1631.5525	4370.6	3495.5
900.7145	1633.3037	4097.25	3221.9
900.8566	1635.0542	3888.45	3012.8
900.9986	1636.804	3714.7	2838.8
901.1406	1638.553	3625.75	2687.75
901.2826	1640.3013	3475.95	2599.75
901.4245	1642.0488	3381.7	2502.25
901.5665	1643.7955	3310.3	2436.1
901.7085	1645.5416	3241.1	2363.95
901.8504	1647.2868	3184	2309.05
901.9923	1649.0313	3146.35	2272.45
902.1342	1650.7751	3114.15	2235.9
902.2761	1652.5181	3103.6	2229.15
902.4179	1654.2604	3099.5	2222.85
902.5598	1656.0019	3101.4	2226.75
902.7016	1657.7427	3152.75	2274.65
902.8434	1659.4828	3230.15	2354.2
902.9852	1661.222	3352.7	2475.75
903.127	1662.9606	3519.1	2644.55
903.2687	1664.6984	3714.35	2838.85
903.4105	1666.4354	3830.45	2952.6
903.5522	1668.1717	3813.5	2936.9
903.6939	1669.9072	3670.3	2792.55
903.8356	1671.642	3452.6	2574.15
903.9773	1673.3761	3237.7	2363.85
904.119	1675.1094	3059.8	2183.65
904.2606	1676.8419	2921.95	2046.4
904.4022	1678.5737	2851.05	1976.05
904.5439	1680.3048	2781.1	1905.25
904.6855	1682.0351	2738	1860
904.827	1683.7646	2694.85	1815.75
904.9686	1685.4934	2677.1	1802
905.1101	1687.2215	2657.1	1779.6
905.2517	1688.9488	2634.2	1758.6
905.3932	1690.6754	2620.85	1745.35
905.5347	1692.4012	2603.75	1728.7
905.6761	1694.1263	2598	1722.75
905.8176	1695.8506	2586.9	1711.7
905.9591	1697.5742	2570.75	1695.2
906.1005	1699.297	2546.3	1670.55
906.2419	1701.0191	2536.05	1660.35
906.3833	1702.7404	2536.25	1661.5
906.5246	1704.461	2510.75	1632.9
906.666	1706.1808	2507.4	1628
906.8073	1707.8999	2487.25	1609.75
906.9487	1709.6182	2492.45	1615.2
907.09	1711.3358	2477.05	1601.15
907.2313	1713.0527	2466.05	1591.95
907.3725	1714.7688	2464.9	1584.5
907.5138	1716.4841	2451.95	1573.05
907.655	1718.1987	2452.65	1569.5
907.7962	1719.9126	2431.45	1557.45
907.9374	1721.6257	2424.45	1544.3
908.0786	1723.338	2429.6	1552.1
908.2198	1725.0496	2409.65	1532.25
908.3609	1726.7605	2407.45	1529.2
908.502	1728.4706	2406.1	1530.05
908.6431	1730.18	2379	1502
908.7842	1731.8886	2400.9	1524.5
908.9253	1733.5964	2402.4	1502.95
909.0664	1735.3036	2383.85	1505.8
909.2074	1737.0099	2372.5	1495.85
909.3484	1738.7156	2371.65	1494.95
909.4894	1740.4204	2358.75	1478.4
909.6304	1742.1246	2353.9	1475.05
909.7714	1743.8279	2355.35	1480.55
909.9123	1745.5306	2348.9	1473.35
910.0532	1747.2325	2338	1462.45
910.1941	1748.9336	2331.5	1456.8
910.335	1750.634	2329.15	1450.05
910.4759	1752.3336	2332.4	1455.35
910.6168	1754.0325	2324.95	1450.4
910.7576	1755.7307	2309.8	1433.7
910.8984	1757.4281	2318	1441.6
911.0392	1759.1247	2320.7	1436.25
911.18	1760.8206	2316.5	1436.6
911.3208	1762.5158	2312.65	1431.4
911.4615	1764.2102	2306.25	1430.45
911.6022	1765.9039	2293.25	1415.7
911.7429	1767.5968	2279.35	1404.4
911.8836	1769.289	2288.7	1413.3
912.0243	1770.9804	2278.7	1401.95
912.1649	1772.6711	2268.55	1391.55
912.3056	1774.361	2272.3	1395.25
912.4462	1776.0502	2270.85	1394.1
912.5868	1777.7386	2267.05	1387.25
912.7274	1779.4263	2270.15	1391.25
912.8679	1781.1132	2266.15	1388.2
913.0084	1782.7994	2255.8	1375.65
913.149	1784.4849	2253.5	1377.25
913.2895	1786.1696	2261.55	1365.65
913.4299	1787.8535	2244.7	1368.25
913.5704	1789.5367	2241.7	1365
913.7108	1791.2192	2233.05	1355.4
913.8513	1792.9009	2244.05	1352.75
913.9917	1794.5818	2230.75	1354.45
914.132	1796.2621	2211.3	1335.8
914.2724	1797.9415	2218.3	1340.1
914.4128	1799.6202	2210.8	1334.1
914.5531	1801.2982	2219.15	1341.85
914.6934	1802.9755	2204.1	1327.25
914.8337	1804.6519	2203.3	1325.95
914.9739	1806.3277	2188.2	1312.5
915.1142	1808.0027	2180.75	1305.25
915.2544	1809.6769	2193.3	1315.9
915.3946	1811.3504	2179.6	1302.85
915.5348	1813.0231	2171.35	1295.35
915.675	1814.6951	2170.85	1294.6
915.8151	1816.3664	2177.05	1297
915.9553	1818.0369	2164.05	1283.25
916.0954	1819.7067	2162.35	1288.25
916.2355	1821.3757	2162.2	1284.7
916.3755	1823.044	2153.8	1275.9
916.5156	1824.7115	2150.35	1274.1
916.6556	1826.3783	2143	1268.7
916.7956	1828.0443	2149	1275
916.9356	1829.7096	2146.8	1268.8
917.0756	1831.3741	2143.95	1263.7
917.2155	1833.0379	2142.8	1266.4
917.3555	1834.701	2143.6	1262.95
917.4954	1836.3633	2131.4	1255.6
917.6353	1838.0248	2148.65	1269.55
917.7751	1839.6856	2137.25	1261.25
917.915	1841.3457	2129.5	1252.95
918.0548	1843.005	2121.4	1244.05
918.1946	1844.6636	2124.8	1250.6
918.3344	1846.3214	2125.8	1248
918.4742	1847.9785	2118.75	1243.05
918.6139	1849.6349	2117.85	1241
918.7537	1851.2904	2115.9	1230.9
918.8934	1852.9453	2110.95	1234.55
919.0331	1854.5994	2109.55	1230
919.1727	1856.2528	2096.15	1215.55
919.3124	1857.9054	2095.9	1217.65
919.452	1859.5572	2097.25	1221
919.5916	1861.2083	2091.15	1212.55
919.7312	1862.8587	2097.9	1220.8
919.8708	1864.5084	2086.6	1210.9
920.0103	1866.1572	2081.85	1207
920.1498	1867.8054	2072.6	1195.3
920.2893	1869.4528	2072.9	1196.3
920.4288	1871.0994	2073.05	1197.05
920.5683	1872.7453	2066.8	1189.4
920.7077	1874.3905	2075.25	1192.65
920.8471	1876.0349	2066.2	1190.55
920.9865	1877.6786	2062.95	1182.95
921.1259	1879.3215	2058.7	1182.55
921.2653	1880.9637	2066.85	1187.1
921.4046	1882.6051	2059.95	1183.1
921.5439	1884.2458	2055.65	1178.9
921.6832	1885.8858	2049.05	1171.15
921.8225	1887.525	2037.85	1160.8
921.9617	1889.1634	2036.45	1160.1
922.101	1890.8011	2030.55	1152.75
922.2402	1892.4381	2024.75	1148.3
922.3794	1894.0743	2014.95	1138.75
922.5185	1895.7098	2032.7	1155.05
922.6577	1897.3446	2022.65	1144.65
922.7968	1898.9786	2020.05	1139.55
922.9359	1900.6118	2007.9	1132.9
923.075	1902.2443	2000.9	1122.45
923.214	1903.8761	2005	1128.2
923.3531	1905.5071	1994.3	1118.1
923.4921	1907.1374	1999.9	1121.25
923.6311	1908.7669	1999.9	1121.9
923.77	1910.3957	1991.35	1114.25
923.909	1912.0237	1982.8	1106.7
924.0479	1913.651	1981	1102.7
924.1868	1915.2776	1985.45	1110.3
924.3257	1916.9034	1975.35	1100.75
924.4646	1918.5285	1968.9	1093.55
924.6034	1920.1528	1952.3	1074.35
924.7422	1921.7764	1967.25	1092.55
924.881	1923.3992	1951.8	1074.35
925.0198	1925.0213	1951.05	1072.55
925.1586	1926.6427	1944.9	1070.85
925.2973	1928.2633	2142.25	1056.05
925.436	1929.8832	1963.3	1084.1
925.5747	1931.5023	1936.7	1058.7
925.7134	1933.1207	1937.75	1060.45
925.852	1934.7383	1932.95	1055.45
925.9906	1936.3552	1932.15	1056.25
926.1292	1937.9714	1933.85	1056.85
926.2678	1939.5868	1927.55	1048.65
926.4064	1941.2015	1919.35	1042.25
926.5449	1942.8154	1914.85	1037.75
926.6834	1944.4286	1916.65	1037.9
926.8219	1946.041	1927.1	1026
926.9604	1947.6528	1911.05	1028.85
927.0988	1949.2637	1899.2	1022.45
927.2372	1950.8739	1889.3	1011.2
927.3756	1952.4834	1892.65	1013.9
927.514	1954.0921	1886.25	1007.2
927.6523	1955.7001	1889.05	1008.9
927.7907	1957.3074	1876.5	1001.3
927.929	1958.9139	1870.6	993.7
928.0673	1960.5197	1880.15	1001.15
928.2055	1962.1247	1860.35	984.05
928.3438	1963.729	1862.15	987.25
928.482	1965.3325	1884.7	984.1
928.6202	1966.9353	1859.2	984.25
928.7584	1968.5374	1863.05	984.8
928.8965	1970.1387	1856.3	979.45
929.0346	1971.7393	1842.4	965.65
929.1727	1973.3392	1841.1	962.4
929.3108	1974.9383	1832	954.85
929.4489	1976.5366	1836.55	958.75
929.5869	1978.1342	1838.35	962.3
929.7249	1979.7311	1832.25	953.3
929.8629	1981.3273	1827.45	949.45
930.0009	1982.9227	1828.75	950.15
930.1388	1984.5173	1827	950.15
930.2767	1986.1112	1817.9	940.35
930.4146	1987.7044	1819.95	945.4
930.5525	1989.2968	1812.75	934.95
930.6904	1990.8885	1813.15	935.05
930.8282	1992.4795	1803.75	926.15
930.966	1994.0697	1806.45	930.5
931.1038	1995.6592	1797.35	921.6
931.2415	1997.2479	1802.85	925.9
931.3793	1998.8359	1796.4	920.15
931.517	2000.4232	1795.45	917.65
931.6547	2002.0097	1802.25	926.9
931.7923	2003.5955	1789.8	912.45
931.93	2005.1805	1785.2	907.75
932.0676	2006.7648	1781.7	903.7
932.2052	2008.3484	1784.85	906.3
932.3427	2009.9312	1780.35	902.15
932.4803	2011.5133	1771.15	895.65
932.6178	2013.0946	1772.8	897.05
932.7553	2014.6752	1775.1	901.2
932.8928	2016.2551	1770.15	894.5
933.0302	2017.8342	1764.5	885.65
933.1676	2019.4126	1754.45	880.1
933.305	2020.9902	1751.55	874.05
933.4424	2022.5672	1756.4	877.25
933.5798	2024.1433	1760.25	876.4
933.7171	2025.7188	1750.9	875.7
933.8544	2027.2935	1741.6	866.4
933.9917	2028.8674	1742.85	867.4
934.129	2030.4406	1737.25	863.3
934.2662	2032.0131	1739.85	864.75
934.4034	2033.5849	1735.95	852.25
934.5406	2035.1559	1730.65	854.55
934.6778	2036.7261	1729.95	853.45
934.8149	2038.2957	1724.85	848.35
934.952	2039.8645	1726.9	851.25
935.0891	2041.4325	1734.9	855.9
935.2262	2042.9998	1718.45	844.65
935.3632	2044.5664	1720.8	842
935.5002	2046.1323	1727.2	851.35
935.6372	2047.6974	1719.3	841.6
935.7742	2049.2617	1710	834.7
935.9111	2050.8254	1744.55	833.65
936.048	2052.3883	1716.2	837.5
936.1849	2053.9504	1710.05	832.75
936.3218	2055.5118	1700.25	821.45
936.4586	2057.0725	1706.55	821.8
936.5955	2058.6325	1706.05	824.95
936.7323	2060.1917	1693.55	812.6
936.869	2061.7502	1694.05	807.45
937.0058	2063.3079	1698.65	814.85
937.1425	2064.8649	1696.7	810.6
937.2792	2066.4212	1693.15	808
937.4159	2067.9767	1694.8	810.3
937.5525	2069.5315	1688.3	803.65
937.6891	2071.0856	1682.85	800.45
937.8257	2072.6389	1688.05	805.5
937.9623	2074.1915	1680.75	803.7
938.0989	2075.7433	1672.4	792.7
938.2354	2077.2945	1667.95	792.05
938.3719	2078.8448	1669.3	794.1
938.5084	2080.3945	1663.45	786.15
938.6448	2081.9434	1663.25	787.35
938.7812	2083.4916	1662.35	784.8
938.9176	2085.039	1666.3	788.1
939.054	2086.5857	1658.35	781.1
939.1903	2088.1317	1647.75	772.55
939.3267	2089.677	1659	781.75
939.463	2091.2215	1650.65	774.7
939.5992	2092.7652	1654.65	776.4
939.7355	2094.3083	1646.35	768.6
939.8717	2095.8506	1640.5	764.55
940.0079	2097.3921	1637.45	761.2
940.1441	2098.933	1647.75	771.85
940.2802	2100.4731	1647	771.35
940.4163	2102.0124	1645	762.15
940.5524	2103.5511	1634.3	758.5
940.6885	2105.089	1636.65	761.8
940.8245	2106.6261	1639.55	762.3
940.9606	2108.1626	1635.4	755.65
941.0965	2109.6983	1655.95	751.5
941.2325	2111.2332	1637.25	760.3
941.3684	2112.7675	1636.45	757.2
941.5044	2114.301	1629.65	752
941.6403	2115.8337	1627.55	750.85
941.7761	2117.3657	1622.1	746.2
941.912	2118.897	1624.65	746.3
942.0478	2120.4276	1629.75	745.8
942.1835	2121.9575	1618.35	742.2
942.3193	2123.4866	1633.3	745.65
942.455	2125.0149	1617.85	739.8
942.5907	2126.5426	1602.7	725.15
942.7264	2128.0695	1612.1	730.75
942.8621	2129.5956	1608.35	733.3
942.9977	2131.1211	1609.15	729.15
943.1333	2132.6458	1605.9	728.95
943.2689	2134.1698	1605.3	730.9
943.4044	2135.693	1604.05	723.85
943.54	2137.2155	1600.75	722.55
943.6755	2138.7373	1603.7	726.3
943.8109	2140.2584	1586.4	709.35
943.9464	2141.7787	1591.65	710.05
944.0818	2143.2983	1590.2	715.1
944.2172	2144.8171	1582.3	708
944.3526	2146.3353	1588.7	709.6
944.4879	2147.8527	1586.8	712.25
944.6232	2149.3693	1579.4	703.95
944.7585	2150.8853	1584	707.6
944.8938	2152.4005	1582.25	705.1
945.029	2153.9149	1574	698.1
945.1642	2155.4287	1576.5	702
945.2994	2156.9417	1570.55	693.25
945.4346	2158.454	1571.55	690.75
945.5697	2159.9655	1571.95	694.45
945.7048	2161.4764	1570.9	694.95
945.8399	2162.9865	1565.45	687.7
945.9749	2164.4958	1570.4	690.2
946.1099	2166.0045	1561.55	683.5
946.2449	2167.5124	1565.35	688.5
946.3799	2169.0195	1556.1	679.15
946.5148	2170.526	1552.5	674.4
946.6498	2172.0317	1558.8	682.75
946.7846	2173.5367	1552.05	675.2
946.9195	2175.0409	1544.9	669.2
947.0543	2176.5445	1560	682.55
947.1891	2178.0473	1545.6	669.45
947.3239	2179.5494	1545.7	665
947.4587	2181.0507	1537.75	660.8
947.5934	2182.5513	1544.45	667.8
947.7281	2184.0512	1539.8	664.15
947.8628	2185.5504	1545.35	671.6
947.9974	2187.0488	1537.75	661.6
948.132	2188.5465	1548.85	672.55
948.2666	2190.0435	1532.35	654.35
948.4012	2191.5397	1528.95	654.3
948.5357	2193.0353	1536.5	658.95
948.6702	2194.5301	1532	653.8
948.8047	2196.0241	1531.4	654.5
948.9392	2197.5175	1525.95	649.25
949.0736	2199.0101	1530.45	650.8
949.208	2200.502	1520.9	645.2
949.3424	2201.9931	1518.25	642.55
949.4767	2203.4835	1513.35	635.8
949.611	2204.9733	1534.05	639.7
949.7453	2206.4622	1515.95	640.05
949.8796	2207.9505	1523	643.25
950.0138	2209.438	1511.35	636.2
950.148	2210.9248	1505.7	626.7
950.2822	2212.4109	1495.9	620.45
950.4164	2213.8962	1502.95	622.7
950.5505	2215.3809	1498.15	622.5
950.6846	2216.8648	1499.85	623.25
950.8186	2218.3479	1497.3	617.7
950.9527	2219.8304	1499.25	618.7
951.0867	2221.3121	1492.55	613.65
951.2207	2222.7931	1486	609.45
951.3546	2224.2733	1486.65	609.05
951.4886	2225.7529	1483.3	605.7
951.6225	2227.2317	1488.8	610.4
951.7563	2228.7098	1478.35	602.5
951.8902	2230.1872	1474.5	597.45
952.024	2231.6638	1475.55	598.2
952.1578	2233.1397	1484.25	601.45
952.2916	2234.6149	1476.1	600.05
952.4253	2236.0894	1477.55	599.6
952.559	2237.5632	1486	600.15
952.6927	2239.0362	1469.2	594.3
952.8263	2240.5085	1464.65	586.75
952.9599	2241.9801	1461.45	584.8
953.0935	2243.4509	1465.75	590.15
953.2271	2244.921	1460.4	584.45
953.3606	2246.3904	1464.55	587.8
953.4941	2247.8591	1453.1	576.4
953.6276	2249.3271	1456.25	578.45
953.7611	2250.7943	1447.05	570.35
953.8945	2252.2608	1451	575.75
954.0279	2253.7266	1452.35	577.35
954.1612	2255.1917	1442.25	564.9
954.2946	2256.656	1440.3	562.45
954.4279	2258.1197	1434.3	558.75
954.5612	2259.5826	1438.8	559.3
954.6944	2261.0447	1449.8	571.1
954.8276	2262.5062	1439.3	558.05
954.9608	2263.9669	1435.3	556.4
955.094	2265.4269	1435.45	559.5
955.2271	2266.8862	1437.6	560.55
955.3602	2268.3448	1435.9	560
955.4933	2269.8026	1434.5	558.7
955.6264	2271.2598	1429.7	553.65
955.7594	2272.7162	1427.15	551.8
955.8924	2274.1719	1422.3	545.6
956.0253	2275.6268	1422.05	545.1
956.1583	2277.0811	1417.85	541.7
956.2912	2278.5346	1427.45	550
956.4241	2279.9874	1416.55	540.45
956.5569	2281.4395	1421	545.9
956.6897	2282.8908	1424.15	541.65
956.8225	2284.3414	1417	539.45
956.9553	2285.7914	1418	543.05
957.088	2287.2406	1410.6	532.4
957.2207	2288.689	1416.7	540.9
957.3534	2290.1368	1413.15	536.2
957.486	2291.5838	1417.05	538.4
957.6186	2293.0302	1414.1	536.3
957.7512	2294.4758	1412.1	536.45
957.8838	2295.9206	1408.4	530.2
958.0163	2297.3648	1404.5	527.5
958.1488	2298.8082	1415.9	539.7
958.2813	2300.251	1401.8	526
958.4137	2301.693	1406.4	525.9
958.5461	2303.1343	1404.65	527.15
958.6785	2304.5748	1396.7	519.5
958.8108	2306.0147	1400.45	523.2
958.9432	2307.4538	1396.95	519
959.0754	2308.8922	1389.25	514.65
959.2077	2310.3299	1390.35	512.95
959.3399	2311.7669	1388.2	511.35
959.4721	2313.2031	1387.25	509.45
959.6043	2314.6387	1387.15	510.65
959.7365	2316.0735	1388.9	512.5
959.8686	2317.5076	1376.1	499.25
960.0006	2318.941	1393.1	516.75
960.1327	2320.3737	1386.8	511.85
960.2647	2321.8056	1388.25	508.95
960.3967	2323.2369	1386.6	508.85
960.5287	2324.6674	1384.5	506.5
960.6606	2326.0972	1382.55	504.6
960.7925	2327.5263	1381.5	506.05
960.9244	2328.9547	1385.9	508.95
961.0562	2330.3823	1381.1	505.3
961.1881	2331.8092	1375.25	495.9
961.3198	2333.2355	1377.35	500.7
961.4516	2334.661	1364.2	486.25
961.5833	2336.0858	1371.2	494
961.715	2337.5098	1366.05	489.5
961.8467	2338.9332	1364.7	488.05
961.9783	2340.3558	1366.05	485.7
962.1099	2341.7778	1359.3	480.75
962.2415	2343.199	1368.7	489.15
962.373	2344.6195	1365.4	487.35
962.5045	2346.0393	1356.2	480.6
962.636	2347.4583	1359.5	482.9
962.7675	2348.8767	1367.1	489
962.8989	2350.2943	1361.95	485.1
963.0303	2351.7113	1354.15	476.05
963.1617	2353.1275	1362.3	486.25
963.293	2354.543	1367.45	481.05
963.4243	2355.9578	1359.75	483.9
963.5556	2357.3718	1356.1	480.55
963.6868	2358.7852	1356.15	477.15
963.818	2360.1978	1349.65	471.45
963.9492	2361.6098	1340.15	462.9
964.0803	2363.021	1350.3	466.85
964.2114	2364.4315	1342.9	466.9
964.3425	2365.8413	1350.05	471.25
964.4736	2367.2504	1343.55	470.2
964.6046	2368.6587	1345.6	467.4
964.7356	2370.0664	1343	468.25
964.8666	2371.4733	1340.35	462.1
964.9975	2372.8795	1342.55	463.95
965.1284	2374.285	1338.5	459.95
965.2593	2375.6899	1334.15	456.8
965.3901	2377.0939	1331.1	455.8
965.5209	2378.4973	1331.6	454.2
965.6517	2379.9	1335.5	457.3
965.7825	2381.3019	1330.05	455.65
965.9132	2382.7032	1331.65	455.05
966.0439	2384.1037	1331	455.4
966.1745	2385.5035	1325.5	447.75
966.3051	2386.9027	1323.15	446.75
966.4357	2388.3011	1322.7	441.8
966.5663	2389.6987	1330	452.95
966.6968	2391.0957	1324.3	449.45
966.8273	2392.492	1310.2	434.4
966.9578	2393.8876	1317.15	437.3
967.0882	2395.2824	1312.1	435.6
967.2186	2396.6765	1313.3	437.65
967.349	2398.07	1306.95	431.7
967.4793	2399.4627	1311.1	433.85
967.6097	2400.8547	1313.5	436.7
967.7399	2402.246	1316.25	433.5
967.8702	2403.6366	1303.45	426.25
968.0004	2405.0265	1303.05	426.1
968.1306	2406.4156	1306.75	425.15
968.2607	2407.8041	1300.95	421.6
968.3909	2409.1918	1304.9	425.1
968.521	2410.5789	1298.65	420.4
968.651	2411.9652	1306	425.9
968.781	2413.3508	1303.05	425.95
968.911	2414.7358	1297.25	420.65
969.041	2416.12	1293	417.5
969.1709	2417.5035	1293.1	417.75
969.3008	2418.8863	1292.15	413.6
969.4307	2420.2684	1291.65	415.25
969.5606	2421.6497	1294.7	418.85
969.6904	2423.0304	1293.6	416.55
969.8201	2424.4104	1294.85	417
969.9499	2425.7896	1286.45	406.55
970.0796	2427.1682	1281	404.65
970.2093	2428.546	1287.35	409.4
970.3389	2429.9232	1291.4	411.4
970.4685	2431.2996	1283.25	405.75
970.5981	2432.6753	1286.4	409.95
970.7277	2434.0503	1278.1	400
970.8572	2435.4246	1277.35	402.25
970.9867	2436.7982	1278.45	400.2
971.1161	2438.1711	1276.4	402.15
971.2456	2439.5433	1276.35	399.4
971.375	2440.9148	1274.7	397.4
971.5043	2442.2856	1269.3	391.65
971.6336	2443.6557	1279.1	399.35
971.7629	2445.025	1268.45	392.25
971.8922	2446.3937	1265.65	385.2
972.0214	2447.7617	1269.5	392.55
972.1506	2449.1289	1263.05	385.45
972.2798	2450.4955	1267.7	388.8
972.4089	2451.8613	1266.4	391.35
972.538	2453.2265	1262.2	385.3
972.6671	2454.5909	1267.1	389.55
972.7961	2455.9546	1261.5	384.1
972.9251	2457.3177	1260.05	384.05
973.0541	2458.68	1260.4	380.6
973.1831	2460.0416	1264.3	387.6
973.312	2461.4025	1261.75	383.15
973.4408	2462.7627	1263.1	374.65
973.5697	2464.1222	1258.65	382.85
973.6985	2465.4811	1257.4	377.45
973.8273	2466.8392	1256.95	379.1
973.956	2468.1966	1252.65	372.45
974.0847	2469.5533	1260.25	380.25
974.2134	2470.9093	1255.15	376.3
974.3421	2472.2645	1261.9	383.6
974.4707	2473.6191	1256.4	380.35
974.5993	2474.973	1249.3	372.25
974.7278	2476.3262	1255.6	377.55
974.8563	2477.6787	1247.5	370.25
974.9848	2479.0305	1244.85	369.4
975.1132	2480.3816	1252.75	373.45
975.2417	2481.7319	1245.55	366.8
975.37	2483.0816	1246.8	367.7
975.4984	2484.4306	1252.05	372.55
975.6267	2485.7789	1248.05	372.9
975.755	2487.1264	1249.95	371.4
975.8833	2488.4733	1238.5	361.95
976.0115	2489.8195	1245.8	363.2
976.1397	2491.165	1252.9	372.25
976.2678	2492.5097	1243.95	364.9
976.3959	2493.8538	1241.7	365.65
976.524	2495.1972	1235.95	358.25
976.6521	2496.5398	1241.55	363.25
976.7801	2497.8818	1239.5	359.55
976.9081	2499.2231	1239.95	362.2
977.036	2500.5637	1238.25	358.35
977.164	2501.9035	1234.95	356.7
977.2918	2503.2427	1235.8	355.5
977.4197	2504.5812	1233.65	357.45
977.5475	2505.919	1235.75	355.7
977.6753	2507.256	1229.75	353.3
977.8031	2508.5924	1233.05	355
977.9308	2509.9281	1240.45	356
978.0585	2511.2631	1225.2	348.9
978.1861	2512.5974	1226.7	349.2
978.3137	2513.9309	1230.1	353.9
978.4413	2515.2638	1249.9	343.55
978.5689	2516.596	1218.9	342.3
978.6964	2517.9275	1227.8	346.95
978.8239	2519.2583	1230.85	352.9
978.9513	2520.5884	1221.65	343.3
979.0788	2521.9178	1228.8	350.45
979.2062	2523.2465	1217.35	342.05
979.3335	2524.5745	1221.4	344.35
979.4608	2525.9018	1220.75	340.4
979.5881	2527.2284	1217.05	340.85
979.7154	2528.5543	1211.55	335.45
979.8426	2529.8796	1214	336.3
979.9698	2531.2041	1215.45	338.45
980.0969	2532.5279	1215.3	338.65
980.224	2533.851	1212.55	335.15
980.3511	2535.1735	1211.15	333.65
980.4781	2536.4952	1209.65	336.25
980.6052	2537.8163	1213.25	336.05
980.7321	2539.1366	1209.05	332.7
980.8591	2540.4562	1207.35	328.75
980.986	2541.7752	1207.1	330.05
981.1129	2543.0935	1204.55	328.6
981.2397	2544.411	1207.4	328.2
981.3665	2545.7279	1206.15	329.4
981.4933	2547.0441	1205.85	328.6
981.62	2548.3596	1205.45	325.75
981.7467	2549.6744	1201.65	324.95
981.8734	2550.9885	1209.6	325.55
982.0001	2552.3019	1202	325.4
982.1267	2553.6146	1197.5	318.9
982.2532	2554.9266	1206.6	329.9
982.3798	2556.2379	1202.8	324.4
982.5063	2557.5485	1199.4	322.9
982.6327	2558.8585	1207.05	323.3
982.7592	2560.1677	1202	322.25
982.8856	2561.4762	1204.55	325.9
983.0119	2562.7841	1196.7	316
983.1383	2564.0913	1194.5	318.8
983.2646	2565.3977	1198.2	318.25
983.3908	2566.7035	1197.35	319.85
983.517	2568.0086	1196.8	318.8
983.6432	2569.313	1195.25	318.1
983.7694	2570.6167	1196.1	315.95
983.8955	2571.9197	1193.05	316.65
984.0216	2573.222	1198.85	319.25
984.1476	2574.5236	1196.7	318.25
984.2737	2575.8246	1190.6	311.65
984.3996	2577.1248	1196.1	316.1
984.5256	2578.4244	1195.35	318.35
984.6515	2579.7232	1195.7	320.3
984.7774	2581.0214	1220.75	315.6
984.9032	2582.3189	1192.6	317.7
985.029	2583.6157	1195.85	316.05
985.1548	2584.9118	1193.25	315.8
985.2806	2586.2072	1191.1	313.4
985.4063	2587.5019	1188.4	311.4
985.5319	2588.7959	1192.95	313.65
985.6576	2590.0893	1194.3	316.8
985.7832	2591.3819	1187.8	310.1
985.9087	2592.6739	1193.4	318.25
986.0343	2593.9652	1191	311.25
986.1597	2595.2557	1187.8	312.85
986.2852	2596.5456	1197.55	320.95
986.4106	2597.8348	1193.15	317.75
986.536	2599.1234	1193.15	317
986.6614	2600.4112	1197.05	319.55
986.7867	2601.6983	1204	324.15
986.912	2602.9848	1193.35	315.65
987.0372	2604.2705	1204.8	320.5
987.1624	2605.5556	1193.05	313.85
987.2876	2606.84	1188.95	312.55
987.4128	2608.1237	1198.05	320.65
987.5379	2609.4067	1190.95	314.9
987.6629	2610.689	1198.6	313.15
987.788	2611.9707	1187.65	307.7
987.913	2613.2516	1187.05	304.4
988.0379	2614.5319	1180.8	304.05
988.1629	2615.8115	1184.9	308.3
988.2878	2617.0903	1177.1	297.7
988.4126	2618.3685	1181.75	304.75
988.5375	2619.6461	1178.05	300.15
988.6622	2620.9229	1179.25	302.8
988.787	2622.199	1177.85	299.6
988.9117	2623.4745	1173.25	296.1
989.0364	2624.7493	1176.3	300.1
989.161	2626.0234	1172.9	297.5
989.2857	2627.2968	1171.4	294.35
989.4102	2628.5695	1166.85	287.85
989.5348	2629.8415	1169.15	292.05
989.6593	2631.1128	1175.5	297.2
989.7837	2632.3835	1167.65	290.9
989.9082	2633.6535	1171.3	294.5
990.0326	2634.9228	1170	293.4
990.1569	2636.1914	1167.8	291.8
990.2812	2637.4593	1164.55	286.3
990.4055	2638.7265	1173.35	296.65
990.5298	2639.9931	1168.25	290.85
990.654	2641.259	1167.7	291.55
990.7782	2642.5242	1160.65	282.5
990.9023	2643.7887	1162.35	283.35
991.0264	2645.0525	1159.7	284.15
991.1505	2646.3156	1159.05	279.6
991.2745	2647.5781	1161	283.2
991.3985	2648.8398	1156.7	281.85
991.5225	2650.1009	1196.4	283.2
991.6464	2651.3613	1157.5	280.4
991.7703	2652.6211	1157.15	278.75
991.8942	2653.8801	1154.5	277.95
992.018	2655.1385	1152.75	272.65
992.1418	2656.3961	1150.45	272.75
992.2655	2657.6531	1148.45	271.7
992.3892	2658.9094	1151.3	274.15
992.5129	2660.1651	1143.6	266.65
992.6366	2661.42	1148.6	270.55
992.7602	2662.6743	1151.3	272.65
992.8837	2663.9279	1152.1	276.15
993.0073	2665.1808	1153.7	276.4
993.1307	2666.433	1153.95	276.95
993.2542	2667.6846	1150.55	273.55
993.3776	2668.9354	1153.25	273.55
993.501	2670.1856	1156.8	280.1
993.6244	2671.4351	1156.5	279.2
993.7477	2672.6839	1160.05	284.05
993.8709	2673.9321	1160.9	283.2
993.9942	2675.1795	1157.75	280.35
994.1174	2676.4263	1162.95	284.85
994.2405	2677.6724	1157.45	282.7
994.3637	2678.9179	1158.25	282.05
994.4868	2680.1626	1159	283.2
994.6098	2681.4067	1162.05	284.65
994.7328	2682.6501	1158.5	282.6
994.8558	2683.8928	1160.1	283.25
994.9788	2685.1348	1151.4	273.65
995.1017	2686.3761	1149.45	271.9
995.2245	2687.6168	1150.9	274.9
995.3474	2688.8568	1143.85	266.65
995.4702	2690.0961	1138.5	262.1
995.5929	2691.3348	1137.45	262.85
995.7156	2692.5727	1141.7	264.25
995.8383	2693.81	1133.35	254.25
995.961	2695.0466	1134.6	258.5
996.0836	2696.2826	1132.55	255.05
996.2062	2697.5178	1156	259.45
996.3287	2698.7524	1137.25	261.55
996.4512	2699.9863	1141.6	263.1
996.5737	2701.2195	1137.85	260.85
996.6961	2702.452	1141.1	263.25
996.8185	2703.6839	1144.6	266.65
996.9408	2704.9151	1142.15	267.8
997.0631	2706.1456	1144.1	266.85
997.1854	2707.3755	1146.85	268.95
997.3077	2708.6046	1151.1	272
997.4299	2709.8331	1149.45	272.45
997.552	2711.0609	1151.95	274.95
997.6742	2712.2881	1154.3	277.75
997.7963	2713.5145	1159.65	279.95
997.9183	2714.7403	1154.75	278.2
998.0403	2715.9654	1163.35	285.8
998.1623	2717.1899	1176.45	282.7
998.2842	2718.4136	1165.4	290.3
998.4062	2719.6367	1175.95	298.25
998.528	2720.8591	1189.35	307.6
998.6498	2722.0809	1179.55	302.2
998.7716	2723.3019	1189.35	309.05
998.8934	2724.5223	1187.7	311.9
999.0151	2725.7421	1189.2	309.5
999.1368	2726.9611	1187.6	306
999.2584	2728.1795	1187.1	305.5
999.38	2729.3972	1175	299.05
999.5016	2730.6142	1174.15	288.25
999.6231	2731.8306	1161.85	285.6
999.7446	2733.0462	1164.45	287
999.8661	2734.2612	1159.05	276.35
999.9875	2735.4756	1149.1	271.7
1000.1089	2736.6892	1141.7	264.4
1000.2302	2737.9022	1142.25	266.5
1000.3515	2739.1145	1140.45	265.7
1000.4728	2740.3262	1140.4	255.05
1000.594	2741.5372	1131.3	256
1000.7152	2742.7475	1126.85	249.65
1000.8363	2743.9571	1130	251.5
1000.9575	2745.1661	1129.2	246.45
1001.0785	2746.3744	1122.35	242.8
1001.1996	2747.582	1117.1	239.75
1001.3206	2748.7889	1117.75	238.65
1001.4415	2749.9952	1108.7	231.25
1001.5625	2751.2008	1109.75	230.7
1001.6833	2752.4057	1109.1	230
1001.8042	2753.61	1103.7	225.6
1001.925	2754.8136	1101.2	222.5
1002.0458	2756.0165	1100.5	224.45
1002.1665	2757.2188	1101.55	225.25
1002.2872	2758.4204	1098.4	221.55
1002.4078	2759.6213	1107.1	226.7
1002.5285	2760.8215	1102.35	222.55
1002.649	2762.0211	1105.2	225.2
1002.7696	2763.22	1097.5	216.15
1002.8901	2764.4182	1098.75	221.6
1003.0106	2765.6158	1102.55	223.8
1003.131	2766.8127	1097.85	221.4
1003.2514	2768.009	1094.85	219.3
1003.3717	2769.2045	1099.3	221.05
1003.492	2770.3994	1096.9	217.75
1003.6123	2771.5936	1092.8	214.8
1003.7325	2772.7872	1087.2	210.6
1003.8527	2773.9801	1081.2	203.5
1003.9729	2775.1723	1100.7	206.35
1004.093	2776.3639	1085.3	210.05
1004.2131	2777.5548	1089.5	211.2
1004.3331	2778.745	1088.3	209.1
1004.4531	2779.9346	1085.3	208.35
1004.5731	2781.1235	1084.25	205.85
1004.693	2782.3117	1083.9	208.35
1004.8129	2783.4992	1085.15	206.7
1004.9328	2784.6861	1083.3	206.15
1005.0526	2785.8723	1085.7	206.25
1005.1723	2787.0579	1087.55	211.05
1005.2921	2788.2428	1089.8	213.65
1005.4118	2789.427	1080.45	205.45
1005.5314	2790.6106	1086.15	210.45
1005.651	2791.7935	1083.95	205.05
1005.7706	2792.9757	1089	212.75
1005.8902	2794.1573	1091.7	213.35
1006.0097	2795.3382	1089.6	212.2
1006.1291	2796.5184	1084.6	208.5
1006.2485	2797.698	1092.65	214.6
1006.3679	2798.8769	1094	216.05
1006.4873	2800.0551	1090.55	212.6
1006.6066	2801.2327	1096.4	217.55
1006.7258	2802.4096	1099.55	223.05
1006.8451	2803.5859	1097.6	219.85
1006.9642	2804.7615	1099.85	223.35
1007.0834	2805.9364	1105.85	229.45
1007.2025	2807.1106	1107.45	231.05
1007.3216	2808.2842	1111.4	233.3
1007.4406	2809.4572	1115.85	238.5
1007.5596	2810.6294	1121.35	243.7
1007.6785	2811.801	1129.4	253.45
1007.7975	2812.972	1134.7	259.95
1007.9163	2814.1423	1139.35	263.45
1008.0352	2815.3119	1149.65	274.35
1008.154	2816.4808	1165.15	288.8
1008.2727	2817.6491	1180.2	302.6
1008.3914	2818.8167	1195.4	320
1008.5101	2819.9837	1225.25	343.4
1008.6288	2821.15	1241.35	368.15
1008.7474	2822.3157	1270.55	395.15
1008.8659	2823.4807	1300.7	424.05
1008.9844	2824.645	1335.8	456.65
1009.1029	2825.8086	1379.7	503.6
1009.2214	2826.9716	1420.75	545.35
1009.3398	2828.134	1454.75	580.55
1009.4581	2829.2957	1491.05	612.25
1009.5764	2830.4567	1518.7	642.7
1009.6947	2831.617	1526.9	649.65
1009.813	2832.7767	1548.35	674.15
1009.9312	2833.9358	1545.45	669.85
1010.0493	2835.0941	1538.9	661.05
1010.1675	2836.2519	1522.4	645.8
1010.2855	2837.4089	1512	633.45
1010.4036	2838.5653	1492.1	614.85
1010.5216	2839.7211	1479.45	603.8
1010.6396	2840.8761	1469.75	589.9
1010.7575	2842.0306	1462.7	587.95
1010.8754	2843.1843	1468.7	592.65
1010.9932	2844.3374	1466.6	590.25
1011.111	2845.4899	1485.1	604.55
1011.2288	2846.6417	1491.5	614.05
1011.3465	2847.7928	1504.45	628
1011.4642	2848.9433	1501.15	625.2
1011.5818	2850.0931	1508.55	632.45
1011.6995	2851.2422	1515.8	638.85
1011.817	2852.3907	1515.75	637.55
1011.9345	2853.5385	1526.6	647.85
1012.052	2854.6857	1551.7	647.1
1012.1695	2855.8323	1531.35	655.55
1012.2869	2856.9781	1544	667
1012.4042	2858.1233	1551.95	674.95
1012.5216	2859.2679	1573.75	695.9
1012.6389	2860.4118	1593.95	719.35
1012.7561	2861.555	1609.05	728.6
1012.8733	2862.6976	1624.4	746.8
1012.9905	2863.8395	1636.55	760.05
1013.1076	2864.9808	1645.35	768.3
1013.2247	2866.1214	1650.75	776.05
1013.3417	2867.2614	1663.95	786.65
1013.4587	2868.4007	1671	793.2
1013.5757	2869.5393	1684.4	804.85
1013.6926	2870.6773	1694.5	814.95
1013.8095	2871.8146	1713.8	834.4
1013.9263	2872.9513	1719.4	841.7
1014.0431	2874.0874	1728.35	852.1
1014.1599	2875.2227	1740.8	863.6
1014.2766	2876.3574	1748.1	871.5
1014.3933	2877.4915	1761.7	884.8
1014.51	2878.6249	1770.3	894.35
1014.6266	2879.7577	1775.8	897.6
1014.7431	2880.8898	1799.9	911.2
1014.8596	2882.0212	1806.4	931.35
1014.9761	2883.152	1828.2	950.9
1015.0925	2884.2821	1824.9	949.95
1015.2089	2885.4116	1851.8	976.2
1015.3253	2886.5405	1851.25	975.3
1015.4416	2887.6686	1859.6	978.7
1015.5579	2888.7962	1852.2	976.6
1015.6741	2889.923	1854.7	978.2
1015.7903	2891.0493	1859.4	983.35
1015.9065	2892.1748	1852.85	976.25
1016.0226	2893.2997	1849.75	970.8
1016.1387	2894.424	1860.65	986.05
1016.2547	2895.5476	1852.55	975.65
1016.3707	2896.6706	1854.5	979.4
1016.4866	2897.7929	1859.85	980.85
1016.6025	2898.9145	1852.7	976.2
1016.7184	2900.0355	1859.45	982
1016.8342	2901.1559	1848.9	970.8
1016.95	2902.2756	1850.5	966.2
1017.0658	2903.3946	1835.8	959
1017.1815	2904.513	1830.5	948.55
1017.2971	2905.6308	1822.2	946.3
1017.4127	2906.7479	1817.1	938.95
1017.5283	2907.8643	1826.9	948.25
1017.6439	2908.9801	1821	945.15
1017.7594	2910.0953	1815.15	939.05
1017.8748	2911.2098	1818.05	938.45
1017.9902	2912.3236	1818.55	933.35
1018.1056	2913.4368	1808.75	929.55
1018.2209	2914.5494	1810.25	933.4
1018.3362	2915.6613	1798.35	914.55
1018.4515	2916.7725	1789.6	909.6
1018.5667	2917.8831	1775.45	897.35
1018.6819	2918.9931	1758.75	876.95
1018.797	2920.1024	1742.2	864.05
1018.9121	2921.211	1740.95	863.4
1019.0271	2922.319	1723.25	847.75
1019.1421	2923.4264	1721.7	847.35
1019.2571	2924.5331	1705.95	831.45
1019.372	2925.6391	1713.1	835.1
1019.4869	2926.7445	1711.9	836.15
1019.6017	2927.8493	1715.85	839.05
1019.7165	2928.9534	1711.45	833.6
1019.8313	2930.0569	1718.7	838.15
1019.946	2931.1597	1734.15	856.85
1020.0606	2932.2619	1731.15	854.65
1020.1753	2933.3634	1730.35	854.75
1020.2899	2934.4643	1752.8	869.7
1020.4044	2935.5645	1754.7	872.55
1020.5189	2936.6641	1760.4	881.7
1020.6334	2937.763	1763.35	889.9
1020.7478	2938.8613	1769.65	890.95
1020.8622	2939.959	1754	870.9
1020.9765	2941.056	1739.45	863.4
1021.0908	2942.1523	1706.05	827.8
1021.2051	2943.248	1668.15	790
1021.3193	2944.3431	1638.25	763.15
1021.4334	2945.4375	1594.25	717.1
1021.5476	2946.5313	1557.75	683
1021.6617	2947.6244	1521.65	644.6
1021.7757	2948.7169	1498.85	621.65
1021.8897	2949.8087	1453.1	575.3
1022.0037	2950.8999	1425.6	549.1
1022.1176	2951.9904	1399.75	522.95
1022.2315	2953.0803	1382.3	504.95
1022.3453	2954.1696	1356.75	481.05
1022.4591	2955.2582	1340.5	465.15
1022.5728	2956.3462	1328.3	452.4
1022.6865	2957.4335	1325.15	446.65
1022.8002	2958.5202	1318.45	439.65
1022.9138	2959.6062	1315.55	436.15
1023.0274	2960.6916	1323.75	449.4
1023.141	2961.7764	1317.95	439.6
1023.2545	2962.8605	1311.1	433.2
1023.3679	2963.9439	1321	445.05
1023.4813	2965.0267	1318.05	441.9
1023.5947	2966.1089	1336.55	438.6
1023.708	2967.1905	1305.45	430.6
1023.8213	2968.2714	1301.25	425.5
1023.9346	2969.3516	1290.5	414.55
1024.0478	2970.4312	1300	416.3
1024.1609	2971.5102	1286.3	411.55
1024.274	2972.5885	1287.4	410.6
1024.3871	2973.6662	1305.65	425.95
1024.5002	2974.7432	1300.4	424.75
1024.6132	2975.8196	1292.15	414.6
1024.7261	2976.8954	1297.35	423.15
1024.839	2977.9705	1297.55	420.95
1024.9519	2979.045	1291.65	416.2
1025.0647	2980.1188	1298.85	422.5
1025.1775	2981.192	1288.95	411.3
1025.2902	2982.2645	1283.4	405.8
1025.4029	2983.3364	1273.5	397.9
1025.5156	2984.4077	1260	383.7
1025.6282	2985.4783	1255.35	374.15
1025.7407	2986.5483	1235.9	360.5
1025.8532	2987.6177	1228.45	353.65
1025.9657	2988.6864	1217.65	339.5
1026.0782	2989.7545	1208.3	329
1026.1906	2990.8219	1192.75	318.3
1026.3029	2991.8887	1187.65	307.05
1026.4152	2992.9548	1170.55	294.7
1026.5275	2994.0204	1157.7	281.65
1026.6397	2995.0852	1153.1	279.3
1026.7519	2996.1495	1133.45	256.55
1026.864	2997.2131	1121.95	245.6
1026.9761	2998.276	1113.6	238.1
1027.0882	2999.3383	1094.3	217.8
1027.2002	3000.4	1088.85	211.95
1027.3122	3001.4611	1077.15	198.8
1027.4241	3002.5215	1071.9	196.5
1027.536	3003.5812	1058.6	184.1
1027.6478	3004.6404	1056.45	179.65
1027.7596	3005.6989	1049.8	172.6
1027.8714	3006.7567	1047.9	171.6
1027.9831	3007.8139	1072.9	166.7
1028.0947	3008.8705	1039.3	163.65
1028.2064	3009.9264	1038.15	158.45
1028.3179	3010.9818	1031.25	154.3
1028.4295	3012.0364	1029.25	153.1
1028.541	3013.0905	1024.1	148.1
1028.6524	3014.1439	1022.2	146.25
1028.7638	3015.1966	1017.95	141.8
1028.8752	3016.2487	1019.55	142.3
1028.9865	3017.3002	1022	139.7
1029.0978	3018.3511	1011.5	137
1029.209	3019.4013	1015.7	140.35
1029.3202	3020.4509	1010.4	134.05
1029.4314	3021.4998	1014.05	136.75
1029.5425	3022.5481	1014.8	137.75
1029.6535	3023.5958	1008.75	133.25
1029.7645	3024.6428	1007.85	130.05
1029.8755	3025.6892	1007.75	132.5
1029.9864	3026.735	1011.3	133.95
1030.0973	3027.7802	1009.8	136
1030.2082	3028.8247	1002.95	125.2
1030.319	3029.8685	1005.25	127.6
1030.4297	3030.9118	1008.55	131.55
1030.5404	3031.9544	1004.5	129.8
1030.6511	3032.9963	1006.5	128.3
1030.7617	3034.0376	1004.1	129.75
1030.8723	3035.0783	1008.75	128.45
1030.9829	3036.1184	1010.3	134.25
1031.0934	3037.1578	1002.75	127
1031.2038	3038.1966	1009.5	130.6
1031.3142	3039.2348	1008.15	134.05
1031.4246	3040.2723	1019.3	132.8
1031.5349	3041.3092	1010.3	135.7
1031.6452	3042.3455	1010.85	133.05
1031.7554	3043.3811	1010	133.35
1031.8656	3044.4161	1017	139.5
1031.9758	3045.4505	1011.05	135.35
1032.0859	3046.4842	1012.6	134.15
1032.1959	3047.5173	1010.2	134.6
1032.3059	3048.5498	1010.35	132.15
1032.4159	3049.5816	1006.9	130.9
1032.5258	3050.6128	1012.85	134.9
1032.6357	3051.6434	1014.05	135.4
1032.7455	3052.6734	1011.75	133.35
1032.8553	3053.7027	1007.85	129.25
1032.9651	3054.7314	1009.1	133.65
1033.0748	3055.7594	1011.2	135.7
1033.1845	3056.7868	1013.2	135.3
1033.2941	3057.8136	1012.8	135.75
1033.4037	3058.8398	1012.9	136.6
1033.5132	3059.8653	1012.7	137.2
1033.6227	3060.8902	1016.55	140.4
1033.7321	3061.9145	1016.8	139.35
1033.8415	3062.9381	1017.1	140.95
1033.9509	3063.9612	1036.7	146.4
1034.0602	3064.9835	1018.25	141.95
1034.1694	3066.0053	1022.6	144.15
1034.2787	3067.0264	1021	143.15
1034.3878	3068.0469	1022.25	146.7
1034.497	3069.0668	1020.3	142.85
1034.6061	3070.086	1020.35	145.15
1034.7151	3071.1046	1011.2	135.45
1034.8241	3072.1226	1018.55	140.95
1034.9331	3073.1399	1011.4	135.25
1035.042	3074.1567	1008.85	129.7
1035.1508	3075.1727	1013.9	136.25
1035.2597	3076.1882	1004.95	128.7
1035.3684	3077.203	1005.45	128.15
1035.4772	3078.2173	1001.3	123.6
1035.5859	3079.2308	1003.05	122.8
1035.6945	3080.2438	998.35	120.7
1035.8031	3081.2561	992.6	116.25
1035.9117	3082.2678	986.85	110.7
1036.0202	3083.2789	986.3	109.95
1036.1286	3084.2893	987.8	112.9
1036.2371	3085.2991	979.35	101.4
1036.3454	3086.3083	984	102.75
1036.4538	3087.3169	981.75	102.35
1036.562	3088.3248	978.1	100
1036.6703	3089.3321	975.85	98.85
1036.7785	3090.3388	977.05	100.2
1036.8866	3091.3449	971.65	96.4
1036.9948	3092.3503	976.8	98.95
1037.1028	3093.3551	970.55	96.1
1037.2108	3094.3593	969.15	95.25
1037.3188	3095.3629	968.2	91.55
1037.4267	3096.3658	971.5	94
1037.5346	3097.3681	970.85	93.95
1037.6425	3098.3698	966	88.15
1037.7503	3099.3708	960.35	82.6
1037.858	3100.3713	962.2	87.4
1037.9657	3101.3711	960.4	82.8
1038.0734	3102.3702	1097.45	83.4
1038.181	3103.3688	964.8	88.45
1038.2886	3104.3667	960.25	84.3
1038.3961	3105.364	959.6	82.3
1038.5036	3106.3607	959.6	83.15
1038.611	3107.3568	960	82.3
1038.7184	3108.3522	953.65	77.75
1038.8257	3109.347	954.15	77.2
1038.933	3110.3412	955.35	76
1039.0403	3111.3348	953	77
1039.1475	3112.3277	952.55	76
1039.2547	3113.32	950.85	75.5
1039.3618	3114.3117	949.65	74.3
1039.4689	3115.3028	949.35	74.05
1039.5759	3116.2932	947.15	67.25
1039.6829	3117.2831	951.4	69.95
1039.7898	3118.2723	943.15	67
1039.8967	3119.2608	945.4	69.3
1040.0035	3120.2488	943.7	67.6
1040.1103	3121.2361	942.2	66.8
1040.2171	3122.2229	943.2	67.5
1040.3238	3123.209	942.75	65.3
1040.4305	3124.1944	940.45	64.25
1040.5371	3125.1793	941.9	63.25
1040.6437	3126.1635	937	60
1040.7502	3127.1471	937.45	61.75
1040.8567	3128.1301	938.35	61.95
1040.9631	3129.1125	933.2	58.55
1041.0695	3130.0942	936.85	57.35
1041.1759	3131.0753	941.15	57.35
1041.2822	3132.0558	938.05	59.05
1041.3884	3133.0357	934.65	56.75
1041.4946	3134.015	936.95	61.5
1041.6008	3134.9936	932.95	55.05
1041.7069	3135.9716	953	53.15
1041.813	3136.949	931.3	54.95
1041.919	3137.9258	949.2	55.05
1042.025	3138.902	937.3	56.65
1042.1309	3139.8775	931.5	56.3
1042.2368	3140.8524	929.2	54.4
1042.3427	3141.8267	930.9	52.9
1042.4485	3142.8004	929.2	53.2
1042.5542	3143.7735	937.45	55.5
1042.6599	3144.7459	930.15	52.95
1042.7656	3145.7178	928.8	52.25
1042.8712	3146.689	927.2	53.6
1042.9768	3147.6596	931.05	52.4
1043.0823	3148.6295	930.4	53.15
1043.1878	3149.5989	927.85	51.3
1043.2932	3150.5676	925.4	51.9
1043.3986	3151.5357	924.55	50.25
1043.5039	3152.5032	924.8	50.2
1043.6092	3153.4701	925.35	50.1
1043.7145	3154.4364	928.7	49.6
1043.8197	3155.402	921.8	44.7
1043.9248	3156.367	923.85	46.15
1044.03	3157.3315	962.05	48.05
1044.135	3158.2952	924.55	49.4
1044.24	3159.2584	922	46.55
1044.345	3160.221	921.05	43.35
1044.4499	3161.1829	924.35	46.9
1044.5548	3162.1442	923.7	49.55
1044.6596	3163.105	923.6	47.55
1044.7644	3164.065	920.95	44.7
1044.8692	3165.0245	927.5	50.65
1044.9739	3165.9834	923.4	50
1045.0785	3166.9416	922.45	46.5
1045.1831	3167.8993	920.8	44.65
1045.2877	3168.8563	920.85	42.25
1045.3922	3169.8127	917.6	40.05
1045.4966	3170.7684	922.95	45.55
1045.6011	3171.7236	920.55	42.65
1045.7054	3172.6782	919.45	43.1
1045.8098	3173.6321	919.65	43.55
1045.914	3174.5854	922.55	40.9
1046.0183	3175.5381	918.15	41.9
1046.1224	3176.4902	918.45	42.65
1046.2266	3177.4417	918.9	42.75
1046.3307	3178.3926	917	42.25
1046.4347	3179.3428	919.05	43.3
1046.5387	3180.2924	915.9	40.95
1046.6427	3181.2415	918.3	42.9
1046.7466	3182.1899	918.9	41.55
1046.8504	3183.1377	915.4	38.2
1046.9542	3184.0848	919.5	39.1
1047.058	3185.0314	913.2	35.15
1047.1617	3185.9773	915.3	37.35
1047.2654	3186.9227	915.95	38.95
1047.369	3187.8674	914.1	37.4
1047.4726	3188.8115	920.4	38.75
1047.5761	3189.755	912.55	38.1
1047.6796	3190.6979	916.6	39.55
1047.783	3191.6402	913.2	39
1047.8864	3192.5818	913.35	37.1
1047.9898	3193.5229	939.65	39.05
1048.0931	3194.4633	913.05	39.85
1048.1963	3195.4031	912.4	35.4
1048.2995	3196.3423	912.5	35.5
1048.4027	3197.2809	910	32.95
1048.5058	3198.2189	913.3	37.2
1048.6089	3199.1563	916.35	34.45
1048.7119	3200.0931	910.75	37.9
1048.8148	3201.0292	910.4	33.8
1048.9178	3201.9648	911.85	38
1049.0206	3202.8997	913.05	33.25
1049.1235	3203.834	910.35	33.6
1049.2262	3204.7677	910.75	35.35
1049.329	3205.7008	912.65	33.2
1049.4317	3206.6333	908.7	33.3
1049.5343	3207.5652	911.15	34.4
1049.6369	3208.4964	911.95	34.9
1049.7394	3209.4271	910.05	35.45
1049.8419	3210.3571	908.95	30.95
1049.9444	3211.2865	910.2	34
1050.0468	3212.2154	908.1	29.35
1050.1491	3213.1436	913.65	34.25
1050.2514	3214.0712	917.65	34.65
1050.3537	3214.9982	909.1	33.7
1050.4559	3215.9246	908.85	34.35
1050.5581	3216.8503	907.45	30.7
1050.6602	3217.7755	905.75	28.55
1050.7623	3218.7001	904.85	27.15
1050.8643	3219.624	908.35	30.9
1050.9663	3220.5473	909.05	33.1
1051.0682	3221.4701	909.35	34.3
1051.1701	3222.3922	908.8	32.6
1051.2719	3223.3137	909	33.35
1051.3737	3224.2346	906.5	29.75
1051.4754	3225.1549	906.65	31.55
1051.5771	3226.0746	907.4	31.25
1051.6788	3226.9937	907.15	29.85
1051.7804	3227.9121	904.55	31.4
1051.8819	3228.83	904.8	26.55
1051.9834	3229.7473	905.8	30.55
1052.0849	3230.6639	906.5	30.35
1052.1863	3231.5799	901.4	25.4
1052.2876	3232.4954	903.75	27.25
1052.3889	3233.4102	905.5	29.15
1052.4902	3234.3244	903.8	24.85
1052.5914	3235.238	906.7	31.3
1052.6926	3236.151	918.6	28.3
1052.7937	3237.0634	902.4	26
1052.8948	3237.9752	904.2	28
1052.9958	3238.8864	901.45	25.1
1053.0968	3239.797	902.9	26.75
1053.1977	3240.7069	903.15	26.15
1053.2986	3241.6163	906.15	29.5
1053.3994	3242.5251	903.5	29
1053.5002	3243.4332	901.15	25.35
1053.6009	3244.3408	901.5	27.65
1053.7016	3245.2477	903.3	27.4
1053.8022	3246.154	900.35	22.1
1053.9028	3247.0598	900.75	22.6
1054.0034	3247.9649	898	20.45
1054.1039	3248.8694	901.95	25.8
1054.2043	3249.7733	903.35	26.1
1054.3047	3250.6766	898.25	22.65
1054.4051	3251.5793	900.4	22.6
1054.5054	3252.4814	899.65	24.55
1054.6056	3253.3829	898.8	22.95
1054.7058	3254.2838	900.85	25.2
1054.806	3255.1841	898.6	21.6
1054.9061	3256.0838	900.15	23.85
1055.0061	3256.9829	899.8	24.05
1055.1062	3257.8814	902.25	24.4
1055.2061	3258.7792	902.7	24.9
1055.306	3259.6765	899.05	20.5
1055.4059	3260.5731	896.6	23.4
1055.5057	3261.4692	896.65	18.5
1055.6055	3262.3647	897.2	20.65
1055.7052	3263.2595	896.9	19.9
1055.8049	3264.1538	897.4	21.5
1055.9045	3265.0474	897.9	21.1
1056.0041	3265.9404	895.15	17.55
1056.1036	3266.8329	895.1	21.35
1056.2031	3267.7247	905.4	19.9
1056.3025	3268.616	894.15	19.85
1056.4019	3269.5066	895.1	16
1056.5013	3270.3966	896.95	18.05
1056.6005	3271.286	892.6	17.65
