Software Version:	3.9.2.0
Unit SN:	10000200
Spectrometer SN:	6960
Date:	3/8/2024 2:05:08 PM
Data Line Index:	25
Spectral Points:	2048
Integration time (ms):	125
Averages:	20
Delay (ms):	30000
Sequence Number:	1
Processing:	dark subtract
Laser Power (mW):	300
Laser Current (mA):	823
Laser Diode Temp (C):	25
Laser Case Temp (C):	26.2
System Temp (C):	26.2
Spectrometer Temp (C):	24
CCD Temp (C):	0.005
Secondary Temp (C):	20.013
Heatsink Temp (C):	21.132
CCDPCB Temp (C):	36.274
SecondaryPCB Temp (C):	29.537

Wavelength	RamanShift	Raw Counts	Dark Subtracted
787.061	30.1047	463	54.35
787.2016	32.3739	465.7	60.35
787.3422	34.6426	468.05	62.6
787.4828	36.9109	477.35	68.65
787.6235	39.1787	484.25	72.9
787.7642	41.4461	493.15	77.3
787.9049	43.7131	504.15	84.25
788.0456	45.9796	510.75	88.4
788.1863	48.2456	518.55	91.25
788.3271	50.5112	528.45	97.5
788.4679	52.7764	537.9	104.15
788.6087	55.0411	550.8	112.9
788.7496	57.3054	566.2	121.75
788.8904	59.5692	572.2	127.2
789.0313	61.8326	583.3	136.15
789.1722	64.0955	597.7	146
789.3132	66.3579	614.6	159
789.4541	68.6199	633.45	172
789.5951	70.8815	671.9	205.35
789.7361	73.1426	754.15	284.4
789.8771	75.4032	960.65	488.25
790.0181	77.6634	1476.8	1000.65
790.1592	79.9231	2713.55	2229
790.3003	82.1824	5365.5	4866.1
790.4414	84.4412	10134.95	9609.45
790.5825	86.6995	16703.75	16146.25
790.7237	88.9574	23068.15	22480.25
790.8648	91.2148	27515.15	26910.9
791.006	93.4717	29595.8	28977.5
791.1472	95.7282	30113.5	29490.9
791.2885	97.9842	30088.15	29465.15
791.4297	100.2398	29594.9	28965.6
791.571	102.4949	29013.55	28379.55
791.7123	104.7495	28280.45	27643.85
791.8536	107.0036	27511.35	26872.95
791.9949	109.2573	26778.85	26145.4
792.1363	111.5105	26076.8	25433.75
792.2777	113.7632	25344.05	24701.5
792.4191	116.0154	24772.05	24121.1
792.5605	118.2672	24348.25	23702.25
792.7019	120.5185	23857.3	23206.1
792.8434	122.7693	23505.65	22855.7
792.9849	125.0197	23213.9	22558.5
793.1264	127.2696	22974.85	22319.9
793.2679	129.519	22828.15	22166.25
793.4094	131.7679	22644.75	21980.7
793.551	134.0163	22516.15	21845.45
793.6926	136.2642	22338.3	21669.3
793.8342	138.5117	22169.2	21493.85
793.9758	140.7587	21946.65	21273.65
794.1175	143.0052	21794.7	21118.7
794.2591	145.2512	21546	20866.85
794.4008	147.4967	21344.95	20666.15
794.5425	149.7417	21174	20488.6
794.6842	151.9863	21084.85	20399.4
794.826	154.2304	21056.25	20362.75
794.9677	156.4739	20934.95	20239.35
795.1095	158.717	20867.55	20164.9
795.2513	160.9596	20745.9	20041.95
795.3931	163.2017	20457.35	19755.8
795.535	165.4433	20205.25	19499.25
795.6768	167.6844	19886.7	19183.4
795.8187	169.925	19585.7	18876.7
795.9606	172.1651	19229.75	18520.2
796.1025	174.4047	18951.7	18238
796.2445	176.6439	18719.1	18000
796.3864	178.8825	18482.4	17762.8
796.5284	181.1206	18341.85	17615.55
796.6704	183.3582	18193.75	17462.55
796.8124	185.5954	18089.2	17356.55
796.9544	187.832	18023.75	17287.85
797.0965	190.0681	17984.8	17245.85
797.2386	192.3037	18013.5	17271.55
797.3806	194.5388	18030.5	17287.7
797.5228	196.7734	18076.85	17329.95
797.6649	199.0075	18164	17416.1
797.807	201.2411	18330.35	17585.1
797.9492	203.4742	18381.6	17634.9
798.0914	205.7068	18574.8	17820.35
798.2336	207.9389	18671.8	17920.6
798.3758	210.1704	18839.75	18098
798.518	212.4015	18954.4	18218.95
798.6603	214.632	19177.6	18446.95
798.8025	216.862	19357.95	18629.3
798.9448	219.0915	19519.3	18784.65
799.0871	221.3205	19766.8	19029.45
799.2294	223.549	20001.5	19271.8
799.3718	225.777	20346.6	19611.9
799.5141	228.0044	20719.5	19981.45
799.6565	230.2314	21205.35	20466.9
799.7989	232.4578	21641.45	20897.8
799.9413	234.6837	22006.8	21253.85
800.0837	236.909	22207.75	21451.15
800.2262	239.1339	22234.35	21451.7
800.3687	241.3582	22028.2	21260.7
800.5111	243.582	21663.25	20868.55
800.6536	245.8053	21360.4	20576.15
800.7961	248.0281	21024.1	20247.45
800.9387	250.2503	20786.65	20005.85
801.0812	252.472	20655.8	19871.5
801.2238	254.6932	20621.95	19838.35
801.3664	256.9139	20536.45	19754.45
801.509	259.134	20548.2	19761.35
801.6516	261.3536	20517.05	19733.95
801.7942	263.5727	20626.5	19841.45
801.9369	265.7912	20560.8	19772.2
802.0795	268.0092	20591.5	19807.1
802.2222	270.2267	20509.95	19719
802.3649	272.4436	20527.4	19740.3
802.5076	274.6601	20464.1	19665.3
802.6504	276.8759	20422.95	19630.55
802.7931	279.0913	20419.35	19623.8
802.9359	281.3061	20398.3	19605
803.0787	283.5204	20470.3	19668.25
803.2215	285.7341	20534.8	19734.6
803.3643	287.9473	20772.4	19961.55
803.5071	290.16	21000	20196
803.6499	292.3721	21317.2	20519.05
803.7928	294.5837	21711.1	20909.25
803.9357	296.7947	22060.8	21259.1
804.0786	299.0052	22277.9	21478.8
804.2215	301.2152	22151.25	21344.7
804.3644	303.4246	21845.35	21046.95
804.5074	305.6334	21316.75	20518.7
804.6503	307.8418	20834.7	20028.2
804.7933	310.0495	20404.85	19600.95
804.9363	312.2568	20119.1	19311.35
805.0793	314.4635	19878.95	19069.95
805.2223	316.6696	19817.55	19007.95
805.3653	318.8752	19766.35	18946.55
805.5084	321.0802	19827.55	19013.75
805.6514	323.2847	19960.65	19146.1
805.7945	325.4887	20026.8	19209.25
805.9376	327.692	19996.35	19179.75
806.0807	329.8949	19883.45	19066.05
806.2238	332.0972	19632.25	18815.15
806.367	334.2989	19329.1	18504.9
806.5101	336.5001	19123.7	18299.6
806.6533	338.7007	18898.7	18074.05
806.7965	340.9008	18806.65	17980.9
806.9397	343.1003	18725.9	17898.15
807.0829	345.2992	18668.95	17841.85
807.2261	347.4976	18663.55	17837.15
807.3693	349.6955	18658.75	17824.25
807.5126	351.8927	18734.4	17903.75
807.6559	354.0895	18777.95	17935.9
807.7991	356.2856	18817.45	17983.7
807.9424	358.4812	18792.1	17957.45
808.0857	360.6763	18840.2	18001.65
808.2291	362.8707	18827.45	17990.7
808.3724	365.0646	18897.55	18057.3
808.5158	367.258	18875.55	18037.2
808.6591	369.4508	18941.7	18095.05
808.8025	371.643	19021.85	18172.6
808.9459	373.8346	18977.25	18130.25
809.0893	376.0257	19018.45	18168.3
809.2327	378.2162	18947.75	18100.7
809.3762	380.4062	18849.25	18004.1
809.5196	382.5956	18707.3	17863.4
809.6631	384.7844	18638.05	17801.85
809.8066	386.9726	18518.35	17680.35
809.9501	389.1603	18490.85	17656.65
810.0936	391.3474	18448.7	17586.2
810.2371	393.5339	18447.6	17606.25
810.3806	395.7199	18379.25	17537.8
810.5241	397.9052	18422.35	17581.35
810.6677	400.09	18471.05	17627
810.8113	402.2743	18538.85	17696.6
810.9548	404.4579	18593.7	17752.7
811.0984	406.641	18793.9	17950.1
811.2421	408.8235	19018.25	18172.9
811.3857	411.0054	19346.8	18498
811.5293	413.1868	19821.1	18964.5
811.673	415.3675	20137.05	19280.3
811.8166	417.5477	20353.7	19497.25
811.9603	419.7273	20394.1	19537.4
812.104	421.9064	20317.6	19458.25
812.2477	424.0848	20185.6	19330.45
812.3914	426.2627	19972.35	19118.9
812.5351	428.4399	19728.15	18871.6
812.6788	430.6166	19349.7	18491.9
812.8226	432.7928	18971.65	18108.5
812.9663	434.9683	18662.25	17803.1
813.1101	437.1432	18453.4	17594.15
813.2539	439.3176	18302.6	17449.45
813.3977	441.4914	18170.4	17318.8
813.5415	443.6645	18150.65	17294.9
813.6853	445.8371	18088.9	17229.75
813.8291	448.0091	18042.85	17183.75
813.973	450.1806	18028.85	17168.1
814.1168	452.3514	17952.2	17096.45
814.2607	454.5216	17990.3	17119.65
814.4046	456.6913	17881.05	17022.25
814.5485	458.8603	17960.85	17102.2
814.6924	461.0288	18044.2	17188
814.8363	463.1967	18063.9	17213.2
814.9802	465.3639	18234.35	17377
815.1241	467.5306	18337.9	17481.6
815.2681	469.6967	18476.75	17622.6
815.412	471.8622	18594.7	17740.05
815.556	474.0271	18789.9	17933.3
815.7	476.1914	18853.2	17990.55
815.844	478.3551	18861.4	17997.1
815.988	480.5182	18864.7	18007.4
816.132	482.6807	18846.4	17992.65
816.276	484.8426	18945.7	18099.7
816.4201	487.0039	19234.75	18381.25
816.5641	489.1647	19648	18782.7
816.7082	491.3248	20100.05	19234.3
816.8522	493.4843	20304.4	19443.7
816.9963	495.6432	20273.8	19414.55
817.1404	497.8015	20186.8	19315.65
817.2845	499.9592	20243.4	19368.75
817.4286	502.1163	20219.3	19345.3
817.5727	504.2728	19986	19121.5
817.7168	506.4287	19699.55	18842.05
817.861	508.5839	19255.75	18398.7
818.0051	510.7386	18979.55	18113.3
818.1493	512.8927	18780.35	17908.45
818.2935	515.0461	18672.8	17805.9
818.4377	517.199	18613.9	17744
818.5818	519.3512	18638.35	17765.75
818.726	521.5029	18764.6	17888.9
818.8703	523.6539	18815.4	17940.55
819.0145	525.8043	18856.95	17981.55
819.1587	527.9541	18913.9	18035.8
819.303	530.1033	18882.6	18008.6
819.4472	532.2519	18936.65	18060.55
819.5915	534.3999	19061.65	18183.65
819.7357	536.5472	19327.9	18460.05
819.88	538.694	19842.9	18977
820.0243	540.8401	20454.6	19580.85
820.1686	542.9856	20933.45	20048.75
820.3129	545.1305	21103.15	20219.35
820.4572	547.2748	20986.1	20097.4
820.6016	549.4185	20625.3	19733.65
820.7459	551.5615	20302	19414.9
820.8902	553.704	20159.2	19275.2
821.0346	555.8458	20101.7	19218.2
821.1789	557.987	20132.7	19252.75
821.3233	560.1276	20130.65	19243.5
821.4677	562.2675	20157	19270.3
821.6121	564.4069	20199.2	19316.15
821.7565	566.5456	20166.95	19282.1
821.9009	568.6837	20086.85	19205.05
822.0453	570.8212	19826.15	18945.6
822.1897	572.958	19511.2	18627.05
822.3342	575.0942	19226.8	18345.2
822.4786	577.2299	19096.35	18221.6
822.6231	579.3648	19058.15	18188.95
822.7675	581.4992	19124.75	18266.35
822.912	583.6329	19341.85	18485.85
823.0565	585.766	19564.7	18701.85
823.201	587.8985	19717.65	18850.1
823.3454	590.0304	19715.65	18824.7
823.4899	592.1616	19650.85	18764.8
823.6345	594.2922	19581.9	18694.3
823.779	596.4222	19432	18537.5
823.9235	598.5515	19238.95	18345
824.068	600.6802	19122.95	18231.9
824.2126	602.8083	18914.55	18025.45
824.3571	604.9358	18882.3	17993
824.5017	607.0626	18818.3	17924.65
824.6462	609.1888	18807.4	17908
824.7908	611.3144	18798.75	17899.55
824.9354	613.4393	18670.15	17776
825.08	615.5636	18599.5	17701.65
825.2246	617.6873	18465.5	17573.75
825.3692	619.8103	18450	17552.75
825.5138	621.9327	18364.4	17471.6
825.6584	624.0544	18342.55	17455.8
825.803	626.1756	18307.75	17418.1
825.9477	628.2961	18300.25	17407.2
826.0923	630.4159	18244.7	17351.8
826.237	632.5351	18231.95	17335.65
826.3816	634.6537	18170.6	17273.4
826.5263	636.7716	18208.7	17308.55
826.6709	638.8889	18192.8	17290.45
826.8156	641.0056	18246.4	17343.95
826.9603	643.1216	18210.35	17308.95
827.105	645.237	18286.3	17390.8
827.2497	647.3518	18290.9	17397.9
827.3944	649.4659	18314.6	17425.2
827.5391	651.5793	18320.15	17430.3
827.6838	653.6922	18324.5	17432.35
827.8285	655.8043	18298.15	17402.8
827.9733	657.9159	18295.85	17400.6
828.118	660.0268	18242.05	17346.4
828.2627	662.137	18219.35	17323.25
828.4075	664.2466	18208.9	17304.75
828.5522	666.3556	18218	17317.3
828.697	668.4639	18163.65	17262.45
828.8418	670.5716	18209.3	17317.05
828.9865	672.6786	18323.15	17425.5
829.1313	674.785	18376.9	17473.35
829.2761	676.8907	18467.65	17568.85
829.4209	678.9958	18539.95	17644.1
829.5657	681.1002	18514.2	17620.2
829.7105	683.204	18517.6	17609.45
829.8553	685.3072	18476.05	17569.5
830.0001	687.4097	18425.9	17522.45
830.1449	689.5115	18397	17490.25
830.2898	691.6127	18399.05	17498
830.4346	693.7132	18306	17406.8
830.5794	695.8131	18285	17362.3
830.7243	697.9123	18284.1	17377.05
830.8691	700.0109	18258.8	17348.65
831.014	702.1089	18262.25	17357.4
831.1588	704.2061	18271.45	17368.2
831.3037	706.3028	18341.6	17435.55
831.4486	708.3987	18435.9	17529.05
831.5935	710.4941	18497.45	17593.5
831.7383	712.5887	18694.1	17791.35
831.8832	714.6827	18973.25	18067.7
832.0281	716.7761	19296.45	18393.25
832.173	718.8688	19681.25	18775.9
832.3179	720.9608	19883.3	18970.8
832.4628	723.0522	19964.3	19050.5
832.6077	725.1429	19770.15	18858.7
832.7527	727.233	19513	18605.45
832.8976	729.3224	19279	18370.5
833.0425	731.4112	18992.9	18082.45
833.1874	733.4993	18809.25	17902.45
833.3324	735.5867	18632.15	17722.5
833.4773	737.6735	18585.8	17676.7
833.6222	739.7596	18491	17582
833.7672	741.845	18477.35	17566
833.9122	743.9298	18478.75	17569.3
834.0571	746.014	18486.25	17578.6
834.2021	748.0974	18506.45	17590.4
834.347	750.1802	18501	17586.6
834.492	752.2624	18506.25	17592
834.637	754.3439	18532.25	17617.25
834.782	756.4247	18621.8	17698.35
834.9269	758.5048	18704.7	17790.45
835.0719	760.5843	18963.65	18048.25
835.2169	762.6631	19250.4	18331.5
835.3619	764.7413	19686.45	18774.35
835.5069	766.8188	20266.45	19351.5
835.6519	768.8956	20729.75	19813.3
835.7969	770.9718	21054.75	20143.1
835.9419	773.0473	20890	19977.6
836.0869	775.1221	20579.65	19662.45
836.232	777.1962	20228.3	19313.7
836.377	779.2697	20027.45	19108
836.522	781.3426	20099.45	19167.55
836.667	783.4147	20364.7	19449.05
836.8121	785.4862	20687.2	19776.45
836.9571	787.557	20718	19799.85
837.1021	789.6271	20361.9	19440.25
837.2472	791.6966	19873.35	18953.8
837.3922	793.7654	19288.15	18372.95
837.5373	795.8335	19025.8	18111.45
837.6823	797.901	18840.95	17927.4
837.8274	799.9678	18786.35	17864.25
837.9724	802.0339	18776.75	17857.9
838.1175	804.0993	18840.65	17912.9
838.2626	806.1641	18832.15	17911.1
838.4076	808.2282	18795.75	17877.25
838.5527	810.2916	18730	17807.65
838.6978	812.3544	18654.65	17738.7
838.8428	814.4164	18529.65	17614.85
838.9879	816.4778	18614.5	17693.05
839.133	818.5385	18593.75	17672.6
839.2781	820.5986	18669.35	17747
839.4232	822.658	18770.9	17848.8
839.5682	824.7166	18907.5	17987.55
839.7133	826.7747	19149.25	18229.35
839.8584	828.832	19333.5	18410.55
840.0035	830.8886	19465.65	18542
840.1486	832.9446	19603	18682.15
840.2937	834.9999	19662.15	18741.8
840.4388	837.0545	19664.5	18736.7
840.5839	839.1085	19719.7	18794.2
840.729	841.1618	19676.65	18752.4
840.8741	843.2143	19638.05	18716.85
841.0192	845.2662	19547.2	18625.65
841.1643	847.3175	19516.6	18593.95
841.3095	849.368	19360.85	18434.9
841.4546	851.4179	19279.75	18358.85
841.5997	853.467	19166.9	18244.45
841.7448	855.5155	19086.65	18164.95
841.8899	857.5633	18989.4	18064.35
842.0351	859.6105	18860.75	17941.7
842.1802	861.6569	18825.95	17903.35
842.3253	863.7027	18817.4	17892.7
842.4704	865.7478	18789.4	17864.8
842.6156	867.7922	18834.9	17910.05
842.7607	869.8359	18841.3	17914.15
842.9058	871.8789	18946.75	18019.1
843.0509	873.9212	19151.9	18194.5
843.1961	875.9629	19298.55	18371.05
843.3412	878.0039	19495.1	18573.05
843.4863	880.0441	19608.35	18685.15
843.6315	882.0837	19641.65	18716.25
843.7766	884.1226	19552.25	18625.75
843.9218	886.1609	19440.65	18515.15
844.0669	888.1984	19410.85	18485.6
844.212	890.2352	19418.1	18493.35
844.3572	892.2714	19375.85	18446.65
844.5023	894.3069	19351.45	18423.75
844.6475	896.3416	19306.45	18380.65
844.7926	898.3757	19276.7	18349.5
844.9377	900.4091	19299.15	18369.5
845.0829	902.4418	19316.65	18380.1
845.228	904.4739	19316.1	18388.4
845.3732	906.5052	19358.85	18430.25
845.5183	908.5358	19237.95	18308.6
845.6635	910.5658	19130.3	18199.5
845.8086	912.595	18960.8	18027.85
845.9538	914.6236	18792.3	17864.7
846.0989	916.6515	18757.5	17829.75
846.2441	918.6786	18740.1	17810.95
846.3892	920.7051	18846.45	17915.4
846.5344	922.7309	18991.6	18061.25
846.6795	924.756	19017.45	18087.05
846.8246	926.7804	19122.35	18194.7
846.9698	928.8041	19045.35	18115.45
847.1149	930.8272	19088.1	18159.3
847.2601	932.8495	18984.45	18056.55
847.4052	934.8711	18967.85	18038.75
847.5504	936.892	18828.95	17899.7
847.6955	938.9123	18672.3	17742.35
847.8407	940.9318	18579.6	17653.55
847.9858	942.9506	18468.55	17538.75
848.131	944.9688	18378.85	17448.35
848.2761	946.9862	18319.5	17389.65
848.4213	949.003	18248.55	17318
848.5664	951.019	18271.2	17338.2
848.7115	953.0344	18301.8	17373.05
848.8567	955.0491	18333.3	17404.85
849.0018	957.063	18431.7	17504.3
849.147	959.0763	18592.5	17665.4
849.2921	961.0888	18611.4	17678.65
849.4373	963.1007	18703.6	17778.55
849.5824	965.1119	18746.5	17826.7
849.7275	967.1223	18797.6	17881.25
849.8727	969.1321	18819.9	17902.65
850.0178	971.1412	18841.8	17920.15
850.1629	973.1495	18872.8	17947.2
850.3081	975.1572	18991.2	18011.95
850.4532	977.1641	18987.9	18057.4
850.5983	979.1704	18934.7	18003.65
850.7435	981.1759	18920.3	17988
850.8886	983.1808	19007.1	18075.55
851.0337	985.1849	19085	18145.1
851.1788	987.1884	19242.8	18309.85
851.324	989.1911	19424.55	18496.75
851.4691	991.1932	19563.85	18635.4
851.6142	993.1945	19570.65	18643.7
851.7593	995.1951	19509.55	18577.5
851.9045	997.1951	19515.5	18579.95
852.0496	999.1943	19386.25	18456.3
852.1947	1001.1928	19373.85	18438.95
852.3398	1003.1906	19338.9	18410.25
852.4849	1005.1877	19409.65	18477.95
852.63	1007.1841	19360	18432.15
852.7751	1009.1798	19285.95	18359.35
852.9202	1011.1748	19103	18172.9
853.0653	1013.1691	18916.9	17988
853.2104	1015.1627	18663.6	17731.6
853.3555	1017.1556	18454.5	17528.15
853.5006	1019.1477	18370.4	17441.95
853.6457	1021.1392	18286.35	17362.3
853.7908	1023.1299	18276.55	17357.25
853.9359	1025.12	18264.05	17348.5
854.081	1027.1093	18325.3	17420.9
854.2261	1029.0979	18409.7	17503.6
854.3712	1031.0859	18456.75	17545.65
854.5163	1033.0731	18482.9	17560.95
854.6613	1035.0596	18394.8	17472.15
854.8064	1037.0454	18190.1	17265
854.9515	1039.0304	18136.3	17207.95
855.0965	1041.0148	17994.5	17064.6
855.2416	1042.9985	17916.4	16989.05
855.3867	1044.9814	17888.1	16962.95
855.5317	1046.9636	17826	16895.9
855.6768	1048.9452	17778.65	16853.75
855.8219	1050.926	17801.85	16876.45
855.9669	1052.9061	17809.7	16879.45
856.112	1054.8855	17783.6	16855.85
856.257	1056.8642	17843.8	16916
856.4021	1058.8421	17915.1	16981.75
856.5471	1060.8194	17924.8	16992
856.6921	1062.7959	17963.9	17038.65
856.8372	1064.7717	18000.85	17070.75
856.9822	1066.7469	18020.65	17090.75
857.1272	1068.7213	17996.25	17066.05
857.2723	1070.695	18005.85	17075.1
857.4173	1072.6679	17915.75	16988.1
857.5623	1074.6402	17937.65	17007.35
857.7073	1076.6117	17928.75	16995.85
857.8523	1078.5826	17917.8	16992.15
857.9973	1080.5527	17910.8	16978.4
858.1423	1082.5221	18021.5	17091.45
858.2873	1084.4908	18180.85	17250.8
858.4323	1086.4587	18361.05	17429.75
858.5773	1088.426	18493.95	17561.3
858.7223	1090.3925	18467.8	17532.7
858.8673	1092.3584	18463.9	17535.15
859.0123	1094.3235	18287.85	17359.85
859.1573	1096.2879	18194	17263.3
859.3022	1098.2515	18241.6	17312.15
859.4472	1100.2145	18291.75	17360.85
859.5922	1102.1767	18362.65	17430.5
859.7371	1104.1382	18509.6	17585.2
859.8821	1106.099	18740.8	17814.45
860.027	1108.0591	18947.45	18019.9
860.172	1110.0185	19059.25	18128.65
860.3169	1111.9771	19083.7	18155.6
860.4619	1113.9351	18834.7	17907.6
860.6068	1115.8923	18573.25	17646.2
860.7517	1117.8488	18300.65	17369.85
860.8967	1119.8045	18011.7	17085
861.0416	1121.7596	17850	16920.55
861.1865	1123.7139	17792.75	16870.3
861.3314	1125.6675	17780.1	16853.25
861.4763	1127.6204	17883.15	16952.9
861.6212	1129.5726	17862.3	16929.75
861.7661	1131.524	17898.65	16969.3
861.911	1133.4748	17867.2	16936.45
862.0559	1135.4248	17844.75	16914.45
862.2008	1137.3741	17842	16914.5
862.3457	1139.3226	17778.55	16847.65
862.4905	1141.2705	17778.25	16849.05
862.6354	1143.2176	17671	16735.2
862.7803	1145.164	17634.6	16705.8
862.9251	1147.1097	17678.2	16748.95
863.07	1149.0546	17669.65	16741.15
863.2148	1150.9989	17594.95	16665.45
863.3597	1152.9424	17427.2	16499
863.5045	1154.8852	17276.4	16348.4
863.6493	1156.8272	17208.15	16280.2
863.7942	1158.7686	17153.45	16218.3
863.939	1160.7092	17109.8	16181.1
864.0838	1162.6491	17079.4	16148.8
864.2286	1164.5883	17187.25	16259.1
864.3734	1166.5267	17230.7	16302.85
864.5182	1168.4644	17397.65	16470.05
864.663	1170.4014	17542.4	16615.95
864.8078	1172.3377	17806.65	16883.95
864.9526	1174.2732	18038.6	17111.9
865.0974	1176.2081	18289.25	17364.5
865.2421	1178.1421	18480.9	17547.7
865.3869	1180.0755	18734.55	17811.05
865.5317	1182.0082	18816.7	17887.2
865.6764	1183.9401	18794.35	17869.45
865.8212	1185.8713	18624.25	17703.3
865.9659	1187.8017	18399.75	17483.3
866.1106	1189.7315	18161.9	17251.8
866.2554	1191.6605	17859.4	16947.65
866.4001	1193.5888	17639.35	16726.5
866.5448	1195.5163	17528.2	16610.4
866.6895	1197.4432	17452.85	16530.7
866.8342	1199.3693	17407.8	16482.4
866.9789	1201.2947	17358.2	16425.5
867.1236	1203.2193	17305.5	16378.9
867.2683	1205.1432	17354.7	16428.1
867.413	1207.0664	17362.1	16440.35
867.5576	1208.9889	17385.75	16458
867.7023	1210.9106	17418.05	16494.3
867.847	1212.8316	17444.25	16520.55
867.9916	1214.7519	17483.95	16551.05
868.1363	1216.6715	17450.6	16526.6
868.2809	1218.5903	17486.85	16562
868.4255	1220.5084	17453.1	16530.1
868.5701	1222.4257	17453.15	16529.7
868.7148	1224.3424	17354.1	16430.5
868.8594	1226.2583	17445.4	16522.95
869.004	1228.1735	17520.95	16595.7
869.1486	1230.0879	17611.5	16685.8
869.2932	1232.0016	17712.55	16787.95
869.4377	1233.9146	17729	16803.95
869.5823	1235.8269	17649.95	16727.85
869.7269	1237.7384	17526.35	16599.6
869.8715	1239.6492	17341.8	16419.05
870.016	1241.5592	17257.05	16331.6
870.1606	1243.4686	17150.75	16226.1
870.3051	1245.3772	17106.05	16180.5
870.4496	1247.285	17065.4	16139.95
870.5941	1249.1922	17069.2	16144
870.7387	1251.0986	17086.15	16160.6
870.8832	1253.0042	17056.3	16131.9
871.0277	1254.9092	17082.4	16160.6
871.1722	1256.8134	17177.4	16257.15
871.3167	1258.7169	17329.75	16406.7
871.4611	1260.6196	17485.3	16564.85
871.6056	1262.5216	17666.1	16740.7
871.7501	1264.4229	17835.55	16914.65
871.8945	1266.3234	17944.85	17021.8
872.039	1268.2232	17995.95	17070.7
872.1834	1270.1223	18021.95	17094
872.3278	1272.0207	18011.55	17087.9
872.4723	1273.9183	17950.7	17022.2
872.6167	1275.8151	17863.35	16940.95
872.7611	1277.7113	17764.7	16844.1
872.9055	1279.6067	17644.25	16721.5
873.0499	1281.5014	17560.55	16634.85
873.1943	1283.3953	17481.6	16559.05
873.3386	1285.2885	17497.6	16574.7
873.483	1287.181	17546.4	16621.95
873.6274	1289.0727	17634.25	16715.15
873.7717	1290.9637	17710.8	16788.85
873.9161	1292.854	17832.55	16910.6
874.0604	1294.7435	17944.15	17021.95
874.2047	1296.6323	18140.3	17217.75
874.349	1298.5204	18362.3	17440.2
874.4933	1300.4077	18607.45	17685.9
874.6376	1302.2943	18717.75	17795.35
874.7819	1304.1802	18798.85	17880.4
874.9262	1306.0653	18602.4	17678.75
875.0705	1307.9497	18407.9	17489.7
875.2147	1309.8333	18288.1	17367.6
875.359	1311.7162	18178.95	17257.05
875.5032	1313.5984	18179.5	17255.25
875.6475	1315.4798	18219.4	17282.25
875.7917	1317.3605	18309.75	17373.25
875.9359	1319.2405	18354.35	17428.35
876.0801	1321.1197	18277.4	17351.45
876.2243	1322.9982	18154	17227.7
876.3685	1324.876	18131.85	17211.8
876.5127	1326.753	17986.55	17067.45
876.6569	1328.6293	17949	17025.65
876.801	1330.5048	17965.1	17040.45
876.9452	1332.3796	17884.45	16963.25
877.0893	1334.2537	17887.25	16941.05
877.2335	1336.127	17780.05	16856.05
877.3776	1337.9996	17777.6	16854.55
877.5217	1339.8714	17738.8	16818.9
877.6658	1341.7426	17692.15	16723.55
877.8099	1343.6129	17628	16705.65
877.954	1345.4826	17601.7	16679.6
878.0981	1347.3515	17578.55	16652.1
878.2422	1349.2196	17515.15	16590.25
878.3862	1351.087	17520.9	16597.65
878.5303	1352.9537	17559.9	16636
878.6743	1354.8197	17672.1	16747.15
878.8184	1356.6849	17830.95	16907.05
878.9624	1358.5493	17886.75	16964.5
879.1064	1360.4131	17969.8	17046.65
879.2504	1362.276	17868.8	16947.35
879.3944	1364.1383	17747.9	16827.75
879.5384	1365.9998	17494.5	16564.5
879.6823	1367.8606	17158.35	16235.5
879.8263	1369.7206	16881.35	15956.95
879.9702	1371.5799	16656.2	15730.15
880.1142	1373.4384	16456.65	15529.75
880.2581	1375.2962	16346.05	15421.8
880.402	1377.1533	16060.5	15139.05
880.5459	1379.0096	15725.4	14804.95
880.6898	1380.8652	15424.5	14505.85
880.8337	1382.7201	15187.6	14269.45
880.9776	1384.5742	14960.05	14041.9
881.1215	1386.4275	14783.45	13861.05
881.2653	1388.2802	14610.6	13688.5
881.4092	1390.132	14495.4	13573.65
881.553	1391.9832	14445.25	13522.2
881.6968	1393.8336	14338.4	13420.9
881.8406	1395.6832	14270	13345.25
881.9844	1397.5322	14261.8	13340.5
882.1282	1399.3803	14217.55	13293.5
882.272	1401.2278	14113.85	13194.95
882.4158	1403.0745	14123.8	13207.55
882.5595	1404.9204	14085.85	13167.1
882.7033	1406.7656	14098.85	13177.2
882.847	1408.6101	14087	13166.05
882.9908	1410.4538	14097.95	13177.55
883.1345	1412.2968	14107.7	13187.05
883.2782	1414.139	14108.5	13186.85
883.4219	1415.9805	14183.6	13263.05
883.5656	1417.8213	14254.35	13325.6
883.7092	1419.6613	14376.75	13455.3
883.8529	1421.5006	14524.4	13604.15
883.9965	1423.3391	14773	13850.6
884.1402	1425.1769	15070.95	14150.1
884.2838	1427.0139	15532.5	14610.05
884.4274	1428.8502	16070.2	15148.75
884.571	1430.6858	16621.6	15702.55
884.7146	1432.5206	17027.05	16107.75
884.8582	1434.3547	17234.05	16316.8
885.0018	1436.188	17285.75	16367.05
885.1453	1438.0206	17239.85	16318.25
885.2889	1439.8524	17039.55	16117.6
885.4324	1441.6835	16940.45	16017.3
885.5759	1443.5139	16833.05	15909.05
885.7194	1445.3435	16717.45	15801.65
885.8629	1447.1724	16686.75	15770.65
886.0064	1449.0005	16570.7	15650.9
886.1499	1450.8279	16490.15	15569.9
886.2933	1452.6545	16437.35	15521.15
886.4368	1454.4804	16466.6	15551.3
886.5802	1456.3056	16465.2	15542.7
886.7237	1458.13	16383.25	15467.8
886.8671	1459.9536	16150.9	15235.2
887.0105	1461.7766	15784.15	14867.8
887.1539	1463.5987	15372.7	14454.25
887.2972	1465.4202	14988.4	14068.25
887.4406	1467.2409	14607.9	13688.55
887.584	1469.0608	14332.4	13412.85
887.7273	1470.88	14082.9	13163.3
887.8706	1472.6984	13854.4	12938.3
888.0139	1474.5161	13638.65	12718.7
888.1572	1476.3331	13468.85	12548
888.3005	1478.1493	13352.45	12433.3
888.4438	1479.9648	13254.35	12337.35
888.5871	1481.7795	13144.7	12225.55
888.7303	1483.5935	13052.05	12133.8
888.8736	1485.4067	12973.4	12053.85
889.0168	1487.2192	12950.1	12033.2
889.16	1489.031	12892.7	11972.1
889.3032	1490.842	12818.95	11900.3
889.4464	1492.6522	12785.3	11868.4
889.5896	1494.4618	12732.6	11812.75
889.7327	1496.2705	12720.15	11801.4
889.8759	1498.0785	12665.1	11749.45
890.019	1499.8858	12636.05	11717.95
890.1622	1501.6924	12609.65	11691.2
890.3053	1503.4981	12572.35	11658.35
890.4484	1505.3032	12520.85	11600.2
890.5914	1507.1075	12472.95	11553.6
890.7345	1508.911	12417.75	11499.15
890.8776	1510.7138	12418.8	11497.4
891.0206	1512.5159	12325.25	11405.6
891.1637	1514.3172	12272.45	11355.2
891.3067	1516.1178	12223.5	11307.45
891.4497	1517.9176	12213.35	11293.3
891.5927	1519.7166	12152.15	11236.85
891.7357	1521.515	12101.45	11180.9
891.8786	1523.3126	12069.25	11155.3
892.0216	1525.1094	12019.85	11103.8
892.1645	1526.9055	11959.85	11043.55
892.3074	1528.7008	11906.5	10990.55
892.4503	1530.4954	11854.1	10938.8
892.5932	1532.2893	11853.4	10940.25
892.7361	1534.0824	11751.7	10836.55
892.879	1535.8747	11762.95	10852.05
893.0218	1537.6663	11738.1	10825.8
893.1647	1539.4572	11733	10820.15
893.3075	1541.2473	11720.85	10806.7
893.4503	1543.0367	11660.3	10747.35
893.5931	1544.8253	11639.05	10721.3
893.7359	1546.6132	11680	10761.1
893.8787	1548.4003	11644.8	10720.2
894.0214	1550.1867	11664.4	10744.6
894.1642	1551.9723	11646.1	10732.35
894.3069	1553.7572	11682.5	10771.1
894.4496	1555.5414	11720.8	10809.4
894.5923	1557.3247	11768.4	10862.45
894.735	1559.1074	11790.15	10882.6
894.8777	1560.8893	11843.85	10932.2
895.0204	1562.6705	11912.5	11006.05
895.163	1564.4509	11981.4	11074.85
895.3056	1566.2305	11995.9	11094.05
895.4482	1568.0094	12097.55	11195.5
895.5908	1569.7876	12128.45	11223.05
895.7334	1571.565	12125.5	11217.75
895.876	1573.3417	12149.2	11242
896.0186	1575.1176	12120.2	11214.35
896.1611	1576.8928	12068	11163.15
896.3036	1578.6672	11952.3	11054.4
896.4461	1580.4409	11832.7	10935.6
896.5886	1582.2138	11752.75	10849.65
896.7311	1583.986	11639.95	10736.75
896.8736	1585.7575	11570.55	10667.4
897.0161	1587.5282	11482.3	10583.65
897.1585	1589.2981	11466.5	10569
897.3009	1591.0673	11396.8	10498.7
897.4433	1592.8358	11389.3	10492.4
897.5857	1594.6035	11396.1	10492.55
897.7281	1596.3704	11379.45	10474.45
897.8705	1598.1366	11393.5	10492.3
898.0128	1599.9021	11439.6	10537.4
898.1551	1601.6668	11487.55	10584.5
898.2975	1603.4308	11536.35	10630.05
898.4398	1605.194	11626.5	10722.35
898.5821	1606.9564	11709.1	10814.65
898.7243	1608.7182	11870.4	10976.25
898.8666	1610.4791	11997.7	11109.1
899.0088	1612.2394	12129.65	11240.25
899.1511	1613.9988	12295.95	11404.5
899.2933	1615.7576	12516.2	11622.9
899.4355	1617.5156	12715.1	11807.35
899.5776	1619.2728	12920.65	12019.8
899.7198	1621.0293	13003	12102.4
899.862	1622.785	13019.25	12119.55
900.0041	1624.54	12921.85	12024.15
900.1462	1626.2942	12760.5	11866.9
900.2883	1628.0477	12468.05	11572.25
900.4304	1629.8005	12236.1	11336.2
900.5725	1631.5525	12000.95	11105.8
900.7145	1633.3037	11822.25	10923.75
900.8566	1635.0542	11703.7	10811.15
900.9986	1636.804	11568.9	10673.2
901.1406	1638.553	11586.35	10611.95
901.2826	1640.3013	11452	10555.1
901.4245	1642.0488	11423.65	10528.35
901.5665	1643.7955	11438.6	10544.75
901.7085	1645.5416	11460.8	10566.75
901.8504	1647.2868	11576.9	10683.35
901.9923	1649.0313	11624.75	10726.05
902.1342	1650.7751	11751.6	10851.7
902.2761	1652.5181	11882.85	10989.55
902.4179	1654.2604	12068.45	11174.8
902.5598	1656.0019	12313.55	11420.75
902.7016	1657.7427	12647.55	11751.55
902.8434	1659.4828	12924.45	12026.15
902.9852	1661.222	13088.05	12190.35
903.127	1662.9606	13089.4	12193.9
903.2687	1664.6984	12850.1	11951.9
903.4105	1666.4354	12484	11585.5
903.5522	1668.1717	11980.6	11080.95
903.6939	1669.9072	11482.85	10580.2
903.8356	1671.642	11059.2	10158.15
903.9773	1673.3761	10704.6	9808.05
904.119	1675.1094	10393.55	9499.15
904.2606	1676.8419	10202.75	9306.05
904.4022	1678.5737	10015.2	9120.85
904.5439	1680.3048	9876.95	8978.75
904.6855	1682.0351	9753	8856.65
904.827	1683.7646	9652.55	8753.65
904.9686	1685.4934	9574.95	8680.95
905.1101	1687.2215	9487.2	8589.8
905.2517	1688.9488	9413.55	8517.15
905.3932	1690.6754	9348.35	8455.05
905.5347	1692.4012	9328.2	8432.65
905.6761	1694.1263	9287.85	8390.95
905.8176	1695.8506	9242.45	8349.4
905.9591	1697.5742	9200.1	8308.5
906.1005	1699.297	9141.65	8249.45
906.2419	1701.0191	9100.35	8208.05
906.3833	1702.7404	9054	8162.8
906.5246	1704.461	8984.25	8089.45
906.666	1706.1808	8960.6	8066.2
906.8073	1707.8999	8932	8039.75
906.9487	1709.6182	8881.15	7992.3
907.09	1711.3358	8860.9	7971.9
907.2313	1713.0527	8828.2	7943.5
907.3725	1714.7688	8784.5	7888.85
907.5138	1716.4841	8738.25	7845.4
907.655	1718.1987	8724.7	7826.4
907.7962	1719.9126	8686.9	7799.1
907.9374	1721.6257	8662.55	7773.45
908.0786	1723.338	8648.6	7761.15
908.2198	1725.0496	8577	7684.95
908.3609	1726.7605	8564.6	7673.05
908.502	1728.4706	8537.05	7645.05
908.6431	1730.18	8490.45	7599.85
908.7842	1731.8886	8477.45	7590.25
908.9253	1733.5964	8458.1	7549.75
909.0664	1735.3036	8438.4	7548.8
909.2074	1737.0099	8412.15	7523.3
909.3484	1738.7156	8366.25	7479.05
909.4894	1740.4204	8335.5	7443.7
909.6304	1742.1246	8334.5	7444.45
909.7714	1743.8279	8291.8	7403.85
909.9123	1745.5306	8265.5	7376.15
910.0532	1747.2325	8245.75	7359.6
910.1941	1748.9336	8218.15	7331.55
910.335	1750.634	8174.55	7281.45
910.4759	1752.3336	8156.65	7267.6
910.6168	1754.0325	8146.05	7257
910.7576	1755.7307	8139.15	7251.15
910.8984	1757.4281	8135.7	7247.85
911.0392	1759.1247	8124.9	7225.8
911.18	1760.8206	8082.55	7186.25
911.3208	1762.5158	8070.45	7172.15
911.4615	1764.2102	8019.05	7130.2
911.6022	1765.9039	7971.55	7084.15
911.7429	1767.5968	7984.15	7098.2
911.8836	1769.289	7932.4	7044.6
912.0243	1770.9804	7925.75	7037.65
912.1649	1772.6711	7918.7	7025.9
912.3056	1774.361	7894.1	7000.65
912.4462	1776.0502	7877.65	6985.7
912.5868	1777.7386	7867.25	6973.9
912.7274	1779.4263	7831.25	6942.1
912.8679	1781.1132	7823.6	6936.35
913.0084	1782.7994	7786.6	6900.9
913.149	1784.4849	7771.35	6886
913.2895	1786.1696	7766.8	6874.25
913.4299	1787.8535	7742.15	6858.65
913.5704	1789.5367	7710.5	6826.85
913.7108	1791.2192	7688.95	6805.35
913.8513	1792.9009	7703.7	6790.55
913.9917	1794.5818	7691.3	6798.65
914.132	1796.2621	7648.65	6758.3
914.2724	1797.9415	7639.4	6749.85
914.4128	1799.6202	7616.85	6726.35
914.5531	1801.2982	7611.55	6722.75
914.6934	1802.9755	7564	6672.35
914.8337	1804.6519	7574.55	6684.7
914.9739	1806.3277	7539.85	6653.9
915.1142	1808.0027	7497.05	6613.55
915.2544	1809.6769	7486.5	6602.15
915.3946	1811.3504	7467.65	6584.1
915.5348	1813.0231	7469.4	6586.5
915.675	1814.6951	7436.35	6550.6
915.8151	1816.3664	7448.5	6561.5
915.9553	1818.0369	7415.4	6526.65
916.0954	1819.7067	7398.95	6513.55
916.2355	1821.3757	7382.25	6493.3
916.3755	1823.044	7366.15	6477.9
916.5156	1824.7115	7346.15	6457.85
916.6556	1826.3783	7309.4	6421.95
916.7956	1828.0443	7303.25	6417.15
916.9356	1829.7096	7293.4	6403.45
917.0756	1831.3741	7285.45	6395.6
917.2155	1833.0379	7256.5	6370.75
917.3555	1834.701	7240.45	6356.7
917.4954	1836.3633	7215.05	6330.4
917.6353	1838.0248	7198	6313.25
917.7751	1839.6856	7184.1	6298.55
917.915	1841.3457	7176.85	6288.55
918.0548	1843.005	7163.95	6277.55
918.1946	1844.6636	7156.1	6269.75
918.3344	1846.3214	7123.8	6237.15
918.4742	1847.9785	7126.25	6240.35
918.6139	1849.6349	7117.75	6226.15
918.7537	1851.2904	7116.55	6218.2
918.8934	1852.9453	7106.45	6220.45
919.0331	1854.5994	7065.05	6174.05
919.1727	1856.2528	7067.55	6173.5
919.3124	1857.9054	7037.15	6146.2
919.452	1859.5572	7035.55	6148.3
919.5916	1861.2083	7012.25	6125.65
919.7312	1862.8587	6992.2	6105.3
919.8708	1864.5084	6995.1	6104.15
920.0103	1866.1572	6959.85	6070.5
920.1498	1867.8054	6929.1	6041
920.2893	1869.4528	6916.3	6027.15
920.4288	1871.0994	6906.7	6019.1
920.5683	1872.7453	6909.95	6019.55
920.7077	1874.3905	6894.15	5989.2
920.8471	1876.0349	6865.3	5975.3
920.9865	1877.6786	6854.05	5965.05
921.1259	1879.3215	6842.85	5954.55
921.2653	1880.9637	6824	5935.05
921.4046	1882.6051	6821.45	5934.8
921.5439	1884.2458	6781	5894.85
921.6832	1885.8858	6753.7	5866.65
921.8225	1887.525	6779.2	5890.2
921.9617	1889.1634	6718.05	5830.7
922.101	1890.8011	6712.8	5827.15
922.2402	1892.4381	6675	5789.25
922.3794	1894.0743	6680.1	5792.75
922.5185	1895.7098	6654.85	5768.75
922.6577	1897.3446	6644.7	5757.8
922.7968	1898.9786	6649.3	5758.15
922.9359	1900.6118	6605.25	5716.05
923.075	1902.2443	6575.1	5689.95
923.214	1903.8761	6588.75	5702.15
923.3531	1905.5071	6551.5	5664.3
923.4921	1907.1374	6539.2	5651.65
923.6311	1908.7669	6518.2	5632
923.77	1910.3957	6500.95	5615.75
923.909	1912.0237	6483.6	5598.55
924.0479	1913.651	6464.3	5576.2
924.1868	1915.2776	6439	5553.8
924.3257	1916.9034	6421.7	5536.1
924.4646	1918.5285	6396.65	5512.45
924.6034	1920.1528	6370.5	5484.4
924.7422	1921.7764	6383.2	5497.4
924.881	1923.3992	6350.85	5462.4
925.0198	1925.0213	6301.65	5414.9
925.1586	1926.6427	6280.95	5392.55
925.2973	1928.2633	6338.95	5358
925.436	1929.8832	6261.95	5373.1
925.5747	1931.5023	6229.6	5343.6
925.7134	1933.1207	6210.3	5321.2
925.852	1934.7383	6211.6	5326.15
925.9906	1936.3552	6189.4	5305.3
926.1292	1937.9714	6154.7	5267.35
926.2678	1939.5868	6149.5	5259.8
926.4064	1941.2015	6108.8	5221.5
926.5449	1942.8154	6092.15	5204.2
926.6834	1944.4286	6073.15	5186.85
926.8219	1946.041	6084.65	5173.3
926.9604	1947.6528	6026.55	5135.25
927.0988	1949.2637	6017.75	5133.9
927.2372	1950.8739	5991.65	5106.35
927.3756	1952.4834	5963.7	5079.85
927.514	1954.0921	5972.25	5087.75
927.6523	1955.7001	5946.6	5057.3
927.7907	1957.3074	5930.9	5048.35
927.929	1958.9139	5893.3	5011.4
928.0673	1960.5197	5879.25	4995.4
928.2055	1962.1247	5852.6	4969.95
928.3438	1963.729	5843.65	4961.7
928.482	1965.3325	5821.45	4933.05
928.6202	1966.9353	5793.25	4912.45
928.7584	1968.5374	5789.2	4905.55
928.8965	1970.1387	5772.65	4889.1
929.0346	1971.7393	5766.7	4881.3
929.1727	1973.3392	5724.9	4842
929.3108	1974.9383	5716.4	4833.05
929.4489	1976.5366	5672.35	4789.8
929.5869	1978.1342	5682	4798.95
929.7249	1979.7311	5672.65	4793.1
929.8629	1981.3273	5655	4772.9
930.0009	1982.9227	5629.1	4744.35
930.1388	1984.5173	5618.85	4740.25
930.2767	1986.1112	5602.05	4725.2
930.4146	1987.7044	5580.9	4699.45
930.5525	1989.2968	5581.35	4699.95
930.6904	1990.8885	5556.55	4675.8
930.8282	1992.4795	5547.85	4667.6
930.966	1994.0697	5513.1	4635.8
931.1038	1995.6592	5513.6	4633.05
931.2415	1997.2479	5496.25	4614.6
931.3793	1998.8359	5465.05	4585.7
931.517	2000.4232	5454	4577.85
931.6547	2002.0097	5437.15	4563.05
931.7923	2003.5955	5420.05	4542.6
931.93	2005.1805	5420.35	4541.75
932.0676	2006.7648	5413.9	4537.4
932.2052	2008.3484	5391.55	4514.25
932.3427	2009.9312	5406.85	4528.55
932.4803	2011.5133	5355.85	4481.35
932.6178	2013.0946	5341.1	4465.85
932.7553	2014.6752	5331.3	4453.6
932.8928	2016.2551	5321.05	4442.4
933.0302	2017.8342	5306.9	4428.9
933.1676	2019.4126	5288.65	4411.6
933.305	2020.9902	5275.7	4400.7
933.4424	2022.5672	5273.85	4397.15
933.5798	2024.1433	5261.25	4381.9
933.7171	2025.7188	5220.95	4346.35
933.8544	2027.2935	5215	4340.25
933.9917	2028.8674	5199.9	4324.6
934.129	2030.4406	5182.1	4309.15
934.2662	2032.0131	5172.15	4298.9
934.4034	2033.5849	5165.7	4286.85
934.5406	2035.1559	5151.3	4275.65
934.6778	2036.7261	5128.1	4252.7
934.8149	2038.2957	5130.15	4251.95
934.952	2039.8645	5120.9	4241.3
935.0891	2041.4325	5111.8	4231.2
935.2262	2042.9998	5102.65	4225.2
935.3632	2044.5664	5083.45	4204.3
935.5002	2046.1323	5065.55	4190.15
935.6372	2047.6974	5054.3	4177.3
935.7742	2049.2617	5047.9	4173.35
935.9111	2050.8254	5046.25	4166.35
936.048	2052.3883	5020.35	4139.8
936.1849	2053.9504	5001.3	4122.7
936.3218	2055.5118	4993.9	4113.9
936.4586	2057.0725	4959.8	4079.75
936.5955	2058.6325	4965.15	4088.05
936.7323	2060.1917	4948.95	4072.9
936.869	2061.7502	4942.6	4065.5
937.0058	2063.3079	4925.4	4049.7
937.1425	2064.8649	4910	4032.2
937.2792	2066.4212	4889.65	4011.55
937.4159	2067.9767	4903.25	4023.95
937.5525	2069.5315	4862.05	3985.25
937.6891	2071.0856	4866.1	3988.75
937.8257	2072.6389	4845.25	3968.8
937.9623	2074.1915	4809.35	3936.25
938.0989	2075.7433	4795.9	3918.4
938.2354	2077.2945	4791.8	3916.5
938.3719	2078.8448	4780.05	3899.9
938.5084	2080.3945	4771.55	3892.6
938.6448	2081.9434	4741.95	3863
938.7812	2083.4916	4731.85	3850.6
938.9176	2085.039	4712.4	3827.25
939.054	2086.5857	4737.25	3853.3
939.1903	2088.1317	4709.45	3824.9
939.3267	2089.677	4688.2	3803.5
939.463	2091.2215	4695.4	3810.95
939.5992	2092.7652	4681.75	3795.1
939.7355	2094.3083	4662.4	3775.45
939.8717	2095.8506	4658.7	3776.75
940.0079	2097.3921	4660.5	3779.75
940.1441	2098.933	4639.85	3760.05
940.2802	2100.4731	4641.35	3761.15
940.4163	2102.0124	4632.9	3734.95
940.5524	2103.5511	4604.4	3723.05
940.6885	2105.089	4593.5	3711.4
940.8245	2106.6261	4588.25	3706.6
940.9606	2108.1626	4576.75	3693.75
941.0965	2109.6983	4599.6	3691.35
941.2325	2111.2332	4564.1	3683.4
941.3684	2112.7675	4546.65	3663.15
941.5044	2114.301	4550.95	3667.4
941.6403	2115.8337	4546	3665.15
941.7761	2117.3657	4524.75	3643.75
941.912	2118.897	4511.8	3630.05
942.0478	2120.4276	4497.55	3610.9
942.1835	2121.9575	4488.8	3606.5
942.3193	2123.4866	4489.45	3594.25
942.455	2125.0149	4457.75	3573.25
942.5907	2126.5426	4453	3572.7
942.7264	2128.0695	4447.75	3564.15
942.8621	2129.5956	4431.75	3555.95
942.9977	2131.1211	4423	3539.95
943.1333	2132.6458	4403.9	3524.9
943.2689	2134.1698	4407.9	3525.45
943.4044	2135.693	4394.3	3508.45
943.54	2137.2155	4388.5	3501.4
943.6755	2138.7373	4372.25	3491.1
943.8109	2140.2584	4352.85	3473.45
943.9464	2141.7787	4355.45	3472.95
944.0818	2143.2983	4322.15	3445.5
944.2172	2144.8171	4312.55	3438.35
944.3526	2146.3353	4303.75	3423.8
944.4879	2147.8527	4298.8	3420
944.6232	2149.3693	4300.3	3418.95
944.7585	2150.8853	4280.3	3396.4
944.8938	2152.4005	4259.3	3376.15
945.029	2153.9149	4269.8	3387.3
945.1642	2155.4287	4256.6	3373.25
945.2994	2156.9417	4242.35	3358.8
945.4346	2158.454	4226.75	3342.2
945.5697	2159.9655	4222.3	3343.6
945.7048	2161.4764	4208.25	3328.5
945.8399	2162.9865	4200.35	3320.2
945.9749	2164.4958	4188.4	3311.75
946.1099	2166.0045	4181.4	3298.85
946.2449	2167.5124	4160.55	3278.7
946.3799	2169.0195	4163.15	3282
946.5148	2170.526	4149.7	3266.9
946.6498	2172.0317	4135.9	3252.75
946.7846	2173.5367	4127.05	3244.6
946.9195	2175.0409	4123.85	3244.85
947.0543	2176.5445	4116.9	3236.25
947.1891	2178.0473	4106	3223.05
947.3239	2179.5494	4082	3195.35
947.4587	2181.0507	4086.45	3204.7
947.5934	2182.5513	4070.25	3187.6
947.7281	2184.0512	4068.65	3188.05
947.8628	2185.5504	4057.2	3175.95
947.9974	2187.0488	4029.7	3151.55
948.132	2188.5465	4027.15	3148.5
948.2666	2190.0435	4014.6	3134.15
948.4012	2191.5397	4013.3	3131.85
948.5357	2193.0353	3994.35	3114.3
948.6702	2194.5301	3996.3	3110.4
948.8047	2196.0241	3982.75	3095.8
948.9392	2197.5175	3984.8	3098.4
949.0736	2199.0101	3962.9	3073
949.208	2200.502	3954.15	3073.8
949.3424	2201.9931	3910.4	3029.95
949.4767	2203.4835	3921.1	3042.35
949.611	2204.9733	3909.85	3024.45
949.7453	2206.4622	3899.2	3022.55
949.8796	2207.9505	3888.6	3007.75
950.0138	2209.438	3860.25	2984.5
950.148	2210.9248	3844.2	2964.25
950.2822	2212.4109	3851.15	2970.15
950.4164	2213.8962	3842.4	2954.7
950.5505	2215.3809	3839.85	2955.9
950.6846	2216.8648	3843.05	2956.05
950.8186	2218.3479	3824.15	2932.5
950.9527	2219.8304	3810.8	2920.95
951.0867	2221.3121	3789.75	2900.8
951.2207	2222.7931	3774	2891.4
951.3546	2224.2733	3787.9	2904.25
951.4886	2225.7529	3757.2	2875.05
951.6225	2227.2317	3744.8	2861.1
951.7563	2228.7098	3742.25	2862.1
951.8902	2230.1872	3729.9	2851.8
952.024	2231.6638	3727.85	2848.05
952.1578	2233.1397	3716.2	2832.7
952.2916	2234.6149	3696.65	2817.6
952.4253	2236.0894	3698.9	2819.25
952.559	2237.5632	3696.3	2804.05
952.6927	2239.0362	3682.55	2801
952.8263	2240.5085	3663.5	2782.35
952.9599	2241.9801	3654.7	2772.1
953.0935	2243.4509	3655.3	2771.45
953.2271	2244.921	3647.7	2763.2
953.3606	2246.3904	3624.5	2738.6
953.4941	2247.8591	3624.75	2741.55
953.6276	2249.3271	3615.45	2732.45
953.7611	2250.7943	3606.8	2722.95
953.8945	2252.2608	3577.6	2692.15
954.0279	2253.7266	3573.65	2692.1
954.1612	2255.1917	3575.05	2693.4
954.2946	2256.656	3565.3	2684.45
954.4279	2258.1197	3558.55	2678.5
954.5612	2259.5826	3541.2	2658.2
954.6944	2261.0447	3555.15	2672.3
954.8276	2262.5062	3526.45	2641.5
954.9608	2263.9669	3516.2	2629.1
955.094	2265.4269	3524.15	2640.85
955.2271	2266.8862	3496.15	2613.9
955.3602	2268.3448	3493.5	2612.25
955.4933	2269.8026	3491.75	2612.05
955.6264	2271.2598	3468.7	2589.15
955.7594	2272.7162	3486.2	2607.25
955.8924	2274.1719	3456.9	2572.95
956.0253	2275.6268	3459.75	2576.55
956.1583	2277.0811	3467.6	2582.1
956.2912	2278.5346	3455.9	2575.5
956.4241	2279.9874	3447.9	2567
956.5569	2281.4395	3437.65	2558.15
956.6897	2282.8908	3426.6	2540.9
956.8225	2284.3414	3433.45	2550.65
956.9553	2285.7914	3416.95	2535
957.088	2287.2406	3410.5	2526.5
957.2207	2288.689	3399.85	2515.85
957.3534	2290.1368	3385.75	2498.9
957.486	2291.5838	3376.55	2487
957.6186	2293.0302	3380.9	2493.8
957.7512	2294.4758	3361	2474.55
957.8838	2295.9206	3361.8	2477.15
958.0163	2297.3648	3338.35	2455.1
958.1488	2298.8082	3336	2452
958.2813	2300.251	3347.05	2464.15
958.4137	2301.693	3318	2430.75
958.5461	2303.1343	3324.65	2440.85
958.6785	2304.5748	3303.65	2421.5
958.8108	2306.0147	3303.65	2424.65
958.9432	2307.4538	3295.65	2413.4
959.0754	2308.8922	3282.05	2403.95
959.2077	2310.3299	3296.7	2413.1
959.3399	2311.7669	3267.25	2388.45
959.4721	2313.2031	3267.85	2386.9
959.6043	2314.6387	3245.25	2360.1
959.7365	2316.0735	3250.15	2368
959.8686	2317.5076	3244.15	2360.35
960.0006	2318.941	3225.65	2341.5
960.1327	2320.3737	3229.05	2344.85
960.2647	2321.8056	3231.65	2344
960.3967	2323.2369	3209.7	2325.65
960.5287	2324.6674	3199.6	2314.15
960.6606	2326.0972	3188.4	2302.85
960.7925	2327.5263	3197.25	2314.45
960.9244	2328.9547	3187.95	2303.35
961.0562	2330.3823	3182.5	2297.35
961.1881	2331.8092	3183.6	2295.05
961.3198	2333.2355	3151.55	2266.65
961.4516	2334.661	3146.55	2261.35
961.5833	2336.0858	3146.9	2262.35
961.715	2337.5098	3134.85	2249.8
961.8467	2338.9332	3133.05	2248.75
961.9783	2340.3558	3125.05	2239.65
962.1099	2341.7778	3113.55	2231.3
962.2415	2343.199	3120.2	2232.8
962.373	2344.6195	3099	2216.95
962.5045	2346.0393	3098.7	2218.05
962.636	2347.4583	3099.95	2217.7
962.7675	2348.8767	3087.75	2203.5
962.8989	2350.2943	3085.3	2200.4
963.0303	2351.7113	3082.15	2195.95
963.1617	2353.1275	3070	2184.5
963.293	2354.543	3067.5	2174.75
963.4243	2355.9578	3056.75	2171.75
963.5556	2357.3718	3049.9	2168.5
963.6868	2358.7852	3038.95	2155.05
963.818	2360.1978	3038.1	2154.7
963.9492	2361.6098	3027.85	2147.95
964.0803	2363.021	3017.85	2130.9
964.2114	2364.4315	3025	2144.3
964.3425	2365.8413	3006.55	2124.95
964.4736	2367.2504	2994.05	2115
964.6046	2368.6587	2988.25	2106.35
964.7356	2370.0664	2980.2	2100.85
964.8666	2371.4733	2978.25	2096.4
964.9975	2372.8795	2960.45	2080.75
965.1284	2374.285	2950.6	2068.75
965.2593	2375.6899	2946	2067.5
965.3901	2377.0939	2936.65	2056.65
965.5209	2378.4973	2936.4	2059.1
965.6517	2379.9	2930.9	2049.85
965.7825	2381.3019	2907.75	2028.05
965.9132	2382.7032	2909	2032.55
966.0439	2384.1037	2903.6	2027.8
966.1745	2385.5035	2889.6	2011.4
966.3051	2386.9027	2888.75	2011.45
966.4357	2388.3011	2879.9	1998.9
966.5663	2389.6987	2879.55	2000.95
966.6968	2391.0957	2873.05	1996.1
966.8273	2392.492	2856.2	1980.05
966.9578	2393.8876	2854.05	1977.4
967.0882	2395.2824	2839.55	1960
967.2186	2396.6765	2833.3	1954.85
967.349	2398.07	2818.95	1937.65
967.4793	2399.4627	2814.2	1932.45
967.6097	2400.8547	2816.45	1936
967.7399	2402.246	2814.75	1930.5
967.8702	2403.6366	2787.95	1909.25
968.0004	2405.0265	2780.65	1902.75
968.1306	2406.4156	2777.35	1894.8
968.2607	2407.8041	2768.2	1885.55
968.3909	2409.1918	2781.6	1903.1
968.521	2410.5789	2772	1891.25
968.651	2411.9652	2748.95	1868.15
968.781	2413.3508	2754.8	1874.8
968.911	2414.7358	2742.1	1861.7
969.041	2416.12	2739.55	1861.1
969.1709	2417.5035	2726.3	1849.15
969.3008	2418.8863	2724.95	1845.8
969.4307	2420.2684	2721.25	1841.35
969.5606	2421.6497	2706.3	1826.5
969.6904	2423.0304	2696.2	1815.5
969.8201	2424.4104	2691.15	1809.45
969.9499	2425.7896	2681.5	1801.05
970.0796	2427.1682	2682	1803.2
970.2093	2428.546	2669.75	1792.1
970.3389	2429.9232	2677.8	1795.65
970.4685	2431.2996	2668.4	1789.45
970.5981	2432.6753	2664.95	1786.3
970.7277	2434.0503	2664.3	1783.3
970.8572	2435.4246	2656.95	1776.45
970.9867	2436.7982	2645.05	1761.9
971.1161	2438.1711	2640.2	1760.5
971.2456	2439.5433	2628.65	1747.05
971.375	2440.9148	2629.45	1744
971.5043	2442.2856	2609.5	1732.9
971.6336	2443.6557	2613.55	1733.15
971.7629	2445.025	2599.15	1718.2
971.8922	2446.3937	2605.9	1726.8
972.0214	2447.7617	2598.65	1716.1
972.1506	2449.1289	2580.9	1701.2
972.2798	2450.4955	2601.5	1715.95
972.4089	2451.8613	2575.55	1696.85
972.538	2453.2265	2579	1699.45
972.6671	2454.5909	2571.7	1690.95
972.7961	2455.9546	2585.5	1706.65
972.9251	2457.3177	2559.05	1679.95
973.0541	2458.68	2558.9	1677.5
973.1831	2460.0416	2560.6	1679
973.312	2461.4025	2571.5	1689
973.4408	2462.7627	2555.3	1665.35
973.5697	2464.1222	2536.95	1660.2
973.6985	2465.4811	2543	1664.8
973.8273	2466.8392	2528.65	1648.35
973.956	2468.1966	2526.05	1644.2
974.0847	2469.5533	2534.55	1651.95
974.2134	2470.9093	2528.55	1646.85
974.3421	2472.2645	2513.2	1631.95
974.4707	2473.6191	2508	1629.2
974.5993	2474.973	2496.55	1615.35
974.7278	2476.3262	2497.95	1618
974.8563	2477.6787	2491.05	1610.75
974.9848	2479.0305	2485.8	1606.9
975.1132	2480.3816	2473.35	1592.7
975.2417	2481.7319	2473.25	1591.85
975.37	2483.0816	2466.6	1584.75
975.4984	2484.4306	2466.55	1585.2
975.6267	2485.7789	2457.8	1578.45
975.755	2487.1264	2449.95	1569
975.8833	2488.4733	2437.7	1560.5
976.0115	2489.8195	2427.85	1540.65
976.1397	2491.165	2439.55	1557.05
976.2678	2492.5097	2425.2	1542.45
976.3959	2493.8538	2406.95	1526.2
976.524	2495.1972	2401.55	1520.35
976.6521	2496.5398	2399.15	1515.2
976.7801	2497.8818	2389.9	1507.6
976.9081	2499.2231	2386.45	1504.75
977.036	2500.5637	2398.65	1516.45
977.164	2501.9035	2400	1520.4
977.2918	2503.2427	2384.8	1499.7
977.4197	2504.5812	2367.5	1487.75
977.5475	2505.919	2368.95	1486.75
977.6753	2507.256	2366.85	1484.45
977.8031	2508.5924	2354.15	1473.5
977.9308	2509.9281	2361.85	1475
978.0585	2511.2631	2346.35	1466.65
978.1861	2512.5974	2346.4	1465.9
978.3137	2513.9309	2346.15	1464.7
978.4413	2515.2638	2369.6	1462.05
978.5689	2516.596	2333.75	1452.6
978.6964	2517.9275	2321.5	1440.5
978.8239	2519.2583	2318.45	1437.15
978.9513	2520.5884	2320.2	1439.25
979.0788	2521.9178	2300.8	1418.65
979.2062	2523.2465	2304.5	1422.45
979.3335	2524.5745	2302.35	1423.6
979.4608	2525.9018	2296	1414.7
979.5881	2527.2284	2299.15	1419.6
979.7154	2528.5543	2293.8	1414.5
979.8426	2529.8796	2284.3	1402.45
979.9698	2531.2041	2286.3	1404.55
980.0969	2532.5279	2272.5	1393.25
980.224	2533.851	2272.75	1393.9
980.3511	2535.1735	2269.9	1388.1
980.4781	2536.4952	2262.4	1380.1
980.6052	2537.8163	2266.85	1384.05
980.7321	2539.1366	2255.3	1375.05
980.8591	2540.4562	2259.2	1376.55
980.986	2541.7752	2255.7	1373.85
981.1129	2543.0935	2248.7	1366.15
981.2397	2544.411	2247.5	1365.35
981.3665	2545.7279	2241.5	1362.3
981.4933	2547.0441	2238.5	1355.7
981.62	2548.3596	2236.15	1351.85
981.7467	2549.6744	2234.05	1352.65
981.8734	2550.9885	2246.6	1355.35
982.0001	2552.3019	2224.3	1343.95
982.1267	2553.6146	2224	1342.75
982.2532	2554.9266	2219.3	1338.2
982.3798	2556.2379	2203.95	1320.55
982.5063	2557.5485	2203.7	1323.5
982.6327	2558.8585	2211.85	1321.9
982.7592	2560.1677	2209.65	1323.6
982.8856	2561.4762	2200.05	1318.1
983.0119	2562.7841	2214.35	1330.6
983.1383	2564.0913	2200.95	1321.3
983.2646	2565.3977	2187.7	1306.65
983.3908	2566.7035	2182.55	1299.9
983.517	2568.0086	2188.15	1307
983.6432	2569.313	2182.65	1299.1
983.7694	2570.6167	2178.35	1294.95
983.8955	2571.9197	2163.15	1284.4
984.0216	2573.222	2181.85	1295.05
984.1476	2574.5236	2169.75	1287.85
984.2737	2575.8246	2166.65	1282.65
984.3996	2577.1248	2166.55	1282.9
984.5256	2578.4244	2164	1282.9
984.6515	2579.7232	2157.5	1277.65
984.7774	2581.0214	2183.8	1276.25
984.9032	2582.3189	2151.1	1270.9
985.029	2583.6157	2162.85	1277.6
985.1548	2584.9118	2155.2	1274.15
985.2806	2586.2072	2162.05	1282.6
985.4063	2587.5019	2154.55	1274.45
985.5319	2588.7959	2147.75	1268.7
985.6576	2590.0893	2150.8	1264.6
985.7832	2591.3819	2150.15	1270.05
985.9087	2592.6739	2147.8	1265.2
986.0343	2593.9652	2151.4	1268.4
986.1597	2595.2557	2135.3	1253.6
986.2852	2596.5456	2135.5	1250.45
986.4106	2597.8348	2132.1	1251.35
986.536	2599.1234	2124.8	1242.6
986.6614	2600.4112	2122.7	1241.5
986.7867	2601.6983	2130.7	1247.4
986.912	2602.9848	2119.55	1239.3
987.0372	2604.2705	2120.3	1233.15
987.1624	2605.5556	2122.9	1242.85
987.2876	2606.84	2117	1234.85
987.4128	2608.1237	2111.4	1229.55
987.5379	2609.4067	2098.1	1216.5
987.6629	2610.689	2102.25	1213.85
987.788	2611.9707	2091.25	1205.35
987.913	2613.2516	2095.35	1210.2
988.0379	2614.5319	2080.65	1198.8
988.1629	2615.8115	2076.25	1193.7
988.2878	2617.0903	2070.45	1189.6
988.4126	2618.3685	2067.7	1185.45
988.5375	2619.6461	2058	1173.95
988.6622	2620.9229	2057.05	1173.9
988.787	2622.199	2064.2	1183.3
988.9117	2623.4745	2054.95	1174.25
989.0364	2624.7493	2056.75	1176.7
989.161	2626.0234	2051.5	1170.5
989.2857	2627.2968	2044.55	1163.8
989.4102	2628.5695	2040.8	1158.75
989.5348	2629.8415	2037.7	1156.95
989.6593	2631.1128	2039.75	1156.95
989.7837	2632.3835	2022.15	1140.9
989.9082	2633.6535	2030	1151.9
990.0326	2634.9228	2029.65	1149
990.1569	2636.1914	2025.25	1142.8
990.2812	2637.4593	2028.85	1145.8
990.4055	2638.7265	2022.95	1141.05
990.5298	2639.9931	2014.65	1134.45
990.654	2641.259	2005.85	1122.5
990.7782	2642.5242	2004.4	1121.9
990.9023	2643.7887	2004.75	1123.4
991.0264	2645.0525	1998.95	1115.55
991.1505	2646.3156	1997.55	1116.25
991.2745	2647.5781	1985.75	1104
991.3985	2648.8398	1982.8	1100.8
991.5225	2650.1009	1983	1092.1
991.6464	2651.3613	1978.25	1097.8
991.7703	2652.6211	1973	1092.4
991.8942	2653.8801	1975.95	1094.3
992.018	2655.1385	1981.1	1098.55
992.1418	2656.3961	1966.05	1085.95
992.2655	2657.6531	1968.7	1088.7
992.3892	2658.9094	1961.75	1082
992.5129	2660.1651	1960	1079.2
992.6366	2661.42	1960.85	1079.8
992.7602	2662.6743	1961.3	1079.25
992.8837	2663.9279	1960.05	1078.5
993.0073	2665.1808	1957.8	1077.35
993.1307	2666.433	1957.55	1076.15
993.2542	2667.6846	1962.8	1082.5
993.3776	2668.9354	1962.55	1078.65
993.501	2670.1856	1955.15	1073.8
993.6244	2671.4351	1959.15	1079.25
993.7477	2672.6839	1970.1	1089.95
993.8709	2673.9321	1958.7	1077.85
993.9942	2675.1795	1967.4	1087.25
994.1174	2676.4263	1957.15	1076.7
994.2405	2677.6724	1963.25	1082.85
994.3637	2678.9179	1954.85	1072.8
994.4868	2680.1626	1954.25	1075.9
994.6098	2681.4067	1951.4	1069.8
994.7328	2682.6501	1955.35	1074.25
994.8558	2683.8928	1940.85	1058.7
994.9788	2685.1348	1943.5	1064.45
995.1017	2686.3761	1939.95	1059.7
995.2245	2687.6168	1931.55	1052.35
995.3474	2688.8568	1925.95	1046.3
995.4702	2690.0961	1914.55	1036.35
995.5929	2691.3348	1920	1039.75
995.7156	2692.5727	1912	1031.2
995.8383	2693.81	1911.6	1029.8
995.961	2695.0466	1905.35	1028.2
996.0836	2696.2826	1893.9	1014.45
996.2062	2697.5178	1900.5	1016.75
996.3287	2698.7524	1893.75	1013.45
996.4512	2699.9863	1889.9	1008.65
996.5737	2701.2195	1890.55	1012.15
996.6961	2702.452	1890.45	1008.2
996.8185	2703.6839	1897.35	1014.65
996.9408	2704.9151	1899.95	1019.85
997.0631	2706.1456	1908.85	1028.7
997.1854	2707.3755	1894.3	1015.15
997.3077	2708.6046	1916.55	1030.35
997.4299	2709.8331	1921.65	1042.9
997.552	2711.0609	1928.95	1045.8
997.6742	2712.2881	1927.95	1049.05
997.7963	2713.5145	1936.95	1056.15
997.9183	2714.7403	1947	1067.4
998.0403	2715.9654	1941.85	1061.35
998.1623	2717.1899	1959.45	1063
998.2842	2718.4136	1969.45	1090.85
998.4062	2719.6367	1978.6	1098.4
998.528	2720.8591	1984.2	1096.15
998.6498	2722.0809	1988.85	1106.55
998.7716	2723.3019	1996.9	1113.9
998.8934	2724.5223	2004.4	1122.55
999.0151	2725.7421	2012.5	1131.9
999.1368	2726.9611	2011.7	1129.55
999.2584	2728.1795	2018.8	1132.7
999.38	2729.3972	1994.85	1115.6
999.5016	2730.6142	2001.65	1109.95
999.6231	2731.8306	1968.6	1088.65
999.7446	2733.0462	1961.6	1080.8
999.8661	2734.2612	1944.65	1059.9
999.9875	2735.4756	1917.2	1035.65
1000.1089	2736.6892	1893.1	1012.2
1000.2302	2737.9022	1872.75	993.85
1000.3515	2739.1145	1853.55	974.25
1000.4728	2740.3262	1856.45	969.1
1000.594	2741.5372	1835.55	954.75
1000.7152	2742.7475	1825.35	947.2
1000.8363	2743.9571	1824.6	942.35
1000.9575	2745.1661	1809.1	924.1
1001.0785	2746.3744	1798.8	920.2
1001.1996	2747.582	1782.3	903.8
1001.3206	2748.7889	1781.05	897.1
1001.4415	2749.9952	1763.35	882.7
1001.5625	2751.2008	1762	881.4
1001.6833	2752.4057	1748.85	865.35
1001.8042	2753.61	1748.25	869.2
1001.925	2754.8136	1752.65	871.4
1002.0458	2756.0165	1741.15	860.85
1002.1665	2757.2188	1739.3	860.6
1002.2872	2758.4204	1746.05	868.5
1002.4078	2759.6213	1730.45	846.6
1002.5285	2760.8215	1744.2	863
1002.649	2762.0211	1741	858.85
1002.7696	2763.22	1733.45	849.7
1002.8901	2764.4182	1732.25	851.35
1003.0106	2765.6158	1718.8	839.5
1003.131	2766.8127	1714.2	836.75
1003.2514	2768.009	1708.65	827.45
1003.3717	2769.2045	1708	827.65
1003.492	2770.3994	1714.95	834.8
1003.6123	2771.5936	1708.6	829.5
1003.7325	2772.7872	1694.75	817.25
1003.8527	2773.9801	1695.7	813.85
1003.9729	2775.1723	1702.05	807.7
1004.093	2776.3639	1685.3	806.45
1004.2131	2777.5548	1691.4	810.95
1004.3331	2778.745	1694.1	812.25
1004.4531	2779.9346	1686.45	807
1004.5731	2781.1235	1689.85	809.7
1004.693	2782.3117	1690.25	811.85
1004.8129	2783.4992	1700	820.8
1004.9328	2784.6861	1696.45	817.35
1005.0526	2785.8723	1698.35	817.45
1005.1723	2787.0579	1694.8	818.35
1005.2921	2788.2428	1712.7	832
1005.4118	2789.427	1709.6	830.85
1005.5314	2790.6106	1732.85	854.2
1005.651	2791.7935	1734.25	853.7
1005.7706	2792.9757	1741.35	863.2
1005.8902	2794.1573	1750.2	868.2
1006.0097	2795.3382	1758.65	878.95
1006.1291	2796.5184	1776.7	898.45
1006.2485	2797.698	1784.6	904.2
1006.3679	2798.8769	1802.85	923.35
1006.4873	2800.0551	1813.9	935.55
1006.6066	2801.2327	1827.4	944.7
1006.7258	2802.4096	1834.45	956.5
1006.8451	2803.5859	1865.9	984.65
1006.9642	2804.7615	1889.55	1010.65
1007.0834	2805.9364	1904.4	1028.85
1007.2025	2807.1106	1925.8	1047
1007.3216	2808.2842	1964.25	1085.75
1007.4406	2809.4572	1988.4	1107.6
1007.5596	2810.6294	2018.7	1140.8
1007.6785	2811.801	2058.6	1182.15
1007.7975	2812.972	2097	1221.5
1007.9163	2814.1423	2141.15	1261.4
1008.0352	2815.3119	2179.05	1301.45
1008.154	2816.4808	2215.1	1337.1
1008.2727	2817.6491	2263.9	1383.2
1008.3914	2818.8167	2314.75	1437.75
1008.5101	2819.9837	2369.4	1486.85
1008.6288	2821.15	2417.2	1542
1008.7474	2822.3157	2463.7	1585.75
1008.8659	2823.4807	2496.7	1617.3
1008.9844	2824.645	2544.6	1665.15
1009.1029	2825.8086	2587.75	1710.85
1009.2214	2826.9716	2643.95	1767.95
1009.3398	2828.134	2680.6	1803.6
1009.4581	2829.2957	2714.25	1835.25
1009.5764	2830.4567	2739.1	1861.6
1009.6947	2831.617	2761.1	1883.2
1009.813	2832.7767	2768.6	1890.8
1009.9312	2833.9358	2774.55	1896.95
1010.0493	2835.0941	2775.55	1895.45
1010.1675	2836.2519	2758.95	1881.9
1010.2855	2837.4089	2744.45	1864.7
1010.4036	2838.5653	2730.75	1855.75
1010.5216	2839.7211	2738.8	1863.75
1010.6396	2840.8761	2741.3	1861.7
1010.7575	2842.0306	2770.8	1895.8
1010.8754	2843.1843	2795.35	1918.35
1010.9932	2844.3374	2850	1972
1011.111	2845.4899	2910.75	2029.9
1011.2288	2846.6417	2962.5	2084.1
1011.3465	2847.7928	3036.55	2160.15
1011.4642	2848.9433	3113.55	2236.2
1011.5818	2850.0931	3189.8	2309.2
1011.6995	2851.2422	3264.55	2386.6
1011.817	2852.3907	3332.75	2453.8
1011.9345	2853.5385	3399.15	2520.7
1012.052	2854.6857	3473.2	2570.85
1012.1695	2855.8323	3492.2	2615.75
1012.2869	2856.9781	3545.65	2669.35
1012.4042	2858.1233	3596.3	2717.75
1012.5216	2859.2679	3631.35	2754.4
1012.6389	2860.4118	3680.2	2802.95
1012.7561	2861.555	3732.5	2850.95
1012.8733	2862.6976	3759	2881.5
1012.9905	2863.8395	3789.7	2911.9
1013.1076	2864.9808	3804.35	2927
1013.2247	2866.1214	3813.25	2936.4
1013.3417	2867.2614	3825.95	2946.55
1013.4587	2868.4007	3853.8	2974.55
1013.5757	2869.5393	3868.15	2986.6
1013.6926	2870.6773	3879.4	2999.75
1013.8095	2871.8146	3884.15	3001.85
1013.9263	2872.9513	3885.1	3004.8
1014.0431	2874.0874	3884.4	3007.65
1014.1599	2875.2227	3871.95	2991.45
1014.2766	2876.3574	3842.8	2965.75
1014.3933	2877.4915	3822.7	2945.5
1014.51	2878.6249	3790.65	2912.15
1014.6266	2879.7577	3765.2	2885.5
1014.7431	2880.8898	3765.2	2878.25
1014.8596	2882.0212	3743.55	2866.5
1014.9761	2883.152	3736.75	2857.5
1015.0925	2884.2821	3715.15	2838.5
1015.2089	2885.4116	3690.6	2816
1015.3253	2886.5405	3711.05	2834.1
1015.4416	2887.6686	3711.75	2830.35
1015.5579	2888.7962	3725.95	2849.15
1015.6741	2889.923	3721	2844.85
1015.7903	2891.0493	3733.35	2857.6
1015.9065	2892.1748	3737.45	2861.4
1016.0226	2893.2997	3756.7	2880.15
1016.1387	2894.424	3756.2	2881
1016.2547	2895.5476	3788.8	2911.85
1016.3707	2896.6706	3813.35	2937.3
1016.4866	2897.7929	3820.7	2942.2
1016.6025	2898.9145	3862.35	2985.9
1016.7184	2900.0355	3898.35	3021
1016.8342	2901.1559	3922.75	3042.85
1016.95	2902.2756	3967.25	3090.95
1017.0658	2903.3946	3979.85	3103.35
1017.1815	2904.513	4012.25	3134.7
1017.2971	2905.6308	4034.55	3158
1017.4127	2906.7479	4054.15	3179.6
1017.5283	2907.8643	4092.55	3212.45
1017.6439	2908.9801	4093.2	3216.4
1017.7594	2910.0953	4094.2	3217.05
1017.8748	2911.2098	4094.75	3211.25
1017.9902	2912.3236	4091.65	3210.1
1018.1056	2913.4368	4096	3218.55
1018.2209	2914.5494	4062.65	3186.45
1018.3362	2915.6613	4045.9	3162.5
1018.4515	2916.7725	4002.25	3124.65
1018.5667	2917.8831	3991.15	3113.25
1018.6819	2918.9931	3949.95	3070.3
1018.797	2920.1024	3907.55	3031.15
1018.9121	2921.211	3891.5	3015.7
1019.0271	2922.319	3874.5	2996.7
1019.1421	2923.4264	3863.45	2987.2
1019.2571	2924.5331	3835.25	2961.65
1019.372	2925.6391	3830.5	2955.25
1019.4869	2926.7445	3827.05	2952.75
1019.6017	2927.8493	3809.8	2934.5
1019.7165	2928.9534	3792.2	2914.6
1019.8313	2930.0569	3805.6	2927.3
1019.946	2931.1597	3794.15	2917.15
1020.0606	2932.2619	3793.05	2916.2
1020.1753	2933.3634	3785.25	2908.4
1020.2899	2934.4643	3780.2	2897.4
1020.4044	2935.5645	3755.5	2874.75
1020.5189	2936.6641	3716.45	2836.45
1020.6334	2937.763	3672.25	2796.25
1020.7478	2938.8613	3617.85	2740.75
1020.8622	2939.959	3569.95	2687.95
1020.9765	2941.056	3498.25	2624.1
1021.0908	2942.1523	3418.85	2538.9
1021.2051	2943.248	3336.75	2460.4
1021.3193	2944.3431	3226.6	2348.65
1021.4334	2945.4375	3120.8	2243.25
1021.5476	2946.5313	3039.35	2163.85
1021.6617	2947.6244	2926.45	2050.3
1021.7757	2948.7169	2836.45	1959.5
1021.8897	2949.8087	2729.9	1855.5
1022.0037	2950.8999	2657.75	1780.85
1022.1176	2951.9904	2569.4	1693.55
1022.2315	2953.0803	2494.4	1616.5
1022.3453	2954.1696	2432.2	1554.45
1022.4591	2955.2582	2374.7	1499.05
1022.5728	2956.3462	2329.4	1453.05
1022.6865	2957.4335	2280.65	1404.5
1022.8002	2958.5202	2268.8	1389.55
1022.9138	2959.6062	2220.65	1344.8
1023.0274	2960.6916	2201.95	1324.05
1023.141	2961.7764	2197.7	1320.75
1023.2545	2962.8605	2181.1	1303.15
1023.3679	2963.9439	2153.7	1278.65
1023.4813	2965.0267	2155.45	1275.85
1023.5947	2966.1089	2156.25	1257.1
1023.708	2967.1905	2128.25	1255.85
1023.8213	2968.2714	2131.45	1256.65
1023.9346	2969.3516	2126.7	1251.8
1024.0478	2970.4312	2138.9	1256.2
1024.1609	2971.5102	2132.7	1259.35
1024.274	2972.5885	2134.7	1258.9
1024.3871	2973.6662	2129.95	1248.5
1024.5002	2974.7432	2127.95	1252.35
1024.6132	2975.8196	2118.75	1243
1024.7261	2976.8954	2112.8	1236.4
1024.839	2977.9705	2100.9	1228.4
1024.9519	2979.045	2086	1209.35
1025.0647	2980.1188	2070.35	1196.3
1025.1775	2981.192	2047.95	1172.35
1025.2902	2982.2645	2023.75	1147.3
1025.4029	2983.3364	2001.7	1125.7
1025.5156	2984.4077	1965.4	1091.3
1025.6282	2985.4783	1950.7	1068.95
1025.7407	2986.5483	1898.15	1022
1025.8532	2987.6177	1870.65	996.25
1025.9657	2988.6864	1838.3	961.95
1026.0782	2989.7545	1808.9	933
1026.1906	2990.8219	1768.7	894.95
1026.3029	2991.8887	1737.95	861.65
1026.4152	2992.9548	1712.3	836.05
1026.5275	2994.0204	1675.45	799.85
1026.6397	2995.0852	1648.45	772.95
1026.7519	2996.1495	1635.15	761
1026.864	2997.2131	1604	727.8
1026.9761	2998.276	1588.75	713.6
1027.0882	2999.3383	1560.8	682.55
1027.2002	3000.4	1545.05	668.45
1027.3122	3001.4611	1518.75	644.1
1027.4241	3002.5215	1506.5	631.2
1027.536	3003.5812	1499.3	624.5
1027.6478	3004.6404	1482.6	607.7
1027.7596	3005.6989	1479.4	602.25
1027.8714	3006.7567	1463.25	585.75
1027.9831	3007.8139	1483	576.25
1028.0947	3008.8705	1453.85	577.05
1028.2064	3009.9264	1442.1	563.6
1028.3179	3010.9818	1439.5	563.7
1028.4295	3012.0364	1433.2	557.25
1028.541	3013.0905	1425.8	549.95
1028.6524	3014.1439	1417.95	543.1
1028.7638	3015.1966	1419.75	545.7
1028.8752	3016.2487	1421.5	548.05
1028.9865	3017.3002	1418.85	538.8
1029.0978	3018.3511	1417.1	542.8
1029.209	3019.4013	1418.75	545.9
1029.3202	3020.4509	1418.8	541.5
1029.4314	3021.4998	1413.4	535.8
1029.5425	3022.5481	1417.65	541.3
1029.6535	3023.5958	1419.2	543.65
1029.7645	3024.6428	1411.45	535.4
1029.8755	3025.6892	1413.8	539.45
1029.9864	3026.735	1419.2	545.45
1030.0973	3027.7802	1420.6	546.35
1030.2082	3028.8247	1416.9	543.95
1030.319	3029.8685	1424.75	548.6
1030.4297	3030.9118	1427.6	552.25
1030.5404	3031.9544	1421.55	546.15
1030.6511	3032.9963	1436.15	561.3
1030.7617	3034.0376	1430.25	556.25
1030.8723	3035.0783	1430.1	550.8
1030.9829	3036.1184	1438.05	563.3
1031.0934	3037.1578	1444.9	571.7
1031.2038	3038.1966	1444.35	568.65
1031.3142	3039.2348	1447.6	573.4
1031.4246	3040.2723	1452.5	568.9
1031.5349	3041.3092	1441.85	569.75
1031.6452	3042.3455	1433.4	557.7
1031.7554	3043.3811	1438.7	562
1031.8656	3044.4161	1429	551.7
1031.9758	3045.4505	1422.4	544.65
1032.0859	3046.4842	1427.75	552.05
1032.1959	3047.5173	1417.2	541.9
1032.3059	3048.5498	1409.4	536.7
1032.4159	3049.5816	1401.9	526.25
1032.5258	3050.6128	1396.3	520.35
1032.6357	3051.6434	1393	517.75
1032.7455	3052.6734	1387	510.2
1032.8553	3053.7027	1379	504.3
1032.9651	3054.7314	1364.9	488.95
1033.0748	3055.7594	1363.9	488.95
1033.1845	3056.7868	1364.25	488.45
1033.2941	3057.8136	1357.6	482.9
1033.4037	3058.8398	1353.7	480.85
1033.5132	3059.8653	1349.95	475.35
1033.6227	3060.8902	1338.65	464.75
1033.7321	3061.9145	1338.1	464.7
1033.8415	3062.9381	1338.65	463.9
1033.9509	3063.9612	1346.95	457.55
1034.0602	3064.9835	1318.6	443.45
1034.1694	3066.0053	1320.95	443.1
1034.2787	3067.0264	1307.5	433.3
1034.3878	3068.0469	1304.25	428.2
1034.497	3069.0668	1291.35	415
1034.6061	3070.086	1286.4	412.9
1034.7151	3071.1046	1276.35	400.15
1034.8241	3072.1226	1268.9	391.85
1034.9331	3073.1399	1264.55	390.2
1035.042	3074.1567	1252.4	376.4
1035.1508	3075.1727	1251.9	378.05
1035.2597	3076.1882	1239.65	366.05
1035.3684	3077.203	1228.95	355.3
1035.4772	3078.2173	1220.45	344.6
1035.5859	3079.2308	1215.35	337.75
1035.6945	3080.2438	1200.1	323.55
1035.8031	3081.2561	1200.45	325.45
1035.9117	3082.2678	1189.9	316.35
1036.0202	3083.2789	1183.8	310.7
1036.1286	3084.2893	1172.1	298.75
1036.2371	3085.2991	1173.25	300.3
1036.3454	3086.3083	1169.5	291.9
1036.4538	3087.3169	1159.95	284.85
1036.562	3088.3248	1158.6	280.55
1036.6703	3089.3321	1151.95	276.15
1036.7785	3090.3388	1147.55	272.4
1036.8866	3091.3449	1143	268.15
1036.9948	3092.3503	1141.55	264.1
1037.1028	3093.3551	1137.85	265.35
1037.2108	3094.3593	1130.3	257.5
1037.3188	3095.3629	1126.95	253.4
1037.4267	3096.3658	1121.65	247.05
1037.5346	3097.3681	1118.35	243.55
1037.6425	3098.3698	1118.55	243.1
1037.7503	3099.3708	1123.35	243.5
1037.858	3100.3713	1108.1	234.85
1037.9657	3101.3711	1106.05	230.85
1038.0734	3102.3702	1251.65	237.1
1038.181	3103.3688	1106.45	230.65
1038.2886	3104.3667	1101.35	227.1
1038.3961	3105.364	1098.75	224.9
1038.5036	3106.3607	1100.45	225.35
1038.611	3107.3568	1093.1	216
1038.7184	3108.3522	1094.45	221.05
1038.8257	3109.347	1089.7	215.95
1038.933	3110.3412	1096.25	217.4
1039.0403	3111.3348	1085.25	214.35
1039.1475	3112.3277	1086.6	213.25
1039.2547	3113.32	1087.05	212.9
1039.3618	3114.3117	1085.55	210.8
1039.4689	3115.3028	1080.2	204.7
1039.5759	3116.2932	1080.1	203.15
1039.6829	3117.2831	1079.5	200.45
1039.7898	3118.2723	1072.25	198
1039.8967	3119.2608	1072.4	198.3
1040.0035	3120.2488	1069.8	197.05
1040.1103	3121.2361	1072	198.4
1040.2171	3122.2229	1068.15	193.25
1040.3238	3123.209	1067.8	191.15
1040.4305	3124.1944	1059.25	185.75
1040.5371	3125.1793	1067.95	192.5
1040.6437	3126.1635	1061.6	187.85
1040.7502	3127.1471	1055.75	184.1
1040.8567	3128.1301	1061.7	186.85
1040.9631	3129.1125	1056.75	183.9
1041.0695	3130.0942	1059.35	185.55
1041.1759	3131.0753	1065	182.4
1041.2822	3132.0558	1062.4	185.65
1041.3884	3133.0357	1055	178.35
1041.4946	3134.015	1048.7	173.95
1041.6008	3134.9936	1051	175.55
1041.7069	3135.9716	1066.3	171.1
1041.813	3136.949	1052.05	177.4
1041.919	3137.9258	1064.3	173.6
1042.025	3138.902	1054.6	176.95
1042.1309	3139.8775	1039.8	161.95
1042.2368	3140.8524	1041.75	168.7
1042.3427	3141.8267	1045.1	170.2
1042.4485	3142.8004	1040.85	167.2
1042.5542	3143.7735	1044.5	164.6
1042.6599	3144.7459	1038.95	162.95
1042.7656	3145.7178	1038.8	163.1
1042.8712	3146.689	1032.5	161.2
1042.9768	3147.6596	1034.7	159.65
1043.0823	3148.6295	1032.4	157.9
1043.1878	3149.5989	1033.15	160.1
1043.2932	3150.5676	1029.75	157.4
1043.3986	3151.5357	1028.85	157.2
1043.5039	3152.5032	1023.25	148.4
1043.6092	3153.4701	1026.3	153.05
1043.7145	3154.4364	1031.1	156
1043.8197	3155.402	1027.2	155.45
1043.9248	3156.367	1021.55	145.9
1044.03	3157.3315	1045.5	144.65
1044.135	3158.2952	1020.5	146.9
1044.24	3159.2584	1019.05	146.8
1044.345	3160.221	1018.95	144.15
1044.4499	3161.1829	1019	146.65
1044.5548	3162.1442	1016.8	143.4
1044.6596	3163.105	1013.45	140.65
1044.7644	3164.065	1015.95	142.5
1044.8692	3165.0245	1020.95	143
1044.9739	3165.9834	1013.8	141.3
1045.0785	3166.9416	1010.6	139.4
1045.1831	3167.8993	1011.4	136.45
1045.2877	3168.8563	1010.25	135.95
1045.3922	3169.8127	1008.75	138.1
1045.4966	3170.7684	1008.25	134.6
1045.6011	3171.7236	1008.35	134.95
1045.7054	3172.6782	1010.7	137.9
1045.8098	3173.6321	1008.7	134.35
1045.914	3174.5854	1010.6	132.85
1046.0183	3175.5381	1003.3	129.35
1046.1224	3176.4902	1001.95	128.05
1046.2266	3177.4417	1000.05	128.65
1046.3307	3178.3926	1003.7	130.95
1046.4347	3179.3428	996.65	123.85
1046.5387	3180.2924	995.6	123.95
1046.6427	3181.2415	1000.15	125.15
1046.7466	3182.1899	1000.75	126.75
1046.8504	3183.1377	994.9	122.65
1046.9542	3184.0848	999.2	122.85
1047.058	3185.0314	995.65	122.4
1047.1617	3185.9773	994.8	120.1
1047.2654	3186.9227	995.35	123.35
1047.369	3187.8674	994.85	122.15
1047.4726	3188.8115	996.25	116.8
1047.5761	3189.755	991.9	119.55
1047.6796	3190.6979	991.9	119.95
1047.783	3191.6402	987.5	117.2
1047.8864	3192.5818	987.15	113.7
1047.9898	3193.5229	994.95	115.55
1048.0931	3194.4633	993.1	117.85
1048.1963	3195.4031	987.8	113.4
1048.2995	3196.3423	987	112.95
1048.4027	3197.2809	984.25	110.7
1048.5058	3198.2189	988.2	114.1
1048.6089	3199.1563	998.85	110.35
1048.7119	3200.0931	982.3	111.6
1048.8148	3201.0292	981.85	110.1
1048.9178	3201.9648	983.1	111.3
1049.0206	3202.8997	983.8	108.55
1049.1235	3203.834	982.55	108.65
1049.2262	3204.7677	984.95	113.25
1049.329	3205.7008	977.6	102.35
1049.4317	3206.6333	977.3	107.75
1049.5343	3207.5652	981.45	105
1049.6369	3208.4964	980	107.3
1049.7394	3209.4271	978.45	106.1
1049.8419	3210.3571	978.5	105.45
1049.9444	3211.2865	979.3	107.6
1050.0468	3212.2154	980.5	107.25
1050.1491	3213.1436	976.45	102.25
1050.2514	3214.0712	982.5	102.7
1050.3537	3214.9982	976.35	102.75
1050.4559	3215.9246	973.85	100.7
1050.5581	3216.8503	973.15	100.6
1050.6602	3217.7755	973.05	98.25
1050.7623	3218.7001	972.2	98.6
1050.8643	3219.624	971.4	99.15
1050.9663	3220.5473	974.6	102.35
1051.0682	3221.4701	968	92.55
1051.1701	3222.3922	973.45	100.15
1051.2719	3223.3137	972.55	97.4
1051.3737	3224.2346	968.55	95.1
1051.4754	3225.1549	970.15	98.95
1051.5771	3226.0746	970.6	99
1051.6788	3226.9937	970.1	98.55
1051.7804	3227.9121	967.45	94.25
1051.8819	3228.83	964.35	91
1051.9834	3229.7473	969.65	96.6
1052.0849	3230.6639	968.7	95.8
1052.1863	3231.5799	966.95	95.65
1052.2876	3232.4954	963.75	90
1052.3889	3233.4102	963.95	90.6
1052.4902	3234.3244	967.45	95.2
1052.5914	3235.238	962.85	91.75
1052.6926	3236.151	982.2	86.8
1052.7937	3237.0634	962.65	91.95
1052.8948	3237.9752	959.35	86.85
1052.9958	3238.8864	962.15	90.35
1053.0968	3239.797	960.7	88.5
1053.1977	3240.7069	960	88.45
1053.2986	3241.6163	964.1	91.55
1053.3994	3242.5251	959.75	88.05
1053.5002	3243.4332	958.05	87.55
1053.6009	3244.3408	959.7	86.25
1053.7016	3245.2477	955.5	86.45
1053.8022	3246.154	955.8	84.25
1053.9028	3247.0598	957.85	84.8
1054.0034	3247.9649	955.9	82.7
1054.1039	3248.8694	955.75	84.65
1054.2043	3249.7733	955.05	82.15
1054.3047	3250.6766	953.1	81.65
1054.4051	3251.5793	953.85	79.55
1054.5054	3252.4814	951.65	80.8
1054.6056	3253.3829	950.55	80.25
1054.7058	3254.2838	950.15	78.5
1054.806	3255.1841	951	78
1054.9061	3256.0838	948.1	76.1
1055.0061	3256.9829	945.35	73.6
1055.1062	3257.8814	946.45	72.45
1055.2061	3258.7792	948.2	74.85
1055.306	3259.6765	944.95	72.9
1055.4059	3260.5731	944.75	73.1
1055.5057	3261.4692	943.85	72.7
1055.6055	3262.3647	943	69.1
1055.7052	3263.2595	939.95	66.65
1055.8049	3264.1538	940.35	68.6
1055.9045	3265.0474	940.65	68.9
1056.0041	3265.9404	937.45	65.5
1056.1036	3266.8329	932.8	62.8
1056.2031	3267.7247	945.05	62
1056.3025	3268.616	933	62.25
1056.4019	3269.5066	930.5	60.2
1056.5013	3270.3966	931.65	57.95
1056.6005	3271.286	927.25	56.65
