Software Version:	3.9.2.0
Unit SN:	10000200
Spectrometer SN:	6960
Date:	3/8/2024 11:42:54 AM
Data Line Index:	25
Spectral Points:	2048
Integration time (ms):	125
Averages:	20
Delay (ms):	30000
Sequence Number:	1
Processing:	dark subtract
Laser Power (mW):	305
Laser Current (mA):	823
Laser Diode Temp (C):	25.1
Laser Case Temp (C):	25.3
System Temp (C):	25.3
Spectrometer Temp (C):	23.1
CCD Temp (C):	0.009
Secondary Temp (C):	20.007
Heatsink Temp (C):	19.841
CCDPCB Temp (C):	35.273
SecondaryPCB Temp (C):	27.637

Wavelength	RamanShift	Raw Counts	Dark Subtracted
787.061	30.1047	414.85	6.1
787.2016	32.3739	411.25	4
787.3422	34.6426	414.7	6.2
787.4828	36.9109	417.65	7.55
787.6235	39.1787	422	7.9
787.7642	41.4461	426.65	9.35
787.9049	43.7131	430.6	10.1
788.0456	45.9796	432.1	8.85
788.1863	48.2456	438.85	11.4
788.3271	50.5112	442.35	9.65
788.4679	52.7764	445.6	10.3
788.6087	55.0411	451.75	11.85
788.7496	57.3054	456.85	11.75
788.8904	59.5692	457.3	11.05
789.0313	61.8326	463.25	14.5
789.1722	64.0955	466.7	14.3
789.3132	66.3579	474.5	17.45
789.4541	68.6199	479.85	20.15
789.5951	70.8815	489.55	23.25
789.7361	73.1426	509.3	40.05
789.8771	75.4032	540.55	68.45
790.0181	77.6634	619.15	140.75
790.1592	79.9231	787.65	307.25
790.3003	82.1824	1144.5	657.6
790.4414	84.4412	1724.95	1218.95
790.5825	86.6995	2456.4	1936.55
790.7237	88.9574	3149.7	2619.3
790.8648	91.2148	3621.3	3082
791.006	93.4717	3823.5	3277.2
791.1472	95.7282	3846.3	3292.8
791.2885	97.9842	3828.4	3276.2
791.4297	100.2398	3775.4	3219.05
791.571	102.4949	3710.6	3151.1
791.7123	104.7495	3670.25	3106.7
791.8536	107.0036	3621.15	3057.4
791.9949	109.2573	3545.65	2984.05
792.1363	111.5105	3450.8	2885.25
792.2777	113.7632	3350.7	2784.4
792.4191	116.0154	3250.15	2672.45
792.5605	118.2672	3147.55	2572.45
792.7019	120.5185	3017.2	2443.65
792.8434	122.7693	2928.05	2348.05
792.9849	125.0197	2844.95	2260.65
793.1264	127.2696	2765.25	2179.9
793.2679	129.519	2724.3	2133.25
793.4094	131.7679	2687.2	2097.85
793.551	134.0163	2668.3	2075.6
793.6926	136.2642	2675.5	2075.6
793.8342	138.5117	2647.95	2047.3
793.9758	140.7587	2617.35	2016.8
794.1175	143.0052	2568.65	1966.4
794.2591	145.2512	2517.9	1911.1
794.4008	147.4967	2473.7	1867.55
794.5425	149.7417	2417.55	1809
794.6842	151.9863	2408.7	1796.65
794.826	154.2304	2387.3	1769.6
794.9677	156.4739	2374.3	1753.9
795.1095	158.717	2385.35	1762.2
795.2513	160.9596	2423.95	1795.3
795.3931	163.2017	2443.9	1811.65
795.535	165.4433	2441.4	1809.3
795.6768	167.6844	2437.95	1803.4
795.8187	169.925	2414.4	1777.55
795.9606	172.1651	2363.6	1727.4
796.1025	174.4047	2305.6	1664.55
796.2445	176.6439	2262.95	1619.85
796.3864	178.8825	2242.4	1593.05
796.5284	181.1206	2226.2	1573.3
796.6704	183.3582	2213.75	1557.85
796.8124	185.5954	2213.15	1554.25
796.9544	187.832	2210.4	1550.25
797.0965	190.0681	2208.35	1544
797.2386	192.3037	2224.2	1555.1
797.3806	194.5388	2226.85	1559.05
797.5228	196.7734	2234.65	1561.65
797.6649	199.0075	2248.1	1573.3
797.807	201.2411	2270.75	1598.3
797.9492	203.4742	2305.95	1628.4
798.0914	205.7068	2331.5	1651.1
798.2336	207.9389	2339.65	1657.5
798.3758	210.1704	2359.25	1683.45
798.518	212.4015	2361.05	1695.15
798.6603	214.632	2357.9	1700.75
798.8025	216.862	2359.6	1702.95
798.9448	219.0915	2354.4	1698.05
799.0871	221.3205	2375.2	1712
799.2294	223.549	2375.7	1716.3
799.3718	225.777	2378.1	1717.75
799.5141	228.0044	2367.25	1698.55
799.6565	230.2314	2360.3	1693.25
799.7989	232.4578	2351.4	1679
799.9413	234.6837	2353.85	1671.55
800.0837	236.909	2349.45	1663.65
800.2262	239.1339	2343.3	1637.95
800.3687	241.3582	2334.1	1640.15
800.5111	243.582	2339.5	1618.4
800.6536	245.8053	2359.1	1652.3
800.7961	248.0281	2343.3	1639.9
800.9387	250.2503	2360.55	1651.8
801.0812	252.472	2366.45	1657.25
801.2238	254.6932	2377.15	1670.3
801.3664	256.9139	2382.95	1672.85
801.509	259.134	2399.65	1684
801.6516	261.3536	2429.3	1716.4
801.7942	263.5727	2467.1	1753.4
801.9369	265.7912	2522.8	1807.7
802.0795	268.0092	2583.95	1870.85
802.2222	270.2267	2634.3	1916.05
802.3649	272.4436	2684.35	1964.2
802.5076	274.6601	2726.2	1999.05
802.6504	276.8759	2740.6	2015.65
802.7931	279.0913	2769.45	2048.15
802.9359	281.3061	2776.4	2051
803.0787	283.5204	2811.7	2082.15
803.2215	285.7341	2828.9	2097.65
803.3643	287.9473	2852.6	2120.85
803.5071	290.16	2852.25	2119.8
803.6499	292.3721	2809.65	2079.1
803.7928	294.5837	2777.05	2045.4
803.9357	296.7947	2747.55	2015.4
804.0786	299.0052	2739.6	2008.6
804.2215	301.2152	2714	1981.8
804.3644	303.4246	2698.8	1968.45
804.5074	305.6334	2679.65	1951.3
804.6503	307.8418	2660	1924.2
804.7933	310.0495	2638.95	1899.8
804.9363	312.2568	2602.25	1863.25
805.0793	314.4635	2550.1	1811.55
805.2223	316.6696	2495.25	1755.9
805.3653	318.8752	2449.75	1700.45
805.5084	321.0802	2423.45	1680.5
805.6514	323.2847	2421.3	1674.8
805.7945	325.4887	2435.1	1688.1
805.9376	327.692	2458.85	1710.7
806.0807	329.8949	2499.35	1748.35
806.2238	332.0972	2529.75	1778.5
806.367	334.2989	2548.85	1795.1
806.5101	336.5001	2539.1	1784.85
806.6533	338.7007	2517.55	1763.55
806.7965	340.9008	2456.6	1700.55
806.9397	343.1003	2414.65	1659.65
807.0829	345.2992	2366.4	1607
807.2261	347.4976	2329.45	1568.75
807.3693	349.6955	2301.75	1537.65
807.5126	351.8927	2279.55	1512.7
807.6559	354.0895	2270.95	1494.5
807.7991	356.2856	2245	1476.4
807.9424	358.4812	2239.35	1473
808.0857	360.6763	2235.75	1468.05
808.2291	362.8707	2232.5	1459.45
808.3724	365.0646	2235	1460.45
808.5158	367.258	2247.5	1473.1
808.6591	369.4508	2256.9	1475.3
808.8025	371.643	2303.3	1522.95
808.9459	373.8346	2322.25	1542.5
809.0893	376.0257	2363.9	1584
809.2327	378.2162	2381.55	1600.1
809.3762	380.4062	2400.5	1617.45
809.5196	382.5956	2371.7	1591.1
809.6631	384.7844	2322.65	1547.7
809.8066	386.9726	2272.45	1498.05
809.9501	389.1603	2254.9	1479.8
810.0936	391.3474	2269.75	1462.65
810.2371	393.5339	2246.7	1469.85
810.3806	395.7199	2261.8	1486.25
810.5241	397.9052	2286.2	1508.7
810.6677	400.09	2316.45	1539.25
810.8113	402.2743	2364.85	1587.45
810.9548	404.4579	2407.25	1629.8
811.0984	406.641	2458.95	1676.15
811.2421	408.8235	2514.1	1732.95
811.3857	411.0054	2545.55	1761.15
811.5293	413.1868	2625	1836.6
811.673	415.3675	2664.3	1872.5
811.8166	417.5477	2654.75	1864.05
811.9603	419.7273	2595.1	1804.4
812.104	421.9064	2516.35	1715.2
812.2477	424.0848	2455.3	1660.9
812.3914	426.2627	2383.6	1587.55
812.5351	428.4399	2337.75	1540.9
812.6788	430.6166	2281.2	1482.1
812.8226	432.7928	2228.65	1425.25
812.9663	434.9683	2185.05	1379.3
813.1101	437.1432	2161.25	1359.4
813.2539	439.3176	2127.8	1328.05
813.3977	441.4914	2121.7	1324.4
813.5415	443.6645	2121.15	1317.9
813.6853	445.8371	2123.9	1322.6
813.8291	448.0091	2120.2	1317.9
813.973	450.1806	2118.2	1318.05
814.1168	452.3514	2123.75	1317.85
814.2607	454.5216	2129.9	1315.35
814.4046	456.6913	2117.7	1309.4
814.5485	458.8603	2119.8	1315.8
814.6924	461.0288	2133.15	1328.3
814.8363	463.1967	2135.3	1330.35
814.9802	465.3639	2120.1	1315.1
815.1241	467.5306	2108.65	1302.5
815.2681	469.6967	2109.25	1304.3
815.412	471.8622	2096.45	1291.2
815.556	474.0271	2101	1293.85
815.7	476.1914	2106.35	1293.95
815.844	478.3551	2098.05	1286.8
815.988	480.5182	2104.8	1295.15
816.132	482.6807	2113.8	1306.55
816.276	484.8426	2120.2	1314.4
816.4201	487.0039	2158.8	1351.85
816.5641	489.1647	2226.6	1417.95
816.7082	491.3248	2264	1453.05
816.8522	493.4843	2278.55	1468.4
816.9963	495.6432	2266.6	1455.55
817.1404	497.8015	2239.85	1422.8
817.2845	499.9592	2200.75	1382.7
817.4286	502.1163	2139.3	1322.3
817.5727	504.2728	2093.45	1276.6
817.7168	506.4287	2078.1	1268.1
817.861	508.5839	2060.55	1244.65
818.0051	510.7386	2054.55	1238.85
818.1493	512.8927	2057.05	1232.35
818.2935	515.0461	2059.05	1241
818.4377	517.199	2089.65	1269.7
818.5818	519.3512	2130.9	1310.1
818.726	521.5029	2206.95	1380.25
818.8703	523.6539	2271.45	1450.1
819.0145	525.8043	2261.45	1436.6
819.1587	527.9541	2220.15	1393.55
819.303	530.1033	2140.25	1316.65
819.4472	532.2519	2090.3	1267.6
819.5915	534.3999	2074.65	1248.45
819.7357	536.5472	2061.85	1236.35
819.88	538.694	2059.35	1234.95
820.0243	540.8401	2080.6	1256.1
820.1686	542.9856	2100.75	1271.25
820.3129	545.1305	2108.9	1277.95
820.4572	547.2748	2120	1285.35
820.6016	549.4185	2135.7	1304.1
820.7459	551.5615	2136.2	1303.45
820.8902	553.704	2164.2	1330.7
821.0346	555.8458	2172.85	1341.15
821.1789	557.987	2206.2	1375.95
821.3233	560.1276	2232.4	1399.05
821.4677	562.2675	2283.4	1451.2
821.6121	564.4069	2345.35	1513.1
821.7565	566.5456	2388.75	1561
821.9009	568.6837	2373.6	1544
822.0453	570.8212	2296.75	1463.4
822.1897	572.958	2214.25	1379.7
822.3342	575.0942	2158.65	1326.65
822.4786	577.2299	2120.55	1291.75
822.6231	579.3648	2097.65	1270.7
822.7675	581.4992	2086.45	1261
822.912	583.6329	2087.5	1262.3
823.0565	585.766	2122.85	1293.4
823.201	587.8985	2184.75	1357.75
823.3454	590.0304	2229.5	1383.9
823.4899	592.1616	2253.95	1417.65
823.6345	594.2922	2243.25	1402.5
823.779	596.4222	2199.6	1361.7
823.9235	598.5515	2145.9	1306.65
824.068	600.6802	2094.7	1259
824.2126	602.8083	2049.45	1211.75
824.3571	604.9358	2042.65	1203.2
824.5017	607.0626	2031.15	1193.1
824.6462	609.1888	2049.9	1208.7
824.7908	611.3144	2072.95	1230.9
824.9354	613.4393	2110.3	1267.75
825.08	615.5636	2172.05	1327.9
825.2246	617.6873	2212.35	1371.45
825.3692	619.8103	2247	1403.1
825.5138	621.9327	2241	1395.95
825.6584	624.0544	2191.05	1349.6
825.803	626.1756	2142.7	1301
825.9477	628.2961	2093.75	1248.35
826.0923	630.4159	2077.2	1232.75
826.237	632.5351	2069.45	1226.15
826.3816	634.6537	2057.35	1210.55
826.5263	636.7716	2046.05	1197.85
826.6709	638.8889	2033.8	1184
826.8156	641.0056	2046	1198.1
826.9603	643.1216	2044.65	1195.35
827.105	645.237	2057.15	1206.6
827.2497	647.3518	2025.6	1177.65
827.3944	649.4659	1994.8	1149.3
827.5391	651.5793	1987.65	1141.45
827.6838	653.6922	1979.95	1132.6
827.8285	655.8043	1967.7	1122.25
827.9733	657.9159	1955.6	1107.85
828.118	660.0268	1934	1082.6
828.2627	662.137	1942.85	1092.1
828.4075	664.2466	1950.2	1097.5
828.5522	666.3556	1942.3	1088.85
828.697	668.4639	1937.55	1084.5
828.8418	670.5716	1923	1074.9
828.9865	672.6786	1931	1079.1
829.1313	674.785	1914.35	1062
829.2761	676.8907	1906.55	1053.65
829.4209	678.9958	1914.05	1064.25
829.5657	681.1002	1911.95	1057.1
829.7105	683.204	1920.5	1062.15
829.8553	685.3072	1921	1066
830.0001	687.4097	1913.15	1057.4
830.1449	689.5115	1905	1048
830.2898	691.6127	1907.5	1055.8
830.4346	693.7132	1903.75	1052.65
830.5794	695.8131	1926.95	1050.7
830.7243	697.9123	1912.7	1055.2
830.8691	700.0109	1920.4	1060.95
831.014	702.1089	1927.8	1070
831.1588	704.2061	1941.7	1085.8
831.3037	706.3028	1964.95	1105.35
831.4486	708.3987	1985.1	1126.15
831.5935	710.4941	2003.85	1147.25
831.7383	712.5887	2004.65	1145.15
831.8832	714.6827	1995.3	1133
832.0281	716.7761	2001.2	1143.95
832.173	718.8688	1984.95	1126.85
832.3179	720.9608	2008	1143.05
832.4628	723.0522	2015.4	1149.6
832.6077	725.1429	2038.85	1179.5
832.7527	727.233	2084.7	1224.45
832.8976	729.3224	2156.55	1294.6
833.0425	731.4112	2202.75	1341.5
833.1874	733.4993	2196.4	1333.25
833.3324	735.5867	2135.3	1269.75
833.4773	737.6735	2076.55	1211.65
833.6222	739.7596	2014.95	1153
833.7672	741.845	1985.1	1121.2
833.9122	743.9298	1992.8	1129.05
834.0571	746.014	1987	1125.3
834.2021	748.0974	2006.35	1138.3
834.347	750.1802	1993.15	1128
834.492	752.2624	1986.8	1122.7
834.637	754.3439	1972.95	1103.45
834.782	756.4247	1987.6	1112.05
834.9269	758.5048	1977.95	1111.35
835.0719	760.5843	1995.85	1127.65
835.2169	762.6631	2035.4	1168.7
835.3619	764.7413	2094.8	1229.8
835.5069	766.8188	2189.3	1320.35
835.6519	768.8956	2277.4	1409.45
835.7969	770.9718	2333.1	1465.05
835.9419	773.0473	2323.1	1456.05
836.0869	775.1221	2284.75	1417.3
836.232	777.1962	2274.65	1406.6
836.377	779.2697	2342.75	1474.55
836.522	781.3426	2449.2	1562.5
836.667	783.4147	2504.5	1634.15
836.8121	785.4862	2480.2	1608.8
836.9571	787.557	2380.35	1513.85
837.1021	789.6271	2247.65	1377.6
837.2472	791.6966	2126.15	1254.7
837.3922	793.7654	2031.9	1162.35
837.5373	795.8335	1983.15	1116.2
837.6823	797.901	1949.1	1079.95
837.8274	799.9678	1927.75	1056.8
837.9724	802.0339	1939.25	1069.4
838.1175	804.0993	1945	1062.95
838.2626	806.1641	1917.2	1047.05
838.4076	808.2282	1904.5	1031.05
838.5527	810.2916	1889.5	1015.8
838.6978	812.3544	1882.6	1011.9
838.8428	814.4164	1869.35	1000.6
838.9879	816.4778	1874.95	1001.85
839.133	818.5385	1886.7	1012.3
839.2781	820.5986	1927.5	1055.35
839.4232	822.658	1980.35	1105.75
839.5682	824.7166	2036.3	1166
839.7133	826.7747	2144.25	1273.8
839.8584	828.832	2219.95	1348.5
840.0035	830.8886	2281.85	1407.45
840.1486	832.9446	2297	1422.5
840.2937	834.9999	2263.5	1391.9
840.4388	837.0545	2189.3	1311.4
840.5839	839.1085	2099.15	1224.95
840.729	841.1618	2029.8	1152.35
840.8741	843.2143	1973.15	1097
841.0192	845.2662	1935.8	1060.55
841.1643	847.3175	1923.4	1051.25
841.3095	849.368	1908.05	1032
841.4546	851.4179	1899	1022.55
841.5997	853.467	1909.15	1034.25
841.7448	855.5155	1909.45	1034.1
841.8899	857.5633	1915.8	1037.9
842.0351	859.6105	1900.45	1024
842.1802	861.6569	1895.3	1018.1
842.3253	863.7027	1881.4	1004.25
842.4704	865.7478	1865.45	987.45
842.6156	867.7922	1863.05	985.9
842.7607	869.8359	1864.8	987.8
842.9058	871.8789	1852.4	973.7
843.0509	873.9212	1873.55	963.25
843.1961	875.9629	1853.3	976.2
843.3412	878.0039	1881.25	1002.7
843.4863	880.0441	1894.1	1019.35
843.6315	882.0837	1904.3	1025.95
843.7766	884.1226	1924.95	1047.4
843.9218	886.1609	1964.75	1087.75
844.0669	888.1984	2020.15	1144.45
844.212	890.2352	2073.65	1199.45
844.3572	892.2714	2073.05	1191
844.5023	894.3069	2046.6	1166.65
844.6475	896.3416	1987.85	1107.75
844.7926	898.3757	1953.65	1075.1
844.9377	900.4091	1920.8	1042.65
845.0829	902.4418	1929.95	1045.75
845.228	904.4739	1948.25	1067.2
845.3732	906.5052	1967.5	1085.4
845.5183	908.5358	1944	1062.05
845.6635	910.5658	1924.4	1041.4
845.8086	912.595	1900.75	1018.45
845.9538	914.6236	1855.5	974
846.0989	916.6515	1826.55	947.15
846.2441	918.6786	1805.05	922.75
846.3892	920.7051	1813.35	932.45
846.5344	922.7309	1807.85	926.65
846.6795	924.756	1807.15	922.2
846.8246	926.7804	1814.2	932.75
846.9698	928.8041	1827.35	944
847.1149	930.8272	1843.2	962.15
847.2601	932.8495	1849.8	966.85
847.4052	934.8711	1863.45	980.2
847.5504	936.892	1864.25	981.25
847.6955	938.9123	1877.1	993.1
847.8407	940.9318	1910.9	1028.2
847.9858	942.9506	1922.6	1037.6
848.131	944.9688	1915.3	1032.4
848.2761	946.9862	1878.5	994.2
848.4213	949.003	1852	971.8
848.5664	951.019	1822.7	939.1
848.7115	953.0344	1802.9	917.8
848.8567	955.0491	1792.5	909.75
849.0018	957.063	1788	905.15
849.147	959.0763	1797.9	915.25
849.2921	961.0888	1787.4	906.05
849.4373	963.1007	1797.8	914.85
849.5824	965.1119	1783.3	903.7
849.7275	967.1223	1766.55	887.8
849.8727	969.1321	1771.25	890.3
850.0178	971.1412	1761.7	880
850.1629	973.1495	1754.95	871.6
850.3081	975.1572	1791.05	873.25
850.4532	977.1641	1764.85	880.8
850.5983	979.1704	1766.35	880.65
850.7435	981.1759	1757.6	868.8
850.8886	983.1808	1754.05	868.65
851.0337	985.1849	1761	864.3
851.1788	987.1884	1741.15	854.3
851.324	989.1911	1754.15	868.45
851.4691	991.1932	1769.4	882.5
851.6142	993.1945	1754.95	869.55
851.7593	995.1951	1757.7	872.35
851.9045	997.1951	1756.95	866.75
852.0496	999.1943	1746.2	864.45
852.1947	1001.1928	1750.35	866.25
852.3398	1003.1906	1766.7	880.45
852.4849	1005.1877	1790.95	905.3
852.63	1007.1841	1808.95	923.6
852.7751	1009.1798	1816.6	933.2
852.9202	1011.1748	1811.4	925.9
853.0653	1013.1691	1795.55	906.8
853.2104	1015.1627	1758.55	875.15
853.3555	1017.1556	1722.25	836.1
853.5006	1019.1477	1704.65	818.1
853.6457	1021.1392	1689.05	806.8
853.7908	1023.1299	1686.45	805.2
853.9359	1025.12	1689.25	807.25
854.081	1027.1093	1687.8	808.9
854.2261	1029.0979	1702.1	825.65
854.3712	1031.0859	1725.7	847.45
854.5163	1033.0731	1754.95	872.35
854.6613	1035.0596	1745.05	862.5
854.8064	1037.0454	1727.95	842.3
854.9515	1039.0304	1729.25	843.2
855.0965	1041.0148	1702.3	815.9
855.2416	1042.9985	1679.65	792.75
855.3867	1044.9814	1675.6	791.55
855.5317	1046.9636	1673.55	789.1
855.6768	1048.9452	1677.85	794.05
855.8219	1050.926	1697.15	812.6
855.9669	1052.9061	1703.4	817.65
856.112	1054.8855	1719.65	833.05
856.257	1056.8642	1707.65	821.8
856.4021	1058.8421	1717	825.9
856.5471	1060.8194	1709.4	821.15
856.6921	1062.7959	1701.25	814.5
856.8372	1064.7717	1708.15	820.05
856.9822	1066.7469	1711.05	823.15
857.1272	1068.7213	1714.55	826.5
857.2723	1070.695	1717.2	827.6
857.4173	1072.6679	1748.9	859.6
857.5623	1074.6402	1765.85	878
857.7073	1076.6117	1780.75	888.4
857.8523	1078.5826	1744.15	856.7
857.9973	1080.5527	1721.95	830.95
858.1423	1082.5221	1685.35	797.3
858.2873	1084.4908	1644.65	755
858.4323	1086.4587	1642.75	753.6
858.5773	1088.426	1641.95	754.35
858.7223	1090.3925	1632.9	740.55
858.8673	1092.3584	1644.4	756.55
859.0123	1094.3235	1644.45	756.3
859.1573	1096.2879	1683.2	794.05
859.3022	1098.2515	1680.7	793.25
859.4472	1100.2145	1723.7	834.1
859.5922	1102.1767	1758.8	870.05
859.7371	1104.1382	1797.8	909.7
859.8821	1106.099	1866.05	975.1
860.027	1108.0591	1888.45	1001.05
860.172	1110.0185	1931.5	1040.1
860.3169	1111.9771	1979.6	1093.2
860.4619	1113.9351	2032.35	1145.05
860.6068	1115.8923	2091.6	1202.7
860.7517	1117.8488	2112.3	1223.35
860.8967	1119.8045	2053.05	1165
861.0416	1121.7596	1950.05	1062.4
861.1865	1123.7139	1851.6	963.6
861.3314	1125.6675	1808.05	920.4
861.4763	1127.6204	1806.15	920.35
861.6212	1129.5726	1826.95	937.85
861.7661	1131.524	1829.7	942.95
861.911	1133.4748	1787.6	898.6
862.0559	1135.4248	1713.05	822.8
862.2008	1137.3741	1681.75	794.15
862.3457	1139.3226	1655.4	767
862.4905	1141.2705	1659.65	769.15
862.6354	1143.2176	1665.4	769.9
862.7803	1145.164	1665.9	774.65
862.9251	1147.1097	1669.2	779.95
863.07	1149.0546	1646.3	752.6
863.2148	1150.9989	1623	732.4
863.3597	1152.9424	1599.35	711.55
863.5045	1154.8852	1584.9	696.85
863.6493	1156.8272	1584.4	693.9
863.7942	1158.7686	1592.8	696.05
863.939	1160.7092	1588.7	696.85
864.0838	1162.6491	1592.05	699.8
864.2286	1164.5883	1596.95	708.85
864.3734	1166.5267	1616.2	724.2
864.5182	1168.4644	1647.9	755.85
864.663	1170.4014	1692.25	797.75
864.8078	1172.3377	1717.75	829.75
864.9526	1174.2732	1765.45	876.4
865.0974	1176.2081	1860.55	970.7
865.2421	1178.1421	1990.1	1096.1
865.3869	1180.0755	2096.7	1208.25
865.5317	1182.0082	2151.15	1260.3
865.6764	1183.9401	2119.85	1229.45
865.8212	1185.8713	2024.9	1140.45
865.9659	1187.8017	1898.2	1011.45
866.1106	1189.7315	1794.4	913.3
866.2554	1191.6605	1739	826.65
866.4001	1193.5888	1675.75	790.7
866.5448	1195.5163	1649.9	761.15
866.6895	1197.4432	1630.6	742.4
866.8342	1199.3693	1612.35	723.2
866.9789	1201.2947	1597.25	704.65
867.1236	1203.2193	1592.75	702.65
867.2683	1205.1432	1597.05	706.8
867.413	1207.0664	1594.25	705.3
867.5576	1208.9889	1590.6	696.9
867.7023	1210.9106	1588.25	697.5
867.847	1212.8316	1593.45	704.9
867.9916	1214.7519	1618.2	718.45
868.1363	1216.6715	1615.25	725.5
868.2809	1218.5903	1630.9	741.5
868.4255	1220.5084	1655.1	767.15
868.5701	1222.4257	1666	778
868.7148	1224.3424	1672.7	783.05
868.8594	1226.2583	1688.75	792.6
869.004	1228.1735	1723.7	832.05
869.1486	1230.0879	1763.35	873.45
869.2932	1232.0016	1805.2	918.15
869.4377	1233.9146	1841.15	949.2
869.5823	1235.8269	1853.45	964.85
869.7269	1237.7384	1867.3	975.6
869.8715	1239.6492	1870	981.75
870.016	1241.5592	1888.2	997.55
870.1606	1243.4686	1934.3	1042.65
870.3051	1245.3772	2012.45	1121.85
870.4496	1247.285	2081.4	1189.3
870.5941	1249.1922	2180.45	1291.55
870.7387	1251.0986	2245.95	1354.6
870.8832	1253.0042	2320.85	1428.45
871.0277	1254.9092	2415.25	1525.05
871.1722	1256.8134	2482.35	1593.15
871.3167	1258.7169	2553.9	1661.85
871.4611	1260.6196	2571.75	1681.7
871.6056	1262.5216	2586.65	1695.95
871.7501	1264.4229	2563.7	1674.05
871.8945	1266.3234	2535.7	1644.15
872.039	1268.2232	2483.95	1591.05
872.1834	1270.1223	2437	1546.6
872.3278	1272.0207	2396.35	1504.4
872.4723	1273.9183	2380.05	1482.25
872.6167	1275.8151	2389	1499.15
872.7611	1277.7113	2434.8	1544.3
872.9055	1279.6067	2530.9	1642.2
873.0499	1281.5014	2657.7	1765.1
873.1943	1283.3953	2831.6	1938.85
873.3386	1285.2885	3004.05	2115.5
873.483	1287.181	3134.75	2244.45
873.6274	1289.0727	3178.25	2288.5
873.7717	1290.9637	3121.1	2228.55
873.9161	1292.854	3032.2	2143.45
874.0604	1294.7435	2932.55	2044.45
874.2047	1296.6323	2829.6	1937.95
874.349	1298.5204	2737.7	1844.2
874.4933	1300.4077	2681.55	1786.8
874.6376	1302.2943	2630.35	1737.95
874.7819	1304.1802	2583.85	1692.65
874.9262	1306.0653	2554.05	1660
875.0705	1307.9497	2516	1624.45
875.2147	1309.8333	2484	1593.05
875.359	1311.7162	2443.7	1551.3
875.5032	1313.5984	2417.5	1522.7
875.6475	1315.4798	2397.2	1495.25
875.7917	1317.3605	2385.65	1490.3
875.9359	1319.2405	2387.95	1495.65
876.0801	1321.1197	2349.2	1455.85
876.2243	1322.9982	2290.55	1395.2
876.3685	1324.876	2220.15	1327.85
876.5127	1326.753	2129.65	1237.4
876.6569	1328.6293	2031.3	1137.9
876.801	1330.5048	1959.35	1064.55
876.9452	1332.3796	1891.9	1002.75
877.0893	1334.2537	1864.3	946.65
877.2335	1336.127	1806.25	913.75
877.3776	1337.9996	1778.45	886.3
877.5217	1339.8714	1759.55	868.8
877.6658	1341.7426	1782.8	846.65
877.8099	1343.6129	1737.15	844.5
877.954	1345.4826	1715.1	820.6
878.0981	1347.3515	1711.3	815.65
878.2422	1349.2196	1695.8	801.95
878.3862	1351.087	1680.8	788
878.5303	1352.9537	1681.2	789.45
878.6743	1354.8197	1679.4	788
878.8184	1356.6849	1692.7	801.15
878.9624	1358.5493	1710.2	817.35
879.1064	1360.4131	1740.55	849.35
879.2504	1362.276	1781.2	890.1
879.3944	1364.1383	1806.1	916.25
879.5384	1365.9998	1826.1	927.6
879.6823	1367.8606	1812.7	920.45
879.8263	1369.7206	1809.25	916.25
879.9702	1371.5799	1788.5	895.6
880.1142	1373.4384	1780.8	889.45
880.2581	1375.2962	1747.2	855.55
880.402	1377.1533	1703.9	811.35
880.5459	1379.0096	1652.35	761.75
880.6898	1380.8652	1620.05	727.65
880.8337	1382.7201	1587.65	697.4
880.9776	1384.5742	1570.85	678.3
881.1215	1386.4275	1543.25	651.65
881.2653	1388.2802	1523.95	632.9
881.4092	1390.132	1511.3	620
881.553	1391.9832	1518.55	623.5
881.6968	1393.8336	1507.45	614.25
881.8406	1395.6832	1501.8	607
881.9844	1397.5322	1492.3	599.4
882.1282	1399.3803	1483.85	588.35
882.272	1401.2278	1471.35	579.2
882.4158	1403.0745	1458.2	565.9
882.5595	1404.9204	1456.35	563.7
882.7033	1406.7656	1447.35	556.8
882.847	1408.6101	1450.75	556.8
882.9908	1410.4538	1450.55	560.5
883.1345	1412.2968	1457.1	565.55
883.2782	1414.139	1448.8	557.7
883.4219	1415.9805	1457.95	566.85
883.5656	1417.8213	1461.7	564.95
883.7092	1419.6613	1488.35	598.2
883.8529	1421.5006	1515.95	623
883.9965	1423.3391	1548.25	656.9
884.1402	1425.1769	1602.2	709.8
884.2838	1427.0139	1668.9	776.2
884.4274	1428.8502	1745.85	851
884.571	1430.6858	1825.9	935.55
884.7146	1432.5206	1848.15	952.75
884.8582	1434.3547	1839.3	945.4
885.0018	1436.188	1818.35	924.9
885.1453	1438.0206	1796.2	902.75
885.2889	1439.8524	1787.9	894.7
885.4324	1441.6835	1796.35	905.1
885.5759	1443.5139	1792.7	898.2
885.7194	1445.3435	1795.2	902.75
885.8629	1447.1724	1791.1	902.35
886.0064	1449.0005	1790.15	899.7
886.1499	1450.8279	1789.45	895.65
886.2933	1452.6545	1781.25	887.3
886.4368	1454.4804	1780.6	890
886.5802	1456.3056	1778.85	879.25
886.7237	1458.13	1750.15	859.65
886.8671	1459.9536	1731.6	840.5
887.0105	1461.7766	1695.9	804.5
887.1539	1463.5987	1651.65	756.95
887.2972	1465.4202	1611.75	720
887.4406	1467.2409	1587.8	695.2
887.584	1469.0608	1550	659.15
887.7273	1470.88	1519.45	625.7
887.8706	1472.6984	1491.75	599.5
888.0139	1474.5161	1477	582
888.1572	1476.3331	1463.8	577.25
888.3005	1478.1493	1453.95	560.65
888.4438	1479.9648	1449.15	555.5
888.5871	1481.7795	1446.5	554.7
888.7303	1483.5935	1447.8	556.2
888.8736	1485.4067	1442.35	549
889.0168	1487.2192	1436.35	542.4
889.16	1489.031	1441.1	545.9
889.3032	1490.842	1438.7	546.4
889.4464	1492.6522	1445.95	554.55
889.5896	1494.4618	1442.4	551
889.7327	1496.2705	1437.15	544.4
889.8759	1498.0785	1431.35	538.85
890.019	1499.8858	1417.45	525.15
890.1622	1501.6924	1413.85	524.85
890.3053	1503.4981	1412.55	522.25
890.4484	1505.3032	1408.35	513.8
890.5914	1507.1075	1403.05	513.65
890.7345	1508.911	1394	502.45
890.8776	1510.7138	1385.95	495.6
891.0206	1512.5159	1376.1	486
891.1637	1514.3172	1366.5	475.85
891.3067	1516.1178	1365.95	476.1
891.4497	1517.9176	1366.6	473.45
891.5927	1519.7166	1354.65	462.65
891.7357	1521.515	1356.5	460.9
891.8786	1523.3126	1351.85	459.3
892.0216	1525.1094	1355.95	462.5
892.1645	1526.9055	1341.2	451.65
892.3074	1528.7008	1330.75	442.4
892.4503	1530.4954	1344.05	446.3
892.5932	1532.2893	1328.15	438.3
892.7361	1534.0824	1335.9	442.05
892.879	1535.8747	1326.65	437.85
893.0218	1537.6663	1327.7	436.35
893.1647	1539.4572	1330.45	437
893.3075	1541.2473	1330.9	439.05
893.4503	1543.0367	1326.45	436.95
893.5931	1544.8253	1333.7	440.4
893.7359	1546.6132	1334.15	441.85
893.8787	1548.4003	1352.3	451.15
894.0214	1550.1867	1357.25	457.7
894.1642	1551.9723	1360.7	466.25
894.3069	1553.7572	1370.5	477.25
894.4496	1555.5414	1387.55	498.65
894.5923	1557.3247	1414.35	523.9
894.735	1559.1074	1448.2	560.8
894.8777	1560.8893	1482.3	595.55
895.0204	1562.6705	1519.9	629.75
895.163	1564.4509	1541.45	653.15
895.3056	1566.2305	1554.15	667.4
895.4482	1568.0094	1549.3	662.1
895.5908	1569.7876	1541.2	654.15
895.7334	1571.565	1552.3	662.95
895.876	1573.3417	1549.7	661.6
896.0186	1575.1176	1548.85	660.3
896.1611	1576.8928	1563.05	674.9
896.3036	1578.6672	1574.05	690.35
896.4461	1580.4409	1605.95	722.8
896.5886	1582.2138	1635.4	745.2
896.7311	1583.986	1675.8	788.55
896.8736	1585.7575	1711.8	824.85
897.0161	1587.5282	1739.55	851.6
897.1585	1589.2981	1755.9	870.2
897.3009	1591.0673	1772.3	885.7
897.4433	1592.8358	1779.3	892.2
897.5857	1594.6035	1783	893
897.7281	1596.3704	1771.45	884.05
897.8705	1598.1366	1764	876.7
898.0128	1599.9021	1733.95	845.75
898.1551	1601.6668	1715.45	826.85
898.2975	1603.4308	1709.05	819.45
898.4398	1605.194	1727.1	835.4
898.5821	1606.9564	1739.45	853.95
898.7243	1608.7182	1797.9	910.35
898.8666	1610.4791	1879.3	998.5
899.0088	1612.2394	1963.8	1081.8
899.1511	1613.9988	2051.7	1167.3
899.2933	1615.7576	2114.95	1229.25
899.4355	1617.5156	2136.75	1244.85
899.5776	1619.2728	2104.05	1217.4
899.7198	1621.0293	2014.2	1130.25
899.862	1622.785	1904.35	1013.95
900.0041	1624.54	1793.35	904.4
900.1462	1626.2942	1687.35	799.95
900.2883	1628.0477	1596.65	706.35
900.4304	1629.8005	1527.15	638.2
900.5725	1631.5525	1469.6	585
900.7145	1633.3037	1420.55	534.5
900.8566	1635.0542	1381.85	495.8
900.9986	1636.804	1358.9	475.7
901.1406	1638.553	1437.8	444.4
901.2826	1640.3013	1317.1	429.9
901.4245	1642.0488	1297.9	412.5
901.5665	1643.7955	1286.45	402.4
901.7085	1645.5416	1273.15	388.45
901.8504	1647.2868	1259.15	374.85
901.9923	1649.0313	1255.4	368.9
902.1342	1650.7751	1253.65	365.3
902.2761	1652.5181	1250.8	367.45
902.4179	1654.2604	1252.2	368
902.5598	1656.0019	1259.85	374.3
902.7016	1657.7427	1267.35	381.7
902.8434	1659.4828	1286.95	398
902.9852	1661.222	1317.4	428.8
903.127	1662.9606	1345.05	457.15
903.2687	1664.6984	1369.15	482.65
903.4105	1666.4354	1365.85	480.2
903.5522	1668.1717	1347.55	460.4
903.6939	1669.9072	1305.55	416.7
903.8356	1671.642	1266.2	375.2
903.9773	1673.3761	1237.4	349.6
904.119	1675.1094	1215.3	329.7
904.2606	1676.8419	1192.15	305.6
904.4022	1678.5737	1185.6	300.5
904.5439	1680.3048	1172.45	284.85
904.6855	1682.0351	1161.75	275.65
904.827	1683.7646	1169.4	278.5
904.9686	1685.4934	1154.65	269.05
905.1101	1687.2215	1150.15	263.1
905.2517	1688.9488	1143.35	257.25
905.3932	1690.6754	1138.45	252.85
905.5347	1692.4012	1137.5	251.1
905.6761	1694.1263	1141	253.9
905.8176	1695.8506	1139.7	252.7
905.9591	1697.5742	1134.85	249.55
906.1005	1699.297	1132.8	247.9
906.2419	1701.0191	1127.9	243.85
906.3833	1702.7404	1126.75	241.25
906.5246	1704.461	1126.85	241.35
906.666	1706.1808	1122.95	235.2
906.8073	1707.8999	1119.85	233.15
906.9487	1709.6182	1113.25	229.8
907.09	1711.3358	1116.85	231.05
907.2313	1713.0527	1115.95	232.3
907.3725	1714.7688	1118.5	228.6
907.5138	1716.4841	1112.25	224
907.655	1718.1987	1115.95	224.2
907.7962	1719.9126	1112.35	227.45
907.9374	1721.6257	1108.85	221.25
908.0786	1723.338	1111.7	226.4
908.2198	1725.0496	1106	218.5
908.3609	1726.7605	1107.05	221.45
908.502	1728.4706	1110.05	225
908.6431	1730.18	1102.35	217.35
908.7842	1731.8886	1103.9	219.35
908.9253	1733.5964	1124.6	219
909.0664	1735.3036	1105.75	216.6
909.2074	1737.0099	1106.15	223.35
909.3484	1738.7156	1097.9	214.9
909.4894	1740.4204	1101.25	215.4
909.6304	1742.1246	1105	220
909.7714	1743.8279	1098.7	214.4
909.9123	1745.5306	1094.75	209.35
910.0532	1747.2325	1095.25	211.05
910.1941	1748.9336	1094.35	208.1
910.335	1750.634	1099.95	213.15
910.4759	1752.3336	1097.25	213.45
910.6168	1754.0325	1092.85	210.35
910.7576	1755.7307	1090.85	208.8
910.8984	1757.4281	1094.6	210.15
911.0392	1759.1247	1101.8	207.5
911.18	1760.8206	1094.7	205.15
911.3208	1762.5158	1098.2	208.55
911.4615	1764.2102	1087.3	200.05
911.6022	1765.9039	1088.3	203.35
911.7429	1767.5968	1086.25	201.35
911.8836	1769.289	1088	204.55
912.0243	1770.9804	1093.9	207.6
912.1649	1772.6711	1088.15	200.15
912.3056	1774.361	1090.85	204.55
912.4462	1776.0502	1086.15	202.1
912.5868	1777.7386	1089.2	201.15
912.7274	1779.4263	1081.7	196.25
912.8679	1781.1132	1085.95	200.85
913.0084	1782.7994	1084.7	201.35
913.149	1784.4849	1083.9	201.15
913.2895	1786.1696	1102.7	200.2
913.4299	1787.8535	1083.9	201.85
913.5704	1789.5367	1080.95	196.85
913.7108	1791.2192	1081.15	197
913.8513	1792.9009	1106.25	196.25
913.9917	1794.5818	1083.75	197.3
914.132	1796.2621	1076.6	193.2
914.2724	1797.9415	1082.15	195.8
914.4128	1799.6202	1082.95	198.35
914.5531	1801.2982	1082.65	198.45
914.6934	1802.9755	1080.65	193.85
914.8337	1804.6519	1082.6	196.15
914.9739	1806.3277	1070.8	187.05
915.1142	1808.0027	1071	188.2
915.2544	1809.6769	1068.5	187.45
915.3946	1811.3504	1067.05	182.4
915.5348	1813.0231	1073.4	190.55
915.675	1814.6951	1071.9	190.1
915.8151	1816.3664	1075.9	189.25
915.9553	1818.0369	1070.4	183.85
916.0954	1819.7067	1069.75	184.9
916.2355	1821.3757	1074.5	186.7
916.3755	1823.044	1072.5	187.3
916.5156	1824.7115	1068.35	183.1
916.6556	1826.3783	1068.6	184.95
916.7956	1828.0443	1069.95	187.85
916.9356	1829.7096	1070.95	182.75
917.0756	1831.3741	1062.65	176.15
917.2155	1833.0379	1068.35	184.95
917.3555	1834.701	1069.2	186
917.4954	1836.3633	1067.65	185.95
917.6353	1838.0248	1068.3	183.7
917.7751	1839.6856	1062.5	179.4
917.915	1841.3457	1067.65	183.4
918.0548	1843.005	1060.35	176.25
918.1946	1844.6636	1065.05	180.7
918.3344	1846.3214	1063.05	179.15
918.4742	1847.9785	1063.1	179.75
918.6139	1849.6349	1066.15	179.95
918.7537	1851.2904	1072.55	178.8
918.8934	1852.9453	1064.25	179.15
919.0331	1854.5994	1068.6	182
919.1727	1856.2528	1067.5	177
919.3124	1857.9054	1062.6	177.8
919.452	1859.5572	1055.75	171.95
919.5916	1861.2083	1058.2	173.35
919.7312	1862.8587	1060.9	175.6
919.8708	1864.5084	1061.25	174.95
920.0103	1866.1572	1060.8	174.5
920.1498	1867.8054	1056.45	171.1
920.2893	1869.4528	1060.45	176.2
920.4288	1871.0994	1057.2	173.6
920.5683	1872.7453	1063.6	178.4
920.7077	1874.3905	1062.55	169.6
920.8471	1876.0349	1055.6	168.55
920.9865	1877.6786	1055.75	168.2
921.1259	1879.3215	1057.6	172.9
921.2653	1880.9637	1057.75	172.05
921.4046	1882.6051	1055.45	172.75
921.5439	1884.2458	1054.7	166.15
921.6832	1885.8858	1051.15	167.1
921.8225	1887.525	1052.1	167.05
921.9617	1889.1634	1051.6	165.6
922.101	1890.8011	1052.6	165.8
922.2402	1892.4381	1053.35	166.75
922.3794	1894.0743	1053.15	168.15
922.5185	1895.7098	1053.4	169.5
922.6577	1897.3446	1047.85	161.1
922.7968	1898.9786	1048.45	160.15
922.9359	1900.6118	1048.3	162.1
923.075	1902.2443	1049.55	164.35
923.214	1903.8761	1045.9	160.55
923.3531	1905.5071	1049.05	163.15
923.4921	1907.1374	1044.55	159.25
923.6311	1908.7669	1045.9	162.15
923.77	1910.3957	1045.7	162.5
923.909	1912.0237	1045.65	161.1
924.0479	1913.651	1046.3	159.7
924.1868	1915.2776	1042.85	160.45
924.3257	1916.9034	1040.65	157
924.4646	1918.5285	1042.2	159.85
924.6034	1920.1528	1046	161.8
924.7422	1921.7764	1039.85	155.2
924.881	1923.3992	1037.55	154.3
925.0198	1925.0213	1039.25	155.25
925.1586	1926.6427	1037.8	154.35
925.2973	1928.2633	1247.25	153.4
925.436	1929.8832	1043	155.35
925.5747	1931.5023	1037.95	153.85
925.7134	1933.1207	1040.75	153.75
925.852	1934.7383	1036.2	151.75
925.9906	1936.3552	1041.75	160
926.1292	1937.9714	1035.85	151.55
926.2678	1939.5868	1034.7	149.1
926.4064	1941.2015	1033.15	147.85
926.5449	1942.8154	1035.3	148.8
926.6834	1944.4286	1038.45	153.95
926.8219	1946.041	1059.25	151.95
926.9604	1947.6528	1038.2	149.6
927.0988	1949.2637	1033.2	149.8
927.2372	1950.8739	1032.35	147.8
927.3756	1952.4834	1033.3	148.75
927.514	1954.0921	1035.35	149.65
927.6523	1955.7001	1035.7	146.8
927.7907	1957.3074	1029.55	146.95
927.929	1958.9139	1032.1	148.4
928.0673	1960.5197	1026.7	142.45
928.2055	1962.1247	1030.15	147.9
928.3438	1963.729	1027.25	144.75
928.482	1965.3325	1032.1	143.1
928.6202	1966.9353	1026.7	143.9
928.7584	1968.5374	1029.85	146.7
928.8965	1970.1387	1027.05	144.1
929.0346	1971.7393	1028.85	145.85
929.1727	1973.3392	1028.5	147.8
929.3108	1974.9383	1022.8	140.4
929.4489	1976.5366	1028.65	146.55
929.5869	1978.1342	1023.6	140.4
929.7249	1979.7311	1024.65	141.95
929.8629	1981.3273	1022	140.85
930.0009	1982.9227	1026.55	142.55
930.1388	1984.5173	1024.45	143.85
930.2767	1986.1112	1023.65	143.25
930.4146	1987.7044	1019.9	138.4
930.5525	1989.2968	1019.3	135.65
930.6904	1990.8885	1024.95	139.55
930.8282	1992.4795	1018.9	135.65
930.966	1994.0697	1019.25	138.85
931.1038	1995.6592	1021.15	140.2
931.2415	1997.2479	1018.4	137.65
931.3793	1998.8359	1015.9	135
931.517	2000.4232	1017.75	136.6
931.6547	2002.0097	1016.9	138.6
931.7923	2003.5955	1016.75	135.35
931.93	2005.1805	1018.05	135.75
932.0676	2006.7648	1013.5	133.85
932.2052	2008.3484	1018.6	134.95
932.3427	2009.9312	1016.95	136.95
932.4803	2011.5133	1013.7	134.8
932.6178	2013.0946	1016.3	135.4
932.7553	2014.6752	1018.3	139.8
932.8928	2016.2551	1014.15	134.05
933.0302	2017.8342	1019.6	140.85
933.1676	2019.4126	1016	137.55
933.305	2020.9902	1011.1	134.5
933.4424	2022.5672	1016.4	135.55
933.5798	2024.1433	1019.4	135.9
933.7171	2025.7188	1010.8	133.4
933.8544	2027.2935	1011.8	130.7
933.9917	2028.8674	1008.45	130.95
934.129	2030.4406	1009.75	131.25
934.2662	2032.0131	1009.35	131.95
934.4034	2033.5849	1011.4	125.05
934.5406	2035.1559	1011.65	134.75
934.6778	2036.7261	1012.2	132.65
934.8149	2038.2957	1010.95	129.25
934.952	2039.8645	1014.65	135.7
935.0891	2041.4325	1017.15	134.55
935.2262	2042.9998	1012.6	134.15
935.3632	2044.5664	1006.5	123.9
935.5002	2046.1323	1009.3	131.05
935.6372	2047.6974	1009.65	131.45
935.7742	2049.2617	1008.9	131.15
935.9111	2050.8254	1036	129.5
936.048	2052.3883	1011.05	130.9
936.1849	2053.9504	1010.6	130.4
936.3218	2055.5118	1008	128.35
936.4586	2057.0725	1014.85	130.15
936.5955	2058.6325	1010.65	132.65
936.7323	2060.1917	1007.95	130.4
936.869	2061.7502	1011.75	131.2
937.0058	2063.3079	1008.45	131.5
937.1425	2064.8649	1012.5	130.8
937.2792	2066.4212	1013.15	134.3
937.4159	2067.9767	1006.6	129.2
937.5525	2069.5315	1007.8	126.8
937.6891	2071.0856	1009	128.65
937.8257	2072.6389	1008	127.6
937.9623	2074.1915	1002.15	123.75
938.0989	2075.7433	1009.05	130.6
938.2354	2077.2945	1008.8	131.75
938.3719	2078.8448	1007.85	127.85
938.5084	2080.3945	1009.3	131
938.6448	2081.9434	1006.4	127.6
938.7812	2083.4916	1009.95	130.6
938.9176	2085.039	1005.5	121.6
939.054	2086.5857	1011.75	128.1
939.1903	2088.1317	1003.75	121.2
939.3267	2089.677	1008.5	124.3
939.463	2091.2215	1010.4	128.15
939.5992	2092.7652	1010.3	126.05
939.7355	2094.3083	1006.25	123.65
939.8717	2095.8506	1007.25	125.25
940.0079	2097.3921	1006.3	127.6
940.1441	2098.933	1004.6	124.05
940.2802	2100.4731	1005.7	125.75
940.4163	2102.0124	1026.75	128
940.5524	2103.5511	1007.1	126.8
940.6885	2105.089	1007.6	125.4
940.8245	2106.6261	1004.55	123.4
940.9606	2108.1626	1006.1	125.4
941.0965	2109.6983	1037.5	129.95
941.2325	2111.2332	1007.05	124.5
941.3684	2112.7675	1011.85	130.25
941.5044	2114.301	1011.15	128.9
941.6403	2115.8337	1006.8	126.3
941.7761	2117.3657	1007.75	126.85
941.912	2118.897	1004.4	122.95
942.0478	2120.4276	1015.5	126
942.1835	2121.9575	1008.9	127.65
942.3193	2123.4866	1017.6	121.3
942.455	2125.0149	1004.95	122.7
942.5907	2126.5426	1004.9	126
942.7264	2128.0695	1006.25	123.5
942.8621	2129.5956	1000.15	120.95
942.9977	2131.1211	1002.5	118.55
943.1333	2132.6458	1002.5	123.8
943.2689	2134.1698	1006.15	124
943.4044	2135.693	1007.05	124.2
943.54	2137.2155	1004.45	121.35
943.6755	2138.7373	1002.25	121.8
943.8109	2140.2584	1001.45	122.1
943.9464	2141.7787	1008.3	122.85
944.0818	2143.2983	999.05	121.35
944.2172	2144.8171	997.95	119.05
944.3526	2146.3353	1003.1	123.05
944.4879	2147.8527	996.7	117.75
944.6232	2149.3693	1000.5	121.4
944.7585	2150.8853	1001.35	119.5
944.8938	2152.4005	1000.25	118.3
945.029	2153.9149	1007.05	124.1
945.1642	2155.4287	1002.3	121.6
945.2994	2156.9417	1000.35	119.6
945.4346	2158.454	1002.7	119.35
945.5697	2159.9655	993.55	114.85
945.7048	2161.4764	1001.4	123.2
945.8399	2162.9865	995.7	115.8
945.9749	2164.4958	999.65	118.95
946.1099	2166.0045	999.55	116.65
946.2449	2167.5124	996.8	117.45
946.3799	2169.0195	997.55	117.5
946.5148	2170.526	1000.85	118.65
946.6498	2172.0317	996.55	117.7
946.7846	2173.5367	997.3	116.35
946.9195	2175.0409	997.6	117.35
947.0543	2176.5445	998.15	119.7
947.1891	2178.0473	997.7	116.75
947.3239	2179.5494	1001.2	115.45
947.4587	2181.0507	1001.1	122.75
947.5934	2182.5513	1001.15	120.65
947.7281	2184.0512	994.9	114.9
947.8628	2185.5504	996.4	115.05
947.9974	2187.0488	996.4	115.7
948.132	2188.5465	996.25	119.6
948.2666	2190.0435	996.55	118.75
948.4012	2191.5397	996.1	118
948.5357	2193.0353	995.15	115.1
948.6702	2194.5301	997.3	113.85
948.8047	2196.0241	995.55	114.9
948.9392	2197.5175	994.1	111.95
949.0736	2199.0101	1001.8	119.25
949.208	2200.502	993.55	112.75
949.3424	2201.9931	994.3	115.85
949.4767	2203.4835	994.4	114.9
949.611	2204.9733	1010.25	113.7
949.7453	2206.4622	992.8	114.55
949.8796	2207.9505	990.5	108.75
950.0138	2209.438	987.2	113
950.148	2210.9248	993.5	115.1
950.2822	2212.4109	993.2	114
950.4164	2213.8962	996	113.3
950.5505	2215.3809	996.7	115.05
950.6846	2216.8648	992.4	110.95
950.8186	2218.3479	995.8	107.6
950.9527	2219.8304	994.95	108.8
951.0867	2221.3121	995.05	112.35
951.2207	2222.7931	994.5	113.05
951.3546	2224.2733	990.55	109.95
951.4886	2225.7529	990.4	107.7
951.6225	2227.2317	989.3	105.25
951.7563	2228.7098	985.55	107.9
951.8902	2230.1872	988.95	113.1
952.024	2231.6638	985.8	107.4
952.1578	2233.1397	991.65	106.5
952.2916	2234.6149	986.25	107.4
952.4253	2236.0894	989.75	110.7
952.559	2237.5632	994.95	104.4
952.6927	2239.0362	984.1	105.55
952.8263	2240.5085	986	106.25
952.9599	2241.9801	986.45	104.6
953.0935	2243.4509	984.15	103.9
953.2271	2244.921	984.75	102.2
953.3606	2246.3904	991.65	108.85
953.4941	2247.8591	989.25	107.2
953.6276	2249.3271	985.65	105.75
953.7611	2250.7943	983.7	103.15
953.8945	2252.2608	981.7	101.4
954.0279	2253.7266	984.2	104.4
954.1612	2255.1917	983.6	103.7
954.2946	2256.656	984.4	101.8
954.4279	2258.1197	982.1	101.85
954.5612	2259.5826	985.05	104.85
954.6944	2261.0447	987.65	105.2
954.8276	2262.5062	983.75	101.5
954.9608	2263.9669	985.25	101.7
955.094	2265.4269	979.9	99.9
955.2271	2266.8862	980.5	100.35
955.3602	2268.3448	980.85	100.6
955.4933	2269.8026	981	100.4
955.6264	2271.2598	980.1	99.25
955.7594	2272.7162	980.95	103.95
955.8924	2274.1719	978.25	98.55
956.0253	2275.6268	980.95	99.2
956.1583	2277.0811	980.35	99.5
956.2912	2278.5346	977.4	98.6
956.4241	2279.9874	980.15	100.3
956.5569	2281.4395	976.45	97.55
956.6897	2282.8908	983.25	99.15
956.8225	2284.3414	980.85	98.6
956.9553	2285.7914	978.65	99.65
957.088	2287.2406	981.95	99.55
957.2207	2288.689	980.05	98.4
957.3534	2290.1368	982	100.35
957.486	2291.5838	980.5	95.8
957.6186	2293.0302	978.95	96
957.7512	2294.4758	976.85	94.75
957.8838	2295.9206	983.85	101
958.0163	2297.3648	976.65	98.2
958.1488	2298.8082	975.75	94.15
958.2813	2300.251	976.15	95.6
958.4137	2301.693	980.05	95.3
958.5461	2303.1343	975.3	94.55
958.6785	2304.5748	976.05	96.3
958.8108	2306.0147	972.9	90.8
958.9432	2307.4538	974.6	90.05
959.0754	2308.8922	975.15	98.3
959.2077	2310.3299	978.2	98.75
959.3399	2311.7669	976.45	97.25
959.4721	2313.2031	973.95	93.7
959.6043	2314.6387	976.1	97.6
959.7365	2316.0735	976.75	96.15
959.8686	2317.5076	974.9	95.25
960.0006	2318.941	977.15	95.95
960.1327	2320.3737	978.95	96.5
960.2647	2321.8056	978.3	94.45
960.3967	2323.2369	976.25	95.7
960.5287	2324.6674	977.05	93
960.6606	2326.0972	982.95	101.1
960.7925	2327.5263	979.05	98.2
960.9244	2328.9547	983.55	102.9
961.0562	2330.3823	986.05	102.1
961.1881	2331.8092	978.45	94.65
961.3198	2333.2355	976.75	97.3
961.4516	2334.661	975.75	93.85
961.5833	2336.0858	974.6	91.55
961.715	2337.5098	971.5	90.3
961.8467	2338.9332	971.45	89.85
961.9783	2340.3558	973.75	91
962.1099	2341.7778	971.3	89.65
962.2415	2343.199	970.4	89.2
962.373	2344.6195	969	86.85
962.5045	2346.0393	969.6	90.3
962.636	2347.4583	969.95	87.8
962.7675	2348.8767	968.55	86.5
962.8989	2350.2943	971.3	90.1
963.0303	2351.7113	973.85	92.4
963.1617	2353.1275	971.4	88.25
963.293	2354.543	992.9	87.4
963.4243	2355.9578	972.05	88.3
963.5556	2357.3718	967.65	87.45
963.6868	2358.7852	969.2	83.8
963.818	2360.1978	968.2	85.7
963.9492	2361.6098	968.95	89.05
964.0803	2363.021	971.85	87.1
964.2114	2364.4315	966.85	86.65
964.3425	2365.8413	977.8	90.35
964.4736	2367.2504	969.55	89.05
964.6046	2368.6587	966.2	83.75
964.7356	2370.0664	968	87.85
964.8666	2371.4733	966.2	82.4
964.9975	2372.8795	968.5	88.35
965.1284	2374.285	969.95	89.3
965.2593	2375.6899	966.45	86
965.3901	2377.0939	963.45	83.4
965.5209	2378.4973	968.2	87.35
965.6517	2379.9	964.1	82.8
965.7825	2381.3019	967.8	85.1
965.9132	2382.7032	964.1	82.2
966.0439	2384.1037	962.6	83.15
966.1745	2385.5035	966.35	86.8
966.3051	2386.9027	963.9	82.85
966.4357	2388.3011	966.5	81.3
966.5663	2389.6987	963.05	80.75
966.6968	2391.0957	965	83.85
966.8273	2392.492	962.65	82.3
966.9578	2393.8876	964.95	84.75
967.0882	2395.2824	964.25	81.5
967.2186	2396.6765	961.8	80.6
967.349	2398.07	963.1	81.7
967.4793	2399.4627	963.1	78.75
967.6097	2400.8547	962.65	82.05
967.7399	2402.246	970.45	82.25
967.8702	2403.6366	963.15	81.45
968.0004	2405.0265	961.35	77.85
968.1306	2406.4156	966.8	82.65
968.2607	2407.8041	964.65	78.4
968.3909	2409.1918	964.2	80.35
968.521	2410.5789	961.7	79.75
968.651	2411.9652	962.8	78.45
968.781	2413.3508	960.85	76.95
968.911	2414.7358	962.05	80.1
969.041	2416.12	958.7	77.75
969.1709	2417.5035	959.35	78.7
969.3008	2418.8863	961.95	78.45
969.4307	2420.2684	961.55	76.8
969.5606	2421.6497	957.95	75.35
969.6904	2423.0304	960.6	78
969.8201	2424.4104	959.75	77.15
969.9499	2425.7896	960.85	70.55
970.0796	2427.1682	959.55	78
970.2093	2428.546	959.9	77.9
970.3389	2429.9232	956.65	72.3
970.4685	2431.2996	957.75	75
970.5981	2432.6753	956	74.15
970.7277	2434.0503	957.95	74.7
970.8572	2435.4246	957.7	76.6
970.9867	2436.7982	962.1	78.3
971.1161	2438.1711	957.1	76.75
971.2456	2439.5433	957.75	75.55
971.375	2440.9148	956.3	75.6
971.5043	2442.2856	956.95	75.7
971.6336	2443.6557	955.9	71.15
971.7629	2445.025	954.95	74
971.8922	2446.3937	956	71.85
972.0214	2447.7617	953.65	69.7
972.1506	2449.1289	954.2	72.65
972.2798	2450.4955	956.3	70.65
972.4089	2451.8613	954.2	72.4
972.538	2453.2265	954.1	71.05
972.6671	2454.5909	954	71.3
972.7961	2455.9546	951.55	70.6
972.9251	2457.3177	952.85	69.55
973.0541	2458.68	952.9	66.25
973.1831	2460.0416	956.55	76.2
973.312	2461.4025	953.6	71.2
973.4408	2462.7627	965.8	76.5
973.5697	2464.1222	951.4	72.95
973.6985	2465.4811	951.05	67.6
973.8273	2466.8392	954.75	73.2
973.956	2468.1966	954.45	70.45
974.0847	2469.5533	956.75	70.75
974.2134	2470.9093	953.45	71.3
974.3421	2472.2645	955.15	70.35
974.4707	2473.6191	954.9	73.6
974.5993	2474.973	954.65	73.5
974.7278	2476.3262	954.3	72.15
974.8563	2477.6787	952.5	70.9
974.9848	2479.0305	952.2	70.6
975.1132	2480.3816	952.15	68.75
975.2417	2481.7319	949.7	69.15
975.37	2483.0816	955.55	71.3
975.4984	2484.4306	952.35	70.25
975.6267	2485.7789	950.3	69.95
975.755	2487.1264	952.75	70.15
975.8833	2488.4733	949.5	70
976.0115	2489.8195	956.25	67.45
976.1397	2491.165	951.2	66.3
976.2678	2492.5097	948.9	66.5
976.3959	2493.8538	950.55	70.6
976.524	2495.1972	946.8	65.25
976.6521	2496.5398	949.6	65.8
976.7801	2497.8818	951.9	67.2
976.9081	2499.2231	950.55	67.85
977.036	2500.5637	950.85	67.05
977.164	2501.9035	948.9	66.75
977.2918	2503.2427	949.8	60.5
977.4197	2504.5812	947.9	67.7
977.5475	2505.919	949.55	65.5
977.6753	2507.256	949.8	68.2
977.8031	2508.5924	947.6	68.05
977.9308	2509.9281	955.2	66.7
978.0585	2511.2631	948.1	68.85
978.1861	2512.5974	945.5	62.95
978.3137	2513.9309	947.5	66.7
978.4413	2515.2638	972.4	64.7
978.5689	2516.596	944.45	65.6
978.6964	2517.9275	946.9	62.25
978.8239	2519.2583	946	63.05
978.9513	2520.5884	947.9	64.4
979.0788	2521.9178	942.6	61.1
979.2062	2523.2465	944	63.85
979.3335	2524.5745	945.55	63.7
979.4608	2525.9018	943.1	62.45
979.5881	2527.2284	943.3	62.15
979.7154	2528.5543	945	66.05
979.8426	2529.8796	945.05	63.05
979.9698	2531.2041	947.7	66.2
980.0969	2532.5279	943.5	62.65
980.224	2533.851	944.6	64.15
980.3511	2535.1735	943.65	62.2
980.4781	2536.4952	945.05	64.95
980.6052	2537.8163	946.15	65.1
980.7321	2539.1366	943.75	63.7
980.8591	2540.4562	948.1	64.25
980.986	2541.7752	946.4	64.15
981.1129	2543.0935	942	60.55
981.2397	2544.411	944.5	62.7
981.3665	2545.7279	944.55	62.15
981.4933	2547.0441	941.85	59.15
981.62	2548.3596	947.3	62.9
981.7467	2549.6744	946.85	65.5
981.8734	2550.9885	953.35	61.55
982.0001	2552.3019	938.2	58.9
982.1267	2553.6146	942.7	60.1
982.2532	2554.9266	942.35	60.05
982.3798	2556.2379	945.35	61.3
982.5063	2557.5485	941.2	60.25
982.6327	2558.8585	949.9	61.95
982.7592	2560.1677	943.15	58.25
982.8856	2561.4762	942.15	60.4
983.0119	2562.7841	942.5	58.05
983.1383	2564.0913	939.3	58.5
983.2646	2565.3977	941.95	60.85
983.3908	2566.7035	941.5	58.75
983.517	2568.0086	942.85	58.7
983.6432	2569.313	940.55	59.25
983.7694	2570.6167	945.6	60.25
983.8955	2571.9197	938.8	58.1
984.0216	2573.222	944.85	61.2
984.1476	2574.5236	942	60.35
984.2737	2575.8246	943.35	59.2
984.3996	2577.1248	943.7	60.4
984.5256	2578.4244	939.85	59.05
984.6515	2579.7232	939.1	57.9
984.7774	2581.0214	968.55	61.8
984.9032	2582.3189	937.6	55.8
985.029	2583.6157	943.45	57.45
985.1548	2584.9118	939.6	55.1
985.2806	2586.2072	937.35	55.5
985.4063	2587.5019	937.45	57.65
985.5319	2588.7959	940.05	60.5
985.6576	2590.0893	939.75	56.35
985.7832	2591.3819	940.75	59.65
985.9087	2592.6739	938.5	59.1
986.0343	2593.9652	939.3	57.55
986.1597	2595.2557	940.8	60.55
986.2852	2596.5456	941.5	57.35
986.4106	2597.8348	942.1	62
986.536	2599.1234	941.15	61.45
986.6614	2600.4112	944.45	62.8
986.7867	2601.6983	942.3	58.9
986.912	2602.9848	943.9	61.8
987.0372	2604.2705	945.75	57.1
987.1624	2605.5556	938.5	57.65
987.2876	2606.84	938.9	59.25
987.4128	2608.1237	938.7	55.75
987.5379	2609.4067	940.7	58.35
987.6629	2610.689	948.75	58.8
987.788	2611.9707	941.1	56
987.913	2613.2516	940.95	54.1
988.0379	2614.5319	934.15	54.4
988.1629	2615.8115	936.8	53.55
988.2878	2617.0903	938.35	55.35
988.4126	2618.3685	938.55	57.35
988.5375	2619.6461	934.35	54.45
988.6622	2620.9229	933.9	53.25
988.787	2622.199	934.4	52.9
988.9117	2623.4745	936.05	54.95
989.0364	2624.7493	935.2	54.1
989.161	2626.0234	936.4	56.3
989.2857	2627.2968	936.2	54.7
989.4102	2628.5695	939.65	56.35
989.5348	2629.8415	932.85	53.65
989.6593	2631.1128	934.65	54.6
989.7837	2632.3835	933.3	52.8
989.9082	2633.6535	933.25	53
990.0326	2634.9228	934.25	53.9
990.1569	2636.1914	933	52.6
990.2812	2637.4593	940.3	51.35
990.4055	2638.7265	933.55	51.3
990.5298	2639.9931	932.4	50.15
990.654	2641.259	933.4	52.8
990.7782	2642.5242	934.45	54
990.9023	2643.7887	932.05	50
991.0264	2645.0525	932.95	51.45
991.1505	2646.3156	931.65	49.85
991.2745	2647.5781	934.55	54.75
991.3985	2648.8398	931.85	52.2
991.5225	2650.1009	939.65	50.65
991.6464	2651.3613	930.6	48.65
991.7703	2652.6211	929.85	50.1
991.8942	2653.8801	927	45.35
992.018	2655.1385	934.1	51.85
992.1418	2656.3961	932.95	53.85
992.2655	2657.6531	930.65	49.95
992.3892	2658.9094	929.9	48.25
992.5129	2660.1651	929.55	48.55
992.6366	2661.42	930.35	48.55
992.7602	2662.6743	930.55	48.7
992.8837	2663.9279	932.15	50.75
993.0073	2665.1808	931.7	52.3
993.1307	2666.433	931.25	47.95
993.2542	2667.6846	933.05	52.3
993.3776	2668.9354	936.15	52.55
993.501	2670.1856	930.6	50.2
993.6244	2671.4351	932.3	53.45
993.7477	2672.6839	935	53.4
993.8709	2673.9321	930.15	50.3
993.9942	2675.1795	931.8	49.6
994.1174	2676.4263	931.85	51.05
994.2405	2677.6724	933.55	51.4
994.3637	2678.9179	932.6	50.5
994.4868	2680.1626	930.7	51.25
994.6098	2681.4067	931.5	52.5
994.7328	2682.6501	930.1	50.05
994.8558	2683.8928	932.8	51.3
994.9788	2685.1348	924.25	43.15
995.1017	2686.3761	928.2	48.7
995.2245	2687.6168	928.25	47.7
995.3474	2688.8568	928.75	47.5
995.4702	2690.0961	926.3	47.85
995.5929	2691.3348	928.15	47.35
995.7156	2692.5727	926.8	46.35
995.8383	2693.81	929.4	50.1
995.961	2695.0466	926.35	49.25
996.0836	2696.2826	927.8	46.05
996.2062	2697.5178	930.6	47.25
996.3287	2698.7524	930.15	49.2
996.4512	2699.9863	929.8	46.7
996.5737	2701.2195	925.05	47.5
996.6961	2702.452	929.15	48
996.8185	2703.6839	929.4	48.55
996.9408	2704.9151	928.2	48.7
997.0631	2706.1456	929.8	48.55
997.1854	2707.3755	930.7	50.8
997.3077	2708.6046	932.8	48.55
997.4299	2709.8331	927.75	48.35
997.552	2711.0609	931.45	50.15
997.6742	2712.2881	931.35	50.65
997.7963	2713.5145	930.7	46.55
997.9183	2714.7403	928.35	47.65
998.0403	2715.9654	932.7	53.8
998.1623	2717.1899	946.5	51.4
998.2842	2718.4136	933.1	53.1
998.4062	2719.6367	935.05	53.5
998.528	2720.8591	943.8	56.5
998.6498	2722.0809	938.5	58.15
998.7716	2723.3019	942	58.5
998.8934	2724.5223	939.65	57.55
999.0151	2725.7421	938.25	56.25
999.1368	2726.9611	938.35	57.75
999.2584	2728.1795	939.4	53.35
999.38	2729.3972	933.85	55.35
999.5016	2730.6142	942.55	55.05
999.6231	2731.8306	935.7	53.8
999.7446	2733.0462	935.75	55.7
999.8661	2734.2612	937.15	50.65
999.9875	2735.4756	932.35	49.45
1000.1089	2736.6892	928.15	47.5
1000.2302	2737.9022	925.8	45.6
1000.3515	2739.1145	929.25	48.25
1000.4728	2740.3262	933.55	46.3
1000.594	2741.5372	925.05	47.8
1000.7152	2742.7475	926.85	46.35
1000.8363	2743.9571	926.85	45.95
1000.9575	2745.1661	927.8	42.55
1001.0785	2746.3744	926.1	45.55
1001.1996	2747.582	922.05	43.75
1001.3206	2748.7889	924.25	42.4
1001.4415	2749.9952	922.5	42.25
1001.5625	2751.2008	921.4	42.3
1001.6833	2752.4057	924	42.7
1001.8042	2753.61	918.5	35.65
1001.925	2754.8136	924.05	42.65
1002.0458	2756.0165	919.15	39.05
1002.1665	2757.2188	917.85	38.15
1002.2872	2758.4204	921.2	42.3
1002.4078	2759.6213	921.2	38
1002.5285	2760.8215	926.5	42.55
1002.649	2762.0211	922.4	41.1
1002.7696	2763.22	924.05	40.7
1002.8901	2764.4182	920.35	39.35
1003.0106	2765.6158	916.85	36.9
1003.131	2766.8127	921.2	41.65
1003.2514	2768.009	919.15	38.35
1003.3717	2769.2045	921.7	41.55
1003.492	2770.3994	920.4	37.05
1003.6123	2771.5936	917.1	38.35
1003.7325	2772.7872	915.25	35.9
1003.8527	2773.9801	919.15	35.6
1003.9729	2775.1723	932.6	37.9
1004.093	2776.3639	915.65	36.95
1004.2131	2777.5548	915.95	35.75
1004.3331	2778.745	918.85	36.05
1004.4531	2779.9346	914.9	34.15
1004.5731	2781.1235	913.85	35.05
1004.693	2782.3117	916.6	36.6
1004.8129	2783.4992	916.65	38.3
1004.9328	2784.6861	916.75	36.5
1005.0526	2785.8723	920.85	40
1005.1723	2787.0579	916.25	35.45
1005.2921	2788.2428	914.1	33.55
1005.4118	2789.427	914.55	34.55
1005.5314	2790.6106	916.25	37.1
1005.651	2791.7935	920.45	39.85
1005.7706	2792.9757	915.5	38.3
1005.8902	2794.1573	921.3	37.85
1006.0097	2795.3382	917.1	37.7
1006.1291	2796.5184	919.5	40.3
1006.2485	2797.698	919.85	39.45
1006.3679	2798.8769	915.7	35.15
1006.4873	2800.0551	921.1	41.95
1006.6066	2801.2327	919.5	38.6
1006.7258	2802.4096	917.25	38.2
1006.8451	2803.5859	920.7	40.95
1006.9642	2804.7615	918.55	38.65
1007.0834	2805.9364	920	43.15
1007.2025	2807.1106	921.6	43.1
1007.3216	2808.2842	924.7	45.3
1007.4406	2809.4572	924.8	45.8
1007.5596	2810.6294	924.3	44.95
1007.6785	2811.801	929	50.15
1007.7975	2812.972	927.05	49.85
1007.9163	2814.1423	927.05	47.8
1008.0352	2815.3119	931.05	54.85
1008.154	2816.4808	931.15	51.8
1008.2727	2817.6491	936.5	54.7
1008.3914	2818.8167	940.2	63.15
1008.5101	2819.9837	947.6	61.65
1008.6288	2821.15	951.45	74.4
1008.7474	2822.3157	954.6	75.8
1008.8659	2823.4807	957.55	76.7
1008.9844	2824.645	962.4	80.8
1009.1029	2825.8086	972.15	94.4
1009.2214	2826.9716	978.95	99.8
1009.3398	2828.134	985.6	107.15
1009.4581	2829.2957	997.75	119.05
1009.5764	2830.4567	998.2	119.25
1009.6947	2831.617	1002.95	123.45
1009.813	2832.7767	1005.8	129.35
1009.9312	2833.9358	1003.6	126.05
1010.0493	2835.0941	1004.1	121.5
1010.1675	2836.2519	998.6	118.9
1010.2855	2837.4089	997	118.55
1010.4036	2838.5653	993.45	116
1010.5216	2839.7211	989.05	109.7
1010.6396	2840.8761	991.5	110.15
1010.7575	2842.0306	989	111.6
1010.8754	2843.1843	985.4	106.75
1010.9932	2844.3374	985.8	106.4
1011.111	2845.4899	992.25	113.2
1011.2288	2846.6417	988.8	111.8
1011.3465	2847.7928	989	110.05
1011.4642	2848.9433	993	113.25
1011.5818	2850.0931	992.35	115.15
1011.6995	2851.2422	997	116
1011.817	2852.3907	998.1	118.5
1011.9345	2853.5385	1002.5	121.3
1012.052	2854.6857	1024.4	118.65
1012.1695	2855.8323	1003.75	127.8
1012.2869	2856.9781	1002	122.75
1012.4042	2858.1233	1009.15	130.1
1012.5216	2859.2679	1009.15	129.1
1012.6389	2860.4118	1008.45	130.55
1012.7561	2861.555	1020.6	137
1012.8733	2862.6976	1024.55	144.65
1012.9905	2863.8395	1020.95	143.1
1013.1076	2864.9808	1021.1	141.6
1013.2247	2866.1214	1018.65	140.25
1013.3417	2867.2614	1023.3	144.8
1013.4587	2868.4007	1022.65	141.05
1013.5757	2869.5393	1027.9	145.85
1013.6926	2870.6773	1031.45	151.3
1013.8095	2871.8146	1032.95	146.75
1013.9263	2872.9513	1034.7	153
1014.0431	2874.0874	1036.1	156.85
1014.1599	2875.2227	1034.9	154.4
1014.2766	2876.3574	1044	165.35
1014.3933	2877.4915	1042.75	164.65
1014.51	2878.6249	1041.15	161.75
1014.6266	2879.7577	1044.6	163.1
1014.7431	2880.8898	1054.85	164.9
1014.8596	2882.0212	1049	172.65
1014.9761	2883.152	1047.9	169.1
1015.0925	2884.2821	1051.25	173.75
1015.2089	2885.4116	1055.05	175.55
1015.3253	2886.5405	1052.55	173
1015.4416	2887.6686	1061.65	179.95
1015.5579	2888.7962	1051.4	173.65
1015.6741	2889.923	1052.3	176.65
1015.7903	2891.0493	1053.2	176.05
1015.9065	2892.1748	1053.85	174.8
1016.0226	2893.2997	1054.35	175.9
1016.1387	2894.424	1055.8	177
1016.2547	2895.5476	1053.65	174.75
1016.3707	2896.6706	1052.05	173.2
1016.4866	2897.7929	1055.25	175.65
1016.6025	2898.9145	1052.2	174.8
1016.7184	2900.0355	1058.45	178
1016.8342	2901.1559	1053.85	175.3
1016.95	2902.2756	1060.6	177
1017.0658	2903.3946	1052.45	174.95
1017.1815	2904.513	1055.8	175.35
1017.2971	2905.6308	1048.4	171.05
1017.4127	2906.7479	1054.55	175.3
1017.5283	2907.8643	1054.25	175.95
1017.6439	2908.9801	1049.9	172.3
1017.7594	2910.0953	1054.9	175.7
1017.8748	2911.2098	1058.95	177.2
1017.9902	2912.3236	1057.4	172.25
1018.1056	2913.4368	1059.4	178.85
1018.2209	2914.5494	1046.9	168.3
1018.3362	2915.6613	1051.85	168.6
1018.4515	2916.7725	1046.6	167.45
1018.5667	2917.8831	1043.2	163.35
1018.6819	2918.9931	1048.4	169.4
1018.797	2920.1024	1040.15	159.95
1018.9121	2921.211	1035.25	159.2
1019.0271	2922.319	1038.05	157.25
1019.1421	2923.4264	1036.6	160.05
1019.2571	2924.5331	1035.45	158.75
1019.372	2925.6391	1035.3	157.95
1019.4869	2926.7445	1030.2	153.95
1019.6017	2927.8493	1031.05	151.3
1019.7165	2928.9534	1036.15	157.65
1019.8313	2930.0569	1039.25	157.4
1019.946	2931.1597	1040.25	163.1
1020.0606	2932.2619	1036.6	158
1020.1753	2933.3634	1039.85	161
1020.2899	2934.4643	1046.95	163.1
1020.4044	2935.5645	1049.4	166.9
1020.5189	2936.6641	1047.3	165.65
1020.6334	2937.763	1038.9	162.15
1020.7478	2938.8613	1041.55	161.35
1020.8622	2939.959	1044.25	160.15
1020.9765	2941.056	1036.75	159.4
1021.0908	2942.1523	1030.7	150.6
1021.2051	2943.248	1023.4	145.8
1021.3193	2944.3431	1016.95	139.6
1021.4334	2945.4375	1008.45	130.6
1021.5476	2946.5313	1001.15	125.05
1021.6617	2947.6244	994.8	116.15
1021.7757	2948.7169	989.25	111.05
1021.8897	2949.8087	982.95	105.65
1022.0037	2950.8999	978.75	101.75
1022.1176	2951.9904	974.2	94.9
1022.2315	2953.0803	968.65	90.15
1022.3453	2954.1696	963.05	86.5
1022.4591	2955.2582	958.85	80.15
1022.5728	2956.3462	959.7	80.75
1022.6865	2957.4335	962.05	84.65
1022.8002	2958.5202	961.7	82.4
1022.9138	2959.6062	956.5	80.3
1023.0274	2960.6916	957.4	79.2
1023.141	2961.7764	956.6	76.05
1023.2545	2962.8605	958.25	78.95
1023.3679	2963.9439	957.85	80.35
1023.4813	2965.0267	960.95	82.75
1023.5947	2966.1089	982	82
1023.708	2967.1905	955.2	78.15
1023.8213	2968.2714	952.75	75.75
1023.9346	2969.3516	952.05	74.2
1024.0478	2970.4312	962.4	78.7
1024.1609	2971.5102	956.15	79.05
1024.274	2972.5885	952.1	72.9
1024.3871	2973.6662	960.25	78
1024.5002	2974.7432	952.25	73.7
1024.6132	2975.8196	955.45	77.15
1024.7261	2976.8954	956.85	78.6
1024.839	2977.9705	954.45	78.45
1024.9519	2979.045	949.8	72.35
1025.0647	2980.1188	955.1	78.4
1025.1775	2981.192	951.75	74.25
1025.2902	2982.2645	951.85	72.6
1025.4029	2983.3364	950.1	73.3
1025.5156	2984.4077	950.1	72.1
1025.6282	2985.4783	953.5	70.1
1025.7407	2986.5483	940.8	64.75
1025.8532	2987.6177	941.1	62.9
1025.9657	2988.6864	938.6	62.7
1026.0782	2989.7545	940.3	61.15
1026.1906	2990.8219	938.7	61.7
1026.3029	2991.8887	935.45	56.55
1026.4152	2992.9548	932.75	54.4
1026.5275	2994.0204	929.35	51.9
1026.6397	2995.0852	924.9	48.15
1026.7519	2996.1495	925.45	46.25
1026.864	2997.2131	919.2	39.05
1026.9761	2998.276	917.75	39.2
1027.0882	2999.3383	918	38.65
1027.2002	3000.4	914.4	35.7
1027.3122	3001.4611	915.1	37.7
1027.4241	3002.5215	914.45	35.4
1027.536	3003.5812	911.25	32.95
1027.6478	3004.6404	909.4	30.35
1027.7596	3005.6989	911.7	32.3
1027.8714	3006.7567	908.65	31.45
1027.9831	3007.8139	935.75	24.9
1028.0947	3008.8705	907.55	30.8
1028.2064	3009.9264	909.2	28.25
1028.3179	3010.9818	905.95	29.75
1028.4295	3012.0364	907.25	28.65
1028.541	3013.0905	907	27.35
1028.6524	3014.1439	901.3	24.65
1028.7638	3015.1966	902.05	24.75
1028.8752	3016.2487	903.75	26.85
1028.9865	3017.3002	905.8	23.35
1029.0978	3018.3511	902.5	26.05
1029.209	3019.4013	902.65	25.25
1029.3202	3020.4509	901.8	24
1029.4314	3021.4998	901.8	23.6
1029.5425	3022.5481	902.2	22.3
1029.6535	3023.5958	904.6	28
1029.7645	3024.6428	902.4	23.4
1029.8755	3025.6892	902.15	25.95
1029.9864	3026.735	901.3	25.3
1030.0973	3027.7802	900.8	21.9
1030.2082	3028.8247	901.05	24.05
1030.319	3029.8685	902.35	24.8
1030.4297	3030.9118	901.95	23
1030.5404	3031.9544	899.4	20.7
1030.6511	3032.9963	900.45	24.45
1030.7617	3034.0376	900.6	24.45
1030.8723	3035.0783	903.1	23.55
1030.9829	3036.1184	903.55	26.35
1031.0934	3037.1578	901.4	24.65
1031.2038	3038.1966	900.1	22.6
1031.3142	3039.2348	899.6	23.8
1031.4246	3040.2723	911.35	24.5
1031.5349	3041.3092	900.8	24.55
1031.6452	3042.3455	901.5	21.1
1031.7554	3043.3811	900.95	23.7
1031.8656	3044.4161	904.1	23.9
1031.9758	3045.4505	899.65	23.15
1032.0859	3046.4842	900.85	23.5
1032.1959	3047.5173	900.7	23.65
1032.3059	3048.5498	899.4	22.95
1032.4159	3049.5816	901.75	23.85
1032.5258	3050.6128	902.8	25.3
1032.6357	3051.6434	902.4	23.05
1032.7455	3052.6734	904.6	24.5
1032.8553	3053.7027	901.2	23.4
1032.9651	3054.7314	901.25	26.05
1033.0748	3055.7594	901.2	24.05
1033.1845	3056.7868	904.3	24.4
1033.2941	3057.8136	902	26.95
1033.4037	3058.8398	901.4	25.65
1033.5132	3059.8653	901.05	25.2
1033.6227	3060.8902	902.55	23.25
1033.7321	3061.9145	901.05	21.45
1033.8415	3062.9381	902.55	25.35
1033.9509	3063.9612	920.7	27
1034.0602	3064.9835	906.55	31.9
1034.1694	3066.0053	907.3	24.7
1034.2787	3067.0264	903.65	27.9
1034.3878	3068.0469	904.65	25.5
1034.497	3069.0668	905.2	26.4
1034.6061	3070.086	900.2	23.1
1034.7151	3071.1046	902.95	27.2
1034.8241	3072.1226	904.7	26.1
1034.9331	3073.1399	901.95	23.05
1035.042	3074.1567	902.65	26.35
1035.1508	3075.1727	904.6	24.75
1035.2597	3076.1882	899.2	23.3
1035.3684	3077.203	897.85	20.5
1035.4772	3078.2173	899.75	19.1
1035.5859	3079.2308	902.8	22.15
1035.6945	3080.2438	902.25	25.3
1035.8031	3081.2561	899.05	23.15
1035.9117	3082.2678	898.25	21.15
1036.0202	3083.2789	896.9	19.9
1036.1286	3084.2893	896	18.6
1036.2371	3085.2991	899.3	21.8
1036.3454	3086.3083	902.1	21.7
1036.4538	3087.3169	896.6	17.75
1036.562	3088.3248	898.4	20.8
1036.6703	3089.3321	897.85	17.1
1036.7785	3090.3388	894.85	18.85
1036.8866	3091.3449	895.15	17.5
1036.9948	3092.3503	896.05	18.1
1037.1028	3093.3551	894.3	19
1037.2108	3094.3593	892.5	16.75
1037.3188	3095.3629	893.7	19.65
1037.4267	3096.3658	894	15.4
1037.5346	3097.3681	892.35	16.25
1037.6425	3098.3698	895.3	18.3
1037.7503	3099.3708	893.25	14.45
1037.858	3100.3713	893.45	16.45
1037.9657	3101.3711	893.85	15.95
1038.0734	3102.3702	1023.45	7.75
1038.181	3103.3688	896.1	18.45
1038.2886	3104.3667	893.25	15.8
1038.3961	3105.364	893	16.9
1038.5036	3106.3607	891.5	11.85
1038.611	3107.3568	891.55	13.1
1038.7184	3108.3522	891	15.15
1038.8257	3109.347	891.25	14
1038.933	3110.3412	897.45	15.9
1039.0403	3111.3348	890.55	14.55
1039.1475	3112.3277	890.7	14.1
1039.2547	3113.32	893.5	18.1
1039.3618	3114.3117	891.4	12.4
1039.4689	3115.3028	889.1	11.8
1039.5759	3116.2932	892.35	13.45
1039.6829	3117.2831	894.5	11.7
1039.7898	3118.2723	892	14.6
1039.8967	3119.2608	888.3	11.45
1040.0035	3120.2488	890.15	13.4
1040.1103	3121.2361	888.05	10.85
1040.2171	3122.2229	888.2	10.5
1040.3238	3123.209	887.8	9
1040.4305	3124.1944	888.5	12.7
1040.5371	3125.1793	891.8	14.05
1040.6437	3126.1635	887.85	10.35
1040.7502	3127.1471	888.05	12
1040.8567	3128.1301	889.05	11.75
1040.9631	3129.1125	887.7	12.2
1041.0695	3130.0942	890	11.7
1041.1759	3131.0753	896.25	9.95
1041.2822	3132.0558	889.65	9.3
1041.3884	3133.0357	890.4	14.6
1041.4946	3134.015	888.1	8.6
1041.6008	3134.9936	889.3	10.8
1041.7069	3135.9716	907.9	8.85
1041.813	3136.949	888.2	9.75
1041.919	3137.9258	904.15	7.5
1042.025	3138.902	893.45	12
1042.1309	3139.8775	886	8.3
1042.2368	3140.8524	887.35	10.35
1042.3427	3141.8267	887.9	8.95
1042.4485	3142.8004	888.9	13.25
1042.5542	3143.7735	891	8.1
1042.6599	3144.7459	887.2	9
1042.7656	3145.7178	888.85	12.05
1042.8712	3146.689	883.1	6.95
1042.9768	3147.6596	887.95	10.95
1043.0823	3148.6295	887.55	10.4
1043.1878	3149.5989	887.65	11.2
1043.2932	3150.5676	885.8	10.1
1043.3986	3151.5357	885.75	10.5
1043.5039	3152.5032	886.2	10.05
1043.6092	3153.4701	886.65	9.8
1043.7145	3154.4364	887.7	8.45
1043.8197	3155.402	884.45	9.9
1043.9248	3156.367	888.65	12.4
1044.03	3157.3315	930.45	10.1
1044.135	3158.2952	886.65	11.4
1044.24	3159.2584	884.65	8.15
1044.345	3160.221	886.4	8.15
1044.4499	3161.1829	885	7.05
1044.5548	3162.1442	888	11.1
1044.6596	3163.105	884.25	6.9
1044.7644	3164.065	885.25	9.25
1044.8692	3165.0245	888.75	9.65
1044.9739	3165.9834	883.4	7.45
1045.0785	3166.9416	884.05	7.4
1045.1831	3167.8993	885.65	7.5
1045.2877	3168.8563	884.4	9.5
1045.3922	3169.8127	885.05	8.9
1045.4966	3170.7684	885.55	8.45
1045.6011	3171.7236	887.1	9.5
1045.7054	3172.6782	885.95	8.5
1045.8098	3173.6321	886.25	8.6
1045.914	3174.5854	890.3	7.2
1046.0183	3175.5381	885.2	8.1
1046.1224	3176.4902	884.7	9.2
1046.2266	3177.4417	883.4	5.55
1046.3307	3178.3926	881.35	5.1
1046.4347	3179.3428	884.45	7.7
1046.5387	3180.2924	883.55	5.65
1046.6427	3181.2415	886.55	9.6
1046.7466	3182.1899	883.8	6
1046.8504	3183.1377	886.05	10.25
1046.9542	3184.0848	888.5	9.1
1047.058	3185.0314	885.5	9.55
1047.1617	3185.9773	883.45	6.85
1047.2654	3186.9227	883.85	7.15
1047.369	3187.8674	882.9	5.75
1047.4726	3188.8115	889.45	10.25
1047.5761	3189.755	883.7	8.3
1047.6796	3190.6979	883.6	7
1047.783	3191.6402	883.2	7.65
1047.8864	3192.5818	881	4.2
1047.9898	3193.5229	903.5	-1.75
1048.0931	3194.4633	883.35	5.95
1048.1963	3195.4031	882.5	5.65
1048.2995	3196.3423	883.75	7.7
1048.4027	3197.2809	883.4	7.35
1048.5058	3198.2189	885.3	9
1048.6089	3199.1563	891.1	9.2
1048.7119	3200.0931	883.45	7
1048.8148	3201.0292	882.95	6.75
1048.9178	3201.9648	882.1	6
1049.0206	3202.8997	885.6	3.55
1049.1235	3203.834	881.4	5.05
1049.2262	3204.7677	881.65	4.9
1049.329	3205.7008	885.6	8.35
1049.4317	3206.6333	882.25	4.35
1049.5343	3207.5652	885.95	7.4
1049.6369	3208.4964	883.05	6.15
1049.7394	3209.4271	881.6	7.5
1049.8419	3210.3571	883.55	8.65
1049.9444	3211.2865	883.95	8.15
1050.0468	3212.2154	885.4	8.85
1050.1491	3213.1436	886.25	6.7
1050.2514	3214.0712	889.45	4.85
1050.3537	3214.9982	881.7	4.45
1050.4559	3215.9246	884.85	6.05
1050.5581	3216.8503	879.7	1.9
1050.6602	3217.7755	882.6	5.55
1050.7623	3218.7001	883.55	8.35
1050.8643	3219.624	881.4	6.1
1050.9663	3220.5473	882.25	6.05
1051.0682	3221.4701	885.6	7.25
1051.1701	3222.3922	883.65	4.75
1051.2719	3223.3137	883.2	8.45
1051.3737	3224.2346	883.35	6.3
1051.4754	3225.1549	882.95	6.8
1051.5771	3226.0746	879.7	3
1051.6788	3226.9937	882.05	5.55
1051.7804	3227.9121	880.1	2.9
1051.8819	3228.83	881.25	5.9
1051.9834	3229.7473	884.3	8.25
1052.0849	3230.6639	883.95	7.35
1052.1863	3231.5799	883.5	7.35
1052.2876	3232.4954	882.5	5.55
1052.3889	3233.4102	881.2	5.1
1052.4902	3234.3244	881.85	5
1052.5914	3235.238	882.9	6.45
1052.6926	3236.151	905.25	5.7
1052.7937	3237.0634	880.95	5.35
1052.8948	3237.9752	882	7.1
1052.9958	3238.8864	883.25	5.85
1053.0968	3239.797	882.1	3.7
1053.1977	3240.7069	881.35	2.65
1053.2986	3241.6163	885.55	9.2
1053.3994	3242.5251	881.3	6.2
1053.5002	3243.4332	881.5	5.3
1053.6009	3244.3408	881.2	4.2
1053.7016	3245.2477	880.45	4.45
1053.8022	3246.154	881.15	2.45
1053.9028	3247.0598	881.75	3.65
1054.0034	3247.9649	879.75	3.95
1054.1039	3248.8694	881.35	5.8
1054.2043	3249.7733	879.35	3.45
1054.3047	3250.6766	882.35	4.85
1054.4051	3251.5793	881.35	4.65
1054.5054	3252.4814	882.65	7.5
1054.6056	3253.3829	882.15	6.7
1054.7058	3254.2838	881.45	4.95
1054.806	3255.1841	880.7	1.8
1054.9061	3256.0838	880.45	3.35
1055.0061	3256.9829	881.9	7.4
1055.1062	3257.8814	883.5	5.55
1055.2061	3258.7792	882.1	6.55
1055.306	3259.6765	882.5	5.25
1055.4059	3260.5731	881.25	4.15
1055.5057	3261.4692	881	3.9
1055.6055	3262.3647	880.45	3.7
1055.7052	3263.2595	880.15	3.3
1055.8049	3264.1538	879.25	2.45
1055.9045	3265.0474	880.7	3.25
1056.0041	3265.9404	879.25	3.5
1056.1036	3266.8329	879.55	2.5
1056.2031	3267.7247	891.85	5
1056.3025	3268.616	879.65	4
1056.4019	3269.5066	880.95	3.55
1056.5013	3270.3966	881.7	2.25
1056.6005	3271.286	880.1	5.15
