Software Version:	3.9.2.0
Unit SN:	10000200
Spectrometer SN:	6960
Date:	3/8/2024 1:40:42 PM
Data Line Index:	25
Spectral Points:	2048
Integration time (ms):	125
Averages:	20
Delay (ms):	30000
Sequence Number:	1
Processing:	dark subtract
Laser Power (mW):	300
Laser Current (mA):	822
Laser Diode Temp (C):	25
Laser Case Temp (C):	26.2
System Temp (C):	26.2
Spectrometer Temp (C):	24
CCD Temp (C):	0.005
Secondary Temp (C):	20.008
Heatsink Temp (C):	21.225
CCDPCB Temp (C):	36.329
SecondaryPCB Temp (C):	29.56

Wavelength	RamanShift	Raw Counts	Dark Subtracted
787.061	30.1047	463.05	55.45
787.2016	32.3739	465.5	59.7
787.3422	34.6426	471.35	62.7
787.4828	36.9109	478.7	69.75
787.6235	39.1787	486.1	73.7
787.7642	41.4461	496.2	77.85
787.9049	43.7131	506.3	85.6
788.0456	45.9796	514.45	92.7
788.1863	48.2456	521.9	94.45
788.3271	50.5112	533.1	102.25
788.4679	52.7764	542.3	108.65
788.6087	55.0411	554.4	115.3
788.7496	57.3054	566.1	120.6
788.8904	59.5692	574.85	129.5
789.0313	61.8326	584.8	135.25
789.1722	64.0955	596.2	142.45
789.3132	66.3579	611.8	154.3
789.4541	68.6199	637	175.2
789.5951	70.8815	677.7	211.55
789.7361	73.1426	757.35	285.6
789.8771	75.4032	973.5	498.55
790.0181	77.6634	1496.7	1018.95
790.1592	79.9231	2732.25	2245.5
790.3003	82.1824	5443.8	4937.45
790.4414	84.4412	10281.1	9746.65
790.5825	86.6995	17014.95	16442.15
790.7237	88.9574	23520.85	22912.55
790.8648	91.2148	28048.75	27419.85
791.006	93.4717	30123.3	29476.4
791.1472	95.7282	30641.1	29987.4
791.2885	97.9842	30551.6	29897.4
791.4297	100.2398	30062.4	29402.25
791.571	102.4949	29427.15	28764.95
791.7123	104.7495	28676.1	28010.55
791.8536	107.0036	27888.9	27225
791.9949	109.2573	27106.45	26441
792.1363	111.5105	26435.55	25768.85
792.2777	113.7632	25761.65	25088.85
792.4191	116.0154	25145.45	24462.7
792.5605	118.2672	24698.15	24021.7
792.7019	120.5185	24291.9	23613
792.8434	122.7693	23958.1	23275.05
792.9849	125.0197	23661	22977.95
793.1264	127.2696	23408.95	22722.65
793.2679	129.519	23271.45	22580.45
793.4094	131.7679	23067.2	22372.8
793.551	134.0163	22904.05	22203.3
793.6926	136.2642	22722.05	22021.05
793.8342	138.5117	22505.95	21797.5
793.9758	140.7587	22240.9	21536.35
794.1175	143.0052	22046.75	21340.8
794.2591	145.2512	21773.8	21063.25
794.4008	147.4967	21557.55	20850.2
794.5425	149.7417	21485.55	20774.05
794.6842	151.9863	21300.65	20583.55
794.826	154.2304	21252.05	20534.85
794.9677	156.4739	21131.4	20402.35
795.1095	158.717	21038.25	20306.55
795.2513	160.9596	20908.8	20178.9
795.3931	163.2017	20711.7	19978.35
795.535	165.4433	20416.2	19680.85
795.6768	167.6844	20066.25	19328.15
795.8187	169.925	19796.4	19055.5
795.9606	172.1651	19399.85	18658.75
796.1025	174.4047	19155.25	18413.55
796.2445	176.6439	18893.25	18143.8
796.3864	178.8825	18647.45	17900.75
796.5284	181.1206	18534.45	17778.75
796.6704	183.3582	18375.05	17614.15
796.8124	185.5954	18296.55	17534.15
796.9544	187.832	18241.5	17481
797.0965	190.0681	18219.65	17452.05
797.2386	192.3037	18229.5	17457.75
797.3806	194.5388	18249.9	17476.25
797.5228	196.7734	18255.55	17480.85
797.6649	199.0075	18382.65	17601.4
797.807	201.2411	18522.6	17744.5
797.9492	203.4742	18613.5	17834
798.0914	205.7068	18786.4	18002.2
798.2336	207.9389	18873.95	18089.9
798.3758	210.1704	19073.85	18295.55
798.518	212.4015	19170.05	18401.3
798.6603	214.632	19345.4	18585.45
798.8025	216.862	19526.2	18764.55
798.9448	219.0915	19719.05	18955.95
799.0871	221.3205	19947.15	19178.05
799.2294	223.549	20179.9	19421.4
799.3718	225.777	20456.5	19696.2
799.5141	228.0044	20812.2	20046.15
799.6565	230.2314	21251.35	20482.85
799.7989	232.4578	21631.95	20862.6
799.9413	234.6837	21981.35	21199.35
800.0837	236.909	22182	21398.35
800.2262	239.1339	22179.8	21369.6
800.3687	241.3582	22015.15	21222.9
800.5111	243.582	21719.4	20894.95
800.6536	245.8053	21418.4	20607.05
800.7961	248.0281	21143.05	20340.85
800.9387	250.2503	20946.1	20138.15
801.0812	252.472	20793.25	19983.95
801.2238	254.6932	20811.3	20002.25
801.3664	256.9139	20753	19946.4
801.509	259.134	20825.45	20010.15
801.6516	261.3536	20841.85	20023.95
801.7942	263.5727	20959.15	20144.35
801.9369	265.7912	20929.4	20113.8
802.0795	268.0092	21034.95	20221.8
802.2222	270.2267	21034.8	20219.85
802.3649	272.4436	21043.3	20228.5
802.5076	274.6601	21002.2	20177.15
802.6504	276.8759	20921.45	20099.5
802.7931	279.0913	20844.65	20024.85
802.9359	281.3061	20802.6	19981.5
803.0787	283.5204	20863.6	20033.8
803.2215	285.7341	20924.05	20093.65
803.3643	287.9473	21102.8	20265.3
803.5071	290.16	21328.55	20496.95
803.6499	292.3721	21636.35	20810.85
803.7928	294.5837	22032.55	21202.35
803.9357	296.7947	22336.9	21504.7
804.0786	299.0052	22553.25	21722.15
804.2215	301.2152	22436.3	21603.3
804.3644	303.4246	22154.95	21326
804.5074	305.6334	21617.3	20789.6
804.6503	307.8418	21147.7	20321.55
804.7933	310.0495	20737.85	19903.8
804.9363	312.2568	20434.95	19598.85
805.0793	314.4635	20207.45	19370.6
805.2223	316.6696	20082.55	19240.95
805.3653	318.8752	20029.05	19178.95
805.5084	321.0802	20068.95	19226.95
805.6514	323.2847	20176.3	19328.9
805.7945	325.4887	20227.1	19383.45
805.9376	327.692	20182.25	19337.05
806.0807	329.8949	20148	19297.8
806.2238	332.0972	19868.35	19018.6
806.367	334.2989	19639.6	18790.85
806.5101	336.5001	19348.35	18498.05
806.6533	338.7007	19167.1	18315.7
806.7965	340.9008	19051.65	18199.3
806.9397	343.1003	18939.6	18086.4
807.0829	345.2992	18899.3	18047.15
807.2261	347.4976	18852.05	17996.5
807.3693	349.6955	18862.15	18000.45
807.5126	351.8927	18962.25	18103.15
807.6559	354.0895	18913.25	18043.7
807.7991	356.2856	18978.45	18115.9
807.9424	358.4812	18959.3	18098.9
808.0857	360.6763	19024.45	18155.6
808.2291	362.8707	18965.95	18101.25
808.3724	365.0646	19075.9	18212.05
808.5158	367.258	19076.35	18208.95
808.6591	369.4508	19058.6	18184.55
808.8025	371.643	19218.85	18343.2
808.9459	373.8346	19182.5	18311.5
809.0893	376.0257	19195.75	18324.25
809.2327	378.2162	19142.85	18267.15
809.3762	380.4062	19128.75	18255.25
809.5196	382.5956	18938.4	18063.5
809.6631	384.7844	18861.7	17998.75
809.8066	386.9726	18726.3	17860.35
809.9501	389.1603	18690.65	17826.05
810.0936	391.3474	18678.4	17780.55
810.2371	393.5339	18684.95	17815.95
810.3806	395.7199	18620.4	17752.75
810.5241	397.9052	18628.85	17762.95
810.6677	400.09	18650.5	17783.6
810.8113	402.2743	18741.75	17872
810.9548	404.4579	18845.45	17977.9
811.0984	406.641	19043.15	18174.2
811.2421	408.8235	19244.1	18374.05
811.3857	411.0054	19535.45	18659.4
811.5293	413.1868	19973.8	19096.35
811.673	415.3675	20247.35	19364.55
811.8166	417.5477	20423.9	19544.7
811.9603	419.7273	20483.8	19601.45
812.104	421.9064	20372.05	19484.7
812.2477	424.0848	20291.1	19411.15
812.3914	426.2627	20054.35	19172.25
812.5351	428.4399	19801.55	18920.3
812.6788	430.6166	19471.9	18583.5
812.8226	432.7928	19110.65	18221.15
812.9663	434.9683	18787.05	17903.6
813.1101	437.1432	18555.1	17670.05
813.2539	439.3176	18418.75	17540.5
813.3977	441.4914	18271.75	17400.45
813.5415	443.6645	18258.35	17380.5
813.6853	445.8371	18228.4	17343.5
813.8291	448.0091	18154.3	17269.7
813.973	450.1806	18156.9	17274.1
814.1168	452.3514	18072.35	17187.25
814.2607	454.5216	18097.4	17206.1
814.4046	456.6913	18019.9	17134
814.5485	458.8603	18075.1	17188.95
814.6924	461.0288	18144.8	17265.4
814.8363	463.1967	18172.25	17295.95
814.9802	465.3639	18281.85	17400.2
815.1241	467.5306	18357.5	17477
815.2681	469.6967	18521.35	17642.85
815.412	471.8622	18667.75	17791.9
815.556	474.0271	18829.75	17948.7
815.7	476.1914	18893.9	18007.6
815.844	478.3551	18856.65	17971.8
815.988	480.5182	18861.4	17979.7
816.132	482.6807	18892.1	18016.8
816.276	484.8426	19022.55	18153.55
816.4201	487.0039	19322.55	18444.65
816.5641	489.1647	19688.25	18804.35
816.7082	491.3248	20143.95	19258.25
816.8522	493.4843	20320.6	19441.15
816.9963	495.6432	20329	19449.65
817.1404	497.8015	20205.25	19307.8
817.2845	499.9592	20238.6	19342.15
817.4286	502.1163	20184.5	19285.85
817.5727	504.2728	19937.65	19047.4
817.7168	506.4287	19662.95	18785.45
817.861	508.5839	19277.15	18400.9
818.0051	510.7386	18980.4	18093.5
818.1493	512.8927	18812.55	17920.05
818.2935	515.0461	18709	17818.85
818.4377	517.199	18711.1	17817.05
818.5818	519.3512	18725.25	17829.8
818.726	521.5029	18806.8	17909.65
818.8703	523.6539	18925.1	18035
819.0145	525.8043	19007.8	18113.6
819.1587	527.9541	19008.15	18109.4
819.303	530.1033	18964.75	18066.8
819.4472	532.2519	18964.15	18066.85
819.5915	534.3999	19095.8	18195.15
819.7357	536.5472	19331	18436.65
819.88	538.694	19777	18881.7
820.0243	540.8401	20310.35	19412.55
820.1686	542.9856	20809.6	19897.6
820.3129	545.1305	20956.05	20042.8
820.4572	547.2748	20863.05	19944.7
820.6016	549.4185	20528.6	19612.4
820.7459	551.5615	20221.85	19311.65
820.8902	553.704	20072.75	19159.5
821.0346	555.8458	20015.8	19111.75
821.1789	557.987	20079.95	19176.2
821.3233	560.1276	20106.7	19199.95
821.4677	562.2675	20215.95	19311.2
821.6121	564.4069	20314.75	19405.95
821.7565	566.5456	20392.9	19486.4
821.9009	568.6837	20345.25	19441.65
822.0453	570.8212	20060.4	19160.65
822.1897	572.958	19693.55	18790.85
822.3342	575.0942	19354.65	18457.5
822.4786	577.2299	19149.15	18252.25
822.6231	579.3648	19033	18148.6
822.7675	581.4992	19102.2	18223.7
822.912	583.6329	19278.35	18401.65
823.0565	585.766	19488.45	18607.1
823.201	587.8985	19660.15	18767
823.3454	590.0304	19671.8	18748.75
823.4899	592.1616	19628.85	18720.65
823.6345	594.2922	19528.4	18616.25
823.779	596.4222	19351.55	18439.15
823.9235	598.5515	19193.85	18275.8
824.068	600.6802	19034.75	18124.15
824.2126	602.8083	18873.8	17966.6
824.3571	604.9358	18819.2	17910.8
824.5017	607.0626	18795.75	17884.4
824.6462	609.1888	18781.55	17865.05
824.7908	611.3144	18765.85	17847.65
824.9354	613.4393	18675.95	17757
825.08	615.5636	18620.2	17702.55
825.2246	617.6873	18574.05	17656.1
825.3692	619.8103	18492.3	17573.75
825.5138	621.9327	18413.75	17497.5
825.6584	624.0544	18359.7	17449.45
825.803	626.1756	18306.7	17396.35
825.9477	628.2961	18279.85	17366
826.0923	630.4159	18229.85	17311.15
826.237	632.5351	18189.35	17272.55
826.3816	634.6537	18121.95	17204.5
826.5263	636.7716	18127.55	17201.3
826.6709	638.8889	18151.6	17223.85
826.8156	641.0056	18195.05	17270.25
826.9603	643.1216	18175.1	17250.5
827.105	645.237	18214.05	17291.6
827.2497	647.3518	18191.85	17275.95
827.3944	649.4659	18245	17334.3
827.5391	651.5793	18245.7	17334.9
827.6838	653.6922	18212.25	17303.35
827.8285	655.8043	18212.6	17296.95
827.9733	657.9159	18243	17325.45
828.118	660.0268	18174.7	17255.4
828.2627	662.137	18136.2	17216.95
828.4075	664.2466	18125.2	17203.15
828.5522	666.3556	18079.3	17155.4
828.697	668.4639	18057.9	17142.4
828.8418	670.5716	18141.25	17228.95
828.9865	672.6786	18213.7	17296.5
829.1313	674.785	18216.75	17290.9
829.2761	676.8907	18297.85	17373.9
829.4209	678.9958	18346.95	17430
829.5657	681.1002	18326.05	17407.7
829.7105	683.204	18376.35	17447.65
829.8553	685.3072	18290	17366.3
830.0001	687.4097	18269.9	17347.55
830.1449	689.5115	18260.7	17335.4
830.2898	691.6127	18175.85	17256.65
830.4346	693.7132	18121.65	17205.5
830.5794	695.8131	18159.75	17224.85
830.7243	697.9123	18129.5	17202.5
830.8691	700.0109	18109.75	17177.7
831.014	702.1089	18092.2	17168.9
831.1588	704.2061	18132	17203.45
831.3037	706.3028	18166.1	17235.75
831.4486	708.3987	18231.65	17302.85
831.5935	710.4941	18337	17412.7
831.7383	712.5887	18487.05	17565.3
831.8832	714.6827	18710.2	17781.8
832.0281	716.7761	19002.45	18079.75
832.173	718.8688	19382.85	18457.25
832.3179	720.9608	19602.75	18669.7
832.4628	723.0522	19675.8	18737.85
832.6077	725.1429	19525.7	18595.65
832.7527	727.233	19297.6	18371.15
832.8976	729.3224	19110.7	18180.45
833.0425	731.4112	18872.8	17944.2
833.1874	733.4993	18649.5	17720.1
833.3324	735.5867	18479.45	17549.75
833.4773	737.6735	18389.85	17457.35
833.6222	739.7596	18327.75	17395.55
833.7672	741.845	18275.9	17344.45
833.9122	743.9298	18266.25	17330.6
834.0571	746.014	18249.3	17319.5
834.2021	748.0974	18260.1	17322.2
834.347	750.1802	18243.85	17305.95
834.492	752.2624	18299.95	17364.55
834.637	754.3439	18310.2	17370.05
834.782	756.4247	18397.75	17453.95
834.9269	758.5048	18487.45	17551.3
835.0719	760.5843	18745.85	17809.9
835.2169	762.6631	19035.2	18098.45
835.3619	764.7413	19514.05	18581.15
835.5069	766.8188	20105.3	19170.7
835.6519	768.8956	20562.6	19627.3
835.7969	770.9718	20891.25	19959.7
835.9419	773.0473	20748.3	19812.2
836.0869	775.1221	20469.5	19537.3
836.232	777.1962	20102.15	19168.4
836.377	779.2697	19916.9	18976.95
836.522	781.3426	19972.7	19018.65
836.667	783.4147	20195.5	19257.55
836.8121	785.4862	20505.8	19566.55
836.9571	787.557	20452.95	19512.9
837.1021	789.6271	20135.05	19193.6
837.2472	791.6966	19645.85	18706.35
837.3922	793.7654	19038.2	18100.9
837.5373	795.8335	18769.65	17835.8
837.6823	797.901	18557.75	17617.3
837.8274	799.9678	18492.85	17549.35
837.9724	802.0339	18462.1	17521.3
838.1175	804.0993	18537.75	17585.55
838.2626	806.1641	18506.25	17565.3
838.4076	808.2282	18431.5	17494.4
838.5527	810.2916	18369.95	17431.8
838.6978	812.3544	18316.45	17385.25
838.8428	814.4164	18234.7	17299.45
838.9879	816.4778	18248.45	17308.7
839.133	818.5385	18233.25	17290.8
839.2781	820.5986	18328.35	17388.9
839.4232	822.658	18488.15	17543.45
839.5682	824.7166	18605.35	17663.8
839.7133	826.7747	18900.6	17958.65
839.8584	828.832	19148.25	18205.45
840.0035	830.8886	19287.45	18346.7
840.1486	832.9446	19483.75	18543.8
840.2937	834.9999	19441.05	18499.1
840.4388	837.0545	19412.05	18469.95
840.5839	839.1085	19374.5	18429.35
840.729	841.1618	19310.3	18361.9
840.8741	843.2143	19220.5	18278.6
841.0192	845.2662	19148.3	18206.85
841.1643	847.3175	19095.25	18150.7
841.3095	849.368	18986.95	18043.35
841.4546	851.4179	18894.35	17950.1
841.5997	853.467	18741.6	17800.4
841.7448	855.5155	18631.15	17686.1
841.8899	857.5633	18566.1	17621.8
842.0351	859.6105	18489.45	17546.5
842.1802	861.6569	18416.15	17473.25
842.3253	863.7027	18369.95	17424.85
842.4704	865.7478	18340.6	17393
842.6156	867.7922	18356.15	17408.75
842.7607	869.8359	18416.95	17470.3
842.9058	871.8789	18501.75	17556.25
843.0509	873.9212	18693.95	17718.75
843.1961	875.9629	18802	17852.35
843.3412	878.0039	18995.4	18050.95
843.4863	880.0441	19106.8	18167.4
843.6315	882.0837	19141.55	18198.35
843.7766	884.1226	19059.95	18117.7
843.9218	886.1609	18997.1	18053.15
844.0669	888.1984	18953.5	18012.35
844.212	890.2352	18988	18043.85
844.3572	892.2714	18964.25	18019.1
844.5023	894.3069	18941.75	17997.25
844.6475	896.3416	18853.3	17907.8
844.7926	898.3757	18783.6	17834.05
844.9377	900.4091	18799.5	17846.45
845.0829	902.4418	18847.85	17895.35
845.228	904.4739	18814.95	17861.6
845.3732	906.5052	18826.4	17876.05
845.5183	908.5358	18750.25	17802.8
845.6635	910.5658	18581.7	17628.85
845.8086	912.595	18411.8	17464.95
845.9538	914.6236	18288.1	17340.55
846.0989	916.6515	18229.4	17281.25
846.2441	918.6786	18189.2	17239.3
846.3892	920.7051	18291.5	17341.2
846.5344	922.7309	18421.3	17473.2
846.6795	924.756	18471.2	17525.85
846.8246	926.7804	18565.2	17616.1
846.9698	928.8041	18475.8	17526.8
847.1149	930.8272	18531.4	17584.55
847.2601	932.8495	18464.95	17517.1
847.4052	934.8711	18400.1	17446.35
847.5504	936.892	18312.8	17360.05
847.6955	938.9123	18172.55	17223.85
847.8407	940.9318	18100.25	17153.2
847.9858	942.9506	17968.4	17017.35
848.131	944.9688	17904	16955.3
848.2761	946.9862	17873.2	16923.05
848.4213	949.003	17762	16810
848.5664	951.019	17756.15	16804.3
848.7115	953.0344	17740.7	16792.85
848.8567	955.0491	17764.5	16815.15
849.0018	957.063	17844.85	16894
849.147	959.0763	17996	17050.05
849.2921	961.0888	18025.8	17076.05
849.4373	963.1007	18120.35	17175.4
849.5824	965.1119	18162.75	17226.05
849.7275	967.1223	18185.6	17252.05
849.8727	969.1321	18185.3	17252.2
850.0178	971.1412	18235.55	17298.7
850.1629	973.1495	18251.5	17305.15
850.3081	975.1572	18342.6	17344.45
850.4532	977.1641	18348.3	17395.5
850.5983	979.1704	18298.1	17347.15
850.7435	981.1759	18315.6	17362.85
850.8886	983.1808	18343.45	17392.25
851.0337	985.1849	18408.5	17451.6
851.1788	987.1884	18565.95	17617.4
851.324	989.1911	18696.15	17746.2
851.4691	991.1932	18830.65	17886.3
851.6142	993.1945	18880.5	17931.5
851.7593	995.1951	18814.3	17862.55
851.9045	997.1951	18814.55	17859.2
852.0496	999.1943	18738.3	17790.4
852.1947	1001.1928	18674.25	17723.5
852.3398	1003.1906	18660.8	17712.55
852.4849	1005.1877	18755.35	17803.8
852.63	1007.1841	18698.7	17751.8
852.7751	1009.1798	18666.8	17718.5
852.9202	1011.1748	18506.15	17557.4
853.0653	1013.1691	18323.65	17373.4
853.2104	1015.1627	18083.3	17136.9
853.3555	1017.1556	17852.65	16909.15
853.5006	1019.1477	17773.6	16829.55
853.6457	1021.1392	17644.15	16706.3
853.7908	1023.1299	17629.45	16690.3
853.9359	1025.12	17619.05	16689.75
854.081	1027.1093	17640.75	16720.1
854.2261	1029.0979	17727.35	16810.7
854.3712	1031.0859	17831.9	16908.4
854.5163	1033.0731	17820.7	16887.35
854.6613	1035.0596	17744	16805.35
854.8064	1037.0454	17613.4	16668.65
854.9515	1039.0304	17497.6	16554.6
855.0965	1041.0148	17372.3	16427.3
855.2416	1042.9985	17287.1	16342.05
855.3867	1044.9814	17253.4	16308.85
855.5317	1046.9636	17192.3	16243.5
855.6768	1048.9452	17149.15	16207.8
855.8219	1050.926	17175.55	16230.55
855.9669	1052.9061	17168	16223.3
856.112	1054.8855	17153.35	16203.7
856.257	1056.8642	17245.5	16300.45
856.4021	1058.8421	17277.85	16326.6
856.5471	1060.8194	17302.15	16356.9
856.6921	1062.7959	17333.3	16390
856.8372	1064.7717	17389.95	16444
856.9822	1066.7469	17401.7	16453.85
857.1272	1068.7213	17401	16451.55
857.2723	1070.695	17407.15	16461.45
857.4173	1072.6679	17334.65	16387.35
857.5623	1074.6402	17321.5	16374.35
857.7073	1076.6117	17317.4	16362.95
857.8523	1078.5826	17282.2	16336.8
857.9973	1080.5527	17236.8	16288.9
858.1423	1082.5221	17301.7	16352.45
858.2873	1084.4908	17473.7	16526.7
858.4323	1086.4587	17625.65	16678.55
858.5773	1088.426	17758.25	16813.4
858.7223	1090.3925	17774.25	16826.55
858.8673	1092.3584	17763.2	16815
859.0123	1094.3235	17585.9	16642.1
859.1573	1096.2879	17538.1	16592.45
859.3022	1098.2515	17552.75	16608.9
859.4472	1100.2145	17649.85	16707.05
859.5922	1102.1767	17726.3	16777.5
859.7371	1104.1382	17871	16927.8
859.8821	1106.099	18123.55	17175.85
860.027	1108.0591	18338.9	17396.1
860.172	1110.0185	18429.1	17482.95
860.3169	1111.9771	18503.2	17560.85
860.4619	1113.9351	18314.7	17366.55
860.6068	1115.8923	18010.35	17061.6
860.7517	1117.8488	17759.75	16809.6
860.8967	1119.8045	17460	16516.15
861.0416	1121.7596	17375.1	16432.55
861.1865	1123.7139	17289.25	16346.8
861.3314	1125.6675	17328.55	16384.4
861.4763	1127.6204	17348.1	16405.1
861.6212	1129.5726	17324.45	16374.65
861.7661	1131.524	17330.8	16387.85
861.911	1133.4748	17295.05	16350
862.0559	1135.4248	17221.25	16272.75
862.2008	1137.3741	17194.75	16252.05
862.3457	1139.3226	17122.3	16179.7
862.4905	1141.2705	17100.8	16154.3
862.6354	1143.2176	16988.6	16039.95
862.7803	1145.164	17008.95	16063.35
862.9251	1147.1097	17012.8	16068.15
863.07	1149.0546	16982.6	16034.8
863.2148	1150.9989	16905.85	15962.15
863.3597	1152.9424	16786.75	15843.3
863.5045	1154.8852	16627.45	15682.2
863.6493	1156.8272	16552.5	15608.25
863.7942	1158.7686	16526.25	15574.9
863.939	1160.7092	16472.05	15524.3
864.0838	1162.6491	16451.85	15500.85
864.2286	1164.5883	16512.85	15572.6
864.3734	1166.5267	16604.25	15659.15
864.5182	1168.4644	16773.75	15828.45
864.663	1170.4014	16937.95	15993.5
864.8078	1172.3377	17190	16248.15
864.9526	1174.2732	17433.65	16491
865.0974	1176.2081	17731.95	16785.85
865.2421	1178.1421	17967.9	17019.65
865.3869	1180.0755	18213.05	17271.55
865.5317	1182.0082	18328.35	17388.2
865.6764	1183.9401	18406.8	17462.5
865.8212	1185.8713	18243.3	17308.9
865.9659	1187.8017	17971.5	17041
866.1106	1189.7315	17718.8	16797.9
866.2554	1191.6605	17414.9	16493.2
866.4001	1193.5888	17205.45	16275.75
866.5448	1195.5163	17094.85	16160.15
866.6895	1197.4432	16958.95	16020.7
866.8342	1199.3693	16947.45	16006.7
866.9789	1201.2947	16911.3	15967
867.1236	1203.2193	16883.25	15941.35
867.2683	1205.1432	16916.25	15976.1
867.413	1207.0664	16887.4	15944.35
867.5576	1208.9889	16897.9	15955.05
867.7023	1210.9106	16913.55	15974
867.847	1212.8316	16944.1	16007.5
867.9916	1214.7519	17020.45	16072.85
868.1363	1216.6715	17017.35	16080.7
868.2809	1218.5903	16986.9	16045.4
868.4255	1220.5084	16953	16012.5
868.5701	1222.4257	17002.4	16061.35
868.7148	1224.3424	16915.35	15977.4
868.8594	1226.2583	17003.45	16062.35
869.004	1228.1735	17109.3	16170
869.1486	1230.0879	17138.95	16199
869.2932	1232.0016	17270.7	16330.15
869.4377	1233.9146	17304.4	16361.25
869.5823	1235.8269	17225.45	16286.85
869.7269	1237.7384	17147.3	16205.6
869.8715	1239.6492	16957.55	16019
870.016	1241.5592	16865.85	15925.45
870.1606	1243.4686	16773.65	15834.45
870.3051	1245.3772	16784.85	15846.6
870.4496	1247.285	16788.35	15848.65
870.5941	1249.1922	16753.4	15814.1
870.7387	1251.0986	16777.9	15840.8
870.8832	1253.0042	16745.6	15807.7
871.0277	1254.9092	16829.55	15894.35
871.1722	1256.8134	16888.1	15952.6
871.3167	1258.7169	16996.25	16058.9
871.4611	1260.6196	17159.9	16226.4
871.6056	1262.5216	17393.45	16456.9
871.7501	1264.4229	17528.75	16589
871.8945	1266.3234	17694.5	16753.75
872.039	1268.2232	17752.2	16812.25
872.1834	1270.1223	17788.75	16849.75
872.3278	1272.0207	17786.9	16849.2
872.4723	1273.9183	17755.9	16811.6
872.6167	1275.8151	17684.15	16749
872.7611	1277.7113	17593.1	16653.95
872.9055	1279.6067	17469.35	16535.75
873.0499	1281.5014	17425.55	16486.35
873.1943	1283.3953	17445.55	16504
873.3386	1285.2885	17518.85	16582.4
873.483	1287.181	17608	16672.9
873.6274	1289.0727	17712.55	16777.65
873.7717	1290.9637	17860.6	16925.2
873.9161	1292.854	17994.7	17056.6
874.0604	1294.7435	18106.15	17171.15
874.2047	1296.6323	18228.9	17292.8
874.349	1298.5204	18390.6	17449.75
874.4933	1300.4077	18551.95	17618.05
874.6376	1302.2943	18657.8	17718.85
874.7819	1304.1802	18609.4	17673.4
874.9262	1306.0653	18455.05	17517.7
875.0705	1307.9497	18226.65	17290.8
875.2147	1309.8333	18018.85	17086.35
875.359	1311.7162	17906	16969.4
875.5032	1313.5984	17898.1	16959.55
875.6475	1315.4798	17897.8	16962
875.7917	1317.3605	17960.1	17020.1
875.9359	1319.2405	17994.15	17054.6
876.0801	1321.1197	17915.15	16977
876.2243	1322.9982	17763.45	16820.15
876.3685	1324.876	17663.2	16727.6
876.5127	1326.753	17529	16592.55
876.6569	1328.6293	17500.7	16558.45
876.801	1330.5048	17477.75	16536.6
876.9452	1332.3796	17390.65	16455.2
877.0893	1334.2537	17371.5	16412.45
877.2335	1336.127	17289.6	16355
877.3776	1337.9996	17267.15	16334.05
877.5217	1339.8714	17237.9	16299.8
877.6658	1341.7426	17206.35	16226.35
877.8099	1343.6129	17179.25	16239.95
877.954	1345.4826	17097.6	16157.25
878.0981	1347.3515	17109.5	16167.45
878.2422	1349.2196	17071.35	16133.25
878.3862	1351.087	17051.2	16112.9
878.5303	1352.9537	17093.15	16154.8
878.6743	1354.8197	17241.3	16306.8
878.8184	1356.6849	17371.6	16435
878.9624	1358.5493	17474.35	16538.15
879.1064	1360.4131	17524.6	16589.2
879.2504	1362.276	17497.9	16564.15
879.3944	1364.1383	17336.8	16398.6
879.5384	1365.9998	17151.55	16213.7
879.6823	1367.8606	16839.05	15902.6
879.8263	1369.7206	16512.15	15575.9
879.9702	1371.5799	16248.9	15306.2
880.1142	1373.4384	16039.3	15101.05
880.2581	1375.2962	15874.4	14937.15
880.402	1377.1533	15593	14656.5
880.5459	1379.0096	15277.95	14344.2
880.6898	1380.8652	14999.25	14066.8
880.8337	1382.7201	14708.75	13776.95
880.9776	1384.5742	14465.95	13528.2
881.1215	1386.4275	14278.2	13339.9
881.2653	1388.2802	14158.95	13226
881.4092	1390.132	13984.9	13047
881.553	1391.9832	13982.05	13044.7
881.6968	1393.8336	13843.1	12907.15
881.8406	1395.6832	13801.75	12865.4
881.9844	1397.5322	13726.3	12789.7
882.1282	1399.3803	13693.55	12754
882.272	1401.2278	13630.6	12694.25
882.4158	1403.0745	13636.4	12701.95
882.5595	1404.9204	13609.7	12676.75
882.7033	1406.7656	13628.15	12693.25
882.847	1408.6101	13612.75	12675.55
882.9908	1410.4538	13604.4	12670
883.1345	1412.2968	13621.15	12686.3
883.2782	1414.139	13653.05	12718.95
883.4219	1415.9805	13751.35	12815.75
883.5656	1417.8213	13821.35	12880.5
883.7092	1419.6613	13902.25	12965.9
883.8529	1421.5006	14070.75	13138.7
883.9965	1423.3391	14287.75	13356.25
884.1402	1425.1769	14547.35	13610.95
884.2838	1427.0139	15007.95	14072.05
884.4274	1428.8502	15567.05	14635.3
884.571	1430.6858	16143	15209.7
884.7146	1432.5206	16523.55	15589.45
884.8582	1434.3547	16773.8	15841.45
885.0018	1436.188	16795.6	15863.3
885.1453	1438.0206	16708.3	15775.5
885.2889	1439.8524	16511.65	15579.9
885.4324	1441.6835	16417.5	15486.4
885.5759	1443.5139	16308.55	15375.1
885.7194	1445.3435	16195.85	15264.3
885.8629	1447.1724	16178.95	15248.6
886.0064	1449.0005	16100.2	15169.45
886.1499	1450.8279	16018.45	15085
886.2933	1452.6545	15970.25	15039.95
886.4368	1454.4804	15996.3	15068.7
886.5802	1456.3056	15970.45	15037.7
886.7237	1458.13	15864.95	14935.2
886.8671	1459.9536	15682.5	14753.15
887.0105	1461.7766	15332.65	14401.75
887.1539	1463.5987	14929.75	13995.7
887.2972	1465.4202	14540.5	13605.45
887.4406	1467.2409	14178.5	13246.75
887.584	1469.0608	13927.9	12994.55
887.7273	1470.88	13651.25	12717.05
887.8706	1472.6984	13422.95	12495.35
888.0139	1474.5161	13189.95	12260
888.1572	1476.3331	13048.85	12119.6
888.3005	1478.1493	12901.4	11970.25
888.4438	1479.9648	12823.35	11892.25
888.5871	1481.7795	12691.15	11758.45
888.7303	1483.5935	12609.05	11678.05
888.8736	1485.4067	12565.1	11633.8
889.0168	1487.2192	12509.8	11579.55
889.16	1489.031	12467.35	11535.7
889.3032	1490.842	12405.2	11478.65
889.4464	1492.6522	12392.25	11464.2
889.5896	1494.4618	12305.75	11378.4
889.7327	1496.2705	12268.4	11336.85
889.8759	1498.0785	12240.8	11308.85
890.019	1499.8858	12206.05	11276.55
890.1622	1501.6924	12147.35	11216.3
890.3053	1503.4981	12133.45	11199.75
890.4484	1505.3032	12098.35	11168.35
890.5914	1507.1075	12035.3	11106.55
890.7345	1508.911	12030.25	11101.1
890.8776	1510.7138	11937.3	11008.4
891.0206	1512.5159	11895.35	10966.75
891.1637	1514.3172	11859.75	10929.8
891.3067	1516.1178	11800.3	10873.05
891.4497	1517.9176	11752.75	10822.8
891.5927	1519.7166	11700.15	10771.85
891.7357	1521.515	11656.5	10724.4
891.8786	1523.3126	11629.15	10702.55
892.0216	1525.1094	11597.1	10669.05
892.1645	1526.9055	11544.45	10621.5
892.3074	1528.7008	11516.2	10587.1
892.4503	1530.4954	11446.2	10518.6
892.5932	1532.2893	11421.6	10497.8
892.7361	1534.0824	11362.1	10437.05
892.879	1535.8747	11370.2	10450
893.0218	1537.6663	11323.25	10400.3
893.1647	1539.4572	11306.3	10381.15
893.3075	1541.2473	11317.55	10390.2
893.4503	1543.0367	11276.55	10354.75
893.5931	1544.8253	11247.85	10319.15
893.7359	1546.6132	11254	10326.4
893.8787	1548.4003	11255.7	10321.45
894.0214	1550.1867	11277.9	10349.65
894.1642	1551.9723	11291.5	10366.8
894.3069	1553.7572	11326.1	10405.45
894.4496	1555.5414	11383	10460.55
894.5923	1557.3247	11414.15	10496.25
894.735	1559.1074	11471.15	10557.25
894.8777	1560.8893	11554.4	10636.25
895.0204	1562.6705	11612.55	10698.7
895.163	1564.4509	11671.7	10756
895.3056	1566.2305	11714.55	10801.25
895.4482	1568.0094	11794.5	10883
895.5908	1569.7876	11821.25	10903.65
895.7334	1571.565	11802.45	10884.95
895.876	1573.3417	11800.6	10883.45
896.0186	1575.1176	11787.95	10876.35
896.1611	1576.8928	11760.25	10847.4
896.3036	1578.6672	11632.6	10725.8
896.4461	1580.4409	11574.75	10665.25
896.5886	1582.2138	11432.75	10519.7
896.7311	1583.986	11363.75	10451.4
896.8736	1585.7575	11322	10411.65
897.0161	1587.5282	11255.15	10346.25
897.1585	1589.2981	11220.1	10316.2
897.3009	1591.0673	11213.85	10306.7
897.4433	1592.8358	11226.9	10317.45
897.5857	1594.6035	11245.6	10332.65
897.7281	1596.3704	11252.75	10339.15
897.8705	1598.1366	11281.2	10368.35
898.0128	1599.9021	11336.4	10427.4
898.1551	1601.6668	11363.6	10449.35
898.2975	1603.4308	11450.6	10536.65
898.4398	1605.194	11546.55	10631.3
898.5821	1606.9564	11628	10725.65
898.7243	1608.7182	11798.6	10899.45
898.8666	1610.4791	11956.65	11061.25
899.0088	1612.2394	12148.05	11252.8
899.1511	1613.9988	12300.6	11404.5
899.2933	1615.7576	12515.3	11611.55
899.4355	1617.5156	12744.55	11828.15
899.5776	1619.2728	12905.7	11993.15
899.7198	1621.0293	12973.9	12065.9
899.862	1622.785	12970.55	12060.35
900.0041	1624.54	12834.15	11930.3
900.1462	1626.2942	12661.9	11758.3
900.2883	1628.0477	12388.55	11482.15
900.4304	1629.8005	12150.8	11245.35
900.5725	1631.5525	11932.75	11028.85
900.7145	1633.3037	11713.05	10809.75
900.8566	1635.0542	11578.2	10677.2
900.9986	1636.804	11460.25	10556.45
901.1406	1638.553	11416.9	10444.6
901.2826	1640.3013	11337.3	10431.3
901.4245	1642.0488	11318.9	10415.1
901.5665	1643.7955	11331.7	10432.6
901.7085	1645.5416	11337.5	10437.2
901.8504	1647.2868	11458.65	10553.85
901.9923	1649.0313	11542.4	10637.9
902.1342	1650.7751	11693.8	10789
902.2761	1652.5181	11820.35	10919.3
902.4179	1654.2604	11981.1	11079
902.5598	1656.0019	12234.45	11334.3
902.7016	1657.7427	12543.55	11641.9
902.8434	1659.4828	12817.5	11913.6
902.9852	1661.222	12971.55	12064.9
903.127	1662.9606	12958	12053
903.2687	1664.6984	12750.55	11845.1
903.4105	1666.4354	12379.9	11473.7
903.5522	1668.1717	11831.85	10924.8
903.6939	1669.9072	11325.5	10418.85
903.8356	1671.642	10882.95	9974.05
903.9773	1673.3761	10523.95	9618.5
904.119	1675.1094	10221.3	9318.55
904.2606	1676.8419	9987.15	9084.6
904.4022	1678.5737	9760.75	8857.05
904.5439	1680.3048	9630.2	8723.5
904.6855	1682.0351	9514.75	8609.35
904.827	1683.7646	9417.2	8511.2
904.9686	1685.4934	9329.35	8425.55
905.1101	1687.2215	9248.3	8343.8
905.2517	1688.9488	9161	8259.3
905.3932	1690.6754	9072.95	8174.15
905.5347	1692.4012	9057.45	8154.85
905.6761	1694.1263	8998.8	8095.15
905.8176	1695.8506	8960.45	8056.45
905.9591	1697.5742	8921.7	8021.6
906.1005	1699.297	8879.8	7983.1
906.2419	1701.0191	8821	7923.65
906.3833	1702.7404	8766.1	7867
906.5246	1704.461	8725.35	7826.4
906.666	1706.1808	8704.65	7802.75
906.8073	1707.8999	8659.1	7762.05
906.9487	1709.6182	8627	7732.05
907.09	1711.3358	8596.3	7704.55
907.2313	1713.0527	8532.9	7639.7
907.3725	1714.7688	8493.6	7594.65
907.5138	1716.4841	8453.25	7554.9
907.655	1718.1987	8446.2	7540.85
907.7962	1719.9126	8429.2	7532.95
907.9374	1721.6257	8405.4	7511.4
908.0786	1723.338	8385	7489
908.2198	1725.0496	8312.7	7417
908.3609	1726.7605	8329.5	7431.9
908.502	1728.4706	8285.25	7390.55
908.6431	1730.18	8232.7	7336.9
908.7842	1731.8886	8210.05	7318.45
908.9253	1733.5964	8192	7278.9
909.0664	1735.3036	8140.7	7242.6
909.2074	1737.0099	8170.3	7276.35
909.3484	1738.7156	8118.2	7223.9
909.4894	1740.4204	8071.95	7177.55
909.6304	1742.1246	8056.9	7160.8
909.7714	1743.8279	8041.1	7147.5
909.9123	1745.5306	8009.1	7119.15
910.0532	1747.2325	7968.6	7074.8
910.1941	1748.9336	7970.55	7075.3
910.335	1750.634	7922.65	7025.5
910.4759	1752.3336	7881.9	6990.2
910.6168	1754.0325	7873.25	6984.7
910.7576	1755.7307	7847.4	6954.25
910.8984	1757.4281	7851.3	6959.35
911.0392	1759.1247	7837.65	6933.5
911.18	1760.8206	7832.2	6929.65
911.3208	1762.5158	7806.8	6906.85
911.4615	1764.2102	7772.05	6875.8
911.6022	1765.9039	7746.4	6854.05
911.7429	1767.5968	7711.6	6822.9
911.8836	1769.289	7689.2	6796.15
912.0243	1770.9804	7677.15	6784.3
912.1649	1772.6711	7665.6	6767.85
912.3056	1774.361	7647.8	6752.9
912.4462	1776.0502	7637.85	6742.65
912.5868	1777.7386	7624	6725.55
912.7274	1779.4263	7590.2	6694.65
912.8679	1781.1132	7583.55	6694
913.0084	1782.7994	7574.5	6684.05
913.149	1784.4849	7556.75	6665.2
913.2895	1786.1696	7531.5	6632.85
913.4299	1787.8535	7528.35	6638.1
913.5704	1789.5367	7470.5	6581.6
913.7108	1791.2192	7471.9	6582.7
913.8513	1792.9009	7454.25	6537.95
913.9917	1794.5818	7428	6532.15
914.132	1796.2621	7415.1	6521.25
914.2724	1797.9415	7393.5	6498.95
914.4128	1799.6202	7361.85	6469.3
914.5531	1801.2982	7343.65	6448.15
914.6934	1802.9755	7347.3	6450.15
914.8337	1804.6519	7330.65	6436.1
914.9739	1806.3277	7307.05	6415.1
915.1142	1808.0027	7282.2	6394.3
915.2544	1809.6769	7246.2	6358.35
915.3946	1811.3504	7234.25	6345.1
915.5348	1813.0231	7226.75	6336.5
915.675	1814.6951	7226.65	6337.9
915.8151	1816.3664	7236.7	6341.7
915.9553	1818.0369	7220.65	6328.15
916.0954	1819.7067	7184.7	6290.95
916.2355	1821.3757	7157.3	6262.65
916.3755	1823.044	7147.75	6253.15
916.5156	1824.7115	7143.5	6250
916.6556	1826.3783	7113.1	6221.05
916.7956	1828.0443	7080.65	6189.7
916.9356	1829.7096	7080.55	6186.95
917.0756	1831.3741	7063.6	6167.55
917.2155	1833.0379	7044.05	6154.85
917.3555	1834.701	7027.8	6139.85
917.4954	1836.3633	6997.35	6108.85
917.6353	1838.0248	6994.35	6101.9
917.7751	1839.6856	6963.8	6072.65
917.915	1841.3457	6972.2	6079.95
918.0548	1843.005	6950.1	6054.9
918.1946	1844.6636	6948.4	6056.35
918.3344	1846.3214	6901.2	6009.75
918.4742	1847.9785	6936.35	6047.7
918.6139	1849.6349	6899.2	6007.65
918.7537	1851.2904	6885.45	5984.3
918.8934	1852.9453	6868.65	5975.15
919.0331	1854.5994	6847.35	5950.95
919.1727	1856.2528	6848.7	5950.05
919.3124	1857.9054	6828.3	5933.4
919.452	1859.5572	6827.65	5935.45
919.5916	1861.2083	6811.1	5919.9
919.7312	1862.8587	6821.6	5929.55
919.8708	1864.5084	6785.3	5890.7
920.0103	1866.1572	6757.75	5862.75
920.1498	1867.8054	6736.8	5842.6
920.2893	1869.4528	6727.35	5834.55
920.4288	1871.0994	6689.6	5796.75
920.5683	1872.7453	6704.25	5808.8
920.7077	1874.3905	6681.8	5771.5
920.8471	1876.0349	6634.5	5740.65
920.9865	1877.6786	6647.7	5752.75
921.1259	1879.3215	6660.55	5768.6
921.2653	1880.9637	6627.25	5734.7
921.4046	1882.6051	6600.65	5709.25
921.5439	1884.2458	6604.6	5710.65
921.6832	1885.8858	6586.45	5692.75
921.8225	1887.525	6570.65	5678.9
921.9617	1889.1634	6551.05	5658.3
922.101	1890.8011	6515.65	5620.35
922.2402	1892.4381	6508.75	5616.1
922.3794	1894.0743	6493.65	5602.25
922.5185	1895.7098	6483.85	5591.9
922.6577	1897.3446	6466.25	5572.8
922.7968	1898.9786	6458.95	5560.55
922.9359	1900.6118	6431.85	5540.2
923.075	1902.2443	6404.05	5513.45
923.214	1903.8761	6388.05	5495.95
923.3531	1905.5071	6377.95	5487.3
923.4921	1907.1374	6357.25	5463
923.6311	1908.7669	6340.15	5448.05
923.77	1910.3957	6350.95	5461.2
923.909	1912.0237	6302.25	5410.6
924.0479	1913.651	6260.75	5366.4
924.1868	1915.2776	6271.2	5381.8
924.3257	1916.9034	6246.55	5356.8
924.4646	1918.5285	6208.25	5319.95
924.6034	1920.1528	6210.75	5321.05
924.7422	1921.7764	6199.6	5310.25
924.881	1923.3992	6184.2	5291.65
925.0198	1925.0213	6136.8	5247.65
925.1586	1926.6427	6111.75	5223.15
925.2973	1928.2633	6275.1	5172.1
925.436	1929.8832	6111.5	5214.95
925.5747	1931.5023	6077.65	5183.6
925.7134	1933.1207	6050.2	5159.4
925.852	1934.7383	6026.8	5137.7
925.9906	1936.3552	6007.5	5116.85
926.1292	1937.9714	5996.8	5108.9
926.2678	1939.5868	5982.75	5090
926.4064	1941.2015	5953.7	5059.7
926.5449	1942.8154	5938.65	5043.85
926.6834	1944.4286	5919.4	5026.85
926.8219	1946.041	5928.95	5013.45
926.9604	1947.6528	5865.35	4965.7
927.0988	1949.2637	5862.7	4975.4
927.2372	1950.8739	5841.85	4950.6
927.3756	1952.4834	5808.1	4916.5
927.514	1954.0921	5818.65	4929.75
927.6523	1955.7001	5792.95	4899.45
927.7907	1957.3074	5761	4873.65
927.929	1958.9139	5741.45	4854.4
928.0673	1960.5197	5732.75	4843.1
928.2055	1962.1247	5717.3	4828.85
928.3438	1963.729	5679.35	4793.35
928.482	1965.3325	5667.45	4774.2
928.6202	1966.9353	5660.4	4775.6
928.7584	1968.5374	5639.35	4750.1
928.8965	1970.1387	5626.65	4740.1
929.0346	1971.7393	5625.15	4737.25
929.1727	1973.3392	5604.7	4720.75
929.3108	1974.9383	5567.5	4681.65
929.4489	1976.5366	5560.45	4676.85
929.5869	1978.1342	5531.7	4647.7
929.7249	1979.7311	5527.35	4642.2
929.8629	1981.3273	5520.8	4635.55
930.0009	1982.9227	5500.95	4614.15
930.1388	1984.5173	5481.1	4598.4
930.2767	1986.1112	5447.15	4564.85
930.4146	1987.7044	5435.1	4550.7
930.5525	1989.2968	5435.95	4548
930.6904	1990.8885	5410.35	4521.8
930.8282	1992.4795	5378.5	4494.75
930.966	1994.0697	5380.75	4498.05
931.1038	1995.6592	5368.9	4487.35
931.2415	1997.2479	5350.3	4464.95
931.3793	1998.8359	5341.5	4458.6
931.517	2000.4232	5319.8	4439.9
931.6547	2002.0097	5287.15	4409.25
931.7923	2003.5955	5291	4411.65
931.93	2005.1805	5290.35	4406.5
932.0676	2006.7648	5255	4376.45
932.2052	2008.3484	5260.65	4377.05
932.3427	2009.9312	5270.4	4391.2
932.4803	2011.5133	5226.9	4349.15
932.6178	2013.0946	5220.4	4340
932.7553	2014.6752	5215.45	4336.2
932.8928	2016.2551	5202.1	4319.7
933.0302	2017.8342	5168.2	4286.75
933.1676	2019.4126	5153.5	4273.85
933.305	2020.9902	5147.45	4271.1
933.4424	2022.5672	5130.2	4251.6
933.5798	2024.1433	5122.6	4239.6
933.7171	2025.7188	5103.85	4230
933.8544	2027.2935	5080.9	4202.3
933.9917	2028.8674	5065.2	4186.75
934.129	2030.4406	5070.25	4195.25
934.2662	2032.0131	5026.15	4151.7
934.4034	2033.5849	5024.7	4142.8
934.5406	2035.1559	5021.4	4144.4
934.6778	2036.7261	5014.15	4134.9
934.8149	2038.2957	4995.55	4111.5
934.952	2039.8645	4986.4	4102.95
935.0891	2041.4325	5000.55	4115.05
935.2262	2042.9998	4960.25	4079.8
935.3632	2044.5664	4947.35	4065.95
935.5002	2046.1323	4937.65	4062
935.6372	2047.6974	4930.75	4053.25
935.7742	2049.2617	4915.9	4039.85
935.9111	2050.8254	4941.65	4027.4
936.048	2052.3883	4919.15	4037.3
936.1849	2053.9504	4898.65	4016.35
936.3218	2055.5118	4897.25	4014.3
936.4586	2057.0725	4856.05	3972.4
936.5955	2058.6325	4846.35	3967.1
936.7323	2060.1917	4847.65	3967
936.869	2061.7502	4844.1	3963.05
937.0058	2063.3079	4809.75	3933.2
937.1425	2064.8649	4793.65	3911.55
937.2792	2066.4212	4799.8	3919.85
937.4159	2067.9767	4778	3898.3
937.5525	2069.5315	4750.6	3871.45
937.6891	2071.0856	4736.6	3858.1
937.8257	2072.6389	4732.65	3854.3
937.9623	2074.1915	4713.7	3836
938.0989	2075.7433	4687.05	3808.4
938.2354	2077.2945	4699.9	3822
938.3719	2078.8448	4664.8	3782.75
938.5084	2080.3945	4660	3774.8
938.6448	2081.9434	4645.6	3763.65
938.7812	2083.4916	4631.35	3747.25
938.9176	2085.039	4611.35	3722.45
939.054	2086.5857	4615.45	3725.5
939.1903	2088.1317	4611.05	3721.8
939.3267	2089.677	4605.85	3717.3
939.463	2091.2215	4585.2	3695.2
939.5992	2092.7652	4588.65	3698.05
939.7355	2094.3083	4553.35	3664.4
939.8717	2095.8506	4551.35	3666.25
940.0079	2097.3921	4541.95	3659.65
940.1441	2098.933	4541.65	3657.1
940.2802	2100.4731	4527.95	3642.75
940.4163	2102.0124	4536	3642.25
940.5524	2103.5511	4521.5	3636.5
940.6885	2105.089	4505.3	3617.4
940.8245	2106.6261	4509.95	3625.75
940.9606	2108.1626	4465.25	3580.75
941.0965	2109.6983	4523.25	3611.75
941.2325	2111.2332	4462.7	3577.65
941.3684	2112.7675	4450.7	3562.6
941.5044	2114.301	4444.3	3556.8
941.6403	2115.8337	4434.75	3548.55
941.7761	2117.3657	4415.4	3531.2
941.912	2118.897	4426.55	3541.1
942.0478	2120.4276	4392.15	3501.75
942.1835	2121.9575	4387.55	3500.3
942.3193	2123.4866	4383.5	3483.2
942.455	2125.0149	4382.1	3494.85
942.5907	2126.5426	4351.15	3467.75
942.7264	2128.0695	4337.45	3453.75
942.8621	2129.5956	4325.85	3446.65
942.9977	2131.1211	4326.1	3442.05
943.1333	2132.6458	4309.9	3427.2
943.2689	2134.1698	4304.75	3417.05
943.4044	2135.693	4314.2	3423.4
943.54	2137.2155	4298.9	3409.3
943.6755	2138.7373	4297.5	3410.05
943.8109	2140.2584	4257.95	3376.05
943.9464	2141.7787	4244.75	3359
944.0818	2143.2983	4254.45	3377.65
944.2172	2144.8171	4210.15	3332.5
944.3526	2146.3353	4221.5	3339.55
944.4879	2147.8527	4191.25	3310.2
944.6232	2149.3693	4208.75	3324.8
944.7585	2150.8853	4198.9	3312.25
944.8938	2152.4005	4175.55	3286.4
945.029	2153.9149	4193.6	3307.1
945.1642	2155.4287	4166.1	3280.1
945.2994	2156.9417	4163.5	3276.4
945.4346	2158.454	4140.1	3254.85
945.5697	2159.9655	4128.35	3248.55
945.7048	2161.4764	4128.7	3245.55
945.8399	2162.9865	4126.1	3243.75
945.9749	2164.4958	4108.9	3224.05
946.1099	2166.0045	4098.85	3215.8
946.2449	2167.5124	4092.75	3210.6
946.3799	2169.0195	4087.4	3202.6
946.5148	2170.526	4067.55	3180.55
946.6498	2172.0317	4063.25	3177.55
946.7846	2173.5367	4042.8	3157.55
946.9195	2175.0409	4041.3	3156.8
947.0543	2176.5445	4040.95	3155.65
947.1891	2178.0473	4025.6	3138.35
947.3239	2179.5494	4016.3	3126.6
947.4587	2181.0507	3992.5	3108.05
947.5934	2182.5513	3996.2	3112.3
947.7281	2184.0512	3991.8	3106.5
947.8628	2185.5504	3977.7	3091.4
947.9974	2187.0488	3955.4	3073.05
948.132	2188.5465	3944.2	3064.1
948.2666	2190.0435	3943.55	3058.85
948.4012	2191.5397	3936.75	3051.95
948.5357	2193.0353	3925.75	3040.45
948.6702	2194.5301	3903.45	3016.15
948.8047	2196.0241	3892.95	3003.9
948.9392	2197.5175	3876.65	2986.6
949.0736	2199.0101	3891.6	2997.8
949.208	2200.502	3853.8	2967.75
949.3424	2201.9931	3857.55	2975.25
949.4767	2203.4835	3846.3	2963.85
949.611	2204.9733	3824.05	2937.15
949.7453	2206.4622	3823.2	2942.45
949.8796	2207.9505	3807.75	2922.7
950.0138	2209.438	3790.7	2910.4
950.148	2210.9248	3789.6	2906.45
950.2822	2212.4109	3780.75	2898.25
950.4164	2213.8962	3769.45	2880.5
950.5505	2215.3809	3782.5	2892.65
950.6846	2216.8648	3771.85	2880.55
950.8186	2218.3479	3761.25	2866.4
950.9527	2219.8304	3739	2843.35
951.0867	2221.3121	3738.5	2846.6
951.2207	2222.7931	3704.8	2815.05
951.3546	2224.2733	3702.7	2815.15
951.4886	2225.7529	3687.25	2800.45
951.6225	2227.2317	3683.2	2797.05
951.7563	2228.7098	3686	2802.9
951.8902	2230.1872	3669.1	2788
952.024	2231.6638	3653.2	2770.15
952.1578	2233.1397	3644.5	2759.65
952.2916	2234.6149	3628.7	2748.1
952.4253	2236.0894	3632.45	2746.75
952.559	2237.5632	3630.15	2737.15
952.6927	2239.0362	3608	2724.8
952.8263	2240.5085	3597.4	2713.25
952.9599	2241.9801	3579.1	2691.6
953.0935	2243.4509	3589.15	2700.55
953.2271	2244.921	3560.45	2673.55
953.3606	2246.3904	3554.75	2662.65
953.4941	2247.8591	3574.1	2687.2
953.6276	2249.3271	3560.75	2674.35
953.7611	2250.7943	3526.55	2638.35
953.8945	2252.2608	3525.95	2637.4
954.0279	2253.7266	3515.2	2628.2
954.1612	2255.1917	3500.75	2612.5
954.2946	2256.656	3490.55	2606.7
954.4279	2258.1197	3468.65	2585.5
954.5612	2259.5826	3476.55	2590.25
954.6944	2261.0447	3471.15	2585.1
954.8276	2262.5062	3470.8	2582.15
954.9608	2263.9669	3460.15	2572.5
955.094	2265.4269	3469.8	2584.25
955.2271	2266.8862	3447.8	2562.05
955.3602	2268.3448	3437.5	2552.8
955.4933	2269.8026	3440.35	2555
955.6264	2271.2598	3419.2	2536.7
955.7594	2272.7162	3417.95	2534.6
955.8924	2274.1719	3413.5	2525.9
956.0253	2275.6268	3400.45	2513.55
956.1583	2277.0811	3393.15	2506.15
956.2912	2278.5346	3383.85	2499.85
956.4241	2279.9874	3378.4	2494.6
956.5569	2281.4395	3375.5	2491.8
956.6897	2282.8908	3373	2482.45
956.8225	2284.3414	3388	2499.9
956.9553	2285.7914	3353.85	2468.75
957.088	2287.2406	3347	2458.7
957.2207	2288.689	3338.55	2448.85
957.3534	2290.1368	3331.8	2440.45
957.486	2291.5838	3332.8	2440.15
957.6186	2293.0302	3325.6	2434.05
957.7512	2294.4758	3299.9	2408.9
957.8838	2295.9206	3302	2414.6
958.0163	2297.3648	3287	2401
958.1488	2298.8082	3296.4	2409.85
958.2813	2300.251	3280.2	2388.7
958.4137	2301.693	3265.7	2373.4
958.5461	2303.1343	3273.7	2383.2
958.6785	2304.5748	3261.15	2374.35
958.8108	2306.0147	3243.85	2360.65
958.9432	2307.4538	3242.6	2356.9
959.0754	2308.8922	3224.4	2343.65
959.2077	2310.3299	3222.4	2337.5
959.3399	2311.7669	3214.2	2331.85
959.4721	2313.2031	3219.25	2333.95
959.6043	2314.6387	3206.35	2319.85
959.7365	2316.0735	3189.5	2303.95
959.8686	2317.5076	3189.65	2299.8
960.0006	2318.941	3182.1	2293.1
960.1327	2320.3737	3174.55	2284.8
960.2647	2321.8056	3166.5	2276.3
960.3967	2323.2369	3154.45	2265.45
960.5287	2324.6674	3155.25	2266.3
960.6606	2326.0972	3130.45	2242.35
960.7925	2327.5263	3132.5	2247.65
960.9244	2328.9547	3128.55	2241.7
961.0562	2330.3823	3128.35	2239.2
961.1881	2331.8092	3130.05	2235.65
961.3198	2333.2355	3113.9	2226.85
961.4516	2334.661	3127.65	2238.9
961.5833	2336.0858	3105.05	2214.8
961.715	2337.5098	3088.4	2198.2
961.8467	2338.9332	3082.95	2198.15
961.9783	2340.3558	3073.35	2184.15
962.1099	2341.7778	3064	2179.25
962.2415	2343.199	3063.45	2176.8
962.373	2344.6195	3065.65	2180.65
962.5045	2346.0393	3047.85	2161.85
962.636	2347.4583	3050.35	2163.7
962.7675	2348.8767	3051.75	2162.3
962.8989	2350.2943	3054.2	2164.7
963.0303	2351.7113	3046.5	2154.7
963.1617	2353.1275	3029.4	2137.25
963.293	2354.543	3019.75	2121
963.4243	2355.9578	3018.4	2128
963.5556	2357.3718	3001.85	2117.9
963.6868	2358.7852	3000.25	2114.9
963.818	2360.1978	2995.4	2110.5
963.9492	2361.6098	2976	2090.75
964.0803	2363.021	2969.85	2079.8
964.2114	2364.4315	2974.35	2087.45
964.3425	2365.8413	2968.2	2082.75
964.4736	2367.2504	2952.7	2067.45
964.6046	2368.6587	2942.25	2057.25
964.7356	2370.0664	2937.1	2052.3
964.8666	2371.4733	2918.8	2033.65
964.9975	2372.8795	2919.15	2033.95
965.1284	2374.285	2908.15	2022.35
965.2593	2375.6899	2899.85	2014.65
965.3901	2377.0939	2901.65	2018.8
965.5209	2378.4973	2883.4	2001.4
965.6517	2379.9	2875.65	1993.3
965.7825	2381.3019	2874.5	1993.7
965.9132	2382.7032	2871.05	1989.45
966.0439	2384.1037	2869.25	1988.9
966.1745	2385.5035	2858.15	1973.4
966.3051	2386.9027	2847.5	1965.2
966.4357	2388.3011	2837.35	1951.65
966.5663	2389.6987	2833.05	1950.05
966.6968	2391.0957	2819.35	1936.75
966.8273	2392.492	2810.2	1929.4
966.9578	2393.8876	2804.85	1921.55
967.0882	2395.2824	2800.75	1920.65
967.2186	2396.6765	2805.1	1921.75
967.349	2398.07	2787.45	1905.45
967.4793	2399.4627	2787.65	1901.9
967.6097	2400.8547	2789.15	1904.15
967.7399	2402.246	2768.4	1880.2
967.8702	2403.6366	2757.35	1875.5
968.0004	2405.0265	2750.5	1870.45
968.1306	2406.4156	2750.1	1864.2
968.2607	2407.8041	2737.15	1853
968.3909	2409.1918	2740.35	1855.1
968.521	2410.5789	2733.7	1849.65
968.651	2411.9652	2720.4	1834.7
968.781	2413.3508	2708	1822.3
968.911	2414.7358	2698.2	1813.95
969.041	2416.12	2706.95	1823.55
969.1709	2417.5035	2709.45	1824.85
969.3008	2418.8863	2703.2	1818.85
969.4307	2420.2684	2686.65	1802.65
969.5606	2421.6497	2677.35	1794.25
969.6904	2423.0304	2652.55	1769.15
969.8201	2424.4104	2667	1785.45
969.9499	2425.7896	2644.4	1760.35
970.0796	2427.1682	2643.8	1760.95
970.2093	2428.546	2644.45	1761.5
970.3389	2429.9232	2648.2	1763.7
970.4685	2431.2996	2627.15	1742.2
970.5981	2432.6753	2620.25	1734.75
970.7277	2434.0503	2626.75	1742.55
970.8572	2435.4246	2609	1727.8
970.9867	2436.7982	2600.45	1714.45
971.1161	2438.1711	2602.55	1718.45
971.2456	2439.5433	2594.95	1709.85
971.375	2440.9148	2593.6	1705.45
971.5043	2442.2856	2581.75	1700.95
971.6336	2443.6557	2573.1	1686.9
971.7629	2445.025	2567.15	1682.75
971.8922	2446.3937	2570.5	1684.55
972.0214	2447.7617	2559.35	1675.35
972.1506	2449.1289	2556.4	1672.45
972.2798	2450.4955	2553.15	1664.75
972.4089	2451.8613	2541.9	1658.6
972.538	2453.2265	2540.9	1658.3
972.6671	2454.5909	2540.7	1655.55
972.7961	2455.9546	2542.6	1659.6
972.9251	2457.3177	2530	1646.4
973.0541	2458.68	2530.6	1645.3
973.1831	2460.0416	2535.25	1650.45
973.312	2461.4025	2531.05	1647.15
973.4408	2462.7627	2515.1	1620.45
973.5697	2464.1222	2505.6	1623.85
973.6985	2465.4811	2501.2	1617.85
973.8273	2466.8392	2496.5	1612.15
973.956	2468.1966	2489.35	1601.6
974.0847	2469.5533	2493.9	1607.15
974.2134	2470.9093	2490.4	1603.8
974.3421	2472.2645	2478.35	1593.5
974.4707	2473.6191	2486.8	1604
974.5993	2474.973	2468.2	1584.85
974.7278	2476.3262	2466.3	1579.5
974.8563	2477.6787	2468.3	1585.65
974.9848	2479.0305	2456.15	1571.85
975.1132	2480.3816	2452.2	1566.6
975.2417	2481.7319	2448.75	1564.9
975.37	2483.0816	2430.7	1544.1
975.4984	2484.4306	2441.1	1555.6
975.6267	2485.7789	2409.25	1528.55
975.755	2487.1264	2408.1	1523.7
975.8833	2488.4733	2405.9	1524
976.0115	2489.8195	2418.2	1527.9
976.1397	2491.165	2396.6	1508.3
976.2678	2492.5097	2389.1	1506.8
976.3959	2493.8538	2392.6	1510.3
976.524	2495.1972	2376.7	1493.1
976.6521	2496.5398	2376.95	1490.55
976.7801	2497.8818	2373.9	1488.05
976.9081	2499.2231	2361.55	1478.15
977.036	2500.5637	2364.35	1476
977.164	2501.9035	2358.8	1473.6
977.2918	2503.2427	2367.95	1478.7
977.4197	2504.5812	2346.6	1463.45
977.5475	2505.919	2349.2	1461.35
977.6753	2507.256	2347.9	1464.85
977.8031	2508.5924	2343.7	1460.8
977.9308	2509.9281	2330.25	1441
978.0585	2511.2631	2332	1447.55
978.1861	2512.5974	2323.05	1438.8
978.3137	2513.9309	2313.25	1430.2
978.4413	2515.2638	2332.85	1422.25
978.5689	2516.596	2316.8	1433.15
978.6964	2517.9275	2296.05	1409.9
978.8239	2519.2583	2295.4	1410.2
978.9513	2520.5884	2290.85	1406.2
979.0788	2521.9178	2281.15	1397.05
979.2062	2523.2465	2279.65	1396.25
979.3335	2524.5745	2272.55	1390.85
979.4608	2525.9018	2280.8	1395.15
979.5881	2527.2284	2270.7	1387.5
979.7154	2528.5543	2269.65	1386.85
979.8426	2529.8796	2254.9	1372.7
979.9698	2531.2041	2253.8	1370.75
980.0969	2532.5279	2249.2	1365.95
980.224	2533.851	2252.9	1370.1
980.3511	2535.1735	2235.3	1351.55
980.4781	2536.4952	2251.8	1363.9
980.6052	2537.8163	2247.05	1359.95
980.7321	2539.1366	2236.65	1352.15
980.8591	2540.4562	2232.2	1346.2
980.986	2541.7752	2231.8	1349.2
981.1129	2543.0935	2234.45	1349.3
981.2397	2544.411	2224.35	1339.9
981.3665	2545.7279	2212.1	1326.4
981.4933	2547.0441	2224.15	1338.3
981.62	2548.3596	2229.85	1341.45
981.7467	2549.6744	2220.55	1333.15
981.8734	2550.9885	2215.6	1327.65
982.0001	2552.3019	2208.05	1325.2
982.1267	2553.6146	2201.55	1315.6
982.2532	2554.9266	2200.35	1315.65
982.3798	2556.2379	2197.5	1309.75
982.5063	2557.5485	2194.5	1309.4
982.6327	2558.8585	2194.25	1302.4
982.7592	2560.1677	2187.4	1299
982.8856	2561.4762	2190.5	1306.15
983.0119	2562.7841	2186.95	1298.6
983.1383	2564.0913	2171.4	1287.55
983.2646	2565.3977	2171.75	1286.25
983.3908	2566.7035	2168.25	1284.1
983.517	2568.0086	2163.85	1278.45
983.6432	2569.313	2156.85	1270.85
983.7694	2570.6167	2146.35	1254.35
983.8955	2571.9197	2157.65	1273.9
984.0216	2573.222	2171.4	1282.9
984.1476	2574.5236	2156.6	1273.75
984.2737	2575.8246	2149.25	1262.2
984.3996	2577.1248	2152.5	1265
984.5256	2578.4244	2145.1	1260.6
984.6515	2579.7232	2146.25	1260.9
984.7774	2581.0214	2166.65	1255.25
984.9032	2582.3189	2140.05	1255.5
985.029	2583.6157	2147.5	1258.7
985.1548	2584.9118	2132.6	1247.3
985.2806	2586.2072	2126.75	1243
985.4063	2587.5019	2129.9	1246.1
985.5319	2588.7959	2127.4	1242.1
985.6576	2590.0893	2128.55	1242.35
985.7832	2591.3819	2120.95	1238.7
985.9087	2592.6739	2113.65	1230.9
986.0343	2593.9652	2113.55	1225.55
986.1597	2595.2557	2121.45	1237.2
986.2852	2596.5456	2118.8	1231.15
986.4106	2597.8348	2108.05	1222.95
986.536	2599.1234	2108.15	1223.8
986.6614	2600.4112	2115.55	1230.65
986.7867	2601.6983	2103.65	1215.75
986.912	2602.9848	2109.15	1224.9
987.0372	2604.2705	2102.3	1207.3
987.1624	2605.5556	2094.1	1209.15
987.2876	2606.84	2093.2	1208.2
987.4128	2608.1237	2091.9	1206.7
987.5379	2609.4067	2081.5	1196.45
987.6629	2610.689	2091.4	1199.7
987.788	2611.9707	2082.75	1194.9
987.913	2613.2516	2077.5	1188.65
988.0379	2614.5319	2066.15	1182.15
988.1629	2615.8115	2061.25	1175.65
988.2878	2617.0903	2044.7	1157.7
988.4126	2618.3685	2049.3	1164.8
988.5375	2619.6461	2041.75	1158.65
988.6622	2620.9229	2033.15	1152.35
988.787	2622.199	2044.15	1158.5
988.9117	2623.4745	2032.75	1149.15
989.0364	2624.7493	2028.9	1147.75
989.161	2626.0234	2019.15	1131.4
989.2857	2627.2968	2020.65	1137
989.4102	2628.5695	2027	1140.1
989.5348	2629.8415	2026.7	1145.95
989.6593	2631.1128	2019.8	1134.45
989.7837	2632.3835	2015	1130.75
989.9082	2633.6535	2003.45	1120.4
990.0326	2634.9228	2008.95	1124
990.1569	2636.1914	2011.2	1126.6
990.2812	2637.4593	2008.8	1122.85
990.4055	2638.7265	2000.25	1114.4
990.5298	2639.9931	1998.15	1113.45
990.654	2641.259	2008.35	1122.4
990.7782	2642.5242	1989.85	1106.05
990.9023	2643.7887	1978.05	1092.8
991.0264	2645.0525	1992.05	1108.35
991.1505	2646.3156	1991.3	1106.1
991.2745	2647.5781	1978.65	1095.5
991.3985	2648.8398	1971.85	1089.3
991.5225	2650.1009	1968.35	1073.85
991.6464	2651.3613	1966.8	1084
991.7703	2652.6211	1958.95	1074.8
991.8942	2653.8801	1966.7	1080.5
992.018	2655.1385	1956.1	1070
992.1418	2656.3961	1950.5	1067.8
992.2655	2657.6531	1959.6	1077.15
992.3892	2658.9094	1952.6	1070.15
992.5129	2660.1651	1950.65	1066.75
992.6366	2661.42	1946.75	1061.4
992.7602	2662.6743	1951.65	1065.3
992.8837	2663.9279	1952.4	1068.85
993.0073	2665.1808	1955.25	1070.15
993.1307	2666.433	1950.35	1068.15
993.2542	2667.6846	1937.65	1053.85
993.3776	2668.9354	1942.4	1055.1
993.501	2670.1856	1945.3	1060.9
993.6244	2671.4351	1941.55	1058.35
993.7477	2672.6839	1941.55	1055.25
993.8709	2673.9321	1939.2	1058
993.9942	2675.1795	1944.35	1060.25
994.1174	2676.4263	1934.2	1051.2
994.2405	2677.6724	1943.2	1062.8
994.3637	2678.9179	1955.55	1072.85
994.4868	2680.1626	1944.45	1060.05
994.6098	2681.4067	1946.35	1062.55
994.7328	2682.6501	1935.9	1052.85
994.8558	2683.8928	1937.55	1052.85
994.9788	2685.1348	1923.4	1040.9
995.1017	2686.3761	1922.85	1039.05
995.2245	2687.6168	1922.7	1040.9
995.3474	2688.8568	1917.05	1035.7
995.4702	2690.0961	1901.75	1020.05
995.5929	2691.3348	1898.45	1015.25
995.7156	2692.5727	1896.3	1013.2
995.8383	2693.81	1890.3	1007.4
995.961	2695.0466	1883.25	1001
996.0836	2696.2826	1883.25	997.25
996.2062	2697.5178	1882.05	993.9
996.3287	2698.7524	1877.3	996.05
996.4512	2699.9863	1883.65	1000.35
996.5737	2701.2195	1885.45	1003.75
996.6961	2702.452	1886.55	1001.3
996.8185	2703.6839	1887.3	1004.1
996.9408	2704.9151	1885.1	1001.9
997.0631	2706.1456	1888.95	1005.55
997.1854	2707.3755	1893.2	1007.95
997.3077	2708.6046	1904.25	1018.3
997.4299	2709.8331	1904.45	1020.85
997.552	2711.0609	1905.85	1021.05
997.6742	2712.2881	1908.95	1024.75
997.7963	2713.5145	1919.15	1034.7
997.9183	2714.7403	1927.55	1044.85
998.0403	2715.9654	1931.9	1048.4
998.1623	2717.1899	1958.35	1060.5
998.2842	2718.4136	1954.15	1070.85
998.4062	2719.6367	1962.15	1077.1
998.528	2720.8591	1975.05	1086.5
998.6498	2722.0809	1986.3	1105.6
998.7716	2723.3019	1976.8	1091.5
998.8934	2724.5223	1985.8	1104.15
999.0151	2725.7421	2003.55	1119.1
999.1368	2726.9611	1992.55	1109.45
999.2584	2728.1795	1995	1106.2
999.38	2729.3972	1994.75	1111.5
999.5016	2730.6142	1989.1	1091.3
999.6231	2731.8306	1951	1065.6
999.7446	2733.0462	1937.3	1053.7
999.8661	2734.2612	1923.25	1035.65
999.9875	2735.4756	1906.25	1020.2
1000.1089	2736.6892	1891.85	1010
1000.2302	2737.9022	1858.65	976.8
1000.3515	2739.1145	1851.6	967.9
1000.4728	2740.3262	1847.95	957.6
1000.594	2741.5372	1832.85	951.2
1000.7152	2742.7475	1814.65	932.3
1000.8363	2743.9571	1814.2	928.6
1000.9575	2745.1661	1811.65	924.95
1001.0785	2746.3744	1779.3	896.45
1001.1996	2747.582	1777.45	893.95
1001.3206	2748.7889	1766.4	881.5
1001.4415	2749.9952	1765.2	884.3
1001.5625	2751.2008	1752.15	867.6
1001.6833	2752.4057	1751.95	867.6
1001.8042	2753.61	1744.85	861.15
1001.925	2754.8136	1743.75	859.75
1002.0458	2756.0165	1744.25	862.55
1002.1665	2757.2188	1728.9	847.7
1002.2872	2758.4204	1728.15	846.1
1002.4078	2759.6213	1728.95	844.6
1002.5285	2760.8215	1725.65	840.9
1002.649	2762.0211	1728.85	844.15
1002.7696	2763.22	1728.15	843.5
1002.8901	2764.4182	1716.9	832.35
1003.0106	2765.6158	1714.1	832.45
1003.131	2766.8127	1712.3	829
1003.2514	2768.009	1701.2	820.4
1003.3717	2769.2045	1701.3	818.6
1003.492	2770.3994	1699.35	815.05
1003.6123	2771.5936	1694.75	814.2
1003.7325	2772.7872	1686.05	805.8
1003.8527	2773.9801	1677.7	794.15
1003.9729	2775.1723	1698.4	802.4
1004.093	2776.3639	1689.8	809.15
1004.2131	2777.5548	1681.1	798.55
1004.3331	2778.745	1679.3	797.85
1004.4531	2779.9346	1668.3	788.4
1004.5731	2781.1235	1684.5	802.3
1004.693	2782.3117	1693.2	811.7
1004.8129	2783.4992	1676.2	796.85
1004.9328	2784.6861	1689.6	807.15
1005.0526	2785.8723	1691.35	807.7
1005.1723	2787.0579	1688	805.2
1005.2921	2788.2428	1692.45	811.15
1005.4118	2789.427	1703.05	823.75
1005.5314	2790.6106	1712.7	830.55
1005.651	2791.7935	1719.6	836.85
1005.7706	2792.9757	1726.05	844.85
1005.8902	2794.1573	1741.95	859.15
1006.0097	2795.3382	1745.05	862
1006.1291	2796.5184	1759.2	876.75
1006.2485	2797.698	1765.9	884.9
1006.3679	2798.8769	1793.05	913.5
1006.4873	2800.0551	1794	911.9
1006.6066	2801.2327	1811.05	929.85
1006.7258	2802.4096	1827.5	945.05
1006.8451	2803.5859	1842.25	960
1006.9642	2804.7615	1861.05	978.6
1007.0834	2805.9364	1884.5	1005.25
1007.2025	2807.1106	1906.75	1026.1
1007.3216	2808.2842	1926.85	1044
1007.4406	2809.4572	1959.1	1078.5
1007.5596	2810.6294	1994.45	1111.5
1007.6785	2811.801	2031.8	1152.1
1007.7975	2812.972	2070.05	1187.7
1007.9163	2814.1423	2118.7	1238.9
1008.0352	2815.3119	2160.1	1280.1
1008.154	2816.4808	2195.2	1314.4
1008.2727	2817.6491	2245	1364.5
1008.3914	2818.8167	2302.7	1423.15
1008.5101	2819.9837	2337.95	1449.6
1008.6288	2821.15	2398.4	1517.2
1008.7474	2822.3157	2449.6	1568.85
1008.8659	2823.4807	2497.55	1617.15
1008.9844	2824.645	2526.65	1646.4
1009.1029	2825.8086	2576.55	1695.25
1009.2214	2826.9716	2610.75	1730.5
1009.3398	2828.134	2655.4	1775.65
1009.4581	2829.2957	2712.35	1829.9
1009.5764	2830.4567	2732.15	1853.05
1009.6947	2831.617	2748.6	1867
1009.813	2832.7767	2762.95	1883.5
1009.9312	2833.9358	2766.3	1884.85
1010.0493	2835.0941	2758	1874.85
1010.1675	2836.2519	2744.85	1865
1010.2855	2837.4089	2740.3	1859.45
1010.4036	2838.5653	2729.4	1850.3
1010.5216	2839.7211	2723.95	1843.2
1010.6396	2840.8761	2730.1	1849.5
1010.7575	2842.0306	2752.4	1874.75
1010.8754	2843.1843	2775.2	1894.8
1010.9932	2844.3374	2828.65	1949.6
1011.111	2845.4899	2876.1	1992.9
1011.2288	2846.6417	2935	2055.8
1011.3465	2847.7928	3006.8	2129.25
1011.4642	2848.9433	3080.85	2199.5
1011.5818	2850.0931	3152.05	2271.75
1011.6995	2851.2422	3239.5	2356.75
1011.817	2852.3907	3300.55	2420.85
1011.9345	2853.5385	3343.15	2460.7
1012.052	2854.6857	3410.15	2501.9
1012.1695	2855.8323	3448.6	2570.2
1012.2869	2856.9781	3510.5	2629.4
1012.4042	2858.1233	3545.85	2668.05
1012.5216	2859.2679	3592.8	2713.7
1012.6389	2860.4118	3648.95	2768.25
1012.7561	2861.555	3690.2	2803.3
1012.8733	2862.6976	3728.4	2845.85
1012.9905	2863.8395	3746.75	2867.25
1013.1076	2864.9808	3776.8	2898.8
1013.2247	2866.1214	3793.95	2915.9
1013.3417	2867.2614	3811.2	2930.6
1013.4587	2868.4007	3830.45	2946.55
1013.5757	2869.5393	3820.15	2939.5
1013.6926	2870.6773	3828.1	2946.7
1013.8095	2871.8146	3859.4	2976
1013.9263	2872.9513	3857.15	2975.75
1014.0431	2874.0874	3853.75	2973.9
1014.1599	2875.2227	3825.2	2944.1
1014.2766	2876.3574	3806.85	2927.25
1014.3933	2877.4915	3791.1	2911.5
1014.51	2878.6249	3766.6	2886.3
1014.6266	2879.7577	3752.45	2871.5
1014.7431	2880.8898	3721.25	2830.85
1014.8596	2882.0212	3704.1	2825.65
1014.9761	2883.152	3683.5	2803.5
1015.0925	2884.2821	3688.25	2809.1
1015.2089	2885.4116	3680.55	2800.65
1015.3253	2886.5405	3672.5	2791.8
1015.4416	2887.6686	3673.4	2790.5
1015.5579	2888.7962	3675.9	2797
1015.6741	2889.923	3672	2792.85
1015.7903	2891.0493	3700.65	2823.15
1015.9065	2892.1748	3696.8	2818.15
1016.0226	2893.2997	3715.1	2835.9
1016.1387	2894.424	3735.15	2857.45
1016.2547	2895.5476	3759	2879.3
1016.3707	2896.6706	3776.9	2900.15
1016.4866	2897.7929	3796.6	2916.45
1016.6025	2898.9145	3834.5	2955.2
1016.7184	2900.0355	3856.9	2978.85
1016.8342	2901.1559	3885.3	3004.8
1016.95	2902.2756	3917.25	3038.35
1017.0658	2903.3946	3958.8	3079.65
1017.1815	2904.513	3973.95	3092.85
1017.2971	2905.6308	3991.4	3111.8
1017.4127	2906.7479	4010.9	3131.7
1017.5283	2907.8643	4029.75	3149.55
1017.6439	2908.9801	4058.4	3177.95
1017.7594	2910.0953	4062.55	3185.85
1017.8748	2911.2098	4063.75	3180.3
1017.9902	2912.3236	4074.5	3188.15
1018.1056	2913.4368	4038.85	3155.45
1018.2209	2914.5494	4037.55	3158.45
1018.3362	2915.6613	4010.6	3127.1
1018.4515	2916.7725	3967.55	3086.5
1018.5667	2917.8831	3948.25	3068.95
1018.6819	2918.9931	3910.65	3030.65
1018.797	2920.1024	3877.05	2996.35
1018.9121	2921.211	3863	2982.55
1019.0271	2922.319	3837.15	2957.9
1019.1421	2923.4264	3817.5	2939.45
1019.2571	2924.5331	3809.85	2931.9
1019.372	2925.6391	3791.05	2912.55
1019.4869	2926.7445	3784.35	2906
1019.6017	2927.8493	3787.3	2908.75
1019.7165	2928.9534	3773.45	2893.15
1019.8313	2930.0569	3774	2891.75
1019.946	2931.1597	3783.35	2904
1020.0606	2932.2619	3768.55	2888.45
1020.1753	2933.3634	3760.25	2882.4
1020.2899	2934.4643	3750.05	2863.75
1020.4044	2935.5645	3740.5	2856.45
1020.5189	2936.6641	3703.6	2821.6
1020.6334	2937.763	3659.35	2782.15
1020.7478	2938.8613	3617.65	2738.5
1020.8622	2939.959	3565.65	2681.7
1020.9765	2941.056	3495.2	2616.8
1021.0908	2942.1523	3411.6	2532.65
1021.2051	2943.248	3328.2	2448.8
1021.3193	2944.3431	3231.3	2353.1
1021.4334	2945.4375	3144.95	2265.85
1021.5476	2946.5313	3043.45	2166.55
1021.6617	2947.6244	2929.6	2051.25
1021.7757	2948.7169	2830.85	1951.55
1021.8897	2949.8087	2739.9	1862.75
1022.0037	2950.8999	2654.4	1776.65
1022.1176	2951.9904	2574.1	1696.05
1022.2315	2953.0803	2496.85	1618.45
1022.3453	2954.1696	2435.6	1556.85
1022.4591	2955.2582	2374.75	1496.4
1022.5728	2956.3462	2335.8	1456.55
1022.6865	2957.4335	2294.75	1415.4
1022.8002	2958.5202	2261.15	1379.75
1022.9138	2959.6062	2226.1	1348
1023.0274	2960.6916	2212.35	1333.65
1023.141	2961.7764	2188.55	1307
1023.2545	2962.8605	2169.05	1290.85
1023.3679	2963.9439	2153.1	1275.75
1023.4813	2965.0267	2147.2	1266.95
1023.5947	2966.1089	2157.95	1258.45
1023.708	2967.1905	2138.35	1261.65
1023.8213	2968.2714	2126.85	1248.9
1023.9346	2969.3516	2122.25	1245.75
1024.0478	2970.4312	2136.1	1248.15
1024.1609	2971.5102	2127	1250.7
1024.274	2972.5885	2132.35	1254.7
1024.3871	2973.6662	2130.65	1251.85
1024.5002	2974.7432	2121	1241.9
1024.6132	2975.8196	2114.25	1236.45
1024.7261	2976.8954	2113.7	1237.35
1024.839	2977.9705	2097.35	1218.75
1024.9519	2979.045	2079	1202
1025.0647	2980.1188	2069	1191.45
1025.1775	2981.192	2044.55	1168.9
1025.2902	2982.2645	2033.25	1154.35
1025.4029	2983.3364	2002.75	1124.8
1025.5156	2984.4077	1979.25	1102.8
1025.6282	2985.4783	1958.75	1075.2
1025.7407	2986.5483	1911.75	1034.2
1025.8532	2987.6177	1884.75	1008.1
1025.9657	2988.6864	1840.65	962.25
1026.0782	2989.7545	1808.5	929.1
1026.1906	2990.8219	1774.95	896.25
1026.3029	2991.8887	1757.5	877.65
1026.4152	2992.9548	1718.3	839.75
1026.5275	2994.0204	1676.3	800.8
1026.6397	2995.0852	1657.45	781.25
1026.7519	2996.1495	1632.2	754.7
1026.864	2997.2131	1602.6	724.4
1026.9761	2998.276	1586.6	707.8
1027.0882	2999.3383	1558.4	681.65
1027.2002	3000.4	1533.5	654.05
1027.3122	3001.4611	1526.65	648.9
1027.4241	3002.5215	1511.2	632.4
1027.536	3003.5812	1490.2	611.55
1027.6478	3004.6404	1485.65	608.3
1027.7596	3005.6989	1478.2	599
1027.8714	3006.7567	1462.05	585.25
1027.9831	3007.8139	1483.1	573.05
1028.0947	3008.8705	1445.25	567.75
1028.2064	3009.9264	1444.45	566
1028.3179	3010.9818	1428.25	550.35
1028.4295	3012.0364	1429.65	553
1028.541	3013.0905	1425.85	549.05
1028.6524	3014.1439	1415.3	537.95
1028.7638	3015.1966	1412.95	536.9
1028.8752	3016.2487	1404.65	527.1
1028.9865	3017.3002	1418.25	535
1029.0978	3018.3511	1410	532.7
1029.209	3019.4013	1412.1	534.9
1029.3202	3020.4509	1410.9	534
1029.4314	3021.4998	1404.15	524.65
1029.5425	3022.5481	1407.6	531.2
1029.6535	3023.5958	1402.95	527.5
1029.7645	3024.6428	1409.75	529.55
1029.8755	3025.6892	1406.75	531.2
1029.9864	3026.735	1404.3	526.15
1030.0973	3027.7802	1405.7	529.75
1030.2082	3028.8247	1409.45	533.45
1030.319	3029.8685	1404.9	527.15
1030.4297	3030.9118	1413	536.3
1030.5404	3031.9544	1417.1	540.4
1030.6511	3032.9963	1418.8	542.05
1030.7617	3034.0376	1419.05	542.95
1030.8723	3035.0783	1427.6	547.95
1030.9829	3036.1184	1421.7	542.55
1031.0934	3037.1578	1423.25	548.15
1031.2038	3038.1966	1425.55	547.2
1031.3142	3039.2348	1439.5	563.5
1031.4246	3040.2723	1434.25	548.7
1031.5349	3041.3092	1434.75	559.6
1031.6452	3042.3455	1433.9	557.65
1031.7554	3043.3811	1420.05	543.95
1031.8656	3044.4161	1417.5	538.9
1031.9758	3045.4505	1418.05	542.75
1032.0859	3046.4842	1411.35	535.05
1032.1959	3047.5173	1402.65	528.2
1032.3059	3048.5498	1400.85	523.35
1032.4159	3049.5816	1389.85	510.85
1032.5258	3050.6128	1390.8	511.45
1032.6357	3051.6434	1385.4	507.15
1032.7455	3052.6734	1370.15	491.75
1032.8553	3053.7027	1374.2	499.05
1032.9651	3054.7314	1367.5	492.25
1033.0748	3055.7594	1358.5	482.2
1033.1845	3056.7868	1359.8	483.25
1033.2941	3057.8136	1348.65	471.25
1033.4037	3058.8398	1352.7	476.85
1033.5132	3059.8653	1337.95	461.85
1033.6227	3060.8902	1336.15	458.9
1033.7321	3061.9145	1334.9	457.85
1033.8415	3062.9381	1332.8	457.2
1033.9509	3063.9612	1333	441.15
1034.0602	3064.9835	1319.55	443.95
1034.1694	3066.0053	1312.6	433.75
1034.2787	3067.0264	1305.3	429.95
1034.3878	3068.0469	1302	423.9
1034.497	3069.0668	1301.7	422.6
1034.6061	3070.086	1279.9	403.15
1034.7151	3071.1046	1276.9	400.1
1034.8241	3072.1226	1273.7	398.45
1034.9331	3073.1399	1260.4	385
1035.042	3074.1567	1253.65	377.8
1035.1508	3075.1727	1244.2	367.05
1035.2597	3076.1882	1240.5	366.65
1035.3684	3077.203	1229.65	353.2
1035.4772	3078.2173	1221.4	343.65
1035.5859	3079.2308	1218.35	338.55
1035.6945	3080.2438	1205.8	329.15
1035.8031	3081.2561	1198.65	322.95
1035.9117	3082.2678	1188.7	310.9
1036.0202	3083.2789	1181.35	305.35
1036.1286	3084.2893	1176.8	299.6
1036.2371	3085.2991	1179	304.3
1036.3454	3086.3083	1173.15	294.45
1036.4538	3087.3169	1165.3	289.3
1036.562	3088.3248	1157.25	278.55
1036.6703	3089.3321	1155.85	276.5
1036.7785	3090.3388	1152.05	276.25
1036.8866	3091.3449	1148.45	271.25
1036.9948	3092.3503	1144.15	265.55
1037.1028	3093.3551	1135.65	263.2
1037.2108	3094.3593	1131.1	255.2
1037.3188	3095.3629	1127.7	252.65
1037.4267	3096.3658	1128	252.2
1037.5346	3097.3681	1122.25	246.35
1037.6425	3098.3698	1119	240.3
1037.7503	3099.3708	1124.8	243.45
1037.858	3100.3713	1109.3	233.3
1037.9657	3101.3711	1108.8	232
1038.0734	3102.3702	1244.2	229.2
1038.181	3103.3688	1108.9	231.4
1038.2886	3104.3667	1098.8	224.35
1038.3961	3105.364	1098.5	221.7
1038.5036	3106.3607	1101.8	224.5
1038.611	3107.3568	1097.45	221.7
1038.7184	3108.3522	1095.4	221
1038.8257	3109.347	1096.75	221.3
1038.933	3110.3412	1092.85	214.7
1039.0403	3111.3348	1088	211.7
1039.1475	3112.3277	1083.3	208.75
1039.2547	3113.32	1084.05	209.95
1039.3618	3114.3117	1083.3	205.3
1039.4689	3115.3028	1079.5	205.9
1039.5759	3116.2932	1082.35	203.2
1039.6829	3117.2831	1083.7	203.5
1039.7898	3118.2723	1074.4	198.85
1039.8967	3119.2608	1073.95	197.85
1040.0035	3120.2488	1073.2	198.5
1040.1103	3121.2361	1072.05	195.3
1040.2171	3122.2229	1071.3	195.25
1040.3238	3123.209	1070.25	192.9
1040.4305	3124.1944	1064.1	187.85
1040.5371	3125.1793	1068.45	193.4
1040.6437	3126.1635	1063.45	189.35
1040.7502	3127.1471	1063.85	189.55
1040.8567	3128.1301	1056.3	182.4
1040.9631	3129.1125	1057.35	179.45
1041.0695	3130.0942	1056.5	182
1041.1759	3131.0753	1065.75	182.5
1041.2822	3132.0558	1058	178.7
1041.3884	3133.0357	1056.9	180.45
1041.4946	3134.015	1053.45	178.9
1041.6008	3134.9936	1056.05	179.85
1041.7069	3135.9716	1070.8	176.2
1041.813	3136.949	1048.6	173.5
1041.919	3137.9258	1065.45	171.55
1042.025	3138.902	1053.15	174.25
1042.1309	3139.8775	1045.25	170
1042.2368	3140.8524	1039.85	165.3
1042.3427	3141.8267	1047.5	172.85
1042.4485	3142.8004	1042.3	168.1
1042.5542	3143.7735	1046.1	163.05
1042.6599	3144.7459	1042.1	163.75
1042.7656	3145.7178	1038.5	162.7
1042.8712	3146.689	1034.35	157.9
1042.9768	3147.6596	1038.35	160.3
1043.0823	3148.6295	1031.3	154.05
1043.1878	3149.5989	1036.5	161.2
1043.2932	3150.5676	1027.3	153.65
1043.3986	3151.5357	1032.9	158.9
1043.5039	3152.5032	1030	158.15
1043.6092	3153.4701	1030.1	155.5
1043.7145	3154.4364	1029.4	151.4
1043.8197	3155.402	1024.2	151.25
1043.9248	3156.367	1030.25	153.65
1044.03	3157.3315	1056.1	148.55
1044.135	3158.2952	1023.25	149.05
1044.24	3159.2584	1019.5	144.25
1044.345	3160.221	1019.5	145.25
1044.4499	3161.1829	1016.6	142.2
1044.5548	3162.1442	1020.95	146.25
1044.6596	3163.105	1018.7	143.35
1044.7644	3164.065	1018.1	141.85
1044.8692	3165.0245	1017.45	139.55
1044.9739	3165.9834	1014.6	141.1
1045.0785	3166.9416	1012.3	136.4
1045.1831	3167.8993	1011.9	135.3
1045.2877	3168.8563	1009.15	134.7
1045.3922	3169.8127	1010.7	137.2
1045.4966	3170.7684	1010.6	135.15
1045.6011	3171.7236	1012.45	137.3
1045.7054	3172.6782	1005.75	131.85
1045.8098	3173.6321	1010.85	136.05
1045.914	3174.5854	1009.15	133.1
1046.0183	3175.5381	1005.15	128.7
1046.1224	3176.4902	1004.35	131.55
1046.2266	3177.4417	1002.9	128.7
1046.3307	3178.3926	1002.15	129.5
1046.4347	3179.3428	1002	128.4
1046.5387	3180.2924	1003.85	130.15
1046.6427	3181.2415	1001.65	125.5
1046.7466	3182.1899	1004.8	127.7
1046.8504	3183.1377	998.15	123.25
1046.9542	3184.0848	1002.8	125.1
1047.058	3185.0314	997.1	121.15
1047.1617	3185.9773	998.3	124.1
1047.2654	3186.9227	999.9	125
1047.369	3187.8674	995.85	120.25
1047.4726	3188.8115	997.95	121.45
1047.5761	3189.755	992.45	116.8
1047.6796	3190.6979	991.6	116.3
1047.783	3191.6402	990.3	115.6
1047.8864	3192.5818	993.65	118.5
1047.9898	3193.5229	1015.45	122.35
1048.0931	3194.4633	987.95	116.05
1048.1963	3195.4031	992.15	117.05
1048.2995	3196.3423	991.55	116.55
1048.4027	3197.2809	987.1	110.1
1048.5058	3198.2189	988.2	110.15
1048.6089	3199.1563	994.05	113.5
1048.7119	3200.0931	985.55	111.95
1048.8148	3201.0292	983.3	110.7
1048.9178	3201.9648	983.6	108.5
1049.0206	3202.8997	987.5	110.35
1049.1235	3203.834	984.65	109.95
1049.2262	3204.7677	984	107.75
1049.329	3205.7008	985.75	110.35
1049.4317	3206.6333	982	108.2
1049.5343	3207.5652	982.75	106.2
1049.6369	3208.4964	980.7	106.6
1049.7394	3209.4271	979.85	105.75
1049.8419	3210.3571	979.05	105.95
1049.9444	3211.2865	975.8	100.15
1050.0468	3212.2154	980.25	104.95
1050.1491	3213.1436	980.85	103.9
1050.2514	3214.0712	980.75	98.55
1050.3537	3214.9982	979.8	105.4
1050.4559	3215.9246	979	104.15
1050.5581	3216.8503	978	103.9
1050.6602	3217.7755	976.35	101.25
1050.7623	3218.7001	976.5	102.25
1050.8643	3219.624	974.6	101.6
1050.9663	3220.5473	972.05	96.65
1051.0682	3221.4701	973.95	97.4
1051.1701	3222.3922	975.35	100.8
1051.2719	3223.3137	971.15	97.95
1051.3737	3224.2346	967.35	92.7
1051.4754	3225.1549	970.5	95.8
1051.5771	3226.0746	972.05	97.1
1051.6788	3226.9937	971.65	98.55
1051.7804	3227.9121	966.7	92.7
1051.8819	3228.83	965.65	92.1
1051.9834	3229.7473	967.9	93.7
1052.0849	3230.6639	968.15	93.4
1052.1863	3231.5799	964.7	90.35
1052.2876	3232.4954	966.95	92.9
1052.3889	3233.4102	967.05	93.55
1052.4902	3234.3244	968.15	92.55
1052.5914	3235.238	965.35	90.4
1052.6926	3236.151	987.05	87.65
1052.7937	3237.0634	960.95	87.9
1052.8948	3237.9752	962.25	90.2
1052.9958	3238.8864	964.5	90.25
1053.0968	3239.797	959.6	86.3
1053.1977	3240.7069	957.2	83.65
1053.2986	3241.6163	960.35	85.75
1053.3994	3242.5251	956.8	82.85
1053.5002	3243.4332	959.35	86.9
1053.6009	3244.3408	962.15	88.05
1053.7016	3245.2477	956.45	83.2
1053.8022	3246.154	960	83.8
1053.9028	3247.0598	956.45	83.2
1054.0034	3247.9649	956.15	82.25
1054.1039	3248.8694	957.15	83.15
1054.2043	3249.7733	953.75	78.9
1054.3047	3250.6766	950.8	77.55
1054.4051	3251.5793	954.65	79.45
1054.5054	3252.4814	951.05	76.6
1054.6056	3253.3829	953.35	79.95
1054.7058	3254.2838	950.1	77.1
1054.806	3255.1841	951.35	78.9
1054.9061	3256.0838	948.65	74.5
1055.0061	3256.9829	947.55	75.05
1055.1062	3257.8814	950.45	75.65
1055.2061	3258.7792	951.45	76.7
1055.306	3259.6765	948.25	72.75
1055.4059	3260.5731	946.7	75.5
1055.5057	3261.4692	942.25	67.75
1055.6055	3262.3647	944.7	70.15
1055.7052	3263.2595	945.45	73.6
1055.8049	3264.1538	942.55	69.35
1055.9045	3265.0474	943.1	68.4
1056.0041	3265.9404	942.95	72.6
1056.1036	3266.8329	934.7	62.6
1056.2031	3267.7247	948.05	65.25
1056.3025	3268.616	932.8	61.5
1056.4019	3269.5066	933.35	59.35
1056.5013	3270.3966	935.25	59.05
1056.6005	3271.286	931.55	58.05
