Software Version:	3.9.2.0
Unit SN:	10000200
Spectrometer SN:	6960
Date:	3/8/2024 11:49:16 AM
Data Line Index:	25
Spectral Points:	2048
Integration time (ms):	125
Averages:	20
Delay (ms):	30000
Sequence Number:	1
Processing:	dark subtract
Laser Power (mW):	300
Laser Current (mA):	822
Laser Diode Temp (C):	25.1
Laser Case Temp (C):	25.4
System Temp (C):	25.4
Spectrometer Temp (C):	23.2
CCD Temp (C):	0.008
Secondary Temp (C):	20.01
Heatsink Temp (C):	19.933
CCDPCB Temp (C):	35.518
SecondaryPCB Temp (C):	27.848

Wavelength	RamanShift	Raw Counts	Dark Subtracted
787.061	30.1047	415.9	7.65
787.2016	32.3739	413.3	5.7
787.3422	34.6426	413.7	5.7
787.4828	36.9109	417.1	6.75
787.6235	39.1787	420.8	7.8
787.7642	41.4461	426.2	7.25
787.9049	43.7131	429.65	8.9
788.0456	45.9796	432.2	8.3
788.1863	48.2456	436.2	7.75
788.3271	50.5112	440.4	9.25
788.4679	52.7764	446.3	12.1
788.6087	55.0411	452.15	13.1
788.7496	57.3054	457.5	11.95
788.8904	59.5692	458.7	12.55
789.0313	61.8326	461.6	12.65
789.1722	64.0955	465.15	13.25
789.3132	66.3579	472.75	16.4
789.4541	68.6199	483.2	22.15
789.5951	70.8815	491.6	25.85
789.7361	73.1426	506.65	37.05
789.8771	75.4032	542.4	69.4
790.0181	77.6634	615.25	139.6
790.1592	79.9231	789.65	308.1
790.3003	82.1824	1135.75	645.65
790.4414	84.4412	1719.45	1216.65
790.5825	86.6995	2453.6	1933.55
790.7237	88.9574	3138.25	2601.1
790.8648	91.2148	3614.7	3065.95
791.006	93.4717	3809.9	3255.4
791.1472	95.7282	3828.85	3271.15
791.2885	97.9842	3805.8	3245.75
791.4297	100.2398	3740.25	3177.2
791.571	102.4949	3683.85	3119.15
791.7123	104.7495	3656.9	3088.85
791.8536	107.0036	3607.2	3037.95
791.9949	109.2573	3522.25	2955.05
792.1363	111.5105	3406.9	2835.1
792.2777	113.7632	3314.05	2742.75
792.4191	116.0154	3221.4	2637.35
792.5605	118.2672	3097.1	2521.3
792.7019	120.5185	2976.45	2393.85
792.8434	122.7693	2886.95	2303.65
792.9849	125.0197	2799.25	2209.1
793.1264	127.2696	2727	2136.6
793.2679	129.519	2685.8	2093.45
793.4094	131.7679	2662.65	2067.45
793.551	134.0163	2640	2039.75
793.6926	136.2642	2635.8	2035.7
793.8342	138.5117	2608.45	1995.7
793.9758	140.7587	2578.4	1973.1
794.1175	143.0052	2531	1923.75
794.2591	145.2512	2478.45	1868.2
794.4008	147.4967	2416.95	1806.4
794.5425	149.7417	2381.45	1767.7
794.6842	151.9863	2360.85	1745
794.826	154.2304	2342.95	1720.4
794.9677	156.4739	2341.9	1718.85
795.1095	158.717	2353.95	1727.7
795.2513	160.9596	2380.8	1747.75
795.3931	163.2017	2390.1	1757
795.535	165.4433	2402.15	1768.65
795.6768	167.6844	2390.15	1751.95
795.8187	169.925	2361.5	1721.4
795.9606	172.1651	2307.7	1662.5
796.1025	174.4047	2248.95	1599.75
796.2445	176.6439	2207	1558.7
796.3864	178.8825	2194.5	1541.25
796.5284	181.1206	2182	1526.3
796.6704	183.3582	2165.75	1503.7
796.8124	185.5954	2166.1	1499.15
796.9544	187.832	2160.05	1493.95
797.0965	190.0681	2161.3	1489.45
797.2386	192.3037	2170.75	1499.65
797.3806	194.5388	2173.8	1498.55
797.5228	196.7734	2193.45	1516.9
797.6649	199.0075	2202.05	1520.95
797.807	201.2411	2231.8	1554.15
797.9492	203.4742	2250.65	1570.1
798.0914	205.7068	2276.05	1592.75
798.2336	207.9389	2300.7	1612.9
798.3758	210.1704	2311.75	1630.2
798.518	212.4015	2304.6	1633.4
798.6603	214.632	2309.85	1643.65
798.8025	216.862	2317	1656.2
798.9448	219.0915	2323.15	1656.95
799.0871	221.3205	2332.1	1662.7
799.2294	223.549	2325.5	1663.15
799.3718	225.777	2331.55	1669.7
799.5141	228.0044	2332.9	1661.25
799.6565	230.2314	2321.25	1651.35
799.7989	232.4578	2304.65	1627.15
799.9413	234.6837	2300.85	1615.25
800.0837	236.909	2287.05	1599.75
800.2262	239.1339	2292.75	1579.05
800.3687	241.3582	2275.45	1579.25
800.5111	243.582	2287.7	1555.2
800.6536	245.8053	2306.45	1590.8
800.7961	248.0281	2308.85	1600.8
800.9387	250.2503	2307.25	1597.4
801.0812	252.472	2317.2	1602.15
801.2238	254.6932	2321.9	1610.7
801.3664	256.9139	2334	1618.2
801.509	259.134	2347.9	1630.05
801.6516	261.3536	2372.7	1654.7
801.7942	263.5727	2432.9	1715
801.9369	265.7912	2473.65	1756.85
802.0795	268.0092	2527.75	1808.15
802.2222	270.2267	2590.1	1866.7
802.3649	272.4436	2632.85	1912.35
802.5076	274.6601	2671.35	1938.85
802.6504	276.8759	2689.25	1959.95
802.7931	279.0913	2715.4	1983.5
802.9359	281.3061	2727.45	1995.25
803.0787	283.5204	2756.15	2024.75
803.2215	285.7341	2774.5	2038.75
803.3643	287.9473	2798.75	2060.95
803.5071	290.16	2798.9	2060.4
803.6499	292.3721	2759.35	2024.45
803.7928	294.5837	2715.25	1979.65
803.9357	296.7947	2708.2	1973.4
804.0786	299.0052	2692.2	1958.35
804.2215	301.2152	2675.5	1934.6
804.3644	303.4246	2658.75	1921.55
804.5074	305.6334	2623.35	1885.7
804.6503	307.8418	2615.6	1873.8
804.7933	310.0495	2594.1	1851.15
804.9363	312.2568	2545.55	1806
805.0793	314.4635	2494.9	1746.8
805.2223	316.6696	2448.5	1701
805.3653	318.8752	2401.7	1646.85
805.5084	321.0802	2377	1629.2
805.6514	323.2847	2377.45	1626.75
805.7945	325.4887	2379.1	1628.85
805.9376	327.692	2394.85	1643.5
806.0807	329.8949	2442.6	1689.15
806.2238	332.0972	2484.1	1727.75
806.367	334.2989	2499.45	1744.9
806.5101	336.5001	2494.6	1736.55
806.6533	338.7007	2461.8	1701.3
806.7965	340.9008	2423.9	1664.95
806.9397	343.1003	2368.3	1604.15
807.0829	345.2992	2315.5	1552.3
807.2261	347.4976	2275.15	1509.8
807.3693	349.6955	2247.2	1477.9
807.5126	351.8927	2225.4	1454.8
807.6559	354.0895	2218.7	1437.4
807.7991	356.2856	2205.4	1431.45
807.9424	358.4812	2188.8	1416.95
808.0857	360.6763	2185.15	1410.85
808.2291	362.8707	2193.5	1417.2
808.3724	365.0646	2203.85	1426.45
808.5158	367.258	2211.25	1432.05
808.6591	369.4508	2229.4	1448.35
808.8025	371.643	2261.55	1477.75
808.9459	373.8346	2279.85	1493.25
809.0893	376.0257	2327.75	1539.4
809.2327	378.2162	2326.15	1541.4
809.3762	380.4062	2342	1556.2
809.5196	382.5956	2313.45	1529.7
809.6631	384.7844	2285.75	1504
809.8066	386.9726	2246.15	1462.85
809.9501	389.1603	2204.1	1424.85
810.0936	391.3474	2223.05	1407.8
810.2371	393.5339	2197.1	1416.15
810.3806	395.7199	2200.95	1422.55
810.5241	397.9052	2231.3	1451.7
810.6677	400.09	2272.55	1492.6
810.8113	402.2743	2320.5	1539.15
810.9548	404.4579	2365.55	1583.2
811.0984	406.641	2407.3	1622.1
811.2421	408.8235	2449.2	1662.05
811.3857	411.0054	2503.45	1715.15
811.5293	413.1868	2564.85	1772.9
811.673	415.3675	2608.4	1813.05
811.8166	417.5477	2604.35	1809
811.9603	419.7273	2545.7	1748.05
812.104	421.9064	2468.2	1663.25
812.2477	424.0848	2413.35	1615.55
812.3914	426.2627	2357.3	1556.7
812.5351	428.4399	2287.6	1488.55
812.6788	430.6166	2225.25	1420.85
812.8226	432.7928	2170.05	1364.9
812.9663	434.9683	2142.25	1338.2
813.1101	437.1432	2125.35	1319.8
813.2539	439.3176	2090.8	1286.15
813.3977	441.4914	2078.85	1274.35
813.5415	443.6645	2080.4	1273.75
813.6853	445.8371	2073.6	1269.1
813.8291	448.0091	2081.85	1274.3
813.973	450.1806	2078.2	1273.2
814.1168	452.3514	2066.65	1257.4
814.2607	454.5216	2083.4	1264.95
814.4046	456.6913	2074.45	1261.3
814.5485	458.8603	2065.2	1255.6
814.6924	461.0288	2076.25	1266.55
814.8363	463.1967	2063.45	1257.75
814.9802	465.3639	2078.45	1269.3
815.1241	467.5306	2071.4	1260
815.2681	469.6967	2070.6	1261.55
815.412	471.8622	2052.3	1241.9
815.556	474.0271	2048.05	1237.3
815.7	476.1914	2061.7	1246.6
815.844	478.3551	2045.65	1233.65
815.988	480.5182	2047.9	1235.15
816.132	482.6807	2054.75	1243.65
816.276	484.8426	2061.7	1254.05
816.4201	487.0039	2121.85	1310.45
816.5641	489.1647	2174.6	1359.65
816.7082	491.3248	2227.1	1411.15
816.8522	493.4843	2237.95	1422.15
816.9963	495.6432	2229.25	1414.3
817.1404	497.8015	2187.4	1367.6
817.2845	499.9592	2155.65	1336.65
817.4286	502.1163	2100.85	1277.85
817.5727	504.2728	2057.55	1236.95
817.7168	506.4287	2026.8	1209.45
817.861	508.5839	2009.7	1194.7
818.0051	510.7386	2001.4	1183.45
818.1493	512.8927	2018.4	1189.2
818.2935	515.0461	2023.7	1201.75
818.4377	517.199	2048.2	1225.95
818.5818	519.3512	2088.25	1263.95
818.726	521.5029	2161.35	1330
818.8703	523.6539	2206.75	1380.8
819.0145	525.8043	2217.7	1390.3
819.1587	527.9541	2162.65	1332.35
819.303	530.1033	2096.4	1266.7
819.4472	532.2519	2048.3	1221.3
819.5915	534.3999	2027.3	1196.75
819.7357	536.5472	2015.45	1187
819.88	538.694	2018.4	1191.4
820.0243	540.8401	2042	1208.95
820.1686	542.9856	2048.2	1212.8
820.3129	545.1305	2073.5	1233.45
820.4572	547.2748	2084.85	1248.9
820.6016	549.4185	2092.55	1253.85
820.7459	551.5615	2103.65	1263.9
820.8902	553.704	2117.2	1282.9
821.0346	555.8458	2133.65	1297.7
821.1789	557.987	2155.4	1321.6
821.3233	560.1276	2188.2	1353.35
821.4677	562.2675	2237.6	1401.45
821.6121	564.4069	2303.05	1469.15
821.7565	566.5456	2340.1	1507.05
821.9009	568.6837	2330.55	1497.65
822.0453	570.8212	2258.35	1424.5
822.1897	572.958	2183.6	1348.4
822.3342	575.0942	2126.65	1291.95
822.4786	577.2299	2077.2	1244.75
822.6231	579.3648	2057.3	1226.55
822.7675	581.4992	2039.25	1211.35
822.912	583.6329	2052.15	1225.05
823.0565	585.766	2085.2	1255.4
823.201	587.8985	2130.55	1296.85
823.3454	590.0304	2185.95	1337.3
823.4899	592.1616	2210.5	1368.75
823.6345	594.2922	2196.5	1354.9
823.779	596.4222	2154.45	1312
823.9235	598.5515	2101.5	1258.4
824.068	600.6802	2045.6	1199.75
824.2126	602.8083	2016	1172.9
824.3571	604.9358	1993.5	1151.05
824.5017	607.0626	1986.15	1142.75
824.6462	609.1888	2006.45	1158.05
824.7908	611.3144	2038.35	1191.35
824.9354	613.4393	2071.6	1225.8
825.08	615.5636	2124.8	1275.95
825.2246	617.6873	2169.9	1327.15
825.3692	619.8103	2196.05	1347.15
825.5138	621.9327	2190.1	1341.75
825.6584	624.0544	2156.5	1310.2
825.803	626.1756	2106.9	1260.9
825.9477	628.2961	2058.25	1209.45
826.0923	630.4159	2031.55	1182.4
826.237	632.5351	2018.7	1171
826.3816	634.6537	2017.25	1167
826.5263	636.7716	2009.3	1154.1
826.6709	638.8889	1993.65	1140.1
826.8156	641.0056	2010.4	1155.15
826.9603	643.1216	2014.5	1164.4
827.105	645.237	2016.4	1161.9
827.2497	647.3518	1986.8	1137
827.3944	649.4659	1965.15	1118.3
827.5391	651.5793	1946.6	1097.65
827.6838	653.6922	1939.65	1090.3
827.8285	655.8043	1932.15	1083.55
827.9733	657.9159	1922	1070.65
828.118	660.0268	1914.35	1061.35
828.2627	662.137	1915.25	1060.6
828.4075	664.2466	1915.1	1056.85
828.5522	666.3556	1908.75	1051.6
828.697	668.4639	1902.6	1045.5
828.8418	670.5716	1896.05	1043.8
828.9865	672.6786	1892.55	1036.9
829.1313	674.785	1893.6	1035.95
829.2761	676.8907	1881.45	1026.65
829.4209	678.9958	1875.25	1019.85
829.5657	681.1002	1882.6	1024
829.7105	683.204	1878.9	1018.1
829.8553	685.3072	1879.6	1021.4
830.0001	687.4097	1879.55	1021.8
830.1449	689.5115	1883.3	1023.55
830.2898	691.6127	1868.85	1012.85
830.4346	693.7132	1874.3	1016.95
830.5794	695.8131	1893.1	1009.25
830.7243	697.9123	1886.05	1025.6
830.8691	700.0109	1886.95	1026.1
831.014	702.1089	1896.25	1035
831.1588	704.2061	1918.95	1058.85
831.3037	706.3028	1935.2	1070.6
831.4486	708.3987	1954.4	1094.45
831.5935	710.4941	1968.05	1106.35
831.7383	712.5887	1979.05	1117.1
831.8832	714.6827	1969.85	1105.65
832.0281	716.7761	1959.9	1093.75
832.173	718.8688	1962	1100.1
832.3179	720.9608	1968.9	1100.3
832.4628	723.0522	1984.9	1116.05
832.6077	725.1429	2008.6	1143.8
832.7527	727.233	2048.35	1183.6
832.8976	729.3224	2111.8	1247.95
833.0425	731.4112	2170.7	1304.25
833.1874	733.4993	2173.7	1308.1
833.3324	735.5867	2116.3	1252.8
833.4773	737.6735	2034.8	1166.95
833.6222	739.7596	1981.45	1113.2
833.7672	741.845	1954.05	1087.35
833.9122	743.9298	1950.75	1080.8
834.0571	746.014	1945.95	1078.15
834.2021	748.0974	1971.9	1102.7
834.347	750.1802	1965.5	1098.1
834.492	752.2624	1959.85	1090.85
834.637	754.3439	1955.55	1085.65
834.782	756.4247	1949.2	1072.4
834.9269	758.5048	1943.65	1075.7
835.0719	760.5843	1970.95	1099.95
835.2169	762.6631	2015.1	1146.1
835.3619	764.7413	2064.05	1195.3
835.5069	766.8188	2159.3	1286.9
835.6519	768.8956	2236.2	1363.8
835.7969	770.9718	2283.25	1414.5
835.9419	773.0473	2279.35	1410.95
836.0869	775.1221	2246.75	1377.6
836.232	777.1962	2239.5	1369.1
836.377	779.2697	2307.65	1432.95
836.522	781.3426	2411.85	1519.9
836.667	783.4147	2455.6	1581.9
836.8121	785.4862	2428.1	1556.4
836.9571	787.557	2341.7	1467.8
837.1021	789.6271	2222.75	1348.8
837.2472	791.6966	2095.35	1221.55
837.3922	793.7654	2001.75	1129.2
837.5373	795.8335	1938.4	1065.9
837.6823	797.901	1922.9	1050.55
837.8274	799.9678	1906.8	1031.45
837.9724	802.0339	1899.2	1027
838.1175	804.0993	1914.7	1031.05
838.2626	806.1641	1897.85	1022.85
838.4076	808.2282	1879.35	1007.7
838.5527	810.2916	1855.05	975.8
838.6978	812.3544	1850.5	977.9
838.8428	814.4164	1844.55	971.7
838.9879	816.4778	1848.7	970.6
839.133	818.5385	1852.35	979.2
839.2781	820.5986	1896.9	1018.45
839.4232	822.658	1958.25	1081.9
839.5682	824.7166	2011.05	1136.25
839.7133	826.7747	2107.2	1229.8
839.8584	828.832	2194.5	1319.35
840.0035	830.8886	2256.15	1376.75
840.1486	832.9446	2262.9	1383.95
840.2937	834.9999	2232.7	1361.15
840.4388	837.0545	2168.75	1287.75
840.5839	839.1085	2069.55	1192
840.729	841.1618	1997.1	1117.3
840.8741	843.2143	1950.75	1072.9
841.0192	845.2662	1914.3	1037.3
841.1643	847.3175	1887.15	1007.7
841.3095	849.368	1876.25	998.35
841.4546	851.4179	1879.55	1000.3
841.5997	853.467	1873.4	995
841.7448	855.5155	1876.3	1001.4
841.8899	857.5633	1885.95	1007.85
842.0351	859.6105	1873.7	993.95
842.1802	861.6569	1854.5	976.4
842.3253	863.7027	1861.2	979.2
842.4704	865.7478	1839.5	957.05
842.6156	867.7922	1830.8	952.3
842.7607	869.8359	1838.7	958.6
842.9058	871.8789	1822.15	940.9
843.0509	873.9212	1863.15	952.65
843.1961	875.9629	1837.05	958.6
843.3412	878.0039	1846.7	962.45
843.4863	880.0441	1864.85	988.65
843.6315	882.0837	1876.45	993.6
843.7766	884.1226	1902.05	1016.9
843.9218	886.1609	1950.25	1072.25
844.0669	888.1984	1988	1106.35
844.212	890.2352	2034.35	1153.6
844.3572	892.2714	2043.7	1158.45
844.5023	894.3069	2016.85	1135.35
844.6475	896.3416	1967.55	1085.5
844.7926	898.3757	1925.75	1043.45
844.9377	900.4091	1899.05	1017.9
845.0829	902.4418	1902.15	1013.75
845.228	904.4739	1918.5	1032.65
845.3732	906.5052	1940.1	1055.6
845.5183	908.5358	1916.9	1032.75
845.6635	910.5658	1892.55	1007.05
845.8086	912.595	1866.9	983.5
845.9538	914.6236	1824.1	940.3
846.0989	916.6515	1800.3	915.4
846.2441	918.6786	1781.25	894.3
846.3892	920.7051	1775.7	889.3
846.5344	922.7309	1776.95	892.35
846.6795	924.756	1784.25	896.1
846.8246	926.7804	1785.5	899.3
846.9698	928.8041	1802.6	918.5
847.1149	930.8272	1812.5	925.1
847.2601	932.8495	1821.05	934.3
847.4052	934.8711	1824.9	937.55
847.5504	936.892	1839.05	953.55
847.6955	938.9123	1863.35	975.95
847.8407	940.9318	1879.8	993.4
847.9858	942.9506	1896.55	1009.7
848.131	944.9688	1885.6	999.3
848.2761	946.9862	1870.25	985.8
848.4213	949.003	1828.25	944.65
848.5664	951.019	1802.6	916.2
848.7115	953.0344	1787.4	900.3
848.8567	955.0491	1771.5	884.85
849.0018	957.063	1768.1	882.5
849.147	959.0763	1768.35	882.9
849.2921	961.0888	1764.75	876.95
849.4373	963.1007	1766.9	883.1
849.5824	965.1119	1760.05	877.05
849.7275	967.1223	1747.65	867.15
849.8727	969.1321	1744.5	863.5
850.0178	971.1412	1743.6	860.2
850.1629	973.1495	1735.6	851.6
850.3081	975.1572	1770.8	851.35
850.4532	977.1641	1739.8	850.6
850.5983	979.1704	1742.35	856.7
850.7435	981.1759	1735.25	848.1
850.8886	983.1808	1723.8	836.25
851.0337	985.1849	1733	834.2
851.1788	987.1884	1727.8	837.15
851.324	989.1911	1731.1	842.5
851.4691	991.1932	1746.15	857.7
851.6142	993.1945	1730.55	843.35
851.7593	995.1951	1733.5	845.75
851.9045	997.1951	1740.15	848.1
852.0496	999.1943	1730.6	843.05
852.1947	1001.1928	1731.8	842.3
852.3398	1003.1906	1750.2	861.8
852.4849	1005.1877	1766.25	875.15
852.63	1007.1841	1779.25	888.95
852.7751	1009.1798	1795.6	906.75
852.9202	1011.1748	1790.55	901.75
853.0653	1013.1691	1762.7	872.3
853.2104	1015.1627	1730.1	843.45
853.3555	1017.1556	1696.95	807.95
853.5006	1019.1477	1688.95	799
853.6457	1021.1392	1673.75	787.35
853.7908	1023.1299	1662.95	777.2
853.9359	1025.12	1665.5	780.4
854.081	1027.1093	1670.5	790.8
854.2261	1029.0979	1687.8	809.95
854.3712	1031.0859	1699.4	820.2
854.5163	1033.0731	1728.8	841.9
854.6613	1035.0596	1719.3	836.35
854.8064	1037.0454	1709.8	822.15
854.9515	1039.0304	1698.3	807.5
855.0965	1041.0148	1683	794.35
855.2416	1042.9985	1670.15	778.3
855.3867	1044.9814	1647.15	759.1
855.5317	1046.9636	1651.9	760.2
855.6768	1048.9452	1658.25	771.5
855.8219	1050.926	1674.55	785.9
855.9669	1052.9061	1686.7	798.2
856.112	1054.8855	1688.15	796.6
856.257	1056.8642	1691.35	805.2
856.4021	1058.8421	1695.5	805.85
856.5471	1060.8194	1685.85	797.55
856.6921	1062.7959	1696.85	805.45
856.8372	1064.7717	1692.4	802
856.9822	1066.7469	1692.8	801.2
857.1272	1068.7213	1697.1	804.4
857.2723	1070.695	1709.95	822.3
857.4173	1072.6679	1740.45	850.9
857.5623	1074.6402	1755.55	865.3
857.7073	1076.6117	1758.85	863.8
857.8523	1078.5826	1728.2	838.55
857.9973	1080.5527	1693.8	798.55
858.1423	1082.5221	1668.1	776.6
858.2873	1084.4908	1642.25	752.6
858.4323	1086.4587	1629.1	738.15
858.5773	1088.426	1618.5	726.7
858.7223	1090.3925	1618.95	724.1
858.8673	1092.3584	1623.5	733.7
859.0123	1094.3235	1631.85	744.7
859.1573	1096.2879	1663.9	772.4
859.3022	1098.2515	1683.45	792.2
859.4472	1100.2145	1710.85	821.25
859.5922	1102.1767	1744.2	852.15
859.7371	1104.1382	1779.35	887.2
859.8821	1106.099	1846	954.5
860.027	1108.0591	1880.65	989.95
860.172	1110.0185	1916.2	1022.65
860.3169	1111.9771	1956.3	1064.75
860.4619	1113.9351	2005.9	1114.7
860.6068	1115.8923	2073.25	1180.6
860.7517	1117.8488	2079.25	1185.35
860.8967	1119.8045	2028	1137.2
861.0416	1121.7596	1938.9	1047.2
861.1865	1123.7139	1840.9	949.85
861.3314	1125.6675	1795.35	904.7
861.4763	1127.6204	1796.35	905.4
861.6212	1129.5726	1807.5	916.9
861.7661	1131.524	1805.35	914.15
861.911	1133.4748	1764.15	871.2
862.0559	1135.4248	1711.6	819.1
862.2008	1137.3741	1663.55	771.45
862.3457	1139.3226	1652.45	758.15
862.4905	1141.2705	1629.75	738.7
862.6354	1143.2176	1648.9	750.85
862.7803	1145.164	1657.55	765.4
862.9251	1147.1097	1653.4	763.3
863.07	1149.0546	1633.25	741.35
863.2148	1150.9989	1604.7	708.05
863.3597	1152.9424	1584.6	691.35
863.5045	1154.8852	1564.25	671.15
863.6493	1156.8272	1568.8	677.6
863.7942	1158.7686	1570.95	672
863.939	1160.7092	1570.85	677.8
864.0838	1162.6491	1577.25	683.35
864.2286	1164.5883	1588.05	695.95
864.3734	1166.5267	1604.75	709.4
864.5182	1168.4644	1625.95	733.05
864.663	1170.4014	1673	777.5
864.8078	1172.3377	1696.35	803.8
864.9526	1174.2732	1753.05	864.75
865.0974	1176.2081	1841.8	950.8
865.2421	1178.1421	1971.15	1073.85
865.3869	1180.0755	2083.05	1191.5
865.5317	1182.0082	2123.8	1229.8
865.6764	1183.9401	2100.4	1208.5
865.8212	1185.8713	1999.95	1110.6
865.9659	1187.8017	1877.95	990.15
866.1106	1189.7315	1779.6	894.65
866.2554	1191.6605	1716.5	801.35
866.4001	1193.5888	1661	774.05
866.5448	1195.5163	1642.45	754.75
866.6895	1197.4432	1623.05	731.7
866.8342	1199.3693	1599.3	709.5
866.9789	1201.2947	1592.45	698.2
867.1236	1203.2193	1579.75	688.3
867.2683	1205.1432	1574.35	680.95
867.413	1207.0664	1581.1	688.85
867.5576	1208.9889	1575.45	678.85
867.7023	1210.9106	1581	686.7
867.847	1212.8316	1574.1	684.65
867.9916	1214.7519	1615.35	714.1
868.1363	1216.6715	1611.6	719.6
868.2809	1218.5903	1629.65	737
868.4255	1220.5084	1635.8	744.25
868.5701	1222.4257	1652.35	762.85
868.7148	1224.3424	1662.3	773
868.8594	1226.2583	1682.7	788.05
869.004	1228.1735	1707.9	813.75
869.1486	1230.0879	1744.1	850.75
869.2932	1232.0016	1791.15	899.9
869.4377	1233.9146	1838.35	945.75
869.5823	1235.8269	1848	955.5
869.7269	1237.7384	1848.3	955.6
869.8715	1239.6492	1860.25	968.45
870.016	1241.5592	1875.2	981.4
870.1606	1243.4686	1924.9	1032.9
870.3051	1245.3772	1988.75	1096.5
870.4496	1247.285	2090.95	1200.3
870.5941	1249.1922	2167	1273.45
870.7387	1251.0986	2237.55	1345.15
870.8832	1253.0042	2301.45	1408.15
871.0277	1254.9092	2384.75	1489.6
871.1722	1256.8134	2459.05	1567.65
871.3167	1258.7169	2535.7	1641.9
871.4611	1260.6196	2558.45	1668.85
871.6056	1262.5216	2556.6	1661.5
871.7501	1264.4229	2545.95	1653.4
871.8945	1266.3234	2500.9	1609.5
872.039	1268.2232	2446.6	1552.45
872.1834	1270.1223	2411.2	1516.3
872.3278	1272.0207	2381.25	1487
872.4723	1273.9183	2364.8	1465.1
872.6167	1275.8151	2369.05	1476.8
872.7611	1277.7113	2405.3	1512.65
872.9055	1279.6067	2494.15	1602.75
873.0499	1281.5014	2641.05	1746.05
873.1943	1283.3953	2809.1	1915.8
873.3386	1285.2885	2976.1	2084.45
873.483	1287.181	3080.55	2187
873.6274	1289.0727	3133.15	2240.75
873.7717	1290.9637	3087.75	2194.65
873.9161	1292.854	3012.55	2117.85
874.0604	1294.7435	2926.4	2034.25
874.2047	1296.6323	2824.15	1932.9
874.349	1298.5204	2731.15	1836.35
874.4933	1300.4077	2657.8	1765.3
874.6376	1302.2943	2609.95	1715.1
874.7819	1304.1802	2581.95	1690
874.9262	1306.0653	2542.4	1648.4
875.0705	1307.9497	2505.05	1611.2
875.2147	1309.8333	2465.1	1571.3
875.359	1311.7162	2433.4	1540.55
875.5032	1313.5984	2395.9	1499.3
875.6475	1315.4798	2374.9	1471.15
875.7917	1317.3605	2366.6	1468.8
875.9359	1319.2405	2347.65	1453.2
876.0801	1321.1197	2312.6	1417.45
876.2243	1322.9982	2260	1364.5
876.3685	1324.876	2196.3	1303.4
876.5127	1326.753	2097	1203.9
876.6569	1328.6293	2019.95	1124.8
876.801	1330.5048	1938.95	1041.85
876.9452	1332.3796	1878.05	984.75
877.0893	1334.2537	1849.45	928.6
877.2335	1336.127	1792.2	899.7
877.3776	1337.9996	1767.05	874.6
877.5217	1339.8714	1741.3	845.5
877.6658	1341.7426	1765.45	824.3
877.8099	1343.6129	1716.95	820.7
877.954	1345.4826	1704.75	811.85
878.0981	1347.3515	1683.6	787.55
878.2422	1349.2196	1667.45	772.6
878.3862	1351.087	1665.7	771.6
878.5303	1352.9537	1675.9	781.25
878.6743	1354.8197	1672.25	778.7
878.8184	1356.6849	1675.8	781.1
878.9624	1358.5493	1698.35	805.9
879.1064	1360.4131	1715.05	820.1
879.2504	1362.276	1752.3	857.95
879.3944	1364.1383	1791.45	897.15
879.5384	1365.9998	1806.3	909
879.6823	1367.8606	1787.75	893.9
879.8263	1369.7206	1774.9	881.15
879.9702	1371.5799	1766.15	868.6
880.1142	1373.4384	1765.25	870.95
880.2581	1375.2962	1733.05	836.6
880.402	1377.1533	1683.3	789.85
880.5459	1379.0096	1634.65	742.25
880.6898	1380.8652	1613.85	722.25
880.8337	1382.7201	1577.65	685.95
880.9776	1384.5742	1557	665.85
881.1215	1386.4275	1547.45	652.5
881.2653	1388.2802	1523.45	630.65
881.4092	1390.132	1511.2	618.65
881.553	1391.9832	1494.25	597.65
881.6968	1393.8336	1492.95	597.8
881.8406	1395.6832	1484.9	585.65
881.9844	1397.5322	1477.15	584.05
882.1282	1399.3803	1471.3	573.7
882.272	1401.2278	1460.9	568.55
882.4158	1403.0745	1449.9	554.5
882.5595	1404.9204	1448.2	555.55
882.7033	1406.7656	1442.75	551.75
882.847	1408.6101	1438.2	542.85
882.9908	1410.4538	1431.95	537.95
883.1345	1412.2968	1430.5	534.1
883.2782	1414.139	1432.9	539.3
883.4219	1415.9805	1446.05	552.25
883.5656	1417.8213	1464.1	565.55
883.7092	1419.6613	1469.6	576.3
883.8529	1421.5006	1502.5	609.05
883.9965	1423.3391	1533.6	639.4
884.1402	1425.1769	1583.15	685.95
884.2838	1427.0139	1657.05	762.75
884.4274	1428.8502	1749.55	855.85
884.571	1430.6858	1807.05	913.25
884.7146	1432.5206	1840.65	948
884.8582	1434.3547	1816.25	921.55
885.0018	1436.188	1797.1	904.7
885.1453	1438.0206	1784.9	890.55
885.2889	1439.8524	1775	881.65
885.4324	1441.6835	1768.55	874.3
885.5759	1443.5139	1779.7	881.75
885.7194	1445.3435	1781.6	888.65
885.8629	1447.1724	1779.55	887.05
886.0064	1449.0005	1773.55	883
886.1499	1450.8279	1775.15	880.8
886.2933	1452.6545	1767.25	872.65
886.4368	1454.4804	1771.25	878.5
886.5802	1456.3056	1758.2	858.65
886.7237	1458.13	1741.8	846.7
886.8671	1459.9536	1718.75	825.9
887.0105	1461.7766	1676.95	783.7
887.1539	1463.5987	1640.4	744.9
887.2972	1465.4202	1617.35	724.55
887.4406	1467.2409	1573.35	681.2
887.584	1469.0608	1534.2	640.55
887.7273	1470.88	1507.25	611.8
887.8706	1472.6984	1481.1	587.8
888.0139	1474.5161	1458.85	562.15
888.1572	1476.3331	1445.1	551.4
888.3005	1478.1493	1443.75	550
888.4438	1479.9648	1437.2	542.35
888.5871	1481.7795	1433.75	541.85
888.7303	1483.5935	1438.45	544.9
888.8736	1485.4067	1441	545.1
889.0168	1487.2192	1439.2	546.7
889.16	1489.031	1434.1	536.65
889.3032	1490.842	1431.7	540.1
889.4464	1492.6522	1427.6	535.15
889.5896	1494.4618	1432.8	537.75
889.7327	1496.2705	1422.6	528.95
889.8759	1498.0785	1415.95	521.75
890.019	1499.8858	1409.65	516.7
890.1622	1501.6924	1402.7	508.3
890.3053	1503.4981	1402.15	509.7
890.4484	1505.3032	1396.1	502.45
890.5914	1507.1075	1392.2	495.85
890.7345	1508.911	1380.55	487
890.8776	1510.7138	1374.8	483
891.0206	1512.5159	1372.7	478.9
891.1637	1514.3172	1360.35	466.45
891.3067	1516.1178	1360.75	468.2
891.4497	1517.9176	1351.25	452.55
891.5927	1519.7166	1346.1	453.3
891.7357	1521.515	1345	443.95
891.8786	1523.3126	1334.05	440.5
892.0216	1525.1094	1334.35	439.05
892.1645	1526.9055	1328.8	437.8
892.3074	1528.7008	1324.05	431.05
892.4503	1530.4954	1330.5	430.95
892.5932	1532.2893	1323.85	433.15
892.7361	1534.0824	1328.45	433.05
892.879	1535.8747	1317.4	426.35
893.0218	1537.6663	1316.55	425.55
893.1647	1539.4572	1308.5	416.75
893.3075	1541.2473	1317.65	426.75
893.4503	1543.0367	1316.75	426.6
893.5931	1544.8253	1326.2	427.85
893.7359	1546.6132	1330.3	435.3
893.8787	1548.4003	1336.6	435.2
894.0214	1550.1867	1347.05	445.7
894.1642	1551.9723	1351.35	456.15
894.3069	1553.7572	1368.2	475.5
894.4496	1555.5414	1380.7	488.85
894.5923	1557.3247	1407.2	517.1
894.735	1559.1074	1434.45	546.45
894.8777	1560.8893	1482.75	593.5
895.0204	1562.6705	1510.45	620.25
895.163	1564.4509	1532.1	641.2
895.3056	1566.2305	1541.7	651.2
895.4482	1568.0094	1547.2	658.35
895.5908	1569.7876	1533.7	643.6
895.7334	1571.565	1536.4	646.55
895.876	1573.3417	1532.35	644.85
896.0186	1575.1176	1536.85	649.4
896.1611	1576.8928	1555.95	666.6
896.3036	1578.6672	1569.9	685.1
896.4461	1580.4409	1590.45	703.9
896.5886	1582.2138	1626.5	737.75
896.7311	1583.986	1660.65	772.55
896.8736	1585.7575	1691.5	801.55
897.0161	1587.5282	1721.05	835.2
897.1585	1589.2981	1733	845.15
897.3009	1591.0673	1762	873.35
897.4433	1592.8358	1772.7	885.85
897.5857	1594.6035	1775.65	885.9
897.7281	1596.3704	1762.35	873.7
897.8705	1598.1366	1739.55	849.05
898.0128	1599.9021	1730.9	843.7
898.1551	1601.6668	1709.7	817.25
898.2975	1603.4308	1700	809.1
898.4398	1605.194	1713.2	821.8
898.5821	1606.9564	1735.5	849.8
898.7243	1608.7182	1797.55	909.1
898.8666	1610.4791	1861.5	977.45
899.0088	1612.2394	1953.85	1069.85
899.1511	1613.9988	2034.2	1151.3
899.2933	1615.7576	2094.8	1208.6
899.4355	1617.5156	2123.8	1230.9
899.5776	1619.2728	2090.45	1201.65
899.7198	1621.0293	1997.1	1107.25
899.862	1622.785	1891.85	1005
900.0041	1624.54	1787.35	897.65
900.1462	1626.2942	1680.15	792.2
900.2883	1628.0477	1586.7	697.45
900.4304	1629.8005	1519.7	631.45
900.5725	1631.5525	1456.55	570.95
900.7145	1633.3037	1419.9	533.85
900.8566	1635.0542	1375.7	491
900.9986	1636.804	1343.8	457
901.1406	1638.553	1429.35	435.75
901.2826	1640.3013	1311	423.75
901.4245	1642.0488	1289.55	400.5
901.5665	1643.7955	1274.55	391.9
901.7085	1645.5416	1265.35	377.85
901.8504	1647.2868	1258.2	373.4
901.9923	1649.0313	1253.8	367
902.1342	1650.7751	1248.75	360.1
902.2761	1652.5181	1239.75	353.05
902.4179	1654.2604	1237.15	351.95
902.5598	1656.0019	1247.15	360.65
902.7016	1657.7427	1258	371.95
902.8434	1659.4828	1280.3	393.5
902.9852	1661.222	1313.65	425.8
903.127	1662.9606	1338.15	452.65
903.2687	1664.6984	1359.85	472.7
903.4105	1666.4354	1361.15	472.3
903.5522	1668.1717	1331.7	445.1
903.6939	1669.9072	1298	409.1
903.8356	1671.642	1260.65	369.55
903.9773	1673.3761	1226.5	337.95
904.119	1675.1094	1205.1	317.75
904.2606	1676.8419	1186.3	296.2
904.4022	1678.5737	1172.7	283.2
904.5439	1680.3048	1169.25	282.05
904.6855	1682.0351	1160	273.9
904.827	1683.7646	1156.95	266.2
904.9686	1685.4934	1142.95	256.4
905.1101	1687.2215	1143.7	255.7
905.2517	1688.9488	1140.95	251.65
905.3932	1690.6754	1131.55	245.4
905.5347	1692.4012	1134.7	245.55
905.6761	1694.1263	1130.05	243.05
905.8176	1695.8506	1129.35	241.5
905.9591	1697.5742	1125.35	240.7
906.1005	1699.297	1128.2	241.55
906.2419	1701.0191	1122.8	238.3
906.3833	1702.7404	1119.3	233.4
906.5246	1704.461	1117.55	229.2
906.666	1706.1808	1117.7	229.55
906.8073	1707.8999	1114.25	227.55
906.9487	1709.6182	1106.75	221.35
907.09	1711.3358	1106.15	222.5
907.2313	1713.0527	1108.1	226.75
907.3725	1714.7688	1111.5	219.55
907.5138	1716.4841	1113.9	226.1
907.655	1718.1987	1109.5	218.85
907.7962	1719.9126	1102	217.65
907.9374	1721.6257	1111.95	226.15
908.0786	1723.338	1098.95	211.7
908.2198	1725.0496	1100.05	213.6
908.3609	1726.7605	1103.25	216.7
908.502	1728.4706	1101.7	214.05
908.6431	1730.18	1094.75	206.05
908.7842	1731.8886	1095.05	211.55
908.9253	1733.5964	1115.25	208.85
909.0664	1735.3036	1098.7	211.8
909.2074	1737.0099	1096.3	211.45
909.3484	1738.7156	1090.35	206.15
909.4894	1740.4204	1093.15	205.65
909.6304	1742.1246	1095.8	210.15
909.7714	1743.8279	1088.4	202.8
909.9123	1745.5306	1090.55	207.7
910.0532	1747.2325	1090	204.8
910.1941	1748.9336	1091.05	203.9
910.335	1750.634	1091.15	204.65
910.4759	1752.3336	1084.6	199.85
910.6168	1754.0325	1083.3	200.55
910.7576	1755.7307	1090.15	205.8
910.8984	1757.4281	1087.9	202.1
911.0392	1759.1247	1097.7	201.35
911.18	1760.8206	1093.75	201.45
911.3208	1762.5158	1092.95	203.35
911.4615	1764.2102	1083.6	197
911.6022	1765.9039	1080.55	195.45
911.7429	1767.5968	1080.15	193.75
911.8836	1769.289	1079.1	192.7
912.0243	1770.9804	1085.15	199.4
912.1649	1772.6711	1086.1	197.25
912.3056	1774.361	1085.55	197.05
912.4462	1776.0502	1085.9	199.15
912.5868	1777.7386	1085.45	195.1
912.7274	1779.4263	1077.35	193.75
912.8679	1781.1132	1075.95	193.25
913.0084	1782.7994	1080.05	194.25
913.149	1784.4849	1070.2	187.4
913.2895	1786.1696	1096.7	193.5
913.4299	1787.8535	1076.45	194.15
913.5704	1789.5367	1078.3	194.25
913.7108	1791.2192	1071.8	187
913.8513	1792.9009	1099.65	187.45
913.9917	1794.5818	1076.8	187.85
914.132	1796.2621	1074.55	190
914.2724	1797.9415	1074.45	186.25
914.4128	1799.6202	1070.1	184.35
914.5531	1801.2982	1073	186.65
914.6934	1802.9755	1071.05	184.45
914.8337	1804.6519	1069.4	183.45
914.9739	1806.3277	1066.6	181.35
915.1142	1808.0027	1064	180.5
915.2544	1809.6769	1060.6	177.45
915.3946	1811.3504	1066.8	182.25
915.5348	1813.0231	1069.35	186.05
915.675	1814.6951	1066.55	183.4
915.8151	1816.3664	1067.8	181.6
915.9553	1818.0369	1071.7	185.9
916.0954	1819.7067	1067.35	182.45
916.2355	1821.3757	1065.6	177.45
916.3755	1823.044	1062.4	174.85
916.5156	1824.7115	1063	176.1
916.6556	1826.3783	1064.65	179.55
916.7956	1828.0443	1060.8	175.9
916.9356	1829.7096	1061.35	174.45
917.0756	1831.3741	1066.4	178.8
917.2155	1833.0379	1058.25	172.65
917.3555	1834.701	1060.2	176.9
917.4954	1836.3633	1057.65	173.4
917.6353	1838.0248	1058.7	173.35
917.7751	1839.6856	1062.9	178.75
917.915	1841.3457	1057.75	172.6
918.0548	1843.005	1057.75	172.85
918.1946	1844.6636	1060.35	177.75
918.3344	1846.3214	1058.4	173.35
918.4742	1847.9785	1057.4	173.2
918.6139	1849.6349	1055.1	167.4
918.7537	1851.2904	1070.75	176
918.8934	1852.9453	1059	173.25
919.0331	1854.5994	1058.55	171.75
919.1727	1856.2528	1064.55	173.2
919.3124	1857.9054	1059.65	174.35
919.452	1859.5572	1051.5	168
919.5916	1861.2083	1055.95	169.75
919.7312	1862.8587	1056.25	167.9
919.8708	1864.5084	1057.4	166.95
920.0103	1866.1572	1052.4	166.75
920.1498	1867.8054	1053.7	167.5
920.2893	1869.4528	1052.25	166.35
920.4288	1871.0994	1052.2	167.95
920.5683	1872.7453	1056.3	170.3
920.7077	1874.3905	1060.2	169.85
920.8471	1876.0349	1048.65	161.5
920.9865	1877.6786	1051.1	162.85
921.1259	1879.3215	1049.4	164.75
921.2653	1880.9637	1049.25	163.95
921.4046	1882.6051	1049.85	163.9
921.5439	1884.2458	1048.7	160.9
921.6832	1885.8858	1049.25	164.45
921.8225	1887.525	1046.2	159.95
921.9617	1889.1634	1047.65	160.15
922.101	1890.8011	1044.6	157.3
922.2402	1892.4381	1040.05	154.65
922.3794	1894.0743	1040.8	156.1
922.5185	1895.7098	1047.4	160.4
922.6577	1897.3446	1047.7	162.25
922.7968	1898.9786	1046.85	157.3
922.9359	1900.6118	1042.35	158.7
923.075	1902.2443	1041.65	154.65
923.214	1903.8761	1046.6	163.2
923.3531	1905.5071	1043.25	156.6
923.4921	1907.1374	1045.9	160.75
923.6311	1908.7669	1041.35	156.8
923.77	1910.3957	1038.4	155
923.909	1912.0237	1038.35	153.4
924.0479	1913.651	1041.25	156.8
924.1868	1915.2776	1035.8	151.95
924.3257	1916.9034	1039.15	155.2
924.4646	1918.5285	1034.25	150.95
924.6034	1920.1528	1036.75	148.65
924.7422	1921.7764	1036.7	152.8
924.881	1923.3992	1035.8	149.55
925.0198	1925.0213	1037.85	150.85
925.1586	1926.6427	1035.7	152.5
925.2973	1928.2633	1248.1	154.85
925.436	1929.8832	1037.3	147.85
925.5747	1931.5023	1030.85	145.05
925.7134	1933.1207	1034.85	150.35
925.852	1934.7383	1032.65	146.95
925.9906	1936.3552	1034.75	151.3
926.1292	1937.9714	1033.65	150.1
926.2678	1939.5868	1030.5	141.8
926.4064	1941.2015	1032.85	146.25
926.5449	1942.8154	1034.15	146.3
926.6834	1944.4286	1032.45	146.95
926.8219	1946.041	1052.85	144.6
926.9604	1947.6528	1036.05	144.3
927.0988	1949.2637	1030	146.3
927.2372	1950.8739	1028.35	143.4
927.3756	1952.4834	1028.95	143.8
927.514	1954.0921	1026.85	140.75
927.6523	1955.7001	1031.3	142.35
927.7907	1957.3074	1023.95	141.9
927.929	1958.9139	1027.75	145.75
928.0673	1960.5197	1029.3	144.45
928.2055	1962.1247	1023.4	141.35
928.3438	1963.729	1025.65	142.7
928.482	1965.3325	1024.25	134.25
928.6202	1966.9353	1019.2	136.8
928.7584	1968.5374	1022.7	138.35
928.8965	1970.1387	1020.7	135.4
929.0346	1971.7393	1020.6	135.75
929.1727	1973.3392	1019.2	137.15
929.3108	1974.9383	1019.7	138.8
929.4489	1976.5366	1020.85	137.75
929.5869	1978.1342	1020.65	138.15
929.7249	1979.7311	1018.5	137.2
929.8629	1981.3273	1020.3	136.7
930.0009	1982.9227	1015.55	131.9
930.1388	1984.5173	1017.35	134.8
930.2767	1986.1112	1016.65	134.35
930.4146	1987.7044	1017	137
930.5525	1989.2968	1016.6	134.25
930.6904	1990.8885	1022.8	137.6
930.8282	1992.4795	1015.85	134.1
930.966	1994.0697	1015.8	134.1
931.1038	1995.6592	1014.6	134.2
931.2415	1997.2479	1018.1	133.45
931.3793	1998.8359	1011.2	129.5
931.517	2000.4232	1012.45	133.45
931.6547	2002.0097	1011.2	134.7
931.7923	2003.5955	1010.15	128.6
931.93	2005.1805	1014.7	131.1
932.0676	2006.7648	1014.9	135.2
932.2052	2008.3484	1008.6	127.3
932.3427	2009.9312	1015	133.25
932.4803	2011.5133	1010.5	134.25
932.6178	2013.0946	1010.3	128.5
932.7553	2014.6752	1011.05	132.5
932.8928	2016.2551	1014.6	131.85
933.0302	2017.8342	1006.65	126.6
933.1676	2019.4126	1008.75	130.35
933.305	2020.9902	1008.45	131.3
933.4424	2022.5672	1007.85	129.05
933.5798	2024.1433	1015.65	133.4
933.7171	2025.7188	1010.1	134
933.8544	2027.2935	1010.25	130.95
933.9917	2028.8674	1008.6	129.85
934.129	2030.4406	1006.7	128.35
934.2662	2032.0131	1006.7	128.45
934.4034	2033.5849	1011.4	128.45
934.5406	2035.1559	1005.25	127.4
934.6778	2036.7261	1005.95	125.2
934.8149	2038.2957	1014.7	134.85
934.952	2039.8645	1006.15	128.2
935.0891	2041.4325	1012.75	128.25
935.2262	2042.9998	1008.15	130.9
935.3632	2044.5664	1010.35	130.25
935.5002	2046.1323	1009.6	133.05
935.6372	2047.6974	999.7	121.8
935.7742	2049.2617	1001.75	123.5
935.9111	2050.8254	1007.8	123.2
936.048	2052.3883	1007.05	126.05
936.1849	2053.9504	1006.7	125.85
936.3218	2055.5118	1008.7	127.85
936.4586	2057.0725	1012.95	128
936.5955	2058.6325	1004.75	127
936.7323	2060.1917	1004.5	125.25
936.869	2061.7502	1005.35	124.25
937.0058	2063.3079	1003.95	126.45
937.1425	2064.8649	1005.95	123.4
937.2792	2066.4212	1004.2	124.3
937.4159	2067.9767	1005.7	125.15
937.5525	2069.5315	1004.95	126
937.6891	2071.0856	1005.45	127.05
937.8257	2072.6389	1006.65	126.6
937.9623	2074.1915	1000.5	124.3
938.0989	2075.7433	1004.55	122.9
938.2354	2077.2945	1002	123.3
938.3719	2078.8448	1000.95	120.1
938.5084	2080.3945	1005.35	124.75
938.6448	2081.9434	1001.55	121.4
938.7812	2083.4916	1008.2	126.35
938.9176	2085.039	1005.85	122.8
939.054	2086.5857	1007.3	124.6
939.1903	2088.1317	1002.15	120.25
939.3267	2089.677	1005.45	123.55
939.463	2091.2215	999.8	115.65
939.5992	2092.7652	1007.2	124.25
939.7355	2094.3083	1005.55	124.15
939.8717	2095.8506	1000.8	120.25
940.0079	2097.3921	1004.25	123.45
940.1441	2098.933	1004.6	125.65
940.2802	2100.4731	1002.2	120.95
940.4163	2102.0124	1022.95	123.6
940.5524	2103.5511	1001.15	121.05
940.6885	2105.089	1000.5	117.25
940.8245	2106.6261	1005.1	124
940.9606	2108.1626	1001.35	122.1
941.0965	2109.6983	1029	120.75
941.2325	2111.2332	1003.55	121.45
941.3684	2112.7675	1002.75	120.35
941.5044	2114.301	1005.65	122.2
941.6403	2115.8337	1002.9	121.95
941.7761	2117.3657	1001.85	121.7
941.912	2118.897	1002.65	121.4
942.0478	2120.4276	1009.5	122.35
942.1835	2121.9575	1001.45	119.2
942.3193	2123.4866	1005.9	123
942.455	2125.0149	1002.7	120.05
942.5907	2126.5426	1001.4	121.55
942.7264	2128.0695	999.25	115.1
942.8621	2129.5956	998.4	121.6
942.9977	2131.1211	997.35	113.8
943.1333	2132.6458	999.9	121.95
943.2689	2134.1698	1000.6	118
943.4044	2135.693	1004.65	120.7
943.54	2137.2155	1002	117.05
943.6755	2138.7373	1000.3	121.75
943.8109	2140.2584	997.7	118.95
943.9464	2141.7787	1002.65	118.85
944.0818	2143.2983	992.15	115.7
944.2172	2144.8171	992.65	112.25
944.3526	2146.3353	995.7	115.65
944.4879	2147.8527	1000.85	123.45
944.6232	2149.3693	996.4	115.35
944.7585	2150.8853	999.05	117.6
944.8938	2152.4005	999.55	117.95
945.029	2153.9149	1003	120.75
945.1642	2155.4287	1003.15	121.3
945.2994	2156.9417	1001.95	120.05
945.4346	2158.454	998.1	113.9
945.5697	2159.9655	991.65	112.4
945.7048	2161.4764	994.6	115.9
945.8399	2162.9865	994.4	115.35
945.9749	2164.4958	999.65	119.95
946.1099	2166.0045	995.9	115.2
946.2449	2167.5124	994.85	116.1
946.3799	2169.0195	995.6	116.05
946.5148	2170.526	995.95	114.25
946.6498	2172.0317	993.95	112.55
946.7846	2173.5367	996.7	116.65
946.9195	2175.0409	992.2	112.8
947.0543	2176.5445	993.25	112.75
947.1891	2178.0473	996.4	115.2
947.3239	2179.5494	995.4	112.55
947.4587	2181.0507	997.45	117.65
947.5934	2182.5513	995.9	115.3
947.7281	2184.0512	996.85	115.65
947.8628	2185.5504	995.1	114.5
947.9974	2187.0488	992.2	112.9
948.132	2188.5465	987	108.4
948.2666	2190.0435	987.25	106.35
948.4012	2191.5397	993.8	114.15
948.5357	2193.0353	991.9	111
948.6702	2194.5301	994.7	110.85
948.8047	2196.0241	995.6	113.25
948.9392	2197.5175	992.85	111.95
949.0736	2199.0101	996.2	111.15
949.208	2200.502	993.4	113.95
949.3424	2201.9931	986.75	107.5
949.4767	2203.4835	989.05	109
949.611	2204.9733	1010.5	113.05
949.7453	2206.4622	987.15	109.65
949.8796	2207.9505	989.25	107.95
950.0138	2209.438	986.7	112.25
950.148	2210.9248	991.65	110.5
950.2822	2212.4109	989.3	111.25
950.4164	2213.8962	991.65	106.4
950.5505	2215.3809	990.15	107.75
950.6846	2216.8648	989.55	108.1
950.8186	2218.3479	992.25	106.7
950.9527	2219.8304	993.05	108.4
951.0867	2221.3121	988.1	106
951.2207	2222.7931	985.6	103.2
951.3546	2224.2733	988.25	109.55
951.4886	2225.7529	986.85	103.05
951.6225	2227.2317	986.25	103.3
951.7563	2228.7098	984.35	104.85
951.8902	2230.1872	982.95	103.85
952.024	2231.6638	982.05	105.35
952.1578	2233.1397	986.7	103.3
952.2916	2234.6149	981.7	103.5
952.4253	2236.0894	983.9	102.45
952.559	2237.5632	991.75	101.45
952.6927	2239.0362	980.55	101
952.8263	2240.5085	986.55	104.85
952.9599	2241.9801	983.4	101.1
953.0935	2243.4509	983.15	101.25
953.2271	2244.921	987.35	106.25
953.3606	2246.3904	986.4	102.55
953.4941	2247.8591	983	103.6
953.6276	2249.3271	983.3	101.25
953.7611	2250.7943	981.1	100.65
953.8945	2252.2608	985.05	101.2
954.0279	2253.7266	981.05	102.3
954.1612	2255.1917	982.2	99.25
954.2946	2256.656	978.35	99.9
954.4279	2258.1197	976.85	98.65
954.5612	2259.5826	982.2	101.7
954.6944	2261.0447	980.95	98.85
954.8276	2262.5062	980.5	96.7
954.9608	2263.9669	984.9	102.2
955.094	2265.4269	975.25	95.3
955.2271	2266.8862	978.4	96.85
955.3602	2268.3448	978.6	99.35
955.4933	2269.8026	979.2	99.15
955.6264	2271.2598	976.3	96.35
955.7594	2272.7162	971.9	93.8
955.8924	2274.1719	975.95	93.65
956.0253	2275.6268	978.85	100.45
956.1583	2277.0811	977.85	96.4
956.2912	2278.5346	973.7	95.35
956.4241	2279.9874	978.9	99.1
956.5569	2281.4395	977.6	97.6
956.6897	2282.8908	980.75	94.85
956.8225	2284.3414	979.9	98.7
956.9553	2285.7914	977.7	97
957.088	2287.2406	981.2	100.7
957.2207	2288.689	975.7	96.2
957.3534	2290.1368	980.35	96.9
957.486	2291.5838	979.2	93.8
957.6186	2293.0302	981.7	97.35
957.7512	2294.4758	976.5	95.4
957.8838	2295.9206	979.9	96.7
958.0163	2297.3648	975.45	96.2
958.1488	2298.8082	972.8	90.75
958.2813	2300.251	972.15	88.85
958.4137	2301.693	979.55	95.75
958.5461	2303.1343	979.2	98.35
958.6785	2304.5748	976.65	97.1
958.8108	2306.0147	971.45	93.1
958.9432	2307.4538	977.25	94.55
959.0754	2308.8922	972.85	95.7
959.2077	2310.3299	972.4	93.65
959.3399	2311.7669	972.2	95.1
959.4721	2313.2031	973.35	92.2
959.6043	2314.6387	974.5	92.7
959.7365	2316.0735	972.45	90.8
959.8686	2317.5076	972.3	90.7
960.0006	2318.941	974.65	94.3
960.1327	2320.3737	973.55	93.2
960.2647	2321.8056	973.2	88.25
960.3967	2323.2369	974.55	93.65
960.5287	2324.6674	978.4	95.05
960.6606	2326.0972	977.85	96.1
960.7925	2327.5263	983.1	102.2
960.9244	2328.9547	981.6	99.05
961.0562	2330.3823	981.4	100.25
961.1881	2331.8092	979.75	97.2
961.3198	2333.2355	969.55	90.45
961.4516	2334.661	971.95	91.8
961.5833	2336.0858	971.7	88.9
961.715	2337.5098	968.2	87.45
961.8467	2338.9332	970.3	89.5
961.9783	2340.3558	973.2	88.6
962.1099	2341.7778	967.8	87
962.2415	2343.199	971.95	88.85
962.373	2344.6195	966.9	85.4
962.5045	2346.0393	967.3	88.3
962.636	2347.4583	968.45	86.15
962.7675	2348.8767	967.6	87.55
962.8989	2350.2943	968.8	84.9
963.0303	2351.7113	970.65	87.75
963.1617	2353.1275	968.2	85.65
963.293	2354.543	992.8	86.4
963.4243	2355.9578	967.5	86.55
963.5556	2357.3718	966.9	87.05
963.6868	2358.7852	965.85	84.45
963.818	2360.1978	969	84.2
963.9492	2361.6098	964.7	84.3
964.0803	2363.021	968.4	82.8
964.2114	2364.4315	969	89.2
964.3425	2365.8413	973.5	84.95
964.4736	2367.2504	966.5	88.25
964.6046	2368.6587	968.45	85.85
964.7356	2370.0664	964.75	83.1
964.8666	2371.4733	962.65	79.25
964.9975	2372.8795	964.25	80.55
965.1284	2374.285	967.65	87.45
965.2593	2375.6899	967.65	85.45
965.3901	2377.0939	962.75	81.25
965.5209	2378.4973	962.4	80.15
965.6517	2379.9	964.6	81.25
965.7825	2381.3019	964.75	85.05
965.9132	2382.7032	962.9	80.55
966.0439	2384.1037	962.95	84.8
966.1745	2385.5035	962.25	83.65
966.3051	2386.9027	959.9	79.5
966.4357	2388.3011	964.2	79.95
966.5663	2389.6987	963.25	83.55
966.6968	2391.0957	963.95	81.85
966.8273	2392.492	963.2	82.2
966.9578	2393.8876	960.5	78.05
967.0882	2395.2824	963.5	80.55
967.2186	2396.6765	959.75	77.7
967.349	2398.07	962	79.4
967.4793	2399.4627	961.25	79.45
967.6097	2400.8547	961.3	76.35
967.7399	2402.246	963.55	74
967.8702	2403.6366	960.35	77.85
968.0004	2405.0265	957.55	74.2
968.1306	2406.4156	965.85	78.65
968.2607	2407.8041	964.1	78.55
968.3909	2409.1918	963.15	77.25
968.521	2410.5789	963.35	81.2
968.651	2411.9652	963.05	76.4
968.781	2413.3508	957.85	74.1
968.911	2414.7358	956.3	72.85
969.041	2416.12	958.15	77.35
969.1709	2417.5035	960.4	78.2
969.3008	2418.8863	960.8	77.05
969.4307	2420.2684	959.95	79.35
969.5606	2421.6497	959.1	72.7
969.6904	2423.0304	958.4	77.75
969.8201	2424.4104	958.25	78.2
969.9499	2425.7896	963.35	71.3
970.0796	2427.1682	957.5	76.3
970.2093	2428.546	958.25	74.55
970.3389	2429.9232	956.55	73.55
970.4685	2431.2996	955.25	74.35
970.5981	2432.6753	954.8	70.35
970.7277	2434.0503	957.15	74.35
970.8572	2435.4246	957.25	75.5
970.9867	2436.7982	959.6	72.4
971.1161	2438.1711	958.95	78.9
971.2456	2439.5433	959.35	75.7
971.375	2440.9148	952.6	68.2
971.5043	2442.2856	951.65	70.1
971.6336	2443.6557	951.95	66.4
971.7629	2445.025	955	72.35
971.8922	2446.3937	955.6	70.75
972.0214	2447.7617	952.4	68.95
972.1506	2449.1289	951.95	70.35
972.2798	2450.4955	958.65	73.4
972.4089	2451.8613	954.8	72.7
972.538	2453.2265	953.65	71.3
972.6671	2454.5909	952.5	68.95
972.7961	2455.9546	952.2	70.1
972.9251	2457.3177	953.8	70.65
973.0541	2458.68	956.25	74.2
973.1831	2460.0416	953.95	70.6
973.312	2461.4025	953.75	71.5
973.4408	2462.7627	963.5	70.4
973.5697	2464.1222	946.7	66.4
973.6985	2465.4811	951.15	69.1
973.8273	2466.8392	950.95	68.4
973.956	2468.1966	953	69.05
974.0847	2469.5533	953.45	70.25
974.2134	2470.9093	952.45	68.55
974.3421	2472.2645	954.3	69.05
974.4707	2473.6191	949	67.05
974.5993	2474.973	950.25	68.55
974.7278	2476.3262	950.5	66.9
974.8563	2477.6787	952.9	72.8
974.9848	2479.0305	954.45	73.05
975.1132	2480.3816	951.6	67.6
975.2417	2481.7319	950.05	70.05
975.37	2483.0816	948.5	64.25
975.4984	2484.4306	949.3	67.45
975.6267	2485.7789	948.3	65.5
975.755	2487.1264	951.6	67.6
975.8833	2488.4733	948.05	67.85
976.0115	2489.8195	954.65	66.95
976.1397	2491.165	951.3	67.65
976.2678	2492.5097	950.25	68.2
976.3959	2493.8538	949.25	68.55
976.524	2495.1972	948.95	67.9
976.6521	2496.5398	947.4	65.35
976.7801	2497.8818	948.95	65.5
976.9081	2499.2231	949.8	68.65
977.036	2500.5637	950.8	68.6
977.164	2501.9035	949.4	66.1
977.2918	2503.2427	954.25	66.6
977.4197	2504.5812	945.35	64.55
977.5475	2505.919	948	63.05
977.6753	2507.256	946.9	63.4
977.8031	2508.5924	944.3	63.65
977.9308	2509.9281	955.45	67.2
978.0585	2511.2631	944.3	63.15
978.1861	2512.5974	946.75	67.85
978.3137	2513.9309	945.3	62.55
978.4413	2515.2638	971.9	61.85
978.5689	2516.596	945.5	65.45
978.6964	2517.9275	946.4	60.85
978.8239	2519.2583	946.45	63.75
978.9513	2520.5884	945.4	62.2
979.0788	2521.9178	943.75	61.35
979.2062	2523.2465	943.5	62.45
979.3335	2524.5745	942	59.45
979.4608	2525.9018	944.8	61.85
979.5881	2527.2284	945.2	63.9
979.7154	2528.5543	940.25	59.1
979.8426	2529.8796	947	66.5
979.9698	2531.2041	943.6	62.45
980.0969	2532.5279	938.5	58.5
980.224	2533.851	944.8	62.4
980.3511	2535.1735	942.75	59.55
980.4781	2536.4952	944.55	62.7
980.6052	2537.8163	943.05	59.75
980.7321	2539.1366	944	63.4
980.8591	2540.4562	946.5	62.8
980.986	2541.7752	939.9	58.5
981.1129	2543.0935	939.7	57.75
981.2397	2544.411	942.7	59.2
981.3665	2545.7279	940.75	57.3
981.4933	2547.0441	945.3	63.35
981.62	2548.3596	946.75	63.5
981.7467	2549.6744	940.85	58
981.8734	2550.9885	948.65	58.8
982.0001	2552.3019	939.25	57.95
982.1267	2553.6146	940.5	56.25
982.2532	2554.9266	942.1	60.7
982.3798	2556.2379	943.35	58.65
982.5063	2557.5485	941.75	61.35
982.6327	2558.8585	947	57.1
982.7592	2560.1677	943.15	56.7
982.8856	2561.4762	938.45	57.65
983.0119	2562.7841	944.7	60.05
983.1383	2564.0913	938.4	58.4
983.2646	2565.3977	936.15	55.9
983.3908	2566.7035	939.9	57.35
983.517	2568.0086	942.55	57.5
983.6432	2569.313	941.7	59.3
983.7694	2570.6167	942	59.05
983.8955	2571.9197	939.7	57
984.0216	2573.222	944.25	58.4
984.1476	2574.5236	939	57.2
984.2737	2575.8246	937.95	55.6
984.3996	2577.1248	942.3	55.7
984.5256	2578.4244	937.3	57.85
984.6515	2579.7232	937	58.45
984.7774	2581.0214	965.65	55.9
984.9032	2582.3189	938.55	57.25
985.029	2583.6157	946.4	60.4
985.1548	2584.9118	940.35	57.95
985.2806	2586.2072	939.65	57.8
985.4063	2587.5019	940	58.4
985.5319	2588.7959	937.9	55.5
985.6576	2590.0893	943.7	60.9
985.7832	2591.3819	937.95	56.65
985.9087	2592.6739	938.85	58.25
986.0343	2593.9652	940.55	57.7
986.1597	2595.2557	937.8	56.95
986.2852	2596.5456	939.5	55.45
986.4106	2597.8348	938.7	58.1
986.536	2599.1234	936.9	55.8
986.6614	2600.4112	939.9	59.7
986.7867	2601.6983	944.7	59.65
986.912	2602.9848	940.65	60
987.0372	2604.2705	944.75	57
987.1624	2605.5556	938.35	55.35
987.2876	2606.84	939.1	57.35
987.4128	2608.1237	941.4	58.4
987.5379	2609.4067	936	55.65
987.6629	2610.689	946.4	57.2
987.788	2611.9707	939.65	54.75
987.913	2613.2516	939.95	54.65
988.0379	2614.5319	935.6	55.8
988.1629	2615.8115	934.6	51.6
988.2878	2617.0903	938.75	56.2
988.4126	2618.3685	937.2	55.75
988.5375	2619.6461	933.55	52.45
988.6622	2620.9229	935.1	53.95
988.787	2622.199	937.3	53.85
988.9117	2623.4745	935.05	54.9
989.0364	2624.7493	933.55	51.65
989.161	2626.0234	934.1	56.15
989.2857	2627.2968	933.55	51.85
989.4102	2628.5695	934.55	52.1
989.5348	2629.8415	933.85	52.4
989.6593	2631.1128	935.9	53.8
989.7837	2632.3835	935.35	54.6
989.9082	2633.6535	933.9	51.2
990.0326	2634.9228	933	53.85
990.1569	2636.1914	932.35	52.6
990.2812	2637.4593	940.5	51.65
990.4055	2638.7265	934.4	51.6
990.5298	2639.9931	933.85	51.7
990.654	2641.259	934.9	54
990.7782	2642.5242	933.75	51.3
990.9023	2643.7887	934.65	54.1
991.0264	2645.0525	929.75	47.5
991.1505	2646.3156	933.7	52.05
991.2745	2647.5781	929.8	50.9
991.3985	2648.8398	931.3	51.8
991.5225	2650.1009	940.95	51.45
991.6464	2651.3613	931.55	50.1
991.7703	2652.6211	931.45	49
991.8942	2653.8801	927.4	47
992.018	2655.1385	932.6	47.35
992.1418	2656.3961	929.1	48.05
992.2655	2657.6531	929.05	47.25
992.3892	2658.9094	929.05	47.75
992.5129	2660.1651	931.5	51.8
992.6366	2661.42	929.05	47.3
992.7602	2662.6743	929.3	46.45
992.8837	2663.9279	929.05	49.45
993.0073	2665.1808	928.4	47.4
993.1307	2666.433	927.7	46.6
993.2542	2667.6846	926.55	43.05
993.3776	2668.9354	934.15	50
993.501	2670.1856	933.25	50.75
993.6244	2671.4351	929	49.95
993.7477	2672.6839	930.3	47.65
993.8709	2673.9321	930.2	48.7
993.9942	2675.1795	934.15	52.25
994.1174	2676.4263	930.65	49.75
994.2405	2677.6724	928.65	47.3
994.3637	2678.9179	929.4	49.5
994.4868	2680.1626	932.4	53.5
994.6098	2681.4067	929.1	46.65
994.7328	2682.6501	928.6	48.6
994.8558	2683.8928	927.3	45.2
994.9788	2685.1348	926.15	46.15
995.1017	2686.3761	927.1	49.1
995.2245	2687.6168	927.1	45.5
995.3474	2688.8568	929.4	49.3
995.4702	2690.0961	924.15	45.65
995.5929	2691.3348	926.25	43.35
995.7156	2692.5727	927.8	46.15
995.8383	2693.81	926.75	44.1
995.961	2695.0466	925.45	48.2
996.0836	2696.2826	930.6	48.4
996.2062	2697.5178	930.1	47.95
996.3287	2698.7524	925.6	45.9
996.4512	2699.9863	928.75	46.45
996.5737	2701.2195	924.65	46.8
996.6961	2702.452	928.4	45.55
996.8185	2703.6839	928.2	46.6
996.9408	2704.9151	928.2	49.05
997.0631	2706.1456	927.4	45.75
997.1854	2707.3755	930.45	50.65
997.3077	2708.6046	933.8	49.85
997.4299	2709.8331	928.85	46.35
997.552	2711.0609	930.8	50.15
997.6742	2712.2881	930.75	49.8
997.7963	2713.5145	931.45	48.65
997.9183	2714.7403	931.3	50.45
998.0403	2715.9654	930.6	50.2
998.1623	2717.1899	947.05	52.55
998.2842	2718.4136	934.6	55.1
998.4062	2719.6367	935.55	57
998.528	2720.8591	940.35	50.8
998.6498	2722.0809	938.1	56.85
998.7716	2723.3019	938.9	55.6
998.8934	2724.5223	937.55	53.55
999.0151	2725.7421	938.7	56.1
999.1368	2726.9611	936.95	53.55
999.2584	2728.1795	937.1	53.6
999.38	2729.3972	935.1	56.5
999.5016	2730.6142	941.25	52.5
999.6231	2731.8306	931.6	51.85
999.7446	2733.0462	932.8	51.55
999.8661	2734.2612	935.65	50.8
999.9875	2735.4756	931.75	51.55
1000.1089	2736.6892	925.6	43.1
1000.2302	2737.9022	925.2	44.85
1000.3515	2739.1145	928.25	46.1
1000.4728	2740.3262	934.05	46.35
1000.594	2741.5372	926.75	48.3
1000.7152	2742.7475	926.25	44.4
1000.8363	2743.9571	926.1	43.9
1000.9575	2745.1661	928.2	42.95
1001.0785	2746.3744	923.35	40.55
1001.1996	2747.582	921.6	40.95
1001.3206	2748.7889	924.85	40.6
1001.4415	2749.9952	921.8	41.85
1001.5625	2751.2008	919.05	39.4
1001.6833	2752.4057	923.75	40.65
1001.8042	2753.61	919	40.1
1001.925	2754.8136	920	39.6
1002.0458	2756.0165	919.4	40.3
1002.1665	2757.2188	917.35	38.9
1002.2872	2758.4204	918.9	37.55
1002.4078	2759.6213	918.95	35.8
1002.5285	2760.8215	925.3	41.4
1002.649	2762.0211	920.75	39.95
1002.7696	2763.22	922.4	39.5
1002.8901	2764.4182	922.45	42.2
1003.0106	2765.6158	923	42.85
1003.131	2766.8127	919.1	38.7
1003.2514	2768.009	917.3	37.15
1003.3717	2769.2045	919.85	40.1
1003.492	2770.3994	919.55	36.9
1003.6123	2771.5936	917.85	40.4
1003.7325	2772.7872	917.4	39.65
1003.8527	2773.9801	918.65	35.35
1003.9729	2775.1723	935.2	38.2
1004.093	2776.3639	915.9	37.3
1004.2131	2777.5548	920	38.5
1004.3331	2778.745	916.15	34.55
1004.4531	2779.9346	917.65	38.15
1004.5731	2781.1235	915.95	35.85
1004.693	2782.3117	915.65	35.25
1004.8129	2783.4992	916.75	38.95
1004.9328	2784.6861	918.1	37.7
1005.0526	2785.8723	917.55	36.15
1005.1723	2787.0579	915.9	34.95
1005.2921	2788.2428	916.55	37.25
1005.4118	2789.427	919.05	41.3
1005.5314	2790.6106	918.7	37.75
1005.651	2791.7935	917.1	36.2
1005.7706	2792.9757	917.4	37.9
1005.8902	2794.1573	917.7	34.35
1006.0097	2795.3382	918.8	39.9
1006.1291	2796.5184	916.3	38.1
1006.2485	2797.698	917.95	37.1
1006.3679	2798.8769	917.2	35.75
1006.4873	2800.0551	920	39.45
1006.6066	2801.2327	919.45	36.6
1006.7258	2802.4096	916.15	36.95
1006.8451	2803.5859	918.2	36.95
1006.9642	2804.7615	923.5	43.9
1007.0834	2805.9364	918.05	39.3
1007.2025	2807.1106	920.3	40.05
1007.3216	2808.2842	920.8	42.25
1007.4406	2809.4572	923.1	42.9
1007.5596	2810.6294	926.2	45.1
1007.6785	2811.801	923.05	43.35
1007.7975	2812.972	924.8	46.25
1007.9163	2814.1423	928.35	49.75
1008.0352	2815.3119	931.6	52.5
1008.154	2816.4808	931.9	54.1
1008.2727	2817.6491	937.45	57.7
1008.3914	2818.8167	937.5	58.8
1008.5101	2819.9837	948.95	64.9
1008.6288	2821.15	947.85	66.9
1008.7474	2822.3157	951.6	75.6
1008.8659	2823.4807	955.85	74.95
1008.9844	2824.645	966.25	85.2
1009.1029	2825.8086	969.7	89.5
1009.2214	2826.9716	973.85	95.3
1009.3398	2828.134	987.55	110.25
1009.4581	2829.2957	993.15	114.75
1009.5764	2830.4567	993.6	114.7
1009.6947	2831.617	1003.3	124.45
1009.813	2832.7767	1002	124.3
1009.9312	2833.9358	1005	126.65
1010.0493	2835.0941	1004.1	125
1010.1675	2836.2519	1002.4	123.85
1010.2855	2837.4089	999.35	119.85
1010.4036	2838.5653	993.15	114.8
1010.5216	2839.7211	983.75	105.55
1010.6396	2840.8761	989.1	109.95
1010.7575	2842.0306	983.15	106.2
1010.8754	2843.1843	984.8	106.8
1010.9932	2844.3374	985.7	108.15
1011.111	2845.4899	987.6	107.05
1011.2288	2846.6417	993.1	116.45
1011.3465	2847.7928	991.85	113.55
1011.4642	2848.9433	993.4	114.4
1011.5818	2850.0931	993.55	114.8
1011.6995	2851.2422	997.2	116.85
1011.817	2852.3907	999	120.65
1011.9345	2853.5385	997.5	115.85
1012.052	2854.6857	1029.15	122.05
1012.1695	2855.8323	1000.1	123.4
1012.2869	2856.9781	1002	121.8
1012.4042	2858.1233	1009.65	132.6
1012.5216	2859.2679	1009.8	132.3
1012.6389	2860.4118	1011.2	132.2
1012.7561	2861.555	1018.35	135.7
1012.8733	2862.6976	1019.65	140
1012.9905	2863.8395	1018.65	140.4
1013.1076	2864.9808	1022.95	143.7
1013.2247	2866.1214	1020.2	140.75
1013.3417	2867.2614	1027.65	148.75
1013.4587	2868.4007	1025.45	146.25
1013.5757	2869.5393	1025.75	145.1
1013.6926	2870.6773	1031.6	149.35
1013.8095	2871.8146	1037.25	155.1
1013.9263	2872.9513	1038.05	158.5
1014.0431	2874.0874	1031.7	153
1014.1599	2875.2227	1034.75	155.9
1014.2766	2876.3574	1033.2	153.2
1014.3933	2877.4915	1036.8	155.3
1014.51	2878.6249	1040.1	160.85
1014.6266	2879.7577	1043.4	160.95
1014.7431	2880.8898	1054.35	167.55
1014.8596	2882.0212	1045.05	165.55
1014.9761	2883.152	1047.05	166.95
1015.0925	2884.2821	1045.9	168.05
1015.2089	2885.4116	1049.2	171.65
1015.3253	2886.5405	1051.2	172.05
1015.4416	2887.6686	1058.45	177
1015.5579	2888.7962	1051.15	175.55
1015.6741	2889.923	1052.1	174.55
1015.7903	2891.0493	1050.3	173.9
1015.9065	2892.1748	1047.95	168.05
1016.0226	2893.2997	1057.5	180.4
1016.1387	2894.424	1051.65	171.85
1016.2547	2895.5476	1050	171.45
1016.3707	2896.6706	1056.55	179
1016.4866	2897.7929	1050.4	172.75
1016.6025	2898.9145	1056.75	178
1016.7184	2900.0355	1052.8	174.3
1016.8342	2901.1559	1059	178.1
1016.95	2902.2756	1058.8	177.15
1017.0658	2903.3946	1051.4	173.35
1017.1815	2904.513	1055.75	172.4
1017.2971	2905.6308	1055.55	176.7
1017.4127	2906.7479	1053.35	172.5
1017.5283	2907.8643	1051.5	174.7
1017.6439	2908.9801	1049.35	170
1017.7594	2910.0953	1054.05	176.25
1017.8748	2911.2098	1058.95	177.3
1017.9902	2912.3236	1057.95	175.45
1018.1056	2913.4368	1054.1	172.35
1018.2209	2914.5494	1046.9	168.5
1018.3362	2915.6613	1054.7	169.45
1018.4515	2916.7725	1051.05	170
1018.5667	2917.8831	1045.65	166.75
1018.6819	2918.9931	1040.15	158.75
1018.797	2920.1024	1039.5	158.85
1018.9121	2921.211	1032.85	153.7
1019.0271	2922.319	1034.55	154.85
1019.1421	2923.4264	1032.3	154.85
1019.2571	2924.5331	1033.55	156.5
1019.372	2925.6391	1027.15	148.6
1019.4869	2926.7445	1030.35	153.4
1019.6017	2927.8493	1030.5	152.6
1019.7165	2928.9534	1035.45	155.7
1019.8313	2930.0569	1037.05	156.3
1019.946	2931.1597	1036.45	157.05
1020.0606	2932.2619	1038.25	159.75
1020.1753	2933.3634	1036.25	156.2
1020.2899	2934.4643	1048.45	164.85
1020.4044	2935.5645	1045.15	161.65
1020.5189	2936.6641	1042.05	159.85
1020.6334	2937.763	1039.95	163.4
1020.7478	2938.8613	1042.15	164.45
1020.8622	2939.959	1043.5	160.25
1020.9765	2941.056	1036.55	158.4
1021.0908	2942.1523	1034.3	153.15
1021.2051	2943.248	1022.95	143.75
1021.3193	2944.3431	1011.5	133.75
1021.4334	2945.4375	1009.6	132.55
1021.5476	2946.5313	999.3	122.5
1021.6617	2947.6244	994.15	116.1
1021.7757	2948.7169	989.25	112.6
1021.8897	2949.8087	978.6	100.85
1022.0037	2950.8999	981.6	105.4
1022.1176	2951.9904	971.45	93.75
1022.2315	2953.0803	965.9	87.45
1022.3453	2954.1696	962.65	83.65
1022.4591	2955.2582	960.85	81.9
1022.5728	2956.3462	960.5	81.95
1022.6865	2957.4335	959	79.6
1022.8002	2958.5202	960.95	82.3
1022.9138	2959.6062	957.2	79.55
1023.0274	2960.6916	956.35	78.5
1023.141	2961.7764	956.4	76.9
1023.2545	2962.8605	956.4	77.3
1023.3679	2963.9439	956.6	80
1023.4813	2965.0267	955.35	77.65
1023.5947	2966.1089	976.6	77.55
1023.708	2967.1905	951.35	76.2
1023.8213	2968.2714	955.1	76.85
1023.9346	2969.3516	953.05	75.75
1024.0478	2970.4312	960.2	74.55
1024.1609	2971.5102	952.4	73.8
1024.274	2972.5885	952.25	74.4
1024.3871	2973.6662	957.85	73.55
1024.5002	2974.7432	952.05	76.4
1024.6132	2975.8196	954.65	76.85
1024.7261	2976.8954	953.85	77.5
1024.839	2977.9705	952.3	75.45
1024.9519	2979.045	953.55	76.8
1025.0647	2980.1188	953.5	75.3
1025.1775	2981.192	951.9	76.65
1025.2902	2982.2645	952.25	73.7
1025.4029	2983.3364	951.75	74.25
1025.5156	2984.4077	942.95	64.45
1025.6282	2985.4783	951.4	67.85
1025.7407	2986.5483	941.85	64.8
1025.8532	2987.6177	940.15	65.15
1025.9657	2988.6864	940.15	61.85
1026.0782	2989.7545	939.65	58.95
1026.1906	2990.8219	937.1	61.25
1026.3029	2991.8887	935.75	56.3
1026.4152	2992.9548	931.85	54.9
1026.5275	2994.0204	927.15	51.25
1026.6397	2995.0852	923.35	47.15
1026.7519	2996.1495	923.9	45.95
1026.864	2997.2131	922	44
1026.9761	2998.276	917.45	39.8
1027.0882	2999.3383	915.35	36.55
1027.2002	3000.4	916.3	36.8
1027.3122	3001.4611	915.6	39.75
1027.4241	3002.5215	911.65	33.65
1027.536	3003.5812	908.75	30.55
1027.6478	3004.6404	910	32.7
1027.7596	3005.6989	912.3	33.15
1027.8714	3006.7567	909.35	30.9
1027.9831	3007.8139	939.25	30.6
1028.0947	3008.8705	908.9	32.8
1028.2064	3009.9264	908.05	28.1
1028.3179	3010.9818	909.25	31.65
1028.4295	3012.0364	905.35	26.3
1028.541	3013.0905	903.65	24.55
1028.6524	3014.1439	904.65	26.2
1028.7638	3015.1966	902.85	26.85
1028.8752	3016.2487	903.95	26.25
1028.9865	3017.3002	907.85	26.3
1029.0978	3018.3511	901.2	25.45
1029.209	3019.4013	901.65	21.55
1029.3202	3020.4509	904.25	27.95
1029.4314	3021.4998	902.6	25.3
1029.5425	3022.5481	901.15	23.25
1029.6535	3023.5958	902.15	23.75
1029.7645	3024.6428	902.3	23.85
1029.8755	3025.6892	901.55	25.05
1029.9864	3026.735	899.9	23.2
1030.0973	3027.7802	902.55	25.45
1030.2082	3028.8247	901.7	24.35
1030.319	3029.8685	901.6	22.85
1030.4297	3030.9118	902.1	24.5
1030.5404	3031.9544	901.6	24.15
1030.6511	3032.9963	899.95	21.7
1030.7617	3034.0376	899.45	21
1030.8723	3035.0783	902.3	23.2
1030.9829	3036.1184	901.8	23.6
1031.0934	3037.1578	902.3	28.55
1031.2038	3038.1966	902.95	23.75
1031.3142	3039.2348	900.45	22.6
1031.4246	3040.2723	909.35	24.7
1031.5349	3041.3092	902.5	25.4
1031.6452	3042.3455	902.85	24.6
1031.7554	3043.3811	899.9	20.95
1031.8656	3044.4161	901.35	23.35
1031.9758	3045.4505	897.95	21
1032.0859	3046.4842	902.1	23.8
1032.1959	3047.5173	899.45	24.7
1032.3059	3048.5498	899.9	23.6
1032.4159	3049.5816	902.85	24.35
1032.5258	3050.6128	904.6	26.2
1032.6357	3051.6434	901.05	22.15
1032.7455	3052.6734	904.9	26.6
1032.8553	3053.7027	901.85	22.6
1032.9651	3054.7314	900.85	24.5
1033.0748	3055.7594	901.2	25.15
1033.1845	3056.7868	903.1	26.4
1033.2941	3057.8136	903.4	27.55
1033.4037	3058.8398	903.4	27.05
1033.5132	3059.8653	902.05	24.15
1033.6227	3060.8902	903.55	28.15
1033.7321	3061.9145	902.7	24.6
1033.8415	3062.9381	906	29.7
1033.9509	3063.9612	917.9	23.45
1034.0602	3064.9835	905.35	26.95
1034.1694	3066.0053	907	28.95
1034.2787	3067.0264	901.8	24.85
1034.3878	3068.0469	905.2	27.05
1034.497	3069.0668	904.4	26.45
1034.6061	3070.086	901.1	24.95
1034.7151	3071.1046	902	25.05
1034.8241	3072.1226	905.75	27.2
1034.9331	3073.1399	902.75	27.1
1035.042	3074.1567	903.3	27.1
1035.1508	3075.1727	904	23.5
1035.2597	3076.1882	901.6	25.1
1035.3684	3077.203	899.95	23.25
1035.4772	3078.2173	899.95	21.75
1035.5859	3079.2308	901.95	22.05
1035.6945	3080.2438	900.95	21.95
1035.8031	3081.2561	896.6	18.65
1035.9117	3082.2678	895.9	18.5
1036.0202	3083.2789	897.2	18
1036.1286	3084.2893	897.1	21.65
1036.2371	3085.2991	895.95	18
1036.3454	3086.3083	899.95	19.65
1036.4538	3087.3169	897.25	18.7
1036.562	3088.3248	898.7	20.5
1036.6703	3089.3321	897.6	18.35
1036.7785	3090.3388	892.75	16.05
1036.8866	3091.3449	895.4	17.35
1036.9948	3092.3503	894.9	17.95
1037.1028	3093.3551	893.95	17.45
1037.2108	3094.3593	892.6	17.4
1037.3188	3095.3629	895.45	18.2
1037.4267	3096.3658	895.7	16.15
1037.5346	3097.3681	894.85	19.2
1037.6425	3098.3698	893.1	14.05
1037.7503	3099.3708	895.9	18.75
1037.858	3100.3713	894.35	17.55
1037.9657	3101.3711	894	17.8
1038.0734	3102.3702	1029.8	11.55
1038.181	3103.3688	896.55	20
1038.2886	3104.3667	890.8	14.3
1038.3961	3105.364	892.55	15.85
1038.5036	3106.3607	893.05	13.25
1038.611	3107.3568	891.9	15.6
1038.7184	3108.3522	892	17.05
1038.8257	3109.347	892.15	13.8
1038.933	3110.3412	893.7	10.6
1039.0403	3111.3348	888.85	13
1039.1475	3112.3277	893.25	16.25
1039.2547	3113.32	888.75	11.3
1039.3618	3114.3117	890.3	13.75
1039.4689	3115.3028	891	14.7
1039.5759	3116.2932	893.1	13.8
1039.6829	3117.2831	895.05	11.7
1039.7898	3118.2723	890.3	12.9
1039.8967	3119.2608	889.25	12.6
1040.0035	3120.2488	888	10.75
1040.1103	3121.2361	891.8	14
1040.2171	3122.2229	888.55	11.05
1040.3238	3123.209	891.85	14.3
1040.4305	3124.1944	888.9	12.55
1040.5371	3125.1793	890.85	11.95
1040.6437	3126.1635	888.6	11.4
1040.7502	3127.1471	888.2	13
1040.8567	3128.1301	887.6	11.1
1040.9631	3129.1125	890.7	15.5
1041.0695	3130.0942	888.8	11.7
1041.1759	3131.0753	897.75	11.1
1041.2822	3132.0558	891.8	10.5
1041.3884	3133.0357	888.05	10.7
1041.4946	3134.015	888.8	10.05
1041.6008	3134.9936	889.85	12.5
1041.7069	3135.9716	909.6	11.3
1041.813	3136.949	887.25	12.85
1041.919	3137.9258	905.95	9.85
1042.025	3138.902	892.15	9.8
1042.1309	3139.8775	885.1	9.4
1042.2368	3140.8524	888.3	9.7
1042.3427	3141.8267	889.95	10.1
1042.4485	3142.8004	888.8	13.2
1042.5542	3143.7735	895.1	13
1042.6599	3144.7459	888.2	10.6
1042.7656	3145.7178	888.35	10.9
1042.8712	3146.689	883.65	6.3
1042.9768	3147.6596	887.25	9.85
1043.0823	3148.6295	885.7	6.5
1043.1878	3149.5989	887.4	11.3
1043.2932	3150.5676	886.05	10.1
1043.3986	3151.5357	885.9	11.65
1043.5039	3152.5032	884.8	9.5
1043.6092	3153.4701	884.85	6.9
1043.7145	3154.4364	887.65	8.3
1043.8197	3155.402	884.25	6.95
1043.9248	3156.367	889.9	11.3
1044.03	3157.3315	929.15	6.75
1044.135	3158.2952	888.45	12.6
1044.24	3159.2584	883.6	9.1
1044.345	3160.221	884.4	5.95
1044.4499	3161.1829	885.95	8.5
1044.5548	3162.1442	887.2	10.9
1044.6596	3163.105	885.6	7.9
1044.7644	3164.065	885.25	8.65
1044.8692	3165.0245	887.1	6.55
1044.9739	3165.9834	884.05	7.95
1045.0785	3166.9416	883.9	7.05
1045.1831	3167.8993	885.7	8.45
1045.2877	3168.8563	884.95	6.4
1045.3922	3169.8127	882.45	7.05
1045.4966	3170.7684	886.4	9.3
1045.6011	3171.7236	884.2	7.5
1045.7054	3172.6782	884.15	7.9
1045.8098	3173.6321	886.15	9.75
1045.914	3174.5854	890.35	8.55
1046.0183	3175.5381	883.85	7.75
1046.1224	3176.4902	883.05	6
1046.2266	3177.4417	884.2	7.35
1046.3307	3178.3926	881.6	5.1
1046.4347	3179.3428	882.5	5.85
1046.5387	3180.2924	884.85	9.45
1046.6427	3181.2415	882.45	6
1046.7466	3182.1899	885	5.4
1046.8504	3183.1377	881.65	5.05
1046.9542	3184.0848	888.6	7.4
1047.058	3185.0314	885.2	10.1
1047.1617	3185.9773	884.45	6.2
1047.2654	3186.9227	883.4	7.3
1047.369	3187.8674	882.8	5.7
1047.4726	3188.8115	887.75	9.2
1047.5761	3189.755	884.35	7.55
1047.6796	3190.6979	883.7	7.8
1047.783	3191.6402	881.9	5.55
1047.8864	3192.5818	884.05	7.7
1047.9898	3193.5229	896.45	8.8
1048.0931	3194.4633	883.7	7.45
1048.1963	3195.4031	885.6	9.65
1048.2995	3196.3423	883.6	5.7
1048.4027	3197.2809	884.65	6.7
1048.5058	3198.2189	883.6	6.4
1048.6089	3199.1563	889.7	7.4
1048.7119	3200.0931	882.85	7.4
1048.8148	3201.0292	880.35	5
1048.9178	3201.9648	884.3	6.6
1049.0206	3202.8997	886.5	8
1049.1235	3203.834	883.5	7
1049.2262	3204.7677	884.4	7.65
1049.329	3205.7008	885.15	6.55
1049.4317	3206.6333	881.25	7.15
1049.5343	3207.5652	884.35	6.5
1049.6369	3208.4964	883.8	7.8
1049.7394	3209.4271	881.95	6.75
1049.8419	3210.3571	882.9	7.95
1049.9444	3211.2865	884.3	5.95
1050.0468	3212.2154	881.95	4.8
1050.1491	3213.1436	885.05	3.7
1050.2514	3214.0712	889.3	6.5
1050.3537	3214.9982	882.75	4.95
1050.4559	3215.9246	885.25	7.35
1050.5581	3216.8503	881.7	6.6
1050.6602	3217.7755	883.25	5.05
1050.7623	3218.7001	881.65	6.65
1050.8643	3219.624	883.45	7.05
1050.9663	3220.5473	883.6	7.75
1051.0682	3221.4701	884.35	7.5
1051.1701	3222.3922	886.35	8.1
1051.2719	3223.3137	881.95	6.05
1051.3737	3224.2346	883.4	6.95
1051.4754	3225.1549	882.5	5.2
1051.5771	3226.0746	882	6.45
1051.6788	3226.9937	883.5	6.05
1051.7804	3227.9121	881.2	6.7
1051.8819	3228.83	881.85	6.5
1051.9834	3229.7473	882.25	6.25
1052.0849	3230.6639	882.25	8.25
1052.1863	3231.5799	883.55	8
1052.2876	3232.4954	883.5	6.45
1052.3889	3233.4102	879.75	3.45
1052.4902	3234.3244	881.55	5
1052.5914	3235.238	880.45	5.45
1052.6926	3236.151	904.6	3.8
1052.7937	3237.0634	880.45	3.8
1052.8948	3237.9752	880.8	5.95
1052.9958	3238.8864	882.55	6.55
1053.0968	3239.797	880	3.7
1053.1977	3240.7069	879.9	0.65
1053.2986	3241.6163	882.7	4.4
1053.3994	3242.5251	880.7	3.65
1053.5002	3243.4332	880.05	3.85
1053.6009	3244.3408	883.1	7.05
1053.7016	3245.2477	879.25	2.8
1053.8022	3246.154	884.75	6.8
1053.9028	3247.0598	881.85	4.7
1054.0034	3247.9649	880.3	4.95
1054.1039	3248.8694	881.15	4.5
1054.2043	3249.7733	880	3.05
1054.3047	3250.6766	878.5	2.3
1054.4051	3251.5793	883.15	5.55
1054.5054	3252.4814	881.05	5.65
1054.6056	3253.3829	880.15	3.05
1054.7058	3254.2838	879.25	2.8
1054.806	3255.1841	881.1	4.95
1054.9061	3256.0838	881.8	5.8
1055.0061	3256.9829	880.1	4.7
1055.1062	3257.8814	882.2	2.45
1055.2061	3258.7792	881.7	2.45
1055.306	3259.6765	883.75	6.35
1055.4059	3260.5731	879.25	4.15
1055.5057	3261.4692	882.75	6.7
1055.6055	3262.3647	882.05	4.7
1055.7052	3263.2595	879.35	2.95
1055.8049	3264.1538	880.7	3.85
1055.9045	3265.0474	879.2	3.15
1056.0041	3265.9404	879.5	3.45
1056.1036	3266.8329	880.05	4.5
1056.2031	3267.7247	888.8	3.25
1056.3025	3268.616	879.75	5.5
1056.4019	3269.5066	881.75	4.6
1056.5013	3270.3966	882.25	4.2
1056.6005	3271.286	875.75	-1.25
