Software Version:	3.9.2.0
Unit SN:	10000200
Spectrometer SN:	6960
Date:	3/8/2024 1:26:30 PM
Data Line Index:	25
Spectral Points:	2048
Integration time (ms):	125
Averages:	20
Delay (ms):	30000
Sequence Number:	1
Processing:	dark subtract
Laser Power (mW):	305
Laser Current (mA):	822
Laser Diode Temp (C):	25.1
Laser Case Temp (C):	26.3
System Temp (C):	26.2
Spectrometer Temp (C):	24.1
CCD Temp (C):	0.009
Secondary Temp (C):	20.01
Heatsink Temp (C):	21.366
CCDPCB Temp (C):	36.296
SecondaryPCB Temp (C):	30.749

Wavelength	RamanShift	Raw Counts	Dark Subtracted
787.061	30.1047	453.3	45.15
787.2016	32.3739	453.25	46.4
787.3422	34.6426	459.5	53.75
787.4828	36.9109	462.55	54.9
787.6235	39.1787	470.75	58.95
787.7642	41.4461	482.75	64.35
787.9049	43.7131	487.55	68.4
788.0456	45.9796	495.3	71.1
788.1863	48.2456	504.15	77.8
788.3271	50.5112	512.95	78.1
788.4679	52.7764	524.1	88.45
788.6087	55.0411	532.9	92.9
788.7496	57.3054	546.4	101.9
788.8904	59.5692	549.65	103.5
789.0313	61.8326	562.6	113.7
789.1722	64.0955	574.3	122.85
789.3132	66.3579	591.25	134.7
789.4541	68.6199	614.7	153.8
789.5951	70.8815	640.5	174.3
789.7361	73.1426	720.3	249.5
789.8771	75.4032	918.9	443.55
790.0181	77.6634	1394.7	915.65
790.1592	79.9231	2514.4	2026.65
790.3003	82.1824	4956.7	4451.6
790.4414	84.4412	9318.9	8781.3
790.5825	86.6995	15365.75	14789.55
790.7237	88.9574	21241.4	20631.8
790.8648	91.2148	25285.3	24653.8
791.006	93.4717	27107.6	26456.75
791.1472	95.7282	27439.95	26784.45
791.2885	97.9842	27267.4	26606.9
791.4297	100.2398	26643.45	25982.25
791.571	102.4949	25946.85	25280.75
791.7123	104.7495	25129.95	24460.6
791.8536	107.0036	24310.8	23643
791.9949	109.2573	23530.2	22867.45
792.1363	111.5105	22756.7	22082
792.2777	113.7632	22017.15	21342.4
792.4191	116.0154	21362.8	20681.05
792.5605	118.2672	20941.35	20263.55
792.7019	120.5185	20463.45	19780.8
792.8434	122.7693	20076.9	19396.35
792.9849	125.0197	19770.9	19084.35
793.1264	127.2696	19459.85	18768.05
793.2679	129.519	19308.05	18613.25
793.4094	131.7679	19093.85	18400.25
793.551	134.0163	18889.75	18187.75
793.6926	136.2642	18639.5	17932.8
793.8342	138.5117	18379.9	17670.3
793.9758	140.7587	18087.2	17381.05
794.1175	143.0052	17872.55	17163.1
794.2591	145.2512	17565	16853.3
794.4008	147.4967	17318.55	16608.4
794.5425	149.7417	17130.1	16419.7
794.6842	151.9863	16984.25	16264.05
794.826	154.2304	16953.05	16228.75
794.9677	156.4739	16772.55	16042.7
795.1095	158.717	16717.15	15988.05
795.2513	160.9596	16518.6	15786.45
795.3931	163.2017	16285.1	15549.7
795.535	165.4433	15994.1	15255.35
795.6768	167.6844	15620.15	14879
795.8187	169.925	15313.55	14574.25
795.9606	172.1651	14933	14189.4
796.1025	174.4047	14649.8	13905.1
796.2445	176.6439	14392.5	13647.45
796.3864	178.8825	14161.35	13409.5
796.5284	181.1206	13988.55	13228.65
796.6704	183.3582	13833.3	13072.05
796.8124	185.5954	13710.9	12948.4
796.9544	187.832	13641.55	12877.8
797.0965	190.0681	13611.55	12840.7
797.2386	192.3037	13591.55	12815.9
797.3806	194.5388	13575.65	12798.8
797.5228	196.7734	13624.9	12848.6
797.6649	199.0075	13660.8	12883.7
797.807	201.2411	13786.2	13001.15
797.9492	203.4742	13853.45	13072.9
798.0914	205.7068	13998.5	13206.6
798.2336	207.9389	14112.8	13326.9
798.3758	210.1704	14284.65	13502
798.518	212.4015	14356.35	13586.35
798.6603	214.632	14522.4	13758.25
798.8025	216.862	14716.65	13951.7
798.9448	219.0915	14835.85	14070.85
799.0871	221.3205	15050.05	14281.35
799.2294	223.549	15232.5	14469.3
799.3718	225.777	15473.55	14708.8
799.5141	228.0044	15768.25	14995.75
799.6565	230.2314	16162.35	15387.45
799.7989	232.4578	16523.35	15746.5
799.9413	234.6837	16827	16043.45
800.0837	236.909	17016.15	16228.05
800.2262	239.1339	16972.85	16161.95
800.3687	241.3582	16813.65	16016.7
800.5111	243.582	16536.6	15709.55
800.6536	245.8053	16228.05	15415.5
800.7961	248.0281	16003.05	15194.15
800.9387	250.2503	15793.65	14981.05
801.0812	252.472	15702	14890.1
801.2238	254.6932	15669.45	14855.45
801.3664	256.9139	15671.6	14858.7
801.509	259.134	15732.45	14916.25
801.6516	261.3536	15773.35	14953.15
801.7942	263.5727	15855.7	15035.05
801.9369	265.7912	15914.55	15094.6
802.0795	268.0092	16020.1	15201.9
802.2222	270.2267	16019.95	15196.15
802.3649	272.4436	16037.95	15217.9
802.5076	274.6601	16011.75	15183.4
802.6504	276.8759	15903.15	15080.15
802.7931	279.0913	15804.9	14983.6
802.9359	281.3061	15760.6	14932.65
803.0787	283.5204	15772.5	14943.05
803.2215	285.7341	15811.45	14976
803.3643	287.9473	15940.35	15096.05
803.5071	290.16	16111.6	15276.4
803.6499	292.3721	16381.4	15551.1
803.7928	294.5837	16740.4	15909
803.9357	296.7947	17068.25	16235.75
804.0786	299.0052	17274.2	16440.1
804.2215	301.2152	17184.15	16349.7
804.3644	303.4246	16863.4	16030.7
804.5074	305.6334	16342.85	15509.3
804.6503	307.8418	15849.4	15015.8
804.7933	310.0495	15422.55	14587.85
804.9363	312.2568	15080.75	14242.85
805.0793	314.4635	14836.75	13996.1
805.2223	316.6696	14655.4	13811.8
805.3653	318.8752	14574.1	13719.7
805.5084	321.0802	14597.45	13753.55
805.6514	323.2847	14685.95	13839.25
805.7945	325.4887	14731.1	13879.9
805.9376	327.692	14681.5	13829.2
806.0807	329.8949	14552.85	13704.2
806.2238	332.0972	14316.85	13471.15
806.367	334.2989	14051.35	13195.9
806.5101	336.5001	13794.15	12936.95
806.6533	338.7007	13589.65	12733.8
806.7965	340.9008	13466.5	12604.95
806.9397	343.1003	13307.5	12451.25
807.0829	345.2992	13251.8	12391.95
807.2261	347.4976	13240.45	12380
807.3693	349.6955	13173.5	12308.4
807.5126	351.8927	13222.7	12355.85
807.6559	354.0895	13222.95	12348.25
807.7991	356.2856	13209.25	12342.1
807.9424	358.4812	13208.95	12341.1
808.0857	360.6763	13213.9	12345.75
808.2291	362.8707	13199.75	12324.75
808.3724	365.0646	13234.7	12364.65
808.5158	367.258	13284.05	12411.2
808.6591	369.4508	13313.8	12439.1
808.8025	371.643	13406.4	12527.7
808.9459	373.8346	13425.65	12547.05
809.0893	376.0257	13396.9	12512.95
809.2327	378.2162	13338.45	12457.45
809.3762	380.4062	13307.3	12427.65
809.5196	382.5956	13130.95	12256
809.6631	384.7844	13005.3	12136.45
809.8066	386.9726	12938.35	12068.95
809.9501	389.1603	12864.1	11994.55
810.0936	391.3474	12803.1	11899.9
810.2371	393.5339	12788.8	11915.6
810.3806	395.7199	12745.55	11873.1
810.5241	397.9052	12768.8	11896.65
810.6677	400.09	12792.6	11918.3
810.8113	402.2743	12884.1	12009.25
810.9548	404.4579	12979.75	12104.05
811.0984	406.641	13187.3	12315.1
811.2421	408.8235	13361.9	12487.4
811.3857	411.0054	13655.3	12773.3
811.5293	413.1868	14033.3	13152.2
811.673	415.3675	14298.7	13412.35
811.8166	417.5477	14435.75	13548.2
811.9603	419.7273	14473.75	13587.95
812.104	421.9064	14376	13483.55
812.2477	424.0848	14259.85	13372.4
812.3914	426.2627	14084.3	13197
812.5351	428.4399	13795	12904.05
812.6788	430.6166	13426.75	12533.35
812.8226	432.7928	13080.65	12186.5
812.9663	434.9683	12759.35	11866.15
813.1101	437.1432	12547.85	11665.35
813.2539	439.3176	12387.35	11504.9
813.3977	441.4914	12256.85	11378.35
813.5415	443.6645	12230.35	11349.3
813.6853	445.8371	12171	11283.2
813.8291	448.0091	12135.3	11244.65
813.973	450.1806	12084.8	11201.2
814.1168	452.3514	12074.6	11185.65
814.2607	454.5216	12083.4	11186
814.4046	456.6913	12042.95	11155.2
814.5485	458.8603	12039.05	11154.05
814.6924	461.0288	12090.5	11212.8
814.8363	463.1967	12099.4	11222.45
814.9802	465.3639	12215.9	11333.3
815.1241	467.5306	12277.15	11390.05
815.2681	469.6967	12362.65	11478.15
815.412	471.8622	12492.9	11613.1
815.556	474.0271	12619.95	11733.3
815.7	476.1914	12691.7	11801.55
815.844	478.3551	12686.65	11796
815.988	480.5182	12691.95	11808.3
816.132	482.6807	12673.05	11794.1
816.276	484.8426	12841	11967.65
816.4201	487.0039	13134.65	12255.65
816.5641	489.1647	13532.4	12644.6
816.7082	491.3248	13945.75	13053.65
816.8522	493.4843	14102.7	13219.85
816.9963	495.6432	14086.7	13205.65
817.1404	497.8015	13973.1	13077.9
817.2845	499.9592	13930.95	13028.45
817.4286	502.1163	13873.75	12969.9
817.5727	504.2728	13578.3	12686.95
817.7168	506.4287	13302.65	12426.6
817.861	508.5839	12898.55	12018.3
818.0051	510.7386	12578.9	11690.4
818.1493	512.8927	12443.5	11547.3
818.2935	515.0461	12332.5	11433.55
818.4377	517.199	12348.3	11448.6
818.5818	519.3512	12382	11481.45
818.726	521.5029	12506.7	11602.95
818.8703	523.6539	12603.85	11708.65
819.0145	525.8043	12659.25	11755.8
819.1587	527.9541	12640.25	11735.2
819.303	530.1033	12572.55	11669.65
819.4472	532.2519	12580.7	11678.8
819.5915	534.3999	12680.75	11779.7
819.7357	536.5472	12898.65	12000.85
819.88	538.694	13264.2	12363.3
820.0243	540.8401	13770.9	12863.35
820.1686	542.9856	14205.15	13291.3
820.3129	545.1305	14337.55	13414.9
820.4572	547.2748	14207.75	13288.05
820.6016	549.4185	13910.9	12988.45
820.7459	551.5615	13585.55	12670.8
820.8902	553.704	13475.8	12560.7
821.0346	555.8458	13457.5	12544.95
821.1789	557.987	13548.65	12637.95
821.3233	560.1276	13580.35	12670.55
821.4677	562.2675	13712.75	12802.1
821.6121	564.4069	13873.8	12962.3
821.7565	566.5456	14003.4	13093.6
821.9009	568.6837	13997.55	13089.2
822.0453	570.8212	13678.7	12772.15
822.1897	572.958	13248.6	12338.2
822.3342	575.0942	12864.3	11957.4
822.4786	577.2299	12606.9	11705.9
822.6231	579.3648	12526.45	11637.25
822.7675	581.4992	12559.55	11680.05
822.912	583.6329	12738.65	11856.1
823.0565	585.766	12958.1	12071.9
823.201	587.8985	13105.25	12212.7
823.3454	590.0304	13125.8	12196.8
823.4899	592.1616	13043.45	12129.25
823.6345	594.2922	12928.65	12015.45
823.779	596.4222	12779.65	11862.15
823.9235	598.5515	12606.35	11686.2
824.068	600.6802	12428.75	11512.7
824.2126	602.8083	12266.7	11356.1
824.3571	604.9358	12206.05	11290.65
824.5017	607.0626	12176.7	11257.4
824.6462	609.1888	12172.95	11246.25
824.7908	611.3144	12200.45	11271.5
824.9354	613.4393	12144.25	11221.1
825.08	615.5636	12106.95	11180.9
825.2246	617.6873	12059.2	11134.55
825.3692	619.8103	11969.85	11046.35
825.5138	621.9327	11870.8	10953
825.6584	624.0544	11787.9	10871.15
825.803	626.1756	11695.15	10779.85
825.9477	628.2961	11632.65	10712.15
826.0923	630.4159	11553.55	10629.9
826.237	632.5351	11526.65	10598.85
826.3816	634.6537	11479.6	10553.9
826.5263	636.7716	11471.3	10542.7
826.6709	638.8889	11475.95	10542.75
826.8156	641.0056	11506.9	10573.65
826.9603	643.1216	11498.4	10567.65
827.105	645.237	11504.5	10579.55
827.2497	647.3518	11460.3	10542.65
827.3944	649.4659	11444.35	10531.05
827.5391	651.5793	11456.15	10541.15
827.6838	653.6922	11422.95	10507.3
827.8285	655.8043	11424.85	10507.95
827.9733	657.9159	11409.1	10487.4
828.118	660.0268	11351	10428.4
828.2627	662.137	11304.65	10383.65
828.4075	664.2466	11297.25	10366.8
828.5522	666.3556	11266.15	10337.45
828.697	668.4639	11244.9	10320.75
828.8418	670.5716	11273.3	10356.5
828.9865	672.6786	11316.9	10390.05
829.1313	674.785	11352.3	10421.45
829.2761	676.8907	11382.8	10457.05
829.4209	678.9958	11460.6	10539.3
829.5657	681.1002	11450.6	10526.65
829.7105	683.204	11412.55	10476.15
829.8553	685.3072	11380.25	10450.45
830.0001	687.4097	11331.05	10399.8
830.1449	689.5115	11288.9	10356
830.2898	691.6127	11259.55	10335.25
830.4346	693.7132	11205.65	10282.65
830.5794	695.8131	11183.5	10240.3
830.7243	697.9123	11179.45	10246.45
830.8691	700.0109	11152.8	10216.2
831.014	702.1089	11166.65	10232.75
831.1588	704.2061	11192.55	10260.1
831.3037	706.3028	11232.9	10299.25
831.4486	708.3987	11269.75	10333.7
831.5935	710.4941	11339.55	10405.15
831.7383	712.5887	11496.5	10561.35
831.8832	714.6827	11703.2	10766.65
832.0281	716.7761	11976.65	11051.75
832.173	718.8688	12317.55	11390.15
832.3179	720.9608	12491.8	11554.15
832.4628	723.0522	12579.05	11635
832.6077	725.1429	12431.4	11494.05
832.7527	727.233	12267.75	11329.3
832.8976	729.3224	12104.45	11171.65
833.0425	731.4112	11877.95	10940.15
833.1874	733.4993	11729.75	10794.05
833.3324	735.5867	11544.25	10614.15
833.4773	737.6735	11434.6	10499.6
833.6222	739.7596	11323.65	10389.3
833.7672	741.845	11218.7	10282.65
833.9122	743.9298	11192.05	10258.4
834.0571	746.014	11179.25	10247.3
834.2021	748.0974	11193.4	10248
834.347	750.1802	11178.95	10235.8
834.492	752.2624	11206.7	10264
834.637	754.3439	11266	10325.15
834.782	756.4247	11340	10390
834.9269	758.5048	11470.1	10529.85
835.0719	760.5843	11707.95	10765.65
835.2169	762.6631	12053	11111.65
835.3619	764.7413	12581.75	11642.55
835.5069	766.8188	13197.2	12255.65
835.6519	768.8956	13678.15	12732.9
835.7969	770.9718	13996.35	13052.75
835.9419	773.0473	13843.7	12903.65
836.0869	775.1221	13558.85	12615.45
836.232	777.1962	13206.4	12264.2
836.377	779.2697	13053.9	12109.2
836.522	781.3426	13086.4	12134.15
836.667	783.4147	13297.7	12353.75
836.8121	785.4862	13564.2	12625.8
836.9571	787.557	13527.85	12583.25
837.1021	789.6271	13157.65	12210.3
837.2472	791.6966	12589.45	11643.75
837.3922	793.7654	12013.65	11069.95
837.5373	795.8335	11684.55	10740.5
837.6823	797.901	11429.3	10483.15
837.8274	799.9678	11345	10401.2
837.9724	802.0339	11360.55	10414.5
838.1175	804.0993	11395.7	10436.95
838.2626	806.1641	11330.3	10383.4
838.4076	808.2282	11298.5	10353.55
838.5527	810.2916	11213.3	10266.2
838.6978	812.3544	11113.55	10170.05
838.8428	814.4164	11032.25	10086.2
838.9879	816.4778	11048.6	10103.9
839.133	818.5385	11073.05	10122.8
839.2781	820.5986	11161.3	10211.55
839.4232	822.658	11310.85	10360.95
839.5682	824.7166	11483.55	10534.8
839.7133	826.7747	11807.65	10857.2
839.8584	828.832	12073.25	11121.7
840.0035	830.8886	12314.75	11361.85
840.1486	832.9446	12447.75	11494.9
840.2937	834.9999	12410.95	11465.75
840.4388	837.0545	12364.65	11412.9
840.5839	839.1085	12256.75	11307.45
840.729	841.1618	12133.85	11183.15
840.8741	843.2143	12021.95	11071.6
841.0192	845.2662	11929.8	10982.35
841.1643	847.3175	11849.65	10899
841.3095	849.368	11737.1	10788.4
841.4546	851.4179	11637.25	10688.65
841.5997	853.467	11511.25	10561.2
841.7448	855.5155	11404.9	10454.3
841.8899	857.5633	11291.1	10340.85
842.0351	859.6105	11203.6	10251
842.1802	861.6569	11164.6	10217.8
842.3253	863.7027	11110.25	10155.15
842.4704	865.7478	11077.1	10123.35
842.6156	867.7922	11088.15	10134.8
842.7607	869.8359	11092.65	10138.1
842.9058	871.8789	11197.15	10246.3
843.0509	873.9212	11339.15	10360.85
843.1961	875.9629	11453.75	10501.85
843.3412	878.0039	11620.2	10668.4
843.4863	880.0441	11703.4	10755.75
843.6315	882.0837	11765.35	10815.85
843.7766	884.1226	11711.85	10761.6
843.9218	886.1609	11655.55	10702.85
844.0669	888.1984	11619.75	10669.25
844.212	890.2352	11627.5	10675.15
844.3572	892.2714	11629.3	10672.35
844.5023	894.3069	11590.1	10633.6
844.6475	896.3416	11506.75	10551.8
844.7926	898.3757	11400.8	10446.45
844.9377	900.4091	11387.35	10435.2
845.0829	902.4418	11410.25	10452.4
845.228	904.4739	11410.9	10451.85
845.3732	906.5052	11433.95	10476.15
845.5183	908.5358	11368.15	10411.85
845.6635	910.5658	11250.5	10294.55
845.8086	912.595	11040.6	10084.05
845.9538	914.6236	10877.05	9921
846.0989	916.6515	10771.05	9817.1
846.2441	918.6786	10749.55	9792.6
846.3892	920.7051	10804.5	9845.9
846.5344	922.7309	10873.5	9917.05
846.6795	924.756	10949.4	9995.25
846.8246	926.7804	11069.05	10116.9
846.9698	928.8041	11020.05	10064.85
847.1149	930.8272	11077.65	10122.2
847.2601	932.8495	11024.7	10065.5
847.4052	934.8711	10997.8	10042.6
847.5504	936.892	10873.45	9920.55
847.6955	938.9123	10758.1	9800.95
847.8407	940.9318	10701.15	9746.3
847.9858	942.9506	10629.6	9673.1
848.131	944.9688	10542.25	9588.45
848.2761	946.9862	10481.95	9525.95
848.4213	949.003	10394.5	9439.2
848.5664	951.019	10368.1	9417.9
848.7115	953.0344	10382.05	9428.9
848.8567	955.0491	10411.65	9455.1
849.0018	957.063	10458.35	9498.6
849.147	959.0763	10548.45	9595.95
849.2921	961.0888	10614.5	9655.8
849.4373	963.1007	10696.6	9745.95
849.5824	965.1119	10727.75	9782.35
849.7275	967.1223	10736.4	9797.3
849.8727	969.1321	10748.95	9811.85
850.0178	971.1412	10778.1	9832.25
850.1629	973.1495	10780.35	9830.3
850.3081	975.1572	10861.05	9861.3
850.4532	977.1641	10866.45	9910.95
850.5983	979.1704	10825.85	9869.95
850.7435	981.1759	10818.2	9859.35
850.8886	983.1808	10908.95	9953
851.0337	985.1849	10957.35	9991.05
851.1788	987.1884	11055.05	10100.1
851.324	989.1911	11218.8	10265.75
851.4691	991.1932	11339.2	10388.05
851.6142	993.1945	11364.55	10409.8
851.7593	995.1951	11339.05	10384.65
851.9045	997.1951	11322.8	10362.2
852.0496	999.1943	11231.85	10277.2
852.1947	1001.1928	11218.65	10261.3
852.3398	1003.1906	11236.05	10283.85
852.4849	1005.1877	11310.95	10356.2
852.63	1007.1841	11316.95	10367.7
852.7751	1009.1798	11280.45	10329.4
852.9202	1011.1748	11151.85	10198.9
853.0653	1013.1691	10972.75	10018
853.2104	1015.1627	10760.75	9804.7
853.3555	1017.1556	10561.65	9609.6
853.5006	1019.1477	10439.8	9491.85
853.6457	1021.1392	10372.4	9426.8
853.7908	1023.1299	10351.05	9410.4
853.9359	1025.12	10382.45	9446.75
854.081	1027.1093	10434.4	9509.9
854.2261	1029.0979	10527	9608.6
854.3712	1031.0859	10627.3	9699.35
854.5163	1033.0731	10630.1	9690.5
854.6613	1035.0596	10556	9614.25
854.8064	1037.0454	10438.65	9489.8
854.9515	1039.0304	10338	9389.55
855.0965	1041.0148	10204.1	9253.25
855.2416	1042.9985	10145.3	9192.1
855.3867	1044.9814	10066.45	9120.25
855.5317	1046.9636	10054.65	9100.75
855.6768	1048.9452	10024.3	9077.6
855.8219	1050.926	10081.9	9129.25
855.9669	1052.9061	10083.8	9134.65
856.112	1054.8855	10070.9	9117.75
856.257	1056.8642	10117.75	9168
856.4021	1058.8421	10177.2	9216.4
856.5471	1060.8194	10196.35	9242.3
856.6921	1062.7959	10263.65	9311
856.8372	1064.7717	10306.6	9351.85
856.9822	1066.7469	10337.9	9383
857.1272	1068.7213	10342.75	9386.5
857.2723	1070.695	10357.8	9406.15
857.4173	1072.6679	10341.75	9390.65
857.5623	1074.6402	10316.8	9362.95
857.7073	1076.6117	10291.3	9333.05
857.8523	1078.5826	10240.95	9286.95
857.9973	1080.5527	10212.65	9258.05
858.1423	1082.5221	10282	9329.55
858.2873	1084.4908	10402.8	9454.05
858.4323	1086.4587	10541.55	9589.6
858.5773	1088.426	10628.15	9676.05
858.7223	1090.3925	10621.95	9664
858.8673	1092.3584	10644.25	9691.7
859.0123	1094.3235	10520.75	9569.1
859.1573	1096.2879	10505.9	9553.9
859.3022	1098.2515	10562.9	9607.95
859.4472	1100.2145	10646.4	9695.75
859.5922	1102.1767	10744.2	9793
859.7371	1104.1382	10930.95	9980.5
859.8821	1106.099	11168.6	10218.15
860.027	1108.0591	11395.5	10444.1
860.172	1110.0185	11554.8	10600.1
860.3169	1111.9771	11597.7	10645.95
860.4619	1113.9351	11405.7	10452.15
860.6068	1115.8923	11180.7	10233.9
860.7517	1117.8488	10942.1	9992.1
860.8967	1119.8045	10651.25	9702.7
861.0416	1121.7596	10552.65	9603.7
861.1865	1123.7139	10458.95	9509.9
861.3314	1125.6675	10452.75	9499.85
861.4763	1127.6204	10536.05	9587.8
861.6212	1129.5726	10492.25	9541.1
861.7661	1131.524	10462.8	9514.2
861.911	1133.4748	10418.95	9466.65
862.0559	1135.4248	10340.95	9389.45
862.2008	1137.3741	10306.45	9356.45
862.3457	1139.3226	10247.85	9299.7
862.4905	1141.2705	10210.8	9260.25
862.6354	1143.2176	10122.5	9165.05
862.7803	1145.164	10104.25	9153.5
862.9251	1147.1097	10067.05	9115.4
863.07	1149.0546	10055	9103.55
863.2148	1150.9989	9966.55	9012.65
863.3597	1152.9424	9833.6	8884.3
863.5045	1154.8852	9709.1	8756.4
863.6493	1156.8272	9636.55	8686.5
863.7942	1158.7686	9582.8	8628.15
863.939	1160.7092	9559.75	8610.4
864.0838	1162.6491	9560.75	8608.45
864.2286	1164.5883	9662.75	8710.4
864.3734	1166.5267	9765.95	8816
864.5182	1168.4644	9884.15	8935.8
864.663	1170.4014	10069.9	9119.45
864.8078	1172.3377	10337.95	9389.6
864.9526	1174.2732	10564.25	9617.85
865.0974	1176.2081	10882.9	9934.6
865.2421	1178.1421	11186.85	10235.7
865.3869	1180.0755	11514.05	10567.15
865.5317	1182.0082	11672.4	10723.95
865.6764	1183.9401	11766.4	10817.65
865.8212	1185.8713	11596.45	10652.4
865.9659	1187.8017	11394.65	10464.3
866.1106	1189.7315	11104.15	10179.25
866.2554	1191.6605	10787.05	9861.35
866.4001	1193.5888	10560.05	9627
866.5448	1195.5163	10442.15	9502.75
866.6895	1197.4432	10349.55	9402.1
866.8342	1199.3693	10312.95	9367.7
866.9789	1201.2947	10280.9	9331.1
867.1236	1203.2193	10260.85	9312.2
867.2683	1205.1432	10320.75	9375.45
867.413	1207.0664	10310.25	9361.45
867.5576	1208.9889	10321.85	9373.3
867.7023	1210.9106	10346.1	9398.05
867.847	1212.8316	10379.3	9436.35
867.9916	1214.7519	10430.9	9477.8
868.1363	1216.6715	10483.65	9537.15
868.2809	1218.5903	10499.65	9554.55
868.4255	1220.5084	10489	9545.2
868.5701	1222.4257	10538.65	9593.95
868.7148	1224.3424	10494	9550.2
868.8594	1226.2583	10560.3	9614.1
869.004	1228.1735	10670	9721.5
869.1486	1230.0879	10777.7	9829.5
869.2932	1232.0016	10912.65	9966.4
869.4377	1233.9146	10965.55	10017.7
869.5823	1235.8269	10922.8	9980.6
869.7269	1237.7384	10808.85	9864
869.8715	1239.6492	10651.4	9709.25
870.016	1241.5592	10555.9	9610.2
870.1606	1243.4686	10498.3	9555
870.3051	1245.3772	10512	9570.4
870.4496	1247.285	10559.4	9614.45
870.5941	1249.1922	10599.75	9655.75
870.7387	1251.0986	10624.9	9681.85
870.8832	1253.0042	10646.85	9702.15
871.0277	1254.9092	10713.75	9771.7
871.1722	1256.8134	10767.6	9829.65
871.3167	1258.7169	10935.2	9991
871.4611	1260.6196	11120.3	10181.45
871.6056	1262.5216	11327.1	10382.25
871.7501	1264.4229	11490.15	10549.8
871.8945	1266.3234	11645.4	10700.45
872.039	1268.2232	11741.5	10795.7
872.1834	1270.1223	11761.85	10815.95
872.3278	1272.0207	11770.25	10829.3
872.4723	1273.9183	11779.7	10830.25
872.6167	1275.8151	11702.3	10759.95
872.7611	1277.7113	11628.15	10685.7
872.9055	1279.6067	11565.85	10624.85
873.0499	1281.5014	11562.35	10614.8
873.1943	1283.3953	11641.85	10695.45
873.3386	1285.2885	11777.25	10835.85
873.483	1287.181	11935.7	10993.9
873.6274	1289.0727	12119.15	11179.35
873.7717	1290.9637	12263.75	11320.4
873.9161	1292.854	12430.1	11485.65
874.0604	1294.7435	12532.45	11592.55
874.2047	1296.6323	12617.55	11676.2
874.349	1298.5204	12757.3	11812
874.4933	1300.4077	12828.9	11886.6
874.6376	1302.2943	12906.05	11963.75
874.7819	1304.1802	12880.6	11937.85
874.9262	1306.0653	12660.95	11718.55
875.0705	1307.9497	12376.85	11438.1
875.2147	1309.8333	12145.95	11207.1
875.359	1311.7162	12014	11073.2
875.5032	1313.5984	11949.85	11004.8
875.6475	1315.4798	11954.4	11014.15
875.7917	1317.3605	11973.15	11011.5
875.9359	1319.2405	12001.45	11054.8
876.0801	1321.1197	11910.35	10965.85
876.2243	1322.9982	11717.2	10771.05
876.3685	1324.876	11591.15	10650.35
876.5127	1326.753	11456.05	10513.8
876.6569	1328.6293	11360.9	10416.25
876.801	1330.5048	11346.95	10401.2
876.9452	1332.3796	11256.7	10314.1
877.0893	1334.2537	11212.55	10245.4
877.2335	1336.127	11142.85	10202.5
877.3776	1337.9996	11143	10201.55
877.5217	1339.8714	11103.75	10158.95
877.6658	1341.7426	11131.6	10146.25
877.8099	1343.6129	11100.85	10155.7
877.954	1345.4826	11087.8	10148.25
878.0981	1347.3515	11071.7	10128
878.2422	1349.2196	11044.35	10103.75
878.3862	1351.087	11068	10123.7
878.5303	1352.9537	11094.05	10149.45
878.6743	1354.8197	11233.35	10293.1
878.8184	1356.6849	11344	10397.4
878.9624	1358.5493	11468.1	10526.55
879.1064	1360.4131	11554.05	10613.05
879.2504	1362.276	11581.8	10642.05
879.3944	1364.1383	11500.5	10557.85
879.5384	1365.9998	11287.6	10337.6
879.6823	1367.8606	10936.35	9992.5
879.8263	1369.7206	10619	9676.3
879.9702	1371.5799	10374.35	9430.5
880.1142	1373.4384	10175.95	9229.15
880.2581	1375.2962	10000.85	9055.65
880.402	1377.1533	9727.95	8788.65
880.5459	1379.0096	9403	8467.8
880.6898	1380.8652	9085.05	8148.2
880.8337	1382.7201	8830.45	7893.15
880.9776	1384.5742	8588.95	7649
881.1215	1386.4275	8443.9	7502.5
881.2653	1388.2802	8298.8	7355.95
881.4092	1390.132	8172.6	7229.1
881.553	1391.9832	8112.3	7165.25
881.6968	1393.8336	8045.15	7102.9
881.8406	1395.6832	8030.85	7087
881.9844	1397.5322	7961.85	7024.1
882.1282	1399.3803	7963.45	7017.9
882.272	1401.2278	7930.9	6993.2
882.4158	1403.0745	7939.7	6999.9
882.5595	1404.9204	7905.9	6970.6
882.7033	1406.7656	7942	7002.35
882.847	1408.6101	7951.2	7008.75
882.9908	1410.4538	7995.55	7052.6
883.1345	1412.2968	8046.25	7108.2
883.2782	1414.139	8114.7	7176.55
883.4219	1415.9805	8158.6	7219.85
883.5656	1417.8213	8270.9	7327.65
883.7092	1419.6613	8365.35	7426.25
883.8529	1421.5006	8546.95	7608.9
883.9965	1423.3391	8770.2	7834.2
884.1402	1425.1769	9078.1	8135.65
884.2838	1427.0139	9547.5	8605
884.4274	1428.8502	10117.2	9176.65
884.571	1430.6858	10700.6	9762.05
884.7146	1432.5206	11073.45	10137.15
884.8582	1434.3547	11329.65	10388.9
885.0018	1436.188	11371.35	10431.5
885.1453	1438.0206	11259	10321.95
885.2889	1439.8524	11107.55	10168.65
885.4324	1441.6835	10983.45	10044.6
885.5759	1443.5139	10884.6	9942.8
885.7194	1445.3435	10827.65	9890.25
885.8629	1447.1724	10793.1	9856
886.0064	1449.0005	10712.5	9777.85
886.1499	1450.8279	10643.2	9706.5
886.2933	1452.6545	10592.75	9660
886.4368	1454.4804	10621.45	9685.85
886.5802	1456.3056	10631	9689.45
886.7237	1458.13	10526.85	9593.55
886.8671	1459.9536	10342.15	9405.5
887.0105	1461.7766	9995.2	9059.9
887.1539	1463.5987	9622	8682.7
887.2972	1465.4202	9276.55	8338.3
887.4406	1467.2409	8927.05	7988.45
887.584	1469.0608	8642.4	7707.95
887.7273	1470.88	8358.4	7421.6
887.8706	1472.6984	8144.55	7207.4
888.0139	1474.5161	7958	7021.2
888.1572	1476.3331	7795.3	6858.85
888.3005	1478.1493	7687.65	6753
888.4438	1479.9648	7582.9	6647.55
888.5871	1481.7795	7494.3	6559.75
888.7303	1483.5935	7431.65	6496.75
888.8736	1485.4067	7351.35	6415.95
889.0168	1487.2192	7301.9	6367.85
889.16	1489.031	7253.9	6315.6
889.3032	1490.842	7237.15	6302.3
889.4464	1492.6522	7183	6248.4
889.5896	1494.4618	7151.85	6217.6
889.7327	1496.2705	7138.75	6204.4
889.8759	1498.0785	7113.5	6177.1
890.019	1499.8858	7069.15	6133.25
890.1622	1501.6924	7021.85	6086.95
890.3053	1503.4981	6987.4	6051.95
890.4484	1505.3032	6975.65	6041.35
890.5914	1507.1075	6950.85	6013.6
890.7345	1508.911	6921.3	5985.95
890.8776	1510.7138	6878.35	5940.1
891.0206	1512.5159	6816	5881.45
891.1637	1514.3172	6778.3	5843.7
891.3067	1516.1178	6747.9	5815.6
891.4497	1517.9176	6718.6	5781.7
891.5927	1519.7166	6676.15	5744.95
891.7357	1521.515	6651.4	5712.85
891.8786	1523.3126	6627	5697.95
892.0216	1525.1094	6607.1	5671.9
892.1645	1526.9055	6590.25	5660.1
892.3074	1528.7008	6557.95	5625.45
892.4503	1530.4954	6522.1	5586.75
892.5932	1532.2893	6524.15	5594.95
892.7361	1534.0824	6477.5	5547.55
892.879	1535.8747	6477.9	5551.3
893.0218	1537.6663	6469.55	5543.4
893.1647	1539.4572	6461.4	5531.55
893.3075	1541.2473	6456.75	5527.5
893.4503	1543.0367	6476.4	5547
893.5931	1544.8253	6478.1	5543.95
893.7359	1546.6132	6481.45	5547.5
893.8787	1548.4003	6476.25	5536.8
894.0214	1550.1867	6516.3	5577.8
894.1642	1551.9723	6542	5609.9
894.3069	1553.7572	6592.15	5663.6
894.4496	1555.5414	6655.1	5729.25
894.5923	1557.3247	6735.35	5812.3
894.735	1559.1074	6820.35	5901.8
894.8777	1560.8893	6934.55	6014.95
895.0204	1562.6705	7017.6	6096.1
895.163	1564.4509	7133.65	6214.2
895.3056	1566.2305	7171.65	6256.45
895.4482	1568.0094	7233.35	6316.8
895.5908	1569.7876	7273.4	6354.45
895.7334	1571.565	7268.05	6347.85
895.876	1573.3417	7278.75	6358
896.0186	1575.1176	7252.95	6333.65
896.1611	1576.8928	7230.05	6313
896.3036	1578.6672	7162	6248.9
896.4461	1580.4409	7087.9	6176.85
896.5886	1582.2138	7019.75	6105.55
896.7311	1583.986	6980.3	6064.9
896.8736	1585.7575	6952.95	6037.45
897.0161	1587.5282	6929.9	6017.9
897.1585	1589.2981	6901.3	5990.1
897.3009	1591.0673	6933.05	6020.45
897.4433	1592.8358	6974.65	6061.95
897.5857	1594.6035	7020.1	6104.4
897.7281	1596.3704	7044.6	6127.2
897.8705	1598.1366	7104.35	6188.1
898.0128	1599.9021	7175.35	6262
898.1551	1601.6668	7233.9	6316.1
898.2975	1603.4308	7359.05	6441.45
898.4398	1605.194	7468.85	6548.55
898.5821	1606.9564	7608.55	6700.15
898.7243	1608.7182	7792.2	6886.2
898.8666	1610.4791	8000.35	7100.7
899.0088	1612.2394	8191.3	7294
899.1511	1613.9988	8428.25	7526.75
899.2933	1615.7576	8649.6	7740.5
899.4355	1617.5156	8838.15	7919.55
899.5776	1619.2728	8987.75	8071.85
899.7198	1621.0293	9082.85	8167.8
899.862	1622.785	9027.05	8112.5
900.0041	1624.54	8874.15	7964.8
900.1462	1626.2942	8697.75	7790.65
900.2883	1628.0477	8441.45	7529.75
900.4304	1629.8005	8182.1	7271.9
900.5725	1631.5525	7940.75	7037.45
900.7145	1633.3037	7739.5	6832.5
900.8566	1635.0542	7622.3	6715.85
900.9986	1636.804	7481.15	6574.1
901.1406	1638.553	7468.1	6499.55
901.2826	1640.3013	7395.85	6489.25
901.4245	1642.0488	7363.3	6454.3
901.5665	1643.7955	7402.35	6498.65
901.7085	1645.5416	7445.05	6542.65
901.8504	1647.2868	7541.8	6636.75
901.9923	1649.0313	7649.75	6741.7
902.1342	1650.7751	7819.5	6911.3
902.2761	1652.5181	7968.6	7062.3
902.4179	1654.2604	8166.15	7263.2
902.5598	1656.0019	8422.8	7517.8
902.7016	1657.7427	8709.35	7802.9
902.8434	1659.4828	8977.5	8069
902.9852	1661.222	9145.05	8233.2
903.127	1662.9606	9135.65	8226.55
903.2687	1664.6984	8937.05	8026.5
903.4105	1666.4354	8510.05	7596
903.5522	1668.1717	7983.95	7072.95
903.6939	1669.9072	7471.9	6560
903.8356	1671.642	7015.05	6101.85
903.9773	1673.3761	6656.3	5746.65
904.119	1675.1094	6344.45	5438.9
904.2606	1676.8419	6117.95	5210.15
904.4022	1678.5737	5946.65	5035.95
904.5439	1680.3048	5820.95	4911.45
904.6855	1682.0351	5689.1	4778.85
904.827	1683.7646	5590.75	4676.5
904.9686	1685.4934	5530.25	4624.95
905.1101	1687.2215	5461.8	4555
905.2517	1688.9488	5382.85	4477.7
905.3932	1690.6754	5343.8	4436.45
905.5347	1692.4012	5307.2	4398.9
905.6761	1694.1263	5266.2	4358.4
905.8176	1695.8506	5223.35	4318.25
905.9591	1697.5742	5200.2	4297.65
906.1005	1699.297	5161.65	4260.8
906.2419	1701.0191	5139.45	4238.65
906.3833	1702.7404	5081.55	4181.35
906.5246	1704.461	5052.85	4148.35
906.666	1706.1808	5032.55	4127.05
906.8073	1707.8999	5017.8	4111.5
906.9487	1709.6182	4982.45	4083.85
907.09	1711.3358	4954.25	4056.85
907.2313	1713.0527	4927.4	4031.65
907.3725	1714.7688	4901.9	3996.75
907.5138	1716.4841	4886.15	3983.8
907.655	1718.1987	4891.45	3981.75
907.7962	1719.9126	4862.05	3963.75
907.9374	1721.6257	4825.65	3926.4
908.0786	1723.338	4833.45	3937.15
908.2198	1725.0496	4787.55	3887.35
908.3609	1726.7605	4782.4	3878.45
908.502	1728.4706	4770.4	3870.05
908.6431	1730.18	4748.4	3849
908.7842	1731.8886	4738.65	3844.2
908.9253	1733.5964	4750.1	3830.05
909.0664	1735.3036	4719.45	3818.45
909.2074	1737.0099	4684.3	3787.6
909.3484	1738.7156	4662.75	3766.65
909.4894	1740.4204	4634.8	3735.4
909.6304	1742.1246	4644.7	3743.9
909.7714	1743.8279	4614.45	3716.7
909.9123	1745.5306	4604.95	3709.55
910.0532	1747.2325	4568.5	3674.7
910.1941	1748.9336	4565.5	3667.9
910.335	1750.634	4541.6	3640.7
910.4759	1752.3336	4517.75	3620.8
910.6168	1754.0325	4517.85	3622.2
910.7576	1755.7307	4495.55	3598.8
910.8984	1757.4281	4510.75	3612.25
911.0392	1759.1247	4495.6	3585.3
911.18	1760.8206	4491.2	3584.05
911.3208	1762.5158	4478.2	3572.15
911.4615	1764.2102	4447.9	3549.9
911.6022	1765.9039	4463.2	3566.7
911.7429	1767.5968	4422.9	3529.15
911.8836	1769.289	4399.75	3504.5
912.0243	1770.9804	4412.45	3511.9
912.1649	1772.6711	4406.75	3507.15
912.3056	1774.361	4386.65	3483.75
912.4462	1776.0502	4386.25	3486.85
912.5868	1777.7386	4378.35	3477.25
912.7274	1779.4263	4360.45	3461.25
912.8679	1781.1132	4358.65	3462.5
913.0084	1782.7994	4336.65	3442.9
913.149	1784.4849	4339.5	3443.85
913.2895	1786.1696	4332.6	3418.05
913.4299	1787.8535	4322.4	3427.95
913.5704	1789.5367	4305.3	3412
913.7108	1791.2192	4278.7	3384.35
913.8513	1792.9009	4295.8	3373.75
913.9917	1794.5818	4295.6	3392.2
914.132	1796.2621	4274.3	3376.6
914.2724	1797.9415	4247.2	3350.5
914.4128	1799.6202	4233.6	3334.3
914.5531	1801.2982	4230.5	3330.5
914.6934	1802.9755	4239.25	3340.75
914.8337	1804.6519	4223.1	3324.8
914.9739	1806.3277	4193.35	3296
915.1142	1808.0027	4198.1	3307.05
915.2544	1809.6769	4180.35	3287.05
915.3946	1811.3504	4176.7	3281.75
915.5348	1813.0231	4171.35	3278.45
915.675	1814.6951	4160.55	3265.05
915.8151	1816.3664	4173.2	3275.1
915.9553	1818.0369	4160.95	3261.45
916.0954	1819.7067	4131.55	3234.35
916.2355	1821.3757	4142.8	3242.35
916.3755	1823.044	4134.15	3235.8
916.5156	1824.7115	4119.3	3221.05
916.6556	1826.3783	4106.35	3211
916.7956	1828.0443	4092.5	3196.85
916.9356	1829.7096	4104.75	3206.85
917.0756	1831.3741	4094.05	3194.2
917.2155	1833.0379	4074	3180.8
917.3555	1834.701	4079.4	3186.4
917.4954	1836.3633	4066.8	3175.45
917.6353	1838.0248	4052.05	3157.8
917.7751	1839.6856	4050.45	3156.9
917.915	1841.3457	4038.65	3142.1
918.0548	1843.005	4047.05	3148.55
918.1946	1844.6636	4042.5	3147
918.3344	1846.3214	4017.5	3123.65
918.4742	1847.9785	4008.15	3112.8
918.6139	1849.6349	3998.4	3098.55
918.7537	1851.2904	4012.6	3105.3
918.8934	1852.9453	3996.4	3098.25
919.0331	1854.5994	3986.05	3084.85
919.1727	1856.2528	3995	3091.7
919.3124	1857.9054	3980.25	3082.4
919.452	1859.5572	3980.6	3085.3
919.5916	1861.2083	3968.9	3071.95
919.7312	1862.8587	3956.7	3058.95
919.8708	1864.5084	3964.35	3066.35
920.0103	1866.1572	3936.65	3037.45
920.1498	1867.8054	3910.15	3009.65
920.2893	1869.4528	3913	3012.9
920.4288	1871.0994	3910.9	3010.9
920.5683	1872.7453	3912.1	3015.95
920.7077	1874.3905	3917.15	3002.7
920.8471	1876.0349	3895.85	2998.5
920.9865	1877.6786	3894.75	2995.05
921.1259	1879.3215	3893.35	2996.15
921.2653	1880.9637	3864.5	2965.55
921.4046	1882.6051	3853.85	2957.45
921.5439	1884.2458	3837.15	2940.8
921.6832	1885.8858	3843.5	2948.55
921.8225	1887.525	3830.8	2934.65
921.9617	1889.1634	3821.5	2925.5
922.101	1890.8011	3802.05	2902.75
922.2402	1892.4381	3817.9	2920.35
922.3794	1894.0743	3796.35	2898.85
922.5185	1895.7098	3788.1	2892.65
922.6577	1897.3446	3789.85	2893.95
922.7968	1898.9786	3782.45	2883
922.9359	1900.6118	3760	2863.35
923.075	1902.2443	3749.65	2854.55
923.214	1903.8761	3754.15	2858.75
923.3531	1905.5071	3751.15	2854.4
923.4921	1907.1374	3710.3	2812.95
923.6311	1908.7669	3719.85	2825.15
923.77	1910.3957	3720.35	2825.4
923.909	1912.0237	3688.4	2791.95
924.0479	1913.651	3693.35	2795.4
924.1868	1915.2776	3674.85	2780.55
924.3257	1916.9034	3669.4	2774.15
924.4646	1918.5285	3657.85	2766.15
924.6034	1920.1528	3641.55	2746.25
924.7422	1921.7764	3649.65	2755.5
924.881	1923.3992	3626.1	2731.7
925.0198	1925.0213	3610	2713.9
925.1586	1926.6427	3596.6	2701.75
925.2973	1928.2633	3756.15	2655.85
925.436	1929.8832	3620.3	2720.85
925.5747	1931.5023	3586.05	2691.95
925.7134	1933.1207	3575.85	2680.75
925.852	1934.7383	3565	2668.05
925.9906	1936.3552	3549.9	2660.15
926.1292	1937.9714	3525.8	2632
926.2678	1939.5868	3539.45	2641.95
926.4064	1941.2015	3520.45	2623.15
926.5449	1942.8154	3520.55	2624.1
926.6834	1944.4286	3496.1	2599.6
926.8219	1946.041	3503.35	2588
926.9604	1947.6528	3492	2592.3
927.0988	1949.2637	3481.9	2585.4
927.2372	1950.8739	3465.1	2572.8
927.3756	1952.4834	3449.9	2556.4
927.514	1954.0921	3446.25	2550.9
927.6523	1955.7001	3437.45	2541.4
927.7907	1957.3074	3424.5	2533.2
927.929	1958.9139	3416.15	2527.45
928.0673	1960.5197	3413.45	2522.5
928.2055	1962.1247	3398.15	2507.5
928.3438	1963.729	3404.75	2514.75
928.482	1965.3325	3393.35	2496.9
928.6202	1966.9353	3363.6	2472.55
928.7584	1968.5374	3365.8	2475.75
928.8965	1970.1387	3353.35	2462.9
929.0346	1971.7393	3342.5	2451.95
929.1727	1973.3392	3330.65	2439.85
929.3108	1974.9383	3317.15	2428.6
929.4489	1976.5366	3309.85	2421.7
929.5869	1978.1342	3318.1	2428.9
929.7249	1979.7311	3309.15	2420.55
929.8629	1981.3273	3302.7	2413
930.0009	1982.9227	3287.45	2396.7
930.1388	1984.5173	3279.75	2395.4
930.2767	1986.1112	3260	2371.55
930.4146	1987.7044	3248.25	2360.7
930.5525	1989.2968	3258.25	2372.25
930.6904	1990.8885	3252.75	2360.8
930.8282	1992.4795	3251.4	2363.6
930.966	1994.0697	3228	2342.9
931.1038	1995.6592	3222.85	2335.25
931.2415	1997.2479	3215.8	2328.3
931.3793	1998.8359	3219.3	2332.3
931.517	2000.4232	3205.8	2322.2
931.6547	2002.0097	3190.9	2308.95
931.7923	2003.5955	3180.5	2296
931.93	2005.1805	3190.35	2303.6
932.0676	2006.7648	3179.7	2294.1
932.2052	2008.3484	3155	2270.15
932.3427	2009.9312	3171.65	2287.55
932.4803	2011.5133	3154.4	2274.6
932.6178	2013.0946	3141.35	2258.2
932.7553	2014.6752	3142.5	2258.6
932.8928	2016.2551	3147.55	2261.3
933.0302	2017.8342	3128.3	2243.9
933.1676	2019.4126	3122.5	2240.95
933.305	2020.9902	3108.2	2225.45
933.4424	2022.5672	3105.85	2222.65
933.5798	2024.1433	3114.4	2228.45
933.7171	2025.7188	3092.6	2212.8
933.8544	2027.2935	3089.1	2208.35
933.9917	2028.8674	3066.35	2188.55
934.129	2030.4406	3069.7	2190.35
934.2662	2032.0131	3057.9	2179.9
934.4034	2033.5849	3054.85	2172.55
934.5406	2035.1559	3046.5	2166.8
934.6778	2036.7261	3047	2164.75
934.8149	2038.2957	3036.3	2149.85
934.952	2039.8645	3032.1	2144.4
935.0891	2041.4325	3045.55	2156.8
935.2262	2042.9998	3028.9	2145.65
935.3632	2044.5664	3023.85	2140.5
935.5002	2046.1323	3015.05	2135.3
935.6372	2047.6974	2997.45	2116.95
935.7742	2049.2617	2988.75	2108.55
935.9111	2050.8254	3031.95	2118.1
936.048	2052.3883	2996.9	2111.1
936.1849	2053.9504	2982.35	2094.95
936.3218	2055.5118	2982.1	2095.05
936.4586	2057.0725	2976.05	2089.3
936.5955	2058.6325	2958.6	2075.65
936.7323	2060.1917	2951.2	2068.5
936.869	2061.7502	2955.5	2068.1
937.0058	2063.3079	2951.95	2072.1
937.1425	2064.8649	2944.65	2058.2
937.2792	2066.4212	2925.9	2043.15
937.4159	2067.9767	2935.45	2051.95
937.5525	2069.5315	2924.25	2039.2
937.6891	2071.0856	2920.65	2034.4
937.8257	2072.6389	2898.55	2014.7
937.9623	2074.1915	2882.9	2002.95
938.0989	2075.7433	2883.05	1996.85
938.2354	2077.2945	2871.75	1989.35
938.3719	2078.8448	2876.35	1989.65
938.5084	2080.3945	2869	1982.35
938.6448	2081.9434	2867.2	1980.6
938.7812	2083.4916	2866	1977.15
938.9176	2085.039	2852.5	1960.5
939.054	2086.5857	2856.15	1962.65
939.1903	2088.1317	2854	1961.85
939.3267	2089.677	2841.75	1948.25
939.463	2091.2215	2849.55	1957.55
939.5992	2092.7652	2827.6	1934.4
939.7355	2094.3083	2836.4	1946.15
939.8717	2095.8506	2830.15	1940.6
940.0079	2097.3921	2819.15	1930.9
940.1441	2098.933	2812.3	1926.25
940.2802	2100.4731	2797.4	1909.05
940.4163	2102.0124	2800.25	1903.4
940.5524	2103.5511	2799.85	1909.6
940.6885	2105.089	2791.25	1902.25
940.8245	2106.6261	2794.4	1906.85
940.9606	2108.1626	2775.1	1885.8
941.0965	2109.6983	2791.9	1875
941.2325	2111.2332	2782.6	1892.1
941.3684	2112.7675	2764.9	1874.65
941.5044	2114.301	2763.3	1869.2
941.6403	2115.8337	2776.65	1886.7
941.7761	2117.3657	2753.35	1863.95
941.912	2118.897	2752.4	1861.8
942.0478	2120.4276	2756.05	1860.4
942.1835	2121.9575	2735.65	1845.2
942.3193	2123.4866	2743.7	1849.5
942.455	2125.0149	2734.15	1842.85
942.5907	2126.5426	2712.9	1827.25
942.7264	2128.0695	2705.9	1819.95
942.8621	2129.5956	2695.75	1813.7
942.9977	2131.1211	2693.2	1804.9
943.1333	2132.6458	2695.7	1808.3
943.2689	2134.1698	2688.25	1796.05
943.4044	2135.693	2699.5	1806.6
943.54	2137.2155	2695.25	1800.05
943.6755	2138.7373	2688.5	1798.4
943.8109	2140.2584	2666.75	1780.85
943.9464	2141.7787	2672.6	1784.65
944.0818	2143.2983	2660.15	1778.3
944.2172	2144.8171	2654.15	1774.85
944.3526	2146.3353	2656.85	1771
944.4879	2147.8527	2654.15	1769.05
944.6232	2149.3693	2661.8	1773.4
944.7585	2150.8853	2646.85	1757
944.8938	2152.4005	2629.8	1738.75
945.029	2153.9149	2633.9	1742.35
945.1642	2155.4287	2623.55	1733.45
945.2994	2156.9417	2620.45	1728.85
945.4346	2158.454	2608.95	1719.75
945.5697	2159.9655	2605.15	1721.8
945.7048	2161.4764	2604.1	1717.15
945.8399	2162.9865	2610.4	1725.7
945.9749	2164.4958	2599.65	1711.95
946.1099	2166.0045	2597.7	1708.9
946.2449	2167.5124	2584.05	1696.6
946.3799	2169.0195	2589.45	1701.15
946.5148	2170.526	2586.3	1698.1
946.6498	2172.0317	2575	1684.9
946.7846	2173.5367	2569.25	1679
946.9195	2175.0409	2563.2	1675.4
947.0543	2176.5445	2570.25	1681.65
947.1891	2178.0473	2554.95	1663.55
947.3239	2179.5494	2563	1667.7
947.4587	2181.0507	2541.1	1653.25
947.5934	2182.5513	2530.65	1642.1
947.7281	2184.0512	2536.5	1647.1
947.8628	2185.5504	2524.7	1633.75
947.9974	2187.0488	2508.35	1622.2
948.132	2188.5465	2522.7	1635.8
948.2666	2190.0435	2517.2	1631.2
948.4012	2191.5397	2510.3	1620.05
948.5357	2193.0353	2502.8	1611.05
948.6702	2194.5301	2501.55	1608.25
948.8047	2196.0241	2497.8	1605
948.9392	2197.5175	2491.3	1598
949.0736	2199.0101	2487.6	1591
949.208	2200.502	2482.65	1594.3
949.3424	2201.9931	2473.75	1583.65
949.4767	2203.4835	2450.65	1563.75
949.611	2204.9733	2471.8	1580.4
949.7453	2206.4622	2461.25	1574.45
949.8796	2207.9505	2456.45	1569.3
950.0138	2209.438	2441.25	1559.05
950.148	2210.9248	2440.9	1555.05
950.2822	2212.4109	2436.4	1546.95
950.4164	2213.8962	2437.3	1541.95
950.5505	2215.3809	2427.55	1532.7
950.6846	2216.8648	2428.15	1532.3
950.8186	2218.3479	2427.1	1527
950.9527	2219.8304	2405.95	1506.5
951.0867	2221.3121	2421.85	1523.9
951.2207	2222.7931	2409.9	1516.15
951.3546	2224.2733	2405.4	1512.85
951.4886	2225.7529	2402.35	1511.35
951.6225	2227.2317	2385.25	1492.3
951.7563	2228.7098	2386.9	1501.9
951.8902	2230.1872	2359.25	1474.3
952.024	2231.6638	2366	1482.15
952.1578	2233.1397	2369.9	1480.9
952.2916	2234.6149	2368.45	1479.2
952.4253	2236.0894	2353.85	1465.75
952.559	2237.5632	2364.7	1465.25
952.6927	2239.0362	2349.9	1461.85
952.8263	2240.5085	2342.7	1454.45
952.9599	2241.9801	2336.9	1447.8
953.0935	2243.4509	2342.1	1451.1
953.2271	2244.921	2339.4	1445.6
953.3606	2246.3904	2322.45	1428.05
953.4941	2247.8591	2327.75	1433.2
953.6276	2249.3271	2312.1	1420.05
953.7611	2250.7943	2308.85	1416
953.8945	2252.2608	2308	1415.95
954.0279	2253.7266	2301.6	1410.75
954.1612	2255.1917	2290.05	1400.15
954.2946	2256.656	2279.05	1388.55
954.4279	2258.1197	2273.55	1387.9
954.5612	2259.5826	2273.9	1382.15
954.6944	2261.0447	2273.7	1382.95
954.8276	2262.5062	2277.75	1385.05
954.9608	2263.9669	2275.7	1380.55
955.094	2265.4269	2268.35	1375.9
955.2271	2266.8862	2259.8	1369.25
955.3602	2268.3448	2259.45	1369.3
955.4933	2269.8026	2247.35	1358.85
955.6264	2271.2598	2251.95	1363.15
955.7594	2272.7162	2253.15	1363.5
955.8924	2274.1719	2264.45	1374.2
956.0253	2275.6268	2238.8	1346.25
956.1583	2277.0811	2241.65	1349.35
956.2912	2278.5346	2242.45	1354.05
956.4241	2279.9874	2230.65	1343.8
956.5569	2281.4395	2227.85	1342
956.6897	2282.8908	2229.85	1337.3
956.8225	2284.3414	2226.3	1332.9
956.9553	2285.7914	2214.5	1325.45
957.088	2287.2406	2219.65	1324.5
957.2207	2288.689	2212.6	1316.8
957.3534	2290.1368	2211.3	1317.05
957.486	2291.5838	2214.55	1316.9
957.6186	2293.0302	2209.3	1311.95
957.7512	2294.4758	2198.1	1304.65
957.8838	2295.9206	2194.6	1299.5
958.0163	2297.3648	2183.8	1296.65
958.1488	2298.8082	2183	1293
958.2813	2300.251	2193.2	1301
958.4137	2301.693	2172.3	1278.55
958.5461	2303.1343	2178.35	1286.7
958.6785	2304.5748	2170.9	1279.5
958.8108	2306.0147	2168.45	1281.9
958.9432	2307.4538	2171.6	1283.6
959.0754	2308.8922	2153.7	1268.7
959.2077	2310.3299	2147.75	1261.05
959.3399	2311.7669	2148.5	1260.6
959.4721	2313.2031	2147.75	1255.75
959.6043	2314.6387	2155.15	1262.85
959.7365	2316.0735	2142.35	1249.65
959.8686	2317.5076	2132.35	1238.05
960.0006	2318.941	2140.95	1248.95
960.1327	2320.3737	2132.95	1239.7
960.2647	2321.8056	2121.65	1227.5
960.3967	2323.2369	2123.85	1234.8
960.5287	2324.6674	2128.9	1236.5
960.6606	2326.0972	2115.55	1220.6
960.7925	2327.5263	2109.5	1217.35
960.9244	2328.9547	2114.45	1223.35
961.0562	2330.3823	2102.95	1208.8
961.1881	2331.8092	2104.9	1207.45
961.3198	2333.2355	2096.35	1201
961.4516	2334.661	2096.3	1204.1
961.5833	2336.0858	2105.15	1212.15
961.715	2337.5098	2082.1	1191.95
961.8467	2338.9332	2092.95	1202.15
961.9783	2340.3558	2088.2	1196.05
962.1099	2341.7778	2068.3	1177.5
962.2415	2343.199	2076.2	1186.4
962.373	2344.6195	2071.2	1183.55
962.5045	2346.0393	2065.2	1177.7
962.636	2347.4583	2066.45	1177.3
962.7675	2348.8767	2078.15	1185.3
962.8989	2350.2943	2064.85	1170.35
963.0303	2351.7113	2063.1	1167.4
963.1617	2353.1275	2060.5	1165.05
963.293	2354.543	2066.9	1164.75
963.4243	2355.9578	2057.55	1163.55
963.5556	2357.3718	2044.85	1155.65
963.6868	2358.7852	2044.7	1154.15
963.818	2360.1978	2038.7	1148.6
963.9492	2361.6098	2040.35	1153.65
964.0803	2363.021	2037.1	1141.7
964.2114	2364.4315	2020.95	1131.85
964.3425	2365.8413	2022.5	1133.7
964.4736	2367.2504	2019.25	1133.15
964.6046	2368.6587	2016.4	1129.3
964.7356	2370.0664	2010.25	1123.2
964.8666	2371.4733	2014.8	1125.35
964.9975	2372.8795	2004.65	1114.9
965.1284	2374.285	2001.75	1110.2
965.2593	2375.6899	1998.75	1111.75
965.3901	2377.0939	1995.4	1107.8
965.5209	2378.4973	1987.7	1100.2
965.6517	2379.9	1991.4	1103.2
965.7825	2381.3019	1984.5	1096.95
965.9132	2382.7032	1976.5	1090.1
966.0439	2384.1037	1975.5	1090.9
966.1745	2385.5035	1961.6	1074.55
966.3051	2386.9027	1960.95	1076.3
966.4357	2388.3011	1967.2	1079.35
966.5663	2389.6987	1955.25	1071.15
966.6968	2391.0957	1950.1	1062.95
966.8273	2392.492	1940.55	1053.95
966.9578	2393.8876	1950.65	1064.55
967.0882	2395.2824	1937.4	1050.5
967.2186	2396.6765	1938.95	1053.3
967.349	2398.07	1938.3	1053.15
967.4793	2399.4627	1935.35	1047.25
967.6097	2400.8547	1928.9	1041.1
967.7399	2402.246	1927.05	1035
967.8702	2403.6366	1913.65	1023.75
968.0004	2405.0265	1914.8	1029.65
968.1306	2406.4156	1910.65	1019.95
968.2607	2407.8041	1909.1	1018.1
968.3909	2409.1918	1905	1016.6
968.521	2410.5789	1885.85	998.2
968.651	2411.9652	1897.6	1007.6
968.781	2413.3508	1889.75	1002.1
968.911	2414.7358	1893.9	1006.35
969.041	2416.12	1890.4	1004.45
969.1709	2417.5035	1883.25	995.45
969.3008	2418.8863	1892.65	1004.3
969.4307	2420.2684	1886.6	999.7
969.5606	2421.6497	1877.2	989.95
969.6904	2423.0304	1869.7	984.6
969.8201	2424.4104	1870.45	981.15
969.9499	2425.7896	1868.75	979.8
970.0796	2427.1682	1862.4	975.2
970.2093	2428.546	1852.8	964.65
970.3389	2429.9232	1861.3	972.15
970.4685	2431.2996	1863.3	974.5
970.5981	2432.6753	1857.5	970.75
970.7277	2434.0503	1852.15	965.3
970.8572	2435.4246	1853.7	965.4
970.9867	2436.7982	1842.95	952.85
971.1161	2438.1711	1840.85	952.85
971.2456	2439.5433	1834.6	945.2
971.375	2440.9148	1848.45	954.35
971.5043	2442.2856	1835.7	948.75
971.6336	2443.6557	1826.5	937.5
971.7629	2445.025	1827.1	940.05
971.8922	2446.3937	1829.3	938.15
972.0214	2447.7617	1829.8	940.15
972.1506	2449.1289	1825.55	939.25
972.2798	2450.4955	1821	929.3
972.4089	2451.8613	1816.25	928.4
972.538	2453.2265	1814.15	928.05
972.6671	2454.5909	1808.75	919.7
972.7961	2455.9546	1808.75	921.6
972.9251	2457.3177	1801.35	915.15
973.0541	2458.68	1810.5	919.4
973.1831	2460.0416	1800.65	912.85
973.312	2461.4025	1801.2	911.35
973.4408	2462.7627	1808.2	907.85
973.5697	2464.1222	1802.3	918.15
973.6985	2465.4811	1791.95	905.35
973.8273	2466.8392	1788.55	903.9
973.956	2468.1966	1788.05	898.45
974.0847	2469.5533	1792.1	901.5
974.2134	2470.9093	1789.45	898.65
974.3421	2472.2645	1796.8	907.1
974.4707	2473.6191	1787.1	899.8
974.5993	2474.973	1783.55	896.9
974.7278	2476.3262	1780.35	890.1
974.8563	2477.6787	1776.75	890.75
974.9848	2479.0305	1770.9	884.05
975.1132	2480.3816	1767.25	877.75
975.2417	2481.7319	1764.5	876.3
975.37	2483.0816	1766.6	878
975.4984	2484.4306	1764.8	876.3
975.6267	2485.7789	1757.5	870.7
975.755	2487.1264	1743.4	854.55
975.8833	2488.4733	1754.75	869.15
976.0115	2489.8195	1763.4	861.4
976.1397	2491.165	1745.3	852.95
976.2678	2492.5097	1743.85	853.55
976.3959	2493.8538	1739.55	852.55
976.524	2495.1972	1733.5	845.2
976.6521	2496.5398	1735.35	846.45
976.7801	2497.8818	1734.85	841
976.9081	2499.2231	1731.4	845.55
977.036	2500.5637	1716.25	824.1
977.164	2501.9035	1727.15	837.35
977.2918	2503.2427	1721.65	828.7
977.4197	2504.5812	1704.6	815.2
977.5475	2505.919	1715.25	825.1
977.6753	2507.256	1719	828.45
977.8031	2508.5924	1707.35	820.55
977.9308	2509.9281	1709.5	814.4
978.0585	2511.2631	1705.85	818.65
978.1861	2512.5974	1711.8	823.05
978.3137	2513.9309	1698.15	806.9
978.4413	2515.2638	1724.95	810.7
978.5689	2516.596	1700.5	813.85
978.6964	2517.9275	1689.4	801.15
978.8239	2519.2583	1694.65	806.2
978.9513	2520.5884	1689.55	799.2
979.0788	2521.9178	1675.95	787.05
979.2062	2523.2465	1685.25	796.95
979.3335	2524.5745	1681.3	793.75
979.4608	2525.9018	1681.5	793.8
979.5881	2527.2284	1681.15	793.8
979.7154	2528.5543	1679	793.15
979.8426	2529.8796	1660.05	770.35
979.9698	2531.2041	1668.4	780
980.0969	2532.5279	1668.25	780.5
980.224	2533.851	1668.4	779.85
980.3511	2535.1735	1666.85	778.7
980.4781	2536.4952	1665.05	776.55
980.6052	2537.8163	1670.05	779.55
980.7321	2539.1366	1658.35	769.45
980.8591	2540.4562	1673.85	783.55
980.986	2541.7752	1661.35	772.1
981.1129	2543.0935	1663.3	773.7
981.2397	2544.411	1664.8	774
981.3665	2545.7279	1655.95	767.35
981.4933	2547.0441	1644.05	755.7
981.62	2548.3596	1661.6	766.75
981.7467	2549.6744	1651.65	764.5
981.8734	2550.9885	1653.15	763.2
982.0001	2552.3019	1643.55	755.3
982.1267	2553.6146	1642.3	751.25
982.2532	2554.9266	1639.15	751.2
982.3798	2556.2379	1638.6	748.55
982.5063	2557.5485	1639.75	754.05
982.6327	2558.8585	1638.2	743.05
982.7592	2560.1677	1642.6	748.45
982.8856	2561.4762	1637.15	748.05
983.0119	2562.7841	1635.85	743.25
983.1383	2564.0913	1622.2	734.45
983.2646	2565.3977	1627.9	739.8
983.3908	2566.7035	1625.5	733.25
983.517	2568.0086	1623.6	733.25
983.6432	2569.313	1622.2	732.25
983.7694	2570.6167	1629.6	736.45
983.8955	2571.9197	1620.65	731.8
984.0216	2573.222	1622.75	729.4
984.1476	2574.5236	1613.6	723
984.2737	2575.8246	1613.75	722.65
984.3996	2577.1248	1620.35	727.2
984.5256	2578.4244	1614.3	727.45
984.6515	2579.7232	1611.85	723.65
984.7774	2581.0214	1638.8	718.6
984.9032	2582.3189	1619.9	730.4
985.029	2583.6157	1613.2	718.65
985.1548	2584.9118	1620.25	729.15
985.2806	2586.2072	1610.05	721
985.4063	2587.5019	1603.25	715.8
985.5319	2588.7959	1622.75	733.85
985.6576	2590.0893	1616.9	726.95
985.7832	2591.3819	1614.1	726.15
985.9087	2592.6739	1605.4	717.05
986.0343	2593.9652	1620.8	730.6
986.1597	2595.2557	1618.85	730.8
986.2852	2596.5456	1608.4	717.6
986.4106	2597.8348	1612.35	723
986.536	2599.1234	1607.6	722.5
986.6614	2600.4112	1600.9	712.15
986.7867	2601.6983	1613.75	723.05
986.912	2602.9848	1604.75	715.25
987.0372	2604.2705	1626.4	730.95
987.1624	2605.5556	1611.35	722.05
987.2876	2606.84	1597.05	708.15
987.4128	2608.1237	1602.55	714.2
987.5379	2609.4067	1596.05	708.35
987.6629	2610.689	1599.5	701.05
987.788	2611.9707	1605.35	712.7
987.913	2613.2516	1602.05	708.85
988.0379	2614.5319	1593.45	704.6
988.1629	2615.8115	1592.05	703.1
988.2878	2617.0903	1582.15	693.35
988.4126	2618.3685	1581.55	693.6
988.5375	2619.6461	1588.5	699.55
988.6622	2620.9229	1575.95	689.85
988.787	2622.199	1585.15	693.65
988.9117	2623.4745	1571.85	681.8
989.0364	2624.7493	1574	688.6
989.161	2626.0234	1575.95	687.15
989.2857	2627.2968	1576.45	690.1
989.4102	2628.5695	1578.95	689.3
989.5348	2629.8415	1573.4	684.75
989.6593	2631.1128	1569.6	678.65
989.7837	2632.3835	1567.35	680.15
989.9082	2633.6535	1558.1	670.9
990.0326	2634.9228	1561.15	674.45
990.1569	2636.1914	1561.05	674.55
990.2812	2637.4593	1567.55	681.75
990.4055	2638.7265	1562.75	672.35
990.5298	2639.9931	1562	673.7
990.654	2641.259	1558.2	668.25
990.7782	2642.5242	1553.55	666.4
990.9023	2643.7887	1553.9	666.35
991.0264	2645.0525	1551.35	660.6
991.1505	2646.3156	1542.6	654
991.2745	2647.5781	1549.5	662.3
991.3985	2648.8398	1538.9	653.25
991.5225	2650.1009	1548.7	655.35
991.6464	2651.3613	1539.65	651.05
991.7703	2652.6211	1539.25	651.1
991.8942	2653.8801	1537.05	649.55
992.018	2655.1385	1543.95	652.6
992.1418	2656.3961	1535.1	646.8
992.2655	2657.6531	1539.25	648.7
992.3892	2658.9094	1535.5	648.75
992.5129	2660.1651	1537.55	649.3
992.6366	2661.42	1536.4	649.3
992.7602	2662.6743	1534.6	644.5
992.8837	2663.9279	1541.65	655.2
993.0073	2665.1808	1538.4	650.25
993.1307	2666.433	1542	653.65
993.2542	2667.6846	1542.35	655.4
993.3776	2668.9354	1543.05	651.45
993.501	2670.1856	1540.6	651.5
993.6244	2671.4351	1551.5	663.8
993.7477	2672.6839	1550.1	658.85
993.8709	2673.9321	1545.15	657.05
993.9942	2675.1795	1549.8	661.4
994.1174	2676.4263	1556.95	671.2
994.2405	2677.6724	1552.55	665.2
994.3637	2678.9179	1553.1	665.9
994.4868	2680.1626	1547.25	660.6
994.6098	2681.4067	1551.9	663.55
994.7328	2682.6501	1552.25	664.95
994.8558	2683.8928	1547.7	660.45
994.9788	2685.1348	1545.45	658.2
995.1017	2686.3761	1533.75	647.8
995.2245	2687.6168	1525.7	639.6
995.3474	2688.8568	1533.8	647.05
995.4702	2690.0961	1532.85	644.1
995.5929	2691.3348	1520.35	632.05
995.7156	2692.5727	1525.25	637.1
995.8383	2693.81	1518.05	630.7
995.961	2695.0466	1516.1	630.7
996.0836	2696.2826	1522.05	632.15
996.2062	2697.5178	1522.95	632
996.3287	2698.7524	1519.6	634.15
996.4512	2699.9863	1520.7	630.6
996.5737	2701.2195	1520.35	634.65
996.6961	2702.452	1516.9	629.9
996.8185	2703.6839	1534.8	646.85
996.9408	2704.9151	1529.6	642.8
997.0631	2706.1456	1542.55	655.25
997.1854	2707.3755	1538.35	651.8
997.3077	2708.6046	1556.4	666.15
997.4299	2709.8331	1551.2	663.8
997.552	2711.0609	1559.8	671.6
997.6742	2712.2881	1569.5	682.25
997.7963	2713.5145	1571.15	681.7
997.9183	2714.7403	1587.55	704.2
998.0403	2715.9654	1596.35	710.6
998.1623	2717.1899	1619.6	718.85
998.2842	2718.4136	1621.55	737
998.4062	2719.6367	1631.1	745.05
998.528	2720.8591	1643.55	748.6
998.6498	2722.0809	1650.85	763.7
998.7716	2723.3019	1654.25	763.85
998.8934	2724.5223	1660.3	772.9
999.0151	2725.7421	1661.25	774.35
999.1368	2726.9611	1675.2	787.05
999.2584	2728.1795	1673.6	783.75
999.38	2729.3972	1656.4	771.85
999.5016	2730.6142	1654.1	755.55
999.6231	2731.8306	1629.75	741.9
999.7446	2733.0462	1616.95	726.55
999.8661	2734.2612	1597.4	705.45
999.9875	2735.4756	1593.4	704.7
1000.1089	2736.6892	1573.35	686.6
1000.2302	2737.9022	1552.35	669
1000.3515	2739.1145	1543.45	657.9
1000.4728	2740.3262	1539.2	645.6
1000.594	2741.5372	1512.4	626.95
1000.7152	2742.7475	1508.75	622.3
1000.8363	2743.9571	1497.6	609.3
1000.9575	2745.1661	1485.4	592.1
1001.0785	2746.3744	1480.2	592.65
1001.1996	2747.582	1471.7	586.65
1001.3206	2748.7889	1464.7	576.7
1001.4415	2749.9952	1452.3	566.6
1001.5625	2751.2008	1453.3	568.05
1001.6833	2752.4057	1447.8	558.5
1001.8042	2753.61	1443.55	555.55
1001.925	2754.8136	1440.55	552.95
1002.0458	2756.0165	1440.45	555.65
1002.1665	2757.2188	1434.65	550.15
1002.2872	2758.4204	1439.25	552.1
1002.4078	2759.6213	1445.2	557.65
1002.5285	2760.8215	1440.25	551.1
1002.649	2762.0211	1442.05	553.9
1002.7696	2763.22	1432.6	541.95
1002.8901	2764.4182	1436.05	547.7
1003.0106	2765.6158	1436.65	550.6
1003.131	2766.8127	1423.05	536.05
1003.2514	2768.009	1420.75	536.65
1003.3717	2769.2045	1422.75	537.1
1003.492	2770.3994	1418.75	529.95
1003.6123	2771.5936	1411.45	524.55
1003.7325	2772.7872	1410.7	524.95
1003.8527	2773.9801	1412	525.1
1003.9729	2775.1723	1424.55	522.75
1004.093	2776.3639	1409.75	523.95
1004.2131	2777.5548	1403.85	515.5
1004.3331	2778.745	1412.65	526.85
1004.4531	2779.9346	1412.05	528.2
1004.5731	2781.1235	1409.15	522
1004.693	2782.3117	1407.35	523.25
1004.8129	2783.4992	1412.4	526.1
1004.9328	2784.6861	1421	535.25
1005.0526	2785.8723	1421.15	535.3
1005.1723	2787.0579	1427.75	541.95
1005.2921	2788.2428	1433.35	547.45
1005.4118	2789.427	1433.2	549.55
1005.5314	2790.6106	1445.8	560.45
1005.651	2791.7935	1446.85	561.2
1005.7706	2792.9757	1464.3	579.5
1005.8902	2794.1573	1476.75	589.45
1006.0097	2795.3382	1486.6	603
1006.1291	2796.5184	1495.4	612.5
1006.2485	2797.698	1505.4	619.1
1006.3679	2798.8769	1528.1	643.65
1006.4873	2800.0551	1540.05	655.9
1006.6066	2801.2327	1552.9	662.4
1006.7258	2802.4096	1570	685.65
1006.8451	2803.5859	1592.85	707.4
1006.9642	2804.7615	1601.15	717
1007.0834	2805.9364	1626.45	741.5
1007.2025	2807.1106	1655.6	772.95
1007.3216	2808.2842	1680.7	794.8
1007.4406	2809.4572	1713.1	829.25
1007.5596	2810.6294	1746.5	862.45
1007.6785	2811.801	1779.35	895.45
1007.7975	2812.972	1818.85	934.25
1007.9163	2814.1423	1870.35	986.4
1008.0352	2815.3119	1921.55	1036.6
1008.154	2816.4808	1942.3	1058.1
1008.2727	2817.6491	1998.1	1112
1008.3914	2818.8167	2050.15	1168.45
1008.5101	2819.9837	2106.55	1217
1008.6288	2821.15	2147.45	1263.05
1008.7474	2822.3157	2202.6	1318
1008.8659	2823.4807	2247.95	1364.05
1008.9844	2824.645	2294.8	1411.1
1009.1029	2825.8086	2342.55	1458.9
1009.2214	2826.9716	2395.75	1514.05
1009.3398	2828.134	2437.55	1552.15
1009.4581	2829.2957	2487.3	1601.4
1009.5764	2830.4567	2509.4	1625.05
1009.6947	2831.617	2536.15	1651.2
1009.813	2832.7767	2551.9	1668.65
1009.9312	2833.9358	2541.9	1660.25
1010.0493	2835.0941	2542.45	1656.95
1010.1675	2836.2519	2529.6	1645.75
1010.2855	2837.4089	2503.1	1619.45
1010.4036	2838.5653	2508.05	1625.55
1010.5216	2839.7211	2497.55	1615.55
1010.6396	2840.8761	2504.05	1616.75
1010.7575	2842.0306	2509.15	1627.6
1010.8754	2843.1843	2560.4	1676.5
1010.9932	2844.3374	2596.05	1712.9
1011.111	2845.4899	2639.4	1754.15
1011.2288	2846.6417	2712.05	1827.65
1011.3465	2847.7928	2783	1899.35
1011.4642	2848.9433	2847.1	1964.3
1011.5818	2850.0931	2931.05	2047.95
1011.6995	2851.2422	2991.8	2106.8
1011.817	2852.3907	3059.6	2173.15
1011.9345	2853.5385	3109.45	2225.05
1012.052	2854.6857	3177.05	2279.7
1012.1695	2855.8323	3229.05	2347.35
1012.2869	2856.9781	3266.6	2382
1012.4042	2858.1233	3324.45	2440.6
1012.5216	2859.2679	3367.55	2484.15
1012.6389	2860.4118	3431	2547.5
1012.7561	2861.555	3456.45	2567.85
1012.8733	2862.6976	3487.2	2601.25
1012.9905	2863.8395	3518.3	2635
1013.1076	2864.9808	3549.5	2667.8
1013.2247	2866.1214	3584.8	2702.55
1013.3417	2867.2614	3589.85	2706.4
1013.4587	2868.4007	3616.5	2732.35
1013.5757	2869.5393	3613.7	2725.9
1013.6926	2870.6773	3627	2743.05
1013.8095	2871.8146	3636.9	2749.85
1013.9263	2872.9513	3643.55	2756.6
1014.0431	2874.0874	3633.95	2751.2
1014.1599	2875.2227	3630.95	2747.4
1014.2766	2876.3574	3615.6	2731.45
1014.3933	2877.4915	3589.3	2703.95
1014.51	2878.6249	3558.1	2676.5
1014.6266	2879.7577	3526.25	2642.1
1014.7431	2880.8898	3508.6	2618.4
1014.8596	2882.0212	3522.45	2639
1014.9761	2883.152	3482.35	2601.55
1015.0925	2884.2821	3483.65	2602.1
1015.2089	2885.4116	3484.35	2602.05
1015.3253	2886.5405	3479.95	2598.75
1015.4416	2887.6686	3478.35	2594.05
1015.5579	2888.7962	3482.75	2602.5
1015.6741	2889.923	3493.2	2612.55
1015.7903	2891.0493	3512.15	2631.2
1015.9065	2892.1748	3514	2631.35
1016.0226	2893.2997	3525.5	2641.45
1016.1387	2894.424	3537.55	2654.95
1016.2547	2895.5476	3556.65	2673.1
1016.3707	2896.6706	3584.35	2704.7
1016.4866	2897.7929	3608.7	2724.65
1016.6025	2898.9145	3632.1	2748.8
1016.7184	2900.0355	3661.7	2777.65
1016.8342	2901.1559	3691	2808.6
1016.95	2902.2756	3745.5	2864.2
1017.0658	2903.3946	3756.1	2874.75
1017.1815	2904.513	3788.4	2902.65
1017.2971	2905.6308	3814.35	2932.55
1017.4127	2906.7479	3845.9	2963.6
1017.5283	2907.8643	3860.8	2978.6
1017.6439	2908.9801	3874.5	2991.95
1017.7594	2910.0953	3883.95	2999.15
1017.8748	2911.2098	3887.95	3001.6
1017.9902	2912.3236	3880.65	2991.05
1018.1056	2913.4368	3862.35	2977.4
1018.2209	2914.5494	3845.45	2962.55
1018.3362	2915.6613	3813.45	2924.55
1018.4515	2916.7725	3776.9	2892.15
1018.5667	2917.8831	3775	2892.25
1018.6819	2918.9931	3740.5	2853.65
1018.797	2920.1024	3708.2	2827.75
1018.9121	2921.211	3689.5	2806.6
1019.0271	2922.319	3665.65	2784.05
1019.1421	2923.4264	3645.6	2764.8
1019.2571	2924.5331	3631.95	2750.95
1019.372	2925.6391	3608.85	2728.5
1019.4869	2926.7445	3614.8	2733.25
1019.6017	2927.8493	3628.95	2745.6
1019.7165	2928.9534	3614.7	2730.95
1019.8313	2930.0569	3618.2	2734
1019.946	2931.1597	3612.7	2728.7
1020.0606	2932.2619	3598.75	2717.1
1020.1753	2933.3634	3601.95	2721.2
1020.2899	2934.4643	3608.2	2719.3
1020.4044	2935.5645	3589.8	2700.6
1020.5189	2936.6641	3555.8	2671.55
1020.6334	2937.763	3512	2630.55
1020.7478	2938.8613	3462.5	2581.9
1020.8622	2939.959	3415.85	2528.6
1020.9765	2941.056	3344.4	2462.4
1021.0908	2942.1523	3265.3	2382.15
1021.2051	2943.248	3188.95	2305.5
1021.3193	2944.3431	3082.35	2202.2
1021.4334	2945.4375	2991.05	2107.55
1021.5476	2946.5313	2893.5	2012.45
1021.6617	2947.6244	2790.15	1910.4
1021.7757	2948.7169	2698.15	1817.4
1021.8897	2949.8087	2601.75	1719.4
1022.0037	2950.8999	2521.45	1640.45
1022.1176	2951.9904	2425.35	1545.65
1022.2315	2953.0803	2365.5	1484.85
1022.3453	2954.1696	2308.1	1425.8
1022.4591	2955.2582	2257.5	1376.7
1022.5728	2956.3462	2199.1	1316.95
1022.6865	2957.4335	2159.4	1275.65
1022.8002	2958.5202	2125.05	1244.45
1022.9138	2959.6062	2103.25	1220.85
1023.0274	2960.6916	2077.25	1196.65
1023.141	2961.7764	2059.6	1180.8
1023.2545	2962.8605	2038	1155.35
1023.3679	2963.9439	2026.8	1146.25
1023.4813	2965.0267	2015.95	1131.85
1023.5947	2966.1089	2027.9	1125.55
1023.708	2967.1905	2002.8	1121
1023.8213	2968.2714	2007.05	1125.95
1023.9346	2969.3516	2007.4	1125.75
1024.0478	2970.4312	2012.15	1123.85
1024.1609	2971.5102	2000.95	1120.7
1024.274	2972.5885	2007.7	1127.7
1024.3871	2973.6662	2007.05	1119.85
1024.5002	2974.7432	2014.9	1133.8
1024.6132	2975.8196	1996	1116.05
1024.7261	2976.8954	1990.1	1108.45
1024.839	2977.9705	1977.6	1098.65
1024.9519	2979.045	1971.85	1090.75
1025.0647	2980.1188	1954.5	1073.8
1025.1775	2981.192	1937.2	1058.05
1025.2902	2982.2645	1912	1029.3
1025.4029	2983.3364	1886.1	1008.05
1025.5156	2984.4077	1871.3	989.1
1025.6282	2985.4783	1839.95	952.4
1025.7407	2986.5483	1796.95	919.2
1025.8532	2987.6177	1776.1	895.25
1025.9657	2988.6864	1726.05	845.9
1026.0782	2989.7545	1704.65	822.35
1026.1906	2990.8219	1664.5	784.85
1026.3029	2991.8887	1638.8	758.5
1026.4152	2992.9548	1612.65	730.85
1026.5275	2994.0204	1576.8	696.9
1026.6397	2995.0852	1549.4	668.4
1026.7519	2996.1495	1524.95	641.3
1026.864	2997.2131	1503.2	624.4
1026.9761	2998.276	1478.9	599.3
1027.0882	2999.3383	1460.15	578.45
1027.2002	3000.4	1436.7	554.1
1027.3122	3001.4611	1427	546.3
1027.4241	3002.5215	1404.1	524.35
1027.536	3003.5812	1388	507.2
1027.6478	3004.6404	1373.1	492.4
1027.7596	3005.6989	1372.55	488.25
1027.8714	3006.7567	1362.75	482.45
1027.9831	3007.8139	1379.25	466
1028.0947	3008.8705	1336.35	454.75
1028.2064	3009.9264	1340.45	456.35
1028.3179	3010.9818	1328.65	447
1028.4295	3012.0364	1325.15	443.9
1028.541	3013.0905	1318.05	438.6
1028.6524	3014.1439	1307.9	429.5
1028.7638	3015.1966	1307.35	427.25
1028.8752	3016.2487	1310.45	432.65
1028.9865	3017.3002	1311.1	424.15
1029.0978	3018.3511	1296.45	417.75
1029.209	3019.4013	1306.5	424.45
1029.3202	3020.4509	1308.4	429.45
1029.4314	3021.4998	1300.4	419.15
1029.5425	3022.5481	1308.95	428.15
1029.6535	3023.5958	1299.3	419.7
1029.7645	3024.6428	1307.05	425.3
1029.8755	3025.6892	1306.3	426
1029.9864	3026.735	1305.55	424.75
1030.0973	3027.7802	1310.1	428.4
1030.2082	3028.8247	1307.7	428.5
1030.319	3029.8685	1305.55	423.65
1030.4297	3030.9118	1310.7	429.4
1030.5404	3031.9544	1314	435.65
1030.6511	3032.9963	1320.1	439.8
1030.7617	3034.0376	1324.7	445.95
1030.8723	3035.0783	1319	436.8
1030.9829	3036.1184	1333.3	451.2
1031.0934	3037.1578	1325.05	445.85
1031.2038	3038.1966	1336.35	454.35
1031.3142	3039.2348	1327.5	446.95
1031.4246	3040.2723	1337.9	447.35
1031.5349	3041.3092	1332.1	452.55
1031.6452	3042.3455	1327.75	447.25
1031.7554	3043.3811	1329	451.1
1031.8656	3044.4161	1322.8	439.5
1031.9758	3045.4505	1323.55	447
1032.0859	3046.4842	1321.1	440.75
1032.1959	3047.5173	1314.85	435.75
1032.3059	3048.5498	1310.75	429.65
1032.4159	3049.5816	1307.65	428
1032.5258	3050.6128	1296.25	415.25
1032.6357	3051.6434	1294.45	411.7
1032.7455	3052.6734	1286.65	406.45
1032.8553	3053.7027	1287.4	408.25
1032.9651	3054.7314	1277.5	398.2
1033.0748	3055.7594	1275.65	395.65
1033.1845	3056.7868	1272.35	392.95
1033.2941	3057.8136	1264.7	384.6
1033.4037	3058.8398	1264.85	386.15
1033.5132	3059.8653	1253.2	374.95
1033.6227	3060.8902	1251.5	371.45
1033.7321	3061.9145	1245.35	366.2
1033.8415	3062.9381	1239.85	359.95
1033.9509	3063.9612	1258.4	364.75
1034.0602	3064.9835	1238.95	360.55
1034.1694	3066.0053	1231.45	348.45
1034.2787	3067.0264	1228.7	349.9
1034.3878	3068.0469	1220.2	339.75
1034.497	3069.0668	1217.75	334
1034.6061	3070.086	1211.05	332.05
1034.7151	3071.1046	1199.1	321.1
1034.8241	3072.1226	1191.25	310.6
1034.9331	3073.1399	1181.7	303.85
1035.042	3074.1567	1181.2	299.8
1035.1508	3075.1727	1174.85	292.45
1035.2597	3076.1882	1164.2	284.5
1035.3684	3077.203	1153.05	271.45
1035.4772	3078.2173	1146.5	266.55
1035.5859	3079.2308	1144.9	261.5
1035.6945	3080.2438	1138.2	257.1
1035.8031	3081.2561	1131.7	252.25
1035.9117	3082.2678	1119.35	241.35
1036.0202	3083.2789	1112.4	233.4
1036.1286	3084.2893	1106.7	226.5
1036.2371	3085.2991	1105.15	224.25
1036.3454	3086.3083	1100.95	216.35
1036.4538	3087.3169	1091.7	212.4
1036.562	3088.3248	1093.95	212.8
1036.6703	3089.3321	1091.75	208.5
1036.7785	3090.3388	1083.3	204.5
1036.8866	3091.3449	1074.4	197.45
1036.9948	3092.3503	1074.95	192.65
1037.1028	3093.3551	1067.75	190.85
1037.2108	3094.3593	1067.65	189.9
1037.3188	3095.3629	1060.9	182.5
1037.4267	3096.3658	1065.1	185.3
1037.5346	3097.3681	1058.65	179.75
1037.6425	3098.3698	1059.75	179.05
1037.7503	3099.3708	1056.55	170.8
1037.858	3100.3713	1049.7	171.5
1037.9657	3101.3711	1047.85	168.25
1038.0734	3102.3702	1180.35	163.55
1038.181	3103.3688	1044.85	165.5
1038.2886	3104.3667	1038.2	160.6
1038.3961	3105.364	1040.45	160.7
1038.5036	3106.3607	1036.5	155.9
1038.611	3107.3568	1038.6	157.1
1038.7184	3108.3522	1031.2	155.1
1038.8257	3109.347	1032.4	151.05
1038.933	3110.3412	1034.75	153.15
1039.0403	3111.3348	1029.4	152.4
1039.1475	3112.3277	1027.15	147.55
1039.2547	3113.32	1024.45	146.2
1039.3618	3114.3117	1022.35	143.75
1039.4689	3115.3028	1022.5	143.1
1039.5759	3116.2932	1026.55	146.75
1039.6829	3117.2831	1026.4	142.7
1039.7898	3118.2723	1016.8	138.2
1039.8967	3119.2608	1015.4	135.65
1040.0035	3120.2488	1013.75	135.35
1040.1103	3121.2361	1016.95	138.65
1040.2171	3122.2229	1012.8	134.15
1040.3238	3123.209	1012.3	133.05
1040.4305	3124.1944	1009.05	131.9
1040.5371	3125.1793	1013	131.65
1040.6437	3126.1635	1009.55	130.45
1040.7502	3127.1471	1005.7	127.05
1040.8567	3128.1301	1001.75	122.15
1040.9631	3129.1125	1005.75	127.35
1041.0695	3130.0942	1005.05	126.8
1041.1759	3131.0753	1012.15	126.8
1041.2822	3132.0558	1004.55	123.55
1041.3884	3133.0357	1002.05	124.2
1041.4946	3134.015	1001.35	122.05
1041.6008	3134.9936	1000	119.5
1041.7069	3135.9716	1017.15	118.15
1041.813	3136.949	996.85	118.75
1041.919	3137.9258	1013.55	117.2
1042.025	3138.902	998.15	115.85
1042.1309	3139.8775	994	116
1042.2368	3140.8524	997.25	119.5
1042.3427	3141.8267	995.95	115.15
1042.4485	3142.8004	992.05	114.65
1042.5542	3143.7735	993.9	111.8
1042.6599	3144.7459	994	115
1042.7656	3145.7178	988.85	108.5
1042.8712	3146.689	986.75	110.55
1042.9768	3147.6596	989	108.7
1043.0823	3148.6295	984.1	106.9
1043.1878	3149.5989	982.9	102.7
1043.2932	3150.5676	983.95	105.45
1043.3986	3151.5357	980.2	103.85
1043.5039	3152.5032	979.1	102.1
1043.6092	3153.4701	977.7	101.55
1043.7145	3154.4364	984.15	102.3
1043.8197	3155.402	975.8	99.65
1043.9248	3156.367	980.85	100.8
1044.03	3157.3315	1005.65	94.6
1044.135	3158.2952	980.1	101.3
1044.24	3159.2584	975.85	97
1044.345	3160.221	976.25	95.85
1044.4499	3161.1829	974.05	96.05
1044.5548	3162.1442	972.15	92.8
1044.6596	3163.105	971.05	93.25
1044.7644	3164.065	971.9	94.15
1044.8692	3165.0245	972.65	92.7
1044.9739	3165.9834	970.35	93.05
1045.0785	3166.9416	967.55	88.45
1045.1831	3167.8993	964.05	86.75
1045.2877	3168.8563	969.05	89.75
1045.3922	3169.8127	967	87.15
1045.4966	3170.7684	972.5	94
1045.6011	3171.7236	966.35	87.75
1045.7054	3172.6782	968.2	88.9
1045.8098	3173.6321	967.2	88.4
1045.914	3174.5854	970.95	89.05
1046.0183	3175.5381	963.35	83.5
1046.1224	3176.4902	964.3	86.9
1046.2266	3177.4417	964.35	87.25
1046.3307	3178.3926	964.35	86.4
1046.4347	3179.3428	961	82.95
1046.5387	3180.2924	960.1	84.05
1046.6427	3181.2415	963.75	87.45
1046.7466	3182.1899	962.55	83.35
1046.8504	3183.1377	958.75	80.75
1046.9542	3184.0848	964.15	80.45
1047.058	3185.0314	957.65	79.6
1047.1617	3185.9773	960.4	83.25
1047.2654	3186.9227	961.15	82.75
1047.369	3187.8674	955.3	78.8
1047.4726	3188.8115	961	77.3
1047.5761	3189.755	959.55	84.3
1047.6796	3190.6979	957.75	81.95
1047.783	3191.6402	955.55	79.6
1047.8864	3192.5818	955.7	79.35
1047.9898	3193.5229	972.7	75.75
1048.0931	3194.4633	955.35	78.9
1048.1963	3195.4031	951.5	74.3
1048.2995	3196.3423	955.45	76.6
1048.4027	3197.2809	954.35	78.8
1048.5058	3198.2189	950.8	70.2
1048.6089	3199.1563	960.7	76.25
1048.7119	3200.0931	952.7	75.75
1048.8148	3201.0292	951.95	72.9
1048.9178	3201.9648	948.5	70.7
1049.0206	3202.8997	954.15	73.1
1049.1235	3203.834	949.15	71.15
1049.2262	3204.7677	947.9	70.55
1049.329	3205.7008	945.95	67.4
1049.4317	3206.6333	946.55	70.95
1049.5343	3207.5652	950.65	69.95
1049.6369	3208.4964	945.7	67
1049.7394	3209.4271	944.75	68.25
1049.8419	3210.3571	944.95	67.25
1049.9444	3211.2865	945.85	68.75
1050.0468	3212.2154	947.35	68.95
1050.1491	3213.1436	947.9	68.8
1050.2514	3214.0712	950.75	66.7
1050.3537	3214.9982	942.5	65.75
1050.4559	3215.9246	944.35	66.45
1050.5581	3216.8503	941.6	64.85
1050.6602	3217.7755	942.5	65.85
1050.7623	3218.7001	941.75	64.65
1050.8643	3219.624	941.8	63.55
1050.9663	3220.5473	941.65	64.05
1051.0682	3221.4701	944.2	65.4
1051.1701	3222.3922	946.05	67.6
1051.2719	3223.3137	940.65	64.15
1051.3737	3224.2346	939.7	62.7
1051.4754	3225.1549	939.65	63
1051.5771	3226.0746	938.95	62.95
1051.6788	3226.9937	938.4	61.1
1051.7804	3227.9121	938.05	62.3
1051.8819	3228.83	940.4	64.25
1051.9834	3229.7473	939.35	61.25
1052.0849	3230.6639	938.45	61.15
1052.1863	3231.5799	941.15	63.35
1052.2876	3232.4954	936.75	60.8
1052.3889	3233.4102	937.9	58.95
1052.4902	3234.3244	937.7	59.95
1052.5914	3235.238	939	62.55
1052.6926	3236.151	961.8	60.45
1052.7937	3237.0634	934.75	58.4
1052.8948	3237.9752	936	59.05
1052.9958	3238.8864	934.6	57.95
1053.0968	3239.797	934.35	58
1053.1977	3240.7069	934.15	54.9
1053.2986	3241.6163	935.15	55.65
1053.3994	3242.5251	934.7	58.85
1053.5002	3243.4332	933.85	58.45
1053.6009	3244.3408	933.2	56.95
1053.7016	3245.2477	929.95	54.2
1053.8022	3246.154	935.25	57.85
1053.9028	3247.0598	933.45	55.8
1054.0034	3247.9649	932.35	54.15
1054.1039	3248.8694	929.2	54.1
1054.2043	3249.7733	930.5	51.4
1054.3047	3250.6766	930.7	53.65
1054.4051	3251.5793	931.1	52.1
1054.5054	3252.4814	929.35	53.95
1054.6056	3253.3829	926.7	51.75
1054.7058	3254.2838	930.35	54.15
1054.806	3255.1841	927.5	53.4
1054.9061	3256.0838	928.15	51.35
1055.0061	3256.9829	926.2	49.2
1055.1062	3257.8814	930.45	51.65
1055.2061	3258.7792	926.95	45.05
1055.306	3259.6765	926.3	49.35
1055.4059	3260.5731	923.9	47.7
1055.5057	3261.4692	924.4	47.05
1055.6055	3262.3647	921.75	45.15
1055.7052	3263.2595	923	45.85
1055.8049	3264.1538	921.7	48.55
1055.9045	3265.0474	921.75	43.55
1056.0041	3265.9404	917.75	42.2
1056.1036	3266.8329	919.75	45.45
1056.2031	3267.7247	928.65	42.55
1056.3025	3268.616	915.3	40.7
1056.4019	3269.5066	917.35	40.4
1056.5013	3270.3966	917.15	39.65
1056.6005	3271.286	913.1	38
