Software Version:	3.9.2.0
Unit SN:	10000200
Spectrometer SN:	6960
Date:	3/8/2024 2:14:43 PM
Data Line Index:	25
Spectral Points:	2048
Integration time (ms):	125
Averages:	20
Delay (ms):	30000
Sequence Number:	1
Processing:	dark subtract
Laser Power (mW):	305
Laser Current (mA):	824
Laser Diode Temp (C):	25.1
Laser Case Temp (C):	26.3
System Temp (C):	26.3
Spectrometer Temp (C):	24.1
CCD Temp (C):	0.007
Secondary Temp (C):	20.011
Heatsink Temp (C):	20.794
CCDPCB Temp (C):	36.318
SecondaryPCB Temp (C):	32.416

Wavelength	RamanShift	Raw Counts	Dark Subtracted
787.061	30.1047	460.25	52.55
787.2016	32.3739	464.35	61.6
787.3422	34.6426	472.35	67.8
787.4828	36.9109	477.95	69
787.6235	39.1787	486.05	72.8
787.7642	41.4461	493.4	76.5
787.9049	43.7131	502.7	82.4
788.0456	45.9796	513.85	90.2
788.1863	48.2456	521.9	94.8
788.3271	50.5112	532.65	101.6
788.4679	52.7764	542.35	105.4
788.6087	55.0411	552.25	112.2
788.7496	57.3054	565.3	118.85
788.8904	59.5692	575.15	128.9
789.0313	61.8326	587.9	141.4
789.1722	64.0955	595.95	143.35
789.3132	66.3579	614.35	155.4
789.4541	68.6199	639.75	177.7
789.5951	70.8815	674.6	209.05
789.7361	73.1426	755.2	287.05
789.8771	75.4032	977.3	505.05
790.0181	77.6634	1502.65	1026.1
790.1592	79.9231	2728.75	2242.05
790.3003	82.1824	5394.25	4888.9
790.4414	84.4412	10224.05	9689.55
790.5825	86.6995	16864.65	16293.05
790.7237	88.9574	23321.2	22718.2
790.8648	91.2148	27802.5	27173.1
791.006	93.4717	29839.05	29195.4
791.1472	95.7282	30382.6	29734.4
791.2885	97.9842	30385.65	29730.65
791.4297	100.2398	29912.3	29252.05
791.571	102.4949	29279	28619.55
791.7123	104.7495	28601.2	27939.6
791.8536	107.0036	27845.2	27182
791.9949	109.2573	27112.7	26451.45
792.1363	111.5105	26367.95	25701.05
792.2777	113.7632	25717.8	25047.9
792.4191	116.0154	25080.2	24402
792.5605	118.2672	24672.65	23998
792.7019	120.5185	24199.55	23524
792.8434	122.7693	23838.8	23160.55
792.9849	125.0197	23552.65	22872.15
793.1264	127.2696	23279.5	22595.4
793.2679	129.519	23155.6	22465
793.4094	131.7679	22961.6	22269.1
793.551	134.0163	22861.15	22166.55
793.6926	136.2642	22702.15	22003.45
793.8342	138.5117	22512.05	21802.35
793.9758	140.7587	22287	21584.8
794.1175	143.0052	22163.4	21452.85
794.2591	145.2512	21899.95	21189.75
794.4008	147.4967	21701.8	20999.65
794.5425	149.7417	21550.1	20841.15
794.6842	151.9863	21470.1	20754.6
794.826	154.2304	21435.6	20715.85
794.9677	156.4739	21251.75	20528.9
795.1095	158.717	21282.25	20555.4
795.2513	160.9596	21138.1	20407.25
795.3931	163.2017	20834.85	20101
795.535	165.4433	20618	19883.15
795.6768	167.6844	20289.85	19549.2
795.8187	169.925	19995.45	19258.5
795.9606	172.1651	19641.1	18904.75
796.1025	174.4047	19368.15	18628.1
796.2445	176.6439	19146.3	18402.55
796.3864	178.8825	18937.85	18192.2
796.5284	181.1206	18758.6	18005.2
796.6704	183.3582	18579.1	17823.7
796.8124	185.5954	18470.9	17710.15
796.9544	187.832	18393.15	17628.55
797.0965	190.0681	18389.2	17628.1
797.2386	192.3037	18406.8	17639.05
797.3806	194.5388	18406.35	17631.45
797.5228	196.7734	18470.6	17700.35
797.6649	199.0075	18555.7	17779.95
797.807	201.2411	18706.6	17928.3
797.9492	203.4742	18782.2	18005.6
798.0914	205.7068	18970.95	18187.8
798.2336	207.9389	19096.35	18313.55
798.3758	210.1704	19240.05	18469.65
798.518	212.4015	19331.7	18570.05
798.6603	214.632	19549.95	18793.3
798.8025	216.862	19766	19006.05
798.9448	219.0915	19945.15	19180.7
799.0871	221.3205	20166.45	19399.8
799.2294	223.549	20432.25	19670.95
799.3718	225.777	20789	20027.15
799.5141	228.0044	21187.1	20418.3
799.6565	230.2314	21682.65	20914.65
799.7989	232.4578	22071.95	21298.65
799.9413	234.6837	22459.5	21680.95
800.0837	236.909	22712.9	21931.25
800.2262	239.1339	22705.55	21895.7
800.3687	241.3582	22527.75	21735.85
800.5111	243.582	22202.2	21376.3
800.6536	245.8053	21862.65	21052.35
800.7961	248.0281	21506.35	20702.5
800.9387	250.2503	21260.4	20451.6
801.0812	252.472	21107.9	20300
801.2238	254.6932	21068.05	20257.05
801.3664	256.9139	21002.4	20190.55
801.509	259.134	20952.4	20135.3
801.6516	261.3536	20907.75	20093.05
801.7942	263.5727	21017.25	20203.2
801.9369	265.7912	20979.45	20166.3
802.0795	268.0092	20991.9	20179.65
802.2222	270.2267	20947.05	20131.55
802.3649	272.4436	20914.95	20100.4
802.5076	274.6601	20851.9	20026.4
802.6504	276.8759	20802.9	19980.35
802.7931	279.0913	20761.85	19941.55
802.9359	281.3061	20816.55	19996.6
803.0787	283.5204	20902.5	20077.9
803.2215	285.7341	21020.1	20189.9
803.3643	287.9473	21188.8	20349.05
803.5071	290.16	21395	20562.6
803.6499	292.3721	21739.6	20912.15
803.7928	294.5837	22187.15	21359.8
803.9357	296.7947	22541.25	21711.45
804.0786	299.0052	22755.75	21923.65
804.2215	301.2152	22601.9	21771.5
804.3644	303.4246	22301.95	21474.95
804.5074	305.6334	21770	20945.25
804.6503	307.8418	21278.5	20448.1
804.7933	310.0495	20896.65	20064.15
804.9363	312.2568	20592.2	19755.9
805.0793	314.4635	20363.95	19524
805.2223	316.6696	20281	19442.2
805.3653	318.8752	20266.15	19416.75
805.5084	321.0802	20344.5	19503.55
805.6514	323.2847	20450.15	19603.1
805.7945	325.4887	20511.1	19668.25
805.9376	327.692	20458.2	19610.75
806.0807	329.8949	20416.25	19569.55
806.2238	332.0972	20139.7	19293.6
806.367	334.2989	19876.8	19025.85
806.5101	336.5001	19583.2	18733.85
806.6533	338.7007	19405	18551.55
806.7965	340.9008	19351.65	18501.5
806.9397	343.1003	19201.9	18348.3
807.0829	345.2992	19153.4	18301.85
807.2261	347.4976	19141.35	18283.85
807.3693	349.6955	19164.85	18300.65
807.5126	351.8927	19278.6	18415.25
807.6559	354.0895	19268.95	18396.35
807.7991	356.2856	19314.25	18451.25
807.9424	358.4812	19358.45	18498.45
808.0857	360.6763	19374.15	18508.85
808.2291	362.8707	19340.35	18472.05
808.3724	365.0646	19394.4	18522.1
808.5158	367.258	19433.8	18566.5
808.6591	369.4508	19435.9	18561
808.8025	371.643	19537.9	18661.15
808.9459	373.8346	19490.6	18614.75
809.0893	376.0257	19529.6	18650.3
809.2327	378.2162	19442.95	18567.95
809.3762	380.4062	19350.8	18474.3
809.5196	382.5956	19199.55	18323.35
809.6631	384.7844	19138.2	18270.75
809.8066	386.9726	19026.3	18164.2
809.9501	389.1603	18996.15	18131.5
810.0936	391.3474	18983	18091
810.2371	393.5339	18969.85	18099.05
810.3806	395.7199	18881.35	18016.7
810.5241	397.9052	18939.9	18073.5
810.6677	400.09	18970.7	18106.4
810.8113	402.2743	19034.85	18169.3
810.9548	404.4579	19127.55	18257.9
811.0984	406.641	19305.5	18438
811.2421	408.8235	19551.7	18679.6
811.3857	411.0054	19867.35	18991.65
811.5293	413.1868	20296.8	19417.5
811.673	415.3675	20668.7	19787.2
811.8166	417.5477	20923.4	20039.75
811.9603	419.7273	20962.45	20080.4
812.104	421.9064	20818.7	19935.25
812.2477	424.0848	20695.4	19814.9
812.3914	426.2627	20478.75	19597.1
812.5351	428.4399	20232.95	19346.4
812.6788	430.6166	19880.15	18989.65
812.8226	432.7928	19489.2	18599.15
812.9663	434.9683	19189.55	18306.55
813.1101	437.1432	19007.1	18124.55
813.2539	439.3176	18823.8	17946.65
813.3977	441.4914	18722.3	17850.8
813.5415	443.6645	18713.1	17833.3
813.6853	445.8371	18667.05	17784.75
813.8291	448.0091	18579.4	17696.15
813.973	450.1806	18552.85	17672.15
814.1168	452.3514	18525.4	17644.45
814.2607	454.5216	18546.95	17657.75
814.4046	456.6913	18440.75	17554.85
814.5485	458.8603	18505.1	17621.55
814.6924	461.0288	18607.55	17734.5
814.8363	463.1967	18621.85	17746.5
814.9802	465.3639	18736.7	17857.45
815.1241	467.5306	18831.35	17947.35
815.2681	469.6967	19005.55	18128.05
815.412	471.8622	19166.65	18293.45
815.556	474.0271	19335.65	18454.25
815.7	476.1914	19418.45	18531.75
815.844	478.3551	19398.9	18514.6
815.988	480.5182	19438.55	18556.75
816.132	482.6807	19404.05	18530.8
816.276	484.8426	19508.35	18640.55
816.4201	487.0039	19789.15	18915.85
816.5641	489.1647	20222.55	19341.65
816.7082	491.3248	20675.9	19788.95
816.8522	493.4843	20876.45	19996.95
816.9963	495.6432	20877.4	19998.6
817.1404	497.8015	20770.45	19879.15
817.2845	499.9592	20842.7	19947.8
817.4286	502.1163	20839.9	19940.1
817.5727	504.2728	20568.75	19680.2
817.7168	506.4287	20278.2	19400.55
817.861	508.5839	19879.5	19004.45
818.0051	510.7386	19580.35	18697.55
818.1493	512.8927	19380.55	18490.2
818.2935	515.0461	19302.6	18411.8
818.4377	517.199	19259.9	18364.1
818.5818	519.3512	19253.9	18352.55
818.726	521.5029	19270.25	18370.3
818.8703	523.6539	19377.35	18481.5
819.0145	525.8043	19455.7	18558.85
819.1587	527.9541	19486.35	18588.3
819.303	530.1033	19463.6	18568.45
819.4472	532.2519	19503.4	18612.8
819.5915	534.3999	19676.7	18778.55
819.7357	536.5472	19990.95	19098.1
819.88	538.694	20466.85	19576.25
820.0243	540.8401	21051.35	20153.8
820.1686	542.9856	21608.1	20702.05
820.3129	545.1305	21779.55	20864.2
820.4572	547.2748	21647.6	20729
820.6016	549.4185	21276.85	20359.05
820.7459	551.5615	20929.8	20018.05
820.8902	553.704	20819.45	19911.5
821.0346	555.8458	20713.8	19808.15
821.1789	557.987	20749.1	19847.35
821.3233	560.1276	20737.3	19828.8
821.4677	562.2675	20764.3	19856.55
821.6121	564.4069	20751.05	19841.15
821.7565	566.5456	20744.25	19837.5
821.9009	568.6837	20673.5	19769.05
822.0453	570.8212	20389.05	19487.05
822.1897	572.958	20142.95	19233.7
822.3342	575.0942	19858.9	18957.5
822.4786	577.2299	19691.15	18790.5
822.6231	579.3648	19661.75	18776.4
822.7675	581.4992	19719.75	18845.95
822.912	583.6329	19939	19064.65
823.0565	585.766	20202.45	19321.35
823.201	587.8985	20351.15	19460.6
823.3454	590.0304	20352.45	19442.6
823.4899	592.1616	20262.85	19355.2
823.6345	594.2922	20203.8	19289
823.779	596.4222	20059.25	19150.05
823.9235	598.5515	19913	18995.1
824.068	600.6802	19739.75	18827.35
824.2126	602.8083	19583.35	18678.1
824.3571	604.9358	19534.85	18626.15
824.5017	607.0626	19459.5	18543.25
824.6462	609.1888	19443.95	18522.9
824.7908	611.3144	19437.05	18515.9
824.9354	613.4393	19285.65	18369.55
825.08	615.5636	19175.8	18255.75
825.2246	617.6873	19084.7	18166.7
825.3692	619.8103	19082.1	18162.9
825.5138	621.9327	18973.85	18058.65
825.6584	624.0544	18980.5	18067.65
825.803	626.1756	18932.7	18022.55
825.9477	628.2961	18935.7	18018.1
826.0923	630.4159	18880.85	17965.25
826.237	632.5351	18892.2	17974.1
826.3816	634.6537	18838.6	17922.6
826.5263	636.7716	18833.4	17907.8
826.6709	638.8889	18862.8	17940.1
826.8156	641.0056	18910.15	17982.75
826.9603	643.1216	18905.25	17977.1
827.105	645.237	18934.35	18014
827.2497	647.3518	18919.1	18004.7
827.3944	649.4659	18966.65	18054.8
827.5391	651.5793	18981.7	18072.05
827.6838	653.6922	18976.75	18064.05
827.8285	655.8043	18982.85	18066.1
827.9733	657.9159	18976.95	18062.1
828.118	660.0268	18902.65	17986.35
828.2627	662.137	18860.05	17941.45
828.4075	664.2466	18873.05	17946.8
828.5522	666.3556	18856.15	17933.35
828.697	668.4639	18829	17909.95
828.8418	670.5716	18908	17993.65
828.9865	672.6786	19010.05	18091.1
829.1313	674.785	19074.05	18146.3
829.2761	676.8907	19134.7	18214.6
829.4209	678.9958	19244.95	18328.85
829.5657	681.1002	19220.35	18298.55
829.7105	683.204	19220.15	18284.9
829.8553	685.3072	19161.85	18232.8
830.0001	687.4097	19129.7	18207
830.1449	689.5115	19097.2	18170.8
830.2898	691.6127	19055.15	18131.5
830.4346	693.7132	18982.9	18062.15
830.5794	695.8131	18981	18038.3
830.7243	697.9123	18968.25	18036
830.8691	700.0109	18936.45	18004.85
831.014	702.1089	18952.4	18027.35
831.1588	704.2061	18959.5	18029.55
831.3037	706.3028	19025.55	18095.65
831.4486	708.3987	19084.5	18154.1
831.5935	710.4941	19175.25	18248.9
831.7383	712.5887	19400.9	18475.45
831.8832	714.6827	19668.7	18738.9
832.0281	716.7761	20009.8	19086.35
832.173	718.8688	20399.45	19471.15
832.3179	720.9608	20636.25	19697.95
832.4628	723.0522	20733.6	19794.75
832.6077	725.1429	20508.45	19573.2
832.7527	727.233	20225.35	19292.35
832.8976	729.3224	20032.45	19100.2
833.0425	731.4112	19711.15	18776.9
833.1874	733.4993	19540.15	18603.7
833.3324	735.5867	19375.85	18447.2
833.4773	737.6735	19277.25	18345.9
833.6222	739.7596	19230.35	18295.9
833.7672	741.845	19193.4	18263.65
833.9122	743.9298	19182.2	18249.7
834.0571	746.014	19217.5	18290.3
834.2021	748.0974	19238.4	18302.65
834.347	750.1802	19238.5	18297.15
834.492	752.2624	19231.55	18294.55
834.637	754.3439	19267.2	18325.45
834.782	756.4247	19330.65	18385.05
834.9269	758.5048	19429.7	18489.95
835.0719	760.5843	19645.9	18709.1
835.2169	762.6631	19939.6	18998.1
835.3619	764.7413	20382.2	19448.1
835.5069	766.8188	20983.1	20045.95
835.6519	768.8956	21424.65	20482.25
835.7969	770.9718	21744.55	20811.35
835.9419	773.0473	21636.9	20699.7
836.0869	775.1221	21306.4	20370.1
836.232	777.1962	20930.6	19994.55
836.377	779.2697	20747.15	19813.2
836.522	781.3426	20820.4	19858.15
836.667	783.4147	21077.15	20138.1
836.8121	785.4862	21403.1	20466.35
836.9571	787.557	21437.2	20494.25
837.1021	789.6271	21118.8	20175.85
837.2472	791.6966	20590.7	19652.05
837.3922	793.7654	20069.3	19126.85
837.5373	795.8335	19780.75	18841.15
837.6823	797.901	19579.85	18640.75
837.8274	799.9678	19573.5	18630.65
837.9724	802.0339	19534	18589
838.1175	804.0993	19618.1	18666.1
838.2626	806.1641	19636.55	18694.55
838.4076	808.2282	19560.75	18623.75
838.5527	810.2916	19511.95	18570.2
838.6978	812.3544	19439.75	18501.75
838.8428	814.4164	19362.6	18424.6
838.9879	816.4778	19374.25	18426.9
839.133	818.5385	19351.4	18404.85
839.2781	820.5986	19448.7	18505.1
839.4232	822.658	19586.25	18643.25
839.5682	824.7166	19652.2	18710.55
839.7133	826.7747	19885.2	18943.1
839.8584	828.832	20057.05	19112.05
840.0035	830.8886	20187.45	19239.4
840.1486	832.9446	20329.65	19385.05
840.2937	834.9999	20393.25	19448.05
840.4388	837.0545	20444.15	19494.3
840.5839	839.1085	20466.4	19518.35
840.729	841.1618	20439.55	19493.3
840.8741	843.2143	20468.05	19520.75
841.0192	845.2662	20358.6	19415.45
841.1643	847.3175	20313.7	19369.25
841.3095	849.368	20204.35	19258.45
841.4546	851.4179	20135.3	19190.35
841.5997	853.467	19953.45	19008.55
841.7448	855.5155	19879.8	18936.2
841.8899	857.5633	19743.5	18798.3
842.0351	859.6105	19648.85	18703.3
842.1802	861.6569	19592.05	18645
842.3253	863.7027	19601.75	18655.25
842.4704	865.7478	19579.35	18629.85
842.6156	867.7922	19622.05	18673.1
842.7607	869.8359	19682.9	18734.8
842.9058	871.8789	19801.35	18852.6
843.0509	873.9212	19982.9	19001.35
843.1961	875.9629	20114	19165.2
843.3412	878.0039	20352.05	19402.7
843.4863	880.0441	20477.15	19531.2
843.6315	882.0837	20480.95	19533.2
843.7766	884.1226	20387.3	19440.25
843.9218	886.1609	20275	19329.3
844.0669	888.1984	20239.65	19290.1
844.212	890.2352	20226.1	19275.5
844.3572	892.2714	20235.25	19282.6
844.5023	894.3069	20197.5	19249.3
844.6475	896.3416	20122	19174.15
844.7926	898.3757	20087.25	19137.25
844.9377	900.4091	20142.95	19189.5
845.0829	902.4418	20172.35	19215.15
845.228	904.4739	20145.55	19191.45
845.3732	906.5052	20118.45	19163.3
845.5183	908.5358	20048.6	19099.5
845.6635	910.5658	19928.65	18978.8
845.8086	912.595	19777.85	18828.8
845.9538	914.6236	19613.4	18662.3
846.0989	916.6515	19631.55	18681.3
846.2441	918.6786	19590.9	18635.65
846.3892	920.7051	19685.3	18734.05
846.5344	922.7309	19824.6	18871.6
846.6795	924.756	19848.7	18898.9
846.8246	926.7804	19954.55	19002.7
846.9698	928.8041	19890.95	18938.7
847.1149	930.8272	19958.45	19003.5
847.2601	932.8495	19913.3	18959
847.4052	934.8711	19854.7	18900.4
847.5504	936.892	19722.7	18769
847.6955	938.9123	19558.65	18602.75
847.8407	940.9318	19427.9	18477.35
847.9858	942.9506	19341.6	18388.9
848.131	944.9688	19219.2	18265.25
848.2761	946.9862	19213.75	18262.2
848.4213	949.003	19108.55	18157.05
848.5664	951.019	19104.5	18153.45
848.7115	953.0344	19170.6	18218.15
848.8567	955.0491	19198	18246.45
849.0018	957.063	19292.45	18341.9
849.147	959.0763	19424.2	18474.15
849.2921	961.0888	19470.6	18516.35
849.4373	963.1007	19533.55	18581.65
849.5824	965.1119	19561.6	18621.4
849.7275	967.1223	19630.9	18695.3
849.8727	969.1321	19645.2	18711
850.0178	971.1412	19712.5	18771.55
850.1629	973.1495	19717.75	18772.3
850.3081	975.1572	19817.65	18825
850.4532	977.1641	19854.95	18901.2
850.5983	979.1704	19812.95	18857.05
850.7435	981.1759	19787.95	18830.1
850.8886	983.1808	19846.55	18891.9
851.0337	985.1849	19943.5	18980.7
851.1788	987.1884	20091.55	19136.95
851.324	989.1911	20294.85	19342.8
851.4691	991.1932	20402.15	19449.2
851.6142	993.1945	20420.6	19469.05
851.7593	995.1951	20421.1	19472.8
851.9045	997.1951	20414.65	19458.4
852.0496	999.1943	20296.55	19348.3
852.1947	1001.1928	20242.85	19289.05
852.3398	1003.1906	20244.45	19289.95
852.4849	1005.1877	20325.15	19371.8
852.63	1007.1841	20234	19287.8
852.7751	1009.1798	20156.05	19206.45
852.9202	1011.1748	19955.45	19006.1
853.0653	1013.1691	19782.55	18834.85
853.2104	1015.1627	19541	18591.35
853.3555	1017.1556	19341.3	18396.25
853.5006	1019.1477	19239.5	18294
853.6457	1021.1392	19131.15	18188.75
853.7908	1023.1299	19133.8	18195.6
853.9359	1025.12	19147.25	18217.55
854.081	1027.1093	19185.1	18264.2
854.2261	1029.0979	19248.95	18332.9
854.3712	1031.0859	19261.75	18336.8
854.5163	1033.0731	19312.15	18378
854.6613	1035.0596	19229.8	18292.2
854.8064	1037.0454	19096.55	18153.9
854.9515	1039.0304	19011.25	18063.25
855.0965	1041.0148	18830.55	17883.3
855.2416	1042.9985	18777.8	17827.9
855.3867	1044.9814	18769.5	17820.1
855.5317	1046.9636	18706.05	17758.4
855.6768	1048.9452	18637.65	17694.3
855.8219	1050.926	18678.45	17731.1
855.9669	1052.9061	18653.5	17704.45
856.112	1054.8855	18689	17739.85
856.257	1056.8642	18709.95	17756.35
856.4021	1058.8421	18749.45	17794.25
856.5471	1060.8194	18802	17850
856.6921	1062.7959	18827.75	17876.45
856.8372	1064.7717	18865.4	17914.9
856.9822	1066.7469	18875.4	17926.75
857.1272	1068.7213	18865.75	17913.3
857.2723	1070.695	18871.1	17921.75
857.4173	1072.6679	18778.15	17826.15
857.5623	1074.6402	18723.3	17774.95
857.7073	1076.6117	18744.85	17789.65
857.8523	1078.5826	18768.35	17815.5
857.9973	1080.5527	18752.15	17800.2
858.1423	1082.5221	18819.7	17870.2
858.2873	1084.4908	19020.2	18073.5
858.4323	1086.4587	19162.1	18212.55
858.5773	1088.426	19343.8	18392.4
858.7223	1090.3925	19336.3	18384.85
858.8673	1092.3584	19288.35	18337.6
859.0123	1094.3235	19086.65	18142.7
859.1573	1096.2879	19072.9	18124.4
859.3022	1098.2515	19068.45	18118.95
859.4472	1100.2145	19091.75	18146.2
859.5922	1102.1767	19231.9	18282.5
859.7371	1104.1382	19349.9	18404.9
859.8821	1106.099	19544.7	18593.45
860.027	1108.0591	19729.35	18783.5
860.172	1110.0185	19886.1	18936.1
860.3169	1111.9771	19894.5	18946.7
860.4619	1113.9351	19692.75	18744.1
860.6068	1115.8923	19412.45	18465.85
860.7517	1117.8488	19081.6	18131.45
860.8967	1119.8045	18794.85	17850.85
861.0416	1121.7596	18668.1	17721.6
861.1865	1123.7139	18607.5	17662.7
861.3314	1125.6675	18593.05	17647.4
861.4763	1127.6204	18735.15	17790.1
861.6212	1129.5726	18709.35	17757.55
861.7661	1131.524	18711.7	17764.5
861.911	1133.4748	18673.45	17725.2
862.0559	1135.4248	18657.35	17712.75
862.2008	1137.3741	18679.9	17737.7
862.3457	1139.3226	18624.6	17676
862.4905	1141.2705	18612.2	17663.15
862.6354	1143.2176	18487.65	17534.4
862.7803	1145.164	18500.8	17554.55
862.9251	1147.1097	18527.6	17577.35
863.07	1149.0546	18514.4	17563.3
863.2148	1150.9989	18461.15	17515.55
863.3597	1152.9424	18295.4	17344.45
863.5045	1154.8852	18171.9	17222.45
863.6493	1156.8272	18006.25	17057.65
863.7942	1158.7686	17991.35	17037.8
863.939	1160.7092	17915.45	16964.05
864.0838	1162.6491	17911.95	16960.25
864.2286	1164.5883	18008.25	17061.75
864.3734	1166.5267	18058.95	17110.1
864.5182	1168.4644	18224.85	17277.95
864.663	1170.4014	18399.95	17449.4
864.8078	1172.3377	18658.9	17712.6
864.9526	1174.2732	18886.95	17942.35
865.0974	1176.2081	19123.2	18175.1
865.2421	1178.1421	19331.05	18378.6
865.3869	1180.0755	19550.55	18606.25
865.5317	1182.0082	19581.1	18637.35
865.6764	1183.9401	19552.7	18614.85
865.8212	1185.8713	19414.25	18479.85
865.9659	1187.8017	19186.65	18255.7
866.1106	1189.7315	18939.15	18017.35
866.2554	1191.6605	18645.65	17724.5
866.4001	1193.5888	18430.8	17500.5
866.5448	1195.5163	18311.85	17375.25
866.6895	1197.4432	18228.95	17286.65
866.8342	1199.3693	18152.6	17210.1
866.9789	1201.2947	18096.5	17148.15
867.1236	1203.2193	18074.6	17130.6
867.2683	1205.1432	18086.05	17140.5
867.413	1207.0664	18094.45	17150.3
867.5576	1208.9889	18125.25	17181.25
867.7023	1210.9106	18180.65	17235.55
867.847	1212.8316	18213.55	17274.7
867.9916	1214.7519	18278.95	17328.2
868.1363	1216.6715	18290.35	17348.25
868.2809	1218.5903	18256.1	17314.9
868.4255	1220.5084	18224.65	17281.3
868.5701	1222.4257	18246.75	17304.6
868.7148	1224.3424	18173	17235.6
868.8594	1226.2583	18188	17244.5
869.004	1228.1735	18290.45	17345.75
869.1486	1230.0879	18361.85	17419.45
869.2932	1232.0016	18461.6	17521.1
869.4377	1233.9146	18486.05	17539.9
869.5823	1235.8269	18368.85	17426.65
869.7269	1237.7384	18300.4	17362.05
869.8715	1239.6492	18044.3	17103.9
870.016	1241.5592	17986	17043.5
870.1606	1243.4686	17891.85	16946.65
870.3051	1245.3772	17850.9	16911.85
870.4496	1247.285	17823.3	16882
870.5941	1249.1922	17782.3	16839.3
870.7387	1251.0986	17777.9	16835.2
870.8832	1253.0042	17753.45	16814.15
871.0277	1254.9092	17774.15	16834.05
871.1722	1256.8134	17863.7	16927.55
871.3167	1258.7169	17991.75	17051.95
871.4611	1260.6196	18129.3	17189.85
871.6056	1262.5216	18325.15	17382.85
871.7501	1264.4229	18480.9	17538.4
871.8945	1266.3234	18607.95	17665.8
872.039	1268.2232	18696.55	17754.9
872.1834	1270.1223	18671.5	17729.15
872.3278	1272.0207	18671.45	17733.1
872.4723	1273.9183	18620.15	17672.25
872.6167	1275.8151	18535.6	17596.75
872.7611	1277.7113	18460.9	17521
872.9055	1279.6067	18320.45	17382.05
873.0499	1281.5014	18207	17266.45
873.1943	1283.3953	18177.6	17235.5
873.3386	1285.2885	18152.6	17212.2
873.483	1287.181	18175.8	17237.55
873.6274	1289.0727	18282.05	17346.85
873.7717	1290.9637	18295.15	17354.95
873.9161	1292.854	18448.6	17512.25
874.0604	1294.7435	18567.75	17628.55
874.2047	1296.6323	18763.75	17826.7
874.349	1298.5204	18974.95	18031.65
874.4933	1300.4077	19211.3	18275.25
874.6376	1302.2943	19379.1	18440.55
874.7819	1304.1802	19438	18499.25
874.9262	1306.0653	19282	18342.25
875.0705	1307.9497	19076	18139.4
875.2147	1309.8333	18960.5	18023.15
875.359	1311.7162	18882.55	17944.6
875.5032	1313.5984	18891.8	17949.65
875.6475	1315.4798	18930.7	17976.5
875.7917	1317.3605	19011.3	18055.5
875.9359	1319.2405	19087.05	18145.55
876.0801	1321.1197	19024.85	18082.15
876.2243	1322.9982	18896.05	17952.85
876.3685	1324.876	18843.7	17903.6
876.5127	1326.753	18736.35	17797.6
876.6569	1328.6293	18723.1	17784.3
876.801	1330.5048	18759.45	17813.3
876.9452	1332.3796	18674.05	17734.85
877.0893	1334.2537	18609.55	17644
877.2335	1336.127	18578.3	17639.1
877.3776	1337.9996	18551.55	17613.85
877.5217	1339.8714	18496.8	17555.7
877.6658	1341.7426	18457.8	17475.15
877.8099	1343.6129	18393.1	17450.4
877.954	1345.4826	18351.6	17411.7
878.0981	1347.3515	18327.75	17385.55
878.2422	1349.2196	18222	17281.15
878.3862	1351.087	18246.2	17305.4
878.5303	1352.9537	18291.85	17348.4
878.6743	1354.8197	18408.1	17468.95
878.8184	1356.6849	18558.4	17620.8
878.9624	1358.5493	18619.35	17679.85
879.1064	1360.4131	18679.75	17742.25
879.2504	1362.276	18582.55	17648.25
879.3944	1364.1383	18449.65	17513
879.5384	1365.9998	18186.8	17242.25
879.6823	1367.8606	17879.4	16937.9
879.8263	1369.7206	17596.7	16656.2
879.9702	1371.5799	17350.4	16406.8
880.1142	1373.4384	17204.65	16264.85
880.2581	1375.2962	17060	16117.95
880.402	1377.1533	16751.25	15814.55
880.5459	1379.0096	16433.85	15498.1
880.6898	1380.8652	16161.3	15227.8
880.8337	1382.7201	15895.95	14961.65
880.9776	1384.5742	15652.35	14711.7
881.1215	1386.4275	15482.45	14543.6
881.2653	1388.2802	15349.8	14413.3
881.4092	1390.132	15215.05	14279
881.553	1391.9832	15118.15	14179.65
881.6968	1393.8336	15052.2	14110.85
881.8406	1395.6832	14986.95	14048.1
881.9844	1397.5322	14944.7	14007.7
882.1282	1399.3803	14886.1	13942.45
882.272	1401.2278	14853.2	13918.35
882.4158	1403.0745	14824.9	13888.65
882.5595	1404.9204	14767.15	13833.55
882.7033	1406.7656	14799.7	13862.15
882.847	1408.6101	14790.3	13850.65
882.9908	1410.4538	14762.15	13824.55
883.1345	1412.2968	14801.3	13862.85
883.2782	1414.139	14815.2	13879.3
883.4219	1415.9805	14889.1	13952.45
883.5656	1417.8213	14933.55	13989.5
883.7092	1419.6613	15032.75	14097.65
883.8529	1421.5006	15205.45	14270.55
883.9965	1423.3391	15428	14490.25
884.1402	1425.1769	15742.65	14806.85
884.2838	1427.0139	16194.35	15257.9
884.4274	1428.8502	16777.75	15840.15
884.571	1430.6858	17300.1	16364.4
884.7146	1432.5206	17714	16780.05
884.8582	1434.3547	17941.7	17007.4
885.0018	1436.188	17959.45	17027.2
885.1453	1438.0206	17928.75	16991.7
885.2889	1439.8524	17724.15	16789.3
885.4324	1441.6835	17617.9	16684.3
885.5759	1443.5139	17545.7	16610.1
885.7194	1445.3435	17428.8	16492.35
885.8629	1447.1724	17369.5	16436.8
886.0064	1449.0005	17297.55	16364.75
886.1499	1450.8279	17187.35	16255.4
886.2933	1452.6545	17168.5	16233.85
886.4368	1454.4804	17174.4	16244.9
886.5802	1456.3056	17160.3	16222.45
886.7237	1458.13	17010.2	16078.2
886.8671	1459.9536	16819.85	15886.75
887.0105	1461.7766	16446.75	15511.45
887.1539	1463.5987	16056.85	15118.3
887.2972	1465.4202	15664.95	14731.3
887.4406	1467.2409	15289.1	14357.75
887.584	1469.0608	15017.15	14084.6
887.7273	1470.88	14772.25	13839.6
887.8706	1472.6984	14529.05	13597.35
888.0139	1474.5161	14272.7	13336.85
888.1572	1476.3331	14097.35	13161.65
888.3005	1478.1493	14011.95	13078.75
888.4438	1479.9648	13934.2	12999.35
888.5871	1481.7795	13806.55	12871.45
888.7303	1483.5935	13675.05	12739.8
888.8736	1485.4067	13630.9	12696.65
889.0168	1487.2192	13593.15	12661.05
889.16	1489.031	13532.35	12596.05
889.3032	1490.842	13486.85	12555.3
889.4464	1492.6522	13437.75	12504.05
889.5896	1494.4618	13389.15	12452.85
889.7327	1496.2705	13362.95	12429.75
889.8759	1498.0785	13328.75	12393.4
890.019	1499.8858	13286.65	12354.95
890.1622	1501.6924	13247.4	12315.2
890.3053	1503.4981	13203.55	12269.2
890.4484	1505.3032	13155.45	12224.65
890.5914	1507.1075	13137.15	12205.65
890.7345	1508.911	13094.5	12160.15
890.8776	1510.7138	13061.65	12129.8
891.0206	1512.5159	12975.9	12043.15
891.1637	1514.3172	12930.6	11998.1
891.3067	1516.1178	12845.75	11919.6
891.4497	1517.9176	12813.9	11882.6
891.5927	1519.7166	12785.95	11859.2
891.7357	1521.515	12705.05	11767.45
891.8786	1523.3126	12674.3	11746.85
892.0216	1525.1094	12630	11698.05
892.1645	1526.9055	12605.75	11675.25
892.3074	1528.7008	12547.4	11616.75
892.4503	1530.4954	12472.55	11544.45
892.5932	1532.2893	12452.55	11530.2
892.7361	1534.0824	12408.95	11478.75
892.879	1535.8747	12381.25	11458.95
893.0218	1537.6663	12368.15	11444
893.1647	1539.4572	12350.2	11423
893.3075	1541.2473	12335.3	11408.85
893.4503	1543.0367	12292.85	11368.25
893.5931	1544.8253	12245.65	11313.9
893.7359	1546.6132	12263.8	11334.9
893.8787	1548.4003	12211.6	11279.6
894.0214	1550.1867	12239	11308.3
894.1642	1551.9723	12200.85	11274.3
894.3069	1553.7572	12251.75	11327.8
894.4496	1555.5414	12277.9	11357.65
894.5923	1557.3247	12317.65	11395.4
894.735	1559.1074	12340.55	11422.75
894.8777	1560.8893	12401.9	11479.8
895.0204	1562.6705	12470.05	11551.45
895.163	1564.4509	12526.8	11609.75
895.3056	1566.2305	12553.95	11640.25
895.4482	1568.0094	12630.05	11717.2
895.5908	1569.7876	12676.95	11761.75
895.7334	1571.565	12689.2	11773.15
895.876	1573.3417	12692.45	11774.95
896.0186	1575.1176	12677.65	11761.1
896.1611	1576.8928	12606.05	11691.8
896.3036	1578.6672	12482.2	11577.7
896.4461	1580.4409	12382.55	11472.25
896.5886	1582.2138	12273.8	11362.8
896.7311	1583.986	12149.55	11237.75
896.8736	1585.7575	12084.15	11170.35
897.0161	1587.5282	11990.35	11078.35
897.1585	1589.2981	11954.5	11047.6
897.3009	1591.0673	11890.3	10983.2
897.4433	1592.8358	11884.35	10978.85
897.5857	1594.6035	11907.7	10993.8
897.7281	1596.3704	11877.65	10962.75
897.8705	1598.1366	11906.7	10996.3
898.0128	1599.9021	11937.75	11027.9
898.1551	1601.6668	11977.65	11065.75
898.2975	1603.4308	12015.15	11100.2
898.4398	1605.194	12085.8	11169.8
898.5821	1606.9564	12173.95	11266.45
898.7243	1608.7182	12290.95	11389.85
898.8666	1610.4791	12451.75	11557.95
899.0088	1612.2394	12579.9	11685.65
899.1511	1613.9988	12742.2	11845.45
899.2933	1615.7576	12940.2	12036
899.4355	1617.5156	13186	12272.05
899.5776	1619.2728	13335.35	12422.35
899.7198	1621.0293	13440.85	12529.9
899.862	1622.785	13477.35	12568.35
900.0041	1624.54	13352.5	12447.15
900.1462	1626.2942	13195.8	12289.85
900.2883	1628.0477	12942.15	12038.15
900.4304	1629.8005	12686.4	11776.65
900.5725	1631.5525	12500.45	11596.55
900.7145	1633.3037	12289.35	11387.8
900.8566	1635.0542	12131.5	11229.9
900.9986	1636.804	12014.2	11109.2
901.1406	1638.553	11997.05	11010.95
901.2826	1640.3013	11886	10980.35
901.4245	1642.0488	11849.7	10945.95
901.5665	1643.7955	11874.55	10974.05
901.7085	1645.5416	11888.35	10988.75
901.8504	1647.2868	11979.2	11074.95
901.9923	1649.0313	12048.25	11143.6
902.1342	1650.7751	12198.8	11291.35
902.2761	1652.5181	12332.85	11430.75
902.4179	1654.2604	12472.3	11572.45
902.5598	1656.0019	12730.05	11827.9
902.7016	1657.7427	13040.6	12138.4
902.8434	1659.4828	13377.35	12473.8
902.9852	1661.222	13551.25	12647.1
903.127	1662.9606	13541.4	12636.45
903.2687	1664.6984	13294.05	12387.05
903.4105	1666.4354	12924.9	12016.45
903.5522	1668.1717	12447.35	11539.4
903.6939	1669.9072	11942.85	11034.7
903.8356	1671.642	11516.15	10607.3
903.9773	1673.3761	11169	10264.55
904.119	1675.1094	10884.65	9981.8
904.2606	1676.8419	10666.9	9763.7
904.4022	1678.5737	10476.15	9569.55
904.5439	1680.3048	10357.6	9447.9
904.6855	1682.0351	10212.1	9309.85
904.827	1683.7646	10101.55	9195.5
904.9686	1685.4934	10049.2	9144.45
905.1101	1687.2215	9964.2	9059.65
905.2517	1688.9488	9904.2	9002.35
905.3932	1690.6754	9840.15	8937.5
905.5347	1692.4012	9788	8881.95
905.6761	1694.1263	9728.2	8824.45
905.8176	1695.8506	9682.85	8780.05
905.9591	1697.5742	9641.7	8742.55
906.1005	1699.297	9597.4	8700.45
906.2419	1701.0191	9536.5	8639.2
906.3833	1702.7404	9502.55	8606.3
906.5246	1704.461	9449.65	8546.15
906.666	1706.1808	9418.65	8517.95
906.8073	1707.8999	9372.75	8472.7
906.9487	1709.6182	9345.05	8449.9
907.09	1711.3358	9306.2	8411.3
907.2313	1713.0527	9274.35	8380.2
907.3725	1714.7688	9226.35	8325.1
907.5138	1716.4841	9194.45	8294.45
907.655	1718.1987	9201.55	8297.1
907.7962	1719.9126	9136.1	8241.45
907.9374	1721.6257	9078.7	8183.1
908.0786	1723.338	9073.95	8181.55
908.2198	1725.0496	9030	8133.6
908.3609	1726.7605	8980.05	8079.65
908.502	1728.4706	8977.45	8079.3
908.6431	1730.18	8924.15	8027.75
908.7842	1731.8886	8887.5	7994
908.9253	1733.5964	8891.4	7975
909.0664	1735.3036	8865	7968.1
909.2074	1737.0099	8834.8	7940.15
909.3484	1738.7156	8822.55	7931.6
909.4894	1740.4204	8776.1	7877.95
909.6304	1742.1246	8717.45	7821.95
909.7714	1743.8279	8721.75	7825
909.9123	1745.5306	8678	7783.15
910.0532	1747.2325	8652.8	7760.35
910.1941	1748.9336	8639.35	7744.05
910.335	1750.634	8595.75	7699.1
910.4759	1752.3336	8596.4	7700.9
910.6168	1754.0325	8555.7	7664.85
910.7576	1755.7307	8532.05	7639.7
910.8984	1757.4281	8521.8	7627.6
911.0392	1759.1247	8496.05	7589.5
911.18	1760.8206	8488.05	7583.95
911.3208	1762.5158	8467.05	7564.15
911.4615	1764.2102	8411.55	7515.1
911.6022	1765.9039	8385.2	7491
911.7429	1767.5968	8370.75	7480.75
911.8836	1769.289	8366.2	7474.65
912.0243	1770.9804	8361.65	7465.1
912.1649	1772.6711	8321.55	7423.75
912.3056	1774.361	8313.4	7417.5
912.4462	1776.0502	8273.3	7374.85
912.5868	1777.7386	8265.45	7365.95
912.7274	1779.4263	8220.95	7328.8
912.8679	1781.1132	8225.5	7333.05
913.0084	1782.7994	8196.15	7308.1
913.149	1784.4849	8178.55	7288.5
913.2895	1786.1696	8138.4	7242.25
913.4299	1787.8535	8137.6	7248.65
913.5704	1789.5367	8110.65	7222.75
913.7108	1791.2192	8112.95	7223.7
913.8513	1792.9009	8086.35	7168.8
913.9917	1794.5818	8066.4	7170.75
914.132	1796.2621	8044.65	7150.95
914.2724	1797.9415	8012.2	7116.05
914.4128	1799.6202	8000.9	7106
914.5531	1801.2982	7976.8	7082.35
914.6934	1802.9755	7969.2	7072.55
914.8337	1804.6519	7968.65	7073.9
914.9739	1806.3277	7914	7023.6
915.1142	1808.0027	7885.5	6997.9
915.2544	1809.6769	7895.5	7008.2
915.3946	1811.3504	7871.15	6982.55
915.5348	1813.0231	7827.5	6937.35
915.675	1814.6951	7822.2	6932.45
915.8151	1816.3664	7815.4	6918.85
915.9553	1818.0369	7795.7	6903.8
916.0954	1819.7067	7773.35	6880.8
916.2355	1821.3757	7734.35	6838.45
916.3755	1823.044	7753.65	6858.5
916.5156	1824.7115	7723	6828.15
916.6556	1826.3783	7668.4	6774.6
916.7956	1828.0443	7668.15	6774.75
916.9356	1829.7096	7644.7	6751.6
917.0756	1831.3741	7655.9	6764.15
917.2155	1833.0379	7628.25	6740.85
917.3555	1834.701	7629.05	6737.3
917.4954	1836.3633	7584.6	6694.4
917.6353	1838.0248	7581.55	6693.55
917.7751	1839.6856	7556.7	6664.95
917.915	1841.3457	7553.55	6659.4
918.0548	1843.005	7540.75	6648.55
918.1946	1844.6636	7530.35	6640
918.3344	1846.3214	7483.1	6594.5
918.4742	1847.9785	7487.65	6597.7
918.6139	1849.6349	7483.8	6591.1
918.7537	1851.2904	7456.55	6551.05
918.8934	1852.9453	7434.5	6536
919.0331	1854.5994	7418.3	6520.2
919.1727	1856.2528	7428.65	6528.8
919.3124	1857.9054	7399.15	6506.35
919.452	1859.5572	7402.65	6511.65
919.5916	1861.2083	7366.9	6476
919.7312	1862.8587	7352	6459.5
919.8708	1864.5084	7328.75	6431.45
920.0103	1866.1572	7318.15	6421.95
920.1498	1867.8054	7288.35	6392.85
920.2893	1869.4528	7265	6368.9
920.4288	1871.0994	7259.1	6362.8
920.5683	1872.7453	7228.1	6334.2
920.7077	1874.3905	7233.2	6321.2
920.8471	1876.0349	7206.75	6311.5
920.9865	1877.6786	7197.9	6303.75
921.1259	1879.3215	7186.85	6293.9
921.2653	1880.9637	7164.1	6272.95
921.4046	1882.6051	7139.35	6246.1
921.5439	1884.2458	7129.5	6235.5
921.6832	1885.8858	7105.2	6212.3
921.8225	1887.525	7105.05	6212.55
921.9617	1889.1634	7076.35	6185.05
922.101	1890.8011	7041.35	6147.55
922.2402	1892.4381	7034.1	6141.35
922.3794	1894.0743	7030.3	6138.1
922.5185	1895.7098	7013.8	6121.3
922.6577	1897.3446	6989.7	6094.85
922.7968	1898.9786	6960.5	6064.3
922.9359	1900.6118	6952.75	6062.2
923.075	1902.2443	6915	6022
923.214	1903.8761	6899.75	6006.3
923.3531	1905.5071	6884.25	5992.1
923.4921	1907.1374	6851.4	5958.3
923.6311	1908.7669	6840.85	5952.65
923.77	1910.3957	6845.45	5956.3
923.909	1912.0237	6792.6	5902.2
924.0479	1913.651	6780.4	5888.05
924.1868	1915.2776	6783.35	5891.35
924.3257	1916.9034	6737.8	5848.1
924.4646	1918.5285	6720	5831.85
924.6034	1920.1528	6700.45	5809.35
924.7422	1921.7764	6690.75	5800.05
924.881	1923.3992	6654.8	5763.45
925.0198	1925.0213	6615.05	5723.6
925.1586	1926.6427	6613.95	5722.75
925.2973	1928.2633	6665.75	5675.15
925.436	1929.8832	6564.15	5670.85
925.5747	1931.5023	6544.9	5654.15
925.7134	1933.1207	6527.9	5635.55
925.852	1934.7383	6527.25	5636.1
925.9906	1936.3552	6488.7	5599.9
926.1292	1937.9714	6468.85	5577
926.2678	1939.5868	6454.4	5560.35
926.4064	1941.2015	6411.8	5518.55
926.5449	1942.8154	6388.75	5496.6
926.6834	1944.4286	6371.4	5475.5
926.8219	1946.041	6365.85	5451.55
926.9604	1947.6528	6331.6	5434.15
927.0988	1949.2637	6319.05	5427
927.2372	1950.8739	6282	5393.25
927.3756	1952.4834	6279.55	5389.55
927.514	1954.0921	6266.25	5374.95
927.6523	1955.7001	6232.4	5338.7
927.7907	1957.3074	6205.95	5317.1
927.929	1958.9139	6193.05	5308.2
928.0673	1960.5197	6185.3	5295.85
928.2055	1962.1247	6144.7	5258.5
928.3438	1963.729	6117.85	5232.05
928.482	1965.3325	6102.4	5210.55
928.6202	1966.9353	6076.85	5193.1
928.7584	1968.5374	6074.2	5187.55
928.8965	1970.1387	6057	5169.8
929.0346	1971.7393	6012.95	5127.55
929.1727	1973.3392	6014.65	5127.85
929.3108	1974.9383	5983.6	5098.1
929.4489	1976.5366	5963.45	5078.05
929.5869	1978.1342	5959.7	5075.5
929.7249	1979.7311	5936.3	5051.3
929.8629	1981.3273	5922.6	5037.95
930.0009	1982.9227	5890.6	5005.3
930.1388	1984.5173	5874.45	4990.75
930.2767	1986.1112	5853.35	4970.4
930.4146	1987.7044	5845	4961.85
930.5525	1989.2968	5850.75	4963.3
930.6904	1990.8885	5843.2	4956.45
930.8282	1992.4795	5803.25	4919.65
930.966	1994.0697	5785.8	4901.95
931.1038	1995.6592	5766.5	4882.35
931.2415	1997.2479	5750.85	4866.1
931.3793	1998.8359	5758.85	4879.2
931.517	2000.4232	5714.65	4835.25
931.6547	2002.0097	5716	4838.3
931.7923	2003.5955	5693.2	4813.9
931.93	2005.1805	5672.1	4790.4
932.0676	2006.7648	5654.5	4774.6
932.2052	2008.3484	5650.55	4770.35
932.3427	2009.9312	5650.5	4769.75
932.4803	2011.5133	5607.7	4729.7
932.6178	2013.0946	5584.9	4706.2
932.7553	2014.6752	5577.7	4698.25
932.8928	2016.2551	5563.85	4682.65
933.0302	2017.8342	5564.6	4683.7
933.1676	2019.4126	5550.65	4671.15
933.305	2020.9902	5501.65	4624.35
933.4424	2022.5672	5502.45	4624.25
933.5798	2024.1433	5499.3	4617.6
933.7171	2025.7188	5467.15	4594.35
933.8544	2027.2935	5443.2	4568.2
933.9917	2028.8674	5432.15	4555.9
934.129	2030.4406	5432.1	4555.8
934.2662	2032.0131	5410.8	4536.6
934.4034	2033.5849	5394.4	4513
934.5406	2035.1559	5386.9	4513.05
934.6778	2036.7261	5385.3	4506.25
934.8149	2038.2957	5364	4482.3
934.952	2039.8645	5374.3	4492.25
935.0891	2041.4325	5369.05	4483.1
935.2262	2042.9998	5345.2	4468.15
935.3632	2044.5664	5322.55	4441.15
935.5002	2046.1323	5300.95	4423.75
935.6372	2047.6974	5291.65	4415.15
935.7742	2049.2617	5281.9	4406.6
935.9111	2050.8254	5279.55	4397.15
936.048	2052.3883	5263.4	4381.15
936.1849	2053.9504	5277.7	4397
936.3218	2055.5118	5261.6	4379.15
936.4586	2057.0725	5255.95	4373.1
936.5955	2058.6325	5239.4	4358.05
936.7323	2060.1917	5211.2	4334.3
936.869	2061.7502	5202.2	4320.6
937.0058	2063.3079	5185.9	4309.1
937.1425	2064.8649	5155.55	4274.45
937.2792	2066.4212	5155.75	4276
937.4159	2067.9767	5144.95	4264.6
937.5525	2069.5315	5106.45	4226.9
937.6891	2071.0856	5091.55	4212.85
937.8257	2072.6389	5066.2	4187.35
937.9623	2074.1915	5040.35	4163.2
938.0989	2075.7433	5012.65	4134.25
938.2354	2077.2945	5008.05	4130.05
938.3719	2078.8448	4998.45	4117.9
938.5084	2080.3945	5000.3	4118.25
938.6448	2081.9434	4972.75	4094.75
938.7812	2083.4916	4974.2	4090
938.9176	2085.039	4959.5	4069.05
939.054	2086.5857	4955.65	4065.7
939.1903	2088.1317	4943.2	4055.85
939.3267	2089.677	4955.95	4066.8
939.463	2091.2215	4930.45	4041.6
939.5992	2092.7652	4908	4017.65
939.7355	2094.3083	4900.3	4012.4
939.8717	2095.8506	4875	3992.2
940.0079	2097.3921	4868.55	3986.25
940.1441	2098.933	4877.9	3995.15
940.2802	2100.4731	4840.05	3954.7
940.4163	2102.0124	4855	3951.1
940.5524	2103.5511	4832.75	3945.65
940.6885	2105.089	4829.25	3944.55
940.8245	2106.6261	4806.4	3922.55
940.9606	2108.1626	4789.65	3906.5
941.0965	2109.6983	4809.4	3896.3
941.2325	2111.2332	4772.9	3886.85
941.3684	2112.7675	4767.35	3879.65
941.5044	2114.301	4755.65	3871.45
941.6403	2115.8337	4758.8	3872.65
941.7761	2117.3657	4725.15	3840.9
941.912	2118.897	4719.55	3831
942.0478	2120.4276	4732.35	3840.5
942.1835	2121.9575	4700.6	3815.4
942.3193	2123.4866	4699.45	3799.95
942.455	2125.0149	4671.65	3784.9
942.5907	2126.5426	4631.85	3749.35
942.7264	2128.0695	4648.1	3764.9
942.8621	2129.5956	4623.3	3745.3
942.9977	2131.1211	4620.5	3736.3
943.1333	2132.6458	4621.25	3738.4
943.2689	2134.1698	4612.85	3727.3
943.4044	2135.693	4603.2	3711.75
943.54	2137.2155	4604.25	3716.2
943.6755	2138.7373	4571.55	3686.7
943.8109	2140.2584	4557.8	3676.4
943.9464	2141.7787	4539.15	3653.95
944.0818	2143.2983	4520.9	3645.2
944.2172	2144.8171	4496.9	3619.45
944.3526	2146.3353	4503.75	3621.55
944.4879	2147.8527	4491.25	3610.2
944.6232	2149.3693	4485.95	3602.4
944.7585	2150.8853	4484.6	3597.1
944.8938	2152.4005	4462.35	3575.5
945.029	2153.9149	4468.95	3580.1
945.1642	2155.4287	4435.95	3549.7
945.2994	2156.9417	4429.5	3544.6
945.4346	2158.454	4435.8	3549.7
945.5697	2159.9655	4395.65	3516.2
945.7048	2161.4764	4394.15	3512.15
945.8399	2162.9865	4402.05	3519.3
945.9749	2164.4958	4373.3	3491.7
946.1099	2166.0045	4370.75	3484.75
946.2449	2167.5124	4364	3482.05
946.3799	2169.0195	4355.85	3471.3
946.5148	2170.526	4360.4	3474.4
946.6498	2172.0317	4323.35	3438.6
946.7846	2173.5367	4340.4	3456.8
946.9195	2175.0409	4292.5	3408.05
947.0543	2176.5445	4300.6	3417.9
947.1891	2178.0473	4290.6	3403.65
947.3239	2179.5494	4266.75	3377.45
947.4587	2181.0507	4273.05	3388.7
947.5934	2182.5513	4258.5	3374.75
947.7281	2184.0512	4266.65	3377.9
947.8628	2185.5504	4215.85	3330.9
947.9974	2187.0488	4211.45	3331.95
948.132	2188.5465	4206.15	3326.6
948.2666	2190.0435	4195.6	3311.85
948.4012	2191.5397	4180.8	3295.4
948.5357	2193.0353	4194.1	3309.65
948.6702	2194.5301	4177.1	3288.45
948.8047	2196.0241	4152.3	3262.55
948.9392	2197.5175	4140.35	3250.45
949.0736	2199.0101	4140.75	3247.75
949.208	2200.502	4126.15	3240.55
949.3424	2201.9931	4110.1	3229.2
949.4767	2203.4835	4080.05	3196.2
949.611	2204.9733	4095.1	3207.2
949.7453	2206.4622	4067.35	3189.5
949.8796	2207.9505	4053.8	3171.15
950.0138	2209.438	4036.25	3157.35
950.148	2210.9248	4021.2	3138.8
950.2822	2212.4109	4021.55	3139.5
950.4164	2213.8962	4015.65	3126.65
950.5505	2215.3809	4003.25	3112.1
950.6846	2216.8648	4008.35	3117.15
950.8186	2218.3479	3987.8	3089.9
950.9527	2219.8304	3973.1	3076.65
951.0867	2221.3121	3955.4	3062.4
951.2207	2222.7931	3944.55	3055.2
951.3546	2224.2733	3942.3	3053.95
951.4886	2225.7529	3923.1	3036.5
951.6225	2227.2317	3910.05	3023.3
951.7563	2228.7098	3913.15	3033.05
951.8902	2230.1872	3897.45	3017.55
952.024	2231.6638	3875	2994.4
952.1578	2233.1397	3883.75	2996.5
952.2916	2234.6149	3864.9	2984.5
952.4253	2236.0894	3856.3	2972.6
952.559	2237.5632	3859.1	2965.9
952.6927	2239.0362	3839.7	2957.1
952.8263	2240.5085	3817.25	2933.35
952.9599	2241.9801	3806.2	2921.25
953.0935	2243.4509	3801.4	2913.4
953.2271	2244.921	3799.15	2909.95
953.3606	2246.3904	3793.3	2903.8
953.4941	2247.8591	3777.35	2890.2
953.6276	2249.3271	3766.75	2881.35
953.7611	2250.7943	3756.85	2866.45
953.8945	2252.2608	3763.85	2874.8
954.0279	2253.7266	3732.9	2847.95
954.1612	2255.1917	3732.95	2845.75
954.2946	2256.656	3715.05	2830.8
954.4279	2258.1197	3708.6	2826.75
954.5612	2259.5826	3703.05	2817.3
954.6944	2261.0447	3696.25	2811.4
954.8276	2262.5062	3676.45	2786.55
954.9608	2263.9669	3681.25	2791.15
955.094	2265.4269	3675	2788.6
955.2271	2266.8862	3660.15	2774.5
955.3602	2268.3448	3656.3	2771.9
955.4933	2269.8026	3631.65	2748.2
955.6264	2271.2598	3620.2	2735.3
955.7594	2272.7162	3617.55	2735.7
955.8924	2274.1719	3610.95	2723.4
956.0253	2275.6268	3606.75	2717.9
956.1583	2277.0811	3618.95	2731.1
956.2912	2278.5346	3587.5	2703.1
956.4241	2279.9874	3585.9	2703.3
956.5569	2281.4395	3570.3	2689.7
956.6897	2282.8908	3567.05	2677.8
956.8225	2284.3414	3557.1	2670.5
956.9553	2285.7914	3556.3	2673.6
957.088	2287.2406	3554	2667.25
957.2207	2288.689	3545.7	2658.6
957.3534	2290.1368	3529.45	2638.8
957.486	2291.5838	3524.25	2630.35
957.6186	2293.0302	3522.8	2627.95
957.7512	2294.4758	3499.45	2609.7
957.8838	2295.9206	3494.2	2605.5
958.0163	2297.3648	3492.25	2607.6
958.1488	2298.8082	3494.5	2608.7
958.2813	2300.251	3477.1	2589.05
958.4137	2301.693	3469.95	2579.1
958.5461	2303.1343	3466.4	2577.05
958.6785	2304.5748	3454.75	2568.2
958.8108	2306.0147	3431.15	2546.25
958.9432	2307.4538	3438.05	2552.75
959.0754	2308.8922	3423.75	2542.2
959.2077	2310.3299	3420	2538
959.3399	2311.7669	3410	2522.7
959.4721	2313.2031	3396.65	2514.05
959.6043	2314.6387	3394	2508.05
959.7365	2316.0735	3376.8	2490.25
959.8686	2317.5076	3380.35	2495.4
960.0006	2318.941	3360.4	2472.05
960.1327	2320.3737	3354.95	2466.15
960.2647	2321.8056	3364.15	2472.85
960.3967	2323.2369	3336.7	2448.6
960.5287	2324.6674	3344.6	2454.6
960.6606	2326.0972	3330.95	2444
960.7925	2327.5263	3322.8	2435.6
960.9244	2328.9547	3304.7	2417.35
961.0562	2330.3823	3300.25	2408.85
961.1881	2331.8092	3309.1	2418.1
961.3198	2333.2355	3290.55	2398.5
961.4516	2334.661	3289.95	2401.75
961.5833	2336.0858	3283.95	2394.45
961.715	2337.5098	3265.7	2378.7
961.8467	2338.9332	3277.75	2389.95
961.9783	2340.3558	3266.8	2378.55
962.1099	2341.7778	3258.95	2372.55
962.2415	2343.199	3240.45	2352.75
962.373	2344.6195	3234.2	2347.25
962.5045	2346.0393	3223.15	2337.95
962.636	2347.4583	3236.45	2349.55
962.7675	2348.8767	3220.05	2331
962.8989	2350.2943	3213.15	2325.35
963.0303	2351.7113	3217	2326.1
963.1617	2353.1275	3197.75	2309.4
963.293	2354.543	3206.05	2308.25
963.4243	2355.9578	3192.9	2303.85
963.5556	2357.3718	3160.4	2276.6
963.6868	2358.7852	3159.2	2274.35
963.818	2360.1978	3159.1	2274.25
963.9492	2361.6098	3148.85	2266.75
964.0803	2363.021	3151.55	2261.3
964.2114	2364.4315	3127.65	2243.55
964.3425	2365.8413	3125.95	2239.4
964.4736	2367.2504	3107.7	2227.2
964.6046	2368.6587	3107.4	2225.9
964.7356	2370.0664	3095.6	2210.4
964.8666	2371.4733	3090.65	2206.35
964.9975	2372.8795	3083.4	2199.7
965.1284	2374.285	3076.95	2192.7
965.2593	2375.6899	3062.95	2180.95
965.3901	2377.0939	3053.6	2170.35
965.5209	2378.4973	3041.5	2161.5
965.6517	2379.9	3042.7	2159.55
965.7825	2381.3019	3029.8	2147.75
965.9132	2382.7032	3028.3	2146.9
966.0439	2384.1037	3015.9	2137
966.1745	2385.5035	3007.55	2129.2
966.3051	2386.9027	2988.7	2109.25
966.4357	2388.3011	3010.15	2125.7
966.5663	2389.6987	2994.2	2113.4
966.6968	2391.0957	2980.3	2101.2
966.8273	2392.492	2962.15	2081.35
966.9578	2393.8876	2956	2074.95
967.0882	2395.2824	2942.4	2061.95
967.2186	2396.6765	2934.95	2054.4
967.349	2398.07	2926.85	2045.1
967.4793	2399.4627	2928.9	2045.95
967.6097	2400.8547	2913.15	2029.75
967.7399	2402.246	2909.3	2021.6
967.8702	2403.6366	2909.75	2026.55
968.0004	2405.0265	2897.35	2015.35
968.1306	2406.4156	2892.05	2005.7
968.2607	2407.8041	2882.2	1995.75
968.3909	2409.1918	2882.85	1998.2
968.521	2410.5789	2864.5	1983.15
968.651	2411.9652	2866.5	1980.45
968.781	2413.3508	2850.85	1970.65
968.911	2414.7358	2834.5	1951.25
969.041	2416.12	2833.15	1950.85
969.1709	2417.5035	2832.7	1951.5
969.3008	2418.8863	2820.55	1940.35
969.4307	2420.2684	2810.7	1927.9
969.5606	2421.6497	2816.95	1931.85
969.6904	2423.0304	2791.2	1910.6
969.8201	2424.4104	2797.75	1914.45
969.9499	2425.7896	2787.35	1902.35
970.0796	2427.1682	2779.6	1898.7
970.2093	2428.546	2787.1	1903.75
970.3389	2429.9232	2784.9	1900.9
970.4685	2431.2996	2767.6	1883.65
970.5981	2432.6753	2757.4	1874.65
970.7277	2434.0503	2753.85	1870.85
970.8572	2435.4246	2751.5	1869.55
970.9867	2436.7982	2744.2	1857.1
971.1161	2438.1711	2730.85	1848.6
971.2456	2439.5433	2739.9	1854.25
971.375	2440.9148	2728.1	1838.5
971.5043	2442.2856	2714.5	1830.5
971.6336	2443.6557	2710.6	1828.2
971.7629	2445.025	2699.45	1816.15
971.8922	2446.3937	2697.8	1812.05
972.0214	2447.7617	2691.9	1809.35
972.1506	2449.1289	2692.15	1811.25
972.2798	2450.4955	2673.7	1786.9
972.4089	2451.8613	2668.85	1785
972.538	2453.2265	2657.1	1773.45
972.6671	2454.5909	2674.15	1791.2
972.7961	2455.9546	2668.3	1785.55
972.9251	2457.3177	2649.05	1766.7
973.0541	2458.68	2654.6	1772.15
973.1831	2460.0416	2653.25	1768.7
973.312	2461.4025	2652.55	1767.8
973.4408	2462.7627	2640.6	1748.8
973.5697	2464.1222	2631.2	1751.15
973.6985	2465.4811	2626	1743.45
973.8273	2466.8392	2619.85	1738.5
973.956	2468.1966	2628.15	1745.85
974.0847	2469.5533	2622.75	1735.6
974.2134	2470.9093	2610.2	1726.9
974.3421	2472.2645	2610.9	1726.85
974.4707	2473.6191	2614.65	1732.45
974.5993	2474.973	2588.45	1704.15
974.7278	2476.3262	2595.7	1709.9
974.8563	2477.6787	2582.5	1699.5
974.9848	2479.0305	2570.35	1689.4
975.1132	2480.3816	2581.65	1695.5
975.2417	2481.7319	2563.35	1682.7
975.37	2483.0816	2553.05	1666.55
975.4984	2484.4306	2549.8	1667.6
975.6267	2485.7789	2544	1661.65
975.755	2487.1264	2529.75	1645.45
975.8833	2488.4733	2527.45	1646.05
976.0115	2489.8195	2538.95	1642.05
976.1397	2491.165	2527.85	1642.7
976.2678	2492.5097	2521.6	1638.5
976.3959	2493.8538	2496.95	1613.45
976.524	2495.1972	2493.7	1612.35
976.6521	2496.5398	2485.55	1599.35
976.7801	2497.8818	2481.5	1595.1
976.9081	2499.2231	2477.7	1594.3
977.036	2500.5637	2480.75	1596.3
977.164	2501.9035	2470.8	1586.85
977.2918	2503.2427	2469.55	1581.4
977.4197	2504.5812	2463.3	1578
977.5475	2505.919	2457.8	1572.8
977.6753	2507.256	2459.05	1575.4
977.8031	2508.5924	2450.2	1566.9
977.9308	2509.9281	2444.95	1556.65
978.0585	2511.2631	2440.95	1558.8
978.1861	2512.5974	2435.1	1552.7
978.3137	2513.9309	2417.6	1534.05
978.4413	2515.2638	2437.85	1523.8
978.5689	2516.596	2414	1530.35
978.6964	2517.9275	2413.9	1529.5
978.8239	2519.2583	2402.15	1517.05
978.9513	2520.5884	2398.8	1513
979.0788	2521.9178	2398.05	1514.9
979.2062	2523.2465	2386.5	1503.55
979.3335	2524.5745	2379.9	1497.05
979.4608	2525.9018	2371.9	1486.95
979.5881	2527.2284	2380.1	1496.35
979.7154	2528.5543	2369.2	1488.6
979.8426	2529.8796	2363.05	1480.05
979.9698	2531.2041	2371.75	1490.4
980.0969	2532.5279	2367.7	1487.8
980.224	2533.851	2359.7	1475.7
980.3511	2535.1735	2350.85	1468.55
980.4781	2536.4952	2349.1	1464.55
980.6052	2537.8163	2342.65	1457.3
980.7321	2539.1366	2332.65	1446.3
980.8591	2540.4562	2337.8	1451.8
980.986	2541.7752	2339.7	1454.5
981.1129	2543.0935	2332.05	1447.3
981.2397	2544.411	2328.7	1444.55
981.3665	2545.7279	2313.55	1429.75
981.4933	2547.0441	2309.35	1427.1
981.62	2548.3596	2319.85	1432.8
981.7467	2549.6744	2306.8	1424.1
981.8734	2550.9885	2307.35	1415.35
982.0001	2552.3019	2305.7	1422.85
982.1267	2553.6146	2298	1411.9
982.2532	2554.9266	2306.7	1422.75
982.3798	2556.2379	2287.35	1404.05
982.5063	2557.5485	2288.3	1406.25
982.6327	2558.8585	2285.6	1393.6
982.7592	2560.1677	2286.25	1396.35
982.8856	2561.4762	2268	1384.6
983.0119	2562.7841	2276.2	1390.8
983.1383	2564.0913	2270.1	1387.2
983.2646	2565.3977	2264.75	1378.05
983.3908	2566.7035	2255.3	1369.95
983.517	2568.0086	2266.9	1379.5
983.6432	2569.313	2251.6	1369.8
983.7694	2570.6167	2260.8	1371
983.8955	2571.9197	2249.15	1362.9
984.0216	2573.222	2255.2	1366.45
984.1476	2574.5236	2246.25	1362.6
984.2737	2575.8246	2233.4	1345.95
984.3996	2577.1248	2238.7	1353.1
984.5256	2578.4244	2230.05	1347.35
984.6515	2579.7232	2224.45	1340.05
984.7774	2581.0214	2264.2	1343.65
984.9032	2582.3189	2243.05	1358.3
985.029	2583.6157	2230.8	1341.3
985.1548	2584.9118	2228.85	1342.5
985.2806	2586.2072	2216.35	1334.95
985.4063	2587.5019	2220.2	1337.15
985.5319	2588.7959	2223.65	1338.95
985.6576	2590.0893	2214.8	1329.45
985.7832	2591.3819	2212.65	1328.45
985.9087	2592.6739	2209.85	1326.85
986.0343	2593.9652	2211.4	1324.9
986.1597	2595.2557	2211.3	1324.25
986.2852	2596.5456	2204.45	1317.7
986.4106	2597.8348	2191.4	1307.2
986.536	2599.1234	2198.85	1317.1
986.6614	2600.4112	2194.65	1307.95
986.7867	2601.6983	2198.75	1310.5
986.912	2602.9848	2195.25	1312
987.0372	2604.2705	2193.2	1303.3
987.1624	2605.5556	2182.75	1297.35
987.2876	2606.84	2173.2	1287.85
987.4128	2608.1237	2170.15	1284.25
987.5379	2609.4067	2170.1	1285.35
987.6629	2610.689	2166.35	1273
987.788	2611.9707	2166.25	1279.1
987.913	2613.2516	2151.5	1264.15
988.0379	2614.5319	2156	1272.9
988.1629	2615.8115	2137.1	1253.05
988.2878	2617.0903	2140.75	1254.3
988.4126	2618.3685	2128.75	1244.4
988.5375	2619.6461	2134.15	1247.85
988.6622	2620.9229	2123.1	1238.4
988.787	2622.199	2125.35	1240.75
988.9117	2623.4745	2135.8	1252.6
989.0364	2624.7493	2125.4	1241.95
989.161	2626.0234	2109.6	1226.9
989.2857	2627.2968	2112.15	1228.6
989.4102	2628.5695	2112.95	1228.25
989.5348	2629.8415	2102.55	1217.45
989.6593	2631.1128	2103.1	1217.65
989.7837	2632.3835	2090.05	1207.9
989.9082	2633.6535	2101.05	1217.65
990.0326	2634.9228	2083.25	1198.75
990.1569	2636.1914	2082.7	1199.4
990.2812	2637.4593	2085.1	1200.25
990.4055	2638.7265	2080.1	1197.4
990.5298	2639.9931	2071.5	1189.45
990.654	2641.259	2069.75	1186.5
990.7782	2642.5242	2068.75	1183.7
990.9023	2643.7887	2066.75	1183.05
991.0264	2645.0525	2060.6	1178.4
991.1505	2646.3156	2053.3	1168.6
991.2745	2647.5781	2054.7	1171.6
991.3985	2648.8398	2046.7	1165.6
991.5225	2650.1009	2050.25	1159.35
991.6464	2651.3613	2042.3	1158.1
991.7703	2652.6211	2035.75	1151.85
991.8942	2653.8801	2030.4	1145.05
992.018	2655.1385	2038.2	1152.1
992.1418	2656.3961	2035.6	1153.2
992.2655	2657.6531	2028.4	1145.4
992.3892	2658.9094	2032.95	1147.7
992.5129	2660.1651	2019.7	1138.5
992.6366	2661.42	2024.65	1139.8
992.7602	2662.6743	2023.3	1140.15
992.8837	2663.9279	2017.75	1135.8
993.0073	2665.1808	2016.8	1131.15
993.1307	2666.433	2018	1135.75
993.2542	2667.6846	2015.75	1133.4
993.3776	2668.9354	2020.05	1134
993.501	2670.1856	2013.4	1128.7
993.6244	2671.4351	2008.9	1124.7
993.7477	2672.6839	2018.6	1133.3
993.8709	2673.9321	2024.6	1140.4
993.9942	2675.1795	2008.85	1127.9
994.1174	2676.4263	2015.55	1133.2
994.2405	2677.6724	2009.2	1125.5
994.3637	2678.9179	2013.8	1130.35
994.4868	2680.1626	2008.8	1123.8
994.6098	2681.4067	2007.55	1124.65
994.7328	2682.6501	2012.7	1129.35
994.8558	2683.8928	2008.75	1124.05
994.9788	2685.1348	1985.95	1103.3
995.1017	2686.3761	1987.05	1104.55
995.2245	2687.6168	1982.05	1097.2
995.3474	2688.8568	1983.95	1100.65
995.4702	2690.0961	1968.05	1087.3
995.5929	2691.3348	1963.95	1081.2
995.7156	2692.5727	1959.75	1075.2
995.8383	2693.81	1956.25	1072.55
995.961	2695.0466	1952.3	1070.5
996.0836	2696.2826	1949.4	1064.65
996.2062	2697.5178	1944.7	1056.8
996.3287	2698.7524	1948.8	1063.65
996.4512	2699.9863	1952.4	1067.2
996.5737	2701.2195	1951.3	1066.95
996.6961	2702.452	1945.35	1060.85
996.8185	2703.6839	1949.5	1065.7
996.9408	2704.9151	1949.7	1068.25
997.0631	2706.1456	1951.6	1067.15
997.1854	2707.3755	1959.45	1077.2
997.3077	2708.6046	1973.55	1086.1
997.4299	2709.8331	1966.5	1083.7
997.552	2711.0609	1974.1	1089.45
997.6742	2712.2881	1976.55	1092.2
997.7963	2713.5145	1977.7	1093.25
997.9183	2714.7403	1988.05	1104.75
998.0403	2715.9654	1995.05	1111.35
998.1623	2717.1899	2017.6	1119.7
998.2842	2718.4136	2014	1129.05
998.4062	2719.6367	2024.2	1141.05
998.528	2720.8591	2049.4	1160.9
998.6498	2722.0809	2040.4	1157.85
998.7716	2723.3019	2051.5	1166.1
998.8934	2724.5223	2057.35	1172.35
999.0151	2725.7421	2052.15	1165.9
999.1368	2726.9611	2054.6	1170.65
999.2584	2728.1795	2050.05	1162
999.38	2729.3972	2042.7	1160.3
999.5016	2730.6142	2048.35	1153.55
999.6231	2731.8306	2012.65	1129.2
999.7446	2733.0462	1999.85	1116.65
999.8661	2734.2612	1985.5	1098.05
999.9875	2735.4756	1961.35	1078.6
1000.1089	2736.6892	1945.5	1060.75
1000.2302	2737.9022	1929.55	1049.85
1000.3515	2739.1145	1907.7	1025.1
1000.4728	2740.3262	1904.25	1013.85
1000.594	2741.5372	1882.5	1002.6
1000.7152	2742.7475	1862.9	979.6
1000.8363	2743.9571	1862.85	979.5
1000.9575	2745.1661	1861.9	977.2
1001.0785	2746.3744	1835.35	950.65
1001.1996	2747.582	1835.8	953.6
1001.3206	2748.7889	1825.6	942.25
1001.4415	2749.9952	1807.9	925.2
1001.5625	2751.2008	1807.6	925
1001.6833	2752.4057	1803.3	918.7
1001.8042	2753.61	1792.6	909.75
1001.925	2754.8136	1798.4	912.4
1002.0458	2756.0165	1793.15	910.55
1002.1665	2757.2188	1788.65	907.65
1002.2872	2758.4204	1785.15	903.3
1002.4078	2759.6213	1780.25	895.6
1002.5285	2760.8215	1781.05	894.35
1002.649	2762.0211	1780.7	898.05
1002.7696	2763.22	1776.25	891.85
1002.8901	2764.4182	1768.55	882.95
1003.0106	2765.6158	1770.7	887.25
1003.131	2766.8127	1753.1	871.4
1003.2514	2768.009	1756.9	874.9
1003.3717	2769.2045	1751.15	867.35
1003.492	2770.3994	1745.95	860.55
1003.6123	2771.5936	1747.3	866.2
1003.7325	2772.7872	1737.5	857.9
1003.8527	2773.9801	1741	857.5
1003.9729	2775.1723	1749.1	851.25
1004.093	2776.3639	1729	848.15
1004.2131	2777.5548	1734.95	850.15
1004.3331	2778.745	1732.8	849.45
1004.4531	2779.9346	1727	847.5
1004.5731	2781.1235	1734.15	851.45
1004.693	2782.3117	1734.65	854.15
1004.8129	2783.4992	1733.25	853.25
1004.9328	2784.6861	1737	856.5
1005.0526	2785.8723	1743.65	862.75
1005.1723	2787.0579	1748.2	869.3
1005.2921	2788.2428	1751.65	870.4
1005.4118	2789.427	1744.9	865.05
1005.5314	2790.6106	1765.3	884.65
1005.651	2791.7935	1769.8	887.35
1005.7706	2792.9757	1774.95	893.95
1005.8902	2794.1573	1793.05	910.25
1006.0097	2795.3382	1794	912.05
1006.1291	2796.5184	1816.55	938.6
1006.2485	2797.698	1824.75	942.75
1006.3679	2798.8769	1833.4	953.3
1006.4873	2800.0551	1860.3	979.2
1006.6066	2801.2327	1861.85	980.25
1006.7258	2802.4096	1872.65	990.8
1006.8451	2803.5859	1909.9	1028.55
1006.9642	2804.7615	1918.6	1036.8
1007.0834	2805.9364	1933.75	1053.95
1007.2025	2807.1106	1966.05	1084.35
1007.3216	2808.2842	2001.75	1119.9
1007.4406	2809.4572	2028.4	1148.4
1007.5596	2810.6294	2062.65	1180.25
1007.6785	2811.801	2094.35	1216.45
1007.7975	2812.972	2131.85	1250.65
1007.9163	2814.1423	2159.8	1280.55
1008.0352	2815.3119	2207.4	1322.75
1008.154	2816.4808	2259.85	1380.15
1008.2727	2817.6491	2313.2	1429.85
1008.3914	2818.8167	2360.9	1482.4
1008.5101	2819.9837	2405.05	1519.8
1008.6288	2821.15	2436.45	1555.9
1008.7474	2822.3157	2493.55	1616
1008.8659	2823.4807	2544.25	1664.85
1008.9844	2824.645	2584.7	1704.75
1009.1029	2825.8086	2637.15	1757.85
1009.2214	2826.9716	2663.05	1783.55
1009.3398	2828.134	2705.5	1826.35
1009.4581	2829.2957	2755.35	1875.7
1009.5764	2830.4567	2766.6	1885.45
1009.6947	2831.617	2794.05	1914.9
1009.813	2832.7767	2806.7	1927.3
1009.9312	2833.9358	2809.7	1929.15
1010.0493	2835.0941	2800.15	1918.25
1010.1675	2836.2519	2800.7	1920.6
1010.2855	2837.4089	2785.35	1904.25
1010.4036	2838.5653	2780.7	1902.6
1010.5216	2839.7211	2765.55	1885.65
1010.6396	2840.8761	2774.1	1893.6
1010.7575	2842.0306	2789.9	1908
1010.8754	2843.1843	2833.55	1955.95
1010.9932	2844.3374	2874.55	1994.4
1011.111	2845.4899	2936.65	2056.55
1011.2288	2846.6417	3002.35	2121.95
1011.3465	2847.7928	3083.5	2204.9
1011.4642	2848.9433	3157.35	2277.3
1011.5818	2850.0931	3233.05	2354.2
1011.6995	2851.2422	3302.75	2421.55
1011.817	2852.3907	3374.75	2496.6
1011.9345	2853.5385	3432.55	2551.5
1012.052	2854.6857	3499	2593.25
1012.1695	2855.8323	3535.8	2655.25
1012.2869	2856.9781	3590.9	2710.2
1012.4042	2858.1233	3613.15	2733.95
1012.5216	2859.2679	3676	2796.95
1012.6389	2860.4118	3726.45	2849.6
1012.7561	2861.555	3769.6	2885
1012.8733	2862.6976	3798.6	2916
1012.9905	2863.8395	3813.65	2936.5
1013.1076	2864.9808	3834.85	2955.1
1013.2247	2866.1214	3855.25	2976.95
1013.3417	2867.2614	3865.4	2985.5
1013.4587	2868.4007	3879.05	2997.4
1013.5757	2869.5393	3877.35	2996.9
1013.6926	2870.6773	3909.85	3028.9
1013.8095	2871.8146	3921.8	3038.05
1013.9263	2872.9513	3927.05	3044.4
1014.0431	2874.0874	3909.4	3026.9
1014.1599	2875.2227	3897.7	3019.25
1014.2766	2876.3574	3894.1	3012.65
1014.3933	2877.4915	3876.25	2996.7
1014.51	2878.6249	3832.05	2954
1014.6266	2879.7577	3819.8	2939.25
1014.7431	2880.8898	3809.2	2921.95
1014.8596	2882.0212	3784.7	2905.4
1014.9761	2883.152	3758.35	2879.55
1015.0925	2884.2821	3759.85	2880.8
1015.2089	2885.4116	3733.6	2855.9
1015.3253	2886.5405	3734.45	2854.3
1015.4416	2887.6686	3742.9	2862.2
1015.5579	2888.7962	3747.6	2871.05
1015.6741	2889.923	3759.35	2882.15
1015.7903	2891.0493	3763.95	2886
1015.9065	2892.1748	3769.9	2891
1016.0226	2893.2997	3781.95	2901.7
1016.1387	2894.424	3801.6	2923.95
1016.2547	2895.5476	3831.8	2953.65
1016.3707	2896.6706	3845.8	2969
1016.4866	2897.7929	3873.45	2993.95
1016.6025	2898.9145	3892	3013.5
1016.7184	2900.0355	3924.25	3044.5
1016.8342	2901.1559	3964.15	3086.4
1016.95	2902.2756	3979.9	3100.95
1017.0658	2903.3946	4014.1	3134.85
1017.1815	2904.513	4048.7	3167.55
1017.2971	2905.6308	4071.15	3193.6
1017.4127	2906.7479	4084.75	3206.15
1017.5283	2907.8643	4116.45	3237.3
1017.6439	2908.9801	4131.6	3254.8
1017.7594	2910.0953	4148.4	3271.6
1017.8748	2911.2098	4137.55	3253.95
1017.9902	2912.3236	4143.75	3255.65
1018.1056	2913.4368	4120.5	3239.8
1018.2209	2914.5494	4091.3	3212.25
1018.3362	2915.6613	4063.1	3178.95
1018.4515	2916.7725	4036.5	3154.65
1018.5667	2917.8831	4011.75	3132.3
1018.6819	2918.9931	3979.15	3097.4
1018.797	2920.1024	3957.05	3076.1
1018.9121	2921.211	3929.1	3050.65
1019.0271	2922.319	3910.95	3033.5
1019.1421	2923.4264	3891.55	3013.35
1019.2571	2924.5331	3878.4	3002.7
1019.372	2925.6391	3878.45	3000.7
1019.4869	2926.7445	3868.2	2993.25
1019.6017	2927.8493	3868.8	2989.35
1019.7165	2928.9534	3830.45	2951.35
1019.8313	2930.0569	3842.4	2962.8
1019.946	2931.1597	3851.1	2972.1
1020.0606	2932.2619	3830.3	2953.3
1020.1753	2933.3634	3801.25	2922.65
1020.2899	2934.4643	3812.15	2927.95
1020.4044	2935.5645	3782.15	2898.25
1020.5189	2936.6641	3754.15	2872.35
1020.6334	2937.763	3708.95	2830.3
1020.7478	2938.8613	3666.2	2787.4
1020.8622	2939.959	3605.85	2723.8
1020.9765	2941.056	3533.2	2656.45
1021.0908	2942.1523	3453.9	2572.75
1021.2051	2943.248	3366.85	2488
1021.3193	2944.3431	3270.3	2391.65
1021.4334	2945.4375	3154.5	2277.6
1021.5476	2946.5313	3074.6	2197.15
1021.6617	2947.6244	2969.65	2091.75
1021.7757	2948.7169	2865.8	1985.85
1021.8897	2949.8087	2772.35	1895.6
1022.0037	2950.8999	2679.55	1801.2
1022.1176	2951.9904	2586.8	1711.8
1022.2315	2953.0803	2523.85	1648.1
1022.3453	2954.1696	2460.45	1584.9
1022.4591	2955.2582	2405.85	1529.8
1022.5728	2956.3462	2349.5	1471.45
1022.6865	2957.4335	2316.95	1437.35
1022.8002	2958.5202	2286.8	1405.7
1022.9138	2959.6062	2271.35	1394.4
1023.0274	2960.6916	2239.8	1360.8
1023.141	2961.7764	2217.15	1340.1
1023.2545	2962.8605	2199.85	1321.4
1023.3679	2963.9439	2186.9	1311.5
1023.4813	2965.0267	2176.8	1296.85
1023.5947	2966.1089	2177.45	1279.3
1023.708	2967.1905	2164.7	1289.3
1023.8213	2968.2714	2156.3	1277.65
1023.9346	2969.3516	2162.25	1282.75
1024.0478	2970.4312	2158.8	1272.95
1024.1609	2971.5102	2151.7	1275.85
1024.274	2972.5885	2141.85	1264.55
1024.3871	2973.6662	2152.8	1270.25
1024.5002	2974.7432	2155.9	1279.8
1024.6132	2975.8196	2145.5	1268.15
1024.7261	2976.8954	2133.7	1255.5
1024.839	2977.9705	2111.6	1235.1
1024.9519	2979.045	2100.2	1223.5
1025.0647	2980.1188	2087.55	1211.55
1025.1775	2981.192	2063.95	1186.65
1025.2902	2982.2645	2038.35	1160.4
1025.4029	2983.3364	2024.9	1147.7
1025.5156	2984.4077	1997.8	1119.25
1025.6282	2985.4783	1972.15	1088.2
1025.7407	2986.5483	1929	1050.95
1025.8532	2987.6177	1902.15	1026.7
1025.9657	2988.6864	1858.05	980.95
1026.0782	2989.7545	1830.5	953.4
1026.1906	2990.8219	1792.95	915.65
1026.3029	2991.8887	1763.75	885.75
1026.4152	2992.9548	1736.35	858.95
1026.5275	2994.0204	1695.45	819.35
1026.6397	2995.0852	1676.05	800.25
1026.7519	2996.1495	1644.75	764.9
1026.864	2997.2131	1625.7	747.45
1026.9761	2998.276	1597.9	721.7
1027.0882	2999.3383	1571.15	694.45
1027.2002	3000.4	1573.2	696.25
1027.3122	3001.4611	1547.3	669.85
1027.4241	3002.5215	1529.9	652.55
1027.536	3003.5812	1517.5	641.45
1027.6478	3004.6404	1503.8	625.8
1027.7596	3005.6989	1495.05	614.35
1027.8714	3006.7567	1480.9	603.2
1027.9831	3007.8139	1499.6	596.45
1028.0947	3008.8705	1468.3	593.75
1028.2064	3009.9264	1468.2	589
1028.3179	3010.9818	1460.5	585.05
1028.4295	3012.0364	1449.2	571.9
1028.541	3013.0905	1436.6	559.2
1028.6524	3014.1439	1438.65	560.65
1028.7638	3015.1966	1435.85	559.15
1028.8752	3016.2487	1437.05	561.3
1028.9865	3017.3002	1445.95	565.3
1029.0978	3018.3511	1433.4	559.15
1029.209	3019.4013	1431.35	555.95
1029.3202	3020.4509	1428.6	551.15
1029.4314	3021.4998	1441.75	565.25
1029.5425	3022.5481	1436.4	560.7
1029.6535	3023.5958	1429.35	552.55
1029.7645	3024.6428	1429.7	552.85
1029.8755	3025.6892	1442.25	565.25
1029.9864	3026.735	1426.7	550.75
1030.0973	3027.7802	1439.65	563.2
1030.2082	3028.8247	1443.15	565.2
1030.319	3029.8685	1436.95	559.5
1030.4297	3030.9118	1439.25	561.3
1030.5404	3031.9544	1450.7	575.1
1030.6511	3032.9963	1440.45	562.75
1030.7617	3034.0376	1448.65	572.7
1030.8723	3035.0783	1456.65	579.4
1030.9829	3036.1184	1458.5	581.1
1031.0934	3037.1578	1461.4	586.9
1031.2038	3038.1966	1464.45	585.65
1031.3142	3039.2348	1460.25	586
1031.4246	3040.2723	1471.1	585.6
1031.5349	3041.3092	1470	593.5
1031.6452	3042.3455	1458.6	582.15
1031.7554	3043.3811	1459.3	582.65
1031.8656	3044.4161	1447.15	567.6
1031.9758	3045.4505	1442.45	565.95
1032.0859	3046.4842	1445.3	567.1
1032.1959	3047.5173	1427.25	550.55
1032.3059	3048.5498	1433.1	557.85
1032.4159	3049.5816	1420.1	544.2
1032.5258	3050.6128	1411.45	537.55
1032.6357	3051.6434	1411.6	533.9
1032.7455	3052.6734	1400.8	524.7
1032.8553	3053.7027	1399.7	523.1
1032.9651	3054.7314	1391.05	516.35
1033.0748	3055.7594	1388.95	513.95
1033.1845	3056.7868	1377	501.9
1033.2941	3057.8136	1378.15	501
1033.4037	3058.8398	1373.7	500.7
1033.5132	3059.8653	1366.2	490.7
1033.6227	3060.8902	1356.2	483
1033.7321	3061.9145	1355.8	478.6
1033.8415	3062.9381	1349.6	473.9
1033.9509	3063.9612	1352	461.85
1034.0602	3064.9835	1336.3	460.8
1034.1694	3066.0053	1339.25	459.6
1034.2787	3067.0264	1327.25	451.45
1034.3878	3068.0469	1320.3	443.85
1034.497	3069.0668	1312.55	434.05
1034.6061	3070.086	1298.7	424.95
1034.7151	3071.1046	1291.05	415.3
1034.8241	3072.1226	1290.35	412.55
1034.9331	3073.1399	1277.8	402.3
1035.042	3074.1567	1266.75	390
1035.1508	3075.1727	1257.35	378.5
1035.2597	3076.1882	1244.8	367.7
1035.3684	3077.203	1235.7	361.2
1035.4772	3078.2173	1228.45	349.35
1035.5859	3079.2308	1223.55	344.05
1035.6945	3080.2438	1220.85	341.9
1035.8031	3081.2561	1210.25	333.75
1035.9117	3082.2678	1198.8	324
1036.0202	3083.2789	1196.5	318.45
1036.1286	3084.2893	1186.7	311.35
1036.2371	3085.2991	1186.3	311.15
1036.3454	3086.3083	1184.05	305.2
1036.4538	3087.3169	1176.05	298.7
1036.562	3088.3248	1166.5	289.5
1036.6703	3089.3321	1167.1	289.05
1036.7785	3090.3388	1158.45	283.85
1036.8866	3091.3449	1151	275
1036.9948	3092.3503	1153.45	275.75
1037.1028	3093.3551	1145.85	271.95
1037.2108	3094.3593	1141.15	270.1
1037.3188	3095.3629	1135.25	261.45
1037.4267	3096.3658	1137	260.4
1037.5346	3097.3681	1130.4	254.45
1037.6425	3098.3698	1130.05	252.45
1037.7503	3099.3708	1129.35	247.55
1037.858	3100.3713	1127.4	253.9
1037.9657	3101.3711	1121.25	244.6
1038.0734	3102.3702	1234.75	242.35
1038.181	3103.3688	1120.1	242.55
1038.2886	3104.3667	1112.15	238
1038.3961	3105.364	1109	235.75
1038.5036	3106.3607	1104.6	225.15
1038.611	3107.3568	1103.9	227.7
1038.7184	3108.3522	1098.35	225
1038.8257	3109.347	1103.65	228.3
1038.933	3110.3412	1102.8	224.4
1039.0403	3111.3348	1101.6	223.35
1039.1475	3112.3277	1093.75	218.8
1039.2547	3113.32	1096.2	221
1039.3618	3114.3117	1094.3	219.45
1039.4689	3115.3028	1092.3	218.3
1039.5759	3116.2932	1091.4	214.6
1039.6829	3117.2831	1092.5	211.9
1039.7898	3118.2723	1083.8	209.45
1039.8967	3119.2608	1086.25	211.1
1040.0035	3120.2488	1082.55	206.55
1040.1103	3121.2361	1084.05	207.55
1040.2171	3122.2229	1077.6	204.65
1040.3238	3123.209	1078.65	200.45
1040.4305	3124.1944	1076.35	202.45
1040.5371	3125.1793	1077.35	202.25
1040.6437	3126.1635	1072.4	198.75
1040.7502	3127.1471	1065.8	191
1040.8567	3128.1301	1070.6	196.75
1040.9631	3129.1125	1067.9	193.1
1041.0695	3130.0942	1064.55	190.5
1041.1759	3131.0753	1072.2	187.3
1041.2822	3132.0558	1069.65	192.2
1041.3884	3133.0357	1060.5	185.6
1041.4946	3134.015	1061.85	186.6
1041.6008	3134.9936	1060.1	184.8
1041.7069	3135.9716	1082.35	184.65
1041.813	3136.949	1055.3	181.3
1041.919	3137.9258	1068.95	176.6
1042.025	3138.902	1061.8	182.7
1042.1309	3139.8775	1057.1	182.65
1042.2368	3140.8524	1049.55	174.8
1042.3427	3141.8267	1052.4	175.7
1042.4485	3142.8004	1052.3	177.2
1042.5542	3143.7735	1051.3	171.6
1042.6599	3144.7459	1049.85	173.35
1042.7656	3145.7178	1048.7	173.5
1042.8712	3146.689	1045.25	170.15
1042.9768	3147.6596	1044.6	168.8
1043.0823	3148.6295	1041.75	165.75
1043.1878	3149.5989	1042.4	166.85
1043.2932	3150.5676	1036.3	162.15
1043.3986	3151.5357	1038.05	165.1
1043.5039	3152.5032	1033	159.2
1043.6092	3153.4701	1036	161.3
1043.7145	3154.4364	1038.3	161.55
1043.8197	3155.402	1030.6	157.3
1043.9248	3156.367	1031.9	155.1
1044.03	3157.3315	1061.9	159.6
1044.135	3158.2952	1030.2	156.55
1044.24	3159.2584	1027.7	153.55
1044.345	3160.221	1029.3	155.95
1044.4499	3161.1829	1027.3	151.5
1044.5548	3162.1442	1024.35	150.25
1044.6596	3163.105	1022.45	146.75
1044.7644	3164.065	1025.25	150.95
1044.8692	3165.0245	1023.65	144.65
1044.9739	3165.9834	1022.6	149.1
1045.0785	3166.9416	1021.5	147.8
1045.1831	3167.8993	1020.55	146.2
1045.2877	3168.8563	1017.05	143.5
1045.3922	3169.8127	1017.6	143.3
1045.4966	3170.7684	1016.55	143.55
1045.6011	3171.7236	1014.35	139.6
1045.7054	3172.6782	1013.45	138.65
1045.8098	3173.6321	1014.5	139.15
1045.914	3174.5854	1019.9	140
1046.0183	3175.5381	1014.2	141.15
1046.1224	3176.4902	1010.7	135.6
1046.2266	3177.4417	1010.55	137.1
1046.3307	3178.3926	1008.5	135.15
1046.4347	3179.3428	1006.65	134.25
1046.5387	3180.2924	1007.3	132
1046.6427	3181.2415	1007.05	132.35
1046.7466	3182.1899	1009.3	132.75
1046.8504	3183.1377	1007.1	132.85
1046.9542	3184.0848	1009.1	132.25
1047.058	3185.0314	1005.85	132.25
1047.1617	3185.9773	1002.1	127.95
1047.2654	3186.9227	1003	126.15
1047.369	3187.8674	1000.15	126.4
1047.4726	3188.8115	1005.75	127.65
1047.5761	3189.755	1000.3	126.05
1047.6796	3190.6979	1000	125.5
1047.783	3191.6402	996.2	123.25
1047.8864	3192.5818	1001.35	129
1047.9898	3193.5229	1003.1	124.2
1048.0931	3194.4633	997.65	125.45
1048.1963	3195.4031	999.1	125.25
1048.2995	3196.3423	995.5	121.8
1048.4027	3197.2809	996.15	121.2
1048.5058	3198.2189	993.65	117.45
1048.6089	3199.1563	1007.55	115.4
1048.7119	3200.0931	989.35	117.9
1048.8148	3201.0292	989.65	117.05
1048.9178	3201.9648	991.15	118
1049.0206	3202.8997	991.1	114.75
1049.1235	3203.834	987.85	115.85
1049.2262	3204.7677	990.5	118.65
1049.329	3205.7008	989.8	113.85
1049.4317	3206.6333	983.6	111.3
1049.5343	3207.5652	987.75	111.2
1049.6369	3208.4964	989.15	117.65
1049.7394	3209.4271	982.85	110.55
1049.8419	3210.3571	985.4	111.75
1049.9444	3211.2865	987.65	113.5
1050.0468	3212.2154	982.8	109.35
1050.1491	3213.1436	987.2	111.5
1050.2514	3214.0712	988.2	109.5
1050.3537	3214.9982	982.7	109.8
1050.4559	3215.9246	980.3	104.15
1050.5581	3216.8503	980.3	107.45
1050.6602	3217.7755	981.4	107.85
1050.7623	3218.7001	982.75	109.85
1050.8643	3219.624	983.5	110.35
1050.9663	3220.5473	978.6	103.25
1051.0682	3221.4701	975.1	99.75
1051.1701	3222.3922	978.4	103.8
1051.2719	3223.3137	977.25	104.3
1051.3737	3224.2346	973.15	101.75
1051.4754	3225.1549	974.45	101.85
1051.5771	3226.0746	973.75	99.55
1051.6788	3226.9937	974.7	101.85
1051.7804	3227.9121	976.05	103.05
1051.8819	3228.83	976.35	102.95
1051.9834	3229.7473	975.25	101.15
1052.0849	3230.6639	972.25	98.5
1052.1863	3231.5799	971.25	97
1052.2876	3232.4954	970.65	97.3
1052.3889	3233.4102	973	99.9
1052.4902	3234.3244	968.95	94.65
1052.5914	3235.238	967.3	96.05
1052.6926	3236.151	981.25	97.25
1052.7937	3237.0634	968.85	97.05
1052.8948	3237.9752	965	90.9
1052.9958	3238.8864	965.7	92.25
1053.0968	3239.797	964.55	92.75
1053.1977	3240.7069	967.7	93.75
1053.2986	3241.6163	964.9	90
1053.3994	3242.5251	964.35	92.3
1053.5002	3243.4332	961.7	89.7
1053.6009	3244.3408	962.6	88.4
1053.7016	3245.2477	963.4	90.45
1053.8022	3246.154	964.25	91.55
1053.9028	3247.0598	960.1	86.25
1054.0034	3247.9649	963.45	89.5
1054.1039	3248.8694	958.75	85.35
1054.2043	3249.7733	960.2	86.95
1054.3047	3250.6766	956.6	83.2
1054.4051	3251.5793	960.2	86.25
1054.5054	3252.4814	960.35	87.25
1054.6056	3253.3829	955.65	81.55
1054.7058	3254.2838	956.95	85.1
1054.806	3255.1841	954	80.5
1054.9061	3256.0838	954.65	82.25
1055.0061	3256.9829	954	83.9
1055.1062	3257.8814	956.8	83
1055.2061	3258.7792	955.1	81.4
1055.306	3259.6765	952.05	76.15
1055.4059	3260.5731	951.1	79.25
1055.5057	3261.4692	949.75	77.1
1055.6055	3262.3647	947.3	75.9
1055.7052	3263.2595	947.6	74.4
1055.8049	3264.1538	941.5	68.75
1055.9045	3265.0474	942.65	69.4
1056.0041	3265.9404	943.6	71.85
1056.1036	3266.8329	943.15	70.4
1056.2031	3267.7247	953.15	71.35
1056.3025	3268.616	938.2	65.45
1056.4019	3269.5066	936.05	63.15
1056.5013	3270.3966	939	65.5
1056.6005	3271.286	933.5	59.8
