Software Version:	3.9.2.0
Unit SN:	10000200
Spectrometer SN:	6960
Date:	3/8/2024 2:03:33 PM
Data Line Index:	25
Spectral Points:	2048
Integration time (ms):	125
Averages:	20
Delay (ms):	30000
Sequence Number:	1
Processing:	dark subtract
Laser Power (mW):	305
Laser Current (mA):	823
Laser Diode Temp (C):	25
Laser Case Temp (C):	26.2
System Temp (C):	26.2
Spectrometer Temp (C):	24.1
CCD Temp (C):	0.012
Secondary Temp (C):	20.001
Heatsink Temp (C):	20.997
CCDPCB Temp (C):	35.784
SecondaryPCB Temp (C):	29.737

Wavelength	RamanShift	Raw Counts	Dark Subtracted
787.061	30.1047	461.7	55.55
787.2016	32.3739	462.1	59.1
787.3422	34.6426	469.65	64.45
787.4828	36.9109	474.5	66.35
787.6235	39.1787	486.7	75.1
787.7642	41.4461	498.7	81.3
787.9049	43.7131	504.55	83.45
788.0456	45.9796	511.85	88.9
788.1863	48.2456	520.35	94.5
788.3271	50.5112	531.85	99.9
788.4679	52.7764	541.4	106.9
788.6087	55.0411	553.8	113
788.7496	57.3054	567.2	124.1
788.8904	59.5692	575.1	128.45
789.0313	61.8326	583.45	136.8
789.1722	64.0955	595.15	144
789.3132	66.3579	619.35	161.5
789.4541	68.6199	639.15	178.3
789.5951	70.8815	673.85	207.95
789.7361	73.1426	758.65	288.55
789.8771	75.4032	968.3	496.65
790.0181	77.6634	1486.55	1008.85
790.1592	79.9231	2732.8	2247.8
790.3003	82.1824	5435.8	4934.15
790.4414	84.4412	10251.15	9724.35
790.5825	86.6995	16927.15	16358.55
790.7237	88.9574	23399.85	22797.5
790.8648	91.2148	27842	27220.7
791.006	93.4717	29934.8	29301.55
791.1472	95.7282	30402.45	29759.2
791.2885	97.9842	30423.85	29776.3
791.4297	100.2398	29914.8	29265.85
791.571	102.4949	29306.25	28655.15
791.7123	104.7495	28595.5	27941.75
791.8536	107.0036	27821.35	27168.9
791.9949	109.2573	27089.1	26435.55
792.1363	111.5105	26398.3	25742.95
792.2777	113.7632	25660.7	25004.75
792.4191	116.0154	25032.25	24363.5
792.5605	118.2672	24594.7	23929.9
792.7019	120.5185	24113.55	23451.55
792.8434	122.7693	23759	23092
792.9849	125.0197	23473.65	22798.5
793.1264	127.2696	23213.95	22537.05
793.2679	129.519	23071.65	22392.6
793.4094	131.7679	22909.25	22226.55
793.551	134.0163	22796.3	22107.3
793.6926	136.2642	22584	21892.05
793.8342	138.5117	22383.95	21691.8
793.9758	140.7587	22197.1	21502.4
794.1175	143.0052	22029.65	21333.95
794.2591	145.2512	21751.8	21058.15
794.4008	147.4967	21521.05	20823.9
794.5425	149.7417	21406.6	20707.15
794.6842	151.9863	21289.55	20585.55
794.826	154.2304	21258.15	20550.8
794.9677	156.4739	21104.15	20389.3
795.1095	158.717	21070.05	20357.2
795.2513	160.9596	20902.15	20184.7
795.3931	163.2017	20686.6	19966.75
795.535	165.4433	20415.55	19690.7
795.6768	167.6844	20083.8	19360.65
795.8187	169.925	19805.75	19081.6
795.9606	172.1651	19392.5	18662.25
796.1025	174.4047	19161.3	18427.05
796.2445	176.6439	18899.15	18167.7
796.3864	178.8825	18688.35	17953.85
796.5284	181.1206	18550.95	17811.95
796.6704	183.3582	18371.45	17622.7
796.8124	185.5954	18275.05	17526.75
796.9544	187.832	18204.4	17455.25
797.0965	190.0681	18171.05	17417.15
797.2386	192.3037	18195.9	17436.25
797.3806	194.5388	18176.5	17414.45
797.5228	196.7734	18237	17472.7
797.6649	199.0075	18310.45	17545.55
797.807	201.2411	18489.45	17722
797.9492	203.4742	18564.95	17802.45
798.0914	205.7068	18700.5	17925.3
798.2336	207.9389	18854.85	18081.95
798.3758	210.1704	18996.65	18235.85
798.518	212.4015	19095.35	18344.55
798.6603	214.632	19332.7	18584.05
798.8025	216.862	19529.65	18781.05
798.9448	219.0915	19696	18948.05
799.0871	221.3205	19933.25	19180.7
799.2294	223.549	20221.6	19473.8
799.3718	225.777	20514.9	19765.45
799.5141	228.0044	20883.45	20124.25
799.6565	230.2314	21382.4	20626.05
799.7989	232.4578	21828.4	21071.35
799.9413	234.6837	22188.6	21424.55
800.0837	236.909	22462.6	21688.7
800.2262	239.1339	22431.65	21634.5
800.3687	241.3582	22231.3	21445.9
800.5111	243.582	21885.65	21073.9
800.6536	245.8053	21606.6	20805.15
800.7961	248.0281	21297.65	20504.65
800.9387	250.2503	21004.05	20206.45
801.0812	252.472	20887.5	20089.5
801.2238	254.6932	20829.15	20031.4
801.3664	256.9139	20712.55	19910.65
801.509	259.134	20733.5	19931.25
801.6516	261.3536	20750.25	19947.85
801.7942	263.5727	20807.6	20004.25
801.9369	265.7912	20782.8	19982.1
802.0795	268.0092	20776.45	19973.15
802.2222	270.2267	20747.45	19945.55
802.3649	272.4436	20726.15	19919.85
802.5076	274.6601	20674.1	19855
802.6504	276.8759	20622.2	19813.35
802.7931	279.0913	20592.1	19781.35
802.9359	281.3061	20576.05	19760.6
803.0787	283.5204	20681.7	19864.3
803.2215	285.7341	20774.2	19956.4
803.3643	287.9473	20972.85	20145.9
803.5071	290.16	21175.05	20354.8
803.6499	292.3721	21491.75	20675.15
803.7928	294.5837	21905.65	21088.5
803.9357	296.7947	22285.35	21468.95
804.0786	299.0052	22511.2	21695.7
804.2215	301.2152	22376	21555.35
804.3644	303.4246	22060.8	21242.05
804.5074	305.6334	21568.1	20751.05
804.6503	307.8418	21052.5	20227.1
804.7933	310.0495	20651.6	19826.95
804.9363	312.2568	20341.15	19516.75
805.0793	314.4635	20129.5	19298.2
805.2223	316.6696	20033	19206.1
805.3653	318.8752	19991.7	19149.6
805.5084	321.0802	20004.2	19174.7
805.6514	323.2847	20162	19330.75
805.7945	325.4887	20248.6	19413.65
805.9376	327.692	20171.55	19339.5
806.0807	329.8949	20091.95	19253.9
806.2238	332.0972	19834.35	18995.9
806.367	334.2989	19590.7	18749.1
806.5101	336.5001	19309.45	18468.75
806.6533	338.7007	19152.65	18312.95
806.7965	340.9008	19021.9	18184.35
806.9397	343.1003	18874.15	18031.05
807.0829	345.2992	18822.05	17976
807.2261	347.4976	18821.25	17974.6
807.3693	349.6955	18858.15	18007.4
807.5126	351.8927	18970.3	18120.15
807.6559	354.0895	18933.2	18072.45
807.7991	356.2856	18979	18121.95
807.9424	358.4812	18967.2	18113.15
808.0857	360.6763	19016.9	18162.95
808.2291	362.8707	19016.85	18156.4
808.3724	365.0646	19072.15	18212.75
808.5158	367.258	19076.85	18219.55
808.6591	369.4508	19116.2	18251.15
808.8025	371.643	19221.7	18358.5
808.9459	373.8346	19212.55	18347.7
809.0893	376.0257	19189.65	18324.05
809.2327	378.2162	19106.75	18242
809.3762	380.4062	19011.8	18150.1
809.5196	382.5956	18914.25	18051.65
809.6631	384.7844	18873.95	18014.9
809.8066	386.9726	18713.2	17861.3
809.9501	389.1603	18705.3	17851.3
810.0936	391.3474	18656.15	17776.3
810.2371	393.5339	18623.7	17766.3
810.3806	395.7199	18629.75	17767.15
810.5241	397.9052	18648.6	17790.7
810.6677	400.09	18628.1	17771.7
810.8113	402.2743	18713.15	17851.9
810.9548	404.4579	18808.9	17953.25
811.0984	406.641	18998.75	18142.5
811.2421	408.8235	19217.5	18356.15
811.3857	411.0054	19577.75	18713.65
811.5293	413.1868	20044	19175.75
811.673	415.3675	20331.8	19458.7
811.8166	417.5477	20531.75	19663.25
811.9603	419.7273	20617.55	19741.45
812.104	421.9064	20512.85	19634.25
812.2477	424.0848	20378.25	19508.3
812.3914	426.2627	20189.55	19317.7
812.5351	428.4399	19902.7	19030.55
812.6788	430.6166	19554.7	18673
812.8226	432.7928	19178.7	18300.95
812.9663	434.9683	18887.4	18010.9
813.1101	437.1432	18669.6	17794.65
813.2539	439.3176	18510.6	17640.05
813.3977	441.4914	18353.8	17485.65
813.5415	443.6645	18351	17480.4
813.6853	445.8371	18312.95	17438.3
813.8291	448.0091	18251.25	17379
813.973	450.1806	18209.15	17333.7
814.1168	452.3514	18177.9	17307
814.2607	454.5216	18179.65	17293.95
814.4046	456.6913	18117.3	17243.35
814.5485	458.8603	18130.2	17256
814.6924	461.0288	18257.95	17387.1
814.8363	463.1967	18250.75	17384.2
814.9802	465.3639	18398.2	17527.7
815.1241	467.5306	18490.65	17621.35
815.2681	469.6967	18640.1	17772.25
815.412	471.8622	18786.15	17921.25
815.556	474.0271	18965.9	18094.25
815.7	476.1914	19034.4	18160.1
815.844	478.3551	19058.4	18182.9
815.988	480.5182	19059.35	18183.7
816.132	482.6807	19037.4	18174.3
816.276	484.8426	19171.2	18314.4
816.4201	487.0039	19464.8	18602
816.5641	489.1647	19880.5	19005.9
816.7082	491.3248	20294.5	19422.1
816.8522	493.4843	20515.75	19643.8
816.9963	495.6432	20528.25	19653.9
817.1404	497.8015	20446.2	19563.5
817.2845	499.9592	20486.05	19595.35
817.4286	502.1163	20452.8	19561.5
817.5727	504.2728	20156.5	19275.9
817.7168	506.4287	19919.35	19048.7
817.861	508.5839	19501.35	18628.85
818.0051	510.7386	19159.4	18282.8
818.1493	512.8927	19016.2	18133.45
818.2935	515.0461	18884.15	18003.25
818.4377	517.199	18860.05	17973.35
818.5818	519.3512	18868	17980.25
818.726	521.5029	18959.1	18068.4
818.8703	523.6539	19021.1	18136.6
819.0145	525.8043	19113.6	18224.95
819.1587	527.9541	19133.95	18236.65
819.303	530.1033	19109.55	18221.65
819.4472	532.2519	19143.1	18254.55
819.5915	534.3999	19276.35	18386.15
819.7357	536.5472	19553.35	18666.35
819.88	538.694	20038.05	19154.3
820.0243	540.8401	20646	19756.2
820.1686	542.9856	21167.45	20268.95
820.3129	545.1305	21349.05	20445.55
820.4572	547.2748	21219.4	20313.65
820.6016	549.4185	20898.5	19990.2
820.7459	551.5615	20553.4	19651.2
820.8902	553.704	20420.15	19513.35
821.0346	555.8458	20324.45	19427.15
821.1789	557.987	20358.45	19461.7
821.3233	560.1276	20370.35	19470.7
821.4677	562.2675	20392.75	19490.5
821.6121	564.4069	20418.75	19521.05
821.7565	566.5456	20418.2	19518.9
821.9009	568.6837	20369.3	19474.7
822.0453	570.8212	20093.2	19199.95
822.1897	572.958	19758.05	18861
822.3342	575.0942	19507	18612.6
822.4786	577.2299	19335.5	18446.9
822.6231	579.3648	19300.15	18424.15
822.7675	581.4992	19362.4	18495.1
822.912	583.6329	19531.15	18661.15
823.0565	585.766	19782.2	18908.5
823.201	587.8985	19931.05	19052.05
823.3454	590.0304	19907.5	19004.35
823.4899	592.1616	19894.25	18997.35
823.6345	594.2922	19809.8	18906.4
823.779	596.4222	19650.95	18747.95
823.9235	598.5515	19538.9	18634.75
824.068	600.6802	19375.9	18471.4
824.2126	602.8083	19163.05	18267.15
824.3571	604.9358	19101.35	18197.9
824.5017	607.0626	19050.25	18143.7
824.6462	609.1888	19023.6	18112.1
824.7908	611.3144	18988.8	18078.45
824.9354	613.4393	18926.2	18013
825.08	615.5636	18854.7	17941.6
825.2246	617.6873	18738.75	17831.4
825.3692	619.8103	18700.35	17791.95
825.5138	621.9327	18601.8	17694.75
825.6584	624.0544	18579.65	17681.5
825.803	626.1756	18543.1	17641.3
825.9477	628.2961	18511.5	17603.95
826.0923	630.4159	18462.55	17554.5
826.237	632.5351	18460.45	17545
826.3816	634.6537	18396.6	17484.95
826.5263	636.7716	18408.05	17493.45
826.6709	638.8889	18430.25	17510.1
826.8156	641.0056	18484.8	17566
826.9603	643.1216	18478.65	17562.95
827.105	645.237	18518.1	17604.1
827.2497	647.3518	18514.3	17609.05
827.3944	649.4659	18547.25	17648.7
827.5391	651.5793	18548.15	17646.05
827.6838	653.6922	18535.85	17635.2
827.8285	655.8043	18545.25	17639.8
827.9733	657.9159	18559.7	17654.65
828.118	660.0268	18441.85	17534
828.2627	662.137	18414.55	17501.65
828.4075	664.2466	18428	17511.8
828.5522	666.3556	18448.55	17533.75
828.697	668.4639	18420.25	17508.2
828.8418	670.5716	18490.25	17586.6
828.9865	672.6786	18586.1	17675.95
829.1313	674.785	18608.7	17693.3
829.2761	676.8907	18663.65	17749.9
829.4209	678.9958	18765.05	17857.45
829.5657	681.1002	18744.1	17828.4
829.7105	683.204	18742.75	17820.1
829.8553	685.3072	18711	17788.1
830.0001	687.4097	18658.25	17743.2
830.1449	689.5115	18664.95	17744.6
830.2898	691.6127	18608.1	17698.05
830.4346	693.7132	18557.4	17649.2
830.5794	695.8131	18525.95	17591.9
830.7243	697.9123	18494.5	17573.9
830.8691	700.0109	18492.15	17572.25
831.014	702.1089	18495.95	17577.15
831.1588	704.2061	18523.1	17604.7
831.3037	706.3028	18560.7	17636.6
831.4486	708.3987	18628.75	17708.85
831.5935	710.4941	18719.2	17799.9
831.7383	712.5887	18873.25	17957.2
831.8832	714.6827	19173.7	18252.5
832.0281	716.7761	19546.6	18632.25
832.173	718.8688	19893.85	18974.5
832.3179	720.9608	20106.35	19180.25
832.4628	723.0522	20214.35	19283.15
832.6077	725.1429	20044.5	19122.05
832.7527	727.233	19765.05	18840.55
832.8976	729.3224	19519.15	18596.1
833.0425	731.4112	19271.85	18350.8
833.1874	733.4993	19083.7	18162
833.3324	735.5867	18902.9	17982.85
833.4773	737.6735	18837.45	17916.85
833.6222	739.7596	18760.1	17834.9
833.7672	741.845	18689.8	17768.3
833.9122	743.9298	18704.55	17783.8
834.0571	746.014	18720.1	17797.65
834.2021	748.0974	18739	17808.5
834.347	750.1802	18743.8	17813.95
834.492	752.2624	18741.25	17812.15
834.637	754.3439	18795.1	17864.35
834.782	756.4247	18837.55	17902.95
834.9269	758.5048	18976.95	18050.25
835.0719	760.5843	19174.7	18245.8
835.2169	762.6631	19467.45	18536.25
835.3619	764.7413	19937.7	19010.2
835.5069	766.8188	20521.25	19592.25
835.6519	768.8956	21016.35	20083.8
835.7969	770.9718	21300.35	20368.75
835.9419	773.0473	21165.85	20236.7
836.0869	775.1221	20890.15	19961.35
836.232	777.1962	20513.75	19582.55
836.377	779.2697	20329.15	19397.35
836.522	781.3426	20369.3	19421
836.667	783.4147	20604.35	19676.55
836.8121	785.4862	20950.45	20020.25
836.9571	787.557	20945.85	20013.9
837.1021	789.6271	20662.45	19730.65
837.2472	791.6966	20126.45	19194.95
837.3922	793.7654	19572.6	18641.75
837.5373	795.8335	19297.15	18367.2
837.6823	797.901	19106.75	18172.9
837.8274	799.9678	19035.2	18099.75
837.9724	802.0339	19032.25	18099.3
838.1175	804.0993	19074.3	18128.95
838.2626	806.1641	19109.45	18175.65
838.4076	808.2282	19049.5	18119.85
838.5527	810.2916	18988.95	18054.95
838.6978	812.3544	18917.9	17989.15
838.8428	814.4164	18805.85	17875.45
838.9879	816.4778	18869.75	17933.85
839.133	818.5385	18826	17891.35
839.2781	820.5986	18903.65	17967.35
839.4232	822.658	19039.25	18097.8
839.5682	824.7166	19146.85	18213.15
839.7133	826.7747	19421.9	18487.7
839.8584	828.832	19577.4	18644.4
840.0035	830.8886	19711.3	18773.25
840.1486	832.9446	19878.95	18942.65
840.2937	834.9999	19924.45	18991.05
840.4388	837.0545	19936.1	18996.05
840.5839	839.1085	19959.6	19026.55
840.729	841.1618	19904.05	18963.55
840.8741	843.2143	19899.9	18962.6
841.0192	845.2662	19769	18836.35
841.1643	847.3175	19753	18819.5
841.3095	849.368	19636.35	18697.5
841.4546	851.4179	19541.9	18604.55
841.5997	853.467	19439.2	18500
841.7448	855.5155	19341.25	18404.1
841.8899	857.5633	19242.55	18305.65
842.0351	859.6105	19147.3	18208.4
842.1802	861.6569	19072.1	18134.5
842.3253	863.7027	19009.8	18065.85
842.4704	865.7478	19048.1	18106.75
842.6156	867.7922	19093.6	18152.95
842.7607	869.8359	19095.55	18155.65
842.9058	871.8789	19235.45	18296.7
843.0509	873.9212	19430.4	18458
843.1961	875.9629	19587.65	18649.05
843.3412	878.0039	19766.45	18828.8
843.4863	880.0441	19895.35	18961.95
843.6315	882.0837	19922.35	18985.9
843.7766	884.1226	19845.65	18902
843.9218	886.1609	19724.4	18788
844.0669	888.1984	19662.7	18725.1
844.212	890.2352	19706	18767.1
844.3572	892.2714	19639.4	18700.45
844.5023	894.3069	19637.9	18696.35
844.6475	896.3416	19528.05	18585.75
844.7926	898.3757	19529	18584.4
844.9377	900.4091	19516.75	18570.9
845.0829	902.4418	19574.55	18625.7
845.228	904.4739	19561.35	18614.8
845.3732	906.5052	19560.2	18613.6
845.5183	908.5358	19464.3	18522.8
845.6635	910.5658	19356.4	18409.35
845.8086	912.595	19221.3	18277
845.9538	914.6236	19079.95	18138.8
846.0989	916.6515	19002.4	18058.65
846.2441	918.6786	19000.25	18054.7
846.3892	920.7051	19072.55	18128.4
846.5344	922.7309	19218.9	18276.3
846.6795	924.756	19290.65	18348.1
846.8246	926.7804	19394.55	18448.6
846.9698	928.8041	19313.05	18373.95
847.1149	930.8272	19409.55	18465.85
847.2601	932.8495	19311.7	18368.3
847.4052	934.8711	19254.15	18310.7
847.5504	936.892	19115.45	18174.4
847.6955	938.9123	18954.75	18008.2
847.8407	940.9318	18867.65	17924.7
847.9858	942.9506	18730.45	17785.1
848.131	944.9688	18659.25	17717.55
848.2761	946.9862	18619.05	17677.7
848.4213	949.003	18531.5	17587.9
848.5664	951.019	18539.65	17595.65
848.7115	953.0344	18576.2	17634.65
848.8567	955.0491	18593	17648.1
849.0018	957.063	18679.15	17735.85
849.147	959.0763	18812.9	17870.65
849.2921	961.0888	18871.35	17926.75
849.4373	963.1007	18943.4	18004.8
849.5824	965.1119	18988	18055.55
849.7275	967.1223	19027.85	18099.95
849.8727	969.1321	19054.1	18125.05
850.0178	971.1412	19093.5	18156.25
850.1629	973.1495	19138.3	18201.8
850.3081	975.1572	19222.75	18229.95
850.4532	977.1641	19233.65	18291.1
850.5983	979.1704	19186.95	18240.3
850.7435	981.1759	19205.9	18260.65
850.8886	983.1808	19274.15	18331.5
851.0337	985.1849	19360.1	18406.1
851.1788	987.1884	19473.75	18526.55
851.324	989.1911	19661.1	18716.85
851.4691	991.1932	19771.35	18829.8
851.6142	993.1945	19830.85	18891.6
851.7593	995.1951	19750.9	18808.45
851.9045	997.1951	19790.05	18841.25
852.0496	999.1943	19698.2	18755.2
852.1947	1001.1928	19624.9	18681.65
852.3398	1003.1906	19611.9	18670.8
852.4849	1005.1877	19663.55	18717.3
852.63	1007.1841	19660.45	18716
852.7751	1009.1798	19586.2	18644.85
852.9202	1011.1748	19385.6	18441.9
853.0653	1013.1691	19185.3	18241.4
853.2104	1015.1627	18989.15	18048.35
853.3555	1017.1556	18719.45	17781.1
853.5006	1019.1477	18644.35	17704.5
853.6457	1021.1392	18575.15	17642.2
853.7908	1023.1299	18548.9	17617.4
853.9359	1025.12	18544.5	17619.25
854.081	1027.1093	18563.5	17646.8
854.2261	1029.0979	18650.85	17738.15
854.3712	1031.0859	18723.5	17803.5
854.5163	1033.0731	18718.4	17793.6
854.6613	1035.0596	18640.4	17708.25
854.8064	1037.0454	18469.6	17532.5
854.9515	1039.0304	18395.55	17457.6
855.0965	1041.0148	18238.55	17296.45
855.2416	1042.9985	18170.9	17227.95
855.3867	1044.9814	18180.25	17240.2
855.5317	1046.9636	18103.5	17162.05
855.6768	1048.9452	18053.35	17115.8
855.8219	1050.926	18088.3	17149.75
855.9669	1052.9061	18088	17150.25
856.112	1054.8855	18080.9	17140.8
856.257	1056.8642	18113.7	17170.2
856.4021	1058.8421	18203.25	17257.2
856.5471	1060.8194	18179.5	17239.45
856.6921	1062.7959	18218.4	17274.6
856.8372	1064.7717	18232.35	17289.85
856.9822	1066.7469	18264.5	17324.25
857.1272	1068.7213	18262.95	17321.3
857.2723	1070.695	18269.9	17329.6
857.4173	1072.6679	18185.55	17243.55
857.5623	1074.6402	18171.6	17229.9
857.7073	1076.6117	18177.55	17229.05
857.8523	1078.5826	18127.1	17187.7
857.9973	1080.5527	18167.55	17221.95
858.1423	1082.5221	18283.8	17344.2
858.2873	1084.4908	18401.15	17462.45
858.4323	1086.4587	18591.25	17651
858.5773	1088.426	18756.65	17811.85
858.7223	1090.3925	18711.55	17763.6
858.8673	1092.3584	18711.75	17771.6
859.0123	1094.3235	18564.9	17622.3
859.1573	1096.2879	18502.15	17562.7
859.3022	1098.2515	18492.85	17553.05
859.4472	1100.2145	18556.05	17613.8
859.5922	1102.1767	18626.65	17684.1
859.7371	1104.1382	18757.35	17816.8
859.8821	1106.099	18971.85	18027.4
860.027	1108.0591	19174.35	18233.75
860.172	1110.0185	19331.9	18387.2
860.3169	1111.9771	19349.1	18411.9
860.4619	1113.9351	19146.85	18206
860.6068	1115.8923	18839.1	17897.05
860.7517	1117.8488	18586.4	17643.75
860.8967	1119.8045	18250.8	17314.6
861.0416	1121.7596	18185.3	17248.65
861.1865	1123.7139	18056.25	17118.85
861.3314	1125.6675	18091.45	17152
861.4763	1127.6204	18187.65	17246.95
861.6212	1129.5726	18164.2	17223.85
861.7661	1131.524	18116.55	17178.9
861.911	1133.4748	18115.2	17174.15
862.0559	1135.4248	18126.7	17187
862.2008	1137.3741	18108.2	17167.2
862.3457	1139.3226	18069.6	17127.95
862.4905	1141.2705	18008.3	17065.95
862.6354	1143.2176	17914	16970.1
862.7803	1145.164	17938	16993.9
862.9251	1147.1097	17932.15	16991.45
863.07	1149.0546	17923	16981.25
863.2148	1150.9989	17862.35	16919.35
863.3597	1152.9424	17727.7	16789.35
863.5045	1154.8852	17566.35	16625.15
863.6493	1156.8272	17448.05	16509.25
863.7942	1158.7686	17439.55	16490.3
863.939	1160.7092	17373.4	16430.75
864.0838	1162.6491	17320.3	16377.65
864.2286	1164.5883	17432.85	16491.45
864.3734	1166.5267	17453	16511.35
864.5182	1168.4644	17646.75	16709.55
864.663	1170.4014	17827.05	16886.2
864.8078	1172.3377	18064.65	17127.75
864.9526	1174.2732	18324.45	17385.35
865.0974	1176.2081	18547.7	17609.1
865.2421	1178.1421	18747	17808.15
865.3869	1180.0755	18985.95	18049.5
865.5317	1182.0082	19049.5	18112.2
865.6764	1183.9401	19105.1	18166.7
865.8212	1185.8713	18919.75	17989.25
865.9659	1187.8017	18700.5	17778.65
866.1106	1189.7315	18438.7	17524
866.2554	1191.6605	18128	17210.15
866.4001	1193.5888	17913.25	16990.75
866.5448	1195.5163	17809.25	16879.2
866.6895	1197.4432	17694.6	16758.45
866.8342	1199.3693	17664	16728.75
866.9789	1201.2947	17616.4	16671.25
867.1236	1203.2193	17569.85	16633.75
867.2683	1205.1432	17593.15	16655.55
867.413	1207.0664	17608.1	16672.65
867.5576	1208.9889	17620.05	16679
867.7023	1210.9106	17647.15	16710.75
867.847	1212.8316	17710.35	16776.1
867.9916	1214.7519	17724.85	16777.8
868.1363	1216.6715	17767.15	16832.15
868.2809	1218.5903	17751	16816.95
868.4255	1220.5084	17715.65	16777.55
868.5701	1222.4257	17729.8	16789.9
868.7148	1224.3424	17658.15	16722.35
868.8594	1226.2583	17707.35	16774.45
869.004	1228.1735	17789.45	16852.8
869.1486	1230.0879	17877.95	16942.8
869.2932	1232.0016	17991.95	17056.2
869.4377	1233.9146	18016.4	17077.1
869.5823	1235.8269	17916.35	16979.45
869.7269	1237.7384	17799	16864.05
869.8715	1239.6492	17601.7	16665
870.016	1241.5592	17532.4	16595.75
870.1606	1243.4686	17429.4	16494.1
870.3051	1245.3772	17406.95	16467.55
870.4496	1247.285	17393.1	16459.25
870.5941	1249.1922	17349.2	16412.8
870.7387	1251.0986	17326.9	16393.65
870.8832	1253.0042	17301.9	16368.4
871.0277	1254.9092	17323.45	16391
871.1722	1256.8134	17393.95	16462.75
871.3167	1258.7169	17589.9	16655.75
871.4611	1260.6196	17716.35	16783.2
871.6056	1262.5216	17922.5	16984.2
871.7501	1264.4229	18080.7	17146.3
871.8945	1266.3234	18221.8	17286.65
872.039	1268.2232	18285.1	17347.95
872.1834	1270.1223	18286.85	17353.2
872.3278	1272.0207	18268.85	17334.15
872.4723	1273.9183	18232.65	17292.7
872.6167	1275.8151	18137.15	17207.25
872.7611	1277.7113	18074.85	17142.1
872.9055	1279.6067	17922.7	16989.05
873.0499	1281.5014	17863	16928.1
873.1943	1283.3953	17807.35	16873.15
873.3386	1285.2885	17797.65	16867.8
873.483	1287.181	17824.95	16892.35
873.6274	1289.0727	17932.25	17002.7
873.7717	1290.9637	18000.35	17068.3
873.9161	1292.854	18171.65	17237.3
874.0604	1294.7435	18278.8	17346
874.2047	1296.6323	18449.25	17515.25
874.349	1298.5204	18678.9	17741.45
874.4933	1300.4077	18897.95	17962.05
874.6376	1302.2943	19016.45	18085.75
874.7819	1304.1802	19013.25	18080.45
874.9262	1306.0653	18877.35	17941.25
875.0705	1307.9497	18705.15	17773.8
875.2147	1309.8333	18583.9	17654
875.359	1311.7162	18489.8	17556.05
875.5032	1313.5984	18456.1	17517.9
875.6475	1315.4798	18472.95	17527.15
875.7917	1317.3605	18527.95	17577.3
875.9359	1319.2405	18621.95	17687.9
876.0801	1321.1197	18559.85	17622.25
876.2243	1322.9982	18426.45	17489.85
876.3685	1324.876	18387.15	17451.45
876.5127	1326.753	18298.05	17369.8
876.6569	1328.6293	18230.85	17295.95
876.801	1330.5048	18236.7	17301.55
876.9452	1332.3796	18147.2	17212.8
877.0893	1334.2537	18115.55	17155.8
877.2335	1336.127	18074.1	17139.95
877.3776	1337.9996	18019.15	17086.8
877.5217	1339.8714	18022.8	17088.05
877.6658	1341.7426	18002.6	17027.5
877.8099	1343.6129	17904.95	16968.3
877.954	1345.4826	17873.65	16941.4
878.0981	1347.3515	17860	16923.6
878.2422	1349.2196	17756.9	16820.45
878.3862	1351.087	17759.8	16826.3
878.5303	1352.9537	17791.8	16857.9
878.6743	1354.8197	17945.6	17009.8
878.8184	1356.6849	18130.75	17194.95
878.9624	1358.5493	18178.1	17245.05
879.1064	1360.4131	18203.1	17271.3
879.2504	1362.276	18130.2	17198.95
879.3944	1364.1383	17981.7	17051.4
879.5384	1365.9998	17789.25	16849.3
879.6823	1367.8606	17430.55	16495.1
879.8263	1369.7206	17156.3	16221.3
879.9702	1371.5799	16919.8	15984
880.1142	1373.4384	16733.1	15796.25
880.2581	1375.2962	16595.2	15660.15
880.402	1377.1533	16306.6	15376.25
880.5459	1379.0096	15960.75	15032.6
880.6898	1380.8652	15672.55	14747.35
880.8337	1382.7201	15405.5	14476.85
880.9776	1384.5742	15182.2	14249.95
881.1215	1386.4275	14995.8	14064.8
881.2653	1388.2802	14870.7	13938.85
881.4092	1390.132	14733.05	13802.1
881.553	1391.9832	14639.9	13703.9
881.6968	1393.8336	14554.4	13621.05
881.8406	1395.6832	14469.95	13531.95
881.9844	1397.5322	14435.85	13501.2
882.1282	1399.3803	14426.35	13491
882.272	1401.2278	14372.65	13443.1
882.4158	1403.0745	14327.55	13400
882.5595	1404.9204	14287.05	13357.7
882.7033	1406.7656	14327.55	13396.7
882.847	1408.6101	14302.85	13375.05
882.9908	1410.4538	14295.9	13364.15
883.1345	1412.2968	14318.15	13384.2
883.2782	1414.139	14343.9	13410.85
883.4219	1415.9805	14403.85	13478.55
883.5656	1417.8213	14446.15	13512.65
883.7092	1419.6613	14542.1	13612.6
883.8529	1421.5006	14724.2	13796.5
883.9965	1423.3391	14975.9	14044.95
884.1402	1425.1769	15269.25	14338.6
884.2838	1427.0139	15714.85	14786.1
884.4274	1428.8502	16305.3	15376.3
884.571	1430.6858	16830.3	15902.2
884.7146	1432.5206	17248.9	16320.35
884.8582	1434.3547	17511.65	16585.75
885.0018	1436.188	17521.45	16591
885.1453	1438.0206	17450.4	16522.25
885.2889	1439.8524	17244.3	16313.05
885.4324	1441.6835	17202.45	16272.35
885.5759	1443.5139	17086.05	16151.15
885.7194	1445.3435	16968	16040.65
885.8629	1447.1724	16864.75	15937.35
886.0064	1449.0005	16827.95	15903.5
886.1499	1450.8279	16755.9	15829.75
886.2933	1452.6545	16695.35	15769.65
886.4368	1454.4804	16675.1	15746.75
886.5802	1456.3056	16670.45	15735.15
886.7237	1458.13	16550.65	15624
886.8671	1459.9536	16375.3	15447.75
887.0105	1461.7766	16052.3	15125.5
887.1539	1463.5987	15619.85	14691.6
887.2972	1465.4202	15228.2	14298.45
887.4406	1467.2409	14848.7	13916.6
887.584	1469.0608	14591.2	13665
887.7273	1470.88	14301.4	13371.45
887.8706	1472.6984	14079.55	13152.35
888.0139	1474.5161	13855.2	12924.35
888.1572	1476.3331	13694.75	12768.35
888.3005	1478.1493	13535.05	12608.7
888.4438	1479.9648	13431.95	12502.4
888.5871	1481.7795	13327.75	12398.45
888.7303	1483.5935	13269.15	12339.9
888.8736	1485.4067	13182	12253.65
889.0168	1487.2192	13133.9	12208.3
889.16	1489.031	13063.95	12131.9
889.3032	1490.842	13001.7	12073.5
889.4464	1492.6522	12986.55	12058.85
889.5896	1494.4618	12943.55	12015.8
889.7327	1496.2705	12920	11995.7
889.8759	1498.0785	12865.3	11936.55
890.019	1499.8858	12821.4	11892.65
890.1622	1501.6924	12758.05	11831.95
890.3053	1503.4981	12745.5	11817.05
890.4484	1505.3032	12736.8	11809.4
890.5914	1507.1075	12688.55	11761.05
890.7345	1508.911	12624.2	11699.5
890.8776	1510.7138	12572.5	11643.65
891.0206	1512.5159	12524.15	11598.25
891.1637	1514.3172	12423.55	11498.35
891.3067	1516.1178	12362.95	11438.25
891.4497	1517.9176	12355.85	11426.65
891.5927	1519.7166	12303.3	11377.65
891.7357	1521.515	12267.45	11336.85
891.8786	1523.3126	12215.8	11290.85
892.0216	1525.1094	12194.4	11265.65
892.1645	1526.9055	12148.25	11219.45
892.3074	1528.7008	12114.95	11191.9
892.4503	1530.4954	12040.35	11116.35
892.5932	1532.2893	12016.65	11098.95
892.7361	1534.0824	11968.5	11043.95
892.879	1535.8747	11972.65	11054.05
893.0218	1537.6663	11925.4	11003.5
893.1647	1539.4572	11877.7	10954.05
893.3075	1541.2473	11844.4	10924
893.4503	1543.0367	11852.35	10932.05
893.5931	1544.8253	11820.8	10894.4
893.7359	1546.6132	11839.6	10915.55
893.8787	1548.4003	11824.25	10893.2
894.0214	1550.1867	11823.9	10897.85
894.1642	1551.9723	11836.5	10914.05
894.3069	1553.7572	11851.15	10932.85
894.4496	1555.5414	11872.45	10955.75
894.5923	1557.3247	11922	11007.4
894.735	1559.1074	11942.45	11029.9
894.8777	1560.8893	12010.15	11098.05
895.0204	1562.6705	12052.05	11137.8
895.163	1564.4509	12141.55	11230
895.3056	1566.2305	12152.8	11242.55
895.4482	1568.0094	12261.35	11352.1
895.5908	1569.7876	12279.95	11370.65
895.7334	1571.565	12285.8	11369.6
895.876	1573.3417	12293.3	11381.15
896.0186	1575.1176	12285.5	11373.8
896.1611	1576.8928	12220	11312.6
896.3036	1578.6672	12129.6	11226.2
896.4461	1580.4409	12035.2	11131.75
896.5886	1582.2138	11912.35	11005.1
896.7311	1583.986	11787.6	10879.6
896.8736	1585.7575	11719.95	10812
897.0161	1587.5282	11666.75	10762.55
897.1585	1589.2981	11613.05	10709.6
897.3009	1591.0673	11532.25	10629.15
897.4433	1592.8358	11549.25	10645.65
897.5857	1594.6035	11548.55	10640.05
897.7281	1596.3704	11577.8	10666.9
897.8705	1598.1366	11573.45	10663.35
898.0128	1599.9021	11605.4	10697.9
898.1551	1601.6668	11663.95	10755.6
898.2975	1603.4308	11718.35	10805.5
898.4398	1605.194	11778.1	10865.4
898.5821	1606.9564	11897.8	10996.7
898.7243	1608.7182	12036.15	11134.95
898.8666	1610.4791	12170.85	11277.9
899.0088	1612.2394	12310.35	11420.75
899.1511	1613.9988	12495.4	11601.15
899.2933	1615.7576	12686.8	11786.5
899.4355	1617.5156	12908.7	11995.8
899.5776	1619.2728	13110.25	12200.3
899.7198	1621.0293	13183.75	12279.6
899.862	1622.785	13197.35	12293.5
900.0041	1624.54	13083.7	12183.6
900.1462	1626.2942	12909.7	12010.6
900.2883	1628.0477	12655.25	11752.95
900.4304	1629.8005	12421.35	11516.2
900.5725	1631.5525	12239.35	11340.4
900.7145	1633.3037	12022.95	11122.25
900.8566	1635.0542	11879.15	10980.2
900.9986	1636.804	11740.25	10840.8
901.1406	1638.553	11754.8	10771.95
901.2826	1640.3013	11617.05	10716.4
901.4245	1642.0488	11587.2	10687.15
901.5665	1643.7955	11584.9	10689.4
901.7085	1645.5416	11616	10717.65
901.8504	1647.2868	11735.2	10836
901.9923	1649.0313	11793.55	10893.2
902.1342	1650.7751	11898.65	10995.45
902.2761	1652.5181	12067.65	11170.85
902.4179	1654.2604	12249.75	11350.5
902.5598	1656.0019	12496.45	11599.25
902.7016	1657.7427	12774.7	11873.55
902.8434	1659.4828	13069.1	12167.15
902.9852	1661.222	13269.25	12366.35
903.127	1662.9606	13263.5	12362.95
903.2687	1664.6984	13078.8	12175.85
903.4105	1666.4354	12681.9	11776.8
903.5522	1668.1717	12200.75	11297.3
903.6939	1669.9072	11639.75	10733.95
903.8356	1671.642	11220.15	10312.9
903.9773	1673.3761	10867.8	9964.7
904.119	1675.1094	10568	9666.45
904.2606	1676.8419	10362.1	9458.4
904.4022	1678.5737	10175.85	9273.6
904.5439	1680.3048	10037.7	9134.5
904.6855	1682.0351	9892.6	8988.5
904.827	1683.7646	9787.95	8884.3
904.9686	1685.4934	9702.35	8800.75
905.1101	1687.2215	9639.1	8738.05
905.2517	1688.9488	9559.15	8660.55
905.3932	1690.6754	9505.15	8605.7
905.5347	1692.4012	9450.05	8548.7
905.6761	1694.1263	9416.3	8514.25
905.8176	1695.8506	9360.8	8458
905.9591	1697.5742	9334.5	8436.35
906.1005	1699.297	9277.55	8382
906.2419	1701.0191	9221.3	8326.45
906.3833	1702.7404	9185	8288.25
906.5246	1704.461	9121.55	8222
906.666	1706.1808	9083.7	8184.3
906.8073	1707.8999	9051	8153.2
906.9487	1709.6182	8998.2	8108.9
907.09	1711.3358	8969.35	8077.15
907.2313	1713.0527	8946.5	8055.15
907.3725	1714.7688	8925.2	8027.45
907.5138	1716.4841	8886.15	7986.7
907.655	1718.1987	8853.75	7953.7
907.7962	1719.9126	8821.6	7928.1
907.9374	1721.6257	8782.25	7888.75
908.0786	1723.338	8754.5	7864.5
908.2198	1725.0496	8708.8	7816.35
908.3609	1726.7605	8670.65	7776.2
908.502	1728.4706	8654	7758.3
908.6431	1730.18	8583.05	7690.45
908.7842	1731.8886	8587.95	7697.9
908.9253	1733.5964	8584.95	7672.35
909.0664	1735.3036	8564.85	7670.55
909.2074	1737.0099	8529.35	7637.3
909.3484	1738.7156	8507.35	7617.95
909.4894	1740.4204	8443.25	7548.05
909.6304	1742.1246	8423.8	7527.8
909.7714	1743.8279	8406.7	7516.05
909.9123	1745.5306	8373.15	7481.95
910.0532	1747.2325	8338.9	7447.9
910.1941	1748.9336	8321.7	7429.4
910.335	1750.634	8310.15	7411.35
910.4759	1752.3336	8279.3	7384.55
910.6168	1754.0325	8223.65	7333.6
910.7576	1755.7307	8231.45	7340.7
910.8984	1757.4281	8217	7322.95
911.0392	1759.1247	8196.35	7290.25
911.18	1760.8206	8168.7	7271.6
911.3208	1762.5158	8179.4	7279.55
911.4615	1764.2102	8133.7	7241.5
911.6022	1765.9039	8097.5	7206.7
911.7429	1767.5968	8082	7192.15
911.8836	1769.289	8067.55	7177.45
912.0243	1770.9804	8041.1	7145.95
912.1649	1772.6711	8017.2	7120.7
912.3056	1774.361	7988.65	7092.95
912.4462	1776.0502	7972.4	7077.05
912.5868	1777.7386	7946.15	7048.45
912.7274	1779.4263	7948.25	7057.7
912.8679	1781.1132	7924.45	7034.15
913.0084	1782.7994	7901.6	7013.9
913.149	1784.4849	7878.55	6987.65
913.2895	1786.1696	7851.6	6955.9
913.4299	1787.8535	7841.2	6954.9
913.5704	1789.5367	7821.2	6937.85
913.7108	1791.2192	7801.1	6914.9
913.8513	1792.9009	7806.65	6889.55
913.9917	1794.5818	7774.05	6879.3
914.132	1796.2621	7754.55	6861.35
914.2724	1797.9415	7732.05	6841.35
914.4128	1799.6202	7715.65	6822.85
914.5531	1801.2982	7696	6804.7
914.6934	1802.9755	7676.85	6782.05
914.8337	1804.6519	7665.8	6774.35
914.9739	1806.3277	7631.45	6741.55
915.1142	1808.0027	7586.05	6700.8
915.2544	1809.6769	7609.85	6724.25
915.3946	1811.3504	7568.95	6682.45
915.5348	1813.0231	7544.9	6659
915.675	1814.6951	7543.4	6656.05
915.8151	1816.3664	7556.75	6666.7
915.9553	1818.0369	7528.3	6635.3
916.0954	1819.7067	7484.4	6592.8
916.2355	1821.3757	7493.6	6601.15
916.3755	1823.044	7463.65	6570.95
916.5156	1824.7115	7470.25	6577.6
916.6556	1826.3783	7426.5	6535.7
916.7956	1828.0443	7411.3	6521.45
916.9356	1829.7096	7387.65	6498.4
917.0756	1831.3741	7384.65	6491.95
917.2155	1833.0379	7370.9	6482.3
917.3555	1834.701	7341.4	6453.45
917.4954	1836.3633	7320.7	6433.6
917.6353	1838.0248	7287.85	6399.5
917.7751	1839.6856	7288.6	6398.1
917.915	1841.3457	7293.9	6403.35
918.0548	1843.005	7276.35	6387.85
918.1946	1844.6636	7280.05	6388.2
918.3344	1846.3214	7241.6	6350.8
918.4742	1847.9785	7228.8	6340.6
918.6139	1849.6349	7205.85	6313.7
918.7537	1851.2904	7208.6	6306.6
918.8934	1852.9453	7166.4	6272.35
919.0331	1854.5994	7142.7	6247.8
919.1727	1856.2528	7168.25	6270.85
919.3124	1857.9054	7135.25	6245.05
919.452	1859.5572	7134.45	6244.9
919.5916	1861.2083	7107.4	6218
919.7312	1862.8587	7107.7	6214.2
919.8708	1864.5084	7065.05	6171.4
920.0103	1866.1572	7058.15	6165.25
920.1498	1867.8054	7037.9	6144.85
920.2893	1869.4528	7032.15	6140.1
920.4288	1871.0994	6995.85	6103.05
920.5683	1872.7453	6987.25	6095.75
920.7077	1874.3905	6995.1	6086.9
920.8471	1876.0349	6949.85	6057.9
920.9865	1877.6786	6927.55	6034.75
921.1259	1879.3215	6919.25	6030.6
921.2653	1880.9637	6923.2	6031.6
921.4046	1882.6051	6901.05	6013.1
921.5439	1884.2458	6894.55	6004.2
921.6832	1885.8858	6848.4	5957.1
921.8225	1887.525	6853.95	5963.35
921.9617	1889.1634	6804.9	5913.95
922.101	1890.8011	6768.8	5876.25
922.2402	1892.4381	6766.7	5874.55
922.3794	1894.0743	6770.8	5879.95
922.5185	1895.7098	6757.05	5866.4
922.6577	1897.3446	6756.45	5863.8
922.7968	1898.9786	6730.1	5834.5
922.9359	1900.6118	6707.75	5817.35
923.075	1902.2443	6670.3	5780.75
923.214	1903.8761	6667.8	5779.65
923.3531	1905.5071	6628.5	5737.6
923.4921	1907.1374	6599.1	5708.15
923.6311	1908.7669	6618.8	5729.7
923.77	1910.3957	6585.6	5696.05
923.909	1912.0237	6556.85	5667.3
924.0479	1913.651	6525.05	5634.35
924.1868	1915.2776	6522.2	5633.6
924.3257	1916.9034	6515	5627
924.4646	1918.5285	6484.15	5597.55
924.6034	1920.1528	6451.45	5560.95
924.7422	1921.7764	6451.75	5563.65
924.881	1923.3992	6422.45	5534.15
925.0198	1925.0213	6382.9	5493.35
925.1586	1926.6427	6342.55	5454.7
925.2973	1928.2633	6440.15	5451.7
925.436	1929.8832	6350.95	5459.5
925.5747	1931.5023	6319	5428
925.7134	1933.1207	6312.55	5421.3
925.852	1934.7383	6291.65	5401.9
925.9906	1936.3552	6277.1	5389.4
926.1292	1937.9714	6240.7	5354.3
926.2678	1939.5868	6237.25	5346.3
926.4064	1941.2015	6210	5318.3
926.5449	1942.8154	6178.5	5289.4
926.6834	1944.4286	6150.05	5257.15
926.8219	1946.041	6145.25	5230.85
926.9604	1947.6528	6099.55	5201.55
927.0988	1949.2637	6095.35	5206
927.2372	1950.8739	6090.75	5202.75
927.3756	1952.4834	6056.3	5169.1
927.514	1954.0921	6041.75	5154.35
927.6523	1955.7001	6039.2	5146.3
927.7907	1957.3074	5997.05	5112.05
927.929	1958.9139	5976.4	5090.6
928.0673	1960.5197	5983.7	5096.55
928.2055	1962.1247	5935.55	5049.3
928.3438	1963.729	5912.4	5026.5
928.482	1965.3325	5898.45	5008.85
928.6202	1966.9353	5884.45	5000.9
928.7584	1968.5374	5849.1	4961.85
928.8965	1970.1387	5848.2	4962.6
929.0346	1971.7393	5823.85	4938.55
929.1727	1973.3392	5804.15	4918.55
929.3108	1974.9383	5785.25	4901.15
929.4489	1976.5366	5778.25	4894.8
929.5869	1978.1342	5754.85	4871.25
929.7249	1979.7311	5734.25	4849.5
929.8629	1981.3273	5735.65	4853.55
930.0009	1982.9227	5721.1	4837.9
930.1388	1984.5173	5681.55	4799.2
930.2767	1986.1112	5654.35	4770.65
930.4146	1987.7044	5667.5	4786.05
930.5525	1989.2968	5640.8	4757.55
930.6904	1990.8885	5641.05	4756.05
930.8282	1992.4795	5617	4736.75
930.966	1994.0697	5595.65	4713.65
931.1038	1995.6592	5575	4694.3
931.2415	1997.2479	5565.55	4681.6
931.3793	1998.8359	5549.25	4670.65
931.517	2000.4232	5512.25	4635.5
931.6547	2002.0097	5501.55	4623.9
931.7923	2003.5955	5490.15	4614.65
931.93	2005.1805	5494.15	4614.2
932.0676	2006.7648	5459.9	4580.7
932.2052	2008.3484	5483.3	4605.4
932.3427	2009.9312	5458.05	4578.65
932.4803	2011.5133	5441.65	4564.5
932.6178	2013.0946	5418.7	4540.7
932.7553	2014.6752	5410.85	4531.95
932.8928	2016.2551	5377.5	4496.2
933.0302	2017.8342	5361.3	4483.75
933.1676	2019.4126	5338.4	4460.8
933.305	2020.9902	5325.7	4448.3
933.4424	2022.5672	5323.1	4446.4
933.5798	2024.1433	5316.2	4433.8
933.7171	2025.7188	5285.45	4411.45
933.8544	2027.2935	5278.6	4402.2
933.9917	2028.8674	5263.65	4386.05
934.129	2030.4406	5261.7	4386.85
934.2662	2032.0131	5231.9	4356.45
934.4034	2033.5849	5224.2	4341.7
934.5406	2035.1559	5213.25	4338.55
934.6778	2036.7261	5207.65	4328.8
934.8149	2038.2957	5192.35	4311.7
934.952	2039.8645	5194.15	4311.95
935.0891	2041.4325	5181.3	4297.7
935.2262	2042.9998	5153	4275.15
935.3632	2044.5664	5125.05	4247.15
935.5002	2046.1323	5132.5	4258.4
935.6372	2047.6974	5125.55	4248.35
935.7742	2049.2617	5093.5	4217.85
935.9111	2050.8254	5106.95	4223.7
936.048	2052.3883	5103.7	4222.75
936.1849	2053.9504	5100.55	4217.5
936.3218	2055.5118	5069.55	4189.3
936.4586	2057.0725	5042	4159.9
936.5955	2058.6325	5033	4153.5
936.7323	2060.1917	5024.25	4147.5
936.869	2061.7502	5014.8	4135.65
937.0058	2063.3079	4983.8	4108.8
937.1425	2064.8649	4979.2	4100.95
937.2792	2066.4212	4964.2	4086.5
937.4159	2067.9767	4935.6	4057.45
937.5525	2069.5315	4932	4050.45
937.6891	2071.0856	4897	4017.85
937.8257	2072.6389	4901.15	4022.8
937.9623	2074.1915	4866.5	3991.45
938.0989	2075.7433	4859.55	3979.5
938.2354	2077.2945	4836.25	3961.35
938.3719	2078.8448	4843.15	3963.3
938.5084	2080.3945	4828.6	3946.9
938.6448	2081.9434	4817.25	3936.1
938.7812	2083.4916	4805.7	3922.25
938.9176	2085.039	4798.95	3913.3
939.054	2086.5857	4782.6	3895.2
939.1903	2088.1317	4758.05	3870.1
939.3267	2089.677	4766.15	3879.85
939.463	2091.2215	4761.45	3873.55
939.5992	2092.7652	4735.8	3845.05
939.7355	2094.3083	4724.2	3836.35
939.8717	2095.8506	4716.75	3832.6
940.0079	2097.3921	4717.6	3836.35
940.1441	2098.933	4699.2	3816.8
940.2802	2100.4731	4695.8	3813.15
940.4163	2102.0124	4692.45	3792.25
940.5524	2103.5511	4687.25	3803.7
940.6885	2105.089	4664.85	3779.5
940.8245	2106.6261	4647.15	3764.75
940.9606	2108.1626	4651.6	3769.5
941.0965	2109.6983	4655.3	3743
941.2325	2111.2332	4626.95	3742.4
941.3684	2112.7675	4606.3	3722.8
941.5044	2114.301	4603.75	3716.75
941.6403	2115.8337	4600	3715.65
941.7761	2117.3657	4581.4	3694.75
941.912	2118.897	4562.65	3677.85
942.0478	2120.4276	4552.75	3663.05
942.1835	2121.9575	4539.85	3656.35
942.3193	2123.4866	4554.3	3655.65
942.455	2125.0149	4519.3	3635.25
942.5907	2126.5426	4506.9	3627.8
942.7264	2128.0695	4485.6	3604.2
942.8621	2129.5956	4484.6	3605.45
942.9977	2131.1211	4493.05	3610.25
943.1333	2132.6458	4473.65	3590.25
943.2689	2134.1698	4462.35	3576.55
943.4044	2135.693	4461.2	3573.25
943.54	2137.2155	4451.65	3564.2
943.6755	2138.7373	4417.7	3534.3
943.8109	2140.2584	4415.05	3535.1
943.9464	2141.7787	4404.4	3520.2
944.0818	2143.2983	4394.9	3519.8
944.2172	2144.8171	4377.65	3500.35
944.3526	2146.3353	4363.45	3481.7
944.4879	2147.8527	4345.7	3466.2
944.6232	2149.3693	4342.45	3459.55
944.7585	2150.8853	4346.9	3462.95
944.8938	2152.4005	4325.05	3439.6
945.029	2153.9149	4313	3426.3
945.1642	2155.4287	4302.9	3417.1
945.2994	2156.9417	4297.95	3412.9
945.4346	2158.454	4299.45	3417.35
945.5697	2159.9655	4286.2	3406
945.7048	2161.4764	4250.85	3370.2
945.8399	2162.9865	4243.8	3363.45
945.9749	2164.4958	4241.15	3358.8
946.1099	2166.0045	4233.05	3351.65
946.2449	2167.5124	4223.45	3340.15
946.3799	2169.0195	4219.4	3336.15
946.5148	2170.526	4193.85	3310.1
946.6498	2172.0317	4179.4	3297.6
946.7846	2173.5367	4197.85	3313.55
946.9195	2175.0409	4172.35	3290.6
947.0543	2176.5445	4182.35	3296.35
947.1891	2178.0473	4165.45	3280.25
947.3239	2179.5494	4150.6	3263.05
947.4587	2181.0507	4132.5	3250.55
947.5934	2182.5513	4120.45	3237.6
947.7281	2184.0512	4124.75	3241.3
947.8628	2185.5504	4104.9	3222.1
947.9974	2187.0488	4082.5	3201.85
948.132	2188.5465	4077.5	3196.85
948.2666	2190.0435	4081.4	3200.15
948.4012	2191.5397	4068.85	3184.6
948.5357	2193.0353	4054.95	3171.15
948.6702	2194.5301	4046	3157.5
948.8047	2196.0241	4031.6	3144.1
948.9392	2197.5175	4015	3128
949.0736	2199.0101	4006.75	3113.9
949.208	2200.502	3987.9	3103.65
949.3424	2201.9931	3972.05	3086.5
949.4767	2203.4835	3953.25	3071.7
949.611	2204.9733	3951.6	3066.15
949.7453	2206.4622	3933.7	3055.65
949.8796	2207.9505	3928.05	3045.8
950.0138	2209.438	3904.75	3026.8
950.148	2210.9248	3902.95	3022.55
950.2822	2212.4109	3897.75	3017.4
950.4164	2213.8962	3892.5	3004.85
950.5505	2215.3809	3870.2	2981.15
950.6846	2216.8648	3865.2	2977.2
950.8186	2218.3479	3866.5	2970.8
950.9527	2219.8304	3855.05	2961.1
951.0867	2221.3121	3856.25	2963.2
951.2207	2222.7931	3828.75	2943
951.3546	2224.2733	3813.05	2927.9
951.4886	2225.7529	3794.55	2909.8
951.6225	2227.2317	3784.35	2899.1
951.7563	2228.7098	3785.15	2904.8
951.8902	2230.1872	3768.8	2890.65
952.024	2231.6638	3758.5	2880
952.1578	2233.1397	3744.1	2859.65
952.2916	2234.6149	3736.9	2854.9
952.4253	2236.0894	3753.55	2870.5
952.559	2237.5632	3733.85	2841.25
952.6927	2239.0362	3733.55	2852.1
952.8263	2240.5085	3719.35	2835.7
952.9599	2241.9801	3700.4	2814.3
953.0935	2243.4509	3694	2808.15
953.2271	2244.921	3694.05	2804.95
953.3606	2246.3904	3672.6	2783.55
953.4941	2247.8591	3666.25	2780.75
953.6276	2249.3271	3656.6	2770.25
953.7611	2250.7943	3630.45	2744.55
953.8945	2252.2608	3623.7	2739.75
954.0279	2253.7266	3611.35	2727.4
954.1612	2255.1917	3598.5	2714.1
954.2946	2256.656	3599.8	2715.55
954.4279	2258.1197	3582.4	2700.25
954.5612	2259.5826	3577.35	2693.45
954.6944	2261.0447	3581.85	2698.2
954.8276	2262.5062	3562.35	2677.25
954.9608	2263.9669	3559.85	2673.95
955.094	2265.4269	3559.8	2677.85
955.2271	2266.8862	3543.85	2658.7
955.3602	2268.3448	3546.9	2665.55
955.4933	2269.8026	3522.55	2640
955.6264	2271.2598	3526.4	2644.6
955.7594	2272.7162	3521.9	2639.2
955.8924	2274.1719	3500.45	2614.95
956.0253	2275.6268	3514.8	2627.55
956.1583	2277.0811	3492.7	2604.55
956.2912	2278.5346	3498.95	2615.55
956.4241	2279.9874	3483.3	2601.05
956.5569	2281.4395	3484.5	2604.55
956.6897	2282.8908	3470.65	2580.35
956.8225	2284.3414	3453.7	2567.15
956.9553	2285.7914	3446	2563.55
957.088	2287.2406	3448.4	2560.95
957.2207	2288.689	3440.3	2553.95
957.3534	2290.1368	3438.85	2546.9
957.486	2291.5838	3424.4	2533.55
957.6186	2293.0302	3426.95	2533.5
957.7512	2294.4758	3414.9	2528.7
957.8838	2295.9206	3411.15	2523.85
958.0163	2297.3648	3394.5	2510.2
958.1488	2298.8082	3395.05	2509.9
958.2813	2300.251	3382	2496.6
958.4137	2301.693	3376.8	2489.75
958.5461	2303.1343	3360.7	2473.25
958.6785	2304.5748	3350.5	2465.5
958.8108	2306.0147	3343.3	2460.8
958.9432	2307.4538	3337.55	2454.15
959.0754	2308.8922	3320.5	2440.7
959.2077	2310.3299	3311.75	2431.05
959.3399	2311.7669	3306.95	2424.75
959.4721	2313.2031	3303.3	2418.7
959.6043	2314.6387	3283.3	2396.3
959.7365	2316.0735	3278.65	2394.75
959.8686	2317.5076	3277.2	2390.95
960.0006	2318.941	3270.8	2386.05
960.1327	2320.3737	3283.15	2396.05
960.2647	2321.8056	3252.9	2362.6
960.3967	2323.2369	3240.55	2353.85
960.5287	2324.6674	3237.4	2350.5
960.6606	2326.0972	3231.95	2346.1
960.7925	2327.5263	3217.5	2333.15
960.9244	2328.9547	3227.25	2336.9
961.0562	2330.3823	3214.3	2326.9
961.1881	2331.8092	3213	2321.1
961.3198	2333.2355	3203.2	2314.9
961.4516	2334.661	3192.65	2307.5
961.5833	2336.0858	3199.75	2312.45
961.715	2337.5098	3180.8	2293.3
961.8467	2338.9332	3174.55	2288.9
961.9783	2340.3558	3172.65	2284.1
962.1099	2341.7778	3166.25	2281.1
962.2415	2343.199	3153.4	2268.8
962.373	2344.6195	3143.4	2260
962.5045	2346.0393	3137.5	2255.75
962.636	2347.4583	3132.35	2247.2
962.7675	2348.8767	3139.6	2252.35
962.8989	2350.2943	3119.9	2231.7
963.0303	2351.7113	3133.05	2246
963.1617	2353.1275	3107.7	2218.5
963.293	2354.543	3107.45	2209.95
963.4243	2355.9578	3092.85	2207.2
963.5556	2357.3718	3093.5	2209.65
963.6868	2358.7852	3067.75	2183.9
963.818	2360.1978	3061.8	2177.35
963.9492	2361.6098	3055.5	2170.8
964.0803	2363.021	3065.55	2179.65
964.2114	2364.4315	3044.2	2158.4
964.3425	2365.8413	3041	2156.75
964.4736	2367.2504	3024.4	2142.45
964.6046	2368.6587	3010.65	2128.5
964.7356	2370.0664	3010.75	2131.05
964.8666	2371.4733	3009.25	2126.2
964.9975	2372.8795	3001.6	2117.55
965.1284	2374.285	2990.2	2108.1
965.2593	2375.6899	2977.95	2095.85
965.3901	2377.0939	2974	2091.2
965.5209	2378.4973	2959.55	2078.55
965.6517	2379.9	2965.6	2082.65
965.7825	2381.3019	2955.5	2073.75
965.9132	2382.7032	2939.95	2060.15
966.0439	2384.1037	2947.25	2067.8
966.1745	2385.5035	2923.9	2045.35
966.3051	2386.9027	2922.7	2045.25
966.4357	2388.3011	2920.45	2036.65
966.5663	2389.6987	2901.6	2020.65
966.6968	2391.0957	2901.15	2021.8
966.8273	2392.492	2894.35	2015.75
966.9578	2393.8876	2872.35	1991.35
967.0882	2395.2824	2859.95	1978.5
967.2186	2396.6765	2862	1981.45
967.349	2398.07	2847.1	1965.3
967.4793	2399.4627	2841.05	1958.4
967.6097	2400.8547	2842.3	1961.85
967.7399	2402.246	2840.65	1953.25
967.8702	2403.6366	2838.25	1956.45
968.0004	2405.0265	2832.35	1952.4
968.1306	2406.4156	2818.95	1934.8
968.2607	2407.8041	2811.5	1927.9
968.3909	2409.1918	2805.05	1921.85
968.521	2410.5789	2788.75	1907.55
968.651	2411.9652	2780.5	1895.95
968.781	2413.3508	2779	1898.2
968.911	2414.7358	2778.95	1895.25
969.041	2416.12	2765.95	1886.65
969.1709	2417.5035	2751.5	1869.9
969.3008	2418.8863	2759.55	1878.9
969.4307	2420.2684	2749.85	1870.55
969.5606	2421.6497	2748.2	1864.85
969.6904	2423.0304	2732.75	1853.3
969.8201	2424.4104	2726.8	1843.3
969.9499	2425.7896	2713.25	1830.8
970.0796	2427.1682	2715.35	1833.05
970.2093	2428.546	2707	1823.2
970.3389	2429.9232	2702.1	1820
970.4685	2431.2996	2701.5	1820.4
970.5981	2432.6753	2688.95	1808.35
970.7277	2434.0503	2694.65	1812.65
970.8572	2435.4246	2679.05	1798.6
970.9867	2436.7982	2684.25	1798.1
971.1161	2438.1711	2676.3	1796.5
971.2456	2439.5433	2661.45	1777.4
971.375	2440.9148	2653.9	1767.95
971.5043	2442.2856	2642.9	1764.05
971.6336	2443.6557	2633.55	1748.25
971.7629	2445.025	2639.15	1755.95
971.8922	2446.3937	2641.35	1759.5
972.0214	2447.7617	2629.75	1747.4
972.1506	2449.1289	2633.9	1752.35
972.2798	2450.4955	2611.45	1726.45
972.4089	2451.8613	2605.9	1727.6
972.538	2453.2265	2603.6	1722.85
972.6671	2454.5909	2604.4	1721.25
972.7961	2455.9546	2593.1	1711.55
972.9251	2457.3177	2585.45	1703.5
973.0541	2458.68	2571.4	1688.15
973.1831	2460.0416	2588.3	1706.25
973.312	2461.4025	2583.45	1699.85
973.4408	2462.7627	2582	1686.9
973.5697	2464.1222	2561.75	1683.3
973.6985	2465.4811	2562.55	1678.9
973.8273	2466.8392	2550.75	1668.85
973.956	2468.1966	2551.35	1668.7
974.0847	2469.5533	2555.3	1668.85
974.2134	2470.9093	2556.35	1675.05
974.3421	2472.2645	2547.75	1667.45
974.4707	2473.6191	2549.75	1667.95
974.5993	2474.973	2527	1644.65
974.7278	2476.3262	2524.65	1640.6
974.8563	2477.6787	2517.5	1635.85
974.9848	2479.0305	2516	1630.25
975.1132	2480.3816	2508.6	1625.45
975.2417	2481.7319	2497.7	1615.95
975.37	2483.0816	2503.85	1620.5
975.4984	2484.4306	2482.15	1600.8
975.6267	2485.7789	2485.95	1604.3
975.755	2487.1264	2466.75	1585.65
975.8833	2488.4733	2462.3	1581.45
976.0115	2489.8195	2470.9	1580.8
976.1397	2491.165	2467.5	1583.8
976.2678	2492.5097	2447.2	1563.65
976.3959	2493.8538	2446.2	1565.15
976.524	2495.1972	2420.95	1539.15
976.6521	2496.5398	2431.25	1546.1
976.7801	2497.8818	2423.55	1540.2
976.9081	2499.2231	2420.05	1537.5
977.036	2500.5637	2413.65	1527.15
977.164	2501.9035	2415.7	1530.1
977.2918	2503.2427	2401.05	1512.45
977.4197	2504.5812	2399.65	1515.3
977.5475	2505.919	2412.25	1527.9
977.6753	2507.256	2403.3	1519.35
977.8031	2508.5924	2397.1	1517.45
977.9308	2509.9281	2388.3	1501.05
978.0585	2511.2631	2374.2	1492.75
978.1861	2512.5974	2367.55	1487.45
978.3137	2513.9309	2369.55	1489
978.4413	2515.2638	2384.3	1474.95
978.5689	2516.596	2355	1473.5
978.6964	2517.9275	2348.75	1462.75
978.8239	2519.2583	2346.65	1464.5
978.9513	2520.5884	2330.25	1447.85
979.0788	2521.9178	2338.55	1454.6
979.2062	2523.2465	2322.25	1440.4
979.3335	2524.5745	2325.7	1444.5
979.4608	2525.9018	2320.2	1438.3
979.5881	2527.2284	2313	1432.5
979.7154	2528.5543	2318.2	1439.1
979.8426	2529.8796	2310.3	1429.3
979.9698	2531.2041	2305.8	1423.7
980.0969	2532.5279	2312.9	1434.25
980.224	2533.851	2311.6	1427.75
980.3511	2535.1735	2300.65	1419.5
980.4781	2536.4952	2292.15	1407.55
980.6052	2537.8163	2291.6	1407.95
980.7321	2539.1366	2282.6	1401.7
980.8591	2540.4562	2272.15	1386.05
980.986	2541.7752	2273.2	1390.85
981.1129	2543.0935	2281.5	1396.8
981.2397	2544.411	2273.35	1388
981.3665	2545.7279	2265.5	1382.45
981.4933	2547.0441	2261.4	1377.85
981.62	2548.3596	2264.15	1377.75
981.7467	2549.6744	2259.7	1376.45
981.8734	2550.9885	2256	1363.7
982.0001	2552.3019	2252.95	1372.15
982.1267	2553.6146	2248.45	1363.4
982.2532	2554.9266	2241.5	1358.8
982.3798	2556.2379	2226.5	1341.55
982.5063	2557.5485	2234.7	1351.6
982.6327	2558.8585	2238.85	1350.55
982.7592	2560.1677	2228.3	1340.05
982.8856	2561.4762	2222.15	1338.5
983.0119	2562.7841	2227.2	1341.6
983.1383	2564.0913	2214.15	1332.6
983.2646	2565.3977	2215.3	1332.8
983.3908	2566.7035	2211	1327.65
983.517	2568.0086	2210.9	1327.65
983.6432	2569.313	2207.35	1321.45
983.7694	2570.6167	2197.75	1308.85
983.8955	2571.9197	2191.85	1309.5
984.0216	2573.222	2204.65	1318.5
984.1476	2574.5236	2189.5	1304.3
984.2737	2575.8246	2188.65	1303.3
984.3996	2577.1248	2176.45	1290.85
984.5256	2578.4244	2191.85	1311.1
984.6515	2579.7232	2187.55	1303.95
984.7774	2581.0214	2207.8	1297.7
984.9032	2582.3189	2185.15	1305.85
985.029	2583.6157	2176.4	1288.55
985.1548	2584.9118	2180	1297.65
985.2806	2586.2072	2168	1283.95
985.4063	2587.5019	2162.15	1277.6
985.5319	2588.7959	2170.25	1286.15
985.6576	2590.0893	2176	1292.55
985.7832	2591.3819	2165.75	1282.2
985.9087	2592.6739	2146.3	1262.55
986.0343	2593.9652	2167	1281.6
986.1597	2595.2557	2161.45	1276.55
986.2852	2596.5456	2158.9	1275.5
986.4106	2597.8348	2154.4	1269.75
986.536	2599.1234	2150.3	1268.25
986.6614	2600.4112	2146.4	1261.9
986.7867	2601.6983	2145.15	1260.5
986.912	2602.9848	2143.4	1258.25
987.0372	2604.2705	2140.9	1251.95
987.1624	2605.5556	2141.1	1258.5
987.2876	2606.84	2126.55	1243.35
987.4128	2608.1237	2127.4	1243.55
987.5379	2609.4067	2115.95	1231.4
987.6629	2610.689	2119.1	1227.25
987.788	2611.9707	2118.55	1229.25
987.913	2613.2516	2116.7	1229.75
988.0379	2614.5319	2097.55	1214.75
988.1629	2615.8115	2096.7	1212.55
988.2878	2617.0903	2092.35	1205.5
988.4126	2618.3685	2089.35	1202.4
988.5375	2619.6461	2080.85	1197.2
988.6622	2620.9229	2073.1	1191.6
988.787	2622.199	2082.55	1198.9
988.9117	2623.4745	2071.9	1187.5
989.0364	2624.7493	2072.15	1189.35
989.161	2626.0234	2071.3	1187.55
989.2857	2627.2968	2055.2	1172.75
989.4102	2628.5695	2066.7	1182.4
989.5348	2629.8415	2048.65	1164.75
989.6593	2631.1128	2047.3	1162.25
989.7837	2632.3835	2049.35	1165.55
989.9082	2633.6535	2047.65	1166.85
990.0326	2634.9228	2047.55	1164.7
990.1569	2636.1914	2053.95	1171.05
990.2812	2637.4593	2050.45	1165.3
990.4055	2638.7265	2031.95	1147.9
990.5298	2639.9931	2028.55	1145.75
990.654	2641.259	2029.6	1146.3
990.7782	2642.5242	2027.75	1145.5
990.9023	2643.7887	2023.25	1139.55
991.0264	2645.0525	2021.8	1138.7
991.1505	2646.3156	2011.65	1127.35
991.2745	2647.5781	2008.45	1124.05
991.3985	2648.8398	2002.15	1119.25
991.5225	2650.1009	2003.1	1110.9
991.6464	2651.3613	2001.75	1117.8
991.7703	2652.6211	1988.7	1107
991.8942	2653.8801	1995.3	1114.9
992.018	2655.1385	1974.85	1088.6
992.1418	2656.3961	1985.55	1104.85
992.2655	2657.6531	1981.7	1100.15
992.3892	2658.9094	1993.15	1109.75
992.5129	2660.1651	1977.6	1096.05
992.6366	2661.42	1984.05	1101
992.7602	2662.6743	1980.3	1095.7
992.8837	2663.9279	1977.9	1097.15
993.0073	2665.1808	1984.7	1101.05
993.1307	2666.433	1977.95	1094.65
993.2542	2667.6846	1966.45	1086.9
993.3776	2668.9354	1973.7	1086.85
993.501	2670.1856	1978.15	1093.8
993.6244	2671.4351	1972.4	1088.9
993.7477	2672.6839	1986.9	1102.45
993.8709	2673.9321	1990.25	1109.4
993.9942	2675.1795	1970.5	1087.65
994.1174	2676.4263	1978.95	1094.7
994.2405	2677.6724	1963.05	1078.8
994.3637	2678.9179	1966.6	1083.1
994.4868	2680.1626	1966	1082.85
994.6098	2681.4067	1967.45	1082.95
994.7328	2682.6501	1962.35	1079.8
994.8558	2683.8928	1959.85	1076.25
994.9788	2685.1348	1959.2	1077.9
995.1017	2686.3761	1948.65	1068.35
995.2245	2687.6168	1942.9	1059.15
995.3474	2688.8568	1934.85	1052.3
995.4702	2690.0961	1932.1	1053.35
995.5929	2691.3348	1918.85	1034.6
995.7156	2692.5727	1923.5	1039.55
995.8383	2693.81	1920.3	1039.7
995.961	2695.0466	1917.35	1037
996.0836	2696.2826	1920.7	1036.5
996.2062	2697.5178	1922.5	1036.3
996.3287	2698.7524	1919.85	1037.5
996.4512	2699.9863	1923.1	1041.2
996.5737	2701.2195	1911	1030.85
996.6961	2702.452	1922.9	1039.05
996.8185	2703.6839	1915.7	1032.5
996.9408	2704.9151	1914.65	1033.4
997.0631	2706.1456	1919.3	1038.8
997.1854	2707.3755	1911.5	1029.65
997.3077	2708.6046	1928.3	1042.4
997.4299	2709.8331	1927.7	1045.2
997.552	2711.0609	1943.7	1061.45
997.6742	2712.2881	1956.3	1075.1
997.7963	2713.5145	1948.2	1064.1
997.9183	2714.7403	1950.25	1069.75
998.0403	2715.9654	1961	1078.05
998.1623	2717.1899	1981.6	1085
998.2842	2718.4136	1981.8	1098.55
998.4062	2719.6367	1990.4	1108.85
998.528	2720.8591	2009	1118.4
998.6498	2722.0809	2008.7	1128.45
998.7716	2723.3019	2020.2	1135.2
998.8934	2724.5223	2028.15	1143.85
999.0151	2725.7421	2031.9	1148.75
999.1368	2726.9611	2029.75	1146.1
999.2584	2728.1795	2016	1128.05
999.38	2729.3972	2009.3	1129.5
999.5016	2730.6142	1997.25	1101.85
999.6231	2731.8306	1977.4	1093.95
999.7446	2733.0462	1967.1	1083.7
999.8661	2734.2612	1951.85	1065.45
999.9875	2735.4756	1935.05	1050.45
1000.1089	2736.6892	1917	1035.05
1000.2302	2737.9022	1895.85	1016.2
1000.3515	2739.1145	1886.95	1005.3
1000.4728	2740.3262	1873.25	981.5
1000.594	2741.5372	1850.05	968
1000.7152	2742.7475	1845.95	965.15
1000.8363	2743.9571	1833.95	950.25
1000.9575	2745.1661	1824.6	939.9
1001.0785	2746.3744	1808.35	927.35
1001.1996	2747.582	1806.3	925
1001.3206	2748.7889	1796.85	912.2
1001.4415	2749.9952	1780.15	899.3
1001.5625	2751.2008	1768	886.6
1001.6833	2752.4057	1781	897.25
1001.8042	2753.61	1765.05	882.8
1001.925	2754.8136	1768.25	885.5
1002.0458	2756.0165	1758.25	877.65
1002.1665	2757.2188	1756.85	878.6
1002.2872	2758.4204	1751.55	872.45
1002.4078	2759.6213	1752.05	870.35
1002.5285	2760.8215	1751.1	866.1
1002.649	2762.0211	1749.85	867.3
1002.7696	2763.22	1745.9	860.55
1002.8901	2764.4182	1745.8	864.4
1003.0106	2765.6158	1742.05	861.3
1003.131	2766.8127	1732.75	851.7
1003.2514	2768.009	1728.05	848
1003.3717	2769.2045	1720.7	837.8
1003.492	2770.3994	1720.35	837.1
1003.6123	2771.5936	1712	829.8
1003.7325	2772.7872	1713	833.55
1003.8527	2773.9801	1700.1	819.1
1003.9729	2775.1723	1714.35	815.4
1004.093	2776.3639	1707.9	827.7
1004.2131	2777.5548	1705.05	824.4
1004.3331	2778.745	1706.8	824.3
1004.4531	2779.9346	1702.35	822.15
1004.5731	2781.1235	1702.75	821.25
1004.693	2782.3117	1704.65	825.45
1004.8129	2783.4992	1708.75	830.55
1004.9328	2784.6861	1712	830.8
1005.0526	2785.8723	1715.25	833.85
1005.1723	2787.0579	1729	848.15
1005.2921	2788.2428	1716.45	836.05
1005.4118	2789.427	1729.55	848.55
1005.5314	2790.6106	1736.75	855.4
1005.651	2791.7935	1738.65	856.85
1005.7706	2792.9757	1746.2	867.45
1005.8902	2794.1573	1758.3	876.25
1006.0097	2795.3382	1774.4	894.1
1006.1291	2796.5184	1777.55	898.45
1006.2485	2797.698	1799.85	918.2
1006.3679	2798.8769	1819.6	940.6
1006.4873	2800.0551	1827.35	945.4
1006.6066	2801.2327	1843.35	963.2
1006.7258	2802.4096	1862.75	980.95
1006.8451	2803.5859	1873.4	993.1
1006.9642	2804.7615	1896.9	1015.1
1007.0834	2805.9364	1918.55	1039.35
1007.2025	2807.1106	1940.85	1062.1
1007.3216	2808.2842	1969.3	1088.45
1007.4406	2809.4572	1998.8	1119.75
1007.5596	2810.6294	2031.85	1151.95
1007.6785	2811.801	2067.7	1190.75
1007.7975	2812.972	2099.55	1222.6
1007.9163	2814.1423	2141.95	1261.05
1008.0352	2815.3119	2197.5	1317.6
1008.154	2816.4808	2240.15	1361.2
1008.2727	2817.6491	2283.4	1404.45
1008.3914	2818.8167	2331.7	1454.15
1008.5101	2819.9837	2389.7	1506.35
1008.6288	2821.15	2419.25	1539.2
1008.7474	2822.3157	2466	1586.9
1008.8659	2823.4807	2528.4	1648.65
1008.9844	2824.645	2570.8	1689
1009.1029	2825.8086	2617.85	1739.3
1009.2214	2826.9716	2656.8	1778.05
1009.3398	2828.134	2694.3	1817.5
1009.4581	2829.2957	2738.1	1858.3
1009.5764	2830.4567	2753.9	1876.5
1009.6947	2831.617	2779.5	1900.05
1009.813	2832.7767	2799.55	1921.25
1009.9312	2833.9358	2791.2	1912.05
1010.0493	2835.0941	2790.1	1908
1010.1675	2836.2519	2791.85	1914
1010.2855	2837.4089	2761.05	1879.9
1010.4036	2838.5653	2748.75	1869.25
1010.5216	2839.7211	2763.15	1885.05
1010.6396	2840.8761	2772.8	1891.3
1010.7575	2842.0306	2793.3	1915.15
1010.8754	2843.1843	2817.7	1939.15
1010.9932	2844.3374	2863.75	1986.6
1011.111	2845.4899	2924.85	2044.25
1011.2288	2846.6417	2976.65	2097.85
1011.3465	2847.7928	3071.2	2192.95
1011.4642	2848.9433	3139.85	2260.9
1011.5818	2850.0931	3202.35	2324.3
1011.6995	2851.2422	3291.9	2411.7
1011.817	2852.3907	3353.1	2471.85
1011.9345	2853.5385	3418.3	2537.45
1012.052	2854.6857	3495.15	2587.25
1012.1695	2855.8323	3517	2639.4
1012.2869	2856.9781	3560.75	2681.1
1012.4042	2858.1233	3610.1	2731.9
1012.5216	2859.2679	3648.55	2769.65
1012.6389	2860.4118	3704	2823.7
1012.7561	2861.555	3764.9	2881.1
1012.8733	2862.6976	3780.9	2901.4
1012.9905	2863.8395	3799.65	2920.1
1013.1076	2864.9808	3832.9	2952.05
1013.2247	2866.1214	3844.45	2969.3
1013.3417	2867.2614	3866.2	2986.4
1013.4587	2868.4007	3885.35	3006.05
1013.5757	2869.5393	3881.35	3000.3
1013.6926	2870.6773	3896.5	3013.05
1013.8095	2871.8146	3906.6	3023.1
1013.9263	2872.9513	3913.75	3033.2
1014.0431	2874.0874	3898.3	3019
1014.1599	2875.2227	3887.65	3006.45
1014.2766	2876.3574	3877.35	2997.25
1014.3933	2877.4915	3859.65	2981.65
1014.51	2878.6249	3838.8	2961.85
1014.6266	2879.7577	3796.55	2915.9
1014.7431	2880.8898	3780.6	2892.1
1014.8596	2882.0212	3767.05	2889.95
1014.9761	2883.152	3758.25	2880
1015.0925	2884.2821	3756.9	2879.85
1015.2089	2885.4116	3736.5	2859
1015.3253	2886.5405	3726.75	2847.85
1015.4416	2887.6686	3758.2	2877.3
1015.5579	2888.7962	3746.3	2868.35
1015.6741	2889.923	3740.4	2865.25
1015.7903	2891.0493	3758.65	2882.35
1015.9065	2892.1748	3767.85	2889.55
1016.0226	2893.2997	3772.7	2892.85
1016.1387	2894.424	3799.9	2924.05
1016.2547	2895.5476	3814	2936.65
1016.3707	2896.6706	3830.6	2953.5
1016.4866	2897.7929	3861.5	2982.1
1016.6025	2898.9145	3888.05	3009.5
1016.7184	2900.0355	3914.9	3035.05
1016.8342	2901.1559	3965.55	3087.7
1016.95	2902.2756	3984.6	3106.25
1017.0658	2903.3946	4015.8	3138.3
1017.1815	2904.513	4062.65	3182.9
1017.2971	2905.6308	4060.6	3182.9
1017.4127	2906.7479	4091.45	3213.65
1017.5283	2907.8643	4107.95	3228.35
1017.6439	2908.9801	4129.4	3252.2
1017.7594	2910.0953	4141.2	3261.6
1017.8748	2911.2098	4134.9	3252.5
1017.9902	2912.3236	4137.3	3252.95
1018.1056	2913.4368	4120.3	3239.65
1018.2209	2914.5494	4103	3224.95
1018.3362	2915.6613	4077.4	3194.55
1018.4515	2916.7725	4050.05	3168.2
1018.5667	2917.8831	4007.5	3129.15
1018.6819	2918.9931	3977.4	3097.3
1018.797	2920.1024	3939.05	3060.15
1018.9121	2921.211	3925.65	3047.65
1019.0271	2922.319	3909.55	3030.75
1019.1421	2923.4264	3890.6	3013
1019.2571	2924.5331	3875.55	2998.7
1019.372	2925.6391	3863.45	2984.95
1019.4869	2926.7445	3847.75	2971
1019.6017	2927.8493	3837.55	2959.65
1019.7165	2928.9534	3825.7	2948.5
1019.8313	2930.0569	3850.6	2969.8
1019.946	2931.1597	3818.15	2940.75
1020.0606	2932.2619	3824.5	2947.35
1020.1753	2933.3634	3813.25	2934.85
1020.2899	2934.4643	3808.9	2924.5
1020.4044	2935.5645	3800.35	2914.5
1020.5189	2936.6641	3765.55	2883.8
1020.6334	2937.763	3704.25	2825.85
1020.7478	2938.8613	3657.75	2777.85
1020.8622	2939.959	3604.05	2720.6
1020.9765	2941.056	3528.7	2652.9
1021.0908	2942.1523	3462.95	2583.35
1021.2051	2943.248	3356.35	2480.7
1021.3193	2944.3431	3275.45	2397.75
1021.4334	2945.4375	3167.3	2290.55
1021.5476	2946.5313	3062	2186
1021.6617	2947.6244	2960.25	2084.4
1021.7757	2948.7169	2866.4	1988.35
1021.8897	2949.8087	2768.95	1891.55
1022.0037	2950.8999	2674.35	1796.45
1022.1176	2951.9904	2590.2	1714
1022.2315	2953.0803	2521.4	1639.6
1022.3453	2954.1696	2458.8	1581.6
1022.4591	2955.2582	2393.8	1516.25
1022.5728	2956.3462	2358.85	1482.6
1022.6865	2957.4335	2315.5	1438.05
1022.8002	2958.5202	2288.1	1407.45
1022.9138	2959.6062	2268.9	1393.05
1023.0274	2960.6916	2242.9	1367
1023.141	2961.7764	2193.45	1315.15
1023.2545	2962.8605	2201.5	1322.1
1023.3679	2963.9439	2173.4	1296.4
1023.4813	2965.0267	2164.4	1285.95
1023.5947	2966.1089	2179.35	1278.45
1023.708	2967.1905	2155.7	1279.7
1023.8213	2968.2714	2150.8	1274.2
1023.9346	2969.3516	2147	1270.65
1024.0478	2970.4312	2150.55	1265.75
1024.1609	2971.5102	2147.9	1272.75
1024.274	2972.5885	2145.65	1270.6
1024.3871	2973.6662	2145.05	1263.95
1024.5002	2974.7432	2143.65	1266.25
1024.6132	2975.8196	2136	1258.45
1024.7261	2976.8954	2120.9	1246.05
1024.839	2977.9705	2116.95	1240.6
1024.9519	2979.045	2108.9	1231.2
1025.0647	2980.1188	2084.7	1209.1
1025.1775	2981.192	2069.85	1192.85
1025.2902	2982.2645	2051	1175.8
1025.4029	2983.3364	2020.7	1142.55
1025.5156	2984.4077	1986.25	1110.15
1025.6282	2985.4783	1959.25	1075.7
1025.7407	2986.5483	1922.3	1046.65
1025.8532	2987.6177	1888.4	1013.9
1025.9657	2988.6864	1858.75	982.95
1026.0782	2989.7545	1821.2	945.55
1026.1906	2990.8219	1784.3	907
1026.3029	2991.8887	1760.4	881.3
1026.4152	2992.9548	1725.25	849.55
1026.5275	2994.0204	1691.4	815.45
1026.6397	2995.0852	1660.1	783.15
1026.7519	2996.1495	1643.05	764
1026.864	2997.2131	1612.6	736.55
1026.9761	2998.276	1591.45	715.95
1027.0882	2999.3383	1570.1	693.1
1027.2002	3000.4	1553.5	675.7
1027.3122	3001.4611	1534.05	655.25
1027.4241	3002.5215	1510.5	635.15
1027.536	3003.5812	1502.65	626.45
1027.6478	3004.6404	1500.5	625.5
1027.7596	3005.6989	1483.1	604.55
1027.8714	3006.7567	1471.6	594.1
1027.9831	3007.8139	1498.6	591.85
1028.0947	3008.8705	1458.9	584.25
1028.2064	3009.9264	1446.25	564.75
1028.3179	3010.9818	1443.5	567.7
1028.4295	3012.0364	1439.2	563.65
1028.541	3013.0905	1434.3	559.35
1028.6524	3014.1439	1437.3	561.75
1028.7638	3015.1966	1434.15	558.05
1028.8752	3016.2487	1430.05	555.35
1028.9865	3017.3002	1425.15	544.95
1029.0978	3018.3511	1418.85	545.3
1029.209	3019.4013	1420.25	542.85
1029.3202	3020.4509	1419.05	541.25
1029.4314	3021.4998	1415.15	538.55
1029.5425	3022.5481	1425.8	550.4
1029.6535	3023.5958	1420.95	545.55
1029.7645	3024.6428	1417.95	542.6
1029.8755	3025.6892	1422.45	545.9
1029.9864	3026.735	1419.3	544.3
1030.0973	3027.7802	1416.4	540
1030.2082	3028.8247	1417.55	542.05
1030.319	3029.8685	1426.9	550.5
1030.4297	3030.9118	1430.8	554.75
1030.5404	3031.9544	1434.5	559.4
1030.6511	3032.9963	1437.1	560.1
1030.7617	3034.0376	1440.15	563.9
1030.8723	3035.0783	1446.6	567.65
1030.9829	3036.1184	1453	576.55
1031.0934	3037.1578	1439.75	565.65
1031.2038	3038.1966	1445.95	568.7
1031.3142	3039.2348	1441.9	564.65
1031.4246	3040.2723	1458.05	574.9
1031.5349	3041.3092	1449.7	573.05
1031.6452	3042.3455	1443.65	568.15
1031.7554	3043.3811	1439.2	561.55
1031.8656	3044.4161	1435.5	557.7
1031.9758	3045.4505	1434.45	561.15
1032.0859	3046.4842	1429.55	553.1
1032.1959	3047.5173	1421.6	547.8
1032.3059	3048.5498	1413.95	538.1
1032.4159	3049.5816	1410.2	532.8
1032.5258	3050.6128	1410.1	532.75
1032.6357	3051.6434	1403.35	526.5
1032.7455	3052.6734	1391.05	516.1
1032.8553	3053.7027	1385.9	508.2
1032.9651	3054.7314	1378.5	502.8
1033.0748	3055.7594	1376.2	499.25
1033.1845	3056.7868	1377.85	500.2
1033.2941	3057.8136	1364.15	487.65
1033.4037	3058.8398	1359.95	485.4
1033.5132	3059.8653	1352.35	475.8
1033.6227	3060.8902	1352.15	480.6
1033.7321	3061.9145	1344.7	468.2
1033.8415	3062.9381	1340.2	464.05
1033.9509	3063.9612	1351.75	461.6
1034.0602	3064.9835	1334.4	458.1
1034.1694	3066.0053	1324.1	445.7
1034.2787	3067.0264	1315.85	439.45
1034.3878	3068.0469	1308.9	432.55
1034.497	3069.0668	1302.6	426
1034.6061	3070.086	1294.75	420.65
1034.7151	3071.1046	1287.85	415
1034.8241	3072.1226	1278.85	402.85
1034.9331	3073.1399	1269.9	394.7
1035.042	3074.1567	1258.55	382.75
1035.1508	3075.1727	1256.65	378.7
1035.2597	3076.1882	1238.5	361.7
1035.3684	3077.203	1237.15	361.7
1035.4772	3078.2173	1224.65	350
1035.5859	3079.2308	1220.9	342.55
1035.6945	3080.2438	1210.7	333.5
1035.8031	3081.2561	1201.3	325.05
1035.9117	3082.2678	1192.35	317.45
1036.0202	3083.2789	1184.6	309.95
1036.1286	3084.2893	1182.45	307.45
1036.2371	3085.2991	1173.45	297.35
1036.3454	3086.3083	1177.85	299.75
1036.4538	3087.3169	1169.05	294.1
1036.562	3088.3248	1161.05	282.75
1036.6703	3089.3321	1159.1	282.05
1036.7785	3090.3388	1147.1	272.4
1036.8866	3091.3449	1138.4	265.25
1036.9948	3092.3503	1140.15	262.55
1037.1028	3093.3551	1134.3	260.15
1037.2108	3094.3593	1132.3	257.75
1037.3188	3095.3629	1136.55	262.35
1037.4267	3096.3658	1125.9	250.1
1037.5346	3097.3681	1121.75	246.35
1037.6425	3098.3698	1119.75	242.45
1037.7503	3099.3708	1119.4	238.8
1037.858	3100.3713	1118.7	246.2
1037.9657	3101.3711	1114.8	239.25
1038.0734	3102.3702	1249.05	232.65
1038.181	3103.3688	1112	235
1038.2886	3104.3667	1107.75	234.25
1038.3961	3105.364	1102.75	227.65
1038.5036	3106.3607	1105.65	229.45
1038.611	3107.3568	1100.7	225.2
1038.7184	3108.3522	1093.8	221.3
1038.8257	3109.347	1094.05	218.15
1038.933	3110.3412	1099.35	220.45
1039.0403	3111.3348	1087.15	211.35
1039.1475	3112.3277	1089.1	215.5
1039.2547	3113.32	1088.65	214.95
1039.3618	3114.3117	1086.2	210.7
1039.4689	3115.3028	1082	206.7
1039.5759	3116.2932	1083.2	208.55
1039.6829	3117.2831	1086.15	205.6
1039.7898	3118.2723	1079	205.15
1039.8967	3119.2608	1076.9	201.4
1040.0035	3120.2488	1075.65	200.75
1040.1103	3121.2361	1070.25	194.95
1040.2171	3122.2229	1073.3	198.9
1040.3238	3123.209	1065.7	191.95
1040.4305	3124.1944	1070.9	197.05
1040.5371	3125.1793	1074.65	197.7
1040.6437	3126.1635	1066.8	193.45
1040.7502	3127.1471	1064.15	189.6
1040.8567	3128.1301	1061.55	189.15
1040.9631	3129.1125	1057.35	183.1
1041.0695	3130.0942	1060.8	185.85
1041.1759	3131.0753	1070.6	187.9
1041.2822	3132.0558	1062.55	185.4
1041.3884	3133.0357	1056.4	179.3
1041.4946	3134.015	1053.15	178.25
1041.6008	3134.9936	1058.2	182.1
1041.7069	3135.9716	1073.7	177.25
1041.813	3136.949	1049.65	176.7
1041.919	3137.9258	1070.4	177.55
1042.025	3138.902	1053.5	174.9
1042.1309	3139.8775	1045.1	170.45
1042.2368	3140.8524	1045.15	170.5
1042.3427	3141.8267	1047	170.95
1042.4485	3142.8004	1048.05	172.2
1042.5542	3143.7735	1051.3	170.55
1042.6599	3144.7459	1041.7	166.45
1042.7656	3145.7178	1041.95	165.2
1042.8712	3146.689	1033.25	159.05
1042.9768	3147.6596	1034.7	158.15
1043.0823	3148.6295	1032.7	156.8
1043.1878	3149.5989	1033.7	159.15
1043.2932	3150.5676	1032.05	158.4
1043.3986	3151.5357	1031.25	156.75
1043.5039	3152.5032	1027.85	154.8
1043.6092	3153.4701	1027.2	153.8
1043.7145	3154.4364	1033.55	158.45
1043.8197	3155.402	1022.8	148.45
1043.9248	3156.367	1026.05	150.4
1044.03	3157.3315	1051.5	150.95
1044.135	3158.2952	1020.6	143.95
1044.24	3159.2584	1022.6	150
1044.345	3160.221	1022.05	145.8
1044.4499	3161.1829	1019.35	145
1044.5548	3162.1442	1020.9	145.9
1044.6596	3163.105	1018.9	145.45
1044.7644	3164.065	1015.95	143.2
1044.8692	3165.0245	1018.85	139.15
1044.9739	3165.9834	1010.35	139
1045.0785	3166.9416	1017.35	143.65
1045.1831	3167.8993	1014.05	137.55
1045.2877	3168.8563	1012.05	138.2
1045.3922	3169.8127	1010.1	136.15
1045.4966	3170.7684	1010.3	136.65
1045.6011	3171.7236	1009.95	134.15
1045.7054	3172.6782	1011.75	136.35
1045.8098	3173.6321	1008.15	134.35
1045.914	3174.5854	1012.15	133.65
1046.0183	3175.5381	1008.7	135.25
1046.1224	3176.4902	1010.75	137.2
1046.2266	3177.4417	1003.8	128.8
1046.3307	3178.3926	1001.25	128.75
1046.4347	3179.3428	1004.85	131.7
1046.5387	3180.2924	1001.85	128.9
1046.6427	3181.2415	1002.3	130.45
1046.7466	3182.1899	1002.35	129.05
1046.8504	3183.1377	1000.45	127.2
1046.9542	3184.0848	1001.45	123.85
1047.058	3185.0314	996.8	122.65
1047.1617	3185.9773	997.3	126.15
1047.2654	3186.9227	998.05	122.85
1047.369	3187.8674	996	122.8
1047.4726	3188.8115	999.8	122.35
1047.5761	3189.755	991.7	118.95
1047.6796	3190.6979	993.2	118.7
1047.783	3191.6402	993.9	121.7
1047.8864	3192.5818	991.65	119.6
1047.9898	3193.5229	997.45	118.35
1048.0931	3194.4633	991.2	116.85
1048.1963	3195.4031	991.45	115.8
1048.2995	3196.3423	988.45	114.65
1048.4027	3197.2809	988.05	113.2
1048.5058	3198.2189	989.75	114.05
1048.6089	3199.1563	1006.65	118.55
1048.7119	3200.0931	988	116.9
1048.8148	3201.0292	986.85	114.8
1048.9178	3201.9648	984.3	109.3
1049.0206	3202.8997	986.15	108.85
1049.1235	3203.834	984.4	112.1
1049.2262	3204.7677	982.2	106.7
1049.329	3205.7008	988.6	113.75
1049.4317	3206.6333	979.45	106.25
1049.5343	3207.5652	984.35	109.2
1049.6369	3208.4964	979.85	106.65
1049.7394	3209.4271	979.7	107
1049.8419	3210.3571	980.4	108.9
1049.9444	3211.2865	978.05	103.55
1050.0468	3212.2154	976.6	103.85
1050.1491	3213.1436	980.1	105.35
1050.2514	3214.0712	986.8	105.75
1050.3537	3214.9982	977.1	104.35
1050.4559	3215.9246	974.95	100.15
1050.5581	3216.8503	973.95	101.8
1050.6602	3217.7755	977.95	104.65
1050.7623	3218.7001	976.3	103.8
1050.8643	3219.624	975.5	102.85
1050.9663	3220.5473	974.85	99.3
1051.0682	3221.4701	973.65	99.2
1051.1701	3222.3922	978.45	104.35
1051.2719	3223.3137	970.35	97.85
1051.3737	3224.2346	970.95	98.2
1051.4754	3225.1549	967.65	93.4
1051.5771	3226.0746	966.95	94.2
1051.6788	3226.9937	968.6	95
1051.7804	3227.9121	970.95	99
1051.8819	3228.83	964	91
1051.9834	3229.7473	970.65	97.55
1052.0849	3230.6639	968.15	95.7
1052.1863	3231.5799	966.35	93.85
1052.2876	3232.4954	969.75	95.75
1052.3889	3233.4102	963.9	91.75
1052.4902	3234.3244	963.05	88.6
1052.5914	3235.238	967.4	94.4
1052.6926	3236.151	986.9	88.5
1052.7937	3237.0634	967.3	95.4
1052.8948	3237.9752	964.7	91.3
1052.9958	3238.8864	964.55	90.95
1053.0968	3239.797	963.3	90.05
1053.1977	3240.7069	962.65	88.85
1053.2986	3241.6163	960.2	86.05
1053.3994	3242.5251	959.4	87.05
1053.5002	3243.4332	958.95	87.05
1053.6009	3244.3408	960.35	87.8
1053.7016	3245.2477	960.25	87.4
1053.8022	3246.154	960.3	87.45
1053.9028	3247.0598	958.1	84
1054.0034	3247.9649	954.15	80.75
1054.1039	3248.8694	955.75	82.5
1054.2043	3249.7733	951.9	79.75
1054.3047	3250.6766	953.95	82.2
1054.4051	3251.5793	956.35	82.9
1054.5054	3252.4814	953.05	80.35
1054.6056	3253.3829	953.25	81.45
1054.7058	3254.2838	951.7	79.75
1054.806	3255.1841	949.8	76.85
1054.9061	3256.0838	947.95	74.1
1055.0061	3256.9829	951.5	79.45
1055.1062	3257.8814	949.55	75.9
1055.2061	3258.7792	952.9	78.15
1055.306	3259.6765	947	73.85
1055.4059	3260.5731	942.95	69.75
1055.5057	3261.4692	945.05	73.25
1055.6055	3262.3647	945.7	74.45
1055.7052	3263.2595	941.2	67.55
1055.8049	3264.1538	942.1	69.8
1055.9045	3265.0474	941	67.85
1056.0041	3265.9404	936.5	64.95
1056.1036	3266.8329	941.65	70.8
1056.2031	3267.7247	944.55	64.1
1056.3025	3268.616	934.4	62.2
1056.4019	3269.5066	934.95	60.9
1056.5013	3270.3966	932.95	57.95
1056.6005	3271.286	930.35	58.7
