Software Version:	3.9.2.0
Unit SN:	10000200
Spectrometer SN:	6960
Date:	3/8/2024 12:54:11 PM
Data Line Index:	25
Spectral Points:	2048
Integration time (ms):	125
Averages:	20
Delay (ms):	30000
Sequence Number:	1
Processing:	dark subtract
Laser Power (mW):	300
Laser Current (mA):	822
Laser Diode Temp (C):	25
Laser Case Temp (C):	26.1
System Temp (C):	26.1
Spectrometer Temp (C):	23.9
CCD Temp (C):	0.002
Secondary Temp (C):	20.01
Heatsink Temp (C):	20.423
CCDPCB Temp (C):	35.562
SecondaryPCB Temp (C):	29.715

Wavelength	RamanShift	Raw Counts	Dark Subtracted
787.061	30.1047	455.75	49.05
787.2016	32.3739	455	49.05
787.3422	34.6426	461.2	53.7
787.4828	36.9109	465.9	55.35
787.6235	39.1787	474.8	60.35
787.7642	41.4461	485.75	66.65
787.9049	43.7131	491.55	69.05
788.0456	45.9796	498.5	75.2
788.1863	48.2456	507.1	79.9
788.3271	50.5112	518.5	87.55
788.4679	52.7764	530.45	95.9
788.6087	55.0411	537.65	96.95
788.7496	57.3054	551.1	105.8
788.8904	59.5692	560.65	112.2
789.0313	61.8326	569.1	120.35
789.1722	64.0955	582.45	130
789.3132	66.3579	601.8	141.3
789.4541	68.6199	620	155.65
789.5951	70.8815	656.4	188.3
789.7361	73.1426	736.15	263.65
789.8771	75.4032	954.4	479.25
790.0181	77.6634	1475.7	994.95
790.1592	79.9231	2722.8	2233.15
790.3003	82.1824	5390.25	4880.25
790.4414	84.4412	10148.4	9604.6
790.5825	86.6995	16657.85	16069.6
790.7237	88.9574	22973.35	22352.2
790.8648	91.2148	27216.1	26558.35
791.006	93.4717	29120.5	28453.45
791.1472	95.7282	29353.35	28675.55
791.2885	97.9842	29046.75	28368.5
791.4297	100.2398	28273.05	27590.4
791.571	102.4949	27455	26771.35
791.7123	104.7495	26464.65	25776.75
791.8536	107.0036	25504	24816.6
791.9949	109.2573	24692.9	24002.3
792.1363	111.5105	23869.85	23175.75
792.2777	113.7632	23127.1	22432.6
792.4191	116.0154	22535.05	21828.95
792.5605	118.2672	22095.5	21396.85
792.7019	120.5185	21688.3	20989.7
792.8434	122.7693	21300.05	20596.55
792.9849	125.0197	21033.8	20324
793.1264	127.2696	20700.55	19993.65
793.2679	129.519	20522.85	19807.45
793.4094	131.7679	20260.85	19541.25
793.551	134.0163	19954.95	19236.7
793.6926	136.2642	19597.15	18875.3
793.8342	138.5117	19265	18526.95
793.9758	140.7587	18900.15	18172.2
794.1175	143.0052	18577.4	17848.25
794.2591	145.2512	18251.6	17519.65
794.4008	147.4967	17918.05	17188.7
794.5425	149.7417	17666	16931.45
794.6842	151.9863	17492.2	16754.75
794.826	154.2304	17363.6	16621.15
794.9677	156.4739	17202.8	16454.5
795.1095	158.717	17095	16344.35
795.2513	160.9596	16928.75	16172.8
795.3931	163.2017	16651.6	15894.95
795.535	165.4433	16360.8	15608.15
795.6768	167.6844	15997.6	15239.8
795.8187	169.925	15688.8	14930.65
795.9606	172.1651	15309.7	14547.65
796.1025	174.4047	15018.25	14254.05
796.2445	176.6439	14773.6	14006.75
796.3864	178.8825	14515	13743.85
796.5284	181.1206	14411.75	13633.65
796.6704	183.3582	14201.3	13424.2
796.8124	185.5954	14109.2	13326.65
796.9544	187.832	14054.15	13269.9
797.0965	190.0681	14024.8	13241.45
797.2386	192.3037	13982.6	13185.15
797.3806	194.5388	13992.3	13199.5
797.5228	196.7734	14039.5	13244.85
797.6649	199.0075	14102.8	13308
797.807	201.2411	14215.75	13417.65
797.9492	203.4742	14316.85	13518
798.0914	205.7068	14461.55	13654.65
798.2336	207.9389	14585.95	13773.35
798.3758	210.1704	14763.45	13963.75
798.518	212.4015	14880.8	14092
798.6603	214.632	15011.6	14226.2
798.8025	216.862	15146.95	14362.85
798.9448	219.0915	15263.35	14480.35
799.0871	221.3205	15416.35	14628.7
799.2294	223.549	15546.85	14764.95
799.3718	225.777	15670.1	14888.55
799.5141	228.0044	15856.9	15064.1
799.6565	230.2314	16081.4	15289.9
799.7989	232.4578	16276.4	15480.9
799.9413	234.6837	16474.15	15673.45
800.0837	236.909	16566.25	15764.7
800.2262	239.1339	16561.85	15730.85
800.3687	241.3582	16466.15	15653.65
800.5111	243.582	16341.2	15488.75
800.6536	245.8053	16182.2	15352.75
800.7961	248.0281	16057.5	15234.35
800.9387	250.2503	15964.65	15131.95
801.0812	252.472	15984.55	15149.25
801.2238	254.6932	16071.6	15239.05
801.3664	256.9139	16139.55	15306.25
801.509	259.134	16307.95	15468.9
801.6516	261.3536	16495.1	15660.85
801.7942	263.5727	16789.85	15951.8
801.9369	265.7912	16976.6	16139.7
802.0795	268.0092	17214.55	16376.3
802.2222	270.2267	17379.6	16544.2
802.3649	272.4436	17496.05	16658.95
802.5076	274.6601	17474.35	16629.1
802.6504	276.8759	17370.25	16530.85
802.7931	279.0913	17290.2	16449.05
802.9359	281.3061	17179.05	16332.4
803.0787	283.5204	17152.2	16301.8
803.2215	285.7341	17127.85	16276.2
803.3643	287.9473	17196.2	16336.4
803.5071	290.16	17294.55	16439.25
803.6499	292.3721	17411.15	16564.15
803.7928	294.5837	17706.05	16855.4
803.9357	296.7947	17973.3	17120.7
804.0786	299.0052	18124.7	17270
804.2215	301.2152	18038.55	17183
804.3644	303.4246	17867.95	17016.75
804.5074	305.6334	17435.9	16583.5
804.6503	307.8418	16992.4	16141.3
804.7933	310.0495	16601.95	15744.65
804.9363	312.2568	16171.9	15316.75
805.0793	314.4635	15769.4	14908.35
805.2223	316.6696	15499.55	14635.5
805.3653	318.8752	15305.2	14438.2
805.5084	321.0802	15288	14421.45
805.6514	323.2847	15270.9	14409.15
805.7945	325.4887	15326	14455.2
805.9376	327.692	15305.6	14439.45
806.0807	329.8949	15248.95	14381.75
806.2238	332.0972	15062.55	14188.4
806.367	334.2989	14806.45	13937.9
806.5101	336.5001	14570.4	13697.95
806.6533	338.7007	14325.05	13452.6
806.7965	340.9008	14160.3	13287.7
806.9397	343.1003	14031.45	13151.5
807.0829	345.2992	13938.7	13063.1
807.2261	347.4976	13848.4	12969.05
807.3693	349.6955	13764.45	12880.4
807.5126	351.8927	13780.4	12898.95
807.6559	354.0895	13703.3	12810.1
807.7991	356.2856	13710.3	12825.1
807.9424	358.4812	13677.2	12795.05
808.0857	360.6763	13664.8	12778.3
808.2291	362.8707	13659.35	12769.9
808.3724	365.0646	13711.95	12819.3
808.5158	367.258	13707.55	12820.05
808.6591	369.4508	13787.55	12897.35
808.8025	371.643	13916.95	13020.95
808.9459	373.8346	13970	13075.85
809.0893	376.0257	14050.8	13158.25
809.2327	378.2162	14041.05	13145.6
809.3762	380.4062	14019.1	13127.6
809.5196	382.5956	13884	12994.3
809.6631	384.7844	13792.65	12903.1
809.8066	386.9726	13650.95	12765.9
809.9501	389.1603	13565	12682.45
810.0936	391.3474	13536.25	12626.9
810.2371	393.5339	13511.8	12622.3
810.3806	395.7199	13435.8	12543.3
810.5241	397.9052	13484	12595.15
810.6677	400.09	13539.35	12652.25
810.8113	402.2743	13697.05	12807.15
810.9548	404.4579	13846.45	12957
811.0984	406.641	14051.8	13159
811.2421	408.8235	14229.85	13340.35
811.3857	411.0054	14437.7	13544.5
811.5293	413.1868	14681.9	13778.95
811.673	415.3675	14798.25	13893.1
811.8166	417.5477	14854.7	13954.45
811.9603	419.7273	14837.85	13934.5
812.104	421.9064	14759.65	13852.5
812.2477	424.0848	14683.4	13781.6
812.3914	426.2627	14458.45	13556.8
812.5351	428.4399	14284.2	13379.3
812.6788	430.6166	13946.25	13038.6
812.8226	432.7928	13565.45	12657.5
812.9663	434.9683	13253.1	12346.7
813.1101	437.1432	12992.2	12090.95
813.2539	439.3176	12808.45	11913.15
813.3977	441.4914	12718.95	11825.8
813.5415	443.6645	12661.6	11767.2
813.6853	445.8371	12617.05	11710.75
813.8291	448.0091	12574.95	11670.5
813.973	450.1806	12568.3	11666.25
814.1168	452.3514	12526.15	11624.9
814.2607	454.5216	12554.05	11645.95
814.4046	456.6913	12542.7	11635.15
814.5485	458.8603	12592.4	11686.55
814.6924	461.0288	12629.9	11736
814.8363	463.1967	12615.75	11727
814.9802	465.3639	12654.6	11759.5
815.1241	467.5306	12693.85	11790.95
815.2681	469.6967	12740.7	11839.75
815.412	471.8622	12806.25	11909.55
815.556	474.0271	12876.45	11978.95
815.7	476.1914	12917.75	12013.85
815.844	478.3551	12914.95	12011.3
815.988	480.5182	12953.8	12056.85
816.132	482.6807	12999.45	12105
816.276	484.8426	13172.9	12288.6
816.4201	487.0039	13521.35	12627.85
816.5641	489.1647	13923.8	13021.05
816.7082	491.3248	14260.95	13355.6
816.8522	493.4843	14419.6	13521.4
816.9963	495.6432	14394.1	13498.1
817.1404	497.8015	14261.25	13349.55
817.2845	499.9592	14194.15	13280.75
817.4286	502.1163	14001.35	13082.5
817.5727	504.2728	13699.6	12795.45
817.7168	506.4287	13417.35	12520.1
817.861	508.5839	13043.05	12143.75
818.0051	510.7386	12786.45	11882.5
818.1493	512.8927	12677.85	11765.65
818.2935	515.0461	12653.35	11740.2
818.4377	517.199	12699.25	11785.1
818.5818	519.3512	12861.95	11950.3
818.726	521.5029	13090.4	12174.25
818.8703	523.6539	13322.7	12413.75
819.0145	525.8043	13431.4	12519.45
819.1587	527.9541	13347.95	12432.15
819.303	530.1033	13209	12294.9
819.4472	532.2519	13091.1	12178.05
819.5915	534.3999	13083.1	12166
819.7357	536.5472	13183.6	12272.1
819.88	538.694	13447.6	12537.9
820.0243	540.8401	13798.35	12885.8
820.1686	542.9856	14095.15	13172.9
820.3129	545.1305	14163.95	13234.35
820.4572	547.2748	14070.05	13135.25
820.6016	549.4185	13830.3	12896.75
820.7459	551.5615	13651.15	12718.9
820.8902	553.704	13607.25	12675.2
821.0346	555.8458	13682.9	12762.7
821.1789	557.987	13842.65	12918.75
821.3233	560.1276	14024.05	13101.95
821.4677	562.2675	14343.05	13415.55
821.6121	564.4069	14730.1	13800
821.7565	566.5456	15116.3	14191.3
821.9009	568.6837	15248.3	14325.25
822.0453	570.8212	14871.45	13950.05
822.1897	572.958	14222.65	13299.45
822.3342	575.0942	13643.05	12724.95
822.4786	577.2299	13257.2	12343.8
822.6231	579.3648	13068.6	12165.55
822.7675	581.4992	13013.95	12118.6
822.912	583.6329	13127.35	12236.55
823.0565	585.766	13306.95	12408.35
823.201	587.8985	13460.25	12557.5
823.3454	590.0304	13517.7	12577.9
823.4899	592.1616	13468.5	12548.15
823.6345	594.2922	13355.75	12426.7
823.779	596.4222	13155.95	12223.15
823.9235	598.5515	12939.35	12006.75
824.068	600.6802	12769.85	11844.1
824.2126	602.8083	12601.2	11672.15
824.3571	604.9358	12587.2	11660.4
824.5017	607.0626	12591.2	11662.75
824.6462	609.1888	12661.35	11724.7
824.7908	611.3144	12776.95	11839.9
824.9354	613.4393	12884.85	11948.3
825.08	615.5636	12927	11988.3
825.2246	617.6873	12924.45	11992.1
825.3692	619.8103	12849.9	11916.1
825.5138	621.9327	12680.8	11749.3
825.6584	624.0544	12490.65	11564.35
825.803	626.1756	12326.25	11399.2
825.9477	628.2961	12214.2	11282.2
826.0923	630.4159	12154.6	11223.9
826.237	632.5351	12087.75	11152.6
826.3816	634.6537	12075.15	11137.7
826.5263	636.7716	12088.1	11148.1
826.6709	638.8889	12060.6	11118
826.8156	641.0056	12131.3	11187.5
826.9603	643.1216	12123.9	11183.25
827.105	645.237	12096.5	11154.45
827.2497	647.3518	12014.2	11085.35
827.3944	649.4659	11937	11009.8
827.5391	651.5793	11892.75	10966.2
827.6838	653.6922	11876.35	10947.95
827.8285	655.8043	11872.85	10941.7
827.9733	657.9159	11853.65	10923.2
828.118	660.0268	11826	10892.9
828.2627	662.137	11811.55	10874.7
828.4075	664.2466	11809.6	10867.4
828.5522	666.3556	11815	10871.95
828.697	668.4639	11750.6	10812.6
828.8418	670.5716	11705.25	10773.8
828.9865	672.6786	11720.95	10784.8
829.1313	674.785	11704.1	10759.55
829.2761	676.8907	11690.05	10749.3
829.4209	678.9958	11730.5	10800.45
829.5657	681.1002	11664.4	10725.2
829.7105	683.204	11690.4	10740.65
829.8553	685.3072	11701.3	10754.1
830.0001	687.4097	11653.35	10712
830.1449	689.5115	11616.5	10674.05
830.2898	691.6127	11627.25	10689.6
830.4346	693.7132	11583.6	10644.05
830.5794	695.8131	11585.15	10640.5
830.7243	697.9123	11580.75	10633.3
830.8691	700.0109	11599.4	10650.65
831.014	702.1089	11631.25	10689.3
831.1588	704.2061	11669.65	10727.8
831.3037	706.3028	11721.85	10776.35
831.4486	708.3987	11782.65	10832.65
831.5935	710.4941	11812.3	10868.75
831.7383	712.5887	11900.7	10957.55
831.8832	714.6827	12029.05	11085.25
832.0281	716.7761	12212.05	11274.65
832.173	718.8688	12433.2	11489.75
832.3179	720.9608	12586.6	11637
832.4628	723.0522	12737.9	11786.35
832.6077	725.1429	12741.8	11793.6
832.7527	727.233	12721.7	11775.35
832.8976	729.3224	12709.2	11763.05
833.0425	731.4112	12627.5	11682.45
833.1874	733.4993	12476.1	11524.3
833.3324	735.5867	12250.5	11306.8
833.4773	737.6735	12031.85	11085.65
833.6222	739.7596	11863.2	10915.4
833.7672	741.845	11740.85	10791.9
833.9122	743.9298	11678.4	10730.5
834.0571	746.014	11614.65	10666.1
834.2021	748.0974	11650.65	10697.25
834.347	750.1802	11617.95	10664.7
834.492	752.2624	11653.45	10699.8
834.637	754.3439	11701.3	10746.65
834.782	756.4247	11799.1	10840.3
834.9269	758.5048	11973.25	11018.65
835.0719	760.5843	12281.8	11325.75
835.2169	762.6631	12669.4	11713.25
835.3619	764.7413	13255.7	12303.1
835.5069	766.8188	13965.25	13008.85
835.6519	768.8956	14523.5	13568.7
835.7969	770.9718	14902	13949
835.9419	773.0473	14835.8	13883.4
836.0869	775.1221	14565.85	13613.75
836.232	777.1962	14256.65	13306.95
836.377	779.2697	14112.5	13157.4
836.522	781.3426	14187.85	13222
836.667	783.4147	14323.15	13369.5
836.8121	785.4862	14430.75	13477.55
836.9571	787.557	14308.5	13353.95
837.1021	789.6271	13850.7	12894.75
837.2472	791.6966	13245.5	12287.3
837.3922	793.7654	12615.75	11658.8
837.5373	795.8335	12203.55	11251.55
837.6823	797.901	11907.95	10957.3
837.8274	799.9678	11773.4	10815.15
837.9724	802.0339	11675.5	10715.3
838.1175	804.0993	11653.45	10685.35
838.2626	806.1641	11595.5	10640.55
838.4076	808.2282	11508.9	10553.1
838.5527	810.2916	11471.2	10512.9
838.6978	812.3544	11356.9	10406.65
838.8428	814.4164	11290.5	10339.3
838.9879	816.4778	11327.35	10369.35
839.133	818.5385	11361.15	10403.95
839.2781	820.5986	11499.25	10541.6
839.4232	822.658	11720.4	10758.05
839.5682	824.7166	12057.55	11097.45
839.7133	826.7747	12511.65	11549.35
839.8584	828.832	13000.15	12037.5
840.0035	830.8886	13354.85	12393.9
840.1486	832.9446	13536	12581.05
840.2937	834.9999	13402.35	12447.7
840.4388	837.0545	13155.7	12192
840.5839	839.1085	12897.5	11938.1
840.729	841.1618	12626	11663.6
840.8741	843.2143	12418.5	11460.1
841.0192	845.2662	12229.55	11267.15
841.1643	847.3175	12092.05	11128.05
841.3095	849.368	11974.75	11013.35
841.4546	851.4179	11866.15	10905
841.5997	853.467	11750.05	10789.8
841.7448	855.5155	11688.65	10729.5
841.8899	857.5633	11605.35	10644.9
842.0351	859.6105	11508.55	10548
842.1802	861.6569	11417.3	10457.75
842.3253	863.7027	11346.75	10387.45
842.4704	865.7478	11323	10360.4
842.6156	867.7922	11278.15	10316.5
842.7607	869.8359	11281.65	10319.2
842.9058	871.8789	11320.7	10357.6
843.0509	873.9212	11424.8	10432.15
843.1961	875.9629	11537.1	10574.25
843.3412	878.0039	11663.25	10703
843.4863	880.0441	11746.15	10790.6
843.6315	882.0837	11808.75	10845.65
843.7766	884.1226	11800	10838.4
843.9218	886.1609	11832.05	10871.95
844.0669	888.1984	11898.15	10936.95
844.212	890.2352	12002.6	11040
844.3572	892.2714	11988.4	11019.6
844.5023	894.3069	11979.2	11014.6
844.6475	896.3416	11834.4	10870.15
844.7926	898.3757	11689.5	10725.5
844.9377	900.4091	11637.6	10670.25
845.0829	902.4418	11625.65	10656.35
845.228	904.4739	11637.35	10671
845.3732	906.5052	11675.85	10708.8
845.5183	908.5358	11628.65	10663.85
845.6635	910.5658	11494.3	10525.75
845.8086	912.595	11291.7	10326.1
845.9538	914.6236	11079.8	10116.75
846.0989	916.6515	10961.2	9995.6
846.2441	918.6786	10876.95	9910.75
846.3892	920.7051	10883.35	9915.8
846.5344	922.7309	10958.2	9993.35
846.6795	924.756	10986	10025.65
846.8246	926.7804	11070.55	10106.15
846.9698	928.8041	11043.95	10077.95
847.1149	930.8272	11105.6	10139.65
847.2601	932.8495	11072.05	10103.8
847.4052	934.8711	11075.25	10104.95
847.5504	936.892	11014.55	10047.8
847.6955	938.9123	10940.85	9974.8
847.8407	940.9318	10948	9981.9
847.9858	942.9506	10920.2	9956.1
848.131	944.9688	10849.5	9884.75
848.2761	946.9862	10770.45	9808.15
848.4213	949.003	10626.9	9659.9
848.5664	951.019	10564.05	9599.2
848.7115	953.0344	10512.95	9544.05
848.8567	955.0491	10508.6	9541.2
849.0018	957.063	10590.5	9624.15
849.147	959.0763	10666.55	9702.95
849.2921	961.0888	10697.85	9734.25
849.4373	963.1007	10757.15	9794.3
849.5824	965.1119	10780.65	9830.1
849.7275	967.1223	10784.55	9836.85
849.8727	969.1321	10733.35	9789.5
850.0178	971.1412	10778.15	9826.55
850.1629	973.1495	10749.3	9795.3
850.3081	975.1572	10793.8	9788.15
850.4532	977.1641	10807.8	9845.7
850.5983	979.1704	10783.95	9816.65
850.7435	981.1759	10735.9	9767.35
850.8886	983.1808	10774.7	9808.7
851.0337	985.1849	10815.1	9839.6
851.1788	987.1884	10877.05	9909.55
851.324	989.1911	10973.05	10005.8
851.4691	991.1932	11090.45	10132.4
851.6142	993.1945	11100.25	10139.3
851.7593	995.1951	11075.25	10113.4
851.9045	997.1951	11076.65	10103.15
852.0496	999.1943	10990.95	10027.2
852.1947	1001.1928	11006.5	10042.45
852.3398	1003.1906	11025.9	10062.9
852.4849	1005.1877	11141.75	10180.6
852.63	1007.1841	11198.1	10236.6
852.7751	1009.1798	11219.25	10257.3
852.9202	1011.1748	11109.45	10149.15
853.0653	1013.1691	10946.95	9982.8
853.2104	1015.1627	10734.8	9770.7
853.3555	1017.1556	10504.3	9545.35
853.5006	1019.1477	10382.95	9424.75
853.6457	1021.1392	10277.45	9326.35
853.7908	1023.1299	10282.1	9333.5
853.9359	1025.12	10270.9	9328.1
854.081	1027.1093	10306.3	9372.65
854.2261	1029.0979	10427.4	9498.25
854.3712	1031.0859	10537.85	9603.65
854.5163	1033.0731	10569.85	9621.65
854.6613	1035.0596	10532.8	9581
854.8064	1037.0454	10399.45	9442.4
854.9515	1039.0304	10336.45	9375.15
855.0965	1041.0148	10179.55	9219
855.2416	1042.9985	10096.6	9137.2
855.3867	1044.9814	10041.8	9080.25
855.5317	1046.9636	9971.3	9008.85
855.6768	1048.9452	9976.5	9017.95
855.8219	1050.926	10000.85	9045.45
855.9669	1052.9061	10006.35	9049.8
856.112	1054.8855	10054.75	9091.75
856.257	1056.8642	10072.85	9112.05
856.4021	1058.8421	10142.1	9175.9
856.5471	1060.8194	10162.8	9201.5
856.6921	1062.7959	10241.15	9279.8
856.8372	1064.7717	10290.8	9329.6
856.9822	1066.7469	10350.25	9387.25
857.1272	1068.7213	10410.1	9448.45
857.2723	1070.695	10479.8	9517.85
857.4173	1072.6679	10487.45	9526.15
857.5623	1074.6402	10495.3	9531.8
857.7073	1076.6117	10453.5	9487.3
857.8523	1078.5826	10366.7	9403.15
857.9973	1080.5527	10283.15	9321.55
858.1423	1082.5221	10223.5	9263
858.2873	1084.4908	10230.8	9269.5
858.4323	1086.4587	10288.85	9328.25
858.5773	1088.426	10338.8	9380
858.7223	1090.3925	10354.2	9386.45
858.8673	1092.3584	10375.8	9420.35
859.0123	1094.3235	10354.45	9398.15
859.1573	1096.2879	10397.4	9440.7
859.3022	1098.2515	10483	9524.45
859.4472	1100.2145	10668.65	9709.85
859.5922	1102.1767	10838.85	9876.35
859.7371	1104.1382	11057.9	10098.85
859.8821	1106.099	11304.1	10346.05
860.027	1108.0591	11523.45	10562.9
860.172	1110.0185	11666.35	10704.3
860.3169	1111.9771	11789.8	10830.55
860.4619	1113.9351	11642.7	10683.7
860.6068	1115.8923	11487.95	10531.2
860.7517	1117.8488	11318.1	10357.65
860.8967	1119.8045	11107.55	10152.35
861.0416	1121.7596	10981	10022.5
861.1865	1123.7139	10869.7	9914.5
861.3314	1125.6675	10817.6	9862.6
861.4763	1127.6204	10858.45	9899.05
861.6212	1129.5726	10819.05	9857.05
861.7661	1131.524	10744.8	9781.85
861.911	1133.4748	10626.9	9667.5
862.0559	1135.4248	10448.1	9490.55
862.2008	1137.3741	10323.4	9367.35
862.3457	1139.3226	10205.85	9248.15
862.4905	1141.2705	10159.1	9197.75
862.6354	1143.2176	10073.45	9109.25
862.7803	1145.164	10033.65	9072.55
862.9251	1147.1097	9957.2	8998.8
863.07	1149.0546	9889.7	8927.95
863.2148	1150.9989	9818.9	8859.95
863.3597	1152.9424	9689	8729.35
863.5045	1154.8852	9588.6	8629.45
863.6493	1156.8272	9535.1	8577.2
863.7942	1158.7686	9557	8592.9
863.939	1160.7092	9558.95	8600.7
864.0838	1162.6491	9587.9	8627.9
864.2286	1164.5883	9670.65	8717.95
864.3734	1166.5267	9809.6	8848.35
864.5182	1168.4644	9983.5	9024.95
864.663	1170.4014	10168.15	9208.2
864.8078	1172.3377	10419.6	9465.3
864.9526	1174.2732	10715.6	9761.6
865.0974	1176.2081	11154.5	10201.05
865.2421	1178.1421	11593.95	10630.05
865.3869	1180.0755	12070.9	11115.15
865.5317	1182.0082	12445.35	11490.25
865.6764	1183.9401	12571.85	11617.9
865.8212	1185.8713	12443.3	11494.5
865.9659	1187.8017	12140.65	11203
866.1106	1189.7315	11782.5	10853.55
866.2554	1191.6605	11372.3	10442.95
866.4001	1193.5888	11071.6	10131.25
866.5448	1195.5163	10949.75	10002.4
866.6895	1197.4432	10838.75	9888.75
866.8342	1199.3693	10817.75	9864.3
866.9789	1201.2947	10763.1	9803.55
867.1236	1203.2193	10730.85	9774.55
867.2683	1205.1432	10741.35	9787.5
867.413	1207.0664	10723.45	9768
867.5576	1208.9889	10710.6	9756.25
867.7023	1210.9106	10697.3	9742.85
867.847	1212.8316	10685.9	9735.8
867.9916	1214.7519	10751.75	9790.05
868.1363	1216.6715	10777.65	9826.45
868.2809	1218.5903	10830.95	9879.05
868.4255	1220.5084	10902.2	9948.15
868.5701	1222.4257	10979.75	10028.7
868.7148	1224.3424	11018.6	10069.45
868.8594	1226.2583	11121.15	10167.6
869.004	1228.1735	11252.4	10299.35
869.1486	1230.0879	11396.3	10443.35
869.2932	1232.0016	11590.65	10637.95
869.4377	1233.9146	11701.95	10745.85
869.5823	1235.8269	11706	10753.55
869.7269	1237.7384	11621.9	10668
869.8715	1239.6492	11503.5	10549.85
870.016	1241.5592	11457.85	10504.45
870.1606	1243.4686	11479.85	10525.95
870.3051	1245.3772	11598.45	10648.7
870.4496	1247.285	11819.85	10865.55
870.5941	1249.1922	11950.2	10996.55
870.7387	1251.0986	12082.55	11134.6
870.8832	1253.0042	12138.8	11186.85
871.0277	1254.9092	12246.2	11299.3
871.1722	1256.8134	12352.7	11405.5
871.3167	1258.7169	12485.35	11536.2
871.4611	1260.6196	12674	11723.4
871.6056	1262.5216	12891.6	11941
871.7501	1264.4229	13089	12137.05
871.8945	1266.3234	13281.5	12333.65
872.039	1268.2232	13436.4	12486.35
872.1834	1270.1223	13498.7	12542.4
872.3278	1272.0207	13544.05	12593.45
872.4723	1273.9183	13520.75	12563.8
872.6167	1275.8151	13424.85	12476.65
872.7611	1277.7113	13425.9	12476.5
872.9055	1279.6067	13493.8	12541.25
873.0499	1281.5014	13656.8	12704.9
873.1943	1283.3953	13977.55	13024.75
873.3386	1285.2885	14389.15	13439.35
873.483	1287.181	14826.95	13877.15
873.6274	1289.0727	15269.6	14321.6
873.7717	1290.9637	15568.4	14620
873.9161	1292.854	15776.35	14828.5
874.0604	1294.7435	15793.8	14844.05
874.2047	1296.6323	15713.75	14763.45
874.349	1298.5204	15654	14698.35
874.4933	1300.4077	15545.55	14594.35
874.6376	1302.2943	15360.3	14410.35
874.7819	1304.1802	15090.15	14141.65
874.9262	1306.0653	14686.65	13736.3
875.0705	1307.9497	14222.55	13276.85
875.2147	1309.8333	13856.55	12910.15
875.359	1311.7162	13541.45	12592.65
875.5032	1313.5984	13363	12412.65
875.6475	1315.4798	13277.65	12317.75
875.7917	1317.3605	13185.6	12220.95
875.9359	1319.2405	13077.1	12124.55
876.0801	1321.1197	12832.35	11882.3
876.2243	1322.9982	12572.5	11622.2
876.3685	1324.876	12311.55	11363.4
876.5127	1326.753	12052.15	11102.8
876.6569	1328.6293	11864.95	10912
876.801	1330.5048	11737.35	10782.15
876.9452	1332.3796	11601.7	10653.9
877.0893	1334.2537	11502.75	10527.3
877.2335	1336.127	11421.05	10473
877.3776	1337.9996	11352.9	10407.25
877.5217	1339.8714	11371.7	10420.25
877.6658	1341.7426	11417.65	10421
877.8099	1343.6129	11393.9	10441.9
877.954	1345.4826	11404.05	10453.7
878.0981	1347.3515	11414.75	10463.05
878.2422	1349.2196	11399	10446.85
878.3862	1351.087	11423.15	10472.35
878.5303	1352.9537	11459.35	10506.5
878.6743	1354.8197	11550.15	10597.2
878.8184	1356.6849	11736.7	10786.5
878.9624	1358.5493	11887.1	10941.95
879.1064	1360.4131	12044.35	11097.3
879.2504	1362.276	12167.4	11219.55
879.3944	1364.1383	12166.65	11217.35
879.5384	1365.9998	11955.35	11000.05
879.6823	1367.8606	11599.9	10652.35
879.8263	1369.7206	11265.6	10312.65
879.9702	1371.5799	10913.7	9963.15
880.1142	1373.4384	10621.5	9672.3
880.2581	1375.2962	10410.2	9459.1
880.402	1377.1533	10070.95	9124.3
880.5459	1379.0096	9717.85	8776.5
880.6898	1380.8652	9364.55	8421.5
880.8337	1382.7201	9056.05	8112.8
880.9776	1384.5742	8828.05	7877.3
881.1215	1386.4275	8628.25	7682.4
881.2653	1388.2802	8486.95	7536.45
881.4092	1390.132	8367.2	7420.95
881.553	1391.9832	8288.5	7340.65
881.6968	1393.8336	8183.4	7237.45
881.8406	1395.6832	8156.75	7209.05
881.9844	1397.5322	8121.65	7172.5
882.1282	1399.3803	8079.15	7125.3
882.272	1401.2278	8043.6	7097
882.4158	1403.0745	8031.7	7088.35
882.5595	1404.9204	8011	7066.9
882.7033	1406.7656	8045.5	7101.35
882.847	1408.6101	8060.4	7112.95
882.9908	1410.4538	8089.5	7138.9
883.1345	1412.2968	8140.1	7192.25
883.2782	1414.139	8177	7231.2
883.4219	1415.9805	8283.05	7338.65
883.5656	1417.8213	8356.8	7405.4
883.7092	1419.6613	8435.1	7490.1
883.8529	1421.5006	8598.4	7654.35
883.9965	1423.3391	8821.4	7875.8
884.1402	1425.1769	9106.85	8160.5
884.2838	1427.0139	9538.9	8593.9
884.4274	1428.8502	10095.85	9148.35
884.571	1430.6858	10648.6	9704.05
884.7146	1432.5206	11077.1	10130.65
884.8582	1434.3547	11314.15	10372.15
885.0018	1436.188	11340.25	10398.25
885.1453	1438.0206	11260.2	10315.05
885.2889	1439.8524	11116.35	10171
885.4324	1441.6835	10986.35	10041.05
885.5759	1443.5139	10897.6	9949.3
885.7194	1445.3435	10789.95	9846.6
885.8629	1447.1724	10769.75	9827.35
886.0064	1449.0005	10725.6	9783.05
886.1499	1450.8279	10644.6	9700.1
886.2933	1452.6545	10621.5	9679.2
886.4368	1454.4804	10656.1	9714.9
886.5802	1456.3056	10684.9	9737.85
886.7237	1458.13	10576.15	9636.3
886.8671	1459.9536	10371.3	9431.2
887.0105	1461.7766	10131.1	9189.85
887.1539	1463.5987	9749.8	8805.15
887.2972	1465.4202	9419.85	8475.8
887.4406	1467.2409	9053.05	8107.25
887.584	1469.0608	8780.9	7838.7
887.7273	1470.88	8520.55	7574.85
887.8706	1472.6984	8281.85	7339.95
888.0139	1474.5161	8068.25	7126.75
888.1572	1476.3331	7920.1	6978.2
888.3005	1478.1493	7794.65	6849.85
888.4438	1479.9648	7698.6	6754.6
888.5871	1481.7795	7611.6	6669.6
888.7303	1483.5935	7541.65	6597.95
888.8736	1485.4067	7483.95	6543.9
889.0168	1487.2192	7441.5	6500.45
889.16	1489.031	7385.25	6442.05
889.3032	1490.842	7353.05	6410.6
889.4464	1492.6522	7331.45	6388.05
889.5896	1494.4618	7263.35	6321.1
889.7327	1496.2705	7236.8	6297.35
889.8759	1498.0785	7204.5	6261.65
890.019	1499.8858	7148.35	6207.05
890.1622	1501.6924	7111.6	6170.1
890.3053	1503.4981	7094	6154
890.4484	1505.3032	7071.9	6132.8
890.5914	1507.1075	6987.9	6044.05
890.7345	1508.911	6955.35	6010.7
890.8776	1510.7138	6914.2	5977.3
891.0206	1512.5159	6867.45	5926.75
891.1637	1514.3172	6824.1	5885.45
891.3067	1516.1178	6759.55	5822.05
891.4497	1517.9176	6744.8	5804.2
891.5927	1519.7166	6715.75	5778.95
891.7357	1521.515	6663.45	5720.4
891.8786	1523.3126	6640.15	5705.1
892.0216	1525.1094	6642.55	5701.8
892.1645	1526.9055	6592.6	5658.5
892.3074	1528.7008	6594.9	5658.35
892.4503	1530.4954	6543.2	5607.6
892.5932	1532.2893	6544.7	5608.8
892.7361	1534.0824	6513.15	5574.85
892.879	1535.8747	6508.05	5577.4
893.0218	1537.6663	6506.05	5572.85
893.1647	1539.4572	6499.15	5565.85
893.3075	1541.2473	6485.75	5553.9
893.4503	1543.0367	6514.85	5580.1
893.5931	1544.8253	6497.55	5556.2
893.7359	1546.6132	6520.95	5584.55
893.8787	1548.4003	6550.5	5608.65
894.0214	1550.1867	6619.05	5678.9
894.1642	1551.9723	6663.75	5728.9
894.3069	1553.7572	6748.85	5816.15
894.4496	1555.5414	6848.2	5918.9
894.5923	1557.3247	6995.1	6067.6
894.735	1559.1074	7163.15	6238.7
894.8777	1560.8893	7295.35	6370.25
895.0204	1562.6705	7423	6495.55
895.163	1564.4509	7573.65	6650.25
895.3056	1566.2305	7655.8	6735.9
895.4482	1568.0094	7674.05	6751.3
895.5908	1569.7876	7706.25	6783.8
895.7334	1571.565	7683.9	6756.85
895.876	1573.3417	7656.9	6731.7
896.0186	1575.1176	7641.35	6718.4
896.1611	1576.8928	7650.2	6730.25
896.3036	1578.6672	7621.95	6705.05
896.4461	1580.4409	7619.1	6706.35
896.5886	1582.2138	7641.05	6720.85
896.7311	1583.986	7678.85	6758.9
896.8736	1585.7575	7699.6	6779.2
897.0161	1587.5282	7772.7	6855.15
897.1585	1589.2981	7859.35	6946
897.3009	1591.0673	7931.8	7014.15
897.4433	1592.8358	8017.6	7100.8
897.5857	1594.6035	8132.15	7212.3
897.7281	1596.3704	8229.1	7306.1
897.8705	1598.1366	8323	7403.3
898.0128	1599.9021	8417.65	7499.1
898.1551	1601.6668	8504.75	7584.15
898.2975	1603.4308	8634.2	7712.25
898.4398	1605.194	8815.85	7893.25
898.5821	1606.9564	9010.35	8099.3
898.7243	1608.7182	9248.6	8338.35
898.8666	1610.4791	9553.9	8651.75
899.0088	1612.2394	9833.95	8932
899.1511	1613.9988	10132.55	9228.85
899.2933	1615.7576	10421.9	9511.1
899.4355	1617.5156	10643.5	9719.1
899.5776	1619.2728	10755.35	9835.25
899.7198	1621.0293	10695	9777.5
899.862	1622.785	10513.1	9594.45
900.0041	1624.54	10210.55	9297.25
900.1462	1626.2942	9873.2	8962.2
900.2883	1628.0477	9466.6	8556.3
900.4304	1629.8005	9115.5	8201.9
900.5725	1631.5525	8805.6	7895.15
900.7145	1633.3037	8554.95	7646.45
900.8566	1635.0542	8312.45	7404.8
900.9986	1636.804	8147.4	7238.45
901.1406	1638.553	8090.4	7085.8
901.2826	1640.3013	7976.95	7065.95
901.4245	1642.0488	7933.8	7020.55
901.5665	1643.7955	7965.35	7059.3
901.7085	1645.5416	8017.15	7109
901.8504	1647.2868	8133.7	7222.95
901.9923	1649.0313	8244.85	7330.85
902.1342	1650.7751	8403.3	7489.8
902.2761	1652.5181	8583.65	7675.95
902.4179	1654.2604	8758.25	7854.05
902.5598	1656.0019	8996.25	8091.6
902.7016	1657.7427	9241.8	8332
902.8434	1659.4828	9514.75	8607.35
902.9852	1661.222	9694.5	8782.55
903.127	1662.9606	9633.2	8720.85
903.2687	1664.6984	9417.9	8503.45
903.4105	1666.4354	8953.9	8037.25
903.5522	1668.1717	8399.85	7484.8
903.6939	1669.9072	7829.2	6911.5
903.8356	1671.642	7348.4	6432.3
903.9773	1673.3761	6936.85	6021.4
904.119	1675.1094	6612.25	5700.85
904.2606	1676.8419	6339.8	5428.25
904.4022	1678.5737	6129.45	5214.7
904.5439	1680.3048	5968.15	5055.5
904.6855	1682.0351	5822.95	4912.05
904.827	1683.7646	5690	4771.95
904.9686	1685.4934	5609.25	4697.9
905.1101	1687.2215	5555.45	4645.75
905.2517	1688.9488	5469.85	4561.75
905.3932	1690.6754	5405.7	4497.4
905.5347	1692.4012	5360.7	4448.3
905.6761	1694.1263	5296.85	4383.4
905.8176	1695.8506	5269.8	4357.65
905.9591	1697.5742	5234	4328.25
906.1005	1699.297	5185.05	4282.1
906.2419	1701.0191	5149.65	4248.55
906.3833	1702.7404	5103.65	4198.65
906.5246	1704.461	5049.85	4143.3
906.666	1706.1808	5030.55	4121.6
906.8073	1707.8999	5006.05	4102.25
906.9487	1709.6182	4966.8	4062.9
907.09	1711.3358	4944.3	4043.3
907.2313	1713.0527	4909.15	4008.85
907.3725	1714.7688	4882.85	3976.7
907.5138	1716.4841	4871	3964.4
907.655	1718.1987	4848.1	3932.95
907.7962	1719.9126	4817.45	3915.15
907.9374	1721.6257	4798.85	3897.7
908.0786	1723.338	4793	3893.9
908.2198	1725.0496	4775.4	3872.2
908.3609	1726.7605	4768.1	3863
908.502	1728.4706	4743.4	3841
908.6431	1730.18	4717.6	3814.15
908.7842	1731.8886	4699	3798.95
908.9253	1733.5964	4705.15	3782.65
909.0664	1735.3036	4680.6	3775.3
909.2074	1737.0099	4660.4	3759.9
909.3484	1738.7156	4637.6	3736
909.4894	1740.4204	4602.85	3699.5
909.6304	1742.1246	4577.2	3671.55
909.7714	1743.8279	4549.7	3647.2
909.9123	1745.5306	4549.25	3650.2
910.0532	1747.2325	4517.1	3617.3
910.1941	1748.9336	4512.85	3611.55
910.335	1750.634	4488.95	3582.95
910.4759	1752.3336	4483.5	3583.1
910.6168	1754.0325	4451.85	3555.3
910.7576	1755.7307	4463	3563.1
910.8984	1757.4281	4447.1	3545.25
911.0392	1759.1247	4440.05	3528.65
911.18	1760.8206	4437.1	3529.65
911.3208	1762.5158	4407.45	3498.25
911.4615	1764.2102	4384.45	3480.85
911.6022	1765.9039	4384.9	3484.65
911.7429	1767.5968	4364.25	3467.8
911.8836	1769.289	4369.7	3471.95
912.0243	1770.9804	4372.35	3470.9
912.1649	1772.6711	4348.45	3443.25
912.3056	1774.361	4344.05	3438.1
912.4462	1776.0502	4321.4	3419.65
912.5868	1777.7386	4323.85	3419.25
912.7274	1779.4263	4293.5	3392.3
912.8679	1781.1132	4304.85	3407.9
913.0084	1782.7994	4286.85	3390.1
913.149	1784.4849	4266.65	3369.8
913.2895	1786.1696	4282.3	3364.7
913.4299	1787.8535	4254.8	3361.7
913.5704	1789.5367	4237.35	3342.9
913.7108	1791.2192	4242.2	3343.7
913.8513	1792.9009	4249.4	3323.95
913.9917	1794.5818	4221	3317.15
914.132	1796.2621	4214.55	3313.75
914.2724	1797.9415	4212	3311.65
914.4128	1799.6202	4188.7	3285.85
914.5531	1801.2982	4177.45	3274.1
914.6934	1802.9755	4183.4	3279.45
914.8337	1804.6519	4179.7	3279
914.9739	1806.3277	4159.2	3260.65
915.1142	1808.0027	4122.3	3224.05
915.2544	1809.6769	4121.05	3227
915.3946	1811.3504	4114	3220.55
915.5348	1813.0231	4110.7	3214.05
915.675	1814.6951	4103.45	3207.3
915.8151	1816.3664	4118.05	3215.4
915.9553	1818.0369	4108.75	3209.15
916.0954	1819.7067	4097.8	3199.25
916.2355	1821.3757	4072.5	3168.8
916.3755	1823.044	4092.55	3191.8
916.5156	1824.7115	4071.1	3168.5
916.6556	1826.3783	4059.35	3157.9
916.7956	1828.0443	4049.8	3149.65
916.9356	1829.7096	4045.05	3143.8
917.0756	1831.3741	4041.4	3140.25
917.2155	1833.0379	4041.5	3144.8
917.3555	1834.701	4016.65	3119.75
917.4954	1836.3633	4006.45	3112.6
917.6353	1838.0248	4003.35	3106.6
917.7751	1839.6856	3999.5	3100.95
917.915	1841.3457	4017.2	3118.65
918.0548	1843.005	3999.6	3100.3
918.1946	1844.6636	3989.5	3090.5
918.3344	1846.3214	3987.2	3088.7
918.4742	1847.9785	3967.35	3071.1
918.6139	1849.6349	3956.1	3053.75
918.7537	1851.2904	3967.25	3056.55
918.8934	1852.9453	3943.45	3039.35
919.0331	1854.5994	3940.55	3036.15
919.1727	1856.2528	3935.25	3029
919.3124	1857.9054	3921.7	3020.9
919.452	1859.5572	3924.8	3026.95
919.5916	1861.2083	3915.05	3015.6
919.7312	1862.8587	3918.1	3016.55
919.8708	1864.5084	3910.4	3011.5
920.0103	1866.1572	3907.05	3005.5
920.1498	1867.8054	3877.3	2973.25
920.2893	1869.4528	3896.6	2994.7
920.4288	1871.0994	3872.25	2971
920.5683	1872.7453	3871.35	2969.05
920.7077	1874.3905	3861.55	2952.85
920.8471	1876.0349	3852.55	2954.55
920.9865	1877.6786	3854.4	2951.4
921.1259	1879.3215	3845.75	2948.25
921.2653	1880.9637	3826.15	2924.4
921.4046	1882.6051	3822.45	2922
921.5439	1884.2458	3811.3	2912.7
921.6832	1885.8858	3805.6	2907.6
921.8225	1887.525	3803.5	2904.45
921.9617	1889.1634	3777.6	2877.35
922.101	1890.8011	3777.75	2877.7
922.2402	1892.4381	3762.2	2862
922.3794	1894.0743	3760.05	2860.4
922.5185	1895.7098	3743.25	2843.3
922.6577	1897.3446	3743.3	2843.25
922.7968	1898.9786	3742.65	2837.2
922.9359	1900.6118	3742.9	2845.95
923.075	1902.2443	3717.9	2819.9
923.214	1903.8761	3718.95	2824.1
923.3531	1905.5071	3687.15	2787.65
923.4921	1907.1374	3698.1	2800.55
923.6311	1908.7669	3681.5	2786.9
923.77	1910.3957	3669.45	2774.5
923.909	1912.0237	3655.2	2759.5
924.0479	1913.651	3668	2768.1
924.1868	1915.2776	3655.25	2757.45
924.3257	1916.9034	3631.2	2734.65
924.4646	1918.5285	3629.2	2733.1
924.6034	1920.1528	3614.1	2716.6
924.7422	1921.7764	3616.7	2718.95
924.881	1923.3992	3599.85	2702.65
925.0198	1925.0213	3594.75	2700.05
925.1586	1926.6427	3580.7	2686.1
925.2973	1928.2633	3632.5	2657.15
925.436	1929.8832	3569.25	2669.35
925.5747	1931.5023	3554.9	2660.15
925.7134	1933.1207	3546.85	2649.6
925.852	1934.7383	3548.15	2649.55
925.9906	1936.3552	3528.75	2632.45
926.1292	1937.9714	3520.9	2622.2
926.2678	1939.5868	3501.4	2601.45
926.4064	1941.2015	3494.7	2596.65
926.5449	1942.8154	3494.4	2593.35
926.6834	1944.4286	3470.6	2573.7
926.8219	1946.041	3477.4	2562.65
926.9604	1947.6528	3467.95	2564.65
927.0988	1949.2637	3458.45	2561.85
927.2372	1950.8739	3451.05	2553.9
927.3756	1952.4834	3426	2530.6
927.514	1954.0921	3441.15	2543.1
927.6523	1955.7001	3428.2	2529.15
927.7907	1957.3074	3406.2	2511.65
927.929	1958.9139	3398.7	2508.05
928.0673	1960.5197	3390.9	2497.05
928.2055	1962.1247	3381.1	2487.5
928.3438	1963.729	3367.4	2476.4
928.482	1965.3325	3370.05	2471.7
928.6202	1966.9353	3356.8	2464.7
928.7584	1968.5374	3345.35	2452.25
928.8965	1970.1387	3310.3	2415.15
929.0346	1971.7393	3316.7	2424.45
929.1727	1973.3392	3323	2429.4
929.3108	1974.9383	3304.3	2414.35
929.4489	1976.5366	3285.5	2394.55
929.5869	1978.1342	3290.45	2398.9
929.7249	1979.7311	3282.05	2392.9
929.8629	1981.3273	3267.25	2380.5
930.0009	1982.9227	3267.75	2377.4
930.1388	1984.5173	3250.7	2364.6
930.2767	1986.1112	3265.8	2377.65
930.4146	1987.7044	3249	2358.85
930.5525	1989.2968	3232.15	2341.55
930.6904	1990.8885	3229	2338.95
930.8282	1992.4795	3229.65	2340.9
930.966	1994.0697	3213.9	2327.55
931.1038	1995.6592	3204.35	2316.65
931.2415	1997.2479	3198.8	2311.05
931.3793	1998.8359	3190.45	2302.55
931.517	2000.4232	3184.75	2302.55
931.6547	2002.0097	3179.3	2297.3
931.7923	2003.5955	3151.4	2266.95
931.93	2005.1805	3169.25	2282.95
932.0676	2006.7648	3166.4	2280.4
932.2052	2008.3484	3156.4	2271.95
932.3427	2009.9312	3160.7	2277.7
932.4803	2011.5133	3139.55	2260.65
932.6178	2013.0946	3126.85	2243.35
932.7553	2014.6752	3136.35	2250.15
932.8928	2016.2551	3114.65	2227.5
933.0302	2017.8342	3115.05	2230.3
933.1676	2019.4126	3097.55	2214.4
933.305	2020.9902	3105.25	2222.65
933.4424	2022.5672	3092	2208.4
933.5798	2024.1433	3094.65	2210.05
933.7171	2025.7188	3083.5	2204.25
933.8544	2027.2935	3081.15	2198.7
933.9917	2028.8674	3066.2	2186.45
934.129	2030.4406	3051.3	2171.2
934.2662	2032.0131	3032.1	2153.5
934.4034	2033.5849	3037.25	2156.6
934.5406	2035.1559	3029.9	2146.95
934.6778	2036.7261	3032	2147.35
934.8149	2038.2957	3032.6	2147.15
934.952	2039.8645	3027.25	2137.7
935.0891	2041.4325	3022.5	2131.45
935.2262	2042.9998	3013.65	2128.65
935.3632	2044.5664	3018.4	2134.15
935.5002	2046.1323	3005.25	2122.7
935.6372	2047.6974	2987.4	2107.3
935.7742	2049.2617	3000.8	2118.05
935.9111	2050.8254	3006.75	2103.2
936.048	2052.3883	2988.4	2100.45
936.1849	2053.9504	2977.55	2088.25
936.3218	2055.5118	2971.2	2083.6
936.4586	2057.0725	2982.9	2096
936.5955	2058.6325	2960.8	2074.65
936.7323	2060.1917	2944.6	2062
936.869	2061.7502	2950.4	2064.1
937.0058	2063.3079	2935.45	2054.45
937.1425	2064.8649	2927.9	2041.95
937.2792	2066.4212	2926.65	2042.75
937.4159	2067.9767	2929.45	2044.7
937.5525	2069.5315	2924.75	2038.65
937.6891	2071.0856	2906.65	2023.15
937.8257	2072.6389	2894.75	2014.55
937.9623	2074.1915	2889.2	2008.75
938.0989	2075.7433	2877.35	1994.1
938.2354	2077.2945	2878.7	1997.3
938.3719	2078.8448	2877.15	1989.15
938.5084	2080.3945	2868.5	1981.95
938.6448	2081.9434	2859.45	1970.9
938.7812	2083.4916	2853.75	1964.95
938.9176	2085.039	2859.85	1966.35
939.054	2086.5857	2841.2	1945.5
939.1903	2088.1317	2853.55	1959.5
939.3267	2089.677	2848.7	1956.45
939.463	2091.2215	2837.3	1942.9
939.5992	2092.7652	2824.75	1929.95
939.7355	2094.3083	2826.3	1934.05
939.8717	2095.8506	2820.9	1930.45
940.0079	2097.3921	2819.05	1928.25
940.1441	2098.933	2809	1918.3
940.2802	2100.4731	2809.4	1920.3
940.4163	2102.0124	2823.1	1911.75
940.5524	2103.5511	2814.65	1922.6
940.6885	2105.089	2802.1	1912.15
940.8245	2106.6261	2796.3	1907.85
940.9606	2108.1626	2795.45	1907
941.0965	2109.6983	2797.8	1878.4
941.2325	2111.2332	2776.05	1885.95
941.3684	2112.7675	2772.25	1879.2
941.5044	2114.301	2768.45	1877.4
941.6403	2115.8337	2765.4	1872.7
941.7761	2117.3657	2756.05	1866
941.912	2118.897	2751.15	1860.65
942.0478	2120.4276	2750.6	1854.4
942.1835	2121.9575	2746.7	1854.5
942.3193	2123.4866	2739.9	1846.3
942.455	2125.0149	2732.1	1836.95
942.5907	2126.5426	2719.1	1833.2
942.7264	2128.0695	2729.45	1842.5
942.8621	2129.5956	2702.8	1821.45
942.9977	2131.1211	2706	1818.45
943.1333	2132.6458	2697.2	1808.35
943.2689	2134.1698	2694.8	1804.45
943.4044	2135.693	2694.15	1799.25
943.54	2137.2155	2699.4	1804.8
943.6755	2138.7373	2692.15	1802.6
943.8109	2140.2584	2670.85	1785.6
943.9464	2141.7787	2672.8	1784.85
944.0818	2143.2983	2666.7	1785.65
944.2172	2144.8171	2641.1	1759.2
944.3526	2146.3353	2652.55	1767
944.4879	2147.8527	2642.3	1755.65
944.6232	2149.3693	2645.25	1756.3
944.7585	2150.8853	2643.65	1751.8
944.8938	2152.4005	2637.05	1743.4
945.029	2153.9149	2627.5	1733.9
945.1642	2155.4287	2622.5	1730.6
945.2994	2156.9417	2635.15	1745.2
945.4346	2158.454	2623.85	1734.5
945.5697	2159.9655	2614.75	1728.55
945.7048	2161.4764	2608.15	1724.35
945.8399	2162.9865	2596.9	1712.4
945.9749	2164.4958	2589.85	1702.05
946.1099	2166.0045	2591.15	1703.55
946.2449	2167.5124	2589.35	1702
946.3799	2169.0195	2585.7	1697.3
946.5148	2170.526	2587.6	1696.35
946.6498	2172.0317	2584	1693.75
946.7846	2173.5367	2570.45	1680.35
946.9195	2175.0409	2567.85	1678.9
947.0543	2176.5445	2561.55	1672.35
947.1891	2178.0473	2560.5	1668.95
947.3239	2179.5494	2556.85	1662
947.4587	2181.0507	2555.1	1665.9
947.5934	2182.5513	2543.1	1653.75
947.7281	2184.0512	2544.35	1657.1
947.8628	2185.5504	2540.1	1650.65
947.9974	2187.0488	2530.4	1642.5
948.132	2188.5465	2527.9	1642.2
948.2666	2190.0435	2517.3	1628.45
948.4012	2191.5397	2507.45	1617.6
948.5357	2193.0353	2510.7	1618.4
948.6702	2194.5301	2512.95	1618.75
948.8047	2196.0241	2512.8	1617.6
948.9392	2197.5175	2506.25	1607.9
949.0736	2199.0101	2500.8	1602.2
949.208	2200.502	2489.35	1597.75
949.3424	2201.9931	2470.6	1585.1
949.4767	2203.4835	2463.2	1577.65
949.611	2204.9733	2473.3	1570.8
949.7453	2206.4622	2462	1576.8
949.8796	2207.9505	2459.65	1573.1
950.0138	2209.438	2437.85	1555.2
950.148	2210.9248	2444.8	1557.9
950.2822	2212.4109	2440.65	1553.15
950.4164	2213.8962	2438.85	1543.35
950.5505	2215.3809	2440.95	1544.95
950.6846	2216.8648	2426.05	1529.25
950.8186	2218.3479	2434.9	1532.75
950.9527	2219.8304	2428.05	1529.4
951.0867	2221.3121	2414.7	1516.35
951.2207	2222.7931	2409.65	1515.45
951.3546	2224.2733	2400.45	1505.65
951.4886	2225.7529	2388.65	1497.1
951.6225	2227.2317	2382.7	1490.25
951.7563	2228.7098	2392.15	1506.3
951.8902	2230.1872	2378.3	1493.95
952.024	2231.6638	2373.2	1486.95
952.1578	2233.1397	2366	1477.5
952.2916	2234.6149	2366	1478.85
952.4253	2236.0894	2366.95	1479.8
952.559	2237.5632	2367.55	1470.6
952.6927	2239.0362	2347.35	1457.55
952.8263	2240.5085	2349.1	1460.35
952.9599	2241.9801	2331.1	1440.05
953.0935	2243.4509	2347.5	1454.65
953.2271	2244.921	2344.9	1451.75
953.3606	2246.3904	2326.6	1431.65
953.4941	2247.8591	2327.35	1437.15
953.6276	2249.3271	2313.3	1421.25
953.7611	2250.7943	2317.5	1426.2
953.8945	2252.2608	2309.4	1418.45
954.0279	2253.7266	2312.4	1421.6
954.1612	2255.1917	2301.15	1408.7
954.2946	2256.656	2285.65	1397.8
954.4279	2258.1197	2290.25	1402.25
954.5612	2259.5826	2293.35	1404.75
954.6944	2261.0447	2294.7	1404.6
954.8276	2262.5062	2279.7	1384.65
954.9608	2263.9669	2292.85	1398.45
955.094	2265.4269	2276.5	1384.65
955.2271	2266.8862	2265.35	1377.15
955.3602	2268.3448	2272.75	1382.4
955.4933	2269.8026	2245.7	1357.6
955.6264	2271.2598	2260.6	1371.4
955.7594	2272.7162	2255	1365.55
955.8924	2274.1719	2249.9	1360.9
956.0253	2275.6268	2260.35	1365.8
956.1583	2277.0811	2249.45	1357.9
956.2912	2278.5346	2244	1352.65
956.4241	2279.9874	2245.4	1358.2
956.5569	2281.4395	2240.85	1353.55
956.6897	2282.8908	2227.1	1335.6
956.8225	2284.3414	2238.7	1345.7
956.9553	2285.7914	2233.35	1343.35
957.088	2287.2406	2229.6	1335.1
957.2207	2288.689	2228.05	1334.6
957.3534	2290.1368	2224.8	1326.3
957.486	2291.5838	2218.3	1320.8
957.6186	2293.0302	2211.7	1314.2
957.7512	2294.4758	2213.45	1320.35
957.8838	2295.9206	2213	1317.6
958.0163	2297.3648	2203.55	1313.65
958.1488	2298.8082	2197.6	1307.75
958.2813	2300.251	2195.4	1303.25
958.4137	2301.693	2190.4	1291.85
958.5461	2303.1343	2184.45	1290.75
958.6785	2304.5748	2190.75	1300.95
958.8108	2306.0147	2164.55	1275.05
958.9432	2307.4538	2168.95	1279.25
959.0754	2308.8922	2170.3	1284.15
959.2077	2310.3299	2165.75	1279.75
959.3399	2311.7669	2166.3	1278.35
959.4721	2313.2031	2145	1256.3
959.6043	2314.6387	2153.75	1263.85
959.7365	2316.0735	2144.6	1252.35
959.8686	2317.5076	2145.15	1253.3
960.0006	2318.941	2146.25	1253.5
960.1327	2320.3737	2156.35	1259
960.2647	2321.8056	2141.65	1246.4
960.3967	2323.2369	2135.9	1242.45
960.5287	2324.6674	2133.75	1240.9
960.6606	2326.0972	2128.55	1236.3
960.7925	2327.5263	2131.85	1239.05
960.9244	2328.9547	2125.4	1231.8
961.0562	2330.3823	2126.5	1230.1
961.1881	2331.8092	2127.4	1228.35
961.3198	2333.2355	2112	1216.5
961.4516	2334.661	2101.05	1205.65
961.5833	2336.0858	2102.9	1207.1
961.715	2337.5098	2109.2	1213.65
961.8467	2338.9332	2105.55	1215.1
961.9783	2340.3558	2094.45	1201.6
962.1099	2341.7778	2087.45	1196.1
962.2415	2343.199	2093.2	1201.4
962.373	2344.6195	2084.8	1194.9
962.5045	2346.0393	2079.2	1188.85
962.636	2347.4583	2079.15	1186
962.7675	2348.8767	2074.5	1177.25
962.8989	2350.2943	2084.9	1188.45
963.0303	2351.7113	2085.95	1188.9
963.1617	2353.1275	2078.85	1181.2
963.293	2354.543	2080.7	1177.45
963.4243	2355.9578	2070.8	1176.15
963.5556	2357.3718	2066.9	1177.2
963.6868	2358.7852	2051.65	1160.45
963.818	2360.1978	2052.9	1162.55
963.9492	2361.6098	2060.9	1170.8
964.0803	2363.021	2049	1153
964.2114	2364.4315	2050.25	1158.1
964.3425	2365.8413	2043.85	1150.35
964.4736	2367.2504	2032.65	1142.7
964.6046	2368.6587	2035.9	1147
964.7356	2370.0664	2026.55	1136.25
964.8666	2371.4733	2025.1	1136.15
964.9975	2372.8795	2035	1142.4
965.1284	2374.285	2024.25	1131.7
965.2593	2375.6899	2016	1125.25
965.3901	2377.0939	2004.85	1111.95
965.5209	2378.4973	2012.45	1123.1
965.6517	2379.9	2019.85	1130.25
965.7825	2381.3019	1999.9	1107.3
965.9132	2382.7032	1998.15	1111.65
966.0439	2384.1037	1993.65	1106.5
966.1745	2385.5035	1976.55	1088.9
966.3051	2386.9027	1984	1099
966.4357	2388.3011	1986.25	1093.5
966.5663	2389.6987	1980.25	1092.6
966.6968	2391.0957	1969.15	1079.75
966.8273	2392.492	1966.85	1079.2
966.9578	2393.8876	1962.8	1074.35
967.0882	2395.2824	1963.15	1072.75
967.2186	2396.6765	1956.35	1068.25
967.349	2398.07	1945.6	1054.45
967.4793	2399.4627	1959.1	1065.3
967.6097	2400.8547	1944.7	1052.35
967.7399	2402.246	1955.25	1057.1
967.8702	2403.6366	1944.35	1055.15
968.0004	2405.0265	1928.6	1039
968.1306	2406.4156	1930.9	1038.2
968.2607	2407.8041	1938.5	1045.6
968.3909	2409.1918	1932.65	1038.6
968.521	2410.5789	1921.25	1031.2
968.651	2411.9652	1923.35	1031.9
968.781	2413.3508	1915.5	1024.55
968.911	2414.7358	1915.9	1022.85
969.041	2416.12	1914.35	1022.25
969.1709	2417.5035	1911.55	1021.8
969.3008	2418.8863	1906.25	1013.85
969.4307	2420.2684	1908	1017.3
969.5606	2421.6497	1904.8	1013.35
969.6904	2423.0304	1890.35	998.15
969.8201	2424.4104	1903.05	1009.3
969.9499	2425.7896	1892.3	999.8
970.0796	2427.1682	1896.55	1007.25
970.2093	2428.546	1893.05	1002.35
970.3389	2429.9232	1888.7	995.15
970.4685	2431.2996	1886.2	994.2
970.5981	2432.6753	1885.2	994.65
970.7277	2434.0503	1883.3	989.65
970.8572	2435.4246	1873.55	981.1
970.9867	2436.7982	1869.85	976.75
971.1161	2438.1711	1861.9	969.35
971.2456	2439.5433	1865.9	973.95
971.375	2440.9148	1863.9	968.2
971.5043	2442.2856	1853.85	964.45
971.6336	2443.6557	1848.15	956.25
971.7629	2445.025	1849.85	958.7
971.8922	2446.3937	1849.4	956.7
972.0214	2447.7617	1844.45	949.55
972.1506	2449.1289	1840.8	946.9
972.2798	2450.4955	1839.7	946.8
972.4089	2451.8613	1831.3	941.65
972.538	2453.2265	1830.95	940.65
972.6671	2454.5909	1832.95	941.15
972.7961	2455.9546	1832.2	942.85
972.9251	2457.3177	1819.35	930.15
973.0541	2458.68	1822.35	929.55
973.1831	2460.0416	1816.95	925.65
973.312	2461.4025	1820.8	928.35
973.4408	2462.7627	1833.35	930.8
973.5697	2464.1222	1815.05	926.55
973.6985	2465.4811	1813	923.95
973.8273	2466.8392	1815.65	928
973.956	2468.1966	1812.6	919.25
974.0847	2469.5533	1809.55	915.85
974.2134	2470.9093	1808.4	915.2
974.3421	2472.2645	1813.65	923.15
974.4707	2473.6191	1803.2	914.55
974.5993	2474.973	1800.05	909.05
974.7278	2476.3262	1798.5	905.85
974.8563	2477.6787	1797.4	907.75
974.9848	2479.0305	1794.9	904.35
975.1132	2480.3816	1787.95	897.6
975.2417	2481.7319	1788.95	899.55
975.37	2483.0816	1784.1	894.65
975.4984	2484.4306	1779.95	889.15
975.6267	2485.7789	1769.9	882.05
975.755	2487.1264	1771.9	881.95
975.8833	2488.4733	1771.75	881.75
976.0115	2489.8195	1781.65	884.9
976.1397	2491.165	1761.35	868.2
976.2678	2492.5097	1761.3	871.25
976.3959	2493.8538	1749.75	861.2
976.524	2495.1972	1753.7	864.1
976.6521	2496.5398	1748.95	859.1
976.7801	2497.8818	1752.4	860.5
976.9081	2499.2231	1754.95	863.55
977.036	2500.5637	1740.65	845.9
977.164	2501.9035	1744.7	851.7
977.2918	2503.2427	1748.95	854.95
977.4197	2504.5812	1734	842.65
977.5475	2505.919	1735.6	843.95
977.6753	2507.256	1736	845.95
977.8031	2508.5924	1729.55	838.4
977.9308	2509.9281	1724.25	829.55
978.0585	2511.2631	1726.3	834.3
978.1861	2512.5974	1723.85	833.8
978.3137	2513.9309	1720.75	830.65
978.4413	2515.2638	1740	825.1
978.5689	2516.596	1716.45	826.55
978.6964	2517.9275	1722.25	832.55
978.8239	2519.2583	1712.35	820.8
978.9513	2520.5884	1709.5	818.6
979.0788	2521.9178	1708.4	818.55
979.2062	2523.2465	1695.05	807.15
979.3335	2524.5745	1690.5	801.8
979.4608	2525.9018	1700.3	810.55
979.5881	2527.2284	1709.85	822.9
979.7154	2528.5543	1690.35	801
979.8426	2529.8796	1700.8	810.9
979.9698	2531.2041	1688.3	798.55
980.0969	2532.5279	1692	804.1
980.224	2533.851	1690.6	800.3
980.3511	2535.1735	1697.65	807.35
980.4781	2536.4952	1678.35	786.15
980.6052	2537.8163	1693.45	797.45
980.7321	2539.1366	1684.1	792.25
980.8591	2540.4562	1686.4	792.9
980.986	2541.7752	1687.5	793.15
981.1129	2543.0935	1684.8	794.05
981.2397	2544.411	1675.5	781.05
981.3665	2545.7279	1684.45	793.85
981.4933	2547.0441	1676.75	787.45
981.62	2548.3596	1680.95	787.8
981.7467	2549.6744	1680.05	787.6
981.8734	2550.9885	1676	784.3
982.0001	2552.3019	1664.55	772.6
982.1267	2553.6146	1670.5	777.65
982.2532	2554.9266	1666.4	776.75
982.3798	2556.2379	1665.95	772.85
982.5063	2557.5485	1670.7	781.75
982.6327	2558.8585	1666.45	772.75
982.7592	2560.1677	1659.95	765.15
982.8856	2561.4762	1674.3	780.55
983.0119	2562.7841	1661.25	765.6
983.1383	2564.0913	1657.8	766.8
983.2646	2565.3977	1650.45	759.45
983.3908	2566.7035	1645.8	757.05
983.517	2568.0086	1655.85	763.25
983.6432	2569.313	1656.15	762.3
983.7694	2570.6167	1650.75	754.2
983.8955	2571.9197	1656	764.7
984.0216	2573.222	1649.85	756.3
984.1476	2574.5236	1643.7	752
984.2737	2575.8246	1647.1	753.65
984.3996	2577.1248	1651.05	758.45
984.5256	2578.4244	1641.3	751.75
984.6515	2579.7232	1646.55	752.7
984.7774	2581.0214	1666.8	751.9
984.9032	2582.3189	1640	749.9
985.029	2583.6157	1645.8	750.95
985.1548	2584.9118	1637.8	747.2
985.2806	2586.2072	1648.25	756.95
985.4063	2587.5019	1629.75	739.65
985.5319	2588.7959	1638.75	747.75
985.6576	2590.0893	1641.3	750.75
985.7832	2591.3819	1634.5	744.85
985.9087	2592.6739	1636.7	747.9
986.0343	2593.9652	1645.9	753.45
986.1597	2595.2557	1630.85	740.7
986.2852	2596.5456	1639.75	747.4
986.4106	2597.8348	1634.5	744.25
986.536	2599.1234	1627.2	737.95
986.6614	2600.4112	1644.35	753.85
986.7867	2601.6983	1636.85	743.55
986.912	2602.9848	1631.8	740.6
987.0372	2604.2705	1634.95	739.1
987.1624	2605.5556	1628.4	736.8
987.2876	2606.84	1629.95	741.3
987.4128	2608.1237	1628.25	738.65
987.5379	2609.4067	1609.05	720.35
987.6629	2610.689	1635.85	738.55
987.788	2611.9707	1610.35	716.85
987.913	2613.2516	1617.15	722.35
988.0379	2614.5319	1609.05	718.8
988.1629	2615.8115	1606	715.95
988.2878	2617.0903	1596.3	704.65
988.4126	2618.3685	1598.05	708.2
988.5375	2619.6461	1600	708.05
988.6622	2620.9229	1600.3	710.7
988.787	2622.199	1600.5	708.5
988.9117	2623.4745	1600.55	709.3
989.0364	2624.7493	1595.95	706.8
989.161	2626.0234	1590.2	701.9
989.2857	2627.2968	1598.3	709.05
989.4102	2628.5695	1585.85	695.2
989.5348	2629.8415	1581.9	691.45
989.6593	2631.1128	1592.05	701.65
989.7837	2632.3835	1575.8	687.15
989.9082	2633.6535	1579.1	690.4
990.0326	2634.9228	1575.55	688.3
990.1569	2636.1914	1583.7	697.3
990.2812	2637.4593	1580.3	690.45
990.4055	2638.7265	1578.05	687.8
990.5298	2639.9931	1577.35	686.35
990.654	2641.259	1574.1	683.9
990.7782	2642.5242	1567.2	675.9
990.9023	2643.7887	1564.75	675.3
991.0264	2645.0525	1566.3	679.55
991.1505	2646.3156	1566	676.4
991.2745	2647.5781	1564.55	677.4
991.3985	2648.8398	1556.5	668.95
991.5225	2650.1009	1592.5	668.3
991.6464	2651.3613	1553.95	665.05
991.7703	2652.6211	1552.65	664.9
991.8942	2653.8801	1552	663
992.018	2655.1385	1549.2	658.35
992.1418	2656.3961	1544.85	655.55
992.2655	2657.6531	1549.45	663.6
992.3892	2658.9094	1563.55	676.75
992.5129	2660.1651	1543.7	655.45
992.6366	2661.42	1559.55	670.3
992.7602	2662.6743	1556.95	665.9
992.8837	2663.9279	1550.7	662.35
993.0073	2665.1808	1557.15	668.85
993.1307	2666.433	1557.6	668.7
993.2542	2667.6846	1555.4	666.5
993.3776	2668.9354	1558.45	665.85
993.501	2670.1856	1568.9	681.7
993.6244	2671.4351	1562.3	677.3
993.7477	2672.6839	1568.55	678
993.8709	2673.9321	1567.5	677.8
993.9942	2675.1795	1566.4	677.35
994.1174	2676.4263	1568	679.65
994.2405	2677.6724	1571.5	681.45
994.3637	2678.9179	1570.45	683.05
994.4868	2680.1626	1576.05	689.7
994.6098	2681.4067	1568.75	680.25
994.7328	2682.6501	1567.7	681.45
994.8558	2683.8928	1575.1	688.6
994.9788	2685.1348	1560.8	675.15
995.1017	2686.3761	1552.7	666.95
995.2245	2687.6168	1547.05	660.4
995.3474	2688.8568	1544.2	655.6
995.4702	2690.0961	1538.25	649.45
995.5929	2691.3348	1537.45	648.1
995.7156	2692.5727	1551.3	664.85
995.8383	2693.81	1531.45	645.15
995.961	2695.0466	1528.4	642.15
996.0836	2696.2826	1535.15	646.6
996.2062	2697.5178	1551.4	660.3
996.3287	2698.7524	1535.55	649.1
996.4512	2699.9863	1532.3	644.45
996.5737	2701.2195	1533.8	649
996.6961	2702.452	1543.05	652.85
996.8185	2703.6839	1548.25	658.3
996.9408	2704.9151	1544.55	655.8
997.0631	2706.1456	1553.75	667.15
997.1854	2707.3755	1554.15	666.45
997.3077	2708.6046	1561.55	671.85
997.4299	2709.8331	1575.4	686.15
997.552	2711.0609	1570.9	683.45
997.6742	2712.2881	1579.05	693.1
997.7963	2713.5145	1590.15	699.4
997.9183	2714.7403	1587.65	698.4
998.0403	2715.9654	1606.4	719.2
998.1623	2717.1899	1625.15	723.05
998.2842	2718.4136	1631.35	745.75
998.4062	2719.6367	1638.45	752.05
998.528	2720.8591	1649.5	755.55
998.6498	2722.0809	1660.75	772.7
998.7716	2723.3019	1681.45	791.25
998.8934	2724.5223	1684.6	797.7
999.0151	2725.7421	1677.2	788.9
999.1368	2726.9611	1685.95	798.9
999.2584	2728.1795	1686.15	795
999.38	2729.3972	1680.75	793.7
999.5016	2730.6142	1675.4	776.6
999.6231	2731.8306	1643.3	755.75
999.7446	2733.0462	1636.25	748.05
999.8661	2734.2612	1619.1	730.65
999.9875	2735.4756	1607.6	720.45
1000.1089	2736.6892	1584.3	698.8
1000.2302	2737.9022	1570.4	682.15
1000.3515	2739.1145	1559.7	670.7
1000.4728	2740.3262	1554.2	659.8
1000.594	2741.5372	1532	643.9
1000.7152	2742.7475	1527.35	641.45
1000.8363	2743.9571	1512.65	624.85
1000.9575	2745.1661	1505.95	613.45
1001.0785	2746.3744	1495.1	606.15
1001.1996	2747.582	1487.75	602.9
1001.3206	2748.7889	1479.8	591.6
1001.4415	2749.9952	1469.3	586.1
1001.5625	2751.2008	1463.9	578.45
1001.6833	2752.4057	1464.15	576.35
1001.8042	2753.61	1459.2	569.45
1001.925	2754.8136	1466.4	577.45
1002.0458	2756.0165	1450.7	565.15
1002.1665	2757.2188	1448.65	562.8
1002.2872	2758.4204	1448.75	561.6
1002.4078	2759.6213	1455.45	565.85
1002.5285	2760.8215	1453.7	563.35
1002.649	2762.0211	1447.65	559.45
1002.7696	2763.22	1450.95	562.65
1002.8901	2764.4182	1441.5	554.2
1003.0106	2765.6158	1442.8	558.05
1003.131	2766.8127	1437.9	551.6
1003.2514	2768.009	1435.6	549.8
1003.3717	2769.2045	1433.05	545.4
1003.492	2770.3994	1437	549.65
1003.6123	2771.5936	1422.15	536.9
1003.7325	2772.7872	1423.8	539.15
1003.8527	2773.9801	1421.85	534.3
1003.9729	2775.1723	1433.3	528.8
1004.093	2776.3639	1422.1	536.05
1004.2131	2777.5548	1425.1	536.55
1004.3331	2778.745	1419.05	532.9
1004.4531	2779.9346	1413.05	528.9
1004.5731	2781.1235	1420.8	534.15
1004.693	2782.3117	1414.6	531.85
1004.8129	2783.4992	1423.35	540.45
1004.9328	2784.6861	1428.2	543.3
1005.0526	2785.8723	1431.9	544.75
1005.1723	2787.0579	1431.7	546.3
1005.2921	2788.2428	1445.05	560
1005.4118	2789.427	1445.05	560.45
1005.5314	2790.6106	1450.9	564.55
1005.651	2791.7935	1450.85	567.55
1005.7706	2792.9757	1462.35	578.3
1005.8902	2794.1573	1468.5	582.6
1006.0097	2795.3382	1483.75	599.4
1006.1291	2796.5184	1495.75	612.9
1006.2485	2797.698	1501.25	614.8
1006.3679	2798.8769	1510.1	623.4
1006.4873	2800.0551	1524.4	637.85
1006.6066	2801.2327	1536.45	649.15
1006.7258	2802.4096	1549.75	665.9
1006.8451	2803.5859	1568.1	682.7
1006.9642	2804.7615	1582.35	697.25
1007.0834	2805.9364	1604.35	719.15
1007.2025	2807.1106	1630.95	747.05
1007.3216	2808.2842	1651.2	763.35
1007.4406	2809.4572	1675.5	791.5
1007.5596	2810.6294	1714.55	829.95
1007.6785	2811.801	1741.55	858
1007.7975	2812.972	1784.3	900.85
1007.9163	2814.1423	1821.75	936.7
1008.0352	2815.3119	1868.2	984.7
1008.154	2816.4808	1910	1028.15
1008.2727	2817.6491	1953.6	1068.1
1008.3914	2818.8167	2008.65	1129.25
1008.5101	2819.9837	2064.25	1173.85
1008.6288	2821.15	2119.2	1233.6
1008.7474	2822.3157	2169.45	1286.75
1008.8659	2823.4807	2239.4	1352.65
1008.9844	2824.645	2299.5	1413
1009.1029	2825.8086	2345.45	1461.9
1009.2214	2826.9716	2394.65	1509.9
1009.3398	2828.134	2454.55	1570.65
1009.4581	2829.2957	2502.4	1618.45
1009.5764	2830.4567	2534.9	1654.45
1009.6947	2831.617	2562.1	1677.6
1009.813	2832.7767	2573.3	1690.5
1009.9312	2833.9358	2580.25	1695.85
1010.0493	2835.0941	2583.25	1696.45
1010.1675	2836.2519	2557	1672.4
1010.2855	2837.4089	2539.1	1656.55
1010.4036	2838.5653	2527.2	1643.7
1010.5216	2839.7211	2513.15	1630.5
1010.6396	2840.8761	2514.85	1630.45
1010.7575	2842.0306	2532.95	1650.25
1010.8754	2843.1843	2544.9	1662.7
1010.9932	2844.3374	2586.5	1701.95
1011.111	2845.4899	2632.95	1748.8
1011.2288	2846.6417	2672.75	1789.6
1011.3465	2847.7928	2740.75	1858.1
1011.4642	2848.9433	2805.4	1922.75
1011.5818	2850.0931	2875.65	1991
1011.6995	2851.2422	2940.7	2056.35
1011.817	2852.3907	2997.5	2111.95
1011.9345	2853.5385	3053.4	2169.25
1012.052	2854.6857	3129.75	2219.7
1012.1695	2855.8323	3162.2	2280
1012.2869	2856.9781	3213	2330.5
1012.4042	2858.1233	3261.95	2381.25
1012.5216	2859.2679	3306.9	2421.7
1012.6389	2860.4118	3361.8	2478.6
1012.7561	2861.555	3413	2525.5
1012.8733	2862.6976	3453.25	2569.4
1012.9905	2863.8395	3489.05	2606.05
1013.1076	2864.9808	3510.8	2629.6
1013.2247	2866.1214	3536.55	2652.7
1013.3417	2867.2614	3547.85	2664.2
1013.4587	2868.4007	3570.65	2685.95
1013.5757	2869.5393	3580.65	2697.35
1013.6926	2870.6773	3593.25	2707.95
1013.8095	2871.8146	3623.15	2736.55
1013.9263	2872.9513	3604.3	2715.95
1014.0431	2874.0874	3601.7	2718.1
1014.1599	2875.2227	3593.75	2709.15
1014.2766	2876.3574	3569.65	2685.7
1014.3933	2877.4915	3554.65	2673
1014.51	2878.6249	3513.9	2631.6
1014.6266	2879.7577	3510.85	2627.4
1014.7431	2880.8898	3498.5	2606.85
1014.8596	2882.0212	3462.7	2581.9
1014.9761	2883.152	3441.8	2558.5
1015.0925	2884.2821	3442.15	2560.7
1015.2089	2885.4116	3436.8	2556.05
1015.3253	2886.5405	3441.55	2560.65
1015.4416	2887.6686	3445.45	2559.95
1015.5579	2888.7962	3446.85	2567.1
1015.6741	2889.923	3448.95	2568.3
1015.7903	2891.0493	3469.4	2588.35
1015.9065	2892.1748	3481.35	2597.2
1016.0226	2893.2997	3493.65	2610.1
1016.1387	2894.424	3493.4	2612.45
1016.2547	2895.5476	3510.95	2629.3
1016.3707	2896.6706	3532.05	2651.45
1016.4866	2897.7929	3552.45	2668.1
1016.6025	2898.9145	3596.5	2714.75
1016.7184	2900.0355	3607.95	2726.75
1016.8342	2901.1559	3656.9	2774.25
1016.95	2902.2756	3694.55	2806.35
1017.0658	2903.3946	3702.9	2824.05
1017.1815	2904.513	3726.35	2841.5
1017.2971	2905.6308	3752.35	2869.95
1017.4127	2906.7479	3785.15	2904.5
1017.5283	2907.8643	3808.9	2925.1
1017.6439	2908.9801	3832	2950.75
1017.7594	2910.0953	3820.9	2940.55
1017.8748	2911.2098	3826.9	2941.9
1017.9902	2912.3236	3823.35	2933.2
1018.1056	2913.4368	3812.95	2929.3
1018.2209	2914.5494	3785.6	2903.25
1018.3362	2915.6613	3761.1	2876.95
1018.4515	2916.7725	3738.25	2852.15
1018.5667	2917.8831	3702.2	2821.95
1018.6819	2918.9931	3685	2799.8
1018.797	2920.1024	3648.6	2766.1
1018.9121	2921.211	3626.5	2745.9
1019.0271	2922.319	3604.15	2721.35
1019.1421	2923.4264	3595.65	2712.65
1019.2571	2924.5331	3586.7	2707.75
1019.372	2925.6391	3564.85	2684.95
1019.4869	2926.7445	3567.2	2688.25
1019.6017	2927.8493	3569.7	2687.45
1019.7165	2928.9534	3592.6	2710.55
1019.8313	2930.0569	3585.15	2699.65
1019.946	2931.1597	3592.1	2708.8
1020.0606	2932.2619	3579.35	2699.45
1020.1753	2933.3634	3575.15	2694.4
1020.2899	2934.4643	3583.75	2695.7
1020.4044	2935.5645	3576.85	2688
1020.5189	2936.6641	3547.25	2663.15
1020.6334	2937.763	3511.1	2629.05
1020.7478	2938.8613	3475.95	2592.25
1020.8622	2939.959	3439.1	2553.95
1020.9765	2941.056	3370.95	2490.95
1021.0908	2942.1523	3302.2	2420.9
1021.2051	2943.248	3209.45	2325.95
1021.3193	2944.3431	3118.8	2239.8
1021.4334	2945.4375	3025.95	2144.65
1021.5476	2946.5313	2923.05	2044.25
1021.6617	2947.6244	2820.75	1939.15
1021.7757	2948.7169	2722	1842.2
1021.8897	2949.8087	2628.85	1749.1
1022.0037	2950.8999	2551.45	1668.9
1022.1176	2951.9904	2465.2	1584.8
1022.2315	2953.0803	2396.7	1516.3
1022.3453	2954.1696	2325.5	1443.15
1022.4591	2955.2582	2282.05	1402
1022.5728	2956.3462	2217.9	1336.35
1022.6865	2957.4335	2177.4	1295.3
1022.8002	2958.5202	2155.5	1273.75
1022.9138	2959.6062	2125	1245.25
1023.0274	2960.6916	2097.1	1215.05
1023.141	2961.7764	2082.55	1202.35
1023.2545	2962.8605	2063.85	1182.45
1023.3679	2963.9439	2038.7	1160.35
1023.4813	2965.0267	2037.8	1156.15
1023.5947	2966.1089	2045.35	1143.2
1023.708	2967.1905	2021.9	1142.55
1023.8213	2968.2714	2017.3	1138.1
1023.9346	2969.3516	2018.1	1136.3
1024.0478	2970.4312	2029.65	1141.5
1024.1609	2971.5102	2022.3	1142.5
1024.274	2972.5885	2024.3	1145.75
1024.3871	2973.6662	2031.55	1145.95
1024.5002	2974.7432	2015.95	1136.45
1024.6132	2975.8196	2024.85	1144.45
1024.7261	2976.8954	2015.2	1136.75
1024.839	2977.9705	1999.2	1118.85
1024.9519	2979.045	1991.2	1111.95
1025.0647	2980.1188	1973.25	1094.1
1025.1775	2981.192	1960.85	1080.5
1025.2902	2982.2645	1941	1060.25
1025.4029	2983.3364	1919.5	1039.25
1025.5156	2984.4077	1894.5	1013.65
1025.6282	2985.4783	1880.9	994.65
1025.7407	2986.5483	1838.5	959.75
1025.8532	2987.6177	1808.2	929.2
1025.9657	2988.6864	1769.4	888.85
1026.0782	2989.7545	1742.7	862.15
1026.1906	2990.8219	1704.9	824.35
1026.3029	2991.8887	1674.7	791.3
1026.4152	2992.9548	1646.05	766.35
1026.5275	2994.0204	1618.85	738.85
1026.6397	2995.0852	1575.15	696.4
1026.7519	2996.1495	1550.95	669.5
1026.864	2997.2131	1528.9	649.65
1026.9761	2998.276	1500.15	621
1027.0882	2999.3383	1479.15	599.15
1027.2002	3000.4	1456.85	574.8
1027.3122	3001.4611	1430.6	550.05
1027.4241	3002.5215	1419.9	539.1
1027.536	3003.5812	1408.2	529.3
1027.6478	3004.6404	1394.45	513.3
1027.7596	3005.6989	1378.95	494.55
1027.8714	3006.7567	1364.85	483.85
1027.9831	3007.8139	1387.15	474.3
1028.0947	3008.8705	1346.4	466.7
1028.2064	3009.9264	1342.7	459.4
1028.3179	3010.9818	1336.4	456.7
1028.4295	3012.0364	1323.3	443.9
1028.541	3013.0905	1316.8	438.5
1028.6524	3014.1439	1313.25	433.8
1028.7638	3015.1966	1310.95	430.35
1028.8752	3016.2487	1307.7	427.2
1028.9865	3017.3002	1312.9	426.5
1029.0978	3018.3511	1299.65	422.05
1029.209	3019.4013	1294.65	414.85
1029.3202	3020.4509	1296.75	417.4
1029.4314	3021.4998	1300.55	420.15
1029.5425	3022.5481	1291.85	412.8
1029.6535	3023.5958	1289.7	411.2
1029.7645	3024.6428	1290.4	410.75
1029.8755	3025.6892	1293.1	415.8
1029.9864	3026.735	1294.7	416.55
1030.0973	3027.7802	1285.65	406.25
1030.2082	3028.8247	1291.55	412.5
1030.319	3029.8685	1291.05	411.9
1030.4297	3030.9118	1289.6	409.3
1030.5404	3031.9544	1289.05	411.55
1030.6511	3032.9963	1296.6	418.25
1030.7617	3034.0376	1298.65	417.8
1030.8723	3035.0783	1296.35	415.5
1030.9829	3036.1184	1303.75	422.05
1031.0934	3037.1578	1305.15	427.5
1031.2038	3038.1966	1302.15	421.7
1031.3142	3039.2348	1304.8	427.65
1031.4246	3040.2723	1309.15	419.85
1031.5349	3041.3092	1309.65	430.75
1031.6452	3042.3455	1304.6	424
1031.7554	3043.3811	1306.6	428.05
1031.8656	3044.4161	1304.7	426.45
1031.9758	3045.4505	1293.9	416.95
1032.0859	3046.4842	1301.3	421.85
1032.1959	3047.5173	1291.65	413.25
1032.3059	3048.5498	1283.6	404
1032.4159	3049.5816	1286.8	407.5
1032.5258	3050.6128	1285.4	405.75
1032.6357	3051.6434	1277.05	397.15
1032.7455	3052.6734	1278.85	397.15
1032.8553	3053.7027	1275.15	396.2
1032.9651	3054.7314	1274.1	396.75
1033.0748	3055.7594	1266.6	389.9
1033.1845	3056.7868	1264.4	383.5
1033.2941	3057.8136	1260	381.1
1033.4037	3058.8398	1261.4	382.7
1033.5132	3059.8653	1259.5	381.65
1033.6227	3060.8902	1253.35	375.35
1033.7321	3061.9145	1248.85	371.6
1033.8415	3062.9381	1252.1	373.95
1033.9509	3063.9612	1254.85	359.7
1034.0602	3064.9835	1242.55	365.95
1034.1694	3066.0053	1237.85	356.9
1034.2787	3067.0264	1233.3	355.5
1034.3878	3068.0469	1231.95	352.05
1034.497	3069.0668	1222.4	341.9
1034.6061	3070.086	1216.2	339.8
1034.7151	3071.1046	1210.05	331
1034.8241	3072.1226	1201.1	321.7
1034.9331	3073.1399	1198.6	320.95
1035.042	3074.1567	1191	314
1035.1508	3075.1727	1184.6	304.25
1035.2597	3076.1882	1170.65	293.45
1035.3684	3077.203	1170.8	293.9
1035.4772	3078.2173	1168.1	289.25
1035.5859	3079.2308	1160.15	279.25
1035.6945	3080.2438	1153.3	272.4
1035.8031	3081.2561	1143.6	264.7
1035.9117	3082.2678	1133.85	255.7
1036.0202	3083.2789	1131.05	251.3
1036.1286	3084.2893	1130.05	252.6
1036.2371	3085.2991	1115.7	238.8
1036.3454	3086.3083	1124.55	242.8
1036.4538	3087.3169	1113.4	234.85
1036.562	3088.3248	1110.3	230.9
1036.6703	3089.3321	1104.15	224.45
1036.7785	3090.3388	1100.15	222.75
1036.8866	3091.3449	1094.95	216.05
1036.9948	3092.3503	1095.65	214.75
1037.1028	3093.3551	1086.45	210.6
1037.2108	3094.3593	1080.2	202.95
1037.3188	3095.3629	1078.25	199.9
1037.4267	3096.3658	1081.65	203.65
1037.5346	3097.3681	1076.25	198.7
1037.6425	3098.3698	1072.55	193.05
1037.7503	3099.3708	1071.9	187.15
1037.858	3100.3713	1066.6	188.75
1037.9657	3101.3711	1064	184.5
1038.0734	3102.3702	1174.1	180
1038.181	3103.3688	1057.5	177.55
1038.2886	3104.3667	1056.2	179.55
1038.3961	3105.364	1055.55	178.3
1038.5036	3106.3607	1054.7	175.2
1038.611	3107.3568	1049.8	169.15
1038.7184	3108.3522	1044.6	166.8
1038.8257	3109.347	1045.6	165.2
1038.933	3110.3412	1045.25	162.2
1039.0403	3111.3348	1040.25	160.15
1039.1475	3112.3277	1043.25	166.7
1039.2547	3113.32	1037.15	160.85
1039.3618	3114.3117	1037.75	159.6
1039.4689	3115.3028	1036.35	160.5
1039.5759	3116.2932	1033.85	151.95
1039.6829	3117.2831	1035.85	153.1
1039.7898	3118.2723	1032.3	153.45
1039.8967	3119.2608	1026.25	148.85
1040.0035	3120.2488	1031.15	153.8
1040.1103	3121.2361	1028.2	151.05
1040.2171	3122.2229	1021.95	144.6
1040.3238	3123.209	1023.6	145.25
1040.4305	3124.1944	1019.05	142.1
1040.5371	3125.1793	1023.9	146.65
1040.6437	3126.1635	1019.7	143.35
1040.7502	3127.1471	1014.7	137.9
1040.8567	3128.1301	1011.2	133.8
1040.9631	3129.1125	1016.9	139.45
1041.0695	3130.0942	1014.4	133.7
1041.1759	3131.0753	1021.7	134.55
1041.2822	3132.0558	1014.4	133.65
1041.3884	3133.0357	1010.35	133.15
1041.4946	3134.015	1010.1	131.1
1041.6008	3134.9936	1007.55	127.95
1041.7069	3135.9716	1029.15	129.35
1041.813	3136.949	1008.15	131.2
1041.919	3137.9258	1023.85	125.7
1042.025	3138.902	1006.9	125.35
1042.1309	3139.8775	1000.55	123.1
1042.2368	3140.8524	998.45	121.3
1042.3427	3141.8267	1000.45	121.85
1042.4485	3142.8004	997.15	119.15
1042.5542	3143.7735	1006.2	124.45
1042.6599	3144.7459	998.6	119.2
1042.7656	3145.7178	995.75	116.55
1042.8712	3146.689	996.2	118.2
1042.9768	3147.6596	997.9	119.2
1043.0823	3148.6295	996.75	119.3
1043.1878	3149.5989	988	111.7
1043.2932	3150.5676	992.9	113.4
1043.3986	3151.5357	992.8	117.2
1043.5039	3152.5032	987.7	111.3
1043.6092	3153.4701	986.5	109.7
1043.7145	3154.4364	991.2	112.7
1043.8197	3155.402	987.35	112.05
1043.9248	3156.367	988.5	110.45
1044.03	3157.3315	1019.35	108.9
1044.135	3158.2952	985.35	106.8
1044.24	3159.2584	983.3	106.95
1044.345	3160.221	984.6	105.95
1044.4499	3161.1829	981.1	103.4
1044.5548	3162.1442	982.45	104.8
1044.6596	3163.105	978.5	99.8
1044.7644	3164.065	978.1	100.45
1044.8692	3165.0245	980.8	101.2
1044.9739	3165.9834	979	104.05
1045.0785	3166.9416	980.05	103.55
1045.1831	3167.8993	978.05	101.1
1045.2877	3168.8563	978.25	98.55
1045.3922	3169.8127	978.1	101.05
1045.4966	3170.7684	974.25	98.15
1045.6011	3171.7236	977.1	99
1045.7054	3172.6782	976.2	101.2
1045.8098	3173.6321	976.15	100.55
1045.914	3174.5854	976.6	95.6
1046.0183	3175.5381	972.45	93.15
1046.1224	3176.4902	971.35	95.75
1046.2266	3177.4417	970.35	94.05
1046.3307	3178.3926	969.6	93.25
1046.4347	3179.3428	970.5	93.65
1046.5387	3180.2924	968.65	92.7
1046.6427	3181.2415	968.45	91.95
1046.7466	3182.1899	970.7	92.35
1046.8504	3183.1377	967.95	91.25
1046.9542	3184.0848	965.85	84.35
1047.058	3185.0314	966.7	89.6
1047.1617	3185.9773	968.15	91.85
1047.2654	3186.9227	964.2	86.15
1047.369	3187.8674	963.8	87.15
1047.4726	3188.8115	967.3	87.2
1047.5761	3189.755	964.2	87.3
1047.6796	3190.6979	961.55	85.15
1047.783	3191.6402	961.1	85.5
1047.8864	3192.5818	963.25	87.7
1047.9898	3193.5229	966.85	83.3
1048.0931	3194.4633	959.8	82.65
1048.1963	3195.4031	960.3	82.5
1048.2995	3196.3423	960.95	84.9
1048.4027	3197.2809	960.1	82.95
1048.5058	3198.2189	957.3	80.8
1048.6089	3199.1563	964.3	69.1
1048.7119	3200.0931	956.45	80
1048.8148	3201.0292	957.75	81.55
1048.9178	3201.9648	955.9	79.15
1049.0206	3202.8997	955.9	75.25
1049.1235	3203.834	956	79.6
1049.2262	3204.7677	955	78.3
1049.329	3205.7008	955.2	75.7
1049.4317	3206.6333	957.55	83.4
1049.5343	3207.5652	956.05	77.5
1049.6369	3208.4964	951	74.45
1049.7394	3209.4271	953.75	75.15
1049.8419	3210.3571	950.9	76.25
1049.9444	3211.2865	954.05	76.25
1050.0468	3212.2154	952.3	74.4
1050.1491	3213.1436	953.05	75.8
1050.2514	3214.0712	956.45	72
1050.3537	3214.9982	948.45	72.8
1050.4559	3215.9246	951	71.6
1050.5581	3216.8503	947.85	71.65
1050.6602	3217.7755	949.35	74.9
1050.7623	3218.7001	948.65	72.75
1050.8643	3219.624	947.7	69.9
1050.9663	3220.5473	946.9	71.3
1051.0682	3221.4701	948.25	70.15
1051.1701	3222.3922	948.25	72.3
1051.2719	3223.3137	948.35	71.4
1051.3737	3224.2346	947.5	69.4
1051.4754	3225.1549	945.2	69.7
1051.5771	3226.0746	946.1	68.35
1051.6788	3226.9937	947.6	72.35
1051.7804	3227.9121	945.15	70.95
1051.8819	3228.83	948.75	73.1
1051.9834	3229.7473	944.2	67.15
1052.0849	3230.6639	944.3	67.4
1052.1863	3231.5799	942.95	65.8
1052.2876	3232.4954	946.3	66.85
1052.3889	3233.4102	942.65	67.8
1052.4902	3234.3244	940	62.95
1052.5914	3235.238	940	64.35
1052.6926	3236.151	962	60.25
1052.7937	3237.0634	938.9	64.35
1052.8948	3237.9752	940.5	64.5
1052.9958	3238.8864	939.95	61.95
1053.0968	3239.797	937.8	62.95
1053.1977	3240.7069	938.35	60.9
1053.2986	3241.6163	940.45	62.3
1053.3994	3242.5251	939.3	63.45
1053.5002	3243.4332	933.35	60.35
1053.6009	3244.3408	934.55	58.25
1053.7016	3245.2477	934.75	59.05
1053.8022	3246.154	937.7	60.45
1053.9028	3247.0598	935.25	58.65
1054.0034	3247.9649	932.85	56.9
1054.1039	3248.8694	932.25	57.25
1054.2043	3249.7733	932	55.45
1054.3047	3250.6766	932.85	58.65
1054.4051	3251.5793	933.45	57.35
1054.5054	3252.4814	931.2	56.1
1054.6056	3253.3829	931.35	57.55
1054.7058	3254.2838	931.2	56.9
1054.806	3255.1841	931.35	55.6
1054.9061	3256.0838	928	52.25
1055.0061	3256.9829	930	52.95
1055.1062	3257.8814	933.1	53.55
1055.2061	3258.7792	929.8	53.45
1055.306	3259.6765	929.5	52
1055.4059	3260.5731	926.5	51.85
1055.5057	3261.4692	928.9	53.45
1055.6055	3262.3647	927.5	51.1
1055.7052	3263.2595	926.3	50.8
1055.8049	3264.1538	924.45	47
1055.9045	3265.0474	923.65	47.55
1056.0041	3265.9404	922.5	46.65
1056.1036	3266.8329	920.7	44.55
1056.2031	3267.7247	930.6	47.7
1056.3025	3268.616	922.8	49.95
1056.4019	3269.5066	917.75	43.6
1056.5013	3270.3966	918.7	40.55
1056.6005	3271.286	917.05	43.15
