Software Version:	3.9.2.0
Unit SN:	10000200
Spectrometer SN:	6960
Date:	3/8/2024 11:40:29 AM
Data Line Index:	25
Spectral Points:	2048
Integration time (ms):	125
Averages:	20
Delay (ms):	30000
Sequence Number:	1
Processing:	dark subtract
Laser Power (mW):	300
Laser Current (mA):	823
Laser Diode Temp (C):	25
Laser Case Temp (C):	25.2
System Temp (C):	25.2
Spectrometer Temp (C):	23.1
CCD Temp (C):	0.005
Secondary Temp (C):	20.006
Heatsink Temp (C):	19.721
CCDPCB Temp (C):	35.429
SecondaryPCB Temp (C):	27.648

Wavelength	RamanShift	Raw Counts	Dark Subtracted
787.061	30.1047	412.7	2.7
787.2016	32.3739	412.65	6.65
787.3422	34.6426	415.65	7.35
787.4828	36.9109	417.4	8.3
787.6235	39.1787	422.3	8.25
787.7642	41.4461	426.85	7.45
787.9049	43.7131	431.45	11.2
788.0456	45.9796	433.5	8.5
788.1863	48.2456	437.15	8.8
788.3271	50.5112	442.3	8.8
788.4679	52.7764	446.2	11.2
788.6087	55.0411	451.75	13.2
788.7496	57.3054	457.8	13
788.8904	59.5692	460.6	15.8
789.0313	61.8326	464.05	15
789.1722	64.0955	468.6	15.5
789.3132	66.3579	474.05	15.65
789.4541	68.6199	482.85	21.45
789.5951	70.8815	491.4	26.6
789.7361	73.1426	510.45	39.65
789.8771	75.4032	546.6	75
790.0181	77.6634	628.6	155.7
790.1592	79.9231	807.6	329.65
790.3003	82.1824	1189.6	702.55
790.4414	84.4412	1812.5	1314.1
790.5825	86.6995	2599.25	2084.65
790.7237	88.9574	3359.1	2832.5
790.8648	91.2148	3846.2	3310.8
791.006	93.4717	4060.05	3519.7
791.1472	95.7282	4078.75	3536.7
791.2885	97.9842	4053.1	3506.25
791.4297	100.2398	4002.7	3453.7
791.571	102.4949	3947.55	3395.95
791.7123	104.7495	3898.3	3342.75
791.8536	107.0036	3833.4	3276.75
791.9949	109.2573	3756.9	3203.1
792.1363	111.5105	3664.25	3105.9
792.2777	113.7632	3543.2	2981.05
792.4191	116.0154	3436.85	2865.15
792.5605	118.2672	3316.1	2753.15
792.7019	120.5185	3187.8	2617.7
792.8434	122.7693	3077.2	2508.5
792.9849	125.0197	2992.15	2418.15
793.1264	127.2696	2901.65	2323.65
793.2679	129.519	2860.3	2280.6
793.4094	131.7679	2826.9	2244.2
793.551	134.0163	2791.4	2205.7
793.6926	136.2642	2791.4	2201.85
793.8342	138.5117	2770.1	2175.05
793.9758	140.7587	2739.5	2147.6
794.1175	143.0052	2693.8	2096
794.2591	145.2512	2633.9	2038.4
794.4008	147.4967	2586.8	1988.5
794.5425	149.7417	2513.6	1911.95
794.6842	151.9863	2499.85	1895.3
794.826	154.2304	2494.65	1885.35
794.9677	156.4739	2479.25	1863.9
795.1095	158.717	2504.6	1892.1
795.2513	160.9596	2535.05	1914.55
795.3931	163.2017	2551.5	1931.15
795.535	165.4433	2557.1	1932.4
795.6768	167.6844	2550	1924.65
795.8187	169.925	2529	1898.65
795.9606	172.1651	2464.55	1831.9
796.1025	174.4047	2413.2	1776.2
796.2445	176.6439	2367.3	1728.95
796.3864	178.8825	2328.2	1687.3
796.5284	181.1206	2310.6	1665.7
796.6704	183.3582	2307.85	1660.35
796.8124	185.5954	2299.8	1647.45
796.9544	187.832	2296.15	1639.25
797.0965	190.0681	2297.65	1641.6
797.2386	192.3037	2318.6	1661.1
797.3806	194.5388	2307.95	1643.2
797.5228	196.7734	2316.65	1653.55
797.6649	199.0075	2340.1	1673.7
797.807	201.2411	2372.45	1708.35
797.9492	203.4742	2393.3	1725.15
798.0914	205.7068	2426.4	1753.85
798.2336	207.9389	2452.35	1780.35
798.3758	210.1704	2460.45	1794.85
798.518	212.4015	2457	1803.35
798.6603	214.632	2452.05	1799.4
798.8025	216.862	2462.5	1813.9
798.9448	219.0915	2470	1815.8
799.0871	221.3205	2486.35	1831.05
799.2294	223.549	2489.65	1837.8
799.3718	225.777	2490.2	1841.25
799.5141	228.0044	2480.9	1819.2
799.6565	230.2314	2480.7	1819.05
799.7989	232.4578	2453.15	1789.15
799.9413	234.6837	2447.35	1775.25
800.0837	236.909	2446.95	1770.95
800.2262	239.1339	2439.5	1741.5
800.3687	241.3582	2426.7	1740.15
800.5111	243.582	2457.4	1743.05
800.6536	245.8053	2452	1752.05
800.7961	248.0281	2448.25	1752.1
800.9387	250.2503	2469.3	1767.2
801.0812	252.472	2458.8	1755.25
801.2238	254.6932	2470.95	1767.7
801.3664	256.9139	2479.45	1778.25
801.509	259.134	2496.15	1786.6
801.6516	261.3536	2525.45	1817.35
801.7942	263.5727	2585.75	1879.15
801.9369	265.7912	2623.3	1918.55
802.0795	268.0092	2686.05	1979.25
802.2222	270.2267	2772.05	2062.45
802.3649	272.4436	2809.05	2101.15
802.5076	274.6601	2861.15	2139.4
802.6504	276.8759	2889.2	2172.3
802.7931	279.0913	2899.65	2183.8
802.9359	281.3061	2920.8	2201.1
803.0787	283.5204	2931.15	2210.15
803.2215	285.7341	2973.45	2250.55
803.3643	287.9473	2992.85	2268.85
803.5071	290.16	2990.2	2262.15
803.6499	292.3721	2943.1	2225.7
803.7928	294.5837	2906.25	2184.6
803.9357	296.7947	2877.8	2154.65
804.0786	299.0052	2885.8	2161.8
804.2215	301.2152	2843.55	2118.15
804.3644	303.4246	2826.95	2103.55
804.5074	305.6334	2810.95	2087.05
804.6503	307.8418	2783	2052.95
804.7933	310.0495	2758.55	2026.2
804.9363	312.2568	2718.75	1987.4
805.0793	314.4635	2669.7	1936.6
805.2223	316.6696	2616.45	1880.1
805.3653	318.8752	2555.1	1808.4
805.5084	321.0802	2532.1	1794.8
805.6514	323.2847	2527.4	1788.15
805.7945	325.4887	2513	1776.65
805.9376	327.692	2562.15	1822.6
806.0807	329.8949	2610.8	1866.4
806.2238	332.0972	2653.15	1913.25
806.367	334.2989	2687.05	1937.85
806.5101	336.5001	2677.8	1930.8
806.6533	338.7007	2640.8	1893.55
806.7965	340.9008	2580.2	1832.8
806.9397	343.1003	2521.1	1768.5
807.0829	345.2992	2462.15	1709.05
807.2261	347.4976	2417.9	1661.25
807.3693	349.6955	2390.5	1632.4
807.5126	351.8927	2369.05	1610.4
807.6559	354.0895	2354.1	1584.4
807.7991	356.2856	2335.2	1575.5
807.9424	358.4812	2329.6	1568.5
808.0857	360.6763	2325.5	1560.55
808.2291	362.8707	2314.45	1549.15
808.3724	365.0646	2327	1558.25
808.5158	367.258	2337.35	1566.9
808.6591	369.4508	2360.95	1589.4
808.8025	371.643	2397.55	1623.05
808.9459	373.8346	2421.05	1648.05
809.0893	376.0257	2465.25	1690.25
809.2327	378.2162	2477.85	1705
809.3762	380.4062	2495.65	1721.85
809.5196	382.5956	2475.65	1703.1
809.6631	384.7844	2417.8	1649.65
809.8066	386.9726	2377.3	1609.8
809.9501	389.1603	2348.5	1579.7
810.0936	391.3474	2363.7	1562.35
810.2371	393.5339	2339.8	1568.9
810.3806	395.7199	2325.85	1558.85
810.5241	397.9052	2372.95	1602.75
810.6677	400.09	2426	1654.7
810.8113	402.2743	2465.5	1693
810.9548	404.4579	2505.5	1732.7
811.0984	406.641	2568.4	1792.75
811.2421	408.8235	2621.6	1847.4
811.3857	411.0054	2655.65	1878.75
811.5293	413.1868	2725.6	1943.55
811.673	415.3675	2763.75	1979.55
811.8166	417.5477	2778.7	1992.8
811.9603	419.7273	2699.1	1909.35
812.104	421.9064	2628.1	1833.8
812.2477	424.0848	2568.15	1778.5
812.3914	426.2627	2490.35	1701.5
812.5351	428.4399	2420.7	1629.5
812.6788	430.6166	2363	1570.85
812.8226	432.7928	2317.85	1521.2
812.9663	434.9683	2269.8	1473.9
813.1101	437.1432	2245.05	1448.85
813.2539	439.3176	2216.35	1423.35
813.3977	441.4914	2201.8	1410.9
813.5415	443.6645	2205.1	1410.9
813.6853	445.8371	2206.9	1409.7
813.8291	448.0091	2195.2	1399.6
813.973	450.1806	2190.9	1394.6
814.1168	452.3514	2193.2	1395.3
814.2607	454.5216	2208.2	1400.35
814.4046	456.6913	2201.85	1398.6
814.5485	458.8603	2204.75	1405.35
814.6924	461.0288	2216.5	1420.6
814.8363	463.1967	2194.6	1397.9
814.9802	465.3639	2206.6	1407.15
815.1241	467.5306	2193.1	1392.75
815.2681	469.6967	2200.15	1397.55
815.412	471.8622	2178.15	1376.05
815.556	474.0271	2183.25	1380.05
815.7	476.1914	2170.6	1363.4
815.844	478.3551	2157.2	1354.55
815.988	480.5182	2168.95	1367.85
816.132	482.6807	2164.55	1359.95
816.276	484.8426	2194.5	1391.85
816.4201	487.0039	2244.55	1442.4
816.5641	489.1647	2308.9	1503.3
816.7082	491.3248	2358.7	1555
816.8522	493.4843	2367.45	1563
816.9963	495.6432	2367.2	1560.8
817.1404	497.8015	2329.55	1518.1
817.2845	499.9592	2284.4	1473.1
817.4286	502.1163	2220.55	1405.7
817.5727	504.2728	2178.15	1366.35
817.7168	506.4287	2147.25	1337.85
817.861	508.5839	2126.8	1318.1
818.0051	510.7386	2123.6	1313.25
818.1493	512.8927	2123.8	1303.95
818.2935	515.0461	2138.45	1324.9
818.4377	517.199	2167.3	1350.9
818.5818	519.3512	2202.8	1385.75
818.726	521.5029	2286.9	1467.55
818.8703	523.6539	2348.4	1529.85
819.0145	525.8043	2350.4	1531.45
819.1587	527.9541	2293.8	1472.85
819.303	530.1033	2218.8	1400.3
819.4472	532.2519	2165.5	1346.25
819.5915	534.3999	2134.35	1314.1
819.7357	536.5472	2135.55	1314.05
819.88	538.694	2131.3	1313.15
820.0243	540.8401	2154.35	1334.05
820.1686	542.9856	2178.2	1355.55
820.3129	545.1305	2187.05	1361.5
820.4572	547.2748	2202.4	1375.25
820.6016	549.4185	2214.45	1387.65
820.7459	551.5615	2213.7	1388.65
820.8902	553.704	2229.25	1403.5
821.0346	555.8458	2253.05	1431.05
821.1789	557.987	2272.65	1448.35
821.3233	560.1276	2303.65	1476.85
821.4677	562.2675	2373.9	1548.65
821.6121	564.4069	2443.2	1618
821.7565	566.5456	2479.8	1655.35
821.9009	568.6837	2473.9	1646.8
822.0453	570.8212	2390.3	1563.4
822.1897	572.958	2302.15	1473.65
822.3342	575.0942	2232.9	1404.65
822.4786	577.2299	2187.9	1362.6
822.6231	579.3648	2176.65	1354.3
822.7675	581.4992	2145.15	1321.35
822.912	583.6329	2169.7	1347.8
823.0565	585.766	2198.2	1371.95
823.201	587.8985	2251.2	1425.4
823.3454	590.0304	2319.3	1478.65
823.4899	592.1616	2335.55	1501.35
823.6345	594.2922	2331.8	1498.45
823.779	596.4222	2291.9	1458.2
823.9235	598.5515	2229.3	1394.9
824.068	600.6802	2169.2	1336.7
824.2126	602.8083	2124.3	1292.65
824.3571	604.9358	2106.9	1271.95
824.5017	607.0626	2101.1	1264.35
824.6462	609.1888	2109.85	1274.9
824.7908	611.3144	2141.15	1302
824.9354	613.4393	2191.25	1353.1
825.08	615.5636	2241.05	1403.2
825.2246	617.6873	2300.4	1460.9
825.3692	619.8103	2336.05	1494.65
825.5138	621.9327	2336.85	1496.2
825.6584	624.0544	2285.9	1451.2
825.803	626.1756	2217.8	1381.8
825.9477	628.2961	2177.6	1336.6
826.0923	630.4159	2157.55	1317.75
826.237	632.5351	2130.9	1290.15
826.3816	634.6537	2116.85	1272.65
826.5263	636.7716	2123.45	1279.6
826.6709	638.8889	2107.55	1263.65
826.8156	641.0056	2106.75	1262.25
826.9603	643.1216	2113.95	1272.2
827.105	645.237	2139.35	1290.55
827.2497	647.3518	2111.35	1269.25
827.3944	649.4659	2084.15	1243.5
827.5391	651.5793	2052.2	1210.25
827.6838	653.6922	2047.15	1204.4
827.8285	655.8043	2033.55	1191.5
827.9733	657.9159	2013.45	1170.05
828.118	660.0268	2007.75	1162.4
828.2627	662.137	2005.9	1159.15
828.4075	664.2466	2017.15	1169.4
828.5522	666.3556	2008.75	1160.85
828.697	668.4639	2002.7	1153.8
828.8418	670.5716	2001.8	1156
828.9865	672.6786	1987.7	1137.7
829.1313	674.785	1977.6	1128.45
829.2761	676.8907	1979.45	1128.8
829.4209	678.9958	1972.35	1126.8
829.5657	681.1002	1977.55	1125.85
829.7105	683.204	1983.1	1127.8
829.8553	685.3072	1984.75	1130.55
830.0001	687.4097	1969.3	1118.1
830.1449	689.5115	1972.65	1118.35
830.2898	691.6127	1965.55	1115.85
830.4346	693.7132	1971.05	1121.5
830.5794	695.8131	1998.05	1124.65
830.7243	697.9123	1972.65	1119.05
830.8691	700.0109	1989.25	1135
831.014	702.1089	1992.35	1141.6
831.1588	704.2061	2020.25	1166.85
831.3037	706.3028	2042.95	1187.8
831.4486	708.3987	2056.75	1203.7
831.5935	710.4941	2076.05	1222.4
831.7383	712.5887	2076.75	1222.1
831.8832	714.6827	2080.7	1221.55
832.0281	716.7761	2066.1	1212.95
832.173	718.8688	2061.8	1203.35
832.3179	720.9608	2070.9	1208.4
832.4628	723.0522	2090	1229.65
832.6077	725.1429	2112.15	1255.65
832.7527	727.233	2153.15	1298.35
832.8976	729.3224	2233.6	1376.3
833.0425	731.4112	2286.8	1429.8
833.1874	733.4993	2290.15	1428.35
833.3324	735.5867	2230.7	1369.55
833.4773	737.6735	2150.5	1291.4
833.6222	739.7596	2084.6	1222.75
833.7672	741.845	2064.25	1204.2
833.9122	743.9298	2045.7	1185.8
834.0571	746.014	2049.8	1190
834.2021	748.0974	2060.7	1197.7
834.347	750.1802	2060.85	1200.25
834.492	752.2624	2049.25	1185.95
834.637	754.3439	2046.55	1183.5
834.782	756.4247	2052.4	1180.75
834.9269	758.5048	2048.05	1188.2
835.0719	760.5843	2078.5	1216.55
835.2169	762.6631	2110.95	1248.3
835.3619	764.7413	2174.1	1313.55
835.5069	766.8188	2281.9	1417.5
835.6519	768.8956	2375.5	1510.4
835.7969	770.9718	2427.2	1565.6
835.9419	773.0473	2406.7	1544.35
836.0869	775.1221	2375.75	1512.9
836.232	777.1962	2380	1515.35
836.377	779.2697	2437.75	1571.4
836.522	781.3426	2565.25	1684.9
836.667	783.4147	2620.95	1754.9
836.8121	785.4862	2602.3	1739.5
836.9571	787.557	2493.95	1628.45
837.1021	789.6271	2350.6	1485.25
837.2472	791.6966	2206.9	1340.15
837.3922	793.7654	2105.95	1237.6
837.5373	795.8335	2050.7	1185.65
837.6823	797.901	2012.95	1146.7
837.8274	799.9678	1997	1126.3
837.9724	802.0339	1991.2	1125.25
838.1175	804.0993	2007.85	1130.2
838.2626	806.1641	1993.45	1125.65
838.4076	808.2282	1979.25	1112.6
838.5527	810.2916	1952	1080.05
838.6978	812.3544	1939.15	1070.75
838.8428	814.4164	1923.85	1057
838.9879	816.4778	1942.35	1075.2
839.133	818.5385	1955.5	1087
839.2781	820.5986	1989.35	1120.7
839.4232	822.658	2042.7	1173.35
839.5682	824.7166	2113.3	1243.65
839.7133	826.7747	2221.25	1352.9
839.8584	828.832	2323.6	1454.2
840.0035	830.8886	2373.75	1501.65
840.1486	832.9446	2391.45	1522.35
840.2937	834.9999	2363.1	1493.15
840.4388	837.0545	2281.1	1407.55
840.5839	839.1085	2180.65	1311.05
840.729	841.1618	2088.2	1213.5
840.8741	843.2143	2036	1164.4
841.0192	845.2662	2000.85	1129.7
841.1643	847.3175	1985.35	1115.6
841.3095	849.368	1970.75	1098.05
841.4546	851.4179	1969.45	1099.45
841.5997	853.467	1976.05	1105.25
841.7448	855.5155	1979.6	1107.8
841.8899	857.5633	1985.6	1110.85
842.0351	859.6105	1979.7	1107.5
842.1802	861.6569	1950.6	1078.5
842.3253	863.7027	1938.7	1065
842.4704	865.7478	1931.95	1058.45
842.6156	867.7922	1915.45	1041.35
842.7607	869.8359	1909.3	1035
842.9058	871.8789	1910.1	1035.2
843.0509	873.9212	1926.45	1021.75
843.1961	875.9629	1918	1046.1
843.3412	878.0039	1933.35	1058.9
843.4863	880.0441	1940.95	1067.9
843.6315	882.0837	1965.7	1089.15
843.7766	884.1226	2007.55	1134.3
843.9218	886.1609	2038.4	1166.15
844.0669	888.1984	2090.65	1217
844.212	890.2352	2135.8	1260.55
844.3572	892.2714	2158.4	1278.5
844.5023	894.3069	2121.75	1244.85
844.6475	896.3416	2056.85	1182.4
844.7926	898.3757	2017.65	1140.9
844.9377	900.4091	1989.7	1113.25
845.0829	902.4418	1999.3	1118.85
845.228	904.4739	2022.95	1144.4
845.3732	906.5052	2035.05	1158.5
845.5183	908.5358	2018.25	1140.85
845.6635	910.5658	2008.65	1130.3
845.8086	912.595	1971.55	1097.7
845.9538	914.6236	1924.4	1047.65
846.0989	916.6515	1884.7	1008.65
846.2441	918.6786	1868.3	991
846.3892	920.7051	1863.85	983.95
846.5344	922.7309	1859.3	983
846.6795	924.756	1862.3	985.1
846.8246	926.7804	1874.9	992.45
846.9698	928.8041	1887.6	1007
847.1149	930.8272	1902.8	1024.6
847.2601	932.8495	1910.1	1030.45
847.4052	934.8711	1924.65	1043.9
847.5504	936.892	1923.85	1043.6
847.6955	938.9123	1940.1	1058.9
847.8407	940.9318	1980.45	1100.8
847.9858	942.9506	1993.5	1115.1
848.131	944.9688	1973.75	1094.2
848.2761	946.9862	1956.7	1076.3
848.4213	949.003	1908.8	1028.25
848.5664	951.019	1891.4	1011.3
848.7115	953.0344	1872.55	993.9
848.8567	955.0491	1844.55	963.05
849.0018	957.063	1854.25	975.1
849.147	959.0763	1835.5	956.5
849.2921	961.0888	1845.35	962.85
849.4373	963.1007	1843.3	962.55
849.5824	965.1119	1840.05	962.9
849.7275	967.1223	1836.45	961.25
849.8727	969.1321	1827.45	952
850.0178	971.1412	1820.5	941.15
850.1629	973.1495	1819.35	939.4
850.3081	975.1572	1851.4	941.05
850.4532	977.1641	1817.1	938.65
850.5983	979.1704	1817.95	937.05
850.7435	981.1759	1815.95	929.65
850.8886	983.1808	1813.7	932.2
851.0337	985.1849	1809.15	918.35
851.1788	987.1884	1801.4	917.9
851.324	989.1911	1812.9	929.6
851.4691	991.1932	1816.35	933.7
851.6142	993.1945	1813.5	933.6
851.7593	995.1951	1812.4	931.05
851.9045	997.1951	1819.55	933.05
852.0496	999.1943	1804.1	924.85
852.1947	1001.1928	1805.65	923.35
852.3398	1003.1906	1818.05	934.5
852.4849	1005.1877	1845.35	964.1
852.63	1007.1841	1879.9	998.5
852.7751	1009.1798	1887.85	1006.35
852.9202	1011.1748	1868.65	986.15
853.0653	1013.1691	1846.6	963.65
853.2104	1015.1627	1811.15	927.3
853.3555	1017.1556	1780.25	897.2
853.5006	1019.1477	1758.5	876.85
853.6457	1021.1392	1732.65	851.7
853.7908	1023.1299	1734.1	854.9
853.9359	1025.12	1733.2	854.3
854.081	1027.1093	1740.1	864.25
854.2261	1029.0979	1763.4	890.15
854.3712	1031.0859	1796.65	920.1
854.5163	1033.0731	1807.05	927.35
854.6613	1035.0596	1799.6	918
854.8064	1037.0454	1798	915.8
854.9515	1039.0304	1775.2	892.5
855.0965	1041.0148	1759.85	877.7
855.2416	1042.9985	1738.45	852.5
855.3867	1044.9814	1728.55	845.2
855.5317	1046.9636	1713.85	829.55
855.6768	1048.9452	1732.15	848.75
855.8219	1050.926	1742.7	860.75
855.9669	1052.9061	1765.75	882.4
856.112	1054.8855	1770.9	887.65
856.257	1056.8642	1766.05	883.75
856.4021	1058.8421	1767.75	879.65
856.5471	1060.8194	1767.75	881.5
856.6921	1062.7959	1763.8	878.8
856.8372	1064.7717	1759.15	874.95
856.9822	1066.7469	1767.45	882.4
857.1272	1068.7213	1765.6	878.75
857.2723	1070.695	1788.85	905.45
857.4173	1072.6679	1811.95	926.3
857.5623	1074.6402	1831.2	946
857.7073	1076.6117	1834.85	946.05
857.8523	1078.5826	1807.15	920.4
857.9973	1080.5527	1771.25	881.75
858.1423	1082.5221	1727.3	840.65
858.2873	1084.4908	1721	836
858.4323	1086.4587	1697	811.35
858.5773	1088.426	1677.6	792
858.7223	1090.3925	1680.2	789.85
858.8673	1092.3584	1692.15	807.05
859.0123	1094.3235	1697.95	813.35
859.1573	1096.2879	1720.55	835.45
859.3022	1098.2515	1744.7	860.3
859.4472	1100.2145	1771.75	886.7
859.5922	1102.1767	1813.1	925.3
859.7371	1104.1382	1866.85	982.75
859.8821	1106.099	1920.7	1033.1
860.027	1108.0591	1969.5	1084.3
860.172	1110.0185	2023.25	1135.7
860.3169	1111.9771	2057.05	1170.65
860.4619	1113.9351	2114.3	1229.5
860.6068	1115.8923	2180.6	1295.9
860.7517	1117.8488	2221.05	1333.4
860.8967	1119.8045	2156.25	1270.4
861.0416	1121.7596	2042.65	1155.85
861.1865	1123.7139	1934.15	1050.95
861.3314	1125.6675	1870.55	985.7
861.4763	1127.6204	1876.4	991.85
861.6212	1129.5726	1899.9	1011.9
861.7661	1131.524	1888.8	1006.2
861.911	1133.4748	1854.25	968
862.0559	1135.4248	1790.6	902.2
862.2008	1137.3741	1734.35	850.95
862.3457	1139.3226	1707.85	819.6
862.4905	1141.2705	1704.6	821.9
862.6354	1143.2176	1718.6	828.85
862.7803	1145.164	1727.55	838.7
862.9251	1147.1097	1724.05	838.45
863.07	1149.0546	1691.2	803.7
863.2148	1150.9989	1669.4	780.6
863.3597	1152.9424	1647.5	763.25
863.5045	1154.8852	1641.25	754.45
863.6493	1156.8272	1631.2	745.35
863.7942	1158.7686	1637.75	744.95
863.939	1160.7092	1631.1	745.2
864.0838	1162.6491	1634.65	746.05
864.2286	1164.5883	1643.4	755.55
864.3734	1166.5267	1668.1	782.2
864.5182	1168.4644	1700.3	813.15
864.663	1170.4014	1737	843.8
864.8078	1172.3377	1775.5	891.55
864.9526	1174.2732	1829.15	944.6
865.0974	1176.2081	1944.2	1057.25
865.2421	1178.1421	2071.5	1181.7
865.3869	1180.0755	2194.35	1306.9
865.5317	1182.0082	2264.3	1378.45
865.6764	1183.9401	2231.5	1345.85
865.8212	1185.8713	2121.55	1236.95
865.9659	1187.8017	1980.3	1096.5
866.1106	1189.7315	1863.8	982.55
866.2554	1191.6605	1809.35	897.6
866.4001	1193.5888	1736.2	852.15
866.5448	1195.5163	1703	818.9
866.6895	1197.4432	1688.55	803.05
866.8342	1199.3693	1665.55	779.65
866.9789	1201.2947	1648.8	759.1
867.1236	1203.2193	1642.55	753.8
867.2683	1205.1432	1644.45	757.1
867.413	1207.0664	1643	756.35
867.5576	1208.9889	1647.15	757.55
867.7023	1210.9106	1643.7	755.5
867.847	1212.8316	1648.5	761.3
867.9916	1214.7519	1669.9	771.75
868.1363	1216.6715	1673.2	788.9
868.2809	1218.5903	1684	796.9
868.4255	1220.5084	1704.2	816.35
868.5701	1222.4257	1708.6	822.95
868.7148	1224.3424	1730.65	844.9
868.8594	1226.2583	1761.65	872.05
869.004	1228.1735	1794.25	906.2
869.1486	1230.0879	1831.9	946.95
869.2932	1232.0016	1877.55	991.15
869.4377	1233.9146	1922.55	1032
869.5823	1235.8269	1930.6	1044
869.7269	1237.7384	1938	1048.85
869.8715	1239.6492	1939.5	1051.6
870.016	1241.5592	1965.3	1073.5
870.1606	1243.4686	2019.55	1132.4
870.3051	1245.3772	2108.25	1222.2
870.4496	1247.285	2190.8	1303.6
870.5941	1249.1922	2288.95	1401.85
870.7387	1251.0986	2358.1	1471.8
870.8832	1253.0042	2440.85	1554.2
871.0277	1254.9092	2537	1649.75
871.1722	1256.8134	2621.1	1733.75
871.3167	1258.7169	2703.3	1813.25
871.4611	1260.6196	2748.15	1861
871.6056	1262.5216	2749.25	1858.45
871.7501	1264.4229	2721.95	1835.2
871.8945	1266.3234	2694.7	1807.1
872.039	1268.2232	2643.3	1753.9
872.1834	1270.1223	2585.25	1695.7
872.3278	1272.0207	2525.95	1639
872.4723	1273.9183	2526	1630.1
872.6167	1275.8151	2534.15	1645.55
872.7611	1277.7113	2575.75	1687.25
872.9055	1279.6067	2673.4	1786.4
873.0499	1281.5014	2831.45	1941.1
873.1943	1283.3953	3036.65	2144.4
873.3386	1285.2885	3224.1	2334.6
873.483	1287.181	3358.55	2466.35
873.6274	1289.0727	3401.35	2513.05
873.7717	1290.9637	3354.3	2464.5
873.9161	1292.854	3263.55	2374.95
874.0604	1294.7435	3141.7	2251.65
874.2047	1296.6323	3016	2127.55
874.349	1298.5204	2932.1	2040.5
874.4933	1300.4077	2855.6	1963.4
874.6376	1302.2943	2786	1896.45
874.7819	1304.1802	2759.65	1869.9
874.9262	1306.0653	2721.2	1830
875.0705	1307.9497	2674.3	1785.85
875.2147	1309.8333	2633.05	1745.55
875.359	1311.7162	2593.4	1702.4
875.5032	1313.5984	2565.05	1672.55
875.6475	1315.4798	2533.15	1633.2
875.7917	1317.3605	2519.2	1626.65
875.9359	1319.2405	2521.35	1631.3
876.0801	1321.1197	2480.65	1591.25
876.2243	1322.9982	2425.55	1533.45
876.3685	1324.876	2347.8	1458.8
876.5127	1326.753	2244.85	1356.4
876.6569	1328.6293	2154.35	1263.75
876.801	1330.5048	2054.2	1162.05
876.9452	1332.3796	1983.9	1093.75
877.0893	1334.2537	1954.85	1039.75
877.2335	1336.127	1884	994.9
877.3776	1337.9996	1868.15	978.75
877.5217	1339.8714	1821.5	930.25
877.6658	1341.7426	1853.25	919
877.8099	1343.6129	1805.45	912.75
877.954	1345.4826	1774.9	882.7
878.0981	1347.3515	1770.8	877.25
878.2422	1349.2196	1755.8	864.6
878.3862	1351.087	1745.15	855.75
878.5303	1352.9537	1751.55	860.65
878.6743	1354.8197	1743.45	854.25
878.8184	1356.6849	1754.45	866.1
878.9624	1358.5493	1770.55	878.15
879.1064	1360.4131	1799.5	909.7
879.2504	1362.276	1840.1	950.25
879.3944	1364.1383	1886.05	995.5
879.5384	1365.9998	1896.8	1002.7
879.6823	1367.8606	1873.25	982.4
879.8263	1369.7206	1868.9	978.6
879.9702	1371.5799	1868.9	977
880.1142	1373.4384	1849.45	958.35
880.2581	1375.2962	1825.95	937.4
880.402	1377.1533	1768.8	882.5
880.5459	1379.0096	1720.4	830.25
880.6898	1380.8652	1689.9	799.4
880.8337	1382.7201	1652.35	762.9
880.9776	1384.5742	1621.6	730.55
881.1215	1386.4275	1610.35	721
881.2653	1388.2802	1576.7	686.7
881.4092	1390.132	1563.85	675.25
881.553	1391.9832	1561.25	669.65
881.6968	1393.8336	1545.85	657.45
881.8406	1395.6832	1540.95	649.05
881.9844	1397.5322	1531.1	643.2
882.1282	1399.3803	1537	641.15
882.272	1401.2278	1520.3	627.15
882.4158	1403.0745	1513.45	624.4
882.5595	1404.9204	1498.7	611.35
882.7033	1406.7656	1489.3	599.7
882.847	1408.6101	1489.1	595.85
882.9908	1410.4538	1484.9	594.9
883.1345	1412.2968	1487	598.5
883.2782	1414.139	1497.4	609.5
883.4219	1415.9805	1502.75	613.75
883.5656	1417.8213	1518.8	624.65
883.7092	1419.6613	1527.1	639.15
883.8529	1421.5006	1563.5	672.55
883.9965	1423.3391	1600.7	711.35
884.1402	1425.1769	1658.3	765.35
884.2838	1427.0139	1737.65	846.55
884.4274	1428.8502	1830.05	937.7
884.571	1430.6858	1903	1011.2
884.7146	1432.5206	1935.75	1045
884.8582	1434.3547	1923.2	1033.05
885.0018	1436.188	1898.4	1008.6
885.1453	1438.0206	1887.7	998.35
885.2889	1439.8524	1873.1	982
885.4324	1441.6835	1880	991.5
885.5759	1443.5139	1875.15	978.95
885.7194	1445.3435	1883.75	994.1
885.8629	1447.1724	1887.65	997.4
886.0064	1449.0005	1879.75	991.25
886.1499	1450.8279	1865.45	975.8
886.2933	1452.6545	1868.15	977.45
886.4368	1454.4804	1858.8	970.35
886.5802	1456.3056	1856.65	960.75
886.7237	1458.13	1835.1	944.1
886.8671	1459.9536	1800.9	914.3
887.0105	1461.7766	1770.8	880.95
887.1539	1463.5987	1725.9	834.5
887.2972	1465.4202	1675.25	785.7
887.4406	1467.2409	1641.4	749.25
887.584	1469.0608	1606.4	718.05
887.7273	1470.88	1573.75	683.15
887.8706	1472.6984	1544.75	654.5
888.0139	1474.5161	1521.25	629.1
888.1572	1476.3331	1514.2	625.05
888.3005	1478.1493	1499	609.75
888.4438	1479.9648	1496.55	603.25
888.5871	1481.7795	1492.8	601.05
888.7303	1483.5935	1491.35	605.6
888.8736	1485.4067	1485.3	594.65
889.0168	1487.2192	1491.65	599.6
889.16	1489.031	1490	595.3
889.3032	1490.842	1490.85	602.1
889.4464	1492.6522	1487	597.95
889.5896	1494.4618	1474.35	584.7
889.7327	1496.2705	1480.45	590.35
889.8759	1498.0785	1475.3	584.8
890.019	1499.8858	1467.95	576.15
890.1622	1501.6924	1457.65	567.4
890.3053	1503.4981	1453.05	562.25
890.4484	1505.3032	1451.8	561.25
890.5914	1507.1075	1439.95	551.5
890.7345	1508.911	1439.55	550.9
890.8776	1510.7138	1416.1	527.85
891.0206	1512.5159	1421.5	530.55
891.1637	1514.3172	1417.3	527.85
891.3067	1516.1178	1405.7	517.85
891.4497	1517.9176	1409.75	513.7
891.5927	1519.7166	1397.55	509.85
891.7357	1521.515	1400.4	502.5
891.8786	1523.3126	1385	493.6
892.0216	1525.1094	1379.75	486.6
892.1645	1526.9055	1373.3	484.9
892.3074	1528.7008	1375.9	488.1
892.4503	1530.4954	1371.4	475.3
892.5932	1532.2893	1366.85	477.95
892.7361	1534.0824	1364.3	471.4
892.879	1535.8747	1367.5	477.85
893.0218	1537.6663	1361.7	474.05
893.1647	1539.4572	1367.5	476.85
893.3075	1541.2473	1358.1	468.35
893.4503	1543.0367	1363.75	476.25
893.5931	1544.8253	1369.35	473.85
893.7359	1546.6132	1376.2	484.8
893.8787	1548.4003	1389.25	490.4
894.0214	1550.1867	1399.7	501.85
894.1642	1551.9723	1404.9	509.95
894.3069	1553.7572	1412.85	521.85
894.4496	1555.5414	1437.1	549.35
894.5923	1557.3247	1458.35	569.85
894.735	1559.1074	1492.7	604.95
894.8777	1560.8893	1541.9	650.75
895.0204	1562.6705	1582	693.2
895.163	1564.4509	1605.3	716.55
895.3056	1566.2305	1608.75	725.9
895.4482	1568.0094	1608.45	723.1
895.5908	1569.7876	1606.8	719.9
895.7334	1571.565	1606.7	718.05
895.876	1573.3417	1614.3	726.6
896.0186	1575.1176	1609.9	724.45
896.1611	1576.8928	1632.8	745.75
896.3036	1578.6672	1648.7	766.6
896.4461	1580.4409	1675.85	789.85
896.5886	1582.2138	1721.85	832.4
896.7311	1583.986	1762.9	876.2
896.8736	1585.7575	1802.9	917.15
897.0161	1587.5282	1827.65	942.9
897.1585	1589.2981	1853.95	969.8
897.3009	1591.0673	1870.05	984.7
897.4433	1592.8358	1876.8	991.3
897.5857	1594.6035	1886.1	996.5
897.7281	1596.3704	1875.05	990
897.8705	1598.1366	1863.9	979
898.0128	1599.9021	1835.75	949.45
898.1551	1601.6668	1809.5	921.4
898.2975	1603.4308	1800.65	909.9
898.4398	1605.194	1806.2	915.2
898.5821	1606.9564	1836.55	953.25
898.7243	1608.7182	1903.45	1016.3
898.8666	1610.4791	1978.3	1095
899.0088	1612.2394	2077.95	1199
899.1511	1613.9988	2184.8	1303.15
899.2933	1615.7576	2260.95	1375.35
899.4355	1617.5156	2285.3	1393.55
899.5776	1619.2728	2254.2	1367.9
899.7198	1621.0293	2141.05	1255.05
899.862	1622.785	2028.2	1138.6
900.0041	1624.54	1897.6	1010.7
900.1462	1626.2942	1790.65	904.4
900.2883	1628.0477	1690.05	802.6
900.4304	1629.8005	1603.6	714.05
900.5725	1631.5525	1531.2	647.55
900.7145	1633.3037	1479.35	594.7
900.8566	1635.0542	1439.2	555.45
900.9986	1636.804	1401.85	517.15
901.1406	1638.553	1479.05	492.55
901.2826	1640.3013	1358.65	474.6
901.4245	1642.0488	1341.35	456.95
901.5665	1643.7955	1329.8	445.95
901.7085	1645.5416	1311.15	425.1
901.8504	1647.2868	1307.15	423.45
901.9923	1649.0313	1296	410.9
902.1342	1650.7751	1292.75	405.9
902.2761	1652.5181	1282.45	397.95
902.4179	1654.2604	1291.8	406.75
902.5598	1656.0019	1290.25	405.15
902.7016	1657.7427	1303.6	417.45
902.8434	1659.4828	1326.4	441.55
902.9852	1661.222	1363.05	477.25
903.127	1662.9606	1396.5	511.25
903.2687	1664.6984	1423.5	537.25
903.4105	1666.4354	1423.45	537.25
903.5522	1668.1717	1399	513.75
903.6939	1669.9072	1355.85	469.65
903.8356	1671.642	1311.45	423.55
903.9773	1673.3761	1266.15	380.95
904.119	1675.1094	1251.55	365.3
904.2606	1676.8419	1222.95	335.75
904.4022	1678.5737	1212.75	326.25
904.5439	1680.3048	1201.35	314.75
904.6855	1682.0351	1190.8	302.35
904.827	1683.7646	1192.05	302.95
904.9686	1685.4934	1184.4	299.55
905.1101	1687.2215	1177.4	290.25
905.2517	1688.9488	1174.6	289.75
905.3932	1690.6754	1171	285.8
905.5347	1692.4012	1168.2	282.35
905.6761	1694.1263	1170.55	285.6
905.8176	1695.8506	1163.2	277.65
905.9591	1697.5742	1158.65	272.85
906.1005	1699.297	1155.55	270.95
906.2419	1701.0191	1151.65	269.35
906.3833	1702.7404	1151.05	267.55
906.5246	1704.461	1149.65	261.75
906.666	1706.1808	1147.7	261.1
906.8073	1707.8999	1147.85	262.5
906.9487	1709.6182	1137.9	253.1
907.09	1711.3358	1136.6	255.35
907.2313	1713.0527	1133.25	252.55
907.3725	1714.7688	1141.95	252.9
907.5138	1716.4841	1138.35	251.75
907.655	1718.1987	1135.1	244.4
907.7962	1719.9126	1126.95	243.95
907.9374	1721.6257	1132.6	246.7
908.0786	1723.338	1133.95	249.95
908.2198	1725.0496	1122.45	238.2
908.3609	1726.7605	1129.2	242.55
908.502	1728.4706	1125.85	241.5
908.6431	1730.18	1120.05	235.2
908.7842	1731.8886	1126.45	242.95
908.9253	1733.5964	1143.55	238
909.0664	1735.3036	1125.6	239.85
909.2074	1737.0099	1119.95	237.2
909.3484	1738.7156	1116.6	234.75
909.4894	1740.4204	1123.85	236.8
909.6304	1742.1246	1123.3	238.35
909.7714	1743.8279	1118.4	234.1
909.9123	1745.5306	1115.95	231.25
910.0532	1747.2325	1114.25	230.35
910.1941	1748.9336	1114.35	230.05
910.335	1750.634	1112.3	226.15
910.4759	1752.3336	1116.9	234.45
910.6168	1754.0325	1115.75	234
910.7576	1755.7307	1114.65	231.15
910.8984	1757.4281	1111.8	228.65
911.0392	1759.1247	1124.5	232.55
911.18	1760.8206	1112.05	220.85
911.3208	1762.5158	1119.5	229.55
911.4615	1764.2102	1111.05	226.85
911.6022	1765.9039	1111.85	226.3
911.7429	1767.5968	1108.5	223.5
911.8836	1769.289	1105.8	223.3
912.0243	1770.9804	1109.95	225.55
912.1649	1772.6711	1109.8	222.75
912.3056	1774.361	1106.6	219.55
912.4462	1776.0502	1107.65	222.65
912.5868	1777.7386	1109.45	221.15
912.7274	1779.4263	1106.6	222.95
912.8679	1781.1132	1105.65	221.15
913.0084	1782.7994	1102.05	217.45
913.149	1784.4849	1102.45	220.3
913.2895	1786.1696	1121.65	218.4
913.4299	1787.8535	1103.65	222.7
913.5704	1789.5367	1102.1	219
913.7108	1791.2192	1099.55	217.9
913.8513	1792.9009	1123	212.55
913.9917	1794.5818	1103.45	216.35
914.132	1796.2621	1096.5	214.2
914.2724	1797.9415	1100.8	215.15
914.4128	1799.6202	1097.4	214.05
914.5531	1801.2982	1092.5	210.55
914.6934	1802.9755	1095.4	209.3
914.8337	1804.6519	1096.85	212.4
914.9739	1806.3277	1097.4	211.25
915.1142	1808.0027	1091.45	209.6
915.2544	1809.6769	1091.05	207
915.3946	1811.3504	1091.35	206.15
915.5348	1813.0231	1091.25	208.25
915.675	1814.6951	1090.75	206.65
915.8151	1816.3664	1093.15	207.45
915.9553	1818.0369	1090.5	207.05
916.0954	1819.7067	1089.05	205.35
916.2355	1821.3757	1090.9	205.25
916.3755	1823.044	1085.35	201.05
916.5156	1824.7115	1095.5	212.2
916.6556	1826.3783	1088.5	205.7
916.7956	1828.0443	1080.4	197.75
916.9356	1829.7096	1084.2	199.8
917.0756	1831.3741	1089.9	202.95
917.2155	1833.0379	1088.25	206.05
917.3555	1834.701	1089.6	205.1
917.4954	1836.3633	1080.45	196.8
917.6353	1838.0248	1082	194.35
917.7751	1839.6856	1081.15	198.95
917.915	1841.3457	1081.65	198
918.0548	1843.005	1078.55	193.7
918.1946	1844.6636	1079.3	197.6
918.3344	1846.3214	1081.85	199
918.4742	1847.9785	1078.1	193.35
918.6139	1849.6349	1080.7	194.4
918.7537	1851.2904	1090.75	196.9
918.8934	1852.9453	1078.95	191.95
919.0331	1854.5994	1081.6	195.3
919.1727	1856.2528	1085.2	196.8
919.3124	1857.9054	1079.75	196.15
919.452	1859.5572	1076.85	193.6
919.5916	1861.2083	1079.35	193.1
919.7312	1862.8587	1078.65	194.5
919.8708	1864.5084	1075.05	189.65
920.0103	1866.1572	1076.6	192.25
920.1498	1867.8054	1075.35	189.5
920.2893	1869.4528	1075.35	190.55
920.4288	1871.0994	1071.75	186.75
920.5683	1872.7453	1075.95	191.2
920.7077	1874.3905	1075.7	184.75
920.8471	1876.0349	1072.1	186.5
920.9865	1877.6786	1074.5	189.4
921.1259	1879.3215	1068.6	185.65
921.2653	1880.9637	1069.05	183.85
921.4046	1882.6051	1066.95	182.2
921.5439	1884.2458	1077.35	189.85
921.6832	1885.8858	1070.45	185
921.8225	1887.525	1069.75	184.45
921.9617	1889.1634	1064.35	178.65
922.101	1890.8011	1069.5	184.45
922.2402	1892.4381	1065.5	180
922.3794	1894.0743	1064.35	180.7
922.5185	1895.7098	1065.85	178.85
922.6577	1897.3446	1066	182.45
922.7968	1898.9786	1068.6	177.25
922.9359	1900.6118	1063.5	179.95
923.075	1902.2443	1063.2	178.9
923.214	1903.8761	1061	175.55
923.3531	1905.5071	1061.45	176
923.4921	1907.1374	1063.55	177.55
923.6311	1908.7669	1057.95	172.85
923.77	1910.3957	1065.75	180.5
923.909	1912.0237	1055.95	170.65
924.0479	1913.651	1061.75	177.9
924.1868	1915.2776	1062.9	179.15
924.3257	1916.9034	1059.25	175.6
924.4646	1918.5285	1057.1	175.05
924.6034	1920.1528	1053.1	168.75
924.7422	1921.7764	1056.45	172.2
924.881	1923.3992	1056.6	171.65
925.0198	1925.0213	1059.4	175.35
925.1586	1926.6427	1053.1	169.95
925.2973	1928.2633	1261.4	167.2
925.436	1929.8832	1059.8	172.85
925.5747	1931.5023	1051.9	168.6
925.7134	1933.1207	1049.4	166.4
925.852	1934.7383	1054.35	170
925.9906	1936.3552	1052.2	168.75
926.1292	1937.9714	1050.25	166.5
926.2678	1939.5868	1051.4	166.85
926.4064	1941.2015	1050.9	165.35
926.5449	1942.8154	1048.05	164.15
926.6834	1944.4286	1047.65	161.9
926.8219	1946.041	1071	164.55
926.9604	1947.6528	1054.55	164.55
927.0988	1949.2637	1045.25	161.25
927.2372	1950.8739	1051.9	167.25
927.3756	1952.4834	1045.95	159.9
927.514	1954.0921	1044.4	160.2
927.6523	1955.7001	1048.85	159.35
927.7907	1957.3074	1047	161.55
927.929	1958.9139	1043.6	159.5
928.0673	1960.5197	1048.6	162.3
928.2055	1962.1247	1042.15	159.65
928.3438	1963.729	1040.9	158.55
928.482	1965.3325	1046.6	157.45
928.6202	1966.9353	1041.05	157.75
928.7584	1968.5374	1043.9	161.25
928.8965	1970.1387	1041.6	157.4
929.0346	1971.7393	1039.8	158.2
929.1727	1973.3392	1039.5	157.3
929.3108	1974.9383	1036.85	156.8
929.4489	1976.5366	1039.2	156.25
929.5869	1978.1342	1040.95	159.2
929.7249	1979.7311	1038.15	154.45
929.8629	1981.3273	1040.35	158
930.0009	1982.9227	1039.15	156.55
930.1388	1984.5173	1034.85	152.65
930.2767	1986.1112	1033.2	151.2
930.4146	1987.7044	1033.95	154.5
930.5525	1989.2968	1033.7	149.35
930.6904	1990.8885	1036.15	150.65
930.8282	1992.4795	1035.8	153.5
930.966	1994.0697	1035	155
931.1038	1995.6592	1029.15	148
931.2415	1997.2479	1033.45	149.65
931.3793	1998.8359	1027.05	145.6
931.517	2000.4232	1030.95	150.75
931.6547	2002.0097	1030.6	151.6
931.7923	2003.5955	1026.4	144.35
931.93	2005.1805	1030.45	149.2
932.0676	2006.7648	1028.15	148.45
932.2052	2008.3484	1034	151.85
932.3427	2009.9312	1029.95	148.25
932.4803	2011.5133	1025.1	145.4
932.6178	2013.0946	1030.05	149.55
932.7553	2014.6752	1028.45	149.45
932.8928	2016.2551	1031.95	151.65
933.0302	2017.8342	1025.15	144.4
933.1676	2019.4126	1028.95	151.65
933.305	2020.9902	1022	143.3
933.4424	2022.5672	1025.6	145.75
933.5798	2024.1433	1032.9	148
933.7171	2025.7188	1029.7	150.85
933.8544	2027.2935	1025.9	144.85
933.9917	2028.8674	1024.85	145.3
934.129	2030.4406	1022.35	142.4
934.2662	2032.0131	1024.6	146.45
934.4034	2033.5849	1023.85	138
934.5406	2035.1559	1023.65	146.9
934.6778	2036.7261	1024.45	144.55
934.8149	2038.2957	1025.4	146.6
934.952	2039.8645	1025.85	142.6
935.0891	2041.4325	1032.15	147.95
935.2262	2042.9998	1025.2	145
935.3632	2044.5664	1024.5	143.6
935.5002	2046.1323	1022.3	141.25
935.6372	2047.6974	1021.5	143.3
935.7742	2049.2617	1026.9	148
935.9111	2050.8254	1048.05	147.45
936.048	2052.3883	1029.45	147.5
936.1849	2053.9504	1021.75	141.45
936.3218	2055.5118	1029.1	147.65
936.4586	2057.0725	1027.05	144.25
936.5955	2058.6325	1021.15	141.6
936.7323	2060.1917	1018.6	139.2
936.869	2061.7502	1022.25	139.7
937.0058	2063.3079	1018.45	141.5
937.1425	2064.8649	1022.25	141.35
937.2792	2066.4212	1022.2	140.85
937.4159	2067.9767	1021.15	142.5
937.5525	2069.5315	1019.15	140.3
937.6891	2071.0856	1022.65	144.55
937.8257	2072.6389	1016.9	137.35
937.9623	2074.1915	1019.7	142.65
938.0989	2075.7433	1017.05	135.95
938.2354	2077.2945	1014.15	136.55
938.3719	2078.8448	1016.85	137.15
938.5084	2080.3945	1019.4	138.3
938.6448	2081.9434	1017.9	137.65
938.7812	2083.4916	1023	142.85
938.9176	2085.039	1021.5	140.05
939.054	2086.5857	1022.6	140.15
939.1903	2088.1317	1015.25	134.55
939.3267	2089.677	1019.8	136.8
939.463	2091.2215	1020.6	135.55
939.5992	2092.7652	1022.35	138.45
939.7355	2094.3083	1016.65	134.1
939.8717	2095.8506	1018.35	137.75
940.0079	2097.3921	1022.4	142.6
940.1441	2098.933	1018.6	137.45
940.2802	2100.4731	1018.25	139.35
940.4163	2102.0124	1034.75	138.35
940.5524	2103.5511	1018.9	138.9
940.6885	2105.089	1016.2	134.05
940.8245	2106.6261	1015.85	134.4
940.9606	2108.1626	1017.75	135.3
941.0965	2109.6983	1045.1	136.3
941.2325	2111.2332	1017.65	136.5
941.3684	2112.7675	1017.75	134.85
941.5044	2114.301	1018.45	134.45
941.6403	2115.8337	1016.5	135.25
941.7761	2117.3657	1017	136.6
941.912	2118.897	1019.05	135.45
942.0478	2120.4276	1023.45	135.3
942.1835	2121.9575	1018.4	135.75
942.3193	2123.4866	1027.9	131.3
942.455	2125.0149	1014.65	128.85
942.5907	2126.5426	1012.7	132.2
942.7264	2128.0695	1017.25	133.1
942.8621	2129.5956	1014.55	136.7
942.9977	2131.1211	1014.15	130.45
943.1333	2132.6458	1014.3	135.4
943.2689	2134.1698	1017.85	136.85
943.4044	2135.693	1017.6	133.05
943.54	2137.2155	1019.2	135.35
943.6755	2138.7373	1017.75	136.85
943.8109	2140.2584	1008.9	127.9
943.9464	2141.7787	1017.8	132.2
944.0818	2143.2983	1005.5	128
944.2172	2144.8171	1011.35	135
944.3526	2146.3353	1012.35	130.2
944.4879	2147.8527	1008.25	129.75
944.6232	2149.3693	1014.65	134.3
944.7585	2150.8853	1011.9	130.65
944.8938	2152.4005	1014.45	133
945.029	2153.9149	1012.05	129.1
945.1642	2155.4287	1014.25	132.6
945.2994	2156.9417	1014.4	131.8
945.4346	2158.454	1013.35	130.3
945.5697	2159.9655	1011.1	131.75
945.7048	2161.4764	1009.9	129.4
945.8399	2162.9865	1012.65	131.35
945.9749	2164.4958	1009.1	129.05
946.1099	2166.0045	1012.4	130.2
946.2449	2167.5124	1009.45	129.75
946.3799	2169.0195	1011.25	130.45
946.5148	2170.526	1008.65	126.55
946.6498	2172.0317	1006.45	128.3
946.7846	2173.5367	1010.45	130.1
946.9195	2175.0409	1007	126.55
947.0543	2176.5445	1011.2	130.95
947.1891	2178.0473	1007.45	125.4
947.3239	2179.5494	1011.9	127.35
947.4587	2181.0507	1004.1	122.3
947.5934	2182.5513	1007.7	127.1
947.7281	2184.0512	1007.75	127.25
947.8628	2185.5504	1005.35	126.1
947.9974	2187.0488	1005.3	124.95
948.132	2188.5465	1005.2	125.9
948.2666	2190.0435	1006.1	125.35
948.4012	2191.5397	1007.6	129.1
948.5357	2193.0353	1008.75	129.1
948.6702	2194.5301	1008.15	126.55
948.8047	2196.0241	1008.65	127.9
948.9392	2197.5175	1008.15	127.9
949.0736	2199.0101	1012.05	126.8
949.208	2200.502	1004.25	123.7
949.3424	2201.9931	1002.2	122
949.4767	2203.4835	1005.75	124.7
949.611	2204.9733	1017.95	121.55
949.7453	2206.4622	999.85	120.25
949.8796	2207.9505	1003.9	122.2
950.0138	2209.438	1002.25	123.75
950.148	2210.9248	1001.6	119.8
950.2822	2212.4109	1002.5	122
950.4164	2213.8962	1002.9	119.5
950.5505	2215.3809	1001.65	119.85
950.6846	2216.8648	1003.6	121.9
950.8186	2218.3479	1006.5	119.95
950.9527	2219.8304	1007.4	122.3
951.0867	2221.3121	1003.5	118.7
951.2207	2222.7931	1000.1	118.75
951.3546	2224.2733	1001.15	119.7
951.4886	2225.7529	999.1	119.35
951.6225	2227.2317	1001.75	118.35
951.7563	2228.7098	992.8	113.25
951.8902	2230.1872	997.1	117.3
952.024	2231.6638	995.2	116.85
952.1578	2233.1397	1001.5	114.5
952.2916	2234.6149	995.85	116.35
952.4253	2236.0894	998.4	117.1
952.559	2237.5632	1004.5	112.05
952.6927	2239.0362	997.65	118.15
952.8263	2240.5085	997.55	118.1
952.9599	2241.9801	993.75	112
953.0935	2243.4509	990.3	109.2
953.2271	2244.921	994.1	112.35
953.3606	2246.3904	995	111.75
953.4941	2247.8591	995.05	115.15
953.6276	2249.3271	991.2	109.4
953.7611	2250.7943	993.2	109.65
953.8945	2252.2608	990.95	108.45
954.0279	2253.7266	991.5	110.9
954.1612	2255.1917	990.8	109.05
954.2946	2256.656	989.25	109.75
954.4279	2258.1197	992.1	113.4
954.5612	2259.5826	996.1	115.2
954.6944	2261.0447	994.7	112.05
954.8276	2262.5062	992.15	106.6
954.9608	2263.9669	995.1	110.95
955.094	2265.4269	991.25	110.1
955.2271	2266.8862	989.95	108.05
955.3602	2268.3448	989.25	107.6
955.4933	2269.8026	988.85	107.5
955.6264	2271.2598	987.6	108.75
955.7594	2272.7162	984.45	105.15
955.8924	2274.1719	985.85	105.35
956.0253	2275.6268	989.6	109.65
956.1583	2277.0811	990.75	107.9
956.2912	2278.5346	986.15	107.85
956.4241	2279.9874	987.7	107.65
956.5569	2281.4395	986.1	105.3
956.6897	2282.8908	993.3	109.15
956.8225	2284.3414	990.8	110.65
956.9553	2285.7914	985.85	107.2
957.088	2287.2406	984.3	104.1
957.2207	2288.689	985.95	103.55
957.3534	2290.1368	987.5	104.4
957.486	2291.5838	989.7	105.2
957.6186	2293.0302	988.5	105.5
957.7512	2294.4758	986.15	104.75
957.8838	2295.9206	989.45	105.6
958.0163	2297.3648	986.55	105.95
958.1488	2298.8082	986.5	103.05
958.2813	2300.251	986.55	105.85
958.4137	2301.693	988.7	105.8
958.5461	2303.1343	986.05	105.85
958.6785	2304.5748	987.75	106.45
958.8108	2306.0147	986.6	103.55
958.9432	2307.4538	983.8	102.25
959.0754	2308.8922	982.6	103
959.2077	2310.3299	981.8	100.8
959.3399	2311.7669	983.75	104.25
959.4721	2313.2031	984.05	103.65
959.6043	2314.6387	984.9	103.7
959.7365	2316.0735	982.75	103.35
959.8686	2317.5076	981.4	100.2
960.0006	2318.941	978.65	97.15
960.1327	2320.3737	983.85	101.75
960.2647	2321.8056	985.45	101.7
960.3967	2323.2369	980.8	97.6
960.5287	2324.6674	991.65	108.2
960.6606	2326.0972	991.05	110.05
960.7925	2327.5263	993.35	113.25
960.9244	2328.9547	992.75	110.2
961.0562	2330.3823	991.2	108.95
961.1881	2331.8092	991.05	106.3
961.3198	2333.2355	980.3	99.9
961.4516	2334.661	981.35	99
961.5833	2336.0858	985.35	99.7
961.715	2337.5098	981.5	98.65
961.8467	2338.9332	975.9	93.75
961.9783	2340.3558	985.7	102.75
962.1099	2341.7778	977.1	95.45
962.2415	2343.199	983.3	100.1
962.373	2344.6195	976.35	96.35
962.5045	2346.0393	978.45	96.75
962.636	2347.4583	979.8	97.7
962.7675	2348.8767	977.3	96.95
962.8989	2350.2943	978.2	95.45
963.0303	2351.7113	976.95	94.35
963.1617	2353.1275	979.75	97.55
963.293	2354.543	1002.55	93.9
963.4243	2355.9578	975.55	92.15
963.5556	2357.3718	978.9	95.35
963.6868	2358.7852	978.65	94.15
963.818	2360.1978	977.7	94.95
963.9492	2361.6098	978.05	100.65
964.0803	2363.021	981.6	97.6
964.2114	2364.4315	976.15	94.45
964.3425	2365.8413	982	95.05
964.4736	2367.2504	971.45	92.05
964.6046	2368.6587	977.45	94.6
964.7356	2370.0664	972.9	90.4
964.8666	2371.4733	973.15	90.25
964.9975	2372.8795	970.05	88.15
965.1284	2374.285	973.2	90.35
965.2593	2375.6899	970.65	88.05
965.3901	2377.0939	971.6	89.4
965.5209	2378.4973	977.15	94.25
965.6517	2379.9	973.05	92.55
965.7825	2381.3019	973.45	91.25
965.9132	2382.7032	974.7	91.85
966.0439	2384.1037	971.15	90.25
966.1745	2385.5035	972.4	92.1
966.3051	2386.9027	971.85	90.85
966.4357	2388.3011	974.1	89.1
966.5663	2389.6987	971.1	87.45
966.6968	2391.0957	969.4	90.2
966.8273	2392.492	970	88.6
966.9578	2393.8876	970.2	90.1
967.0882	2395.2824	969.65	87.35
967.2186	2396.6765	968.7	87.65
967.349	2398.07	967.6	85.4
967.4793	2399.4627	972.5	88.1
967.6097	2400.8547	970.4	85.75
967.7399	2402.246	976.3	86.65
967.8702	2403.6366	970.1	86.7
968.0004	2405.0265	967.45	86.5
968.1306	2406.4156	972.65	86.4
968.2607	2407.8041	970.5	85.4
968.3909	2409.1918	969.25	81.75
968.521	2410.5789	970.4	84.9
968.651	2411.9652	972.55	88.7
968.781	2413.3508	968.6	86.35
968.911	2414.7358	971.15	86
969.041	2416.12	966.35	83.3
969.1709	2417.5035	965	82.8
969.3008	2418.8863	966.3	82.2
969.4307	2420.2684	970.05	89
969.5606	2421.6497	966.9	83.1
969.6904	2423.0304	963.9	82.85
969.8201	2424.4104	967.95	86.45
969.9499	2425.7896	967.05	78.3
970.0796	2427.1682	961.85	80
970.2093	2428.546	967.3	84.2
970.3389	2429.9232	967.2	83.4
970.4685	2431.2996	963.95	81.15
970.5981	2432.6753	965.55	82.25
970.7277	2434.0503	963.4	77.95
970.8572	2435.4246	962.25	79.3
970.9867	2436.7982	968.95	85.15
971.1161	2438.1711	960.9	80.25
971.2456	2439.5433	967.1	83.95
971.375	2440.9148	958.85	74.1
971.5043	2442.2856	962.75	81.7
971.6336	2443.6557	959.8	76.5
971.7629	2445.025	960.85	77.45
971.8922	2446.3937	959.35	75.1
972.0214	2447.7617	963.2	80.9
972.1506	2449.1289	959.05	76.6
972.2798	2450.4955	965.9	79.9
972.4089	2451.8613	959.5	79.6
972.538	2453.2265	961.3	80.65
972.6671	2454.5909	960.55	79.95
972.7961	2455.9546	960.15	79.35
972.9251	2457.3177	960.25	78.35
973.0541	2458.68	958.6	74.6
973.1831	2460.0416	960.9	77
973.312	2461.4025	960.7	77.5
973.4408	2462.7627	968	71.4
973.5697	2464.1222	958.95	79
973.6985	2465.4811	956.55	74
973.8273	2466.8392	961.45	79.1
973.956	2468.1966	957.85	73.8
974.0847	2469.5533	959.65	75.65
974.2134	2470.9093	960.45	78.3
974.3421	2472.2645	960.15	75.15
974.4707	2473.6191	957.35	75.8
974.5993	2474.973	959	75.2
974.7278	2476.3262	960.7	77.4
974.8563	2477.6787	959.35	78.1
974.9848	2479.0305	955.5	74.5
975.1132	2480.3816	958.4	74.75
975.2417	2481.7319	956.95	76.15
975.37	2483.0816	958.8	75.85
975.4984	2484.4306	958.3	72.7
975.6267	2485.7789	956.75	75.85
975.755	2487.1264	955.55	71.35
975.8833	2488.4733	957.6	77.05
976.0115	2489.8195	960.8	72.1
976.1397	2491.165	962	75.95
976.2678	2492.5097	959.25	74.7
976.3959	2493.8538	953.85	73.7
976.524	2495.1972	953.9	71.45
976.6521	2496.5398	959.35	76.9
976.7801	2497.8818	958.15	72.45
976.9081	2499.2231	953.9	72.2
977.036	2500.5637	953.25	69.95
977.164	2501.9035	955.6	74.8
977.2918	2503.2427	956.4	71.75
977.4197	2504.5812	954.25	72.75
977.5475	2505.919	957.4	71.4
977.6753	2507.256	951.65	69.75
977.8031	2508.5924	952.9	70.95
977.9308	2509.9281	960.95	74
978.0585	2511.2631	953.65	71.15
978.1861	2512.5974	953.05	74.2
978.3137	2513.9309	953.6	74.3
978.4413	2515.2638	979.95	72.45
978.5689	2516.596	953.3	72.5
978.6964	2517.9275	956.95	74.1
978.8239	2519.2583	954.1	71.6
978.9513	2520.5884	949.3	65.1
979.0788	2521.9178	951.35	69.75
979.2062	2523.2465	950.15	69.6
979.3335	2524.5745	949.55	69.05
979.4608	2525.9018	951.4	67.8
979.5881	2527.2284	950.05	67.75
979.7154	2528.5543	946.15	64.5
979.8426	2529.8796	949.2	66.35
979.9698	2531.2041	949.9	68
980.0969	2532.5279	949	67.4
980.224	2533.851	949.45	65.45
980.3511	2535.1735	951	70.1
980.4781	2536.4952	948.45	67
980.6052	2537.8163	949	64.4
980.7321	2539.1366	947.8	66.3
980.8591	2540.4562	948.55	65
980.986	2541.7752	948.15	67.5
981.1129	2543.0935	951.7	71.55
981.2397	2544.411	949.65	65.7
981.3665	2545.7279	947.45	63.35
981.4933	2547.0441	948.45	68.1
981.62	2548.3596	950.1	65.5
981.7467	2549.6744	949.15	68.1
981.8734	2550.9885	958.5	67.15
982.0001	2552.3019	946.5	65.8
982.1267	2553.6146	949.75	69.55
982.2532	2554.9266	947.1	66.45
982.3798	2556.2379	946.75	64.55
982.5063	2557.5485	945.3	64.4
982.6327	2558.8585	953.35	63.3
982.7592	2560.1677	950.25	65.15
982.8856	2561.4762	946.15	63.85
983.0119	2562.7841	950.85	67.5
983.1383	2564.0913	947.2	66.7
983.2646	2565.3977	947	66.3
983.3908	2566.7035	946.55	64
983.517	2568.0086	946.05	62.9
983.6432	2569.313	949.95	66.6
983.7694	2570.6167	951	65.4
983.8955	2571.9197	947.6	67.7
984.0216	2573.222	948.45	63.35
984.1476	2574.5236	945.2	60.75
984.2737	2575.8246	946.4	63.9
984.3996	2577.1248	950.5	65.6
984.5256	2578.4244	944.3	62.5
984.6515	2579.7232	945.2	64.05
984.7774	2581.0214	971.5	64.7
984.9032	2582.3189	943.75	62.3
985.029	2583.6157	947.95	63.25
985.1548	2584.9118	945.25	65.35
985.2806	2586.2072	944.8	63.4
985.4063	2587.5019	943.05	59.5
985.5319	2588.7959	944.45	61.1
985.6576	2590.0893	947.7	64.9
985.7832	2591.3819	945.3	64.1
985.9087	2592.6739	946.5	66.4
986.0343	2593.9652	946.6	61.7
986.1597	2595.2557	943.55	60.35
986.2852	2596.5456	946.65	62.35
986.4106	2597.8348	944	63.3
986.536	2599.1234	944.8	64.15
986.6614	2600.4112	945	60.65
986.7867	2601.6983	949.6	65.75
986.912	2602.9848	946	64.6
987.0372	2604.2705	953.5	65.15
987.1624	2605.5556	946.9	64.75
987.2876	2606.84	945.8	65.1
987.4128	2608.1237	946.15	63.1
987.5379	2609.4067	945.85	64.35
987.6629	2610.689	951.4	61.8
987.788	2611.9707	948.95	62.55
987.913	2613.2516	944.9	58.85
988.0379	2614.5319	940.65	59.4
988.1629	2615.8115	942.7	60.1
988.2878	2617.0903	943.4	59.8
988.4126	2618.3685	944.35	61.8
988.5375	2619.6461	943	61.15
988.6622	2620.9229	938.95	57.45
988.787	2622.199	942.6	59.15
988.9117	2623.4745	941.2	58.9
989.0364	2624.7493	938.45	57.85
989.161	2626.0234	941.3	59.5
989.2857	2627.2968	941.1	58.65
989.4102	2628.5695	941.8	58.75
989.5348	2629.8415	940.35	58.25
989.6593	2631.1128	941.9	60.15
989.7837	2632.3835	939	58.3
989.9082	2633.6535	941.85	60.95
990.0326	2634.9228	940.05	59.7
990.1569	2636.1914	938.15	57.2
990.2812	2637.4593	945.15	58.4
990.4055	2638.7265	938.7	55.7
990.5298	2639.9931	938.6	55.8
990.654	2641.259	937.9	54.5
990.7782	2642.5242	941.65	62.05
990.9023	2643.7887	938.4	56.4
991.0264	2645.0525	938.8	58
991.1505	2646.3156	940.3	56.8
991.2745	2647.5781	937.25	58.05
991.3985	2648.8398	935.75	55.7
991.5225	2650.1009	946.05	56.35
991.6464	2651.3613	935.85	52.45
991.7703	2652.6211	939.15	58.65
991.8942	2653.8801	932.35	53.4
992.018	2655.1385	938.2	52.8
992.1418	2656.3961	934.3	53.2
992.2655	2657.6531	935.35	54.05
992.3892	2658.9094	934.4	54.2
992.5129	2660.1651	934.05	55.5
992.6366	2661.42	935.4	54.25
992.7602	2662.6743	932.25	50.3
992.8837	2663.9279	934.1	53.1
993.0073	2665.1808	936.9	54.75
993.1307	2666.433	935.95	52.9
993.2542	2667.6846	934.35	53.3
993.3776	2668.9354	939.85	54.85
993.501	2670.1856	938.1	54.6
993.6244	2671.4351	932.8	53.7
993.7477	2672.6839	938.75	54
993.8709	2673.9321	934.7	53.95
993.9942	2675.1795	937.85	56
994.1174	2676.4263	936.55	56.3
994.2405	2677.6724	937.4	57.25
994.3637	2678.9179	937.7	56.4
994.4868	2680.1626	936.65	55.9
994.6098	2681.4067	937.15	55.65
994.7328	2682.6501	937.7	57.4
994.8558	2683.8928	934.75	52.3
994.9788	2685.1348	931.15	52.35
995.1017	2686.3761	932.3	50.1
995.2245	2687.6168	933	52.15
995.3474	2688.8568	934.6	53.25
995.4702	2690.0961	932.95	52.45
995.5929	2691.3348	933.95	53.5
995.7156	2692.5727	930.85	49.85
995.8383	2693.81	933.8	53.15
995.961	2695.0466	931.7	52.15
996.0836	2696.2826	936.4	53.35
996.2062	2697.5178	951.55	50.75
996.3287	2698.7524	933.2	52.95
996.4512	2699.9863	935.65	52.95
996.5737	2701.2195	931.55	49.55
996.6961	2702.452	935.75	53.7
996.8185	2703.6839	934.5	52.8
996.9408	2704.9151	931.45	49.9
997.0631	2706.1456	935.05	52.6
997.1854	2707.3755	936.4	56
997.3077	2708.6046	938.3	55.9
997.4299	2709.8331	933.6	53.25
997.552	2711.0609	936.7	55.25
997.6742	2712.2881	937.3	55.95
997.7963	2713.5145	939.25	56.05
997.9183	2714.7403	938	59
998.0403	2715.9654	940.05	58.1
998.1623	2717.1899	949.8	57.15
998.2842	2718.4136	940.45	59.5
998.4062	2719.6367	939.4	58.6
998.528	2720.8591	947.55	58.75
998.6498	2722.0809	939.6	59.1
998.7716	2723.3019	946.2	64.05
998.8934	2724.5223	945.25	61.4
999.0151	2725.7421	943.25	60.25
999.1368	2726.9611	943.15	59
999.2584	2728.1795	946.55	63.05
999.38	2729.3972	941.75	62.2
999.5016	2730.6142	947.95	59.4
999.6231	2731.8306	938.35	56.5
999.7446	2733.0462	937.85	54.5
999.8661	2734.2612	939.9	53.65
999.9875	2735.4756	934.3	52.1
1000.1089	2736.6892	933.5	52.15
1000.2302	2737.9022	932.35	51.5
1000.3515	2739.1145	929.55	49.1
1000.4728	2740.3262	940.75	55.3
1000.594	2741.5372	932.25	53.35
1000.7152	2742.7475	931.45	49.8
1000.8363	2743.9571	928.7	43.65
1000.9575	2745.1661	934.3	49.8
1001.0785	2746.3744	931.6	50.75
1001.1996	2747.582	927.5	46.2
1001.3206	2748.7889	926.4	44.8
1001.4415	2749.9952	926.4	45.7
1001.5625	2751.2008	927.9	46.7
1001.6833	2752.4057	928.15	45.15
1001.8042	2753.61	926.1	45.4
1001.925	2754.8136	925.8	43.2
1002.0458	2756.0165	923.4	43.45
1002.1665	2757.2188	921.85	41.1
1002.2872	2758.4204	920.55	41.5
1002.4078	2759.6213	927.7	46.45
1002.5285	2760.8215	926.8	42.75
1002.649	2762.0211	929.15	46.55
1002.7696	2763.22	926.3	42.2
1002.8901	2764.4182	927.35	44.3
1003.0106	2765.6158	926.2	46.65
1003.131	2766.8127	924.45	42.45
1003.2514	2768.009	923.4	41.4
1003.3717	2769.2045	923	40.85
1003.492	2770.3994	924.75	41.75
1003.6123	2771.5936	924.7	43.85
1003.7325	2772.7872	922.25	44.3
1003.8527	2773.9801	923.35	40.65
1003.9729	2775.1723	938.35	40.65
1004.093	2776.3639	919.8	41.45
1004.2131	2777.5548	923.7	42.4
1004.3331	2778.745	923.4	41.45
1004.4531	2779.9346	922.6	41.7
1004.5731	2781.1235	923	41.35
1004.693	2782.3117	922.55	43.15
1004.8129	2783.4992	923.55	44.55
1004.9328	2784.6861	922.2	40.85
1005.0526	2785.8723	925.45	42.6
1005.1723	2787.0579	920.8	39
1005.2921	2788.2428	920.15	41.65
1005.4118	2789.427	921.65	44.2
1005.5314	2790.6106	921.55	40.75
1005.651	2791.7935	923.25	43.95
1005.7706	2792.9757	920.55	41.9
1005.8902	2794.1573	923.25	42.55
1006.0097	2795.3382	920.95	39.4
1006.1291	2796.5184	920.95	41.65
1006.2485	2797.698	922.6	42.25
1006.3679	2798.8769	922.35	42.05
1006.4873	2800.0551	922.7	43.6
1006.6066	2801.2327	925.2	45.05
1006.7258	2802.4096	920.9	39.95
1006.8451	2803.5859	927.6	46.2
1006.9642	2804.7615	927.25	45.85
1007.0834	2805.9364	925.55	46.45
1007.2025	2807.1106	925.25	45.3
1007.3216	2808.2842	930.4	49.6
1007.4406	2809.4572	930.75	50
1007.5596	2810.6294	931.3	49.5
1007.6785	2811.801	930.3	50.95
1007.7975	2812.972	930.4	50.35
1007.9163	2814.1423	935.75	55.3
1008.0352	2815.3119	936.75	56.05
1008.154	2816.4808	942.15	63.7
1008.2727	2817.6491	944.8	63.05
1008.3914	2818.8167	944.3	65.9
1008.5101	2819.9837	958.5	72.8
1008.6288	2821.15	955.2	76.3
1008.7474	2822.3157	961.8	81.5
1008.8659	2823.4807	969.35	89.8
1008.9844	2824.645	980.05	98.25
1009.1029	2825.8086	984.45	104.85
1009.2214	2826.9716	991.85	113.35
1009.3398	2828.134	997.95	118.05
1009.4581	2829.2957	1007.25	126.35
1009.5764	2830.4567	1011.2	134.55
1009.6947	2831.617	1019.15	138.55
1009.813	2832.7767	1022.8	141.9
1009.9312	2833.9358	1019.85	140.15
1010.0493	2835.0941	1015.55	135.45
1010.1675	2836.2519	1015.55	136.95
1010.2855	2837.4089	1014.3	134.85
1010.4036	2838.5653	1004.95	124.5
1010.5216	2839.7211	1004	126.55
1010.6396	2840.8761	1006.7	123.95
1010.7575	2842.0306	1002.2	123.45
1010.8754	2843.1843	998	120.1
1010.9932	2844.3374	998.75	119.4
1011.111	2845.4899	1002.85	120.65
1011.2288	2846.6417	999.95	120.35
1011.3465	2847.7928	1002.35	122.3
1011.4642	2848.9433	1004.3	126.45
1011.5818	2850.0931	1012.15	132.9
1011.6995	2851.2422	1013.85	132.25
1011.817	2852.3907	1014.25	131.9
1011.9345	2853.5385	1016.35	135.25
1012.052	2854.6857	1042.5	134.45
1012.1695	2855.8323	1015.15	134.4
1012.2869	2856.9781	1018.75	140.1
1012.4042	2858.1233	1025.7	145.3
1012.5216	2859.2679	1029.4	150
1012.6389	2860.4118	1031.95	153.6
1012.7561	2861.555	1038.2	155.5
1012.8733	2862.6976	1037.6	155.7
1012.9905	2863.8395	1038.75	162
1013.1076	2864.9808	1039.2	159.2
1013.2247	2866.1214	1041.1	163.35
1013.3417	2867.2614	1046.4	167.65
1013.4587	2868.4007	1047.6	167.35
1013.5757	2869.5393	1049.6	166.85
1013.6926	2870.6773	1053.6	170.6
1013.8095	2871.8146	1058.75	175.85
1013.9263	2872.9513	1058.55	177
1014.0431	2874.0874	1054.5	175.2
1014.1599	2875.2227	1057	175.1
1014.2766	2876.3574	1054.65	174.3
1014.3933	2877.4915	1062.8	182.4
1014.51	2878.6249	1064.2	186.5
1014.6266	2879.7577	1067.55	188.2
1014.7431	2880.8898	1076.35	187.4
1014.8596	2882.0212	1069.75	192.25
1014.9761	2883.152	1072.05	192.05
1015.0925	2884.2821	1077.5	199.15
1015.2089	2885.4116	1074.6	197.05
1015.3253	2886.5405	1076.5	197.4
1015.4416	2887.6686	1083.85	201.35
1015.5579	2888.7962	1074.15	197.2
1015.6741	2889.923	1078.05	198.9
1015.7903	2891.0493	1078.6	199.75
1015.9065	2892.1748	1074.85	196.25
1016.0226	2893.2997	1081.6	199.55
1016.1387	2894.424	1076.1	198.2
1016.2547	2895.5476	1076.6	198.2
1016.3707	2896.6706	1077.55	201.2
1016.4866	2897.7929	1075.45	195.5
1016.6025	2898.9145	1078.35	197.65
1016.7184	2900.0355	1078.3	197.6
1016.8342	2901.1559	1077.5	195.85
1016.95	2902.2756	1081.75	196.75
1017.0658	2903.3946	1079.8	201.75
1017.1815	2904.513	1075.75	193.6
1017.2971	2905.6308	1077.45	199.55
1017.4127	2906.7479	1072.95	192.9
1017.5283	2907.8643	1077.4	196.9
1017.6439	2908.9801	1076.35	199.05
1017.7594	2910.0953	1077.4	199.65
1017.8748	2911.2098	1076.35	194.65
1017.9902	2912.3236	1087.65	201.7
1018.1056	2913.4368	1082.2	201.25
1018.2209	2914.5494	1075.1	195.7
1018.3362	2915.6613	1074.95	191.55
1018.4515	2916.7725	1075.55	195.85
1018.5667	2917.8831	1067.9	188
1018.6819	2918.9931	1065.5	183.85
1018.797	2920.1024	1062.75	182.65
1018.9121	2921.211	1060.85	181.3
1019.0271	2922.319	1059	179.6
1019.1421	2923.4264	1048.15	170.1
1019.2571	2924.5331	1051.45	173.85
1019.372	2925.6391	1055.5	178
1019.4869	2926.7445	1053.65	176.55
1019.6017	2927.8493	1056.35	177.7
1019.7165	2928.9534	1051.3	170.45
1019.8313	2930.0569	1060.75	179.6
1019.946	2931.1597	1059.65	179.2
1020.0606	2932.2619	1058.5	179.45
1020.1753	2933.3634	1063.05	185.85
1020.2899	2934.4643	1068.6	182.2
1020.4044	2935.5645	1064.9	182.1
1020.5189	2936.6641	1072.25	187.6
1020.6334	2937.763	1065.5	188
1020.7478	2938.8613	1062.25	182.6
1020.8622	2939.959	1061.85	179.05
1020.9765	2941.056	1054.25	177.55
1021.0908	2942.1523	1049.55	167.35
1021.2051	2943.248	1042.15	161.55
1021.3193	2944.3431	1037.25	156.5
1021.4334	2945.4375	1027.75	149.65
1021.5476	2946.5313	1016.5	137
1021.6617	2947.6244	1010.9	129.8
1021.7757	2948.7169	1004	123.15
1021.8897	2949.8087	996.35	118.4
1022.0037	2950.8999	989.2	112.5
1022.1176	2951.9904	984.45	105.75
1022.2315	2953.0803	984.55	105.4
1022.3453	2954.1696	979	99
1022.4591	2955.2582	974.6	95.8
1022.5728	2956.3462	971	93.05
1022.6865	2957.4335	970.05	89.85
1022.8002	2958.5202	970.85	90.45
1022.9138	2959.6062	966.25	89.1
1023.0274	2960.6916	966.5	87.65
1023.141	2961.7764	967.95	91.15
1023.2545	2962.8605	968.95	90.55
1023.3679	2963.9439	968	91.8
1023.4813	2965.0267	968.25	89.2
1023.5947	2966.1089	988.15	86
1023.708	2967.1905	967.4	88.2
1023.8213	2968.2714	963.85	84.4
1023.9346	2969.3516	964.65	84.1
1024.0478	2970.4312	972.15	84.85
1024.1609	2971.5102	962.25	83.75
1024.274	2972.5885	965.15	87.35
1024.3871	2973.6662	970.35	88.15
1024.5002	2974.7432	965.95	88.4
1024.6132	2975.8196	963.8	85.4
1024.7261	2976.8954	963.7	86.8
1024.839	2977.9705	963.95	86.3
1024.9519	2979.045	963.6	85.35
1025.0647	2980.1188	963.9	85.65
1025.1775	2981.192	965.3	88.35
1025.2902	2982.2645	965.85	86.55
1025.4029	2983.3364	961	81.65
1025.5156	2984.4077	958.85	81
1025.6282	2985.4783	959.6	76.05
1025.7407	2986.5483	951.7	74.05
1025.8532	2987.6177	951.3	71.55
1025.9657	2988.6864	949.15	68.9
1026.0782	2989.7545	945.7	65.8
1026.1906	2990.8219	944.2	64.4
1026.3029	2991.8887	944.7	63.2
1026.4152	2992.9548	938.1	59.35
1026.5275	2994.0204	932.3	53.35
1026.6397	2995.0852	930.55	54.6
1026.7519	2996.1495	931.75	52.15
1026.864	2997.2131	926.7	48.35
1026.9761	2998.276	925.8	49
1027.0882	2999.3383	924.8	45.25
1027.2002	3000.4	923.45	44.7
1027.3122	3001.4611	921.9	43
1027.4241	3002.5215	919.75	39.05
1027.536	3003.5812	913.35	35
1027.6478	3004.6404	912.75	32.9
1027.7596	3005.6989	916	35.55
1027.8714	3006.7567	910.95	33.75
1027.9831	3007.8139	944.5	33.8
1028.0947	3008.8705	910.3	33.5
1028.2064	3009.9264	913.25	29.7
1028.3179	3010.9818	909.5	32.65
1028.4295	3012.0364	909.9	31.05
1028.541	3013.0905	908.7	30.55
1028.6524	3014.1439	909.15	30.65
1028.7638	3015.1966	904.7	27.15
1028.8752	3016.2487	906.15	28.85
1028.9865	3017.3002	908.35	25.1
1029.0978	3018.3511	906.95	30.45
1029.209	3019.4013	904.6	27.5
1029.3202	3020.4509	905.85	27.6
1029.4314	3021.4998	905.35	25.45
1029.5425	3022.5481	905.15	23.95
1029.6535	3023.5958	906.8	28.15
1029.7645	3024.6428	907.45	27.8
1029.8755	3025.6892	906.15	30.05
1029.9864	3026.735	905.7	27.65
1030.0973	3027.7802	905.35	27.4
1030.2082	3028.8247	905.95	26.15
1030.319	3029.8685	906.45	27.25
1030.4297	3030.9118	906.75	25.75
1030.5404	3031.9544	903.45	25.3
1030.6511	3032.9963	901.2	24.2
1030.7617	3034.0376	904.9	25.45
1030.8723	3035.0783	905.05	25.8
1030.9829	3036.1184	905.55	27.05
1031.0934	3037.1578	901.4	22.35
1031.2038	3038.1966	907.55	27.95
1031.3142	3039.2348	904.95	29.5
1031.4246	3040.2723	913.35	25.9
1031.5349	3041.3092	903.55	25.85
1031.6452	3042.3455	905	25.7
1031.7554	3043.3811	906.5	28.35
1031.8656	3044.4161	906.15	26.35
1031.9758	3045.4505	904.9	28.4
1032.0859	3046.4842	904.35	23.4
1032.1959	3047.5173	905.05	28.2
1032.3059	3048.5498	904.1	25.5
1032.4159	3049.5816	906.45	27.35
1032.5258	3050.6128	906.45	27.1
1032.6357	3051.6434	907.85	28.75
1032.7455	3052.6734	907.2	28.65
1032.8553	3053.7027	908	29
1032.9651	3054.7314	906.1	30.15
1033.0748	3055.7594	904.5	25.6
1033.1845	3056.7868	905.85	27.4
1033.2941	3057.8136	906.95	29.85
1033.4037	3058.8398	906.85	29.8
1033.5132	3059.8653	903.2	25.4
1033.6227	3060.8902	909.15	29.85
1033.7321	3061.9145	908.4	30.9
1033.8415	3062.9381	908.2	31.1
1033.9509	3063.9612	924.15	28.45
1034.0602	3064.9835	907.15	30.15
1034.1694	3066.0053	911.55	30.85
1034.2787	3067.0264	907.2	31.1
1034.3878	3068.0469	909.05	28.85
1034.497	3069.0668	909.05	28.9
1034.6061	3070.086	906.25	29.4
1034.7151	3071.1046	902.5	23.1
1034.8241	3072.1226	906.9	28.55
1034.9331	3073.1399	905.15	27.8
1035.042	3074.1567	908.2	29.85
1035.1508	3075.1727	909.6	28.85
1035.2597	3076.1882	905.65	27.4
1035.3684	3077.203	902.5	23.3
1035.4772	3078.2173	904.25	25.3
1035.5859	3079.2308	904.1	22.6
1035.6945	3080.2438	900.75	20.95
1035.8031	3081.2561	901.85	24.4
1035.9117	3082.2678	902.05	24
1036.0202	3083.2789	901.45	22.45
1036.1286	3084.2893	901.2	22.3
1036.2371	3085.2991	899.6	22.05
1036.3454	3086.3083	904.15	23.4
1036.4538	3087.3169	901.85	20
1036.562	3088.3248	901.6	21.8
1036.6703	3089.3321	900.65	19.8
1036.7785	3090.3388	897	20.65
1036.8866	3091.3449	898.85	20.1
1036.9948	3092.3503	899.8	20.05
1037.1028	3093.3551	896.65	19.75
1037.2108	3094.3593	897.6	19.5
1037.3188	3095.3629	895.75	18.65
1037.4267	3096.3658	899.15	21.7
1037.5346	3097.3681	896.8	17.25
1037.6425	3098.3698	898.7	19.3
1037.7503	3099.3708	896.7	17.25
1037.858	3100.3713	895.45	18.6
1037.9657	3101.3711	895.7	14.9
1038.0734	3102.3702	1029.7	16.6
1038.181	3103.3688	895.5	15
1038.2886	3104.3667	892.65	16.25
1038.3961	3105.364	893.55	14.35
1038.5036	3106.3607	897.35	17.7
1038.611	3107.3568	895.95	17.9
1038.7184	3108.3522	892.6	15.45
1038.8257	3109.347	894.1	14.7
1038.933	3110.3412	897.1	14.15
1039.0403	3111.3348	892.8	15.9
1039.1475	3112.3277	893.1	14.7
1039.2547	3113.32	891.4	14.6
1039.3618	3114.3117	891.7	12.35
1039.4689	3115.3028	892.85	15.4
1039.5759	3116.2932	894.6	15.55
1039.6829	3117.2831	899.8	15.2
1039.7898	3118.2723	892.85	15.35
1039.8967	3119.2608	892.85	14.25
1040.0035	3120.2488	892.35	13.45
1040.1103	3121.2361	892.15	12.9
1040.2171	3122.2229	892.9	13.2
1040.3238	3123.209	893.3	16.05
1040.4305	3124.1944	890.55	12.85
1040.5371	3125.1793	892.55	12.15
1040.6437	3126.1635	890.25	12.15
1040.7502	3127.1471	891.15	14.2
1040.8567	3128.1301	890.15	11.55
1040.9631	3129.1125	889.8	13.25
1041.0695	3130.0942	889.6	10.7
1041.1759	3131.0753	898.65	11.75
1041.2822	3132.0558	892.3	10
1041.3884	3133.0357	890.05	11.05
1041.4946	3134.015	889.4	10.05
1041.6008	3134.9936	892.65	12.25
1041.7069	3135.9716	909.4	12.55
1041.813	3136.949	889.85	11.9
1041.919	3137.9258	909.05	12.95
1042.025	3138.902	895.05	9.75
1042.1309	3139.8775	889.65	11.1
1042.2368	3140.8524	888.45	10.6
1042.3427	3141.8267	889.85	9.85
1042.4485	3142.8004	886.9	8.15
1042.5542	3143.7735	894.4	12.1
1042.6599	3144.7459	892.7	10.2
1042.7656	3145.7178	892.3	13.5
1042.8712	3146.689	889.05	11.35
1042.9768	3147.6596	889.5	8.8
1043.0823	3148.6295	887.4	9.7
1043.1878	3149.5989	887.35	8.55
1043.2932	3150.5676	889.7	13.55
1043.3986	3151.5357	887.85	10.55
1043.5039	3152.5032	887.45	10.55
1043.6092	3153.4701	887.15	12.3
1043.7145	3154.4364	890.95	9.45
1043.8197	3155.402	887.45	12.75
1043.9248	3156.367	890.1	9.5
1044.03	3157.3315	932.25	9.5
1044.135	3158.2952	888.05	9.65
1044.24	3159.2584	887.75	10.9
1044.345	3160.221	886.55	7.4
1044.4499	3161.1829	887.55	9.9
1044.5548	3162.1442	886.85	8.65
1044.6596	3163.105	886.85	8.35
1044.7644	3164.065	888.45	12.45
1044.8692	3165.0245	889.45	7.55
1044.9739	3165.9834	886.15	9.7
1045.0785	3166.9416	886.7	7.75
1045.1831	3167.8993	886.4	9.75
1045.2877	3168.8563	887.15	8.2
1045.3922	3169.8127	887.6	10
1045.4966	3170.7684	886.65	8.5
1045.6011	3171.7236	887.15	6.35
1045.7054	3172.6782	890.6	13.1
1045.8098	3173.6321	887.7	8.2
1045.914	3174.5854	890.75	8.65
1046.0183	3175.5381	886.75	9.25
1046.1224	3176.4902	886.6	8.45
1046.2266	3177.4417	886.55	9.4
1046.3307	3178.3926	886.05	9.15
1046.4347	3179.3428	886.45	9.65
1046.5387	3180.2924	884.3	7.9
1046.6427	3181.2415	885.5	7.15
1046.7466	3182.1899	888.4	9
1046.8504	3183.1377	887.5	8.15
1046.9542	3184.0848	889.7	7.95
1047.058	3185.0314	888.1	10.8
1047.1617	3185.9773	887.05	7.35
1047.2654	3186.9227	885	8.6
1047.369	3187.8674	886.8	8.7
1047.4726	3188.8115	889.4	7.1
1047.5761	3189.755	885	7.2
1047.6796	3190.6979	885.7	8.65
1047.783	3191.6402	884.6	8.55
1047.8864	3192.5818	885.6	7.45
1047.9898	3193.5229	910.1	5.65
1048.0931	3194.4633	887.45	10.3
1048.1963	3195.4031	886.55	8.6
1048.2995	3196.3423	885.05	6.85
1048.4027	3197.2809	884.65	8.55
1048.5058	3198.2189	885.6	7.7
1048.6089	3199.1563	892.3	6.05
1048.7119	3200.0931	884.3	7.9
1048.8148	3201.0292	883.25	5.2
1048.9178	3201.9648	884.1	5.35
1049.0206	3202.8997	887.1	5.55
1049.1235	3203.834	885.85	8.7
1049.2262	3204.7677	882.85	5.25
1049.329	3205.7008	886.15	8
1049.4317	3206.6333	883.5	6.35
1049.5343	3207.5652	886.75	6.3
1049.6369	3208.4964	884.9	5.95
1049.7394	3209.4271	882.25	5.85
1049.8419	3210.3571	884.55	7.3
1049.9444	3211.2865	885.55	6.65
1050.0468	3212.2154	885	6.2
1050.1491	3213.1436	885.8	5.3
1050.2514	3214.0712	891.35	7.15
1050.3537	3214.9982	885.8	8.6
1050.4559	3215.9246	884.1	6.5
1050.5581	3216.8503	883.35	8.3
1050.6602	3217.7755	885.55	7.25
1050.7623	3218.7001	884.1	5.15
1050.8643	3219.624	886.35	6.1
1050.9663	3220.5473	884.8	7.4
1051.0682	3221.4701	885.2	7.75
1051.1701	3222.3922	884.55	3.25
1051.2719	3223.3137	884.05	6.95
1051.3737	3224.2346	885.3	7.55
1051.4754	3225.1549	884.3	9.25
1051.5771	3226.0746	884.65	8.85
1051.6788	3226.9937	883.7	5.55
1051.7804	3227.9121	884.1	6.85
1051.8819	3228.83	882.5	5.55
1051.9834	3229.7473	886.85	7.95
1052.0849	3230.6639	884.2	6.2
1052.1863	3231.5799	885.65	7.75
1052.2876	3232.4954	884	6.15
1052.3889	3233.4102	884.15	6.35
1052.4902	3234.3244	883.35	5.65
1052.5914	3235.238	885.1	9.5
1052.6926	3236.151	906.8	7.25
1052.7937	3237.0634	882.05	7.35
1052.8948	3237.9752	882.25	3.95
1052.9958	3238.8864	885.35	7.15
1053.0968	3239.797	882.2	4.7
1053.1977	3240.7069	884.9	6.6
1053.2986	3241.6163	884.05	2.9
1053.3994	3242.5251	883.85	7.45
1053.5002	3243.4332	882.85	5.35
1053.6009	3244.3408	884.65	7.15
1053.7016	3245.2477	883.1	5.75
1053.8022	3246.154	885.95	5.95
1053.9028	3247.0598	883.15	5.95
1054.0034	3247.9649	885.5	9.5
1054.1039	3248.8694	880.9	3.05
1054.2043	3249.7733	883.2	6.85
1054.3047	3250.6766	880.15	1.6
1054.4051	3251.5793	881.6	4.1
1054.5054	3252.4814	883.2	4.85
1054.6056	3253.3829	881.3	3.95
1054.7058	3254.2838	882.7	4.45
1054.806	3255.1841	882.25	5.05
1054.9061	3256.0838	883.75	7.8
1055.0061	3256.9829	880	4.1
1055.1062	3257.8814	884.65	4.75
1055.2061	3258.7792	881.9	1.75
1055.306	3259.6765	883.65	4.8
1055.4059	3260.5731	883.15	4.7
1055.5057	3261.4692	882.65	3.65
1055.6055	3262.3647	885.4	7.6
1055.7052	3263.2595	885	8.75
1055.8049	3264.1538	881.75	4.4
1055.9045	3265.0474	882.1	4.1
1056.0041	3265.9404	881.05	3.9
1056.1036	3266.8329	881.75	3.9
1056.2031	3267.7247	890.5	3.3
1056.3025	3268.616	879.8	4.85
1056.4019	3269.5066	881.05	3.75
1056.5013	3270.3966	883.6	3.75
1056.6005	3271.286	878.85	4.1
