Software Version:	3.9.2.0
Unit SN:	10000200
Spectrometer SN:	6960
Date:	3/8/2024 12:04:29 PM
Data Line Index:	25
Spectral Points:	2048
Integration time (ms):	125
Averages:	20
Delay (ms):	30000
Sequence Number:	1
Processing:	dark subtract
Laser Power (mW):	305
Laser Current (mA):	823
Laser Diode Temp (C):	25
Laser Case Temp (C):	25.6
System Temp (C):	25.6
Spectrometer Temp (C):	23.3
CCD Temp (C):	0.007
Secondary Temp (C):	20.004
Heatsink Temp (C):	20.411
CCDPCB Temp (C):	34.406
SecondaryPCB Temp (C):	28.504

Wavelength	RamanShift	Raw Counts	Dark Subtracted
787.061	30.1047	417.4	8.2
787.2016	32.3739	412.55	4.45
787.3422	34.6426	415.2	5.55
787.4828	36.9109	419.35	7.05
787.6235	39.1787	422.1	8.05
787.7642	41.4461	426.8	8.1
787.9049	43.7131	429.65	6.85
788.0456	45.9796	433.4	8.4
788.1863	48.2456	438	9.3
788.3271	50.5112	442.05	8.55
788.4679	52.7764	446.2	9.15
788.6087	55.0411	450.4	8.95
788.7496	57.3054	455.8	9.8
788.8904	59.5692	457	9.6
789.0313	61.8326	464.2	17.45
789.1722	64.0955	467.1	15.25
789.3132	66.3579	474.65	16.6
789.4541	68.6199	479.65	17.75
789.5951	70.8815	492.3	26.2
789.7361	73.1426	509.95	40.2
789.8771	75.4032	542.55	70.6
790.0181	77.6634	615.1	138.45
790.1592	79.9231	787.35	304.35
790.3003	82.1824	1142.6	648.95
790.4414	84.4412	1731.35	1220.4
790.5825	86.6995	2460.5	1929.25
790.7237	88.9574	3173.7	2623.15
790.8648	91.2148	3642.55	3076.7
791.006	93.4717	3856.3	3281.9
791.1472	95.7282	3860.85	3283.7
791.2885	97.9842	3844.55	3264.8
791.4297	100.2398	3789.95	3206.6
791.571	102.4949	3740.5	3157.65
791.7123	104.7495	3688.05	3100.15
791.8536	107.0036	3639.95	3048.25
791.9949	109.2573	3556.55	2968.3
792.1363	111.5105	3472	2879.25
792.2777	113.7632	3355.9	2762.35
792.4191	116.0154	3259.05	2655.15
792.5605	118.2672	3151.95	2552.95
792.7019	120.5185	3043.3	2443.25
792.8434	122.7693	2963.75	2363.15
792.9849	125.0197	2887.6	2279.2
793.1264	127.2696	2814.4	2204.35
793.2679	129.519	2796.15	2180.4
793.4094	131.7679	2756.05	2134.7
793.551	134.0163	2731.1	2114.45
793.6926	136.2642	2722.4	2100.55
793.8342	138.5117	2702.35	2072.05
793.9758	140.7587	2664.85	2038.5
794.1175	143.0052	2606.7	1976.65
794.2591	145.2512	2571.35	1942.25
794.4008	147.4967	2520.3	1889.5
794.5425	149.7417	2478.7	1844.9
794.6842	151.9863	2453.7	1814.15
794.826	154.2304	2448	1803.6
794.9677	156.4739	2438.1	1790.7
795.1095	158.717	2455.15	1808.15
795.2513	160.9596	2485.3	1826.45
795.3931	163.2017	2493.1	1836
795.535	165.4433	2500.8	1843
795.6768	167.6844	2484.3	1826.25
795.8187	169.925	2456	1793.4
795.9606	172.1651	2404.9	1739.05
796.1025	174.4047	2358.35	1688
796.2445	176.6439	2314.6	1645.65
796.3864	178.8825	2296	1619.55
796.5284	181.1206	2279.35	1601.2
796.6704	183.3582	2266.8	1585.05
796.8124	185.5954	2265	1582.95
796.9544	187.832	2278.65	1588.4
797.0965	190.0681	2264	1574
797.2386	192.3037	2281.25	1591.05
797.3806	194.5388	2284.5	1589.85
797.5228	196.7734	2279.5	1583.35
797.6649	199.0075	2305.15	1606.7
797.807	201.2411	2332.25	1629.85
797.9492	203.4742	2335.5	1633.25
798.0914	205.7068	2367.45	1661.65
798.2336	207.9389	2394.8	1686.6
798.3758	210.1704	2406.55	1707.8
798.518	212.4015	2390.35	1700.45
798.6603	214.632	2399.95	1715.05
798.8025	216.862	2402.1	1718.9
798.9448	219.0915	2405.05	1724.3
799.0871	221.3205	2423	1731.35
799.2294	223.549	2426.85	1742.15
799.3718	225.777	2413.65	1730.7
799.5141	228.0044	2429.8	1737
799.6565	230.2314	2411.4	1716.45
799.7989	232.4578	2397.95	1700.3
799.9413	234.6837	2382.7	1676.3
800.0837	236.909	2373.85	1664.4
800.2262	239.1339	2395.4	1662.45
800.3687	241.3582	2370.6	1654.6
800.5111	243.582	2386.4	1638.75
800.6536	245.8053	2396.3	1659.75
800.7961	248.0281	2398.65	1669.25
800.9387	250.2503	2395.1	1659.95
801.0812	252.472	2409.85	1674.05
801.2238	254.6932	2419.85	1687.05
801.3664	256.9139	2426.7	1690.05
801.509	259.134	2442.4	1701.45
801.6516	261.3536	2464.15	1728.3
801.7942	263.5727	2524.4	1782.9
801.9369	265.7912	2561.1	1821.9
802.0795	268.0092	2625.9	1883.5
802.2222	270.2267	2684.3	1944.35
802.3649	272.4436	2706.9	1964.1
802.5076	274.6601	2749.55	1995.05
802.6504	276.8759	2774.95	2025.05
802.7931	279.0913	2795.25	2047.4
802.9359	281.3061	2804.9	2054.35
803.0787	283.5204	2824.6	2070.85
803.2215	285.7341	2849.75	2091.95
803.3643	287.9473	2864.15	2107.85
803.5071	290.16	2870.65	2111.85
803.6499	292.3721	2820.8	2067.1
803.7928	294.5837	2793.4	2037.7
803.9357	296.7947	2788.6	2033.55
804.0786	299.0052	2763.9	2009.5
804.2215	301.2152	2755.2	1996.85
804.3644	303.4246	2732.6	1978.8
804.5074	305.6334	2703.3	1947.3
804.6503	307.8418	2689.45	1932.45
804.7933	310.0495	2657.9	1895.45
804.9363	312.2568	2630.3	1866.65
805.0793	314.4635	2582.05	1820
805.2223	316.6696	2531.75	1766.05
805.3653	318.8752	2501.85	1730.1
805.5084	321.0802	2466.35	1698.35
805.6514	323.2847	2464.1	1694.45
805.7945	325.4887	2479.05	1705.45
805.9376	327.692	2483.5	1708.8
806.0807	329.8949	2521.45	1746.05
806.2238	332.0972	2545.35	1771.5
806.367	334.2989	2579.75	1801.05
806.5101	336.5001	2560.6	1783.05
806.6533	338.7007	2523.15	1743.25
806.7965	340.9008	2493.8	1714.45
806.9397	343.1003	2443.7	1660.95
807.0829	345.2992	2396.8	1614.6
807.2261	347.4976	2353.85	1569.45
807.3693	349.6955	2328.9	1542.95
807.5126	351.8927	2315.35	1527.9
807.6559	354.0895	2303.55	1502.95
807.7991	356.2856	2300.45	1506.8
807.9424	358.4812	2271.5	1476.7
808.0857	360.6763	2271.4	1479.35
808.2291	362.8707	2272.35	1475.05
808.3724	365.0646	2289.4	1491.75
808.5158	367.258	2301.15	1503.05
808.6591	369.4508	2309.95	1505.65
808.8025	371.643	2334.8	1534.1
808.9459	373.8346	2367.7	1564.25
809.0893	376.0257	2406.45	1599.7
809.2327	378.2162	2412.65	1609.25
809.3762	380.4062	2410.95	1607.65
809.5196	382.5956	2388.4	1586.4
809.6631	384.7844	2351.1	1555.15
809.8066	386.9726	2311.05	1515.45
809.9501	389.1603	2287.6	1490.8
810.0936	391.3474	2313.85	1484.3
810.2371	393.5339	2282.9	1486.9
810.3806	395.7199	2289	1493.5
810.5241	397.9052	2326.1	1527.6
810.6677	400.09	2363.25	1562.2
810.8113	402.2743	2394.05	1594
810.9548	404.4579	2434.45	1632.45
811.0984	406.641	2480.15	1677.3
811.2421	408.8235	2513.25	1709.35
811.3857	411.0054	2563.55	1755.6
811.5293	413.1868	2614.05	1797.4
811.673	415.3675	2672.15	1853.7
811.8166	417.5477	2667.75	1852.05
811.9603	419.7273	2609.95	1794
812.104	421.9064	2529.55	1709.85
812.2477	424.0848	2481.7	1667
812.3914	426.2627	2412.8	1596.85
812.5351	428.4399	2361.65	1543.9
812.6788	430.6166	2309.25	1486.2
812.8226	432.7928	2262.45	1437.65
812.9663	434.9683	2219.5	1395.9
813.1101	437.1432	2192.95	1368.2
813.2539	439.3176	2175	1357.9
813.3977	441.4914	2152	1332
813.5415	443.6645	2169.25	1345.65
813.6853	445.8371	2150.35	1328.5
813.8291	448.0091	2164.7	1342.15
813.973	450.1806	2154.1	1335.45
814.1168	452.3514	2151.8	1329.95
814.2607	454.5216	2153.3	1321.5
814.4046	456.6913	2150.75	1325.3
814.5485	458.8603	2165.6	1339.75
814.6924	461.0288	2168.7	1348
814.8363	463.1967	2160.3	1339.4
814.9802	465.3639	2171.25	1346.25
815.1241	467.5306	2147.4	1319.95
815.2681	469.6967	2143.95	1318.6
815.412	471.8622	2122.95	1300.2
815.556	474.0271	2129.05	1304.6
815.7	476.1914	2136.55	1304.9
815.844	478.3551	2130.45	1302.95
815.988	480.5182	2132	1306.4
816.132	482.6807	2142.65	1318.7
816.276	484.8426	2155.5	1332.5
816.4201	487.0039	2188.05	1362.9
816.5641	489.1647	2237.85	1405.95
816.7082	491.3248	2291.75	1463.75
816.8522	493.4843	2307.2	1476.65
816.9963	495.6432	2291.7	1464.15
817.1404	497.8015	2269.4	1433.35
817.2845	499.9592	2224.45	1387.85
817.4286	502.1163	2181.15	1339.95
817.5727	504.2728	2132.5	1296.05
817.7168	506.4287	2108.95	1276.5
817.861	508.5839	2093.5	1261.6
818.0051	510.7386	2097.8	1263.55
818.1493	512.8927	2097.95	1260.4
818.2935	515.0461	2117.4	1277.25
818.4377	517.199	2117.1	1278.35
818.5818	519.3512	2156.85	1316.35
818.726	521.5029	2228.05	1385.7
818.8703	523.6539	2268.4	1427.2
819.0145	525.8043	2277.45	1436
819.1587	527.9541	2228.1	1383.45
819.303	530.1033	2173.9	1330.95
819.4472	532.2519	2122.4	1278.95
819.5915	534.3999	2111.8	1264.5
819.7357	536.5472	2099.7	1254.6
819.88	538.694	2104.9	1260.35
820.0243	540.8401	2112.65	1266.85
820.1686	542.9856	2132.65	1284.05
820.3129	545.1305	2147.95	1298.45
820.4572	547.2748	2157.15	1305.5
820.6016	549.4185	2160.5	1306.1
820.7459	551.5615	2165.6	1314
820.8902	553.704	2181.2	1328
821.0346	555.8458	2208.2	1357.55
821.1789	557.987	2221.75	1370.65
821.3233	560.1276	2253.65	1398.7
821.4677	562.2675	2297.95	1448.85
821.6121	564.4069	2359.25	1508.95
821.7565	566.5456	2396.55	1549.6
821.9009	568.6837	2385.45	1534.55
822.0453	570.8212	2313.05	1464.45
822.1897	572.958	2255.5	1404.3
822.3342	575.0942	2196.1	1348.15
822.4786	577.2299	2162.15	1311.35
822.6231	579.3648	2136.45	1292.4
822.7675	581.4992	2100.1	1258.25
822.912	583.6329	2118.6	1278.45
823.0565	585.766	2150.3	1308.3
823.201	587.8985	2204.4	1356.9
823.3454	590.0304	2249.55	1382.95
823.4899	592.1616	2262.6	1408.85
823.6345	594.2922	2259.55	1401.9
823.779	596.4222	2212	1354.85
823.9235	598.5515	2165.8	1306.55
824.068	600.6802	2105.05	1249.8
824.2126	602.8083	2075.75	1221.55
824.3571	604.9358	2070.3	1211.9
824.5017	607.0626	2068.85	1209.65
824.6462	609.1888	2086.55	1223.5
824.7908	611.3144	2113.25	1250
824.9354	613.4393	2148	1286.2
825.08	615.5636	2195.3	1332.45
825.2246	617.6873	2240.1	1378.15
825.3692	619.8103	2256.7	1391.4
825.5138	621.9327	2243.1	1379.7
825.6584	624.0544	2217.95	1360.5
825.803	626.1756	2156.65	1294.65
825.9477	628.2961	2117.2	1253.8
826.0923	630.4159	2103.4	1240.25
826.237	632.5351	2096.6	1233
826.3816	634.6537	2080.45	1216.2
826.5263	636.7716	2081.75	1211.65
826.6709	638.8889	2072.6	1204
826.8156	641.0056	2077.15	1208.35
826.9603	643.1216	2078.3	1209.2
827.105	645.237	2083.4	1215.55
827.2497	647.3518	2066.45	1200.55
827.3944	649.4659	2043.4	1183.75
827.5391	651.5793	2027.9	1164.8
827.6838	653.6922	2011.1	1149.75
827.8285	655.8043	1996.7	1133
827.9733	657.9159	1991.65	1123.45
828.118	660.0268	1982.95	1115.4
828.2627	662.137	1987.7	1120.2
828.4075	664.2466	1986.45	1114.75
828.5522	666.3556	1991.05	1119.45
828.697	668.4639	1969	1098.15
828.8418	670.5716	1966.85	1101.05
828.9865	672.6786	1973.15	1100.8
829.1313	674.785	1954.35	1081.45
829.2761	676.8907	1951.75	1081.5
829.4209	678.9958	1949.9	1083
829.5657	681.1002	1952.35	1082.45
829.7105	683.204	1958.9	1080.55
829.8553	685.3072	1945.7	1069.35
830.0001	687.4097	1947.3	1074.4
830.1449	689.5115	1948.1	1071.5
830.2898	691.6127	1944.35	1071.1
830.4346	693.7132	1945.4	1071.4
830.5794	695.8131	1969.15	1076.15
830.7243	697.9123	1956.35	1083.05
830.8691	700.0109	1962.8	1087.25
831.014	702.1089	1963.45	1089.35
831.1588	704.2061	1988.4	1113.9
831.3037	706.3028	2012.8	1136.25
831.4486	708.3987	2017.5	1142.3
831.5935	710.4941	2033.65	1159.7
831.7383	712.5887	2046.1	1168.6
831.8832	714.6827	2044.05	1162.8
832.0281	716.7761	2029	1154.45
832.173	718.8688	2031.15	1155.85
832.3179	720.9608	2037.95	1155.3
832.4628	723.0522	2054.85	1166.4
832.6077	725.1429	2067.7	1188.25
832.7527	727.233	2115.65	1235.2
832.8976	729.3224	2170.75	1293.5
833.0425	731.4112	2211.65	1333
833.1874	733.4993	2212.65	1329.6
833.3324	735.5867	2160.45	1279.15
833.4773	737.6735	2098.75	1214.75
833.6222	739.7596	2043.85	1162.15
833.7672	741.845	2030	1151.45
833.9122	743.9298	2033.05	1152.95
834.0571	746.014	2015.7	1136.85
834.2021	748.0974	2028.7	1143
834.347	750.1802	2032	1147.65
834.492	752.2624	2029.45	1148.35
834.637	754.3439	2020.15	1135.6
834.782	756.4247	2017.7	1122.5
834.9269	758.5048	2009.9	1128.2
835.0719	760.5843	2032.45	1146.55
835.2169	762.6631	2067.05	1181.35
835.3619	764.7413	2120.65	1238.5
835.5069	766.8188	2207.2	1321.15
835.6519	768.8956	2284.7	1399.2
835.7969	770.9718	2332.3	1446.5
835.9419	773.0473	2330.2	1447.3
836.0869	775.1221	2301	1419
836.232	777.1962	2298.65	1414.6
836.377	779.2697	2349.3	1461.3
836.522	781.3426	2446.45	1540.3
836.667	783.4147	2472.05	1584.05
836.8121	785.4862	2464.7	1576.85
836.9571	787.557	2379.05	1489.6
837.1021	789.6271	2252.75	1366
837.2472	791.6966	2136.45	1250.2
837.3922	793.7654	2050.85	1160.55
837.5373	795.8335	2009.3	1123.95
837.6823	797.901	1976.1	1087.9
837.8274	799.9678	1972.9	1080.4
837.9724	802.0339	1965	1079.5
838.1175	804.0993	1979.3	1081.1
838.2626	806.1641	1962.15	1070.65
838.4076	808.2282	1955.25	1069.3
838.5527	810.2916	1930.7	1039.2
838.6978	812.3544	1913.5	1027.25
838.8428	814.4164	1896.1	1008.75
838.9879	816.4778	1909.9	1020.35
839.133	818.5385	1928.45	1038.1
839.2781	820.5986	1955.4	1065.4
839.4232	822.658	2006.75	1115.05
839.5682	824.7166	2063.2	1172.3
839.7133	826.7747	2145.85	1254.25
839.8584	828.832	2221.65	1331.6
840.0035	830.8886	2283.1	1390.6
840.1486	832.9446	2298.1	1405.4
840.2937	834.9999	2262.25	1370.7
840.4388	837.0545	2185.65	1290.25
840.5839	839.1085	2116.4	1222.35
840.729	841.1618	2051.35	1155.5
840.8741	843.2143	1998.2	1106.9
841.0192	845.2662	1969.05	1073.95
841.1643	847.3175	1956.15	1065.5
841.3095	849.368	1940.1	1047.25
841.4546	851.4179	1936.65	1044.85
841.5997	853.467	1938.9	1047.25
841.7448	855.5155	1942.55	1049.7
841.8899	857.5633	1941	1049
842.0351	859.6105	1934.6	1039.35
842.1802	861.6569	1925.85	1031.8
842.3253	863.7027	1915.95	1020.8
842.4704	865.7478	1908.4	1015.75
842.6156	867.7922	1891	999.25
842.7607	869.8359	1884.55	989.15
842.9058	871.8789	1885.85	991.7
843.0509	873.9212	1911	983.1
843.1961	875.9629	1895.15	1000.1
843.3412	878.0039	1915.9	1021.75
843.4863	880.0441	1913.5	1022.7
843.6315	882.0837	1944.65	1051.85
843.7766	884.1226	1967.1	1069.8
843.9218	886.1609	1997.6	1102.1
844.0669	888.1984	2046.4	1151.9
844.212	890.2352	2080.75	1186.75
844.3572	892.2714	2081.4	1182.3
844.5023	894.3069	2053	1155
844.6475	896.3416	2014.2	1116.1
844.7926	898.3757	1968.7	1072.35
844.9377	900.4091	1962.5	1066.2
845.0829	902.4418	1967.8	1065.7
845.228	904.4739	1976	1076.75
845.3732	906.5052	1985.45	1089
845.5183	908.5358	1974.85	1079.3
845.6635	910.5658	1952.75	1055.7
845.8086	912.595	1915.85	1016.15
845.9538	914.6236	1884.45	985.35
846.0989	916.6515	1864.85	968
846.2441	918.6786	1843.95	944.3
846.3892	920.7051	1837.15	936.7
846.5344	922.7309	1838.05	937.75
846.6795	924.756	1842.9	942.55
846.8246	926.7804	1850.2	953.7
846.9698	928.8041	1853.55	951.85
847.1149	930.8272	1878.05	978.3
847.2601	932.8495	1883.4	982.6
847.4052	934.8711	1876.9	975.85
847.5504	936.892	1886.15	986.3
847.6955	938.9123	1905.35	1004.5
847.8407	940.9318	1933.1	1031.25
847.9858	942.9506	1935.25	1037.15
848.131	944.9688	1933.95	1036.9
848.2761	946.9862	1906.15	1008.95
848.4213	949.003	1870.55	969.6
848.5664	951.019	1856.7	956.75
848.7115	953.0344	1839.15	939.75
848.8567	955.0491	1827.15	923.65
849.0018	957.063	1818.25	918.95
849.147	959.0763	1820.7	922.2
849.2921	961.0888	1822.65	921
849.4373	963.1007	1817.5	918
849.5824	965.1119	1812.45	916.8
849.7275	967.1223	1803.2	910.25
849.8727	969.1321	1800.05	908.15
850.0178	971.1412	1798.35	905
850.1629	973.1495	1790.65	895.15
850.3081	975.1572	1818.05	883.4
850.4532	977.1641	1799.7	899.15
850.5983	979.1704	1789.05	888.6
850.7435	981.1759	1789.2	885.4
850.8886	983.1808	1781.55	876.8
851.0337	985.1849	1790.15	879.75
851.1788	987.1884	1772.45	870.25
851.324	989.1911	1782.35	883.95
851.4691	991.1932	1796.4	896.9
851.6142	993.1945	1788.4	887.8
851.7593	995.1951	1783.6	881.65
851.9045	997.1951	1789.9	882.05
852.0496	999.1943	1781.25	879.55
852.1947	1001.1928	1786.7	881.55
852.3398	1003.1906	1794.1	890.35
852.4849	1005.1877	1814.7	914
852.63	1007.1841	1835.75	935.45
852.7751	1009.1798	1839.05	940.15
852.9202	1011.1748	1833.8	934.35
853.0653	1013.1691	1818.95	918.8
853.2104	1015.1627	1786.05	882.1
853.3555	1017.1556	1761.6	862.4
853.5006	1019.1477	1738.9	837.75
853.6457	1021.1392	1720.6	822.3
853.7908	1023.1299	1717.6	820.7
853.9359	1025.12	1706.65	809.8
854.081	1027.1093	1717.35	827.1
854.2261	1029.0979	1734.55	846.6
854.3712	1031.0859	1756.75	866.05
854.5163	1033.0731	1760.25	864.95
854.6613	1035.0596	1772.95	874.65
854.8064	1037.0454	1768.4	870
854.9515	1039.0304	1751.45	852
855.0965	1041.0148	1732.65	833.15
855.2416	1042.9985	1718.25	818.85
855.3867	1044.9814	1700.25	800.1
855.5317	1046.9636	1702.4	799.5
855.6768	1048.9452	1708.35	806.75
855.8219	1050.926	1727.75	827.55
855.9669	1052.9061	1733.95	836.1
856.112	1054.8855	1743.7	840.6
856.257	1056.8642	1740.9	840.9
856.4021	1058.8421	1741.35	839.2
856.5471	1060.8194	1742.85	841.75
856.6921	1062.7959	1733.7	831.6
856.8372	1064.7717	1727.7	825.95
856.9822	1066.7469	1735.15	830.35
857.1272	1068.7213	1744.95	838.9
857.2723	1070.695	1761.6	858.25
857.4173	1072.6679	1771.75	866.8
857.5623	1074.6402	1788.4	885.3
857.7073	1076.6117	1802.35	895.95
857.8523	1078.5826	1767.35	864.5
857.9973	1080.5527	1740.5	837.65
858.1423	1082.5221	1710.7	807.85
858.2873	1084.4908	1683.95	782.45
858.4323	1086.4587	1671.85	768.4
858.5773	1088.426	1670.15	765.45
858.7223	1090.3925	1676.25	770.4
858.8673	1092.3584	1675.1	772.7
859.0123	1094.3235	1689.45	788.3
859.1573	1096.2879	1700.6	798.15
859.3022	1098.2515	1725.9	825.65
859.4472	1100.2145	1743.8	842.05
859.5922	1102.1767	1780.75	875.5
859.7371	1104.1382	1824.35	923.55
859.8821	1106.099	1871.6	968.55
860.027	1108.0591	1905.35	1006.6
860.172	1110.0185	1947.2	1042.1
860.3169	1111.9771	1986.9	1082.4
860.4619	1113.9351	2035.05	1132.7
860.6068	1115.8923	2080.45	1176.95
860.7517	1117.8488	2084.15	1179.85
860.8967	1119.8045	2036.6	1135.1
861.0416	1121.7596	1956.35	1051.1
861.1865	1123.7139	1869.85	968.85
861.3314	1125.6675	1816.55	916.1
861.4763	1127.6204	1820.05	919.1
861.6212	1129.5726	1835.25	930.45
861.7661	1131.524	1842	938.8
861.911	1133.4748	1788.7	884.25
862.0559	1135.4248	1741.5	837.4
862.2008	1137.3741	1695.3	792.65
862.3457	1139.3226	1682.15	778.6
862.4905	1141.2705	1686.05	784.35
862.6354	1143.2176	1691.15	782.65
862.7803	1145.164	1695.1	792.1
862.9251	1147.1097	1695.5	791.65
863.07	1149.0546	1667.45	764.1
863.2148	1150.9989	1632	728.1
863.3597	1152.9424	1624.1	720.5
863.5045	1154.8852	1612.8	712.8
863.6493	1156.8272	1616	715.55
863.7942	1158.7686	1620.15	710.05
863.939	1160.7092	1611.35	707.3
864.0838	1162.6491	1622.1	716.25
864.2286	1164.5883	1634.2	732
864.3734	1166.5267	1651.95	748.8
864.5182	1168.4644	1668.75	764.3
864.663	1170.4014	1697.7	788.9
864.8078	1172.3377	1739.7	837.3
864.9526	1174.2732	1790.6	888.75
865.0974	1176.2081	1882.3	978.6
865.2421	1178.1421	1997.65	1092.6
865.3869	1180.0755	2090.7	1187.95
865.5317	1182.0082	2128.6	1227.4
865.6764	1183.9401	2093.4	1188.7
865.8212	1185.8713	1993.7	1095.8
865.9659	1187.8017	1881	984.25
866.1106	1189.7315	1804.85	911.6
866.2554	1191.6605	1752.55	829.35
866.4001	1193.5888	1695.2	797.95
866.5448	1195.5163	1667.25	766.1
866.6895	1197.4432	1652.8	748.7
866.8342	1199.3693	1639.05	738.55
866.9789	1201.2947	1627.85	721.15
867.1236	1203.2193	1625.15	722.3
867.2683	1205.1432	1623.55	719.85
867.413	1207.0664	1620.5	718.6
867.5576	1208.9889	1622	715.7
867.7023	1210.9106	1615.1	714.55
867.847	1212.8316	1626.7	726.15
867.9916	1214.7519	1641.3	731
868.1363	1216.6715	1647.55	743.8
868.2809	1218.5903	1661.1	757.45
868.4255	1220.5084	1678.05	776.35
868.5701	1222.4257	1688.35	784.4
868.7148	1224.3424	1690.05	791.1
868.8594	1226.2583	1716.1	813.4
869.004	1228.1735	1755.95	853.55
869.1486	1230.0879	1778.3	877.25
869.2932	1232.0016	1821.15	919.65
869.4377	1233.9146	1857.6	952.85
869.5823	1235.8269	1869.4	967.15
869.7269	1237.7384	1877.45	974.65
869.8715	1239.6492	1882.2	979.8
870.016	1241.5592	1902.6	999.8
870.1606	1243.4686	1934.35	1032.45
870.3051	1245.3772	2003.8	1101.25
870.4496	1247.285	2095.8	1192.6
870.5941	1249.1922	2179.8	1276.95
870.7387	1251.0986	2234	1332.5
870.8832	1253.0042	2305.2	1404.45
871.0277	1254.9092	2377.1	1474.7
871.1722	1256.8134	2433.5	1533.6
871.3167	1258.7169	2479.05	1576.45
871.4611	1260.6196	2499.2	1596.1
871.6056	1262.5216	2502	1597
871.7501	1264.4229	2472.6	1571.75
871.8945	1266.3234	2459	1556.55
872.039	1268.2232	2409.45	1505.75
872.1834	1270.1223	2373.35	1470.05
872.3278	1272.0207	2337.9	1434.85
872.4723	1273.9183	2329.45	1421.25
872.6167	1275.8151	2341.8	1439.45
872.7611	1277.7113	2390.5	1486.85
872.9055	1279.6067	2463.55	1564.7
873.0499	1281.5014	2598.8	1694.7
873.1943	1283.3953	2746.4	1842.15
873.3386	1285.2885	2887.9	1983.6
873.483	1287.181	2977.45	2074.3
873.6274	1289.0727	3022.65	2122.9
873.7717	1290.9637	2984.7	2081.45
873.9161	1292.854	2916.9	2016.55
874.0604	1294.7435	2822.35	1920.3
874.2047	1296.6323	2752.8	1850.05
874.349	1298.5204	2672.35	1766.8
874.4933	1300.4077	2622.45	1715.5
874.6376	1302.2943	2575	1672.35
874.7819	1304.1802	2546.3	1646
874.9262	1306.0653	2514.5	1606.15
875.0705	1307.9497	2470.95	1566.25
875.2147	1309.8333	2432.25	1529.7
875.359	1311.7162	2403.05	1498.9
875.5032	1313.5984	2370.85	1464.3
875.6475	1315.4798	2356.95	1441.6
875.7917	1317.3605	2342.85	1425.45
875.9359	1319.2405	2322.45	1418.15
876.0801	1321.1197	2281.6	1376.8
876.2243	1322.9982	2218.8	1311.1
876.3685	1324.876	2142.55	1238.5
876.5127	1326.753	2060.05	1157.25
876.6569	1328.6293	1990.4	1086.4
876.801	1330.5048	1924.7	1020.05
876.9452	1332.3796	1860.75	958.7
877.0893	1334.2537	1847.9	917
877.2335	1336.127	1789.95	886.85
877.3776	1337.9996	1777.5	876.15
877.5217	1339.8714	1746.7	843.9
877.6658	1341.7426	1780.45	834.1
877.8099	1343.6129	1733.8	829.35
877.954	1345.4826	1711.05	806.1
878.0981	1347.3515	1711.55	802.3
878.2422	1349.2196	1694.4	790.3
878.3862	1351.087	1681.85	776.6
878.5303	1352.9537	1683.75	777.7
878.6743	1354.8197	1692.65	787.3
878.8184	1356.6849	1698.3	796.05
878.9624	1358.5493	1708.55	808.55
879.1064	1360.4131	1729.6	826.5
879.2504	1362.276	1773.2	874.25
879.3944	1364.1383	1798.3	897
879.5384	1365.9998	1809.5	900.15
879.6823	1367.8606	1805.3	901.2
879.8263	1369.7206	1780.75	878.9
879.9702	1371.5799	1783.4	877.7
880.1142	1373.4384	1766.45	863.8
880.2581	1375.2962	1750.2	844.4
880.402	1377.1533	1686.7	783.5
880.5459	1379.0096	1650	746.9
880.6898	1380.8652	1614.05	709.85
880.8337	1382.7201	1589.65	688.1
880.9776	1384.5742	1578.4	675.25
881.1215	1386.4275	1559.5	656.35
881.2653	1388.2802	1544.85	643.8
881.4092	1390.132	1535.85	632.75
881.553	1391.9832	1523.5	619.1
881.6968	1393.8336	1512.9	608.7
881.8406	1395.6832	1504.65	598.9
881.9844	1397.5322	1504.55	603.3
882.1282	1399.3803	1495.2	585.45
882.272	1401.2278	1477.3	575.95
882.4158	1403.0745	1473.2	570.15
882.5595	1404.9204	1460.05	559.15
882.7033	1406.7656	1471.15	567.95
882.847	1408.6101	1468.45	564.15
882.9908	1410.4538	1465.95	561.95
883.1345	1412.2968	1460.6	556.7
883.2782	1414.139	1465.55	563.25
883.4219	1415.9805	1469.6	566.15
883.5656	1417.8213	1495.85	571.8
883.7092	1419.6613	1488.8	589.2
883.8529	1421.5006	1510.65	606.65
883.9965	1423.3391	1553.35	650.7
884.1402	1425.1769	1594.1	689.55
884.2838	1427.0139	1661.15	756.45
884.4274	1428.8502	1741.65	836.9
884.571	1430.6858	1791.35	887.25
884.7146	1432.5206	1818.75	916.65
884.8582	1434.3547	1817	915.35
885.0018	1436.188	1788.65	885.45
885.1453	1438.0206	1785.1	880.95
885.2889	1439.8524	1772.5	867.75
885.4324	1441.6835	1757.3	855.1
885.5759	1443.5139	1767.9	861.75
885.7194	1445.3435	1767.05	863.55
885.8629	1447.1724	1768.6	865.75
886.0064	1449.0005	1771.35	872.05
886.1499	1450.8279	1763.85	861.85
886.2933	1452.6545	1757.2	857.2
886.4368	1454.4804	1750.7	850.4
886.5802	1456.3056	1756.55	848.3
886.7237	1458.13	1726.65	825.1
886.8671	1459.9536	1705.5	802.7
887.0105	1461.7766	1678.9	776.9
887.1539	1463.5987	1639.9	736.25
887.2972	1465.4202	1603.45	702.7
887.4406	1467.2409	1576.7	674.5
887.584	1469.0608	1549.75	648.65
887.7273	1470.88	1515.95	614
887.8706	1472.6984	1494.15	593.9
888.0139	1474.5161	1480.55	576.3
888.1572	1476.3331	1470.7	569.75
888.3005	1478.1493	1462.3	557.2
888.4438	1479.9648	1452.4	550.35
888.5871	1481.7795	1444.5	543.5
888.7303	1483.5935	1452.65	550.35
888.8736	1485.4067	1445.05	543.6
889.0168	1487.2192	1451.55	548
889.16	1489.031	1455.15	549.35
889.3032	1490.842	1450.55	548.95
889.4464	1492.6522	1452.5	550.05
889.5896	1494.4618	1444.9	542.75
889.7327	1496.2705	1442.2	541.1
889.8759	1498.0785	1437.95	538.2
890.019	1499.8858	1424.55	520.75
890.1622	1501.6924	1420.25	519.3
890.3053	1503.4981	1413.85	513.15
890.4484	1505.3032	1408.4	506.45
890.5914	1507.1075	1403.65	502.2
890.7345	1508.911	1399.2	497.25
890.8776	1510.7138	1391.15	490.05
891.0206	1512.5159	1385.45	487.15
891.1637	1514.3172	1377.75	478.05
891.3067	1516.1178	1370.05	470.3
891.4497	1517.9176	1371.45	467.65
891.5927	1519.7166	1370.4	469.65
891.7357	1521.515	1364.6	458.4
891.8786	1523.3126	1354.35	452
892.0216	1525.1094	1353.05	452.7
892.1645	1526.9055	1341.8	444.6
892.3074	1528.7008	1349.15	449.15
892.4503	1530.4954	1344.2	437.4
892.5932	1532.2893	1330.45	435.05
892.7361	1534.0824	1342.8	438.1
892.879	1535.8747	1339.2	439.15
893.0218	1537.6663	1337.3	438.15
893.1647	1539.4572	1328.95	429.5
893.3075	1541.2473	1335.55	433.3
893.4503	1543.0367	1338.1	440.65
893.5931	1544.8253	1336.45	433.95
893.7359	1546.6132	1340.95	438.8
893.8787	1548.4003	1354.95	444.55
894.0214	1550.1867	1361.05	455.65
894.1642	1551.9723	1358.35	457
894.3069	1553.7572	1367.95	469.95
894.4496	1555.5414	1383.25	484.45
894.5923	1557.3247	1418.55	520
894.735	1559.1074	1437.9	542.2
894.8777	1560.8893	1476.75	578.8
895.0204	1562.6705	1501.8	606.6
895.163	1564.4509	1526.7	630.4
895.3056	1566.2305	1535.8	641.65
895.4482	1568.0094	1532.15	635.55
895.5908	1569.7876	1525.05	629.35
895.7334	1571.565	1531.35	635.4
895.876	1573.3417	1515.55	619.15
896.0186	1575.1176	1521.85	627.25
896.1611	1576.8928	1539.95	646.15
896.3036	1578.6672	1547.25	653.85
896.4461	1580.4409	1577.8	687.6
896.5886	1582.2138	1607.7	712.6
896.7311	1583.986	1637.35	743.1
896.8736	1585.7575	1664.75	770.9
897.0161	1587.5282	1686.7	793.55
897.1585	1589.2981	1713.7	823.05
897.3009	1591.0673	1722.2	827.05
897.4433	1592.8358	1739.6	846.35
897.5857	1594.6035	1733.55	838.1
897.7281	1596.3704	1731.1	834.25
897.8705	1598.1366	1718.5	823.35
898.0128	1599.9021	1701.65	808
898.1551	1601.6668	1685.45	790
898.2975	1603.4308	1685.3	789.3
898.4398	1605.194	1690.05	789.85
898.5821	1606.9564	1714.8	824.25
898.7243	1608.7182	1771.5	879.95
898.8666	1610.4791	1835.6	949
899.0088	1612.2394	1903.4	1017.9
899.1511	1613.9988	2001.05	1113.35
899.2933	1615.7576	2040.25	1149.55
899.4355	1617.5156	2046.1	1146.45
899.5776	1619.2728	2001.75	1108.6
899.7198	1621.0293	1933.5	1039.95
899.862	1622.785	1841.25	944.65
900.0041	1624.54	1730.95	838.7
900.1462	1626.2942	1636.3	745.35
900.2883	1628.0477	1561.9	668.95
900.4304	1629.8005	1494.35	600.35
900.5725	1631.5525	1440.75	549.1
900.7145	1633.3037	1406.45	516.45
900.8566	1635.0542	1366.85	476.15
900.9986	1636.804	1347.15	456.65
901.1406	1638.553	1396.4	436.25
901.2826	1640.3013	1300.85	409.3
901.4245	1642.0488	1294.9	401
901.5665	1643.7955	1279.65	390.9
901.7085	1645.5416	1268.35	378.25
901.8504	1647.2868	1256.3	365.65
901.9923	1649.0313	1258.7	365.7
902.1342	1650.7751	1259.5	364.8
902.2761	1652.5181	1239.75	351.55
902.4179	1654.2604	1253	363.65
902.5598	1656.0019	1259.15	368.9
902.7016	1657.7427	1265.55	371.8
902.8434	1659.4828	1288.2	393.8
902.9852	1661.222	1317.8	424.75
903.127	1662.9606	1342.6	451.05
903.2687	1664.6984	1359.95	466.5
903.4105	1666.4354	1357.75	465.35
903.5522	1668.1717	1325.6	431.2
903.6939	1669.9072	1288	392.15
903.8356	1671.642	1258.15	361.4
903.9773	1673.3761	1228.05	336.2
904.119	1675.1094	1200.3	307.85
904.2606	1676.8419	1189.95	298.2
904.4022	1678.5737	1184.45	291.6
904.5439	1680.3048	1172.5	280.35
904.6855	1682.0351	1165.05	272.45
904.827	1683.7646	1165.2	271.05
904.9686	1685.4934	1158.95	267.55
905.1101	1687.2215	1150.85	258.05
905.2517	1688.9488	1144.85	254.25
905.3932	1690.6754	1149.3	258.8
905.5347	1692.4012	1138.55	247.3
905.6761	1694.1263	1138.9	246.3
905.8176	1695.8506	1137.15	243.65
905.9591	1697.5742	1128.25	237.4
906.1005	1699.297	1128.8	237.3
906.2419	1701.0191	1132.95	242.3
906.3833	1702.7404	1127.85	237.1
906.5246	1704.461	1126.2	231.9
906.666	1706.1808	1126.7	233.4
906.8073	1707.8999	1122.5	229
906.9487	1709.6182	1115.85	225.75
907.09	1711.3358	1117.35	228.95
907.2313	1713.0527	1113	225.35
907.3725	1714.7688	1115.45	219.85
907.5138	1716.4841	1111.95	218.55
907.655	1718.1987	1119.35	223
907.7962	1719.9126	1107.95	218.35
907.9374	1721.6257	1112.85	224.7
908.0786	1723.338	1108.35	221.1
908.2198	1725.0496	1109.85	219.8
908.3609	1726.7605	1105.05	214.4
908.502	1728.4706	1109.6	220.45
908.6431	1730.18	1104.6	214.25
908.7842	1731.8886	1102.9	212
908.9253	1733.5964	1123.25	214.8
909.0664	1735.3036	1106.75	212.65
909.2074	1737.0099	1100.4	209
909.3484	1738.7156	1100	215.55
909.4894	1740.4204	1099.5	208.05
909.6304	1742.1246	1100.4	209.25
909.7714	1743.8279	1096.45	206.5
909.9123	1745.5306	1096.25	207
910.0532	1747.2325	1095.85	206.4
910.1941	1748.9336	1100.25	210.25
910.335	1750.634	1096.65	206.5
910.4759	1752.3336	1090.9	201.8
910.6168	1754.0325	1092.85	208
910.7576	1755.7307	1094.7	205.05
910.8984	1757.4281	1091.55	200.7
911.0392	1759.1247	1103.4	204.65
911.18	1760.8206	1104.2	211.7
911.3208	1762.5158	1100.8	206.8
911.4615	1764.2102	1094.6	206
911.6022	1765.9039	1097.15	208
911.7429	1767.5968	1084.15	194.55
911.8836	1769.289	1091.45	202.3
912.0243	1770.9804	1087.95	196.35
912.1649	1772.6711	1092.2	200.5
912.3056	1774.361	1091.75	198.7
912.4462	1776.0502	1089.6	199.75
912.5868	1777.7386	1093.7	199.8
912.7274	1779.4263	1088.2	198.85
912.8679	1781.1132	1088.1	200.4
913.0084	1782.7994	1085.55	196.5
913.149	1784.4849	1085.1	200
913.2895	1786.1696	1099.6	191.55
913.4299	1787.8535	1084	197.2
913.5704	1789.5367	1080.7	196.1
913.7108	1791.2192	1082.1	194.85
913.8513	1792.9009	1111.65	196.95
913.9917	1794.5818	1081.9	190.65
914.132	1796.2621	1081	192.25
914.2724	1797.9415	1078.55	189.6
914.4128	1799.6202	1075.05	185.3
914.5531	1801.2982	1078.8	187.9
914.6934	1802.9755	1078.95	188.8
914.8337	1804.6519	1078.7	187.9
914.9739	1806.3277	1077.9	188.8
915.1142	1808.0027	1070.1	184.55
915.2544	1809.6769	1069.9	184.65
915.3946	1811.3504	1069.55	181.4
915.5348	1813.0231	1073.85	185.65
915.675	1814.6951	1067.85	178.95
915.8151	1816.3664	1073.45	181.45
915.9553	1818.0369	1075.5	185.25
916.0954	1819.7067	1070.4	184.8
916.2355	1821.3757	1077.6	183.05
916.3755	1823.044	1071.85	182.3
916.5156	1824.7115	1074.15	185.85
916.6556	1826.3783	1073	182
916.7956	1828.0443	1069.15	181.1
916.9356	1829.7096	1067.75	177.05
917.0756	1831.3741	1074.25	181.15
917.2155	1833.0379	1066.75	179.75
917.3555	1834.701	1070.85	182.35
917.4954	1836.3633	1065.25	177.5
917.6353	1838.0248	1068.6	178.15
917.7751	1839.6856	1063.9	174.25
917.915	1841.3457	1067.3	178.75
918.0548	1843.005	1065.65	175.6
918.1946	1844.6636	1064.1	175.65
918.3344	1846.3214	1063.2	174.2
918.4742	1847.9785	1059.8	170.45
918.6139	1849.6349	1065.75	176.2
918.7537	1851.2904	1070.2	169.25
918.8934	1852.9453	1062.95	172.05
919.0331	1854.5994	1065.2	170.4
919.1727	1856.2528	1068.25	173.35
919.3124	1857.9054	1066.3	175.85
919.452	1859.5572	1062.7	174.75
919.5916	1861.2083	1060.4	170
919.7312	1862.8587	1060.3	167.85
919.8708	1864.5084	1058.95	167.55
920.0103	1866.1572	1058.5	167.15
920.1498	1867.8054	1063.5	171.75
920.2893	1869.4528	1062.25	170.85
920.4288	1871.0994	1057.85	167.05
920.5683	1872.7453	1062.05	170.45
920.7077	1874.3905	1063.05	167
920.8471	1876.0349	1055.5	164.4
920.9865	1877.6786	1059.9	169.15
921.1259	1879.3215	1052.8	162.15
921.2653	1880.9637	1058.1	168.05
921.4046	1882.6051	1053.8	165.35
921.5439	1884.2458	1058.1	166.8
921.6832	1885.8858	1051.1	160.7
921.8225	1887.525	1055.1	166.8
921.9617	1889.1634	1054.5	163.85
922.101	1890.8011	1053.6	162.8
922.2402	1892.4381	1054.55	166.85
922.3794	1894.0743	1051.35	164.3
922.5185	1895.7098	1053.75	164.2
922.6577	1897.3446	1051.2	163.65
922.7968	1898.9786	1051.9	157.55
922.9359	1900.6118	1042.25	153.55
923.075	1902.2443	1051.9	159.7
923.214	1903.8761	1050.3	163.85
923.3531	1905.5071	1048.35	159.7
923.4921	1907.1374	1048.7	159.05
923.6311	1908.7669	1046.55	157.7
923.77	1910.3957	1046.8	158.8
923.909	1912.0237	1045.4	154
924.0479	1913.651	1048.9	158
924.1868	1915.2776	1044	154.35
924.3257	1916.9034	1046.3	159.8
924.4646	1918.5285	1042.3	155.65
924.6034	1920.1528	1046.4	159.35
924.7422	1921.7764	1043.25	152.95
924.881	1923.3992	1043.05	153
925.0198	1925.0213	1039.45	149.15
925.1586	1926.6427	1044.1	155.35
925.2973	1928.2633	1249.6	149
925.436	1929.8832	1044.2	149.8
925.5747	1931.5023	1039.6	152.25
925.7134	1933.1207	1041	153.75
925.852	1934.7383	1040.95	151.55
925.9906	1936.3552	1034.65	148.75
926.1292	1937.9714	1041.3	153.25
926.2678	1939.5868	1040.65	150.5
926.4064	1941.2015	1040.3	148.25
926.5449	1942.8154	1037.4	145.7
926.6834	1944.4286	1036.45	147.3
926.8219	1946.041	1062.9	150.55
926.9604	1947.6528	1042.9	148.2
927.0988	1949.2637	1030.9	143.8
927.2372	1950.8739	1034.2	146.35
927.3756	1952.4834	1038	150.2
927.514	1954.0921	1037.45	147.95
927.6523	1955.7001	1040.15	149.2
927.7907	1957.3074	1032.55	145.35
927.929	1958.9139	1029.4	140.9
928.0673	1960.5197	1032.7	146.8
928.2055	1962.1247	1028.8	140.9
928.3438	1963.729	1027.65	142.4
928.482	1965.3325	1032.85	140.65
928.6202	1966.9353	1028.7	142.2
928.7584	1968.5374	1025.5	137.5
928.8965	1970.1387	1026.2	139.55
929.0346	1971.7393	1025.45	136.6
929.1727	1973.3392	1027.45	139.25
929.3108	1974.9383	1027.65	143.4
929.4489	1976.5366	1026.25	142.55
929.5869	1978.1342	1025.55	140.55
929.7249	1979.7311	1023.65	137.3
929.8629	1981.3273	1023.6	139.25
930.0009	1982.9227	1026	139.8
930.1388	1984.5173	1022.25	137.35
930.2767	1986.1112	1019.2	136.85
930.4146	1987.7044	1021.95	137.9
930.5525	1989.2968	1019.75	133.55
930.6904	1990.8885	1023.3	134.45
930.8282	1992.4795	1020.9	137.55
930.966	1994.0697	1024.7	139.35
931.1038	1995.6592	1018	133
931.2415	1997.2479	1019.1	133.7
931.3793	1998.8359	1020.2	134.55
931.517	2000.4232	1016.2	135.7
931.6547	2002.0097	1014.5	136.85
931.7923	2003.5955	1017.4	134.1
931.93	2005.1805	1016.05	130.95
932.0676	2006.7648	1013.6	131.4
932.2052	2008.3484	1017.9	133.75
932.3427	2009.9312	1019.55	135.55
932.4803	2011.5133	1010.7	128.8
932.6178	2013.0946	1012.65	131.45
932.7553	2014.6752	1016.8	134.75
932.8928	2016.2551	1015.05	131.2
933.0302	2017.8342	1017.65	133.5
933.1676	2019.4126	1012.9	132.8
933.305	2020.9902	1013.4	131.55
933.4424	2022.5672	1012.6	128.95
933.5798	2024.1433	1021.8	135.85
933.7171	2025.7188	1012.1	131.65
933.8544	2027.2935	1017	135.6
933.9917	2028.8674	1012.95	134
934.129	2030.4406	1011.3	132.55
934.2662	2032.0131	1007.1	130.15
934.4034	2033.5849	1016.95	128.7
934.5406	2035.1559	1011.25	132.9
934.6778	2036.7261	1012.35	130.85
934.8149	2038.2957	1016.2	134.45
934.952	2039.8645	1012.15	127.1
935.0891	2041.4325	1021.05	135.75
935.2262	2042.9998	1013.8	131.95
935.3632	2044.5664	1011.75	129.15
935.5002	2046.1323	1009	129.35
935.6372	2047.6974	1008.05	127.1
935.7742	2049.2617	1010.9	129.4
935.9111	2050.8254	1016.3	130.1
936.048	2052.3883	1013.25	130.7
936.1849	2053.9504	1014.85	132.85
936.3218	2055.5118	1015.85	131.8
936.4586	2057.0725	1013.1	126.5
936.5955	2058.6325	1008.25	126.95
936.7323	2060.1917	1006.05	124.95
936.869	2061.7502	1015.7	134.65
937.0058	2063.3079	1006.3	126.7
937.1425	2064.8649	1012.75	127.55
937.2792	2066.4212	1011.9	131.15
937.4159	2067.9767	1008.9	129.65
937.5525	2069.5315	1007.25	126.35
937.6891	2071.0856	1007.65	126.3
937.8257	2072.6389	1008.15	127.2
937.9623	2074.1915	1003.35	125.45
938.0989	2075.7433	1004	121
938.2354	2077.2945	1009.35	128.85
938.3719	2078.8448	1009.3	124.65
938.5084	2080.3945	1010.25	129.2
938.6448	2081.9434	1008.25	123.9
938.7812	2083.4916	1008.2	125.95
938.9176	2085.039	1014.4	127.8
939.054	2086.5857	1015.8	127.1
939.1903	2088.1317	1011.9	126.35
939.3267	2089.677	1011.45	126.85
939.463	2091.2215	1008.75	122.75
939.5992	2092.7652	1013.45	125.95
939.7355	2094.3083	1009.8	123.15
939.8717	2095.8506	1007.3	124.05
940.0079	2097.3921	1007.95	122.6
940.1441	2098.933	1008.1	123.6
940.2802	2100.4731	1012.25	128.45
940.4163	2102.0124	1026.8	123.6
940.5524	2103.5511	1009.2	126.6
940.6885	2105.089	1010.35	125.75
940.8245	2106.6261	1005.35	121.75
940.9606	2108.1626	1005.4	123.1
941.0965	2109.6983	1035.35	125.3
941.2325	2111.2332	1013.55	129.8
941.3684	2112.7675	1014.5	128.7
941.5044	2114.301	1013.4	125.9
941.6403	2115.8337	1007.05	122.25
941.7761	2117.3657	1006.6	121.1
941.912	2118.897	1008.35	125.4
942.0478	2120.4276	1014.6	123.6
942.1835	2121.9575	1005.3	120.25
942.3193	2123.4866	1009.35	122.9
942.455	2125.0149	1008.8	119.55
942.5907	2126.5426	1004	122.15
942.7264	2128.0695	1007.55	121.55
942.8621	2129.5956	999.3	119.4
942.9977	2131.1211	1008.45	122.6
943.1333	2132.6458	1001.65	118.45
943.2689	2134.1698	1004.8	120.05
943.4044	2135.693	1008.95	122.1
943.54	2137.2155	1008.65	121.65
943.6755	2138.7373	1001.75	119.05
943.8109	2140.2584	1002.15	119.9
943.9464	2141.7787	1006.3	120.85
944.0818	2143.2983	1001.45	122.05
944.2172	2144.8171	997.8	117.5
944.3526	2146.3353	1007.2	125.7
944.4879	2147.8527	1002	121.55
944.6232	2149.3693	1002.9	119.2
944.7585	2150.8853	1007.7	122.25
944.8938	2152.4005	1004.1	117.15
945.029	2153.9149	1000.75	115.25
945.1642	2155.4287	1002.5	118.85
945.2994	2156.9417	1006.4	122.1
945.4346	2158.454	1002.95	118.3
945.5697	2159.9655	1001.05	119.1
945.7048	2161.4764	1000.55	119.55
945.8399	2162.9865	999.35	116.85
945.9749	2164.4958	997.95	115.95
946.1099	2166.0045	1005.65	119.65
946.2449	2167.5124	999.45	117.15
946.3799	2169.0195	998.1	115.6
946.5148	2170.526	1003.25	117.75
946.6498	2172.0317	998	115.85
946.7846	2173.5367	1000.6	117.4
946.9195	2175.0409	1000.95	117
947.0543	2176.5445	1000.7	119.75
947.1891	2178.0473	1001.9	115.1
947.3239	2179.5494	1003.55	117.3
947.4587	2181.0507	1000.15	118.15
947.5934	2182.5513	998.75	115.6
947.7281	2184.0512	998.8	114.05
947.8628	2185.5504	998	113.75
947.9974	2187.0488	997.2	115.7
948.132	2188.5465	999.6	119
948.2666	2190.0435	997.9	113.8
948.4012	2191.5397	1000.65	118.75
948.5357	2193.0353	998.7	116.35
948.6702	2194.5301	999.7	115
948.8047	2196.0241	999.5	113.65
948.9392	2197.5175	1000.7	115.15
949.0736	2199.0101	999.35	110.15
949.208	2200.502	996.85	113.85
949.3424	2201.9931	995.1	111.8
949.4767	2203.4835	993.6	114.05
949.611	2204.9733	1012.8	114.45
949.7453	2206.4622	996.85	116
949.8796	2207.9505	994.3	111.65
950.0138	2209.438	992.95	113.75
950.148	2210.9248	994.65	112.8
950.2822	2212.4109	991.4	109.7
950.4164	2213.8962	997.55	111.75
950.5505	2215.3809	994.75	107.75
950.6846	2216.8648	994.35	107.2
950.8186	2218.3479	1003.1	113.2
950.9527	2219.8304	998.45	107.2
951.0867	2221.3121	994.65	105.2
951.2207	2222.7931	993	107.4
951.3546	2224.2733	993	107.15
951.4886	2225.7529	993.3	108.55
951.6225	2227.2317	993.25	105.1
951.7563	2228.7098	987.7	107.8
951.8902	2230.1872	989.3	109.9
952.024	2231.6638	990.6	110
952.1578	2233.1397	989.9	105.35
952.2916	2234.6149	988.15	106.85
952.4253	2236.0894	990.3	105.8
952.559	2237.5632	998.65	107.85
952.6927	2239.0362	989.7	107.25
952.8263	2240.5085	988.6	106.45
952.9599	2241.9801	987.9	103.1
953.0935	2243.4509	990.65	106.7
953.2271	2244.921	988.95	104.8
953.3606	2246.3904	992.05	103.1
953.4941	2247.8591	984.75	100.65
953.6276	2249.3271	986.25	102.85
953.7611	2250.7943	987.8	102.65
953.8945	2252.2608	985.25	102.65
954.0279	2253.7266	984.6	100.6
954.1612	2255.1917	986.45	103.65
954.2946	2256.656	986.15	101.8
954.4279	2258.1197	984.55	101.5
954.5612	2259.5826	987.1	104.5
954.6944	2261.0447	988.8	103.8
954.8276	2262.5062	986.75	100.75
954.9608	2263.9669	987	102.25
955.094	2265.4269	985.35	98.8
955.2271	2266.8862	986.75	105.15
955.3602	2268.3448	982.15	95.95
955.4933	2269.8026	980.75	98.2
955.6264	2271.2598	980.9	96.05
955.7594	2272.7162	984.25	100.45
955.8924	2274.1719	981.6	97.25
956.0253	2275.6268	981.5	95.9
956.1583	2277.0811	983.1	98.85
956.2912	2278.5346	983.25	100.2
956.4241	2279.9874	981.9	99
956.5569	2281.4395	980.2	99.1
956.6897	2282.8908	987.6	99.6
956.8225	2284.3414	981.6	98.45
956.9553	2285.7914	981.9	100.9
957.088	2287.2406	983.85	97.4
957.2207	2288.689	980.75	98.9
957.3534	2290.1368	986.35	101.9
957.486	2291.5838	984.65	96.95
957.6186	2293.0302	984.65	94.8
957.7512	2294.4758	981.8	96.35
957.8838	2295.9206	983.85	99.05
958.0163	2297.3648	978.35	95.65
958.1488	2298.8082	982.35	98
958.2813	2300.251	979.6	97.05
958.4137	2301.693	985.2	95.1
958.5461	2303.1343	985.1	99.8
958.6785	2304.5748	979.35	95.5
958.8108	2306.0147	973.1	89.65
958.9432	2307.4538	976.25	91.05
959.0754	2308.8922	979.6	98.85
959.2077	2310.3299	975.95	94.2
959.3399	2311.7669	975.3	92.9
959.4721	2313.2031	976.55	92.45
959.6043	2314.6387	978.95	96
959.7365	2316.0735	977.45	94.65
959.8686	2317.5076	977.85	94
960.0006	2318.941	979.15	94.7
960.1327	2320.3737	977.6	90.6
960.2647	2321.8056	979.95	95.95
960.3967	2323.2369	977.1	92.2
960.5287	2324.6674	979.3	94.05
960.6606	2326.0972	980.1	95.55
960.7925	2327.5263	985.95	100.7
960.9244	2328.9547	985.25	101.15
961.0562	2330.3823	982.5	96.3
961.1881	2331.8092	984.55	95.7
961.3198	2333.2355	980.1	95.1
961.4516	2334.661	980.25	94.65
961.5833	2336.0858	978.8	92.3
961.715	2337.5098	974.35	90.4
961.8467	2338.9332	973.85	89.7
961.9783	2340.3558	977.65	92.35
962.1099	2341.7778	969.55	84.2
962.2415	2343.199	974.4	88.8
962.373	2344.6195	971.3	88.4
962.5045	2346.0393	971.15	88.05
962.636	2347.4583	972.9	88.7
962.7675	2348.8767	974.15	88.15
962.8989	2350.2943	976.1	91.65
963.0303	2351.7113	977.7	90.25
963.1617	2353.1275	974.25	87.65
963.293	2354.543	998.8	90.8
963.4243	2355.9578	974.5	89
963.5556	2357.3718	969.8	87.5
963.6868	2358.7852	973.55	87.4
963.818	2360.1978	973.3	90.35
963.9492	2361.6098	971.15	87.3
964.0803	2363.021	973.2	84.75
964.2114	2364.4315	973.65	90.55
964.3425	2365.8413	970.65	85.55
964.4736	2367.2504	969.95	85.75
964.6046	2368.6587	970.05	85.05
964.7356	2370.0664	970.4	84.35
964.8666	2371.4733	967.75	80.9
964.9975	2372.8795	971.85	84.85
965.1284	2374.285	972.1	84
965.2593	2375.6899	973.55	88.75
965.3901	2377.0939	972.15	87.4
965.5209	2378.4973	969.15	83.7
965.6517	2379.9	972.3	87.85
965.7825	2381.3019	971	86.45
965.9132	2382.7032	968.75	85.4
966.0439	2384.1037	967.25	84.35
966.1745	2385.5035	966.2	82.45
966.3051	2386.9027	965.55	82.55
966.4357	2388.3011	966.85	78.45
966.5663	2389.6987	968.05	81.6
966.6968	2391.0957	965.35	81.3
966.8273	2392.492	965.4	80.85
966.9578	2393.8876	965.75	80.3
967.0882	2395.2824	966.45	81.7
967.2186	2396.6765	963.9	79.65
967.349	2398.07	967.5	80.45
967.4793	2399.4627	968.9	79.35
967.6097	2400.8547	969	83.1
967.7399	2402.246	975.5	82.75
967.8702	2403.6366	965.1	78.9
968.0004	2405.0265	959.65	74.6
968.1306	2406.4156	965.1	75.65
968.2607	2407.8041	966.35	76.5
968.3909	2409.1918	966	76.25
968.521	2410.5789	964.7	77.1
968.651	2411.9652	971	80.25
968.781	2413.3508	965.5	77.9
968.911	2414.7358	961.8	73.25
969.041	2416.12	962.3	77.1
969.1709	2417.5035	963.35	78.75
969.3008	2418.8863	963.3	75.9
969.4307	2420.2684	962.15	75.2
969.5606	2421.6497	962.7	75.8
969.6904	2423.0304	961.4	73.6
969.8201	2424.4104	962.55	74.95
969.9499	2425.7896	965.5	73.8
970.0796	2427.1682	960.95	76.75
970.2093	2428.546	963.05	75.15
970.3389	2429.9232	964.3	75.55
970.4685	2431.2996	959.95	73.7
970.5981	2432.6753	962.65	75.65
970.7277	2434.0503	961.05	74.05
970.8572	2435.4246	960.55	75.4
970.9867	2436.7982	965.75	77.75
971.1161	2438.1711	959.5	74.95
971.2456	2439.5433	958.85	71.45
971.375	2440.9148	964.2	72.6
971.5043	2442.2856	959.3	75.4
971.6336	2443.6557	959.1	69.45
971.7629	2445.025	958.65	72.7
971.8922	2446.3937	959.5	73.6
972.0214	2447.7617	957.3	73.3
972.1506	2449.1289	960	75.15
972.2798	2450.4955	962.05	72.9
972.4089	2451.8613	958.2	73.4
972.538	2453.2265	956.75	69.85
972.6671	2454.5909	956.25	68.7
972.7961	2455.9546	953.5	69.45
972.9251	2457.3177	954.65	70.2
973.0541	2458.68	955.75	68.9
973.1831	2460.0416	957.85	72.9
973.312	2461.4025	957.05	69.6
973.4408	2462.7627	967.55	71.6
973.5697	2464.1222	953.75	69.95
973.6985	2465.4811	952.95	69.1
973.8273	2466.8392	954.95	68.3
973.956	2468.1966	956.8	67.5
974.0847	2469.5533	956.8	69.3
974.2134	2470.9093	960	73
974.3421	2472.2645	955.85	71.05
974.4707	2473.6191	952.75	67.75
974.5993	2474.973	954	67.1
974.7278	2476.3262	953.8	68.25
974.8563	2477.6787	954.95	69.4
974.9848	2479.0305	951.6	66.2
975.1132	2480.3816	952.85	66.5
975.2417	2481.7319	952.75	66.45
975.37	2483.0816	955.75	68.15
975.4984	2484.4306	954.55	67.75
975.6267	2485.7789	952.85	67.75
975.755	2487.1264	954.05	68
975.8833	2488.4733	949.85	67.05
976.0115	2489.8195	965.2	62.45
976.1397	2491.165	955.45	67.15
976.2678	2492.5097	951.35	66.15
976.3959	2493.8538	952.1	68.25
976.524	2495.1972	954.85	68.05
976.6521	2496.5398	951.65	64.65
976.7801	2497.8818	953.1	65.3
976.9081	2499.2231	952.6	67.4
977.036	2500.5637	953.65	67.35
977.164	2501.9035	956.1	68.55
977.2918	2503.2427	953.35	63.65
977.4197	2504.5812	951.3	67.25
977.5475	2505.919	951.05	66.2
977.6753	2507.256	950.3	67.15
977.8031	2508.5924	950.45	63.75
977.9308	2509.9281	954.55	65.75
978.0585	2511.2631	949.5	65.6
978.1861	2512.5974	947.6	63.35
978.3137	2513.9309	946.4	63.4
978.4413	2515.2638	974.6	62.55
978.5689	2516.596	949.25	65.05
978.6964	2517.9275	951.8	65.8
978.8239	2519.2583	953.7	67.45
978.9513	2520.5884	947.85	61.85
979.0788	2521.9178	950.2	63.25
979.2062	2523.2465	944.45	59.4
979.3335	2524.5745	946.75	63.4
979.4608	2525.9018	949.65	65.35
979.5881	2527.2284	945.9	64.85
979.7154	2528.5543	952.1	66.25
979.8426	2529.8796	945.8	60.9
979.9698	2531.2041	947.05	62.8
980.0969	2532.5279	941.85	60.15
980.224	2533.851	948.6	61.95
980.3511	2535.1735	944.95	61.3
980.4781	2536.4952	943.3	57.2
980.6052	2537.8163	948.2	62.6
980.7321	2539.1366	947.35	61.9
980.8591	2540.4562	943.25	57.6
980.986	2541.7752	944.7	59.95
981.1129	2543.0935	945.7	59.85
981.2397	2544.411	947.25	62.05
981.3665	2545.7279	942.65	56.35
981.4933	2547.0441	948.05	64.85
981.62	2548.3596	950.85	62.6
981.7467	2549.6744	941.55	57.1
981.8734	2550.9885	952.05	59.25
982.0001	2552.3019	943.7	58.75
982.1267	2553.6146	945.45	61.5
982.2532	2554.9266	947.1	61.75
982.3798	2556.2379	945.15	57.5
982.5063	2557.5485	944.25	60.1
982.6327	2558.8585	951.25	59.45
982.7592	2560.1677	942.8	54.4
982.8856	2561.4762	943.15	58.95
983.0119	2562.7841	944.9	56.6
983.1383	2564.0913	941.55	59.25
983.2646	2565.3977	944.5	57.95
983.3908	2566.7035	941.8	58
983.517	2568.0086	947.95	61.95
983.6432	2569.313	943.5	55.75
983.7694	2570.6167	943.9	55.85
983.8955	2571.9197	941.2	56.6
984.0216	2573.222	944.8	57.5
984.1476	2574.5236	945.75	61.55
984.2737	2575.8246	946.9	59.6
984.3996	2577.1248	945.15	58.45
984.5256	2578.4244	944.05	59.7
984.6515	2579.7232	940.5	56.55
984.7774	2581.0214	973.35	62.35
984.9032	2582.3189	940.5	54.6
985.029	2583.6157	944.9	56.35
985.1548	2584.9118	944.1	58.6
985.2806	2586.2072	942.45	56.65
985.4063	2587.5019	943.1	59.45
985.5319	2588.7959	942.35	54.15
985.6576	2590.0893	941.8	55.9
985.7832	2591.3819	943.25	58.55
985.9087	2592.6739	940.1	56.8
986.0343	2593.9652	948.15	62.45
986.1597	2595.2557	945.45	60.8
986.2852	2596.5456	944.75	59.3
986.4106	2597.8348	941.75	58.1
986.536	2599.1234	939.95	55.8
986.6614	2600.4112	939.7	56.15
986.7867	2601.6983	945.5	57.8
986.912	2602.9848	944.85	60.9
987.0372	2604.2705	946.15	53.15
987.1624	2605.5556	942.2	55.85
987.2876	2606.84	941.3	58.5
987.4128	2608.1237	940.6	54.6
987.5379	2609.4067	940.25	57.6
987.6629	2610.689	948.3	54.95
987.788	2611.9707	941.45	51.75
987.913	2613.2516	944.9	56.25
988.0379	2614.5319	937.6	53.6
988.1629	2615.8115	938.4	53.45
988.2878	2617.0903	938.15	52.2
988.4126	2618.3685	938	52.05
988.5375	2619.6461	937.8	52.9
988.6622	2620.9229	935.25	51.95
988.787	2622.199	938.8	51.3
988.9117	2623.4745	936.7	53.65
989.0364	2624.7493	939.45	53.5
989.161	2626.0234	936.75	55.25
989.2857	2627.2968	936.65	52.75
989.4102	2628.5695	938.05	52.65
989.5348	2629.8415	936.55	52.6
989.6593	2631.1128	935.6	48.15
989.7837	2632.3835	938.15	53.65
989.9082	2633.6535	937.2	51.7
990.0326	2634.9228	935.8	52.7
990.1569	2636.1914	935.05	52.6
990.2812	2637.4593	935.95	49.65
990.4055	2638.7265	936.3	51.1
990.5298	2639.9931	936.15	52.65
990.654	2641.259	936.15	51.75
990.7782	2642.5242	933.55	50.15
990.9023	2643.7887	932.65	46.5
991.0264	2645.0525	933.9	50.3
991.1505	2646.3156	934.9	49.75
991.2745	2647.5781	930.7	47.9
991.3985	2648.8398	930.3	46.7
991.5225	2650.1009	943.65	48.45
991.6464	2651.3613	935.3	51.9
991.7703	2652.6211	930.7	46.95
991.8942	2653.8801	932.3	50.7
992.018	2655.1385	933.85	48.4
992.1418	2656.3961	933.35	48
992.2655	2657.6531	935.05	52.7
992.3892	2658.9094	934.3	49.65
992.5129	2660.1651	929.8	46.75
992.6366	2661.42	929.9	47.35
992.7602	2662.6743	932.55	46.35
992.8837	2663.9279	929.6	46
993.0073	2665.1808	930	45.95
993.1307	2666.433	933.3	45.6
993.2542	2667.6846	930.95	46.8
993.3776	2668.9354	935.75	46.2
993.501	2670.1856	934.6	49.15
993.6244	2671.4351	932.4	49.85
993.7477	2672.6839	936.05	50.1
993.8709	2673.9321	932.55	50.1
993.9942	2675.1795	933.4	49.1
994.1174	2676.4263	932.05	49.75
994.2405	2677.6724	929	46.15
994.3637	2678.9179	932.3	45.05
994.4868	2680.1626	930.9	49.35
994.6098	2681.4067	931.1	48.05
994.7328	2682.6501	932.85	49.7
994.8558	2683.8928	929.6	45.8
994.9788	2685.1348	929.65	46
995.1017	2686.3761	930.1	48.65
995.2245	2687.6168	928.95	42.7
995.3474	2688.8568	930.75	45.15
995.4702	2690.0961	926.7	44.2
995.5929	2691.3348	929.2	45.1
995.7156	2692.5727	928.75	47.75
995.8383	2693.81	928.9	45.9
995.961	2695.0466	927.05	46.25
996.0836	2696.2826	928.9	43.1
996.2062	2697.5178	948.35	45.15
996.3287	2698.7524	927.55	42.7
996.4512	2699.9863	929	43.75
996.5737	2701.2195	926.5	44.85
996.6961	2702.452	929.9	45.65
996.8185	2703.6839	933.15	50.4
996.9408	2704.9151	928.1	46
997.0631	2706.1456	930.1	44.35
997.1854	2707.3755	931.8	46.85
997.3077	2708.6046	932.6	46.15
997.4299	2709.8331	931.3	44.5
997.552	2711.0609	931.35	47.75
997.6742	2712.2881	930.95	47.2
997.7963	2713.5145	932.85	47.55
997.9183	2714.7403	928	46.4
998.0403	2715.9654	933.9	51.5
998.1623	2717.1899	945.25	48
998.2842	2718.4136	932.6	51.5
998.4062	2719.6367	935.05	51.95
998.528	2720.8591	940.9	50.6
998.6498	2722.0809	937.1	52.45
998.7716	2723.3019	939.85	54.3
998.8934	2724.5223	940.85	57.95
999.0151	2725.7421	938.6	53.25
999.1368	2726.9611	937.45	53.6
999.2584	2728.1795	939.35	47.8
999.38	2729.3972	934.65	52.75
999.5016	2730.6142	941.5	54.3
999.6231	2731.8306	932.85	50.2
999.7446	2733.0462	930.7	44.7
999.8661	2734.2612	937.25	49.55
999.9875	2735.4756	931	47.85
1000.1089	2736.6892	928.55	45.15
1000.2302	2737.9022	924.2	42.85
1000.3515	2739.1145	926.6	43.1
1000.4728	2740.3262	933.95	41.2
1000.594	2741.5372	928.35	46.7
1000.7152	2742.7475	926.75	41.4
1000.8363	2743.9571	927.8	44.1
1000.9575	2745.1661	932.9	46
1001.0785	2746.3744	923.55	40.25
1001.1996	2747.582	924.2	40.25
1001.3206	2748.7889	923	36.15
1001.4415	2749.9952	921.75	39.25
1001.5625	2751.2008	923	38.45
1001.6833	2752.4057	925.55	40.35
1001.8042	2753.61	921.45	35.35
1001.925	2754.8136	923.7	39.45
1002.0458	2756.0165	920.75	38.6
1002.1665	2757.2188	918.75	38.05
1002.2872	2758.4204	920.85	38.95
1002.4078	2759.6213	923.05	38.65
1002.5285	2760.8215	926.25	39.9
1002.649	2762.0211	918.95	36.4
1002.7696	2763.22	924.7	39.95
1002.8901	2764.4182	921.2	35.7
1003.0106	2765.6158	919.95	38.5
1003.131	2766.8127	920.1	38.9
1003.2514	2768.009	919.3	36.35
1003.3717	2769.2045	922.35	39.85
1003.492	2770.3994	921.45	36.05
1003.6123	2771.5936	920.75	36
1003.7325	2772.7872	918	38.6
1003.8527	2773.9801	921.65	36.95
1003.9729	2775.1723	933.2	34.85
1004.093	2776.3639	915.75	35.8
1004.2131	2777.5548	920.7	34.7
1004.3331	2778.745	918.05	35.3
1004.4531	2779.9346	917.3	33.8
1004.5731	2781.1235	918.6	36.1
1004.693	2782.3117	918.5	39.9
1004.8129	2783.4992	918.45	35.3
1004.9328	2784.6861	917.5	36.55
1005.0526	2785.8723	920.45	35.75
1005.1723	2787.0579	918.9	36.95
1005.2921	2788.2428	921.2	39.3
1005.4118	2789.427	915.15	33.9
1005.5314	2790.6106	918.85	37.5
1005.651	2791.7935	918.85	34.05
1005.7706	2792.9757	916.95	34.8
1005.8902	2794.1573	920.95	37.7
1006.0097	2795.3382	917.5	35.5
1006.1291	2796.5184	917	38.2
1006.2485	2797.698	920.25	37.1
1006.3679	2798.8769	917.25	35.1
1006.4873	2800.0551	918.1	37.35
1006.6066	2801.2327	917.7	32.55
1006.7258	2802.4096	920.4	39.85
1006.8451	2803.5859	921.2	36.2
1006.9642	2804.7615	920.4	37.85
1007.0834	2805.9364	920.95	40.1
1007.2025	2807.1106	917.5	37.5
1007.3216	2808.2842	922.65	40.45
1007.4406	2809.4572	923.9	43
1007.5596	2810.6294	927.05	44.4
1007.6785	2811.801	922	43.6
1007.7975	2812.972	926.7	44.7
1007.9163	2814.1423	928.2	46.6
1008.0352	2815.3119	931.4	48.35
1008.154	2816.4808	930.6	51.1
1008.2727	2817.6491	934.7	52.95
1008.3914	2818.8167	935.65	55.8
1008.5101	2819.9837	947.05	59.8
1008.6288	2821.15	946.15	65.85
1008.7474	2822.3157	946.65	65.65
1008.8659	2823.4807	958.05	77.5
1008.9844	2824.645	966	82.4
1009.1029	2825.8086	966.7	84.5
1009.2214	2826.9716	973.5	92.3
1009.3398	2828.134	976.7	94.7
1009.4581	2829.2957	985.15	105.95
1009.5764	2830.4567	988.75	106.35
1009.6947	2831.617	995.05	113.05
1009.813	2832.7767	996.4	115.35
1009.9312	2833.9358	993.55	111.25
1010.0493	2835.0941	996.9	115.9
1010.1675	2836.2519	995	114.35
1010.2855	2837.4089	991.25	110.4
1010.4036	2838.5653	983.75	103
1010.5216	2839.7211	981.85	101.4
1010.6396	2840.8761	979.8	95.6
1010.7575	2842.0306	978.15	96.15
1010.8754	2843.1843	978.65	97.05
1010.9932	2844.3374	978.3	100.25
1011.111	2845.4899	978.35	94.75
1011.2288	2846.6417	981.15	100.85
1011.3465	2847.7928	980.75	101.25
1011.4642	2848.9433	983.75	101.75
1011.5818	2850.0931	987.4	106.35
1011.6995	2851.2422	991.3	109.15
1011.817	2852.3907	987.35	106.35
1011.9345	2853.5385	990.85	108.25
1012.052	2854.6857	1017.85	111.75
1012.1695	2855.8323	997.15	117.45
1012.2869	2856.9781	1000.05	116.55
1012.4042	2858.1233	996.85	118.3
1012.5216	2859.2679	1002.5	122.85
1012.6389	2860.4118	1007.55	124.4
1012.7561	2861.555	1014.35	128.8
1012.8733	2862.6976	1012.9	129
1012.9905	2863.8395	1013.5	133.45
1013.1076	2864.9808	1012.85	131.85
1013.2247	2866.1214	1012.15	132.65
1013.3417	2867.2614	1012.55	133.65
1013.4587	2868.4007	1017.45	133.2
1013.5757	2869.5393	1019.45	137.95
1013.6926	2870.6773	1018.95	135.6
1013.8095	2871.8146	1021.7	136.75
1013.9263	2872.9513	1023.85	141.8
1014.0431	2874.0874	1023.2	141.55
1014.1599	2875.2227	1025	141.55
1014.2766	2876.3574	1026.5	147.35
1014.3933	2877.4915	1028.55	146.8
1014.51	2878.6249	1028.2	148.25
1014.6266	2879.7577	1029.35	147.05
1014.7431	2880.8898	1042.95	151.45
1014.8596	2882.0212	1036.65	158.45
1014.9761	2883.152	1037	155.1
1015.0925	2884.2821	1039.25	160.7
1015.2089	2885.4116	1035.6	155.8
1015.3253	2886.5405	1037.65	154.45
1015.4416	2887.6686	1037.55	156.35
1015.5579	2888.7962	1039.2	160.7
1015.6741	2889.923	1037.5	157.9
1015.7903	2891.0493	1040.5	161.1
1015.9065	2892.1748	1041.2	161.5
1016.0226	2893.2997	1040.4	159.1
1016.1387	2894.424	1037.55	156.55
1016.2547	2895.5476	1035	155.3
1016.3707	2896.6706	1037.25	157.75
1016.4866	2897.7929	1039.65	157.65
1016.6025	2898.9145	1039.85	160.35
1016.7184	2900.0355	1043.4	162.7
1016.8342	2901.1559	1039.75	158.5
1016.95	2902.2756	1047.05	163.05
1017.0658	2903.3946	1041.4	161.85
1017.1815	2904.513	1044.6	162.75
1017.2971	2905.6308	1040.8	158.85
1017.4127	2906.7479	1035.65	153.75
1017.5283	2907.8643	1040.5	160.3
1017.6439	2908.9801	1040.95	161.3
1017.7594	2910.0953	1034.35	155.9
1017.8748	2911.2098	1040.4	155.1
1017.9902	2912.3236	1044.55	157.25
1018.1056	2913.4368	1039.1	155.55
1018.2209	2914.5494	1035.05	155.05
1018.3362	2915.6613	1042.05	155.5
1018.4515	2916.7725	1034.8	153.5
1018.5667	2917.8831	1035.85	156.55
1018.6819	2918.9931	1030.6	148.1
1018.797	2920.1024	1026.65	146.45
1018.9121	2921.211	1025.05	146.4
1019.0271	2922.319	1027.55	147
1019.1421	2923.4264	1021.05	141.6
1019.2571	2924.5331	1020.75	142.05
1019.372	2925.6391	1019.5	137.25
1019.4869	2926.7445	1018.95	139.9
1019.6017	2927.8493	1025.95	145.45
1019.7165	2928.9534	1019.15	138.55
1019.8313	2930.0569	1030.45	148.3
1019.946	2931.1597	1030.1	148.5
1020.0606	2932.2619	1025.15	147.4
1020.1753	2933.3634	1022.6	143.4
1020.2899	2934.4643	1031.45	142.9
1020.4044	2935.5645	1035.35	149.65
1020.5189	2936.6641	1029.75	144.15
1020.6334	2937.763	1027.8	148.3
1020.7478	2938.8613	1029.7	149.05
1020.8622	2939.959	1027.25	141.2
1020.9765	2941.056	1019.1	142.5
1021.0908	2942.1523	1017.15	137.55
1021.2051	2943.248	1014.75	133.8
1021.3193	2944.3431	1004.7	124.35
1021.4334	2945.4375	1001.3	120.5
1021.5476	2946.5313	993	113.5
1021.6617	2947.6244	988.9	106.3
1021.7757	2948.7169	982.25	100.9
1021.8897	2949.8087	973.15	92.2
1022.0037	2950.8999	971.5	90.8
1022.1176	2951.9904	963.8	85.25
1022.2315	2953.0803	966.15	86.15
1022.3453	2954.1696	957.15	77.05
1022.4591	2955.2582	958.65	78.6
1022.5728	2956.3462	955.95	73.7
1022.6865	2957.4335	952.3	71.7
1022.8002	2958.5202	953.9	72.8
1022.9138	2959.6062	953.75	75.85
1023.0274	2960.6916	951.55	75.05
1023.141	2961.7764	952.35	69.5
1023.2545	2962.8605	951.75	72.2
1023.3679	2963.9439	949	67.95
1023.4813	2965.0267	951.35	70.45
1023.5947	2966.1089	973.55	68.95
1023.708	2967.1905	949.15	70.35
1023.8213	2968.2714	949.6	71.7
1023.9346	2969.3516	948.15	67.7
1024.0478	2970.4312	955.7	67.4
1024.1609	2971.5102	949.25	72.15
1024.274	2972.5885	949.1	68.35
1024.3871	2973.6662	953.4	70.45
1024.5002	2974.7432	952.45	73.05
1024.6132	2975.8196	948.85	69.1
1024.7261	2976.8954	947.8	68.7
1024.839	2977.9705	950.65	70.65
1024.9519	2979.045	947.5	69.55
1025.0647	2980.1188	946.6	67.1
1025.1775	2981.192	949.5	72.7
1025.2902	2982.2645	946.6	66.6
1025.4029	2983.3364	945	65.55
1025.5156	2984.4077	943.4	64.1
1025.6282	2985.4783	951.1	67.15
1025.7407	2986.5483	942.65	63.95
1025.8532	2987.6177	938.1	58.05
1025.9657	2988.6864	934.9	53.45
1026.0782	2989.7545	936.05	54.95
1026.1906	2990.8219	933.55	54.7
1026.3029	2991.8887	932.8	51.75
1026.4152	2992.9548	929	48.05
1026.5275	2994.0204	926.75	48.8
1026.6397	2995.0852	922.05	45.3
1026.7519	2996.1495	923.4	43.9
1026.864	2997.2131	920.3	41.55
1026.9761	2998.276	917.4	39.05
1027.0882	2999.3383	915.7	35.95
1027.2002	3000.4	915.85	33.7
1027.3122	3001.4611	912.55	32.35
1027.4241	3002.5215	913.5	33.1
1027.536	3003.5812	906.6	28.15
1027.6478	3004.6404	908.05	30
1027.7596	3005.6989	908.9	29.7
1027.8714	3006.7567	907.85	30.95
1027.9831	3007.8139	933.9	24.8
1028.0947	3008.8705	907.95	31.1
1028.2064	3009.9264	910.2	26.85
1028.3179	3010.9818	906.15	28.15
1028.4295	3012.0364	904.05	25.45
1028.541	3013.0905	905.65	25.85
1028.6524	3014.1439	903.3	25.6
1028.7638	3015.1966	902.85	23.4
1028.8752	3016.2487	904.1	24.15
1028.9865	3017.3002	906.85	22.2
1029.0978	3018.3511	904.4	26.15
1029.209	3019.4013	901.45	23.95
1029.3202	3020.4509	901.7	22.05
1029.4314	3021.4998	903.85	23.85
1029.5425	3022.5481	901.3	24.05
1029.6535	3023.5958	901.8	22.8
1029.7645	3024.6428	902.45	22.8
1029.8755	3025.6892	902.5	25.75
1029.9864	3026.735	905.45	25.5
1030.0973	3027.7802	902.2	24.2
1030.2082	3028.8247	903.35	24.8
1030.319	3029.8685	902.6	21.8
1030.4297	3030.9118	900.3	22.1
1030.5404	3031.9544	901.3	23
1030.6511	3032.9963	899.85	22.2
1030.7617	3034.0376	899.8	19.75
1030.8723	3035.0783	905.55	24.65
1030.9829	3036.1184	905.45	24.45
1031.0934	3037.1578	900.7	22.2
1031.2038	3038.1966	901.8	21.75
1031.3142	3039.2348	896.25	17.3
1031.4246	3040.2723	908.45	21.65
1031.5349	3041.3092	900.45	22.55
1031.6452	3042.3455	900.2	21.6
1031.7554	3043.3811	903.45	23.2
1031.8656	3044.4161	903.45	24.45
1031.9758	3045.4505	900.15	22.85
1032.0859	3046.4842	899.4	20.4
1032.1959	3047.5173	901.9	24.55
1032.3059	3048.5498	902.95	26.15
1032.4159	3049.5816	901.55	22.6
1032.5258	3050.6128	903.9	23.3
1032.6357	3051.6434	904.3	23.15
1032.7455	3052.6734	904.85	25.7
1032.8553	3053.7027	901.3	22.1
1032.9651	3054.7314	901.4	22.95
1033.0748	3055.7594	900.25	21.45
1033.1845	3056.7868	902.4	23.25
1033.2941	3057.8136	900.55	21.4
1033.4037	3058.8398	903.95	26.85
1033.5132	3059.8653	901.15	22.35
1033.6227	3060.8902	903.45	25.2
1033.7321	3061.9145	904.85	27.3
1033.8415	3062.9381	901.25	23.2
1033.9509	3063.9612	917.3	22.8
1034.0602	3064.9835	904.15	25.65
1034.1694	3066.0053	905.3	23.6
1034.2787	3067.0264	903.65	25.6
1034.3878	3068.0469	904.15	22.3
1034.497	3069.0668	907.55	25.25
1034.6061	3070.086	901.35	23.4
1034.7151	3071.1046	904.15	24.55
1034.8241	3072.1226	904.85	26.8
1034.9331	3073.1399	901.65	23.55
1035.042	3074.1567	901.1	23.7
1035.1508	3075.1727	901.1	19.4
1035.2597	3076.1882	900.45	21.65
1035.3684	3077.203	901.1	24.35
1035.4772	3078.2173	900.45	20.55
1035.5859	3079.2308	903.75	21.35
1035.6945	3080.2438	901.2	18.95
1035.8031	3081.2561	899.2	20.35
1035.9117	3082.2678	897.35	19.55
1036.0202	3083.2789	896.3	16.5
1036.1286	3084.2893	896.85	18.75
1036.2371	3085.2991	896.4	18.15
1036.3454	3086.3083	900.25	16.1
1036.4538	3087.3169	899.65	21.2
1036.562	3088.3248	895.85	14.5
1036.6703	3089.3321	895.65	17.15
1036.7785	3090.3388	894.1	16.9
1036.8866	3091.3449	892.9	13.6
1036.9948	3092.3503	898.6	16.25
1037.1028	3093.3551	894.5	16.95
1037.2108	3094.3593	895.5	18.05
1037.3188	3095.3629	893.05	16.1
1037.4267	3096.3658	896.3	18.1
1037.5346	3097.3681	892.75	14.85
1037.6425	3098.3698	895.35	13.25
1037.7503	3099.3708	896.25	17.3
1037.858	3100.3713	894.05	14.85
1037.9657	3101.3711	893.7	15.5
1038.0734	3102.3702	1031.15	14.85
1038.181	3103.3688	893.8	13.2
1038.2886	3104.3667	892.4	14.5
1038.3961	3105.364	893.05	13.8
1038.5036	3106.3607	894.4	13.15
1038.611	3107.3568	893.95	13.9
1038.7184	3108.3522	891.55	14.2
1038.8257	3109.347	891.65	10.75
1038.933	3110.3412	897.1	14.65
1039.0403	3111.3348	893.8	15.05
1039.1475	3112.3277	891.55	14.05
1039.2547	3113.32	890.95	14.65
1039.3618	3114.3117	890.55	12.05
1039.4689	3115.3028	891.7	13.1
1039.5759	3116.2932	891.35	11.15
1039.6829	3117.2831	897.45	12.3
1039.7898	3118.2723	890.05	11.8
1039.8967	3119.2608	890.05	12.2
1040.0035	3120.2488	890.7	12.1
1040.1103	3121.2361	890.05	10.25
1040.2171	3122.2229	891.45	11.85
1040.3238	3123.209	891.75	12.35
1040.4305	3124.1944	889.7	11.3
1040.5371	3125.1793	893.7	14.2
1040.6437	3126.1635	889.45	11.75
1040.7502	3127.1471	890.95	12
1040.8567	3128.1301	889.65	11.2
1040.9631	3129.1125	888.15	9.5
1041.0695	3130.0942	889.05	10.5
1041.1759	3131.0753	897.75	11.45
1041.2822	3132.0558	892.7	12
1041.3884	3133.0357	890.25	11.1
1041.4946	3134.015	889.95	8.1
1041.6008	3134.9936	890.9	11.05
1041.7069	3135.9716	910.85	10.75
1041.813	3136.949	887.85	10.55
1041.919	3137.9258	907.1	11.5
1042.025	3138.902	892.65	10.75
1042.1309	3139.8775	888.8	11.05
1042.2368	3140.8524	888.65	10.95
1042.3427	3141.8267	891.35	11.1
1042.4485	3142.8004	889.5	10.05
1042.5542	3143.7735	894.1	7.05
1042.6599	3144.7459	889.15	12
1042.7656	3145.7178	887.25	8.05
1042.8712	3146.689	888.4	10.85
1042.9768	3147.6596	890.5	10.85
1043.0823	3148.6295	889.1	11.15
1043.1878	3149.5989	888.55	10.45
1043.2932	3150.5676	885.5	7.9
1043.3986	3151.5357	886.95	8.8
1043.5039	3152.5032	887.45	8.9
1043.6092	3153.4701	885.8	8.9
1043.7145	3154.4364	887.9	7.25
1043.8197	3155.402	885.4	10
1043.9248	3156.367	886.8	6.4
1044.03	3157.3315	922.05	8.1
1044.135	3158.2952	889.9	11.95
1044.24	3159.2584	887.15	9.9
1044.345	3160.221	888.2	9.2
1044.4499	3161.1829	889	10.35
1044.5548	3162.1442	886.85	9.05
1044.6596	3163.105	888	10.15
1044.7644	3164.065	887.2	8.25
1044.8692	3165.0245	888.15	8.2
1044.9739	3165.9834	886.15	8.65
1045.0785	3166.9416	885.55	7.65
1045.1831	3167.8993	888.65	7.7
1045.2877	3168.8563	886.7	7.95
1045.3922	3169.8127	885.8	7.15
1045.4966	3170.7684	885	6.75
1045.6011	3171.7236	886.85	7.35
1045.7054	3172.6782	886.85	9.4
1045.8098	3173.6321	885.95	7.9
1045.914	3174.5854	891.75	9.85
1046.0183	3175.5381	887.35	9.1
1046.1224	3176.4902	885.9	6.3
1046.2266	3177.4417	884.7	7.65
1046.3307	3178.3926	884.4	6
1046.4347	3179.3428	885.45	7.5
1046.5387	3180.2924	888.15	10.85
1046.6427	3181.2415	886.35	8.9
1046.7466	3182.1899	887.5	7.65
1046.8504	3183.1377	885.2	6.35
1046.9542	3184.0848	888.2	7.35
1047.058	3185.0314	884.9	5.95
1047.1617	3185.9773	884.7	6.05
1047.2654	3186.9227	885.05	6.15
1047.369	3187.8674	887.25	9.05
1047.4726	3188.8115	890.6	8.85
1047.5761	3189.755	886.05	8.4
1047.6796	3190.6979	882.4	4
1047.783	3191.6402	883.35	6.3
1047.8864	3192.5818	883.5	5.75
1047.9898	3193.5229	902.05	6.1
1048.0931	3194.4633	882.75	5.8
1048.1963	3195.4031	884.3	5.7
1048.2995	3196.3423	885.8	7.2
1048.4027	3197.2809	885.05	6.4
1048.5058	3198.2189	885.95	7.4
1048.6089	3199.1563	901.05	7.15
1048.7119	3200.0931	884.35	9.1
1048.8148	3201.0292	883.15	6.1
1048.9178	3201.9648	882.55	4.05
1049.0206	3202.8997	884.2	3.6
1049.1235	3203.834	884.9	8
1049.2262	3204.7677	885.05	7.4
1049.329	3205.7008	884.95	7.2
1049.4317	3206.6333	882.4	5.3
1049.5343	3207.5652	885.4	6.5
1049.6369	3208.4964	886.05	8.45
1049.7394	3209.4271	882.5	5.6
1049.8419	3210.3571	883.4	7
1049.9444	3211.2865	885.05	5.05
1050.0468	3212.2154	884.2	7.6
1050.1491	3213.1436	887.6	5.1
1050.2514	3214.0712	890.5	6.75
1050.3537	3214.9982	884.8	6.85
1050.4559	3215.9246	885.6	7.35
1050.5581	3216.8503	884.05	7.9
1050.6602	3217.7755	885.3	8.05
1050.7623	3218.7001	882	3.3
1050.8643	3219.624	884.95	6.4
1050.9663	3220.5473	883.45	6.15
1051.0682	3221.4701	886.75	6.5
1051.1701	3222.3922	885.55	6.15
1051.2719	3223.3137	885.7	6.5
1051.3737	3224.2346	884	4.8
1051.4754	3225.1549	883.55	5.5
1051.5771	3226.0746	883.75	7.85
1051.6788	3226.9937	884.9	6.75
1051.7804	3227.9121	881.6	3.55
1051.8819	3228.83	884.25	6.4
1051.9834	3229.7473	884	7
1052.0849	3230.6639	884.5	6.6
1052.1863	3231.5799	883.35	6.05
1052.2876	3232.4954	883.7	4.8
1052.3889	3233.4102	882.1	4.7
1052.4902	3234.3244	886	6.7
1052.5914	3235.238	883.55	6.8
1052.6926	3236.151	906.65	5.25
1052.7937	3237.0634	884.25	6.25
1052.8948	3237.9752	882.65	4.7
1052.9958	3238.8864	884.05	5.7
1053.0968	3239.797	881.6	4.15
1053.1977	3240.7069	883.1	5.35
1053.2986	3241.6163	886.15	5.6
1053.3994	3242.5251	881.2	5.45
1053.5002	3243.4332	882.3	7.35
1053.6009	3244.3408	885	5.85
1053.7016	3245.2477	881.75	4.5
1053.8022	3246.154	882.25	3.5
1053.9028	3247.0598	883.1	6.05
1054.0034	3247.9649	882.2	5.05
1054.1039	3248.8694	884	6.15
1054.2043	3249.7733	881.5	4.05
1054.3047	3250.6766	882.3	3.55
1054.4051	3251.5793	883.8	4.75
1054.5054	3252.4814	880.9	2.85
1054.6056	3253.3829	881.9	5.75
1054.7058	3254.2838	880.1	4
1054.806	3255.1841	881.8	3.65
1054.9061	3256.0838	882.25	3.55
1055.0061	3256.9829	880.4	4.1
1055.1062	3257.8814	885.9	4.8
1055.2061	3258.7792	886.4	7
1055.306	3259.6765	883	1.55
1055.4059	3260.5731	882.75	5.4
1055.5057	3261.4692	884	5.9
1055.6055	3262.3647	885.2	6.8
1055.7052	3263.2595	882.85	6.65
1055.8049	3264.1538	882.2	6.3
1055.9045	3265.0474	883	6.6
1056.0041	3265.9404	879.65	2.85
1056.1036	3266.8329	880.75	1.9
1056.2031	3267.7247	890.9	3.2
1056.3025	3268.616	880.35	3.75
1056.4019	3269.5066	882.75	3.35
1056.5013	3270.3966	884.15	5.1
1056.6005	3271.286	879.65	1.8
