Software Version:	3.9.2.0
Unit SN:	10000200
Spectrometer SN:	6960
Date:	3/8/2024 2:22:45 PM
Data Line Index:	25
Spectral Points:	2048
Integration time (ms):	125
Averages:	20
Delay (ms):	30000
Sequence Number:	1
Processing:	dark subtract
Laser Power (mW):	295
Laser Current (mA):	825
Laser Diode Temp (C):	25
Laser Case Temp (C):	26.1
System Temp (C):	26.1
Spectrometer Temp (C):	24.1
CCD Temp (C):	0.009
Secondary Temp (C):	20.008
Heatsink Temp (C):	21.042
CCDPCB Temp (C):	36.318
SecondaryPCB Temp (C):	30.471

Wavelength	RamanShift	Raw Counts	Dark Subtracted
787.061	30.1047	457.4	51
787.2016	32.3739	459.25	55.5
787.3422	34.6426	468	62.75
787.4828	36.9109	470.95	63.4
787.6235	39.1787	480.25	68
787.7642	41.4461	493.4	77.05
787.9049	43.7131	498.6	79.9
788.0456	45.9796	506.3	84.15
788.1863	48.2456	515.7	88.85
788.3271	50.5112	525.15	95.45
788.4679	52.7764	537.75	102.3
788.6087	55.0411	547.75	109
788.7496	57.3054	559.75	114.8
788.8904	59.5692	570.95	125.75
789.0313	61.8326	578.6	129.75
789.1722	64.0955	596.3	145
789.3132	66.3579	608.75	151.9
789.4541	68.6199	626.5	164.55
789.5951	70.8815	666.85	201.3
789.7361	73.1426	749	280.35
789.8771	75.4032	954.3	480.25
790.0181	77.6634	1471.95	995.6
790.1592	79.9231	2673.2	2187.55
790.3003	82.1824	5293.95	4792.45
790.4414	84.4412	9979.35	9449.8
790.5825	86.6995	16440.15	15869.25
790.7237	88.9574	22675.7	22075.55
790.8648	91.2148	26988.65	26364.05
791.006	93.4717	29024.35	28389.3
791.1472	95.7282	29493.05	28846.3
791.2885	97.9842	29406.45	28759.15
791.4297	100.2398	28950.85	28301.15
791.571	102.4949	28363.05	27710.15
791.7123	104.7495	27638.4	26981.55
791.8536	107.0036	26879.9	26224
791.9949	109.2573	26149.6	25490.8
792.1363	111.5105	25439.05	24780.65
792.2777	113.7632	24739.9	24076.05
792.4191	116.0154	24111.15	23440.55
792.5605	118.2672	23636	22968.85
792.7019	120.5185	23164.25	22497.95
792.8434	122.7693	22810.05	22139.55
792.9849	125.0197	22493.15	21816.6
793.1264	127.2696	22218.05	21534.3
793.2679	129.519	22065.55	21382.9
793.4094	131.7679	21911.2	21222.85
793.551	134.0163	21768.6	21081.9
793.6926	136.2642	21602.15	20908.75
793.8342	138.5117	21443.6	20740
793.9758	140.7587	21212	20513.25
794.1175	143.0052	21065.35	20364.9
794.2591	145.2512	20833.2	20132.15
794.4008	147.4967	20616.15	19911.3
794.5425	149.7417	20465.4	19760.3
794.6842	151.9863	20329.05	19618.35
794.826	154.2304	20259.4	19546.15
794.9677	156.4739	20172.1	19452.25
795.1095	158.717	20112.9	19393.9
795.2513	160.9596	19975.45	19252.55
795.3931	163.2017	19731.25	19004.05
795.535	165.4433	19474.15	18746.5
795.6768	167.6844	19120.8	18393.05
795.8187	169.925	18819.8	18087.2
795.9606	172.1651	18464.9	17735.5
796.1025	174.4047	18207.4	17473.5
796.2445	176.6439	17939.6	17203.15
796.3864	178.8825	17703.65	16962.75
796.5284	181.1206	17562.8	16821.7
796.6704	183.3582	17419.1	16670
796.8124	185.5954	17313.3	16559.45
796.9544	187.832	17200.5	16445.3
797.0965	190.0681	17168.55	16409.6
797.2386	192.3037	17188.5	16428.8
797.3806	194.5388	17199.4	16435.1
797.5228	196.7734	17278.05	16509.8
797.6649	199.0075	17306.6	16541.85
797.807	201.2411	17479.35	16707.7
797.9492	203.4742	17542.85	16771.15
798.0914	205.7068	17703.05	16926.8
798.2336	207.9389	17817.8	17046.5
798.3758	210.1704	18003.9	17237.95
798.518	212.4015	18091.45	17337
798.6603	214.632	18282.55	17527.9
798.8025	216.862	18481.4	17727.45
798.9448	219.0915	18636.55	17879.15
799.0871	221.3205	18895.05	18135.65
799.2294	223.549	19138.55	18384.05
799.3718	225.777	19501.15	18748.2
799.5141	228.0044	19874.85	19113.65
799.6565	230.2314	20353.95	19595.2
799.7989	232.4578	20835.15	20072.65
799.9413	234.6837	21248.4	20478.25
800.0837	236.909	21488.5	20710.55
800.2262	239.1339	21503.3	20702.25
800.3687	241.3582	21242.4	20457.1
800.5111	243.582	20914.2	20098.35
800.6536	245.8053	20524.2	19721.4
800.7961	248.0281	20200.75	19407.1
800.9387	250.2503	19914.15	19113.65
801.0812	252.472	19764.25	18961
801.2238	254.6932	19703.45	18901.45
801.3664	256.9139	19590.15	18790.9
801.509	259.134	19592	18783.25
801.6516	261.3536	19552.3	18747.2
801.7942	263.5727	19559.6	18747.8
801.9369	265.7912	19522.5	18714
802.0795	268.0092	19510.95	18703.9
802.2222	270.2267	19495.2	18689.3
802.3649	272.4436	19410	18603.25
802.5076	274.6601	19391.2	18571.9
802.6504	276.8759	19316.7	18504
802.7931	279.0913	19292.35	18479.1
802.9359	281.3061	19322.45	18505.2
803.0787	283.5204	19392.8	18570.3
803.2215	285.7341	19494.05	18670.35
803.3643	287.9473	19695.7	18861.1
803.5071	290.16	19909.6	19084.45
803.6499	292.3721	20228.35	19408.15
803.7928	294.5837	20710.45	19891.85
803.9357	296.7947	21042.3	20221.7
804.0786	299.0052	21245.15	20424.45
804.2215	301.2152	21142.7	20318.9
804.3644	303.4246	20808.7	19988.4
804.5074	305.6334	20271.15	19451.45
804.6503	307.8418	19765.2	18939.5
804.7933	310.0495	19378.45	18551.35
804.9363	312.2568	19038.65	18207.9
805.0793	314.4635	18834.35	18002.75
805.2223	316.6696	18756.25	17927.7
805.3653	318.8752	18696.75	17854.05
805.5084	321.0802	18773.55	17936.1
805.6514	323.2847	18883.4	18044.75
805.7945	325.4887	18946.15	18107.8
805.9376	327.692	18907.2	18064.75
806.0807	329.8949	18836	17995.15
806.2238	332.0972	18592.55	17750.55
806.367	334.2989	18286.35	17442.3
806.5101	336.5001	18002	17158.2
806.6533	338.7007	17830.35	16989
806.7965	340.9008	17725.6	16881.3
806.9397	343.1003	17616.7	16767.45
807.0829	345.2992	17547.35	16698.85
807.2261	347.4976	17556	16710.15
807.3693	349.6955	17539.05	16685.15
807.5126	351.8927	17616.35	16764.15
807.6559	354.0895	17638.95	16775.2
807.7991	356.2856	17703.8	16853.3
807.9424	358.4812	17673	16817.45
808.0857	360.6763	17753.45	16894.65
808.2291	362.8707	17716.45	16853.7
808.3724	365.0646	17756.35	16895
808.5158	367.258	17761.9	16902.1
808.6591	369.4508	17801.25	16936.45
808.8025	371.643	17898.8	17032.25
808.9459	373.8346	17886.35	17016.55
809.0893	376.0257	17898.35	17029.3
809.2327	378.2162	17778.25	16912.45
809.3762	380.4062	17688.75	16822.6
809.5196	382.5956	17503.5	16638.9
809.6631	384.7844	17416.85	16556.95
809.8066	386.9726	17347.05	16492.2
809.9501	389.1603	17301.8	16444.6
810.0936	391.3474	17275	16385.3
810.2371	393.5339	17262.9	16397.95
810.3806	395.7199	17217.2	16359.25
810.5241	397.9052	17262.2	16406.35
810.6677	400.09	17288.75	16428.45
810.8113	402.2743	17315.5	16460.15
810.9548	404.4579	17387.1	16527
811.0984	406.641	17574.85	16715.05
811.2421	408.8235	17816.65	16956.4
811.3857	411.0054	18140.3	17274.6
811.5293	413.1868	18595	17724.9
811.673	415.3675	18935.65	18058.7
811.8166	417.5477	19183.65	18313.05
811.9603	419.7273	19243.2	18364.35
812.104	421.9064	19157.8	18276
812.2477	424.0848	18970.15	18096.65
812.3914	426.2627	18791.75	17917.65
812.5351	428.4399	18478	17600.7
812.6788	430.6166	18125.1	17244.9
812.8226	432.7928	17745.1	16864.15
812.9663	434.9683	17411.1	16530.9
813.1101	437.1432	17244.9	16371.4
813.2539	439.3176	17047.75	16178.7
813.3977	441.4914	16962	16097.05
813.5415	443.6645	16956.65	16082.7
813.6853	445.8371	16866.6	15991.1
813.8291	448.0091	16793.85	15919.05
813.973	450.1806	16792.05	15916.5
814.1168	452.3514	16741.6	15869.5
814.2607	454.5216	16730	15846
814.4046	456.6913	16689.65	15810.35
814.5485	458.8603	16707.7	15831.7
814.6924	461.0288	16789.75	15919.55
814.8363	463.1967	16802.85	15935.6
814.9802	465.3639	16953.6	16078.1
815.1241	467.5306	17045.45	16172.9
815.2681	469.6967	17192.15	16323.55
815.412	471.8622	17343.4	16474.95
815.556	474.0271	17549.1	16682.4
815.7	476.1914	17610.9	16733.15
815.844	478.3551	17632.45	16753.85
815.988	480.5182	17631.35	16754.05
816.132	482.6807	17599.65	16731.15
816.276	484.8426	17711.25	16850.6
816.4201	487.0039	17984.05	17115.6
816.5641	489.1647	18375.1	17494.85
816.7082	491.3248	18817.9	17938.85
816.8522	493.4843	19060.9	18189.55
816.9963	495.6432	19033.35	18159.8
817.1404	497.8015	18967.65	18081.8
817.2845	499.9592	19003.4	18114.6
817.4286	502.1163	18972.85	18083.4
817.5727	504.2728	18737.45	17855.75
817.7168	506.4287	18478.25	17606.3
817.861	508.5839	18016.65	17146.3
818.0051	510.7386	17682.9	16804.05
818.1493	512.8927	17502.8	16615.8
818.2935	515.0461	17383.95	16495.3
818.4377	517.199	17339.05	16453.7
818.5818	519.3512	17306.8	16419.55
818.726	521.5029	17387.5	16498.2
818.8703	523.6539	17463.15	16577.8
819.0145	525.8043	17471.85	16581.3
819.1587	527.9541	17525.75	16631.75
819.303	530.1033	17550.15	16657.65
819.4472	532.2519	17584.9	16693.15
819.5915	534.3999	17730	16838.85
819.7357	536.5472	18004.95	17118.2
819.88	538.694	18505.9	17622
820.0243	540.8401	19116.25	18227.35
820.1686	542.9856	19654.05	18749.85
820.3129	545.1305	19844.45	18933.75
820.4572	547.2748	19731.95	18822.3
820.6016	549.4185	19370.55	18465.05
820.7459	551.5615	19006	18102.35
820.8902	553.704	18823.85	17919.2
821.0346	555.8458	18764.05	17865.65
821.1789	557.987	18793.1	17896.85
821.3233	560.1276	18755.2	17856.85
821.4677	562.2675	18732	17830.8
821.6121	564.4069	18735.05	17832.85
821.7565	566.5456	18702.5	17803.8
821.9009	568.6837	18631.55	17736.6
822.0453	570.8212	18339.65	17445.6
822.1897	572.958	18081.6	17183.4
822.3342	575.0942	17840.7	16947.85
822.4786	577.2299	17682.7	16790.1
822.6231	579.3648	17639.25	16761.25
822.7675	581.4992	17699.65	16829.4
822.912	583.6329	17909.95	17042.55
823.0565	585.766	18175.05	17299.1
823.201	587.8985	18317.35	17436.95
823.3454	590.0304	18305.4	17402.3
823.4899	592.1616	18251.65	17348.3
823.6345	594.2922	18175.45	17275.05
823.779	596.4222	18009.25	17103.55
823.9235	598.5515	17879.05	16973.65
824.068	600.6802	17735.45	16833.05
824.2126	602.8083	17573.2	16668.05
824.3571	604.9358	17485.25	16579.8
824.5017	607.0626	17410.65	16502.75
824.6462	609.1888	17381.05	16470.7
824.7908	611.3144	17330.8	16418.5
824.9354	613.4393	17211.45	16296.75
825.08	615.5636	17093.25	16183.2
825.2246	617.6873	17010.3	16102.4
825.3692	619.8103	16985.85	16076.75
825.5138	621.9327	16882.45	15978.85
825.6584	624.0544	16883.45	15981.3
825.803	626.1756	16876.25	15976.6
825.9477	628.2961	16830.9	15924.5
826.0923	630.4159	16783.4	15875.25
826.237	632.5351	16743.3	15833.9
826.3816	634.6537	16682.3	15767.35
826.5263	636.7716	16683.45	15766.6
826.6709	638.8889	16707.65	15790.65
826.8156	641.0056	16743.95	15827.4
826.9603	643.1216	16754.75	15839.3
827.105	645.237	16773.45	15860.35
827.2497	647.3518	16754.35	15846.95
827.3944	649.4659	16817.2	15915.95
827.5391	651.5793	16820.9	15918.35
827.6838	653.6922	16818.85	15914.1
827.8285	655.8043	16826.65	15919.95
827.9733	657.9159	16835.45	15928.45
828.118	660.0268	16763.3	15857.05
828.2627	662.137	16687.35	15772.3
828.4075	664.2466	16695.35	15775.25
828.5522	666.3556	16679.7	15763.1
828.697	668.4639	16658.9	15746.55
828.8418	670.5716	16689.3	15786.3
828.9865	672.6786	16827.1	15916.5
829.1313	674.785	16847	15926.2
829.2761	676.8907	16927.1	16014.45
829.4209	678.9958	17062.75	16154
829.5657	681.1002	17029.65	16117
829.7105	683.204	17028.2	16103.1
829.8553	685.3072	16952.35	16033.65
830.0001	687.4097	16912.35	15996.6
830.1449	689.5115	16877	15956.5
830.2898	691.6127	16840.4	15927.1
830.4346	693.7132	16765.6	15857.05
830.5794	695.8131	16747.95	15813.75
830.7243	697.9123	16751.05	15827.7
830.8691	700.0109	16720.3	15800
831.014	702.1089	16713.1	15793.25
831.1588	704.2061	16729.3	15810.35
831.3037	706.3028	16759.45	15836.85
831.4486	708.3987	16839.95	15921.2
831.5935	710.4941	16928.35	16010.9
831.7383	712.5887	17119.2	16198.85
831.8832	714.6827	17418.85	16494.3
832.0281	716.7761	17746	16831.25
832.173	718.8688	18146.15	17225.6
832.3179	720.9608	18351.3	17423.6
832.4628	723.0522	18435.25	17503.45
832.6077	725.1429	18251.05	17324.2
832.7527	727.233	17928	17000.95
832.8976	729.3224	17708.7	16788.75
833.0425	731.4112	17413.15	16493.3
833.1874	733.4993	17179.2	16253.55
833.3324	735.5867	17027.6	16104.8
833.4773	737.6735	16970.35	16048.25
833.6222	739.7596	16910.45	15986.15
833.7672	741.845	16834.25	15912.8
833.9122	743.9298	16841.45	15916.7
834.0571	746.014	16871.55	15946.95
834.2021	748.0974	16926.8	15995.35
834.347	750.1802	16915	15988.3
834.492	752.2624	16910.45	15980.85
834.637	754.3439	16940.55	16013
834.782	756.4247	16979.35	16038.35
834.9269	758.5048	17071.7	16144.45
835.0719	760.5843	17306.65	16375.9
835.2169	762.6631	17596.4	16665.85
835.3619	764.7413	18041.45	17115.85
835.5069	766.8188	18634.85	17705.45
835.6519	768.8956	19076.1	18145.35
835.7969	770.9718	19410.05	18481.75
835.9419	773.0473	19259.85	18332.85
836.0869	775.1221	18937.45	18008.6
836.232	777.1962	18600.55	17670.55
836.377	779.2697	18392.6	17459.1
836.522	781.3426	18456	17506.85
836.667	783.4147	18705.8	17773.85
836.8121	785.4862	19041.95	18111.1
836.9571	787.557	19090.65	18156.1
837.1021	789.6271	18746.05	17814.55
837.2472	791.6966	18233.55	17301.9
837.3922	793.7654	17705.1	16773.2
837.5373	795.8335	17408.3	16476.6
837.6823	797.901	17225.95	16295.95
837.8274	799.9678	17142.8	16206.5
837.9724	802.0339	17172.6	16235.95
838.1175	804.0993	17242.5	16296.8
838.2626	806.1641	17235.95	16303.8
838.4076	808.2282	17199.25	16265.55
838.5527	810.2916	17135.4	16198.9
838.6978	812.3544	17047.45	16117.05
838.8428	814.4164	16962.45	16031.05
838.9879	816.4778	16983.2	16045.55
839.133	818.5385	16980.75	16043.7
839.2781	820.5986	17055.7	16117.25
839.4232	822.658	17166.15	16230.4
839.5682	824.7166	17255.95	16319.7
839.7133	826.7747	17436.4	16500.9
839.8584	828.832	17639.2	16702.4
840.0035	830.8886	17738.5	16801.45
840.1486	832.9446	17891.65	16953.5
840.2937	834.9999	17953.85	17017.6
840.4388	837.0545	17998.2	17060.45
840.5839	839.1085	18057.7	17120.4
840.729	841.1618	18058	17118.35
840.8741	843.2143	18003.7	17069.6
841.0192	845.2662	17922.15	16984.5
841.1643	847.3175	17899.45	16959.85
841.3095	849.368	17782.75	16845.5
841.4546	851.4179	17648.7	16710.8
841.5997	853.467	17502.7	16565.7
841.7448	855.5155	17426.4	16492.65
841.8899	857.5633	17333.1	16397.1
842.0351	859.6105	17218.55	16277.55
842.1802	861.6569	17169.3	16229.9
842.3253	863.7027	17122.25	16182.95
842.4704	865.7478	17145.1	16205.05
842.6156	867.7922	17180.95	16242.2
842.7607	869.8359	17192.35	16250.4
842.9058	871.8789	17334.75	16394.05
843.0509	873.9212	17535.25	16563.25
843.1961	875.9629	17646.15	16703.6
843.3412	878.0039	17852.2	16911
843.4863	880.0441	17943.9	17004.8
843.6315	882.0837	17957.4	17021.35
843.7766	884.1226	17926.3	16983.6
843.9218	886.1609	17795.3	16858.7
844.0669	888.1984	17703.9	16763.25
844.212	890.2352	17720.1	16780.9
844.3572	892.2714	17676.8	16730.85
844.5023	894.3069	17692.1	16752.5
844.6475	896.3416	17589.85	16649.7
844.7926	898.3757	17627.45	16685.15
844.9377	900.4091	17619.05	16677.2
845.0829	902.4418	17621.85	16674.65
845.228	904.4739	17636.8	16690.65
845.3732	906.5052	17651.7	16707.05
845.5183	908.5358	17535.6	16594.9
845.6635	910.5658	17398.75	16453.45
845.8086	912.595	17270.5	16326.6
845.9538	914.6236	17103.75	16162.2
846.0989	916.6515	17090.2	16148.1
846.2441	918.6786	17056.75	16112.25
846.3892	920.7051	17166.45	16221.35
846.5344	922.7309	17270.7	16327.65
846.6795	924.756	17313.3	16368.85
846.8246	926.7804	17440.25	16497.25
846.9698	928.8041	17360.25	16416.05
847.1149	930.8272	17422.45	16479.4
847.2601	932.8495	17383.25	16440.9
847.4052	934.8711	17304.5	16362.95
847.5504	936.892	17128.3	16182.95
847.6955	938.9123	16998.1	16054.7
847.8407	940.9318	16916.1	15972.6
847.9858	942.9506	16794.85	15852.9
848.131	944.9688	16665.2	15720.5
848.2761	946.9862	16640.4	15695.45
848.4213	949.003	16537.7	15594.7
848.5664	951.019	16564.85	15624.55
848.7115	953.0344	16579.9	15636.8
848.8567	955.0491	16626.4	15681.65
849.0018	957.063	16744.6	15802.65
849.147	959.0763	16887.3	15945.75
849.2921	961.0888	16891.95	15948.45
849.4373	963.1007	16988.65	16048.7
849.5824	965.1119	17080.8	16146.65
849.7275	967.1223	17066.55	16137.55
849.8727	969.1321	17099.7	16171.55
850.0178	971.1412	17153.5	16221.2
850.1629	973.1495	17195.75	16259.2
850.3081	975.1572	17244.7	16268
850.4532	977.1641	17275.05	16331.8
850.5983	979.1704	17248.1	16302.8
850.7435	981.1759	17235.2	16286.25
850.8886	983.1808	17311.75	16364.8
851.0337	985.1849	17395.45	16441.9
851.1788	987.1884	17582.4	16642.15
851.324	989.1911	17754.7	16812.85
851.4691	991.1932	17898.3	16959.2
851.6142	993.1945	17919.65	16977.15
851.7593	995.1951	17859.6	16914.85
851.9045	997.1951	17855.1	16907.1
852.0496	999.1943	17729.55	16787.5
852.1947	1001.1928	17719.95	16775.2
852.3398	1003.1906	17681.9	16738.45
852.4849	1005.1877	17763.25	16817.6
852.63	1007.1841	17709.75	16767.3
852.7751	1009.1798	17624.35	16681.95
852.9202	1011.1748	17448.65	16506.7
853.0653	1013.1691	17231.75	16288.85
853.2104	1015.1627	17020.55	16077.9
853.3555	1017.1556	16811.45	15874.3
853.5006	1019.1477	16740.7	15799.7
853.6457	1021.1392	16641.75	15709.7
853.7908	1023.1299	16640.55	15705.7
853.9359	1025.12	16614.45	15690.4
854.081	1027.1093	16693.35	15781.1
854.2261	1029.0979	16744.4	15830.55
854.3712	1031.0859	16798.85	15877.95
854.5163	1033.0731	16807.1	15879
854.6613	1035.0596	16753.45	15821.55
854.8064	1037.0454	16615.15	15678.9
854.9515	1039.0304	16495.5	15556.85
855.0965	1041.0148	16363	15424.5
855.2416	1042.9985	16247.9	15306
855.3867	1044.9814	16257.4	15320.6
855.5317	1046.9636	16213.45	15273.25
855.6768	1048.9452	16189.15	15249.65
855.8219	1050.926	16195.95	15256.35
855.9669	1052.9061	16189.2	15249.35
856.112	1054.8855	16180.15	15242.2
856.257	1056.8642	16220.6	15282.65
856.4021	1058.8421	16277.55	15332.3
856.5471	1060.8194	16301.25	15360
856.6921	1062.7959	16325.55	15384.75
856.8372	1064.7717	16317.8	15375.65
856.9822	1066.7469	16378.15	15434.45
857.1272	1068.7213	16367.8	15426.75
857.2723	1070.695	16362.7	15423.9
857.4173	1072.6679	16290.1	15347.65
857.5623	1074.6402	16263.65	15322.25
857.7073	1076.6117	16233.5	15285.7
857.8523	1078.5826	16245.55	15302.1
857.9973	1080.5527	16261.05	15317.15
858.1423	1082.5221	16374.4	15433.35
858.2873	1084.4908	16560.15	15620.8
858.4323	1086.4587	16705.2	15762.05
858.5773	1088.426	16870.1	15929.8
858.7223	1090.3925	16852.45	15905.45
858.8673	1092.3584	16832.7	15891.15
859.0123	1094.3235	16663.85	15725.25
859.1573	1096.2879	16611.05	15668.1
859.3022	1098.2515	16615.95	15673.85
859.4472	1100.2145	16666.95	15728.05
859.5922	1102.1767	16739.05	15799.35
859.7371	1104.1382	16891.55	15949.95
859.8821	1106.099	17081.85	16141.75
860.027	1108.0591	17265.85	16327.1
860.172	1110.0185	17408.1	16466.2
860.3169	1111.9771	17451.8	16511.25
860.4619	1113.9351	17275.85	16337.5
860.6068	1115.8923	16915.3	15977.3
860.7517	1117.8488	16633.05	15689.3
860.8967	1119.8045	16367.35	15428.3
861.0416	1121.7596	16236.1	15299.1
861.1865	1123.7139	16142.8	15204.95
861.3314	1125.6675	16170.65	15232.7
861.4763	1127.6204	16253.4	15315.6
861.6212	1129.5726	16196.45	15253.05
861.7661	1131.524	16245.5	15304.1
861.911	1133.4748	16244.15	15303.95
862.0559	1135.4248	16217.95	15278.7
862.2008	1137.3741	16231.7	15294.05
862.3457	1139.3226	16198.5	15258.05
862.4905	1141.2705	16168.7	15228.5
862.6354	1143.2176	16038.4	15093.45
862.7803	1145.164	16046.2	15103.9
862.9251	1147.1097	16100.75	15161.95
863.07	1149.0546	16065.2	15121.85
863.2148	1150.9989	16009.6	15072.15
863.3597	1152.9424	15882.8	14944.4
863.5045	1154.8852	15703.05	14761.1
863.6493	1156.8272	15583.3	14645.25
863.7942	1158.7686	15562.3	14617.65
863.939	1160.7092	15470.2	14529.45
864.0838	1162.6491	15472.45	14532.05
864.2286	1164.5883	15540.65	14601.75
864.3734	1166.5267	15613.6	14670.85
864.5182	1168.4644	15750.25	14811.6
864.663	1170.4014	15943.65	14999.35
864.8078	1172.3377	16204.25	15265.7
864.9526	1174.2732	16388.4	15452.7
865.0974	1176.2081	16631	15696.3
865.2421	1178.1421	16849.85	15909.2
865.3869	1180.0755	17046	16108.2
865.5317	1182.0082	17082.7	16146.3
865.6764	1183.9401	17071.6	16138.6
865.8212	1185.8713	16942.35	16011.3
865.9659	1187.8017	16699.45	15775.95
866.1106	1189.7315	16443.55	15526.15
866.2554	1191.6605	16136.7	15219.6
866.4001	1193.5888	15973.05	15051.45
866.5448	1195.5163	15856.75	14927.8
866.6895	1197.4432	15730.75	14798.75
866.8342	1199.3693	15686.15	14752.55
866.9789	1201.2947	15615.3	14673.3
867.1236	1203.2193	15595.9	14659.75
867.2683	1205.1432	15612.95	14679.85
867.413	1207.0664	15654.35	14718.35
867.5576	1208.9889	15691	14753.2
867.7023	1210.9106	15757	14824.5
867.847	1212.8316	15783.2	14849.5
867.9916	1214.7519	15847.3	14902.85
868.1363	1216.6715	15848.95	14915.45
868.2809	1218.5903	15825.75	14890.35
868.4255	1220.5084	15804.6	14867.85
868.5701	1222.4257	15809.6	14876.35
868.7148	1224.3424	15734.8	14801.85
868.8594	1226.2583	15767.6	14835.55
869.004	1228.1735	15862.6	14930.2
869.1486	1230.0879	15959.45	15025.6
869.2932	1232.0016	16078.15	15147.95
869.4377	1233.9146	16114.65	15178.65
869.5823	1235.8269	15994.75	15056.8
869.7269	1237.7384	15924.2	14990.4
869.8715	1239.6492	15694.7	14760.9
870.016	1241.5592	15585.25	14649.05
870.1606	1243.4686	15541.45	14605.75
870.3051	1245.3772	15476.55	14542.75
870.4496	1247.285	15442.65	14511.45
870.5941	1249.1922	15427	14492.15
870.7387	1251.0986	15387.85	14456.85
870.8832	1253.0042	15386.5	14448.1
871.0277	1254.9092	15424.1	14489.8
871.1722	1256.8134	15509.05	14578.9
871.3167	1258.7169	15629.2	14696.8
871.4611	1260.6196	15770.35	14839.75
871.6056	1262.5216	15960.65	15026.25
871.7501	1264.4229	16131.15	15202.25
871.8945	1266.3234	16259.3	15326.8
872.039	1268.2232	16310.15	15377.6
872.1834	1270.1223	16322.95	15386.25
872.3278	1272.0207	16327.1	15391.5
872.4723	1273.9183	16243.9	15302.35
872.6167	1275.8151	16183.4	15253
872.7611	1277.7113	16110.25	15178.75
872.9055	1279.6067	15975.4	15045.6
873.0499	1281.5014	15878.7	14946.4
873.1943	1283.3953	15788.3	14852.4
873.3386	1285.2885	15743.8	14811.25
873.483	1287.181	15776.65	14842.55
873.6274	1289.0727	15843.3	14910.25
873.7717	1290.9637	15911.85	14979.95
873.9161	1292.854	16044.6	15113.55
874.0604	1294.7435	16154.75	15223.65
874.2047	1296.6323	16359.45	15426.1
874.349	1298.5204	16661.8	15727
874.4933	1300.4077	16872.4	15941.95
874.6376	1302.2943	17027.25	16094.05
874.7819	1304.1802	17096.5	16164.8
874.9262	1306.0653	16970.25	16038.9
875.0705	1307.9497	16785.65	15852.55
875.2147	1309.8333	16618.6	15687.95
875.359	1311.7162	16540.95	15608.75
875.5032	1313.5984	16586.55	15652.65
875.6475	1315.4798	16638.35	15697.95
875.7917	1317.3605	16735.8	15788.6
875.9359	1319.2405	16795.65	15862.1
876.0801	1321.1197	16802.5	15869.75
876.2243	1322.9982	16649.3	15714.45
876.3685	1324.876	16617.85	15689.1
876.5127	1326.753	16511.25	15583.4
876.6569	1328.6293	16475.95	15542.5
876.801	1330.5048	16501	15563.4
876.9452	1332.3796	16442.05	15510.45
877.0893	1334.2537	16402.7	15441.85
877.2335	1336.127	16331.6	15399.7
877.3776	1337.9996	16303.75	15371.75
877.5217	1339.8714	16267.4	15335.2
877.6658	1341.7426	16218.55	15243.55
877.8099	1343.6129	16175.25	15245.45
877.954	1345.4826	16123.65	15189.45
878.0981	1347.3515	16071.8	15135.8
878.2422	1349.2196	15994.15	15060.2
878.3862	1351.087	16007.2	15072.25
878.5303	1352.9537	16049.55	15116.1
878.6743	1354.8197	16170.05	15234.4
878.8184	1356.6849	16304.05	15370.2
878.9624	1358.5493	16370.55	15436.1
879.1064	1360.4131	16405.2	15475.75
879.2504	1362.276	16358.4	15427.55
879.3944	1364.1383	16176.6	15243.9
879.5384	1365.9998	15967.2	15030.45
879.6823	1367.8606	15649.9	14717.8
879.8263	1369.7206	15377.8	14443.8
879.9702	1371.5799	15147.95	14213.75
880.1142	1373.4384	14994	14061.9
880.2581	1375.2962	14835.2	13902.45
880.402	1377.1533	14572.7	13641.5
880.5459	1379.0096	14252.05	13324.5
880.6898	1380.8652	13947.8	13020.2
880.8337	1382.7201	13755.8	12828.85
880.9776	1384.5742	13493.45	12562.5
881.1215	1386.4275	13357.9	12427.35
881.2653	1388.2802	13207.6	12278.5
881.4092	1390.132	13054.05	12125.3
881.553	1391.9832	13006.2	12074.05
881.6968	1393.8336	12910.85	11979.55
881.8406	1395.6832	12888.85	11954.85
881.9844	1397.5322	12818.15	11888.15
882.1282	1399.3803	12794.4	11858.8
882.272	1401.2278	12733.55	11803.7
882.4158	1403.0745	12717.15	11789.25
882.5595	1404.9204	12676.45	11750.45
882.7033	1406.7656	12714.75	11785.7
882.847	1408.6101	12694.75	11765
882.9908	1410.4538	12727.15	11798.95
883.1345	1412.2968	12723.1	11791.55
883.2782	1414.139	12746.5	11818.15
883.4219	1415.9805	12833.2	11905.6
883.5656	1417.8213	12889	11952.45
883.7092	1419.6613	12996.95	12067.75
883.8529	1421.5006	13175.1	12246.05
883.9965	1423.3391	13406.2	12476.55
884.1402	1425.1769	13722.05	12791.9
884.2838	1427.0139	14199.75	13270.4
884.4274	1428.8502	14791.1	13860.6
884.571	1430.6858	15341.95	14413.5
884.7146	1432.5206	15739.6	14813.25
884.8582	1434.3547	15989.2	15059.85
885.0018	1436.188	16013.6	15083.7
885.1453	1438.0206	15949.25	15020.35
885.2889	1439.8524	15754.6	14825.3
885.4324	1441.6835	15699.8	14772.35
885.5759	1443.5139	15566.2	14635.25
885.7194	1445.3435	15457.75	14530.5
885.8629	1447.1724	15435.7	14508.7
886.0064	1449.0005	15366.7	14438.9
886.1499	1450.8279	15252.45	14326
886.2933	1452.6545	15212.85	14287.4
886.4368	1454.4804	15225.35	14299.85
886.5802	1456.3056	15207.95	14277.8
886.7237	1458.13	15077.85	14155.9
886.8671	1459.9536	14881.7	13953.4
887.0105	1461.7766	14534.7	13611.8
887.1539	1463.5987	14115.55	13187.7
887.2972	1465.4202	13721.3	12793.4
887.4406	1467.2409	13380.05	12453.45
887.584	1469.0608	13087.45	12161.05
887.7273	1470.88	12807.9	11882.2
887.8706	1472.6984	12588.35	11664.05
888.0139	1474.5161	12349.3	11421.35
888.1572	1476.3331	12210.95	11282.8
888.3005	1478.1493	12094.7	11167.5
888.4438	1479.9648	11983.25	11058.3
888.5871	1481.7795	11869.2	10941.45
888.7303	1483.5935	11816.2	10888.2
888.8736	1485.4067	11724.7	10795.75
889.0168	1487.2192	11666.7	10739.55
889.16	1489.031	11630.95	10701.65
889.3032	1490.842	11564.4	10639.5
889.4464	1492.6522	11546.35	10616.9
889.5896	1494.4618	11512.1	10585.55
889.7327	1496.2705	11470.65	10542.15
889.8759	1498.0785	11436.75	10509.35
890.019	1499.8858	11383.8	10458.5
890.1622	1501.6924	11357.95	10431.7
890.3053	1503.4981	11323.8	10396.75
890.4484	1505.3032	11274.1	10348.65
890.5914	1507.1075	11264.5	10338.4
890.7345	1508.911	11201.5	10275.35
890.8776	1510.7138	11167.95	10242
891.0206	1512.5159	11107.85	10184.15
891.1637	1514.3172	11061.6	10138.1
891.3067	1516.1178	11017.9	10095.1
891.4497	1517.9176	10976.6	10049.2
891.5927	1519.7166	10935.7	10011.85
891.7357	1521.515	10908.35	9979.25
891.8786	1523.3126	10840.55	9922.1
892.0216	1525.1094	10805.15	9881.3
892.1645	1526.9055	10781.9	9859.1
892.3074	1528.7008	10727.5	9805.15
892.4503	1530.4954	10673.9	9750.5
892.5932	1532.2893	10643.05	9725.5
892.7361	1534.0824	10606.75	9683.55
892.879	1535.8747	10599.7	9681.9
893.0218	1537.6663	10592.4	9675.55
893.1647	1539.4572	10546.45	9625.4
893.3075	1541.2473	10534.6	9612.9
893.4503	1543.0367	10521.15	9604.4
893.5931	1544.8253	10491.65	9566.55
893.7359	1546.6132	10496.55	9571.3
893.8787	1548.4003	10475.7	9544
894.0214	1550.1867	10489.8	9564.25
894.1642	1551.9723	10487.45	9564.5
894.3069	1553.7572	10499.5	9582.65
894.4496	1555.5414	10496.35	9583.85
894.5923	1557.3247	10557.3	9644.9
894.735	1559.1074	10630.95	9720
894.8777	1560.8893	10672.45	9761.55
895.0204	1562.6705	10719.7	9803.65
895.163	1564.4509	10774.25	9866.15
895.3056	1566.2305	10852	9943.3
895.4482	1568.0094	10912.2	10002.35
895.5908	1569.7876	10958.2	10048.35
895.7334	1571.565	10964.85	10051.65
895.876	1573.3417	10973.75	10063.5
896.0186	1575.1176	10985.1	10076.4
896.1611	1576.8928	10922.15	10013.85
896.3036	1578.6672	10819.8	9914.2
896.4461	1580.4409	10713.75	9812.5
896.5886	1582.2138	10597.2	9687.15
896.7311	1583.986	10488.3	9580.6
896.8736	1585.7575	10412.35	9505.45
897.0161	1587.5282	10323.6	9420.35
897.1585	1589.2981	10308	9405
897.3009	1591.0673	10234.55	9333.6
897.4433	1592.8358	10225.9	9323.05
897.5857	1594.6035	10228.65	9319.25
897.7281	1596.3704	10220.85	9307
897.8705	1598.1366	10229.85	9321.35
898.0128	1599.9021	10285.45	9377.7
898.1551	1601.6668	10296.4	9390.7
898.2975	1603.4308	10377.7	9472
898.4398	1605.194	10443.35	9531.75
898.5821	1606.9564	10533.65	9636.55
898.7243	1608.7182	10644.4	9747.25
898.8666	1610.4791	10753.45	9861.5
899.0088	1612.2394	10892.4	10003.1
899.1511	1613.9988	11084.8	10190.4
899.2933	1615.7576	11298.45	10399.3
899.4355	1617.5156	11525.55	10615.25
899.5776	1619.2728	11698.05	10791.05
899.7198	1621.0293	11849.2	10943.65
899.862	1622.785	11897.6	10994.3
900.0041	1624.54	11780.05	10880.9
900.1462	1626.2942	11621.15	10721.9
900.2883	1628.0477	11375.7	10473.7
900.4304	1629.8005	11129.5	10227
900.5725	1631.5525	10927.1	10028.15
900.7145	1633.3037	10737.7	9837.65
900.8566	1635.0542	10612.95	9714.25
900.9986	1636.804	10459.95	9559.55
901.1406	1638.553	10461.1	9477.55
901.2826	1640.3013	10355.5	9454.35
901.4245	1642.0488	10325.35	9427.45
901.5665	1643.7955	10320.4	9424.35
901.7085	1645.5416	10345.6	9450.35
901.8504	1647.2868	10404.2	9507.2
901.9923	1649.0313	10489.95	9590.05
902.1342	1650.7751	10639.75	9738.85
902.2761	1652.5181	10792.7	9896.3
902.4179	1654.2604	10987.65	10089.75
902.5598	1656.0019	11232.1	10336.15
902.7016	1657.7427	11532.05	10635.15
902.8434	1659.4828	11843	10942.45
902.9852	1661.222	12029.2	11128.05
903.127	1662.9606	12045.3	11146.55
903.2687	1664.6984	11835.7	10934.15
903.4105	1666.4354	11456.5	10551.1
903.5522	1668.1717	10964.75	10061.75
903.6939	1669.9072	10470.55	9567.75
903.8356	1671.642	10075.3	9166.95
903.9773	1673.3761	9733.05	8833.2
904.119	1675.1094	9417.5	8519.7
904.2606	1676.8419	9204.5	8305.3
904.4022	1678.5737	9035.9	8136.8
904.5439	1680.3048	8926.35	8022.8
904.6855	1682.0351	8809.9	7909.05
904.827	1683.7646	8693.3	7789.35
904.9686	1685.4934	8625.85	7723.65
905.1101	1687.2215	8560.65	7662.1
905.2517	1688.9488	8503.65	7604.3
905.3932	1690.6754	8454	7558.15
905.5347	1692.4012	8410.55	7511.2
905.6761	1694.1263	8341.6	7441.75
905.8176	1695.8506	8332.65	7433.15
905.9591	1697.5742	8275.85	7379
906.1005	1699.297	8244.55	7349.65
906.2419	1701.0191	8183.45	7291.25
906.3833	1702.7404	8135.75	7242.9
906.5246	1704.461	8100.55	7204.7
906.666	1706.1808	8064.95	7166.25
906.8073	1707.8999	8024.25	7128.35
906.9487	1709.6182	8019.15	7126.8
907.09	1711.3358	7976.05	7088.25
907.2313	1713.0527	7957.25	7067.8
907.3725	1714.7688	7923.95	7025.25
907.5138	1716.4841	7873.1	6977.65
907.655	1718.1987	7846.6	6944.6
907.7962	1719.9126	7806.9	6917.75
907.9374	1721.6257	7761.3	6871
908.0786	1723.338	7769.5	6878.1
908.2198	1725.0496	7713.5	6821.25
908.3609	1726.7605	7717.45	6824.45
908.502	1728.4706	7663	6771.35
908.6431	1730.18	7650.55	6760.65
908.7842	1731.8886	7627.75	6739.55
908.9253	1733.5964	7616.85	6705.1
909.0664	1735.3036	7589.65	6695.2
909.2074	1737.0099	7556.4	6666.55
909.3484	1738.7156	7546.6	6658.55
909.4894	1740.4204	7493.05	6598.95
909.6304	1742.1246	7492.95	6599.75
909.7714	1743.8279	7471.65	6581.25
909.9123	1745.5306	7440.05	6550.2
910.0532	1747.2325	7417	6526.6
910.1941	1748.9336	7383.5	6492.25
910.335	1750.634	7369.2	6473.45
910.4759	1752.3336	7341.05	6449.7
910.6168	1754.0325	7336.8	6449.6
910.7576	1755.7307	7295.45	6407.55
910.8984	1757.4281	7312.3	6420.55
911.0392	1759.1247	7283.1	6383.05
911.18	1760.8206	7296.75	6396
911.3208	1762.5158	7260.15	6362
911.4615	1764.2102	7226.6	6338.15
911.6022	1765.9039	7204.65	6314.3
911.7429	1767.5968	7189.25	6300.15
911.8836	1769.289	7157.95	6270.65
912.0243	1770.9804	7149.2	6260.25
912.1649	1772.6711	7130.2	6239.25
912.3056	1774.361	7103.95	6209.85
912.4462	1776.0502	7104.6	6208.45
912.5868	1777.7386	7089.65	6193.15
912.7274	1779.4263	7067.85	6176.3
912.8679	1781.1132	7048.1	6162.6
913.0084	1782.7994	7041.7	6155.6
913.149	1784.4849	7030.2	6143.95
913.2895	1786.1696	7007.65	6112.8
913.4299	1787.8535	6970.15	6083.9
913.5704	1789.5367	6973.8	6087.3
913.7108	1791.2192	6960.75	6074.1
913.8513	1792.9009	6941.4	6025.95
913.9917	1794.5818	6919.75	6028.2
914.132	1796.2621	6893.05	6002.4
914.2724	1797.9415	6877.85	5988
914.4128	1799.6202	6846.6	5956.4
914.5531	1801.2982	6855.75	5962.1
914.6934	1802.9755	6853.9	5962.2
914.8337	1804.6519	6822.95	5932.7
914.9739	1806.3277	6803.3	5915.1
915.1142	1808.0027	6773.85	5889.9
915.2544	1809.6769	6754.25	5869.65
915.3946	1811.3504	6732.15	5844.8
915.5348	1813.0231	6718.4	5832.35
915.675	1814.6951	6739.95	5852.75
915.8151	1816.3664	6713.05	5821.8
915.9553	1818.0369	6685.25	5797.2
916.0954	1819.7067	6699.5	5812.5
916.2355	1821.3757	6675.75	5785.45
916.3755	1823.044	6634.6	5744.9
916.5156	1824.7115	6657.5	5767.9
916.6556	1826.3783	6622.9	5734.5
916.7956	1828.0443	6585.3	5696.65
916.9356	1829.7096	6575.9	5686
917.0756	1831.3741	6582.2	5689.65
917.2155	1833.0379	6546.15	5658.8
917.3555	1834.701	6545.1	5656.35
917.4954	1836.3633	6508.65	5623.85
917.6353	1838.0248	6502.8	5617.25
917.7751	1839.6856	6501.9	5617.4
917.915	1841.3457	6473.4	5585.65
918.0548	1843.005	6477.1	5587.65
918.1946	1844.6636	6460	5573.65
918.3344	1846.3214	6440.15	5549.9
918.4742	1847.9785	6436.35	5547.1
918.6139	1849.6349	6438.3	5547.25
918.7537	1851.2904	6425.3	5526.25
918.8934	1852.9453	6383.9	5491.7
919.0331	1854.5994	6367.55	5476
919.1727	1856.2528	6365.8	5473.95
919.3124	1857.9054	6360.6	5471.7
919.452	1859.5572	6353.75	5464.25
919.5916	1861.2083	6343.1	5452.4
919.7312	1862.8587	6335.5	5446.1
919.8708	1864.5084	6304.55	5414.25
920.0103	1866.1572	6305.25	5414.9
920.1498	1867.8054	6271.75	5381.2
920.2893	1869.4528	6252.85	5362.25
920.4288	1871.0994	6237.55	5347.6
920.5683	1872.7453	6244.05	5354.65
920.7077	1874.3905	6235.35	5328.15
920.8471	1876.0349	6195.6	5305
920.9865	1877.6786	6199.75	5308
921.1259	1879.3215	6186.25	5299.2
921.2653	1880.9637	6171	5280.25
921.4046	1882.6051	6158.6	5273.8
921.5439	1884.2458	6141.85	5251.4
921.6832	1885.8858	6111.15	5223.6
921.8225	1887.525	6110.15	5218.2
921.9617	1889.1634	6093.4	5204.8
922.101	1890.8011	6066.95	5176.7
922.2402	1892.4381	6042.15	5153.2
922.3794	1894.0743	6036.2	5145.95
922.5185	1895.7098	6028.5	5138.95
922.6577	1897.3446	6012.25	5122.05
922.7968	1898.9786	6014.7	5122.35
922.9359	1900.6118	5996.2	5108.4
923.075	1902.2443	5969.05	5081.25
923.214	1903.8761	5953.6	5064.6
923.3531	1905.5071	5927.15	5037.95
923.4921	1907.1374	5901.45	5013.85
923.6311	1908.7669	5901.05	5012.75
923.77	1910.3957	5882.95	4996.25
923.909	1912.0237	5854.95	4969.05
924.0479	1913.651	5842.4	4953
924.1868	1915.2776	5839.95	4954
924.3257	1916.9034	5808.65	4923.25
924.4646	1918.5285	5792.6	4907.35
924.6034	1920.1528	5782.95	4896.35
924.7422	1921.7764	5754.7	4867
924.881	1923.3992	5737.3	4849.35
925.0198	1925.0213	5697.1	4806.8
925.1586	1926.6427	5679.25	4794.05
925.2973	1928.2633	5751.35	4768.6
925.436	1929.8832	5693.45	4802.8
925.5747	1931.5023	5648.5	4760.25
925.7134	1933.1207	5645.95	4757
925.852	1934.7383	5629.1	4741.85
925.9906	1936.3552	5610.65	4725.5
926.1292	1937.9714	5585	4700.1
926.2678	1939.5868	5551.95	4662.4
926.4064	1941.2015	5545.1	4654.9
926.5449	1942.8154	5531.1	4641.05
926.6834	1944.4286	5487.65	4597.7
926.8219	1946.041	5487.6	4578.2
926.9604	1947.6528	5460.25	4566.25
927.0988	1949.2637	5438.6	4551.3
927.2372	1950.8739	5434.7	4547.05
927.3756	1952.4834	5419.4	4533
927.514	1954.0921	5408	4521.6
927.6523	1955.7001	5391.5	4501.65
927.7907	1957.3074	5362.8	4481.95
927.929	1958.9139	5365	4483.3
928.0673	1960.5197	5346.65	4461.7
928.2055	1962.1247	5315	4431.45
928.3438	1963.729	5285.15	4403.9
928.482	1965.3325	5272.85	4384.1
928.6202	1966.9353	5270.4	4386.4
928.7584	1968.5374	5258.65	4374.6
928.8965	1970.1387	5231.15	4347.25
929.0346	1971.7393	5219	4334.55
929.1727	1973.3392	5191.65	4308.65
929.3108	1974.9383	5170.65	4290.1
929.4489	1976.5366	5151.1	4267.4
929.5869	1978.1342	5146.5	4265.5
929.7249	1979.7311	5136.05	4252.95
929.8629	1981.3273	5129.25	4248.85
930.0009	1982.9227	5096.35	4212.1
930.1388	1984.5173	5093.55	4214.7
930.2767	1986.1112	5065.35	4186.25
930.4146	1987.7044	5049.15	4168.2
930.5525	1989.2968	5039.45	4158.05
930.6904	1990.8885	5035.65	4150.1
930.8282	1992.4795	5034.8	4154.85
930.966	1994.0697	5002.5	4124.25
931.1038	1995.6592	5014.3	4135.05
931.2415	1997.2479	4992.55	4111.55
931.3793	1998.8359	4971.65	4092.3
931.517	2000.4232	4944.2	4067.55
931.6547	2002.0097	4939.95	4065.15
931.7923	2003.5955	4915.25	4037.5
931.93	2005.1805	4923.25	4045.55
932.0676	2006.7648	4906.6	4028.5
932.2052	2008.3484	4877.95	3999.75
932.3427	2009.9312	4880.7	4003
932.4803	2011.5133	4868.35	3995.9
932.6178	2013.0946	4844.2	3968.25
932.7553	2014.6752	4839.65	3962.9
932.8928	2016.2551	4834.2	3953.05
933.0302	2017.8342	4820.95	3944.6
933.1676	2019.4126	4801.05	3926.95
933.305	2020.9902	4781.95	3908.35
933.4424	2022.5672	4770.65	3895.75
933.5798	2024.1433	4773.9	3892.6
933.7171	2025.7188	4739.85	3867.65
933.8544	2027.2935	4727.25	3851.7
933.9917	2028.8674	4720.3	3845.65
934.129	2030.4406	4720.95	3849.4
934.2662	2032.0131	4703.6	3830
934.4034	2033.5849	4680.15	3804.6
934.5406	2035.1559	4683.8	3810
934.6778	2036.7261	4674	3800.05
934.8149	2038.2957	4673.15	3796.5
934.952	2039.8645	4662.75	3783.1
935.0891	2041.4325	4670.9	3787.15
935.2262	2042.9998	4641.3	3766.8
935.3632	2044.5664	4624.8	3746.9
935.5002	2046.1323	4606.05	3730.65
935.6372	2047.6974	4597.85	3722.45
935.7742	2049.2617	4572.7	3700.95
935.9111	2050.8254	4570.05	3689.3
936.048	2052.3883	4582.85	3705.1
936.1849	2053.9504	4553.1	3672.9
936.3218	2055.5118	4550.9	3671.6
936.4586	2057.0725	4523.75	3641.7
936.5955	2058.6325	4503.75	3628.55
936.7323	2060.1917	4510.7	3636.75
936.869	2061.7502	4488	3610.85
937.0058	2063.3079	4472.65	3598.4
937.1425	2064.8649	4461	3584.15
937.2792	2066.4212	4464.2	3586.55
937.4159	2067.9767	4451.55	3572.4
937.5525	2069.5315	4448.95	3570.95
937.6891	2071.0856	4414.25	3539.6
937.8257	2072.6389	4403.15	3527.05
937.9623	2074.1915	4393.85	3519.8
938.0989	2075.7433	4357.55	3481.4
938.2354	2077.2945	4360.55	3484.25
938.3719	2078.8448	4344.7	3465.2
938.5084	2080.3945	4334.9	3454.95
938.6448	2081.9434	4330.9	3452.3
938.7812	2083.4916	4324.15	3443.15
938.9176	2085.039	4310.2	3426.3
939.054	2086.5857	4300.4	3412.3
939.1903	2088.1317	4296.8	3410.9
939.3267	2089.677	4296.3	3409.9
939.463	2091.2215	4281.35	3395.5
939.5992	2092.7652	4262.45	3374.75
939.7355	2094.3083	4253.85	3366.6
939.8717	2095.8506	4255.15	3373.9
940.0079	2097.3921	4222.85	3340.9
940.1441	2098.933	4227.75	3345.7
940.2802	2100.4731	4221.6	3343.4
940.4163	2102.0124	4243.65	3343.95
940.5524	2103.5511	4213.1	3330.6
940.6885	2105.089	4184.3	3301.75
940.8245	2106.6261	4196.55	3316.55
940.9606	2108.1626	4185.9	3305.5
941.0965	2109.6983	4194.4	3285.7
941.2325	2111.2332	4160.75	3279.7
941.3684	2112.7675	4158.9	3276.95
941.5044	2114.301	4134.55	3251.1
941.6403	2115.8337	4140.25	3256.95
941.7761	2117.3657	4122.35	3241.1
941.912	2118.897	4122.8	3238.4
942.0478	2120.4276	4116.3	3228.85
942.1835	2121.9575	4098.55	3216
942.3193	2123.4866	4112.65	3216.75
942.455	2125.0149	4081.2	3198.3
942.5907	2126.5426	4055.55	3176.6
942.7264	2128.0695	4059.25	3178.8
942.8621	2129.5956	4035.15	3160.8
942.9977	2131.1211	4039	3154.95
943.1333	2132.6458	4030.2	3152
943.2689	2134.1698	4017.7	3133.3
943.4044	2135.693	4018.85	3131.3
943.54	2137.2155	4017.65	3131.8
943.6755	2138.7373	3991.75	3110.7
943.8109	2140.2584	3987.85	3111.85
943.9464	2141.7787	3974.3	3092.1
944.0818	2143.2983	3955.7	3081.55
944.2172	2144.8171	3933.85	3060.6
944.3526	2146.3353	3934.7	3057.05
944.4879	2147.8527	3914.7	3037.3
944.6232	2149.3693	3920.35	3039.25
944.7585	2150.8853	3924.05	3040.9
944.8938	2152.4005	3894.05	3009.4
945.029	2153.9149	3892.85	3009.25
945.1642	2155.4287	3899.3	3017.2
945.2994	2156.9417	3895.9	3010.4
945.4346	2158.454	3866.05	2984.9
945.5697	2159.9655	3859	2981.15
945.7048	2161.4764	3846.65	2967.45
945.8399	2162.9865	3840.05	2960.05
945.9749	2164.4958	3830.15	2950.9
946.1099	2166.0045	3814.6	2934
946.2449	2167.5124	3814.25	2935.75
946.3799	2169.0195	3797.55	2916
946.5148	2170.526	3813.95	2932.85
946.6498	2172.0317	3785.5	2902.8
946.7846	2173.5367	3786.35	2904.5
946.9195	2175.0409	3776.6	2894.4
947.0543	2176.5445	3777.15	2895.05
947.1891	2178.0473	3779.65	2895.85
947.3239	2179.5494	3747.15	2861.1
947.4587	2181.0507	3753.8	2871.3
947.5934	2182.5513	3727.3	2847
947.7281	2184.0512	3733.7	2851.85
947.8628	2185.5504	3713.4	2830.55
947.9974	2187.0488	3694.1	2816.25
948.132	2188.5465	3679.95	2801.05
948.2666	2190.0435	3677.5	2796.1
948.4012	2191.5397	3663.5	2780.2
948.5357	2193.0353	3663.2	2781.45
948.6702	2194.5301	3650.95	2768.7
948.8047	2196.0241	3647.7	2761.05
948.9392	2197.5175	3645.75	2758.4
949.0736	2199.0101	3629.1	2739.15
949.208	2200.502	3620.65	2740
949.3424	2201.9931	3604.95	2723.75
949.4767	2203.4835	3570.4	2692.7
949.611	2204.9733	3584.3	2699.15
949.7453	2206.4622	3581.1	2704.45
949.8796	2207.9505	3566.65	2685.45
950.0138	2209.438	3562.4	2687.6
950.148	2210.9248	3535.5	2656.45
950.2822	2212.4109	3539.1	2658.35
950.4164	2213.8962	3521.6	2635.9
950.5505	2215.3809	3521.85	2636.2
950.6846	2216.8648	3512.1	2625.15
950.8186	2218.3479	3511	2620.75
950.9527	2219.8304	3494.95	2602.3
951.0867	2221.3121	3489.1	2598.65
951.2207	2222.7931	3488.55	2603.65
951.3546	2224.2733	3467.25	2581.95
951.4886	2225.7529	3461.2	2581.15
951.6225	2227.2317	3441.1	2558.8
951.7563	2228.7098	3439.95	2562.55
951.8902	2230.1872	3428	2550.15
952.024	2231.6638	3420.85	2540.85
952.1578	2233.1397	3418.25	2533.95
952.2916	2234.6149	3401.4	2524.45
952.4253	2236.0894	3398.9	2518.05
952.559	2237.5632	3399.75	2516.5
952.6927	2239.0362	3377.75	2497.4
952.8263	2240.5085	3358.85	2477.5
952.9599	2241.9801	3358.7	2476.8
953.0935	2243.4509	3347.15	2463.45
953.2271	2244.921	3332.75	2447.8
953.3606	2246.3904	3346.55	2459
953.4941	2247.8591	3322.65	2437.75
953.6276	2249.3271	3313.35	2429.25
953.7611	2250.7943	3300.1	2415.7
953.8945	2252.2608	3298.7	2412.2
954.0279	2253.7266	3283.4	2402.3
954.1612	2255.1917	3284.9	2403.3
954.2946	2256.656	3267.3	2387.25
954.4279	2258.1197	3259.85	2381.4
954.5612	2259.5826	3262	2380.3
954.6944	2261.0447	3252.7	2369.75
954.8276	2262.5062	3250.85	2363.2
954.9608	2263.9669	3234.1	2349
955.094	2265.4269	3226.75	2343.25
955.2271	2266.8862	3214.8	2331.95
955.3602	2268.3448	3217.85	2335.1
955.4933	2269.8026	3222.9	2341.7
955.6264	2271.2598	3205.05	2323.9
955.7594	2272.7162	3198.55	2314.55
955.8924	2274.1719	3199.8	2317.8
956.0253	2275.6268	3187.85	2303.3
956.1583	2277.0811	3183.25	2298.85
956.2912	2278.5346	3172.05	2291
956.4241	2279.9874	3161.15	2282.1
956.5569	2281.4395	3156.95	2277.7
956.6897	2282.8908	3154.05	2266.35
956.8225	2284.3414	3157.5	2275.15
956.9553	2285.7914	3141.05	2262.25
957.088	2287.2406	3145.7	2261.5
957.2207	2288.689	3131.1	2245.8
957.3534	2290.1368	3136.15	2245.5
957.486	2291.5838	3135.05	2245.15
957.6186	2293.0302	3125.25	2237.4
957.7512	2294.4758	3099.25	2213.25
957.8838	2295.9206	3077.7	2190.5
958.0163	2297.3648	3086.45	2205.65
958.1488	2298.8082	3084.55	2202.15
958.2813	2300.251	3081.85	2200.35
958.4137	2301.693	3074.15	2184.95
958.5461	2303.1343	3066.65	2180.05
958.6785	2304.5748	3054.6	2174.5
958.8108	2306.0147	3047.1	2166.15
958.9432	2307.4538	3044.05	2162.85
959.0754	2308.8922	3030.3	2151.45
959.2077	2310.3299	3016.15	2136
959.3399	2311.7669	3011.3	2131.4
959.4721	2313.2031	3023.45	2142
959.6043	2314.6387	2991.85	2107
959.7365	2316.0735	2996.5	2112.5
959.8686	2317.5076	3000.75	2116.2
960.0006	2318.941	2995.4	2111.6
960.1327	2320.3737	2988.55	2103.05
960.2647	2321.8056	2986.15	2101.05
960.3967	2323.2369	2969.45	2083.9
960.5287	2324.6674	2964.15	2079.8
960.6606	2326.0972	2945.9	2059.05
960.7925	2327.5263	2945.45	2061.6
960.9244	2328.9547	2936.65	2051.8
961.0562	2330.3823	2935.65	2051.35
961.1881	2331.8092	2939.1	2049.9
961.3198	2333.2355	2926.15	2040.45
961.4516	2334.661	2924.25	2037.75
961.5833	2336.0858	2910.85	2023.8
961.715	2337.5098	2902.75	2018.55
961.8467	2338.9332	2896.75	2012.4
961.9783	2340.3558	2896.95	2010
962.1099	2341.7778	2888.3	2006.1
962.2415	2343.199	2885.25	2000.95
962.373	2344.6195	2866.8	1986.1
962.5045	2346.0393	2863.65	1982.1
962.636	2347.4583	2871.2	1988.85
962.7675	2348.8767	2865.35	1980.5
962.8989	2350.2943	2854.4	1969.65
963.0303	2351.7113	2865.4	1978.9
963.1617	2353.1275	2853.25	1966.9
963.293	2354.543	2867.05	1955.2
963.4243	2355.9578	2843.4	1956.95
963.5556	2357.3718	2823.2	1943.3
963.6868	2358.7852	2802.25	1918.55
963.818	2360.1978	2811.4	1928.9
963.9492	2361.6098	2810.15	1930.7
964.0803	2363.021	2795.9	1908.65
964.2114	2364.4315	2793.25	1913.6
964.3425	2365.8413	2794.45	1910.35
964.4736	2367.2504	2775.65	1896.2
964.6046	2368.6587	2771.55	1892.65
964.7356	2370.0664	2764.75	1884.85
964.8666	2371.4733	2739.35	1857.7
964.9975	2372.8795	2752.95	1872.7
965.1284	2374.285	2745.85	1865.15
965.2593	2375.6899	2730.75	1852
965.3901	2377.0939	2717.35	1838.1
965.5209	2378.4973	2716.6	1838
965.6517	2379.9	2710.6	1830.3
965.7825	2381.3019	2703.3	1824.85
965.9132	2382.7032	2692.95	1816.95
966.0439	2384.1037	2691	1816
966.1745	2385.5035	2688.3	1812.85
966.3051	2386.9027	2668.35	1793.8
966.4357	2388.3011	2673.5	1794.8
966.5663	2389.6987	2664.95	1786.45
966.6968	2391.0957	2665	1789.6
966.8273	2392.492	2650.95	1773.55
966.9578	2393.8876	2637.9	1760.95
967.0882	2395.2824	2630.3	1751.4
967.2186	2396.6765	2625.4	1747.8
967.349	2398.07	2619.75	1741.25
967.4793	2399.4627	2623.2	1743.4
967.6097	2400.8547	2610.8	1733
967.7399	2402.246	2611.35	1726.15
967.8702	2403.6366	2597.9	1721.1
968.0004	2405.0265	2593.55	1715.95
968.1306	2406.4156	2588.45	1705.2
968.2607	2407.8041	2580.05	1699.2
968.3909	2409.1918	2576.4	1697.1
968.521	2410.5789	2567.55	1688.7
968.651	2411.9652	2569.1	1686.95
968.781	2413.3508	2554.25	1676.25
968.911	2414.7358	2559.95	1681.15
969.041	2416.12	2532.65	1653.8
969.1709	2417.5035	2544.25	1667.5
969.3008	2418.8863	2539.9	1660.5
969.4307	2420.2684	2526.8	1649.25
969.5606	2421.6497	2521.2	1642.85
969.6904	2423.0304	2513.3	1634.2
969.8201	2424.4104	2513.65	1633.7
969.9499	2425.7896	2516.7	1635.1
970.0796	2427.1682	2503.1	1624.2
970.2093	2428.546	2509.15	1629.15
970.3389	2429.9232	2483.4	1601.45
970.4685	2431.2996	2485.05	1606.6
970.5981	2432.6753	2467.5	1588.95
970.7277	2434.0503	2477.65	1597.85
970.8572	2435.4246	2472.2	1594.5
970.9867	2436.7982	2457.25	1574.6
971.1161	2438.1711	2468.75	1591.2
971.2456	2439.5433	2446.6	1565.25
971.375	2440.9148	2454.95	1570.1
971.5043	2442.2856	2437.6	1561.35
971.6336	2443.6557	2445.85	1563.5
971.7629	2445.025	2421.05	1540.2
971.8922	2446.3937	2428.05	1546.2
972.0214	2447.7617	2427.45	1548
972.1506	2449.1289	2423.25	1543.15
972.2798	2450.4955	2413.35	1532.15
972.4089	2451.8613	2418.95	1540.6
972.538	2453.2265	2399.4	1520.7
972.6671	2454.5909	2401.4	1520.3
972.7961	2455.9546	2405.25	1527.05
972.9251	2457.3177	2384.55	1504.25
973.0541	2458.68	2383	1500.75
973.1831	2460.0416	2390.9	1508.95
973.312	2461.4025	2381.25	1499.2
973.4408	2462.7627	2387.9	1497.45
973.5697	2464.1222	2377.25	1499.3
973.6985	2465.4811	2369.35	1488.95
973.8273	2466.8392	2363.8	1485
973.956	2468.1966	2372.3	1490.05
974.0847	2469.5533	2358.85	1477.1
974.2134	2470.9093	2359.15	1480.45
974.3421	2472.2645	2359.75	1478
974.4707	2473.6191	2344.65	1466.15
974.5993	2474.973	2338.4	1458.35
974.7278	2476.3262	2350.8	1466.6
974.8563	2477.6787	2335.7	1459.15
974.9848	2479.0305	2335.55	1454.25
975.1132	2480.3816	2318.35	1436.15
975.2417	2481.7319	2309.3	1427.35
975.37	2483.0816	2309.9	1431.4
975.4984	2484.4306	2302.65	1422.25
975.6267	2485.7789	2290.2	1410.6
975.755	2487.1264	2289.15	1407.6
975.8833	2488.4733	2284.1	1407.05
976.0115	2489.8195	2283.15	1393.3
976.1397	2491.165	2283.05	1400.6
976.2678	2492.5097	2270.7	1388.75
976.3959	2493.8538	2258.4	1379.85
976.524	2495.1972	2250.25	1371.35
976.6521	2496.5398	2256.05	1376.25
976.7801	2497.8818	2252.9	1369.85
976.9081	2499.2231	2245.55	1365.05
977.036	2500.5637	2250.6	1365.75
977.164	2501.9035	2241.45	1358.15
977.2918	2503.2427	2240.5	1355.4
977.4197	2504.5812	2231.25	1351.25
977.5475	2505.919	2218.75	1334.75
977.6753	2507.256	2227	1347
977.8031	2508.5924	2218.5	1339.1
977.9308	2509.9281	2219.9	1333.5
978.0585	2511.2631	2209.7	1330.8
978.1861	2512.5974	2204.4	1326.9
978.3137	2513.9309	2203.15	1322.3
978.4413	2515.2638	2225.9	1317.7
978.5689	2516.596	2200.6	1320
978.6964	2517.9275	2181.1	1299
978.8239	2519.2583	2193.9	1310.75
978.9513	2520.5884	2176.6	1293.1
979.0788	2521.9178	2174.1	1295.65
979.2062	2523.2465	2166.9	1288
979.3335	2524.5745	2164.4	1286.4
979.4608	2525.9018	2157.6	1277.1
979.5881	2527.2284	2155.9	1278.1
979.7154	2528.5543	2152.55	1273.4
979.8426	2529.8796	2151.85	1270.05
979.9698	2531.2041	2140.85	1260.7
980.0969	2532.5279	2143.8	1264
980.224	2533.851	2138.6	1258.45
980.3511	2535.1735	2142.85	1261.95
980.4781	2536.4952	2144.55	1263.7
980.6052	2537.8163	2137	1255.35
980.7321	2539.1366	2135.95	1256.5
980.8591	2540.4562	2125.15	1241.85
980.986	2541.7752	2123.8	1243.2
981.1129	2543.0935	2119.2	1238.45
981.2397	2544.411	2115.45	1233
981.3665	2545.7279	2108.85	1226.95
981.4933	2547.0441	2115.1	1234.25
981.62	2548.3596	2108.1	1226.25
981.7467	2549.6744	2101.5	1221.2
981.8734	2550.9885	2104.6	1216
982.0001	2552.3019	2104.6	1222.85
982.1267	2553.6146	2090.8	1208.5
982.2532	2554.9266	2081.4	1197.9
982.3798	2556.2379	2088.85	1206.85
982.5063	2557.5485	2084.2	1205.55
982.6327	2558.8585	2085.15	1196.4
982.7592	2560.1677	2079.7	1195.45
982.8856	2561.4762	2067.2	1185.1
983.0119	2562.7841	2072.95	1187.6
983.1383	2564.0913	2066.55	1185.65
983.2646	2565.3977	2061.6	1179.5
983.3908	2566.7035	2062.4	1180.9
983.517	2568.0086	2049.95	1167.55
983.6432	2569.313	2049.15	1165.45
983.7694	2570.6167	2050.3	1165.7
983.8955	2571.9197	2053.3	1174.3
984.0216	2573.222	2060.05	1175.55
984.1476	2574.5236	2038.05	1156.8
984.2737	2575.8246	2042.1	1155.9
984.3996	2577.1248	2044.45	1162.35
984.5256	2578.4244	2035	1156.15
984.6515	2579.7232	2034.05	1153.7
984.7774	2581.0214	2062.75	1154.85
984.9032	2582.3189	2038.25	1156.45
985.029	2583.6157	2037.4	1153.35
985.1548	2584.9118	2033.75	1150
985.2806	2586.2072	2030.1	1148.15
985.4063	2587.5019	2029.75	1147.35
985.5319	2588.7959	2035.65	1151.8
985.6576	2590.0893	2030.25	1146.7
985.7832	2591.3819	2031.9	1149.1
985.9087	2592.6739	2017.1	1136
986.0343	2593.9652	2024.3	1139.85
986.1597	2595.2557	2016.95	1136.4
986.2852	2596.5456	2020.1	1136.9
986.4106	2597.8348	2012.05	1132
986.536	2599.1234	2014.1	1132.55
986.6614	2600.4112	2022.05	1139.2
986.7867	2601.6983	2019.9	1134.85
986.912	2602.9848	2000.35	1120.3
987.0372	2604.2705	2005.65	1117.7
987.1624	2605.5556	1994.75	1113.75
987.2876	2606.84	1997.95	1116.7
987.4128	2608.1237	1986	1104.65
987.5379	2609.4067	1999.6	1117.9
987.6629	2610.689	1998.1	1109.45
987.788	2611.9707	1991	1106.05
987.913	2613.2516	1982.8	1096.95
988.0379	2614.5319	1963.55	1082.9
988.1629	2615.8115	1970.45	1087.35
988.2878	2617.0903	1965.1	1080.85
988.4126	2618.3685	1962.05	1078.3
988.5375	2619.6461	1959.75	1078.8
988.6622	2620.9229	1952.25	1069.95
988.787	2622.199	1957.1	1074.05
988.9117	2623.4745	1953.55	1072.4
989.0364	2624.7493	1949.15	1067.3
989.161	2626.0234	1952.15	1071.1
989.2857	2627.2968	1929.5	1050
989.4102	2628.5695	1930.4	1047.75
989.5348	2629.8415	1937.7	1057.85
989.6593	2631.1128	1929.4	1046.55
989.7837	2632.3835	1928.25	1048.25
989.9082	2633.6535	1921.4	1039.1
990.0326	2634.9228	1922.1	1041.55
990.1569	2636.1914	1918.05	1038.25
990.2812	2637.4593	1928.35	1045.2
990.4055	2638.7265	1919.45	1039.6
990.5298	2639.9931	1917.6	1037.5
990.654	2641.259	1909.95	1026.85
990.7782	2642.5242	1905.75	1023.55
990.9023	2643.7887	1898.65	1015.35
991.0264	2645.0525	1905.15	1023.25
991.1505	2646.3156	1895.85	1012.2
991.2745	2647.5781	1890.05	1011.35
991.3985	2648.8398	1891.5	1010.35
991.5225	2650.1009	1892.2	1003.9
991.6464	2651.3613	1883.3	1002.2
991.7703	2652.6211	1878.9	997.4
991.8942	2653.8801	1871.05	990.65
992.018	2655.1385	1884.55	1000.1
992.1418	2656.3961	1871.7	991.6
992.2655	2657.6531	1870.6	989.1
992.3892	2658.9094	1863.45	984.4
992.5129	2660.1651	1872.3	990.25
992.6366	2661.42	1870.3	991.25
992.7602	2662.6743	1874.55	992.25
992.8837	2663.9279	1863.95	984.75
993.0073	2665.1808	1867.15	984.25
993.1307	2666.433	1870.15	987.65
993.2542	2667.6846	1862.35	981.5
993.3776	2668.9354	1873.8	991
993.501	2670.1856	1864.6	982.3
993.6244	2671.4351	1866.3	987.75
993.7477	2672.6839	1876.85	996.4
993.8709	2673.9321	1861.5	981.4
993.9942	2675.1795	1873.25	992.75
994.1174	2676.4263	1867.2	987.75
994.2405	2677.6724	1860.2	980.2
994.3637	2678.9179	1867.9	987.5
994.4868	2680.1626	1866.05	986.4
994.6098	2681.4067	1874.55	993.25
994.7328	2682.6501	1865.4	984.4
994.8558	2683.8928	1864.65	984.45
994.9788	2685.1348	1849	968.55
995.1017	2686.3761	1838.25	957.8
995.2245	2687.6168	1842.8	964.3
995.3474	2688.8568	1837.55	955.75
995.4702	2690.0961	1832.95	954.95
995.5929	2691.3348	1847.85	969.5
995.7156	2692.5727	1822.3	941.45
995.8383	2693.81	1822.25	943.25
995.961	2695.0466	1817.95	939.45
996.0836	2696.2826	1808.1	924.75
996.2062	2697.5178	1824.15	937.75
996.3287	2698.7524	1810.6	929.85
996.4512	2699.9863	1825.05	942.5
996.5737	2701.2195	1813.9	933.45
996.6961	2702.452	1811.35	929.55
996.8185	2703.6839	1820.4	941.2
996.9408	2704.9151	1818.95	940.1
997.0631	2706.1456	1821.4	942.95
997.1854	2707.3755	1826.05	943.65
997.3077	2708.6046	1834	951.75
997.4299	2709.8331	1836.9	953.9
997.552	2711.0609	1845.45	964.8
997.6742	2712.2881	1848.2	968.05
997.7963	2713.5145	1856.25	973.7
997.9183	2714.7403	1854.65	975.75
998.0403	2715.9654	1874.85	993.4
998.1623	2717.1899	1895.05	1002.55
998.2842	2718.4136	1885.7	1007.1
998.4062	2719.6367	1889.95	1009.3
998.528	2720.8591	1910.5	1024.8
998.6498	2722.0809	1909.15	1025.5
998.7716	2723.3019	1929.85	1045.2
998.8934	2724.5223	1932.25	1053.85
999.0151	2725.7421	1944.3	1061.65
999.1368	2726.9611	1934.8	1053.55
999.2584	2728.1795	1938.45	1054.7
999.38	2729.3972	1924.15	1044.5
999.5016	2730.6142	1922.4	1030.4
999.6231	2731.8306	1897.65	1016.6
999.7446	2733.0462	1877.35	994.75
999.8661	2734.2612	1857.35	973.05
999.9875	2735.4756	1850.65	970.45
1000.1089	2736.6892	1819.4	938.6
1000.2302	2737.9022	1801.35	923.65
1000.3515	2739.1145	1793.6	914.25
1000.4728	2740.3262	1791.35	904.15
1000.594	2741.5372	1774.1	895.55
1000.7152	2742.7475	1752.85	873.3
1000.8363	2743.9571	1754.2	874.05
1000.9575	2745.1661	1741.2	856.65
1001.0785	2746.3744	1722.55	842.35
1001.1996	2747.582	1717.5	836.4
1001.3206	2748.7889	1705.45	823.5
1001.4415	2749.9952	1701.15	821.5
1001.5625	2751.2008	1691.45	811.3
1001.6833	2752.4057	1686.05	803.6
1001.8042	2753.61	1691.05	811.8
1001.925	2754.8136	1685.1	804.95
1002.0458	2756.0165	1671.5	792.4
1002.1665	2757.2188	1679.85	802.3
1002.2872	2758.4204	1669.15	791.4
1002.4078	2759.6213	1666	784
1002.5285	2760.8215	1668.05	785.95
1002.649	2762.0211	1677.55	796.75
1002.7696	2763.22	1662.9	779.8
1002.8901	2764.4182	1659.1	776.3
1003.0106	2765.6158	1661.5	781.3
1003.131	2766.8127	1652.3	772.8
1003.2514	2768.009	1653.35	775.55
1003.3717	2769.2045	1642.95	762.8
1003.492	2770.3994	1647	767.55
1003.6123	2771.5936	1645.2	766.15
1003.7325	2772.7872	1640.8	764.1
1003.8527	2773.9801	1632.75	753.1
1003.9729	2775.1723	1649.55	752.5
1004.093	2776.3639	1626.1	748.25
1004.2131	2777.5548	1625.75	742.45
1004.3331	2778.745	1626	745.75
1004.4531	2779.9346	1627.45	745.75
1004.5731	2781.1235	1632.45	750.7
1004.693	2782.3117	1638.45	761.65
1004.8129	2783.4992	1632.3	752.3
1004.9328	2784.6861	1630.4	752.2
1005.0526	2785.8723	1641.85	763.5
1005.1723	2787.0579	1640.6	761.4
1005.2921	2788.2428	1647.65	770.15
1005.4118	2789.427	1657.3	777.65
1005.5314	2790.6106	1666.05	789.3
1005.651	2791.7935	1672.05	794
1005.7706	2792.9757	1687.1	808.5
1005.8902	2794.1573	1688.15	808.7
1006.0097	2795.3382	1706.2	828.55
1006.1291	2796.5184	1721.6	845
1006.2485	2797.698	1737.45	857.8
1006.3679	2798.8769	1745.05	866.2
1006.4873	2800.0551	1760	882
1006.6066	2801.2327	1765.25	880.45
1006.7258	2802.4096	1787.75	911.1
1006.8451	2803.5859	1806	926.95
1006.9642	2804.7615	1833.7	954.9
1007.0834	2805.9364	1851.7	976.55
1007.2025	2807.1106	1884	1007.9
1007.3216	2808.2842	1910.3	1029.05
1007.4406	2809.4572	1934.35	1058.1
1007.5596	2810.6294	1976.35	1095.15
1007.6785	2811.801	2005.15	1128.05
1007.7975	2812.972	2045.35	1167.15
1007.9163	2814.1423	2086.15	1206.05
1008.0352	2815.3119	2135.85	1257
1008.154	2816.4808	2182.9	1303.8
1008.2727	2817.6491	2229.7	1351.6
1008.3914	2818.8167	2263.9	1388.95
1008.5101	2819.9837	2326.45	1446.2
1008.6288	2821.15	2373.45	1497.2
1008.7474	2822.3157	2406.25	1529.8
1008.8659	2823.4807	2462.45	1586.55
1008.9844	2824.645	2507.3	1629.05
1009.1029	2825.8086	2551.4	1674.9
1009.2214	2826.9716	2594.25	1717.7
1009.3398	2828.134	2638.35	1761.1
1009.4581	2829.2957	2680.35	1804.35
1009.5764	2830.4567	2691.2	1817.25
1009.6947	2831.617	2719.4	1842.3
1009.813	2832.7767	2731.2	1854.4
1009.9312	2833.9358	2727.55	1850.85
1010.0493	2835.0941	2726.9	1849.4
1010.1675	2836.2519	2720.2	1844.7
1010.2855	2837.4089	2704.9	1826.2
1010.4036	2838.5653	2687.15	1811.85
1010.5216	2839.7211	2700.7	1823.9
1010.6396	2840.8761	2697.65	1819.05
1010.7575	2842.0306	2719.35	1842.85
1010.8754	2843.1843	2763.15	1885.45
1010.9932	2844.3374	2798.2	1922.3
1011.111	2845.4899	2861.5	1984.2
1011.2288	2846.6417	2925.3	2049.35
1011.3465	2847.7928	3003.3	2128.35
1011.4642	2848.9433	3082.65	2204.85
1011.5818	2850.0931	3156.7	2280.1
1011.6995	2851.2422	3246.55	2368.15
1011.817	2852.3907	3308.45	2429.6
1011.9345	2853.5385	3382.05	2502.65
1012.052	2854.6857	3441.95	2537.05
1012.1695	2855.8323	3462.25	2586.45
1012.2869	2856.9781	3520.75	2644.3
1012.4042	2858.1233	3571.9	2695.4
1012.5216	2859.2679	3612.2	2735.65
1012.6389	2860.4118	3663.95	2787.3
1012.7561	2861.555	3699.1	2821.25
1012.8733	2862.6976	3724.35	2846.1
1012.9905	2863.8395	3761.95	2885.3
1013.1076	2864.9808	3773.4	2897.45
1013.2247	2866.1214	3787.15	2911.9
1013.3417	2867.2614	3811.55	2933.9
1013.4587	2868.4007	3824.45	2946.7
1013.5757	2869.5393	3839.85	2960
1013.6926	2870.6773	3851.5	2970.9
1013.8095	2871.8146	3852.05	2971.15
1013.9263	2872.9513	3861.45	2981.7
1014.0431	2874.0874	3856.85	2979.25
1014.1599	2875.2227	3853.75	2976.15
1014.2766	2876.3574	3823.9	2947.35
1014.3933	2877.4915	3807.65	2930.4
1014.51	2878.6249	3764.55	2888.2
1014.6266	2879.7577	3750.3	2871.9
1014.7431	2880.8898	3761.95	2875.35
1014.8596	2882.0212	3720.6	2844.8
1014.9761	2883.152	3709.55	2832.3
1015.0925	2884.2821	3692.45	2817.4
1015.2089	2885.4116	3681.2	2804
1015.3253	2886.5405	3674.5	2798.15
1015.4416	2887.6686	3687.25	2807.35
1015.5579	2888.7962	3685.3	2810.95
1015.6741	2889.923	3717.2	2842.15
1015.7903	2891.0493	3702.65	2829.2
1015.9065	2892.1748	3716.25	2840.15
1016.0226	2893.2997	3727.6	2851.75
1016.1387	2894.424	3745.85	2870.4
1016.2547	2895.5476	3772.65	2897.25
1016.3707	2896.6706	3802.55	2928.4
1016.4866	2897.7929	3808.8	2930.7
1016.6025	2898.9145	3853.4	2977.45
1016.7184	2900.0355	3873.65	2994.8
1016.8342	2901.1559	3907.9	3030.6
1016.95	2902.2756	3934.45	3059.85
1017.0658	2903.3946	3977.95	3101.85
1017.1815	2904.513	3997.3	3119.7
1017.2971	2905.6308	4027.9	3153.95
1017.4127	2906.7479	4049	3171.65
1017.5283	2907.8643	4068	3192.85
1017.6439	2908.9801	4082.5	3207.9
1017.7594	2910.0953	4077.7	3200.35
1017.8748	2911.2098	4099.5	3220.35
1017.9902	2912.3236	4088.75	3205.8
1018.1056	2913.4368	4067.7	3188.7
1018.2209	2914.5494	4036.85	3162.45
1018.3362	2915.6613	4028	3146.85
1018.4515	2916.7725	4006.4	3129.75
1018.5667	2917.8831	3957.2	3079.95
1018.6819	2918.9931	3944.75	3067.1
1018.797	2920.1024	3919.15	3041.05
1018.9121	2921.211	3894.55	3019.2
1019.0271	2922.319	3869.95	2994.55
1019.1421	2923.4264	3841.9	2965.9
1019.2571	2924.5331	3837.35	2962.45
1019.372	2925.6391	3809.8	2934.05
1019.4869	2926.7445	3813.3	2936.7
1019.6017	2927.8493	3802.75	2928
1019.7165	2928.9534	3798.05	2922.35
1019.8313	2930.0569	3796.15	2917.65
1019.946	2931.1597	3787.9	2909.75
1020.0606	2932.2619	3774.35	2896.9
1020.1753	2933.3634	3764.1	2889.45
1020.2899	2934.4643	3757	2871.5
1020.4044	2935.5645	3751.7	2872.4
1020.5189	2936.6641	3699.25	2819.1
1020.6334	2937.763	3654.2	2780.9
1020.7478	2938.8613	3624.6	2750.1
1020.8622	2939.959	3555.25	2674.05
1020.9765	2941.056	3476.85	2601.85
1021.0908	2942.1523	3396.4	2519.3
1021.2051	2943.248	3313.55	2439.1
1021.3193	2944.3431	3218.1	2344.9
1021.4334	2945.4375	3126.65	2250.55
1021.5476	2946.5313	3024.25	2150.4
1021.6617	2947.6244	2917.65	2041.3
1021.7757	2948.7169	2825.2	1949.15
1021.8897	2949.8087	2720.7	1844.95
1022.0037	2950.8999	2626.05	1749.9
1022.1176	2951.9904	2550.1	1674.9
1022.2315	2953.0803	2482.15	1605.2
1022.3453	2954.1696	2409.05	1531.95
1022.4591	2955.2582	2362.45	1488.55
1022.5728	2956.3462	2315.35	1439.6
1022.6865	2957.4335	2273.35	1395.45
1022.8002	2958.5202	2231.2	1353.1
1022.9138	2959.6062	2213.75	1340.3
1023.0274	2960.6916	2194.85	1319.5
1023.141	2961.7764	2169.6	1294.75
1023.2545	2962.8605	2157.6	1281.7
1023.3679	2963.9439	2134.6	1260.55
1023.4813	2965.0267	2124.15	1247.6
1023.5947	2966.1089	2140.85	1245.7
1023.708	2967.1905	2107.65	1231.8
1023.8213	2968.2714	2106.45	1232.15
1023.9346	2969.3516	2107.85	1233.2
1024.0478	2970.4312	2111.1	1228.5
1024.1609	2971.5102	2111.9	1238.15
1024.274	2972.5885	2108.9	1232.95
1024.3871	2973.6662	2121	1239.8
1024.5002	2974.7432	2103.7	1229.35
1024.6132	2975.8196	2099.25	1222.5
1024.7261	2976.8954	2082.95	1208.1
1024.839	2977.9705	2066.55	1190.75
1024.9519	2979.045	2060.45	1187.35
1025.0647	2980.1188	2041.3	1167.75
1025.1775	2981.192	2030.65	1156.15
1025.2902	2982.2645	2006.95	1134.4
1025.4029	2983.3364	1976.75	1103.2
1025.5156	2984.4077	1939.7	1066.5
1025.6282	2985.4783	1932.8	1053.3
1025.7407	2986.5483	1887.9	1014
1025.8532	2987.6177	1855.35	980.05
1025.9657	2988.6864	1821.7	947.25
1026.0782	2989.7545	1788.7	913
1026.1906	2990.8219	1755.85	882.3
1026.3029	2991.8887	1723.75	847.2
1026.4152	2992.9548	1689.15	815
1026.5275	2994.0204	1654.3	778.7
1026.6397	2995.0852	1625.9	753.05
1026.7519	2996.1495	1594.75	719.2
1026.864	2997.2131	1579.25	704.55
1026.9761	2998.276	1560.7	688.8
1027.0882	2999.3383	1550.05	675.75
1027.2002	3000.4	1527.35	651.65
1027.3122	3001.4611	1495.95	623.25
1027.4241	3002.5215	1490.55	615.35
1027.536	3003.5812	1474.25	600.15
1027.6478	3004.6404	1464.25	589.85
1027.7596	3005.6989	1449.5	572.3
1027.8714	3006.7567	1440.6	568
1027.9831	3007.8139	1462.45	555.75
1028.0947	3008.8705	1425.85	549.45
1028.2064	3009.9264	1427.7	549.9
1028.3179	3010.9818	1419.15	544.05
1028.4295	3012.0364	1414.7	540.35
1028.541	3013.0905	1407.55	531.8
1028.6524	3014.1439	1400.25	526.5
1028.7638	3015.1966	1392.1	518.85
1028.8752	3016.2487	1396.8	522.4
1028.9865	3017.3002	1397.1	518.6
1029.0978	3018.3511	1390.7	518.75
1029.209	3019.4013	1397.5	525.9
1029.3202	3020.4509	1393.55	521.75
1029.4314	3021.4998	1393.8	518.8
1029.5425	3022.5481	1396.9	524.6
1029.6535	3023.5958	1393.35	518.65
1029.7645	3024.6428	1403.3	528.3
1029.8755	3025.6892	1396.65	522.4
1029.9864	3026.735	1400.95	525
1030.0973	3027.7802	1402.7	529.6
1030.2082	3028.8247	1396.65	522.45
1030.319	3029.8685	1407	529.65
1030.4297	3030.9118	1405.95	532.05
1030.5404	3031.9544	1410.05	535.8
1030.6511	3032.9963	1416.15	542.2
1030.7617	3034.0376	1418.6	543.9
1030.8723	3035.0783	1423.5	548.2
1030.9829	3036.1184	1417.35	542.45
1031.0934	3037.1578	1425.65	552.8
1031.2038	3038.1966	1426.5	550.1
1031.3142	3039.2348	1426.55	554.55
1031.4246	3040.2723	1435.15	552.05
1031.5349	3041.3092	1428.7	554
1031.6452	3042.3455	1428.7	553.85
1031.7554	3043.3811	1429.55	555.5
1031.8656	3044.4161	1411.8	537.5
1031.9758	3045.4505	1410.8	538.2
1032.0859	3046.4842	1409.1	536.55
1032.1959	3047.5173	1399.45	526.45
1032.3059	3048.5498	1398.1	526.15
1032.4159	3049.5816	1386.05	511.55
1032.5258	3050.6128	1384.45	510.35
1032.6357	3051.6434	1378.35	504.45
1032.7455	3052.6734	1369.4	494.4
1032.8553	3053.7027	1364.8	490.75
1032.9651	3054.7314	1361.1	489.25
1033.0748	3055.7594	1353.95	480.35
1033.1845	3056.7868	1347.05	472.6
1033.2941	3057.8136	1338.65	465.85
1033.4037	3058.8398	1327.8	454.85
1033.5132	3059.8653	1326.2	453.25
1033.6227	3060.8902	1317.6	442.15
1033.7321	3061.9145	1326.5	455.2
1033.8415	3062.9381	1318.15	443.5
1033.9509	3063.9612	1327.45	436.95
1034.0602	3064.9835	1308.45	435.3
1034.1694	3066.0053	1297.4	419.75
1034.2787	3067.0264	1289.1	415.3
1034.3878	3068.0469	1279.15	404.9
1034.497	3069.0668	1284.1	408.8
1034.6061	3070.086	1265.45	393.8
1034.7151	3071.1046	1260.65	385.7
1034.8241	3072.1226	1255.6	381.9
1034.9331	3073.1399	1245.15	372.1
1035.042	3074.1567	1237.85	363.95
1035.1508	3075.1727	1227.5	352.45
1035.2597	3076.1882	1220	345.7
1035.3684	3077.203	1210	337.15
1035.4772	3078.2173	1202.9	328.25
1035.5859	3079.2308	1197.15	319.8
1035.6945	3080.2438	1186.95	312.45
1035.8031	3081.2561	1174.85	299.1
1035.9117	3082.2678	1174.9	299.9
1036.0202	3083.2789	1165.55	292.55
1036.1286	3084.2893	1158.8	286.35
1036.2371	3085.2991	1152.7	279.5
1036.3454	3086.3083	1146.65	267.7
1036.4538	3087.3169	1145	270.65
1036.562	3088.3248	1137.7	263.1
1036.6703	3089.3321	1139.3	264.75
1036.7785	3090.3388	1127.45	255.7
1036.8866	3091.3449	1126.5	252.65
1036.9948	3092.3503	1125.1	251.2
1037.1028	3093.3551	1116.3	243.95
1037.2108	3094.3593	1113.7	240.65
1037.3188	3095.3629	1113.4	241.9
1037.4267	3096.3658	1108.7	234.95
1037.5346	3097.3681	1108.25	237
1037.6425	3098.3698	1103.6	228.85
1037.7503	3099.3708	1106.1	225.8
1037.858	3100.3713	1096.85	224.95
1037.9657	3101.3711	1089.7	213.6
1038.0734	3102.3702	1199.85	210.4
1038.181	3103.3688	1091.35	215.85
1038.2886	3104.3667	1084.55	211.55
1038.3961	3105.364	1081.6	208.45
1038.5036	3106.3607	1082.4	207.4
1038.611	3107.3568	1079.6	206.4
1038.7184	3108.3522	1075.3	203.65
1038.8257	3109.347	1075.95	202.85
1038.933	3110.3412	1077.7	200.95
1039.0403	3111.3348	1075.65	203.1
1039.1475	3112.3277	1069.25	197.1
1039.2547	3113.32	1065.25	193.55
1039.3618	3114.3117	1070.6	196.05
1039.4689	3115.3028	1065.3	193.15
1039.5759	3116.2932	1064.3	190.15
1039.6829	3117.2831	1067.2	188.4
1039.7898	3118.2723	1063.35	190.65
1039.8967	3119.2608	1054.75	182.3
1040.0035	3120.2488	1057.25	183.9
1040.1103	3121.2361	1051.15	180.05
1040.2171	3122.2229	1054.75	183.75
1040.3238	3123.209	1053.4	181.55
1040.4305	3124.1944	1048.75	176.95
1040.5371	3125.1793	1051.05	178.4
1040.6437	3126.1635	1048.75	177.8
1040.7502	3127.1471	1049	176.95
1040.8567	3128.1301	1045.8	175.3
1040.9631	3129.1125	1047.9	176.05
1041.0695	3130.0942	1040.2	166.1
1041.1759	3131.0753	1055.35	174.4
1041.2822	3132.0558	1042.35	168.2
1041.3884	3133.0357	1043	169.65
1041.4946	3134.015	1038.3	165.55
1041.6008	3134.9936	1039.2	165.3
1041.7069	3135.9716	1053.9	162.25
1041.813	3136.949	1036.1	162.85
1041.919	3137.9258	1051.1	160.5
1042.025	3138.902	1037.3	160.25
1042.1309	3139.8775	1028.1	156.5
1042.2368	3140.8524	1028.4	156
1042.3427	3141.8267	1028.9	153.45
1042.4485	3142.8004	1029.9	158.9
1042.5542	3143.7735	1033.1	155.9
1042.6599	3144.7459	1030.4	155.25
1042.7656	3145.7178	1023.15	150.95
1042.8712	3146.689	1014.05	140.9
1042.9768	3147.6596	1018.9	143.7
1043.0823	3148.6295	1021.05	147.95
1043.1878	3149.5989	1019.45	146.4
1043.2932	3150.5676	1016.6	143.8
1043.3986	3151.5357	1014.95	143.15
1043.5039	3152.5032	1013.75	142.65
1043.6092	3153.4701	1013.25	141.55
1043.7145	3154.4364	1014.2	138.45
1043.8197	3155.402	1007.85	138.55
1043.9248	3156.367	1013.95	139.8
1044.03	3157.3315	1034.55	135.8
1044.135	3158.2952	1008.9	136.1
1044.24	3159.2584	1004	131
1044.345	3160.221	1008.5	136.15
1044.4499	3161.1829	1001.3	127.85
1044.5548	3162.1442	1000.8	129.35
1044.6596	3163.105	1005.7	136.35
1044.7644	3164.065	1003.5	132.15
1044.8692	3165.0245	1005.05	131.7
1044.9739	3165.9834	998.45	127.5
1045.0785	3166.9416	1001.9	129.85
1045.1831	3167.8993	999.9	128.35
1045.2877	3168.8563	997.65	125.2
1045.3922	3169.8127	1000.1	130.9
1045.4966	3170.7684	997.05	124.25
1045.6011	3171.7236	1000.45	124.8
1045.7054	3172.6782	994.75	122.9
1045.8098	3173.6321	993.55	121.6
1045.914	3174.5854	996.65	123.95
1046.0183	3175.5381	991.85	120.35
1046.1224	3176.4902	990.35	118.95
1046.2266	3177.4417	989.85	119.05
1046.3307	3178.3926	991.8	121.3
1046.4347	3179.3428	991.85	122.3
1046.5387	3180.2924	989.1	118.35
1046.6427	3181.2415	990.6	116.8
1046.7466	3182.1899	992.8	119.1
1046.8504	3183.1377	985.75	113.1
1046.9542	3184.0848	990	115.55
1047.058	3185.0314	983.45	111.55
1047.1617	3185.9773	983.6	110.35
1047.2654	3186.9227	984.95	114.7
1047.369	3187.8674	982.2	109.3
1047.4726	3188.8115	984.95	108.45
1047.5761	3189.755	981.4	111.2
1047.6796	3190.6979	981.55	109.4
1047.783	3191.6402	979.55	108.8
1047.8864	3192.5818	980.55	110.4
1047.9898	3193.5229	988	110.95
1048.0931	3194.4633	975.1	103.6
1048.1963	3195.4031	980.85	107.45
1048.2995	3196.3423	978.65	107.45
1048.4027	3197.2809	976	103.5
1048.5058	3198.2189	976.75	105.95
1048.6089	3199.1563	989.65	104
1048.7119	3200.0931	972.7	100.2
1048.8148	3201.0292	973	101.3
1048.9178	3201.9648	973	101.4
1049.0206	3202.8997	974.4	98.1
1049.1235	3203.834	973.15	100.65
1049.2262	3204.7677	973.95	99.45
1049.329	3205.7008	973.9	100.45
1049.4317	3206.6333	971	101.75
1049.5343	3207.5652	971.85	99.1
1049.6369	3208.4964	968.9	98.65
1049.7394	3209.4271	968.15	98.35
1049.8419	3210.3571	967.75	96.7
1049.9444	3211.2865	967.15	95.2
1050.0468	3212.2154	968	95.15
1050.1491	3213.1436	969.85	94.65
1050.2514	3214.0712	973.9	93.75
1050.3537	3214.9982	965.3	92.75
1050.4559	3215.9246	965.15	91.65
1050.5581	3216.8503	967.9	97.25
1050.6602	3217.7755	962.95	89.6
1050.7623	3218.7001	964.5	94.35
1050.8643	3219.624	965.45	93.95
1050.9663	3220.5473	964.5	91.15
1051.0682	3221.4701	962.65	88.9
1051.1701	3222.3922	963.2	90.8
1051.2719	3223.3137	962.8	91.05
1051.3737	3224.2346	962.3	92.3
1051.4754	3225.1549	960.75	92.05
1051.5771	3226.0746	956.95	84.85
1051.6788	3226.9937	959.3	89.45
1051.7804	3227.9121	960.55	92.85
1051.8819	3228.83	958.25	85.8
1051.9834	3229.7473	959.1	88
1052.0849	3230.6639	960.1	90.65
1052.1863	3231.5799	957.75	86.9
1052.2876	3232.4954	956.1	81.95
1052.3889	3233.4102	958.6	87.8
1052.4902	3234.3244	955.45	85
1052.5914	3235.238	955.6	82.9
1052.6926	3236.151	967.1	83.15
1052.7937	3237.0634	950.05	80.15
1052.8948	3237.9752	952.4	81.8
1052.9958	3238.8864	954.15	83.6
1053.0968	3239.797	952	79.25
1053.1977	3240.7069	951.25	77.4
1053.2986	3241.6163	954.45	81.7
1053.3994	3242.5251	951.3	81.25
1053.5002	3243.4332	947.1	77.95
1053.6009	3244.3408	951.15	79.6
1053.7016	3245.2477	948.95	81.05
1053.8022	3246.154	949.65	79
1053.9028	3247.0598	952.4	80.6
1054.0034	3247.9649	946.4	75.95
1054.1039	3248.8694	943.15	70.4
1054.2043	3249.7733	945.1	75
1054.3047	3250.6766	944.25	72.8
1054.4051	3251.5793	946.85	75.3
1054.5054	3252.4814	944.35	75.75
1054.6056	3253.3829	944.25	74.55
1054.7058	3254.2838	944.9	74.2
1054.806	3255.1841	939.65	70.45
1054.9061	3256.0838	940.55	69.8
1055.0061	3256.9829	937.15	67.5
1055.1062	3257.8814	941.4	68.2
1055.2061	3258.7792	939.25	66.6
1055.306	3259.6765	940.25	69.65
1055.4059	3260.5731	939.2	68.15
1055.5057	3261.4692	940.45	70.55
1055.6055	3262.3647	935.75	65.1
1055.7052	3263.2595	936.15	66.4
1055.8049	3264.1538	935.4	65.3
1055.9045	3265.0474	932.6	61.2
1056.0041	3265.9404	931.55	59.9
1056.1036	3266.8329	932.45	62.1
1056.2031	3267.7247	940.2	61.2
1056.3025	3268.616	930.65	61.8
1056.4019	3269.5066	929.15	57.55
1056.5013	3270.3966	925.7	53.45
1056.6005	3271.286	921.7	51.15
