Software Version:	3.9.2.0
Unit SN:	10000200
Spectrometer SN:	6960
Date:	3/8/2024 12:34:30 PM
Data Line Index:	25
Spectral Points:	2048
Integration time (ms):	125
Averages:	20
Delay (ms):	30000
Sequence Number:	1
Processing:	dark subtract
Laser Power (mW):	300
Laser Current (mA):	821
Laser Diode Temp (C):	25
Laser Case Temp (C):	26
System Temp (C):	26
Spectrometer Temp (C):	23.8
CCD Temp (C):	0.002
Secondary Temp (C):	20.008
Heatsink Temp (C):	20.425
CCDPCB Temp (C):	35.718
SecondaryPCB Temp (C):	29.571

Wavelength	RamanShift	Raw Counts	Dark Subtracted
787.061	30.1047	451.95	42.05
787.2016	32.3739	451.6	45.25
787.3422	34.6426	457.05	48
787.4828	36.9109	464.45	54.8
787.6235	39.1787	471.2	56.45
787.7642	41.4461	480.15	60.85
787.9049	43.7131	489.85	66.65
788.0456	45.9796	493.4	67.25
788.1863	48.2456	502.85	71.45
788.3271	50.5112	515.9	81.35
788.4679	52.7764	522.05	84.15
788.6087	55.0411	533.85	94.05
788.7496	57.3054	546.3	99.9
788.8904	59.5692	551.2	106.05
789.0313	61.8326	561.85	112.15
789.1722	64.0955	569.7	118.7
789.3132	66.3579	589.75	133.2
789.4541	68.6199	607.05	145
789.5951	70.8815	643.5	179.4
789.7361	73.1426	725.35	254.65
789.8771	75.4032	935.9	462.1
790.0181	77.6634	1442.4	964.05
790.1592	79.9231	2634.25	2147.25
790.3003	82.1824	5196.5	4695.05
790.4414	84.4412	9763.95	9231.75
790.5825	86.6995	15965.35	15395.3
790.7237	88.9574	21842.25	21238.55
790.8648	91.2148	25813.1	25185.9
791.006	93.4717	27565.35	26928.15
791.1472	95.7282	27670.2	27024.8
791.2885	97.9842	27340	26689.45
791.4297	100.2398	26537	25883.45
791.571	102.4949	25647.85	24991.05
791.7123	104.7495	24668.1	24007.55
791.8536	107.0036	23715.85	23058.65
791.9949	109.2573	22899.95	22244.75
792.1363	111.5105	22173.35	21511.35
792.2777	113.7632	21453.1	20787.4
792.4191	116.0154	20915.6	20238.25
792.5605	118.2672	20511.85	19842.75
792.7019	120.5185	20122.25	19449.45
792.8434	122.7693	19847.3	19177.55
792.9849	125.0197	19575.95	18898.6
793.1264	127.2696	19296.35	18615.15
793.2679	129.519	19092	18407
793.4094	131.7679	18790.05	18102.15
793.551	134.0163	18482.2	17788.25
793.6926	136.2642	18152.35	17458.8
793.8342	138.5117	17758.65	17057.75
793.9758	140.7587	17384.9	16685
794.1175	143.0052	17048.6	16345.1
794.2591	145.2512	16683.05	15979.95
794.4008	147.4967	16338.95	15634.9
794.5425	149.7417	16099.3	15398.5
794.6842	151.9863	15901.65	15190.5
794.826	154.2304	15788.15	15071.15
794.9677	156.4739	15625.75	14910.95
795.1095	158.717	15517.8	14796.9
795.2513	160.9596	15311.8	14587.45
795.3931	163.2017	15053.45	14331.65
795.535	165.4433	14781.1	14055.6
795.6768	167.6844	14465.45	13736.95
795.8187	169.925	14187.15	13452.2
795.9606	172.1651	13812.7	13080.7
796.1025	174.4047	13537.9	12804.6
796.2445	176.6439	13305.35	12569.15
796.3864	178.8825	13079.6	12340.75
796.5284	181.1206	12962.55	12214.45
796.6704	183.3582	12850.25	12099.9
796.8124	185.5954	12767.6	12017.75
796.9544	187.832	12667.2	11909.7
797.0965	190.0681	12654.1	11897.5
797.2386	192.3037	12657.75	11893.05
797.3806	194.5388	12648.3	11882.1
797.5228	196.7734	12655.3	11887.15
797.6649	199.0075	12737.8	11967.2
797.807	201.2411	12846.65	12075.75
797.9492	203.4742	12934.55	12161.6
798.0914	205.7068	13098.75	12319.35
798.2336	207.9389	13207.55	12431.6
798.3758	210.1704	13353	12584.85
798.518	212.4015	13450.05	12689.2
798.6603	214.632	13586.3	12831.2
798.8025	216.862	13717.35	12960.95
798.9448	219.0915	13784.85	13026.6
799.0871	221.3205	13890.85	13128.9
799.2294	223.549	13981.15	13227.35
799.3718	225.777	14033.15	13278.25
799.5141	228.0044	14143.2	13379.95
799.6565	230.2314	14198.75	13437.8
799.7989	232.4578	14291.05	13530.7
799.9413	234.6837	14370.4	13593.95
800.0837	236.909	14453.4	13674.55
800.2262	239.1339	14442.45	13641.1
800.3687	241.3582	14377.6	13588.25
800.5111	243.582	14323.6	13504.15
800.6536	245.8053	14261.55	13456.35
800.7961	248.0281	14228.65	13431.45
800.9387	250.2503	14224.55	13423.3
801.0812	252.472	14299.1	13496.45
801.2238	254.6932	14453.9	13649.7
801.3664	256.9139	14583.8	13780.8
801.509	259.134	14769	13959.35
801.6516	261.3536	15032.25	14223.4
801.7942	263.5727	15373.9	14563.35
801.9369	265.7912	15664.75	14857.7
802.0795	268.0092	15986.2	15176.65
802.2222	270.2267	16218.9	15411.3
802.3649	272.4436	16353.65	15543.25
802.5076	274.6601	16380.45	15564.65
802.6504	276.8759	16336.6	15523.4
802.7931	279.0913	16198.9	15382.5
802.9359	281.3061	16065.05	15245.25
803.0787	283.5204	16012.85	15191.55
803.2215	285.7341	15975.85	15152
803.3643	287.9473	16003.55	15169.05
803.5071	290.16	16071.15	15240.2
803.6499	292.3721	16125.35	15306.6
803.7928	294.5837	16279.85	15455.45
803.9357	296.7947	16451.25	15631.75
804.0786	299.0052	16635.25	15810.85
804.2215	301.2152	16610.35	15784.2
804.3644	303.4246	16490.65	15666.8
804.5074	305.6334	16161.65	15344.5
804.6503	307.8418	15778.2	14954.35
804.7933	310.0495	15389.1	14560.6
804.9363	312.2568	14992.25	14166.25
805.0793	314.4635	14564.95	13730.45
805.2223	316.6696	14230.75	13396.6
805.3653	318.8752	13989.2	13145.45
805.5084	321.0802	13892.7	13059.15
805.6514	323.2847	13902.3	13064.05
805.7945	325.4887	13923.65	13083.9
805.9376	327.692	13922.15	13083.7
806.0807	329.8949	13897.8	13057.9
806.2238	332.0972	13758.45	12916.05
806.367	334.2989	13528.5	12680.35
806.5101	336.5001	13291.1	12448.45
806.6533	338.7007	13086.5	12238.1
806.7965	340.9008	12926.95	12077.1
806.9397	343.1003	12755.9	11910.85
807.0829	345.2992	12618.05	11770.2
807.2261	347.4976	12506.4	11656.35
807.3693	349.6955	12426.5	11572.7
807.5126	351.8927	12388.15	11528.45
807.6559	354.0895	12326.9	11458.05
807.7991	356.2856	12306.3	11449.1
807.9424	358.4812	12243.55	11384.25
808.0857	360.6763	12252.85	11391.2
808.2291	362.8707	12211.65	11351.1
808.3724	365.0646	12254	11390.75
808.5158	367.258	12292.9	11433.6
808.6591	369.4508	12374	11508.35
808.8025	371.643	12518.65	11649.6
808.9459	373.8346	12597.4	11731
809.0893	376.0257	12705	11834.15
809.2327	378.2162	12735	11865.6
809.3762	380.4062	12728.7	11859.1
809.5196	382.5956	12633.6	11765.4
809.6631	384.7844	12536	11675.25
809.8066	386.9726	12386.75	11525.4
809.9501	389.1603	12314.3	11457.35
810.0936	391.3474	12243.15	11349.3
810.2371	393.5339	12218.75	11353.8
810.3806	395.7199	12216.6	11356.55
810.5241	397.9052	12241.85	11380.05
810.6677	400.09	12317.4	11457.15
810.8113	402.2743	12490.05	11630.45
810.9548	404.4579	12640.9	11776.05
811.0984	406.641	12839.3	11973.6
811.2421	408.8235	13023.45	12156.5
811.3857	411.0054	13147.95	12271.6
811.5293	413.1868	13310.35	12439.2
811.673	415.3675	13341.5	12466.7
811.8166	417.5477	13317.3	12443.7
811.9603	419.7273	13260.15	12383.4
812.104	421.9064	13197.75	12313.75
812.2477	424.0848	13094.55	12219.15
812.3914	426.2627	12977.65	12100.55
812.5351	428.4399	12764	11884.1
812.6788	430.6166	12464.1	11581.9
812.8226	432.7928	12146.95	11267.05
812.9663	434.9683	11846.4	10968.5
813.1101	437.1432	11615.6	10738.65
813.2539	439.3176	11453.3	10579.5
813.3977	441.4914	11329.25	10455.85
813.5415	443.6645	11292.85	10420.3
813.6853	445.8371	11269.85	10389.7
813.8291	448.0091	11209.15	10329.85
813.973	450.1806	11209.35	10330.35
814.1168	452.3514	11217.3	10338.8
814.2607	454.5216	11255.6	10365.6
814.4046	456.6913	11210.8	10333
814.5485	458.8603	11274.4	10395.85
814.6924	461.0288	11330.9	10456.9
814.8363	463.1967	11299.25	10426.3
814.9802	465.3639	11330.8	10454.15
815.1241	467.5306	11309	10430.3
815.2681	469.6967	11297.1	10421.2
815.412	471.8622	11287.65	10414.95
815.556	474.0271	11337.6	10463.95
815.7	476.1914	11381.55	10497.05
815.844	478.3551	11387.65	10502.4
815.988	480.5182	11440	10560.55
816.132	482.6807	11527.25	10656
816.276	484.8426	11756.3	10893.6
816.4201	487.0039	12028.7	11157.1
816.5641	489.1647	12427.9	11551.85
816.7082	491.3248	12714.5	11832.25
816.8522	493.4843	12841.35	11965
816.9963	495.6432	12781.75	11903.9
817.1404	497.8015	12643.55	11755.15
817.2845	499.9592	12539.6	11648.3
817.4286	502.1163	12313.85	11420.5
817.5727	504.2728	12001.55	11117.1
817.7168	506.4287	11757.65	10885.6
817.861	508.5839	11442.5	10565.05
818.0051	510.7386	11254.2	10370.75
818.1493	512.8927	11186.05	10290.4
818.2935	515.0461	11176.05	10286.45
818.4377	517.199	11243	10353.55
818.5818	519.3512	11432.5	10538.2
818.726	521.5029	11736.45	10840.15
818.8703	523.6539	11986.6	11095.1
819.0145	525.8043	12112.9	11218.8
819.1587	527.9541	12053.8	11159.35
819.303	530.1033	11837.2	10947.1
819.4472	532.2519	11686.1	10793.15
819.5915	534.3999	11580.2	10685.65
819.7357	536.5472	11614.3	10725.85
819.88	538.694	11779.6	10891.6
820.0243	540.8401	12042.65	11148.75
820.1686	542.9856	12245.65	11343.75
820.3129	545.1305	12229.05	11322.25
820.4572	547.2748	12167.05	11253.65
820.6016	549.4185	12015.75	11100.9
820.7459	551.5615	11896.3	10985.55
820.8902	553.704	11932.4	11026.2
821.0346	555.8458	12008.55	11106.6
821.1789	557.987	12209.3	11308.75
821.3233	560.1276	12454.4	11547.6
821.4677	562.2675	12912.5	12008.05
821.6121	564.4069	13440.75	12536.05
821.7565	566.5456	13947.75	13045.75
821.9009	568.6837	14088.4	13184
822.0453	570.8212	13696.8	12799.75
822.1897	572.958	13026.45	12125.35
822.3342	575.0942	12380.7	11484.05
822.4786	577.2299	11901.85	11009.45
822.6231	579.3648	11643.2	10759.25
822.7675	581.4992	11569.35	10694.35
822.912	583.6329	11647.35	10772.45
823.0565	585.766	11803.6	10923
823.201	587.8985	11930.35	11044.4
823.3454	590.0304	12017.8	11099.1
823.4899	592.1616	11978.85	11073.15
823.6345	594.2922	11861.4	10954.1
823.779	596.4222	11654.65	10746.35
823.9235	598.5515	11452.5	10540
824.068	600.6802	11313.45	10404.05
824.2126	602.8083	11151.6	10241.45
824.3571	604.9358	11131.75	10225.2
824.5017	607.0626	11148.9	10239.9
824.6462	609.1888	11291.85	10378.15
824.7908	611.3144	11463.3	10547.85
824.9354	613.4393	11614.35	10701.8
825.08	615.5636	11754.45	10842.9
825.2246	617.6873	11789	10878.5
825.3692	619.8103	11707.8	10792.45
825.5138	621.9327	11511.65	10597.6
825.6584	624.0544	11308	10400.7
825.803	626.1756	11095.65	10191.8
825.9477	628.2961	10933.15	10016.65
826.0923	630.4159	10854.15	9942.1
826.237	632.5351	10846.1	9931.2
826.3816	634.6537	10797.55	9882.05
826.5263	636.7716	10790.65	9869.95
826.6709	638.8889	10840.75	9919.15
826.8156	641.0056	10868.55	9944.45
826.9603	643.1216	10822.65	9900.9
827.105	645.237	10793.1	9875.85
827.2497	647.3518	10712.2	9803.2
827.3944	649.4659	10606	9698
827.5391	651.5793	10560.05	9654.6
827.6838	653.6922	10554.35	9642.35
827.8285	655.8043	10514.05	9604.05
827.9733	657.9159	10511.65	9596
828.118	660.0268	10483.45	9569.05
828.2627	662.137	10542.65	9625.8
828.4075	664.2466	10528.8	9608.45
828.5522	666.3556	10507.55	9587.85
828.697	668.4639	10438.5	9521.95
828.8418	670.5716	10414.3	9509.85
828.9865	672.6786	10394.65	9474.65
829.1313	674.785	10300.2	9376.3
829.2761	676.8907	10272.25	9352.9
829.4209	678.9958	10287	9371.2
829.5657	681.1002	10236.65	9318.6
829.7105	683.204	10238.65	9311.65
829.8553	685.3072	10235.6	9312.5
830.0001	687.4097	10235.75	9313
830.1449	689.5115	10236.2	9312.2
830.2898	691.6127	10225.5	9308.85
830.4346	693.7132	10206.6	9291.15
830.5794	695.8131	10253.85	9316.15
830.7243	697.9123	10253.65	9326.3
830.8691	700.0109	10321.55	9395.5
831.014	702.1089	10342.3	9417.55
831.1588	704.2061	10380.55	9456.85
831.3037	706.3028	10446.2	9523.7
831.4486	708.3987	10493.7	9566.95
831.5935	710.4941	10507.85	9585.1
831.7383	712.5887	10558.45	9637.8
831.8832	714.6827	10627.1	9701.3
832.0281	716.7761	10721.4	9801.45
832.173	718.8688	10855.25	9928.6
832.3179	720.9608	11001.8	10069.05
832.4628	723.0522	11155.2	10219.05
832.6077	725.1429	11228.8	10301.6
832.7527	727.233	11334.35	10406.85
832.8976	729.3224	11424.7	10500.1
833.0425	731.4112	11387.25	10457.25
833.1874	733.4993	11237.35	10306.3
833.3324	735.5867	11010.3	10082.3
833.4773	737.6735	10807	9875.6
833.6222	739.7596	10602.85	9673.65
833.7672	741.845	10427.8	9500.25
833.9122	743.9298	10347.2	9420.2
834.0571	746.014	10309.15	9382.65
834.2021	748.0974	10310.85	9377.7
834.347	750.1802	10305.8	9374.9
834.492	752.2624	10326.75	9395.9
834.637	754.3439	10391	9455.55
834.782	756.4247	10486.2	9548.75
834.9269	758.5048	10655.4	9718.95
835.0719	760.5843	10959.05	10025.45
835.2169	762.6631	11340.55	10405.25
835.3619	764.7413	11910.45	10977.95
835.5069	766.8188	12634.95	11699.8
835.6519	768.8956	13240.75	12307.95
835.7969	770.9718	13622.7	12691.55
835.9419	773.0473	13621.55	12688.3
836.0869	775.1221	13371.7	12439.2
836.232	777.1962	13114.2	12179.2
836.377	779.2697	13029.65	12094.4
836.522	781.3426	13116.15	12167.85
836.667	783.4147	13213.45	12278.2
836.8121	785.4862	13216.7	12282.75
836.9571	787.557	13025.05	12089.1
837.1021	789.6271	12548.65	11611
837.2472	791.6966	11933.2	10996.15
837.3922	793.7654	11285.55	10353.4
837.5373	795.8335	10896.1	9961.25
837.6823	797.901	10596.9	9662.3
837.8274	799.9678	10395.25	9456.25
837.9724	802.0339	10301.2	9363.35
838.1175	804.0993	10249.1	9302
838.2626	806.1641	10163.6	9225.4
838.4076	808.2282	10093.2	9159.65
838.5527	810.2916	10019	9081.95
838.6978	812.3544	9960.4	9026.55
838.8428	814.4164	9911.55	8975.65
838.9879	816.4778	9967.2	9028.25
839.133	818.5385	10018.2	9080.5
839.2781	820.5986	10150.7	9213
839.4232	822.658	10389.8	9450.05
839.5682	824.7166	10763.2	9827.25
839.7133	826.7747	11308.65	10369.6
839.8584	828.832	11882.05	10942.5
840.0035	830.8886	12285.95	11343.6
840.1486	832.9446	12490.45	11550.05
840.2937	834.9999	12346.5	11405.3
840.4388	837.0545	12049.8	11107.9
840.5839	839.1085	11619.2	10677.2
840.729	841.1618	11279.9	10334.65
840.8741	843.2143	11003.25	10064.65
841.0192	845.2662	10794.15	9852.2
841.1643	847.3175	10643.15	9705.4
841.3095	849.368	10551.2	9613.3
841.4546	851.4179	10438.4	9496.95
841.5997	853.467	10362.05	9423.65
841.7448	855.5155	10276.6	9337.35
841.8899	857.5633	10206.75	9265.3
842.0351	859.6105	10113.65	9173.45
842.1802	861.6569	10038.9	9094
842.3253	863.7027	9983.65	9040.55
842.4704	865.7478	9925.45	8982.7
842.6156	867.7922	9874.65	8930.1
842.7607	869.8359	9836.3	8891.9
842.9058	871.8789	9873.6	8931.85
843.0509	873.9212	9945.9	8974.45
843.1961	875.9629	9993.85	9051.35
843.3412	878.0039	10110.45	9165.75
843.4863	880.0441	10194	9258.35
843.6315	882.0837	10240.7	9298.4
843.7766	884.1226	10304.85	9361.7
843.9218	886.1609	10377.25	9436.05
844.0669	888.1984	10525.35	9584.15
844.212	890.2352	10655.35	9712.55
844.3572	892.2714	10660.6	9715.95
844.5023	894.3069	10622.2	9681.05
844.6475	896.3416	10454.05	9508.45
844.7926	898.3757	10295.7	9351.75
844.9377	900.4091	10174.05	9228.2
845.0829	902.4418	10157.3	9206.9
845.228	904.4739	10221.5	9273.2
845.3732	906.5052	10278	9332.95
845.5183	908.5358	10253.95	9307.7
845.6635	910.5658	10122.7	9175.75
845.8086	912.595	9892.2	8944.35
845.9538	914.6236	9698.45	8752.2
846.0989	916.6515	9569.1	8621.6
846.2441	918.6786	9455.1	8508.4
846.3892	920.7051	9430.65	8482.5
846.5344	922.7309	9472.35	8527.65
846.6795	924.756	9476.65	8531.4
846.8246	926.7804	9567.2	8621.6
846.9698	928.8041	9546.3	8602.55
847.1149	930.8272	9607.5	8662.4
847.2601	932.8495	9591.25	8646.8
847.4052	934.8711	9595.95	8644.7
847.5504	936.892	9567.75	8624
847.6955	938.9123	9586.85	8636.9
847.8407	940.9318	9623	8675.55
847.9858	942.9506	9619.95	8673.55
848.131	944.9688	9576.75	8634.9
848.2761	946.9862	9492.45	8548.75
848.4213	949.003	9328.5	8384.3
848.5664	951.019	9236.1	8290.1
848.7115	953.0344	9149.35	8203.45
848.8567	955.0491	9117	8171.15
849.0018	957.063	9162.35	8214.8
849.147	959.0763	9247.85	8302.5
849.2921	961.0888	9289.5	8337.05
849.4373	963.1007	9328.3	8384.55
849.5824	965.1119	9329	8396.15
849.7275	967.1223	9317.65	8385.7
849.8727	969.1321	9267.15	8335.35
850.0178	971.1412	9270.4	8331.8
850.1629	973.1495	9248.75	8310.75
850.3081	975.1572	9311.35	8319.5
850.4532	977.1641	9280.75	8332.8
850.5983	979.1704	9284.7	8341.05
850.7435	981.1759	9241.25	8291.25
850.8886	983.1808	9246.55	8299.1
851.0337	985.1849	9235.35	8278.1
851.1788	987.1884	9308.6	8360.15
851.324	989.1911	9375.45	8430.7
851.4691	991.1932	9440.15	8496.15
851.6142	993.1945	9428.35	8488.2
851.7593	995.1951	9407.05	8462.15
851.9045	997.1951	9389.85	8440.5
852.0496	999.1943	9364.2	8420
852.1947	1001.1928	9343.25	8397.35
852.3398	1003.1906	9424.75	8481
852.4849	1005.1877	9548.15	8603.6
852.63	1007.1841	9619.85	8675.85
852.7751	1009.1798	9690.4	8746.55
852.9202	1011.1748	9608.95	8665.45
853.0653	1013.1691	9458.2	8514.75
853.2104	1015.1627	9278	8334.45
853.3555	1017.1556	9066.05	8124.9
853.5006	1019.1477	8966.35	8027.7
853.6457	1021.1392	8841.6	7905.65
853.7908	1023.1299	8789.65	7854.9
853.9359	1025.12	8810.2	7879.7
854.081	1027.1093	8868.15	7950.5
854.2261	1029.0979	8966.85	8051.8
854.3712	1031.0859	9051.9	8130.8
854.5163	1033.0731	9105.75	8172.15
854.6613	1035.0596	9091.05	8156.55
854.8064	1037.0454	8979.6	8040.9
854.9515	1039.0304	8911.6	7971.35
855.0965	1041.0148	8770.25	7829.3
855.2416	1042.9985	8684.15	7743.15
855.3867	1044.9814	8657.65	7710.65
855.5317	1046.9636	8579.05	7638.35
855.6768	1048.9452	8577.7	7637.5
855.8219	1050.926	8629.65	7685.85
855.9669	1052.9061	8651.9	7712.4
856.112	1054.8855	8674.55	7730.1
856.257	1056.8642	8708.45	7768.35
856.4021	1058.8421	8761.45	7812.5
856.5471	1060.8194	8803.45	7857.85
856.6921	1062.7959	8845.55	7903.3
856.8372	1064.7717	8901.75	7957.65
856.9822	1066.7469	8989.15	8041.85
857.1272	1068.7213	9077.85	8132.3
857.2723	1070.695	9182.75	8238.95
857.4173	1072.6679	9214.35	8270.3
857.5623	1074.6402	9224.15	8282.95
857.7073	1076.6117	9211.9	8260.2
857.8523	1078.5826	9100.15	8152.05
857.9973	1080.5527	8968.4	8024.65
858.1423	1082.5221	8807.55	7867.45
858.2873	1084.4908	8768.85	7826.45
858.4323	1086.4587	8772.75	7829.4
858.5773	1088.426	8786.85	7843.5
858.7223	1090.3925	8799	7850.6
858.8673	1092.3584	8838.6	7894.35
859.0123	1094.3235	8861.95	7917.55
859.1573	1096.2879	8965	8022.2
859.3022	1098.2515	9112.9	8169.85
859.4472	1100.2145	9300.2	8358.3
859.5922	1102.1767	9525.9	8580.75
859.7371	1104.1382	9724.2	8782.55
859.8821	1106.099	9985.7	9042.9
860.027	1108.0591	10208.9	9267.9
860.172	1110.0185	10349.95	9407.2
860.3169	1111.9771	10431.7	9491.1
860.4619	1113.9351	10390.75	9448.4
860.6068	1115.8923	10275.35	9334.85
860.7517	1117.8488	10155	9211.65
860.8967	1119.8045	9984.4	9044.55
861.0416	1121.7596	9843.5	8899.5
861.1865	1123.7139	9708.15	8769.35
861.3314	1125.6675	9660.1	8722.9
861.4763	1127.6204	9659.85	8719.15
861.6212	1129.5726	9586.45	8643.6
861.7661	1131.524	9532.55	8595.15
861.911	1133.4748	9377.25	8434.4
862.0559	1135.4248	9162.1	8222.05
862.2008	1137.3741	9000.1	8058.6
862.3457	1139.3226	8889.8	7949.3
862.4905	1141.2705	8829.15	7887.4
862.6354	1143.2176	8752.8	7805.6
862.7803	1145.164	8702.8	7759.5
862.9251	1147.1097	8608.45	7668.2
863.07	1149.0546	8508.15	7564.55
863.2148	1150.9989	8400.25	7458.4
863.3597	1152.9424	8331.5	7387.7
863.5045	1154.8852	8244.35	7301.1
863.6493	1156.8272	8210.8	7267.5
863.7942	1158.7686	8251.55	7302.6
863.939	1160.7092	8266.35	7327.25
864.0838	1162.6491	8315.8	7370.15
864.2286	1164.5883	8437.6	7497.6
864.3734	1166.5267	8531.55	7591.4
864.5182	1168.4644	8699.8	7756.05
864.663	1170.4014	8876.15	7927.9
864.8078	1172.3377	9155.05	8216.15
864.9526	1174.2732	9467.55	8528.05
865.0974	1176.2081	9911.05	8975.5
865.2421	1178.1421	10427.2	9480.65
865.3869	1180.0755	11020.5	10085.6
865.5317	1182.0082	11379.75	10440
865.6764	1183.9401	11587.5	10649.15
865.8212	1185.8713	11433.75	10499.65
865.9659	1187.8017	11074.35	10143.25
866.1106	1189.7315	10664.4	9746.05
866.2554	1191.6605	10227.1	9307.65
866.4001	1193.5888	9962.65	9040.05
866.5448	1195.5163	9781.8	8849.9
866.6895	1197.4432	9672.3	8736.35
866.8342	1199.3693	9609.95	8672.25
866.9789	1201.2947	9554.85	8613.05
867.1236	1203.2193	9512.1	8574.65
867.2683	1205.1432	9510.6	8572.65
867.413	1207.0664	9477.2	8538.75
867.5576	1208.9889	9462.05	8522.7
867.7023	1210.9106	9428.5	8492.15
867.847	1212.8316	9430.25	8493.6
867.9916	1214.7519	9452.25	8506.35
868.1363	1216.6715	9513.35	8575.55
868.2809	1218.5903	9578.05	8641.85
868.4255	1220.5084	9676.35	8739.8
868.5701	1222.4257	9775.55	8839.35
868.7148	1224.3424	9864.05	8932.55
868.8594	1226.2583	9998.7	9058.95
869.004	1228.1735	10174.7	9237.45
869.1486	1230.0879	10322.6	9385.35
869.2932	1232.0016	10552.05	9616.95
869.4377	1233.9146	10709.65	9770.75
869.5823	1235.8269	10761.15	9827.15
869.7269	1237.7384	10729.8	9795.1
869.8715	1239.6492	10618.9	9686.6
870.016	1241.5592	10622.1	9684.5
870.1606	1243.4686	10713.8	9777.45
870.3051	1245.3772	10939.75	10004.15
870.4496	1247.285	11184.75	10250.15
870.5941	1249.1922	11418.75	10483.2
870.7387	1251.0986	11592.65	10656.25
870.8832	1253.0042	11707.85	10773.6
871.0277	1254.9092	11857.15	10921.9
871.1722	1256.8134	11958.2	11024.65
871.3167	1258.7169	12095.45	11160.25
871.4611	1260.6196	12270.45	11336.15
871.6056	1262.5216	12438.85	11502.75
871.7501	1264.4229	12611.85	11680.85
871.8945	1266.3234	12867.25	11934.2
872.039	1268.2232	13000.85	12065.75
872.1834	1270.1223	13071.5	12138.7
872.3278	1272.0207	13139.7	12203.8
872.4723	1273.9183	13102.25	12159.8
872.6167	1275.8151	13032.25	12095.05
872.7611	1277.7113	13076.75	12141.85
872.9055	1279.6067	13186.3	12252.45
873.0499	1281.5014	13487.65	12551.8
873.1943	1283.3953	13954.4	13016.65
873.3386	1285.2885	14585.15	13652.7
873.483	1287.181	15197.35	14266.15
873.6274	1289.0727	15765.2	14836
873.7717	1290.9637	16142.9	15209.65
873.9161	1292.854	16369.95	15435.35
874.0604	1294.7435	16371.75	15438.05
874.2047	1296.6323	16218.9	15282.4
874.349	1298.5204	15962.7	15025.1
874.4933	1300.4077	15661.95	14727.15
874.6376	1302.2943	15335.2	14403.55
874.7819	1304.1802	14963.25	14029.25
874.9262	1306.0653	14429.65	13493.65
875.0705	1307.9497	13909.8	12976.95
875.2147	1309.8333	13418.45	12481.6
875.359	1311.7162	13053.65	12120.4
875.5032	1313.5984	12822.3	11886.15
875.6475	1315.4798	12642.15	11708.6
875.7917	1317.3605	12508.25	11559.1
875.9359	1319.2405	12369.95	11431.85
876.0801	1321.1197	12100.35	11163.45
876.2243	1322.9982	11708.8	10772.5
876.3685	1324.876	11388.5	10457.05
876.5127	1326.753	11073.95	10137.05
876.6569	1328.6293	10827.95	9892.05
876.801	1330.5048	10651.35	9712.45
876.9452	1332.3796	10420.95	9483.9
877.0893	1334.2537	10307	9347
877.2335	1336.127	10212.05	9276.35
877.3776	1337.9996	10193.7	9259.35
877.5217	1339.8714	10176.9	9241.4
877.6658	1341.7426	10193.6	9218.55
877.8099	1343.6129	10174.55	9238.85
877.954	1345.4826	10168.45	9235.55
878.0981	1347.3515	10192.7	9255.7
878.2422	1349.2196	10173.4	9240.65
878.3862	1351.087	10190.7	9255.75
878.5303	1352.9537	10251.1	9314.35
878.6743	1354.8197	10358.85	9421.95
878.8184	1356.6849	10513.45	9576.8
878.9624	1358.5493	10698.15	9765.85
879.1064	1360.4131	10898.2	9967.8
879.2504	1362.276	11041.35	10110.5
879.3944	1364.1383	11076.45	10143.2
879.5384	1365.9998	10925.2	9986.15
879.6823	1367.8606	10616.2	9680.6
879.8263	1369.7206	10235.15	9298.2
879.9702	1371.5799	9918.45	8980.65
880.1142	1373.4384	9630.15	8698.25
880.2581	1375.2962	9379.15	8445.55
880.402	1377.1533	9086.65	8155.25
880.5459	1379.0096	8701.15	7772
880.6898	1380.8652	8360.95	7431
880.8337	1382.7201	8068.55	7138.65
880.9776	1384.5742	7844.3	6910.75
881.1215	1386.4275	7645.25	6712.9
881.2653	1388.2802	7502.15	6574.2
881.4092	1390.132	7381	6445.8
881.553	1391.9832	7321.2	6386.4
881.6968	1393.8336	7229.15	6293.85
881.8406	1395.6832	7185.4	6249.6
881.9844	1397.5322	7148.8	6218.6
882.1282	1399.3803	7120.55	6185
882.272	1401.2278	7068.65	6136
882.4158	1403.0745	7085.85	6154.7
882.5595	1404.9204	7059.9	6129.8
882.7033	1406.7656	7053.55	6123.25
882.847	1408.6101	7069.95	6138.75
882.9908	1410.4538	7080.65	6148.55
883.1345	1412.2968	7131.75	6199.35
883.2782	1414.139	7184.4	6254.85
883.4219	1415.9805	7267	6335.3
883.5656	1417.8213	7333.05	6397.3
883.7092	1419.6613	7401.4	6472.95
883.8529	1421.5006	7530.7	6600.35
883.9965	1423.3391	7727	6795.1
884.1402	1425.1769	8003.6	7072.8
884.2838	1427.0139	8409.4	7478.55
884.4274	1428.8502	8912.2	7980.45
884.571	1430.6858	9443.1	8512.25
884.7146	1432.5206	9814.2	8885.1
884.8582	1434.3547	10041	9108.75
885.0018	1436.188	10063.3	9134.35
885.1453	1438.0206	9996.85	9066.95
885.2889	1439.8524	9822.65	8893.65
885.4324	1441.6835	9695.9	8765.35
885.5759	1443.5139	9596.5	8662.95
885.7194	1445.3435	9494.95	8566.05
885.8629	1447.1724	9522.3	8592.5
886.0064	1449.0005	9463.65	8536.4
886.1499	1450.8279	9435.55	8506.8
886.2933	1452.6545	9412.5	8487.35
886.4368	1454.4804	9443.3	8515.45
886.5802	1456.3056	9461.6	8526.35
886.7237	1458.13	9383.75	8458.05
886.8671	1459.9536	9249.05	8320.15
887.0105	1461.7766	8998.9	8069.55
887.1539	1463.5987	8710.8	7780.75
887.2972	1465.4202	8375.15	7446.45
887.4406	1467.2409	8054.5	7125.65
887.584	1469.0608	7778.9	6851.45
887.7273	1470.88	7544	6616.25
887.8706	1472.6984	7311.95	6386.95
888.0139	1474.5161	7135.7	6209.4
888.1572	1476.3331	6990	6061.8
888.3005	1478.1493	6878.4	5948.8
888.4438	1479.9648	6772.45	5845.4
888.5871	1481.7795	6722.5	5794.05
888.7303	1483.5935	6681.6	5754.45
888.8736	1485.4067	6616.8	5689.2
889.0168	1487.2192	6568.95	5639.85
889.16	1489.031	6555.5	5628.45
889.3032	1490.842	6504.85	5579.9
889.4464	1492.6522	6494.35	5568.25
889.5896	1494.4618	6450.6	5521.5
889.7327	1496.2705	6409.2	5481.95
889.8759	1498.0785	6357.9	5429.4
890.019	1499.8858	6332.5	5406.6
890.1622	1501.6924	6295.45	5368.9
890.3053	1503.4981	6241.8	5313
890.4484	1505.3032	6212.25	5285.95
890.5914	1507.1075	6152.45	5222.9
890.7345	1508.911	6130.05	5203.35
890.8776	1510.7138	6077.25	5155.3
891.0206	1512.5159	6039.4	5113.8
891.1637	1514.3172	5957.35	5033.4
891.3067	1516.1178	5941.65	5017.65
891.4497	1517.9176	5918.45	4993.5
891.5927	1519.7166	5872.9	4951.8
891.7357	1521.515	5844.05	4913.35
891.8786	1523.3126	5833.25	4909.95
892.0216	1525.1094	5788.15	4861.55
892.1645	1526.9055	5794.45	4873.4
892.3074	1528.7008	5759.35	4836.55
892.4503	1530.4954	5735.95	4816.1
892.5932	1532.2893	5720.25	4802.15
892.7361	1534.0824	5687.4	4765.8
892.879	1535.8747	5701.55	4780.45
893.0218	1537.6663	5690.65	4773.9
893.1647	1539.4572	5680.55	4759.15
893.3075	1541.2473	5715.3	4795.05
893.4503	1543.0367	5693.25	4776.6
893.5931	1544.8253	5715.65	4790.45
893.7359	1546.6132	5764.9	4844.3
893.8787	1548.4003	5802.45	4872.3
894.0214	1550.1867	5856.05	4928
894.1642	1551.9723	5910.95	4993.6
894.3069	1553.7572	6023.6	5107.25
894.4496	1555.5414	6140.75	5226.35
894.5923	1557.3247	6300.05	5383.65
894.735	1559.1074	6480.85	5567.05
894.8777	1560.8893	6651.05	5738.6
895.0204	1562.6705	6824.1	5911.55
895.163	1564.4509	6968.7	6056.05
895.3056	1566.2305	7037.9	6130.4
895.4482	1568.0094	7066.6	6155.45
895.5908	1569.7876	7076.1	6164.1
895.7334	1571.565	7054.05	6141.2
895.876	1573.3417	7045.05	6132.35
896.0186	1575.1176	7046.2	6135.55
896.1611	1576.8928	7066.5	6158.1
896.3036	1578.6672	7074.45	6169.2
896.4461	1580.4409	7130.1	6225
896.5886	1582.2138	7173.95	6263
896.7311	1583.986	7249.7	6339.8
896.8736	1585.7575	7376.9	6466.9
897.0161	1587.5282	7487.95	6581.65
897.1585	1589.2981	7613.55	6709.4
897.3009	1591.0673	7744.45	6839.1
897.4433	1592.8358	7865.05	6960.2
897.5857	1594.6035	8008.5	7098.4
897.7281	1596.3704	8091.95	7181.55
897.8705	1598.1366	8203.45	7295.95
898.0128	1599.9021	8301.85	7398.65
898.1551	1601.6668	8408.85	7502.25
898.2975	1603.4308	8553.25	7644.6
898.4398	1605.194	8707.5	7796.5
898.5821	1606.9564	8917.4	8016.75
898.7243	1608.7182	9201.4	8301.5
898.8666	1610.4791	9505.15	8609.3
899.0088	1612.2394	9846.15	8951.65
899.1511	1613.9988	10194.9	9295.4
899.2933	1615.7576	10492.25	9593.85
899.4355	1617.5156	10711.75	9799.3
899.5776	1619.2728	10765.45	9858.25
899.7198	1621.0293	10642.85	9735.1
899.862	1622.785	10374.7	9470.15
900.0041	1624.54	9982.75	9079.4
900.1462	1626.2942	9564.8	8662.65
900.2883	1628.0477	9099.5	8199.9
900.4304	1629.8005	8682.85	7778.15
900.5725	1631.5525	8313.45	7412.35
900.7145	1633.3037	7982.5	7082.6
900.8566	1635.0542	7731.3	6831.6
900.9986	1636.804	7543.7	6642.7
901.1406	1638.553	7491.2	6500.65
901.2826	1640.3013	7319	6416.95
901.4245	1642.0488	7271.3	6369.7
901.5665	1643.7955	7271.3	6373.15
901.7085	1645.5416	7298.4	6397.55
901.8504	1647.2868	7388.3	6487.7
901.9923	1649.0313	7492.7	6590.65
902.1342	1650.7751	7662.8	6761.05
902.2761	1652.5181	7793.25	6892.8
902.4179	1654.2604	7969.15	7071.65
902.5598	1656.0019	8179.05	7280.65
902.7016	1657.7427	8429.85	7526.6
902.8434	1659.4828	8673.8	7769.85
902.9852	1661.222	8833.45	7931.15
903.127	1662.9606	8800.05	7898.9
903.2687	1664.6984	8556.55	7653.85
903.4105	1666.4354	8148.75	7243.75
903.5522	1668.1717	7622	6717.3
903.6939	1669.9072	7064.1	6159.45
903.8356	1671.642	6596.55	5691.75
903.9773	1673.3761	6219.75	5318.5
904.119	1675.1094	5913.15	5009.25
904.2606	1676.8419	5658.3	4755.75
904.4022	1678.5737	5477.5	4576.75
904.5439	1680.3048	5330.65	4427.35
904.6855	1682.0351	5179.85	4280.2
904.827	1683.7646	5060.4	4153.7
904.9686	1685.4934	4974.25	4073.35
905.1101	1687.2215	4886.15	3987.2
905.2517	1688.9488	4825	3927.2
905.3932	1690.6754	4746.75	3845.15
905.5347	1692.4012	4708.3	3806.9
905.6761	1694.1263	4657.7	3758.3
905.8176	1695.8506	4628.9	3729.55
905.9591	1697.5742	4592.7	3696.05
906.1005	1699.297	4520	3622.3
906.2419	1701.0191	4489.5	3594
906.3833	1702.7404	4445.4	3551.1
906.5246	1704.461	4401.4	3502.65
906.666	1706.1808	4378.05	3479.85
906.8073	1707.8999	4348.25	3450.6
906.9487	1709.6182	4329.5	3437.2
907.09	1711.3358	4307.1	3412.25
907.2313	1713.0527	4271.2	3378
907.3725	1714.7688	4241.15	3342.8
907.5138	1716.4841	4218.9	3321.95
907.655	1718.1987	4223.8	3321.5
907.7962	1719.9126	4207.65	3315.55
907.9374	1721.6257	4182.55	3287.85
908.0786	1723.338	4181.2	3287.95
908.2198	1725.0496	4157	3262.6
908.3609	1726.7605	4139.3	3243.4
908.502	1728.4706	4128.1	3231.65
908.6431	1730.18	4103.5	3209.25
908.7842	1731.8886	4079.15	3187
908.9253	1733.5964	4100.85	3188.1
909.0664	1735.3036	4073.9	3177
909.2074	1737.0099	4054.9	3159.6
909.3484	1738.7156	4035.85	3144.4
909.4894	1740.4204	4000.2	3104.5
909.6304	1742.1246	3975.2	3081.1
909.7714	1743.8279	3981.6	3089.9
909.9123	1745.5306	3943.55	3051.45
910.0532	1747.2325	3939	3047.4
910.1941	1748.9336	3901.7	3007.75
910.335	1750.634	3880.65	2984.25
910.4759	1752.3336	3879.2	2986.95
910.6168	1754.0325	3860.55	2968.8
910.7576	1755.7307	3841.85	2949.6
910.8984	1757.4281	3850.55	2957.4
911.0392	1759.1247	3848.05	2944.8
911.18	1760.8206	3846.25	2945.55
911.3208	1762.5158	3839.35	2938.5
911.4615	1764.2102	3819.7	2926.35
911.6022	1765.9039	3796.25	2903
911.7429	1767.5968	3786.3	2896.15
911.8836	1769.289	3767.7	2876.9
912.0243	1770.9804	3776.75	2883
912.1649	1772.6711	3786.75	2889.15
912.3056	1774.361	3770.5	2872.45
912.4462	1776.0502	3763.8	2868
912.5868	1777.7386	3752.3	2854.05
912.7274	1779.4263	3726.55	2833.7
912.8679	1781.1132	3734.3	2845
913.0084	1782.7994	3720.25	2827.45
913.149	1784.4849	3703	2812.45
913.2895	1786.1696	3695.65	2785.65
913.4299	1787.8535	3695.5	2806.8
913.5704	1789.5367	3676.55	2787.45
913.7108	1791.2192	3674.25	2784.3
913.8513	1792.9009	3693.95	2776.9
913.9917	1794.5818	3670.7	2774.85
914.132	1796.2621	3659.8	2766.55
914.2724	1797.9415	3637.85	2746.2
914.4128	1799.6202	3628.05	2732.7
914.5531	1801.2982	3613.25	2719.95
914.6934	1802.9755	3615.45	2719.4
914.8337	1804.6519	3637.15	2742.55
914.9739	1806.3277	3603.2	2711.25
915.1142	1808.0027	3597.25	2708.15
915.2544	1809.6769	3584.5	2695.25
915.3946	1811.3504	3568.65	2676.8
915.5348	1813.0231	3567.4	2677.6
915.675	1814.6951	3577.25	2685.2
915.8151	1816.3664	3576.45	2680.3
915.9553	1818.0369	3562.95	2668.75
916.0954	1819.7067	3552.35	2661.25
916.2355	1821.3757	3541.35	2646.75
916.3755	1823.044	3549.95	2655.25
916.5156	1824.7115	3529	2634.55
916.6556	1826.3783	3529.45	2636.25
916.7956	1828.0443	3515.65	2624.8
916.9356	1829.7096	3512.55	2619.65
917.0756	1831.3741	3533.3	2637.6
917.2155	1833.0379	3498.6	2606.25
917.3555	1834.701	3490.7	2599.4
917.4954	1836.3633	3485.05	2597.4
917.6353	1838.0248	3482.6	2591.1
917.7751	1839.6856	3475.35	2583.3
917.915	1841.3457	3480.9	2589
918.0548	1843.005	3459.35	2568.85
918.1946	1844.6636	3474.2	2581.55
918.3344	1846.3214	3465.25	2571.8
918.4742	1847.9785	3449	2558.9
918.6139	1849.6349	3449.05	2557.3
918.7537	1851.2904	3450.15	2548.4
918.8934	1852.9453	3447.6	2553.9
919.0331	1854.5994	3437.95	2543.15
919.1727	1856.2528	3435.85	2538.85
919.3124	1857.9054	3426.05	2533.45
919.452	1859.5572	3415.45	2524.65
919.5916	1861.2083	3403.85	2510.25
919.7312	1862.8587	3382.85	2488.7
919.8708	1864.5084	3402.7	2507.35
920.0103	1866.1572	3408.8	2516.85
920.1498	1867.8054	3385.1	2489.3
920.2893	1869.4528	3376.1	2483
920.4288	1871.0994	3376.45	2482.4
920.5683	1872.7453	3381.4	2487.75
920.7077	1874.3905	3370.85	2472.2
920.8471	1876.0349	3350.75	2458.5
920.9865	1877.6786	3356.55	2462.05
921.1259	1879.3215	3356.65	2463.9
921.2653	1880.9637	3344.45	2452.05
921.4046	1882.6051	3334.25	2442.55
921.5439	1884.2458	3325.6	2434.2
921.6832	1885.8858	3309.2	2415.35
921.8225	1887.525	3305.7	2412.9
921.9617	1889.1634	3280.2	2385.75
922.101	1890.8011	3285.85	2393.35
922.2402	1892.4381	3282.8	2390.4
922.3794	1894.0743	3289.8	2397.9
922.5185	1895.7098	3271.9	2379.6
922.6577	1897.3446	3271.55	2378.75
922.7968	1898.9786	3277.45	2380.65
922.9359	1900.6118	3264	2374.45
923.075	1902.2443	3242.15	2350.2
923.214	1903.8761	3246.75	2354.8
923.3531	1905.5071	3225.4	2334.25
923.4921	1907.1374	3235.9	2346.6
923.6311	1908.7669	3218	2328.3
923.77	1910.3957	3201.3	2312.1
923.909	1912.0237	3200.05	2308.05
924.0479	1913.651	3192.9	2301.5
924.1868	1915.2776	3185.3	2294.8
924.3257	1916.9034	3166.15	2277
924.4646	1918.5285	3168.85	2277.75
924.6034	1920.1528	3175.4	2283.05
924.7422	1921.7764	3168.85	2276.1
924.881	1923.3992	3152.3	2262.55
925.0198	1925.0213	3147.05	2256.3
925.1586	1926.6427	3131.1	2242.15
925.2973	1928.2633	3203.5	2227.15
925.436	1929.8832	3133.7	2240.75
925.5747	1931.5023	3100	2208.7
925.7134	1933.1207	3091.25	2198.4
925.852	1934.7383	3089.25	2199.1
925.9906	1936.3552	3098.3	2207.2
926.1292	1937.9714	3088.85	2197.75
926.2678	1939.5868	3074.9	2183.7
926.4064	1941.2015	3069.7	2176.85
926.5449	1942.8154	3053.8	2161
926.6834	1944.4286	3041.9	2150.6
926.8219	1946.041	3063.15	2149.7
926.9604	1947.6528	3032.15	2134.85
927.0988	1949.2637	3017.05	2126.35
927.2372	1950.8739	3015.5	2124
927.3756	1952.4834	3010.65	2120.4
927.514	1954.0921	3012	2119.5
927.6523	1955.7001	3001.9	2108.4
927.7907	1957.3074	2994.5	2106.85
927.929	1958.9139	2975.9	2088.85
928.0673	1960.5197	2970.65	2078.7
928.2055	1962.1247	2969.25	2080.7
928.3438	1963.729	2955.25	2069
928.482	1965.3325	2955.35	2063.3
928.6202	1966.9353	2946.8	2059.8
928.7584	1968.5374	2941.7	2053.7
928.8965	1970.1387	2933.2	2044.75
929.0346	1971.7393	2917.7	2028.15
929.1727	1973.3392	2922.75	2036.5
929.3108	1974.9383	2898.75	2013.4
929.4489	1976.5366	2900.75	2015.65
929.5869	1978.1342	2886.3	2000.55
929.7249	1979.7311	2894.35	2008
929.8629	1981.3273	2885	1998.65
930.0009	1982.9227	2866.6	1977.85
930.1388	1984.5173	2865.35	1980.6
930.2767	1986.1112	2867.6	1980.45
930.4146	1987.7044	2847.95	1963
930.5525	1989.2968	2845.6	1959.15
930.6904	1990.8885	2852.45	1963.1
930.8282	1992.4795	2834.35	1949.8
930.966	1994.0697	2826.8	1942.8
931.1038	1995.6592	2828.65	1943.05
931.2415	1997.2479	2823.95	1937.45
931.3793	1998.8359	2823.35	1938.6
931.517	2000.4232	2805.2	1923.75
931.6547	2002.0097	2793.95	1914.35
931.7923	2003.5955	2776.8	1893.5
931.93	2005.1805	2789.45	1905.6
932.0676	2006.7648	2789.65	1905.45
932.2052	2008.3484	2774.75	1891.45
932.3427	2009.9312	2783.3	1901.4
932.4803	2011.5133	2763.5	1882.1
932.6178	2013.0946	2755.85	1872.55
932.7553	2014.6752	2757.65	1877.55
932.8928	2016.2551	2749	1864.65
933.0302	2017.8342	2752	1870.2
933.1676	2019.4126	2738.95	1857.6
933.305	2020.9902	2725.2	1845.9
933.4424	2022.5672	2733.05	1848.9
933.5798	2024.1433	2737.6	1851.65
933.7171	2025.7188	2717.3	1838.25
933.8544	2027.2935	2721.35	1839.65
933.9917	2028.8674	2715.4	1836.55
934.129	2030.4406	2720.95	1839.45
934.2662	2032.0131	2706.6	1830.45
934.4034	2033.5849	2710.95	1825.35
934.5406	2035.1559	2699.7	1820.95
934.6778	2036.7261	2686.85	1804.15
934.8149	2038.2957	2669.75	1787.75
934.952	2039.8645	2673.85	1788.35
935.0891	2041.4325	2683.2	1795.55
935.2262	2042.9998	2667.7	1784.3
935.3632	2044.5664	2670.7	1788.15
935.5002	2046.1323	2658.2	1776.6
935.6372	2047.6974	2656.45	1776.75
935.7742	2049.2617	2645.95	1765.65
935.9111	2050.8254	2649.25	1762.65
936.048	2052.3883	2646.05	1764.3
936.1849	2053.9504	2648	1764.35
936.3218	2055.5118	2628.1	1741.25
936.4586	2057.0725	2621.25	1736.15
936.5955	2058.6325	2635.25	1752.4
936.7323	2060.1917	2617.5	1736.1
936.869	2061.7502	2609.6	1726.7
937.0058	2063.3079	2601.45	1722.35
937.1425	2064.8649	2601.5	1717.05
937.2792	2066.4212	2594.65	1710.45
937.4159	2067.9767	2594.7	1713.15
937.5525	2069.5315	2587.65	1704.75
937.6891	2071.0856	2574.4	1691.85
937.8257	2072.6389	2555.9	1675.35
937.9623	2074.1915	2552.35	1673.25
938.0989	2075.7433	2560.35	1675.65
938.2354	2077.2945	2541.3	1659.1
938.3719	2078.8448	2542	1658.05
938.5084	2080.3945	2530.15	1647.4
938.6448	2081.9434	2538.15	1653.6
938.7812	2083.4916	2530.5	1644.1
938.9176	2085.039	2538.9	1649.1
939.054	2086.5857	2525.05	1634.25
939.1903	2088.1317	2531.1	1642.2
939.3267	2089.677	2522.55	1632.05
939.463	2091.2215	2518.35	1626.05
939.5992	2092.7652	2504.4	1611.2
939.7355	2094.3083	2500	1609.45
939.8717	2095.8506	2498.2	1611.35
940.0079	2097.3921	2491.15	1604.8
940.1441	2098.933	2498.1	1611.7
940.2802	2100.4731	2499.55	1613.6
940.4163	2102.0124	2512.7	1607.95
940.5524	2103.5511	2495.4	1610.45
940.6885	2105.089	2481.2	1593.1
940.8245	2106.6261	2489.2	1602.5
940.9606	2108.1626	2467.9	1580.35
941.0965	2109.6983	2494.25	1579
941.2325	2111.2332	2463.7	1577.3
941.3684	2112.7675	2460.55	1571
941.5044	2114.301	2456.85	1566.9
941.6403	2115.8337	2444.8	1557.85
941.7761	2117.3657	2446.65	1560.25
941.912	2118.897	2447.65	1558.85
942.0478	2120.4276	2446.1	1552.1
942.1835	2121.9575	2438.15	1547.65
942.3193	2123.4866	2438.55	1549
942.455	2125.0149	2433.75	1545.9
942.5907	2126.5426	2417.95	1533.4
942.7264	2128.0695	2423.55	1539
942.8621	2129.5956	2402.8	1522.75
942.9977	2131.1211	2415.1	1528
943.1333	2132.6458	2409.45	1521.8
943.2689	2134.1698	2406.3	1517.4
943.4044	2135.693	2407.3	1516
943.54	2137.2155	2398.45	1505.6
943.6755	2138.7373	2393.5	1509.05
943.8109	2140.2584	2385.4	1501.9
943.9464	2141.7787	2390.2	1502.75
944.0818	2143.2983	2362.3	1482
944.2172	2144.8171	2367.1	1488.95
944.3526	2146.3353	2367.3	1484.45
944.4879	2147.8527	2365.7	1480.6
944.6232	2149.3693	2367.15	1479.15
944.7585	2150.8853	2358	1467.9
944.8938	2152.4005	2348.2	1460.55
945.029	2153.9149	2344.55	1454.8
945.1642	2155.4287	2335.7	1446.8
945.2994	2156.9417	2338.9	1450.45
945.4346	2158.454	2331.7	1444.55
945.5697	2159.9655	2321.8	1438.55
945.7048	2161.4764	2336	1451.35
945.8399	2162.9865	2320.4	1434.7
945.9749	2164.4958	2320.5	1437.25
946.1099	2166.0045	2316.95	1432.45
946.2449	2167.5124	2318.5	1432.3
946.3799	2169.0195	2322.6	1437.9
946.5148	2170.526	2306.35	1418.2
946.6498	2172.0317	2312.75	1424.65
946.7846	2173.5367	2305.95	1416.3
946.9195	2175.0409	2294.75	1409.3
947.0543	2176.5445	2288.35	1399.9
947.1891	2178.0473	2296.2	1407.2
947.3239	2179.5494	2292.35	1400.65
947.4587	2181.0507	2291.5	1405.8
947.5934	2182.5513	2271.2	1383.2
947.7281	2184.0512	2282.2	1394.55
947.8628	2185.5504	2272.25	1386.5
947.9974	2187.0488	2254.35	1367.3
948.132	2188.5465	2258.6	1373.75
948.2666	2190.0435	2271.95	1386.55
948.4012	2191.5397	2246.85	1359.35
948.5357	2193.0353	2247.9	1359.55
948.6702	2194.5301	2237.3	1347.6
948.8047	2196.0241	2244.25	1354.1
948.9392	2197.5175	2245.65	1354.1
949.0736	2199.0101	2236.15	1340.9
949.208	2200.502	2223.85	1335.85
949.3424	2201.9931	2223.3	1337.1
949.4767	2203.4835	2216.45	1331.65
949.611	2204.9733	2225.6	1324.95
949.7453	2206.4622	2209.7	1326.1
949.8796	2207.9505	2195.15	1309.5
950.0138	2209.438	2195.2	1310.95
950.148	2210.9248	2187.35	1301.95
950.2822	2212.4109	2196.25	1309.6
950.4164	2213.8962	2188.7	1297.65
950.5505	2215.3809	2188.75	1296.65
950.6846	2216.8648	2175.95	1283.45
950.8186	2218.3479	2194.7	1297.45
950.9527	2219.8304	2175.9	1279.75
951.0867	2221.3121	2175.4	1281.15
951.2207	2222.7931	2170.45	1278.65
951.3546	2224.2733	2166	1274.5
951.4886	2225.7529	2159.9	1270.35
951.6225	2227.2317	2146.3	1257.1
951.7563	2228.7098	2158.05	1272.6
951.8902	2230.1872	2143.45	1261
952.024	2231.6638	2141.3	1257.25
952.1578	2233.1397	2147.65	1262.05
952.2916	2234.6149	2120.35	1236.4
952.4253	2236.0894	2134	1246.9
952.559	2237.5632	2137.65	1242.95
952.6927	2239.0362	2122.7	1232.3
952.8263	2240.5085	2121.45	1234.35
952.9599	2241.9801	2105.1	1216.95
953.0935	2243.4509	2107.75	1220.2
953.2271	2244.921	2107.6	1218.75
953.3606	2246.3904	2100.7	1206.45
953.4941	2247.8591	2100.45	1210.65
953.6276	2249.3271	2100.85	1212.2
953.7611	2250.7943	2095.45	1207
953.8945	2252.2608	2081.3	1193.25
954.0279	2253.7266	2079.85	1192.3
954.1612	2255.1917	2074.55	1188.35
954.2946	2256.656	2073.15	1186.65
954.4279	2258.1197	2072.65	1186.45
954.5612	2259.5826	2072.9	1185.8
954.6944	2261.0447	2068.35	1177.5
954.8276	2262.5062	2056.35	1163.2
954.9608	2263.9669	2055.2	1164.25
955.094	2265.4269	2050.35	1159.85
955.2271	2266.8862	2048.9	1160.1
955.3602	2268.3448	2048.15	1161.8
955.4933	2269.8026	2046.25	1160.95
955.6264	2271.2598	2040.1	1155.3
955.7594	2272.7162	2045.05	1158.85
955.8924	2274.1719	2037.55	1149.1
956.0253	2275.6268	2040.7	1151
956.1583	2277.0811	2034.9	1145.25
956.2912	2278.5346	2026.6	1137.8
956.4241	2279.9874	2033.5	1146.75
956.5569	2281.4395	2030.25	1144.3
956.6897	2282.8908	2026.65	1136
956.8225	2284.3414	2020.15	1131.15
956.9553	2285.7914	2018.05	1131.95
957.088	2287.2406	2023.6	1133.8
957.2207	2288.689	2006.55	1114.8
957.3534	2290.1368	2025.3	1131.15
957.486	2291.5838	2012.45	1119.3
957.6186	2293.0302	2005.25	1112
957.7512	2294.4758	2005.85	1113.65
957.8838	2295.9206	2006.85	1112.6
958.0163	2297.3648	2003.35	1114.95
958.1488	2298.8082	1989.05	1100.85
958.2813	2300.251	1994	1104.25
958.4137	2301.693	1993.3	1099.35
958.5461	2303.1343	1979.95	1088.6
958.6785	2304.5748	1979.45	1091.55
958.8108	2306.0147	1972.35	1086.4
958.9432	2307.4538	1969.55	1081.4
959.0754	2308.8922	1957.3	1073.05
959.2077	2310.3299	1962.9	1077.15
959.3399	2311.7669	1965.2	1077.6
959.4721	2313.2031	1954.65	1064.15
959.6043	2314.6387	1948.35	1059.85
959.7365	2316.0735	1956.3	1067.3
959.8686	2317.5076	1952.65	1062.3
960.0006	2318.941	1947.8	1059.1
960.1327	2320.3737	1944.35	1052.75
960.2647	2321.8056	1945.65	1052.45
960.3967	2323.2369	1930.75	1041.65
960.5287	2324.6674	1941.15	1050.3
960.6606	2326.0972	1948.4	1058.2
960.7925	2327.5263	1934.2	1044.5
960.9244	2328.9547	1937.15	1049.15
961.0562	2330.3823	1935.55	1045.25
961.1881	2331.8092	1936.2	1041.9
961.3198	2333.2355	1916.65	1024.75
961.4516	2334.661	1917.1	1024.45
961.5833	2336.0858	1915.1	1023.05
961.715	2337.5098	1914.8	1027.2
961.8467	2338.9332	1911.85	1020.05
961.9783	2340.3558	1899.7	1008.3
962.1099	2341.7778	1902.4	1014.2
962.2415	2343.199	1911.5	1021.1
962.373	2344.6195	1889.9	1001.2
962.5045	2346.0393	1898.15	1010.85
962.636	2347.4583	1899.55	1010.15
962.7675	2348.8767	1905.05	1013.75
962.8989	2350.2943	1894.25	1003.25
963.0303	2351.7113	1900.1	1007.1
963.1617	2353.1275	1882.55	988.75
963.293	2354.543	1901.7	1002.75
963.4243	2355.9578	1887.3	994.35
963.5556	2357.3718	1874.9	987.25
963.6868	2358.7852	1880.2	989.75
963.818	2360.1978	1871.45	982.85
963.9492	2361.6098	1868.2	982.3
964.0803	2363.021	1872.8	979.95
964.2114	2364.4315	1878.3	987.65
964.3425	2365.8413	1875.5	986.8
964.4736	2367.2504	1863.7	977.35
964.6046	2368.6587	1858	971.05
964.7356	2370.0664	1853.6	964.35
964.8666	2371.4733	1848.4	959.1
964.9975	2372.8795	1846.55	957.9
965.1284	2374.285	1854.5	964.9
965.2593	2375.6899	1847.65	961.45
965.3901	2377.0939	1841.4	954.6
965.5209	2378.4973	1837.85	951.9
965.6517	2379.9	1834.75	945.7
965.7825	2381.3019	1827.35	939.5
965.9132	2382.7032	1834	948.45
966.0439	2384.1037	1829.4	943.85
966.1745	2385.5035	1824.55	939.3
966.3051	2386.9027	1821	937.05
966.4357	2388.3011	1819.3	930.2
966.5663	2389.6987	1813.55	925.5
966.6968	2391.0957	1817.35	929.1
966.8273	2392.492	1800.15	912.2
966.9578	2393.8876	1799.4	912.45
967.0882	2395.2824	1803.35	915.45
967.2186	2396.6765	1791.3	905.1
967.349	2398.07	1781	893.7
967.4793	2399.4627	1797.2	905.75
967.6097	2400.8547	1786.8	897.65
967.7399	2402.246	1790.95	894.35
967.8702	2403.6366	1785.2	897.9
968.0004	2405.0265	1776.15	889.75
968.1306	2406.4156	1782.25	889.55
968.2607	2407.8041	1776.55	884.1
968.3909	2409.1918	1775.55	884.05
968.521	2410.5789	1768.8	878.35
968.651	2411.9652	1770.7	879.55
968.781	2413.3508	1770.9	881.15
968.911	2414.7358	1759	868.95
969.041	2416.12	1758.4	869.5
969.1709	2417.5035	1758.15	868.85
969.3008	2418.8863	1759.95	872.4
969.4307	2420.2684	1759.65	873
969.5606	2421.6497	1747.7	858.5
969.6904	2423.0304	1744.9	855.9
969.8201	2424.4104	1745.95	857.35
969.9499	2425.7896	1744.4	850.1
970.0796	2427.1682	1734.25	845.25
970.2093	2428.546	1734.2	846.1
970.3389	2429.9232	1734.05	844.05
970.4685	2431.2996	1732.05	841.2
970.5981	2432.6753	1731.55	840.7
970.7277	2434.0503	1720.8	830.4
970.8572	2435.4246	1728.8	841.95
970.9867	2436.7982	1717.9	827
971.1161	2438.1711	1716.15	826.35
971.2456	2439.5433	1724.1	833.7
971.375	2440.9148	1720.45	825.15
971.5043	2442.2856	1712.75	824.85
971.6336	2443.6557	1708.6	818.2
971.7629	2445.025	1701.7	812.55
971.8922	2446.3937	1706.25	818
972.0214	2447.7617	1702.15	810.7
972.1506	2449.1289	1696.55	807.8
972.2798	2450.4955	1699	807.7
972.4089	2451.8613	1697.45	809.75
972.538	2453.2265	1691.35	803.35
972.6671	2454.5909	1693.25	806.1
972.7961	2455.9546	1682.15	796.35
972.9251	2457.3177	1684.6	797.5
973.0541	2458.68	1687.5	795.6
973.1831	2460.0416	1682.65	795.1
973.312	2461.4025	1679.05	789.4
973.4408	2462.7627	1693.3	793.05
973.5697	2464.1222	1666.65	782.75
973.6985	2465.4811	1674.9	787.9
973.8273	2466.8392	1670.95	781.5
973.956	2468.1966	1675.05	784.95
974.0847	2469.5533	1668.85	777.4
974.2134	2470.9093	1677.3	789.55
974.3421	2472.2645	1669.85	781.8
974.4707	2473.6191	1662.65	774.3
974.5993	2474.973	1657.7	768.7
974.7278	2476.3262	1671.75	781.15
974.8563	2477.6787	1662.65	775.65
974.9848	2479.0305	1658.5	771.1
975.1132	2480.3816	1655	765.95
975.2417	2481.7319	1661.7	773.2
975.37	2483.0816	1652.3	762.4
975.4984	2484.4306	1654.35	764.55
975.6267	2485.7789	1656.15	768
975.755	2487.1264	1646.65	759.1
975.8833	2488.4733	1643.1	757.25
976.0115	2489.8195	1657.4	752.15
976.1397	2491.165	1647.9	755.6
976.2678	2492.5097	1631.35	741.45
976.3959	2493.8538	1624.45	738.3
976.524	2495.1972	1620.05	732.3
976.6521	2496.5398	1627.25	737.15
976.7801	2497.8818	1630.2	739.95
976.9081	2499.2231	1625	736.6
977.036	2500.5637	1624.85	733.8
977.164	2501.9035	1618.55	728.35
977.2918	2503.2427	1627.6	733.15
977.4197	2504.5812	1616.55	728.15
977.5475	2505.919	1614.5	722.85
977.6753	2507.256	1617.75	728.3
977.8031	2508.5924	1601.75	716.15
977.9308	2509.9281	1608.25	714.8
978.0585	2511.2631	1603.75	716.8
978.1861	2512.5974	1603.55	713.75
978.3137	2513.9309	1600.45	712.8
978.4413	2515.2638	1629.55	716.7
978.5689	2516.596	1601.65	712
978.6964	2517.9275	1598.15	708.4
978.8239	2519.2583	1592.9	704.45
978.9513	2520.5884	1591.45	702.25
979.0788	2521.9178	1591.1	703.2
979.2062	2523.2465	1583.65	697.8
979.3335	2524.5745	1574.85	688.05
979.4608	2525.9018	1585.9	696.4
979.5881	2527.2284	1577.95	689.7
979.7154	2528.5543	1572.2	687
979.8426	2529.8796	1575	685.8
979.9698	2531.2041	1576.1	688.6
980.0969	2532.5279	1572.95	687.3
980.224	2533.851	1582.25	694.6
980.3511	2535.1735	1579.35	693.55
980.4781	2536.4952	1572.1	683.35
980.6052	2537.8163	1581.45	694
980.7321	2539.1366	1575.45	686.45
980.8591	2540.4562	1576	685.25
980.986	2541.7752	1572.65	684.65
981.1129	2543.0935	1574.25	684.4
981.2397	2544.411	1564.4	675.5
981.3665	2545.7279	1565.15	678.9
981.4933	2547.0441	1557.15	669.3
981.62	2548.3596	1571.5	679.7
981.7467	2549.6744	1561.3	672.9
981.8734	2550.9885	1568.85	672.3
982.0001	2552.3019	1554.9	666.6
982.1267	2553.6146	1563.65	676.7
982.2532	2554.9266	1561.85	673.05
982.3798	2556.2379	1558.2	667.35
982.5063	2557.5485	1550.45	663.35
982.6327	2558.8585	1557.25	662.25
982.7592	2560.1677	1562.75	668.55
982.8856	2561.4762	1550.7	661.85
983.0119	2562.7841	1562.95	670.9
983.1383	2564.0913	1541.8	653.7
983.2646	2565.3977	1549.6	661.4
983.3908	2566.7035	1552.4	662.9
983.517	2568.0086	1543.85	653.45
983.6432	2569.313	1538.7	648
983.7694	2570.6167	1546.95	653.65
983.8955	2571.9197	1540.15	652.2
984.0216	2573.222	1541.9	650.75
984.1476	2574.5236	1542.25	653.35
984.2737	2575.8246	1542.5	651.05
984.3996	2577.1248	1541.9	650.7
984.5256	2578.4244	1538.45	651.95
984.6515	2579.7232	1534.1	646.35
984.7774	2581.0214	1553.75	637.2
984.9032	2582.3189	1538.85	651.15
985.029	2583.6157	1536.2	644.6
985.1548	2584.9118	1541.2	652.3
985.2806	2586.2072	1537.1	647.85
985.4063	2587.5019	1533.15	645.1
985.5319	2588.7959	1536.05	647.2
985.6576	2590.0893	1533.45	643.7
985.7832	2591.3819	1531.6	642.6
985.9087	2592.6739	1534.4	647.25
986.0343	2593.9652	1541.9	654.35
986.1597	2595.2557	1531.25	645.85
986.2852	2596.5456	1537.9	648.35
986.4106	2597.8348	1529.95	642.3
986.536	2599.1234	1539	654.2
986.6614	2600.4112	1543.4	657.45
986.7867	2601.6983	1548.15	655.3
986.912	2602.9848	1540.1	653.9
987.0372	2604.2705	1533.75	639.55
987.1624	2605.5556	1532.1	647.6
987.2876	2606.84	1530.95	645
987.4128	2608.1237	1520.8	633
987.5379	2609.4067	1509.75	624.5
987.6629	2610.689	1528.45	636.2
987.788	2611.9707	1517.05	626.1
987.913	2613.2516	1522.35	631.25
988.0379	2614.5319	1507	620.9
988.1629	2615.8115	1507.4	619.6
988.2878	2617.0903	1506.9	619.95
988.4126	2618.3685	1504.4	618.05
988.5375	2619.6461	1504.65	617.75
988.6622	2620.9229	1499.5	613.8
988.787	2622.199	1503.1	614.75
988.9117	2623.4745	1498.25	611.5
989.0364	2624.7493	1493.05	608.35
989.161	2626.0234	1491.25	605.35
989.2857	2627.2968	1495.8	610.75
989.4102	2628.5695	1495.9	608.8
989.5348	2629.8415	1491.75	606.35
989.6593	2631.1128	1475.4	590.2
989.7837	2632.3835	1489	603.1
989.9082	2633.6535	1481.35	596.35
990.0326	2634.9228	1481.75	595.7
990.1569	2636.1914	1487.3	601.15
990.2812	2637.4593	1483.7	598.6
990.4055	2638.7265	1481	595.3
990.5298	2639.9931	1478.2	592.35
990.654	2641.259	1478.9	594
990.7782	2642.5242	1478.1	592.75
990.9023	2643.7887	1470.55	585.4
991.0264	2645.0525	1481.6	598.1
991.1505	2646.3156	1471.7	583.85
991.2745	2647.5781	1469.1	583.75
991.3985	2648.8398	1458.9	574.05
991.5225	2650.1009	1501.85	577.65
991.6464	2651.3613	1458.8	572.15
991.7703	2652.6211	1462.6	577.05
991.8942	2653.8801	1462.6	579.2
992.018	2655.1385	1455.2	567.9
992.1418	2656.3961	1459.25	573.9
992.2655	2657.6531	1464.95	580.3
992.3892	2658.9094	1458.15	572.95
992.5129	2660.1651	1458.5	574.4
992.6366	2661.42	1459.55	572.8
992.7602	2662.6743	1461.6	577.5
992.8837	2663.9279	1462.2	576.65
993.0073	2665.1808	1465.7	580.35
993.1307	2666.433	1467.95	580.8
993.2542	2667.6846	1465.8	582.15
993.3776	2668.9354	1472.45	585.5
993.501	2670.1856	1474	590.75
993.6244	2671.4351	1464.25	579.45
993.7477	2672.6839	1476.25	589.65
993.8709	2673.9321	1477.85	592.2
993.9942	2675.1795	1473	587.7
994.1174	2676.4263	1476.4	590.25
994.2405	2677.6724	1475.3	590.7
994.3637	2678.9179	1475.05	588.85
994.4868	2680.1626	1477.85	592.85
994.6098	2681.4067	1473.6	591.75
994.7328	2682.6501	1464.9	578.9
994.8558	2683.8928	1463.75	580.3
994.9788	2685.1348	1468.5	584.35
995.1017	2686.3761	1467.1	581.85
995.2245	2687.6168	1455.5	570.45
995.3474	2688.8568	1455.8	571.25
995.4702	2690.0961	1454	572.3
995.5929	2691.3348	1450.65	565.5
995.7156	2692.5727	1448.95	564.6
995.8383	2693.81	1446.05	560.8
995.961	2695.0466	1447.85	564.5
996.0836	2696.2826	1452.2	561.95
996.2062	2697.5178	1454.75	566.5
996.3287	2698.7524	1448.1	561.85
996.4512	2699.9863	1452.85	565.45
996.5737	2701.2195	1446.5	564.8
996.6961	2702.452	1452.85	567.1
996.8185	2703.6839	1457.15	570.85
996.9408	2704.9151	1453.65	568.95
997.0631	2706.1456	1467.8	582.35
997.1854	2707.3755	1477.5	591.25
997.3077	2708.6046	1487.1	601.15
997.4299	2709.8331	1482.75	594.35
997.552	2711.0609	1489.2	605.15
997.6742	2712.2881	1500.2	613.7
997.7963	2713.5145	1496.3	610.6
997.9183	2714.7403	1507.85	625.55
998.0403	2715.9654	1514.65	629.25
998.1623	2717.1899	1540.8	642.6
998.2842	2718.4136	1535.15	651.6
998.4062	2719.6367	1549.85	664.7
998.528	2720.8591	1562.7	670.6
998.6498	2722.0809	1568.6	684.15
998.7716	2723.3019	1583.6	695.2
998.8934	2724.5223	1586.5	699.8
999.0151	2725.7421	1593.65	706.15
999.1368	2726.9611	1590.5	705
999.2584	2728.1795	1594.9	706.3
999.38	2729.3972	1577.75	697.3
999.5016	2730.6142	1584.35	686.65
999.6231	2731.8306	1559.2	673.55
999.7446	2733.0462	1545.5	659.5
999.8661	2734.2612	1533.4	643.45
999.9875	2735.4756	1508.25	621.1
1000.1089	2736.6892	1504.1	618.75
1000.2302	2737.9022	1478.45	595.6
1000.3515	2739.1145	1474.3	590.95
1000.4728	2740.3262	1464.8	572.95
1000.594	2741.5372	1449.95	565.85
1000.7152	2742.7475	1444.1	558.15
1000.8363	2743.9571	1441.25	556.1
1000.9575	2745.1661	1433.35	543.8
1001.0785	2746.3744	1417.3	532.75
1001.1996	2747.582	1409.85	525.3
1001.3206	2748.7889	1407.6	521.25
1001.4415	2749.9952	1400.2	516.45
1001.5625	2751.2008	1392.95	509.35
1001.6833	2752.4057	1386.6	502.15
1001.8042	2753.61	1385.95	502.6
1001.925	2754.8136	1378.05	492.65
1002.0458	2756.0165	1380.95	496.75
1002.1665	2757.2188	1380.6	496.55
1002.2872	2758.4204	1383.35	499.1
1002.4078	2759.6213	1378.55	492.9
1002.5285	2760.8215	1381.55	493.3
1002.649	2762.0211	1376.25	492.25
1002.7696	2763.22	1379.5	493.25
1002.8901	2764.4182	1380	493.65
1003.0106	2765.6158	1373.75	489.35
1003.131	2766.8127	1365.95	483
1003.2514	2768.009	1364.9	481.5
1003.3717	2769.2045	1360.95	476.8
1003.492	2770.3994	1365.6	479.5
1003.6123	2771.5936	1365.7	482.2
1003.7325	2772.7872	1354.75	472.7
1003.8527	2773.9801	1349.25	464.15
1003.9729	2775.1723	1375.5	473.65
1004.093	2776.3639	1349.15	465.55
1004.2131	2777.5548	1354.35	467.6
1004.3331	2778.745	1346.55	461.05
1004.4531	2779.9346	1339.25	456.35
1004.5731	2781.1235	1347.55	463.75
1004.693	2782.3117	1339.5	457.05
1004.8129	2783.4992	1346	463.05
1004.9328	2784.6861	1351.75	467.7
1005.0526	2785.8723	1355.05	470.95
1005.1723	2787.0579	1358.75	474.75
1005.2921	2788.2428	1361.15	477.5
1005.4118	2789.427	1361.55	480.15
1005.5314	2790.6106	1367.95	484
1005.651	2791.7935	1379.85	495.2
1005.7706	2792.9757	1380	497.15
1005.8902	2794.1573	1390.15	504.35
1006.0097	2795.3382	1390.5	507.15
1006.1291	2796.5184	1397.85	517.7
1006.2485	2797.698	1409.8	525.2
1006.3679	2798.8769	1420.95	537.65
1006.4873	2800.0551	1435.45	552.2
1006.6066	2801.2327	1442.95	557.05
1006.7258	2802.4096	1447.3	566.1
1006.8451	2803.5859	1464.9	581.85
1006.9642	2804.7615	1478.6	594.7
1007.0834	2805.9364	1499.25	617.35
1007.2025	2807.1106	1515.1	633
1007.3216	2808.2842	1537.1	653.1
1007.4406	2809.4572	1561.85	679.2
1007.5596	2810.6294	1590.35	705.4
1007.6785	2811.801	1621.05	741.4
1007.7975	2812.972	1656.95	774.15
1007.9163	2814.1423	1681.8	800.65
1008.0352	2815.3119	1731.6	847.8
1008.154	2816.4808	1767.35	885.1
1008.2727	2817.6491	1817	933.8
1008.3914	2818.8167	1858.35	977.4
1008.5101	2819.9837	1920.95	1033.75
1008.6288	2821.15	1965.15	1082.65
1008.7474	2822.3157	2022.8	1140.85
1008.8659	2823.4807	2074.3	1191.4
1008.9844	2824.645	2142.45	1259
1009.1029	2825.8086	2188.45	1305.6
1009.2214	2826.9716	2245.4	1365.3
1009.3398	2828.134	2297.05	1416
1009.4581	2829.2957	2345.9	1464.9
1009.5764	2830.4567	2376.3	1493.8
1009.6947	2831.617	2398.85	1517
1009.813	2832.7767	2420.15	1539.6
1009.9312	2833.9358	2420.6	1541.3
1010.0493	2835.0941	2404.65	1519.85
1010.1675	2836.2519	2403.4	1522.2
1010.2855	2837.4089	2375.7	1493.05
1010.4036	2838.5653	2356.85	1475.4
1010.5216	2839.7211	2339	1458.25
1010.6396	2840.8761	2340.65	1457.45
1010.7575	2842.0306	2347.1	1468.85
1010.8754	2843.1843	2369.8	1488.6
1010.9932	2844.3374	2396.25	1514.35
1011.111	2845.4899	2428.95	1545.85
1011.2288	2846.6417	2479.65	1596.4
1011.3465	2847.7928	2515.5	1634.15
1011.4642	2848.9433	2584.2	1701.2
1011.5818	2850.0931	2632.7	1750.2
1011.6995	2851.2422	2697.6	1814.35
1011.817	2852.3907	2723.9	1841.4
1011.9345	2853.5385	2793.25	1910.35
1012.052	2854.6857	2857.7	1951
1012.1695	2855.8323	2888.45	2007.1
1012.2869	2856.9781	2937.45	2057.55
1012.4042	2858.1233	2974.25	2091.15
1012.5216	2859.2679	3025.45	2146.05
1012.6389	2860.4118	3087.55	2206.95
1012.7561	2861.555	3132.4	2248.1
1012.8733	2862.6976	3153.45	2271.5
1012.9905	2863.8395	3191.35	2311.65
1013.1076	2864.9808	3227.7	2344.6
1013.2247	2866.1214	3244.3	2363.15
1013.3417	2867.2614	3268.3	2385.15
1013.4587	2868.4007	3288.1	2406.25
1013.5757	2869.5393	3298.35	2416.1
1013.6926	2870.6773	3307.35	2423.05
1013.8095	2871.8146	3314.95	2428.85
1013.9263	2872.9513	3317.05	2431.7
1014.0431	2874.0874	3304.45	2423.35
1014.1599	2875.2227	3302.45	2419.7
1014.2766	2876.3574	3284.55	2402.95
1014.3933	2877.4915	3262.65	2379.7
1014.51	2878.6249	3218.55	2338.75
1014.6266	2879.7577	3202.95	2318.7
1014.7431	2880.8898	3193.7	2300.2
1014.8596	2882.0212	3173.55	2294.1
1014.9761	2883.152	3156.5	2274.05
1015.0925	2884.2821	3157.15	2276.75
1015.2089	2885.4116	3159.45	2280.4
1015.3253	2886.5405	3149.3	2268.7
1015.4416	2887.6686	3156.7	2271.35
1015.5579	2888.7962	3151.75	2273.35
1015.6741	2889.923	3160.45	2281.35
1015.7903	2891.0493	3171.95	2293.2
1015.9065	2892.1748	3187.95	2305.55
1016.0226	2893.2997	3197.35	2315.25
1016.1387	2894.424	3202.3	2322.65
1016.2547	2895.5476	3224.2	2344.15
1016.3707	2896.6706	3226.2	2345.75
1016.4866	2897.7929	3255.95	2374.5
1016.6025	2898.9145	3276.6	2395.95
1016.7184	2900.0355	3312.35	2430.9
1016.8342	2901.1559	3341.65	2459.35
1016.95	2902.2756	3364	2480.25
1017.0658	2903.3946	3388.85	2509.2
1017.1815	2904.513	3418	2535
1017.2971	2905.6308	3442.85	2563.8
1017.4127	2906.7479	3472.25	2590.25
1017.5283	2907.8643	3494.9	2614.9
1017.6439	2908.9801	3485	2604.5
1017.7594	2910.0953	3513.5	2633.4
1017.8748	2911.2098	3524.05	2638.15
1017.9902	2912.3236	3494.15	2606.35
1018.1056	2913.4368	3490.6	2606.7
1018.2209	2914.5494	3454	2573.6
1018.3362	2915.6613	3434.5	2547.25
1018.4515	2916.7725	3405.55	2522.65
1018.5667	2917.8831	3387.45	2506.25
1018.6819	2918.9931	3365.2	2481.5
1018.797	2920.1024	3343.95	2462.1
1018.9121	2921.211	3318	2436.05
1019.0271	2922.319	3282.55	2400.5
1019.1421	2923.4264	3273.2	2392.65
1019.2571	2924.5331	3275.4	2395.65
1019.372	2925.6391	3266.15	2388.15
1019.4869	2926.7445	3276.9	2396.6
1019.6017	2927.8493	3279.05	2397.6
1019.7165	2928.9534	3271.3	2390.85
1019.8313	2930.0569	3288.55	2405.1
1019.946	2931.1597	3280.35	2397.1
1020.0606	2932.2619	3295.65	2416.25
1020.1753	2933.3634	3309.25	2427.6
1020.2899	2934.4643	3299.6	2412.8
1020.4044	2935.5645	3292.35	2406.2
1020.5189	2936.6641	3285.55	2401.95
1020.6334	2937.763	3269.15	2390.85
1020.7478	2938.8613	3221.55	2340.65
1020.8622	2939.959	3180.25	2296.55
1020.9765	2941.056	3126.75	2247.7
1021.0908	2942.1523	3061.6	2179.6
1021.2051	2943.248	2995.15	2112.75
1021.3193	2944.3431	2913.75	2032.35
1021.4334	2945.4375	2821.45	1942.7
1021.5476	2946.5313	2735.2	1856.75
1021.6617	2947.6244	2631.1	1750
1021.7757	2948.7169	2547.15	1666.45
1021.8897	2949.8087	2460.25	1579.55
1022.0037	2950.8999	2375.05	1494.55
1022.1176	2951.9904	2306.95	1425.85
1022.2315	2953.0803	2240.85	1359.9
1022.3453	2954.1696	2185.05	1306.05
1022.4591	2955.2582	2128.85	1250.4
1022.5728	2956.3462	2086.75	1206
1022.6865	2957.4335	2047.15	1165.95
1022.8002	2958.5202	2022.9	1141
1022.9138	2959.6062	1998.3	1116.75
1023.0274	2960.6916	1984.6	1105.15
1023.141	2961.7764	1960.6	1081.5
1023.2545	2962.8605	1942.95	1060.6
1023.3679	2963.9439	1926.35	1045.7
1023.4813	2965.0267	1924.35	1044.55
1023.5947	2966.1089	1928.05	1025.9
1023.708	2967.1905	1911.9	1033.65
1023.8213	2968.2714	1904.7	1025.9
1023.9346	2969.3516	1904.7	1024.85
1024.0478	2970.4312	1920.05	1033
1024.1609	2971.5102	1913.3	1034.6
1024.274	2972.5885	1911.6	1030.45
1024.3871	2973.6662	1924.85	1040.8
1024.5002	2974.7432	1918.45	1039.6
1024.6132	2975.8196	1912.6	1033.85
1024.7261	2976.8954	1902.65	1021.95
1024.839	2977.9705	1898.05	1018.2
1024.9519	2979.045	1886.3	1006.65
1025.0647	2980.1188	1885.15	1005.85
1025.1775	2981.192	1867.1	989.6
1025.2902	2982.2645	1851.05	969.85
1025.4029	2983.3364	1827.75	947.65
1025.5156	2984.4077	1800.5	920.25
1025.6282	2985.4783	1774.25	889.7
1025.7407	2986.5483	1754.95	877.3
1025.8532	2987.6177	1720.05	842
1025.9657	2988.6864	1702.1	822.5
1026.0782	2989.7545	1657.2	774.05
1026.1906	2990.8219	1624.75	746.65
1026.3029	2991.8887	1598.4	716.3
1026.4152	2992.9548	1579.95	701.85
1026.5275	2994.0204	1543.15	664.7
1026.6397	2995.0852	1508.5	629.1
1026.7519	2996.1495	1485.15	606.95
1026.864	2997.2131	1458.15	577.95
1026.9761	2998.276	1440.85	560.2
1027.0882	2999.3383	1419.9	538.55
1027.2002	3000.4	1400.05	518.8
1027.3122	3001.4611	1394.6	513.25
1027.4241	3002.5215	1374	497.7
1027.536	3003.5812	1357.1	480.35
1027.6478	3004.6404	1344.3	465.45
1027.7596	3005.6989	1334.4	454.5
1027.8714	3006.7567	1312.1	433.6
1027.9831	3007.8139	1337.75	428.4
1028.0947	3008.8705	1299	421.7
1028.2064	3009.9264	1295.25	414.1
1028.3179	3010.9818	1283.15	402.6
1028.4295	3012.0364	1278.6	399.8
1028.541	3013.0905	1269.75	389.4
1028.6524	3014.1439	1258.95	378.4
1028.7638	3015.1966	1258.15	380.1
1028.8752	3016.2487	1251.7	372.4
1028.9865	3017.3002	1255.1	370.4
1029.0978	3018.3511	1248.65	372.15
1029.209	3019.4013	1240.75	360.7
1029.3202	3020.4509	1240.75	363.9
1029.4314	3021.4998	1235.1	356.6
1029.5425	3022.5481	1231.2	352
1029.6535	3023.5958	1227	347.65
1029.7645	3024.6428	1237.05	356.9
1029.8755	3025.6892	1227.85	348.15
1029.9864	3026.735	1229.55	350.25
1030.0973	3027.7802	1230.25	350.7
1030.2082	3028.8247	1224.95	346.05
1030.319	3029.8685	1224.95	347.15
1030.4297	3030.9118	1227.1	346.75
1030.5404	3031.9544	1226.1	348
1030.6511	3032.9963	1235.1	355.45
1030.7617	3034.0376	1235.8	358.05
1030.8723	3035.0783	1240.05	358.75
1030.9829	3036.1184	1242.35	364.6
1031.0934	3037.1578	1238.65	358.8
1031.2038	3038.1966	1241.6	362.35
1031.3142	3039.2348	1241.3	362.85
1031.4246	3040.2723	1246.15	360.25
1031.5349	3041.3092	1237.25	358.4
1031.6452	3042.3455	1236.45	358.2
1031.7554	3043.3811	1240.4	361.45
1031.8656	3044.4161	1241.85	361.95
1031.9758	3045.4505	1236.55	358.4
1032.0859	3046.4842	1240.55	362.8
1032.1959	3047.5173	1240	364
1032.3059	3048.5498	1234.2	357.85
1032.4159	3049.5816	1230.35	354
1032.5258	3050.6128	1231.15	351.95
1032.6357	3051.6434	1231.05	351.4
1032.7455	3052.6734	1219.65	340.25
1032.8553	3053.7027	1224.6	345.9
1032.9651	3054.7314	1219.85	341.75
1033.0748	3055.7594	1218.3	338.65
1033.1845	3056.7868	1215.7	336.35
1033.2941	3057.8136	1211.55	333.4
1033.4037	3058.8398	1213.05	334.8
1033.5132	3059.8653	1208	329.7
1033.6227	3060.8902	1210.85	332.8
1033.7321	3061.9145	1207.25	328.75
1033.8415	3062.9381	1209.05	332.2
1033.9509	3063.9612	1215.7	322.5
1034.0602	3064.9835	1205.55	326.9
1034.1694	3066.0053	1195.2	315.3
1034.2787	3067.0264	1193.85	315.3
1034.3878	3068.0469	1193.2	313.75
1034.497	3069.0668	1194.9	314.6
1034.6061	3070.086	1181.3	304.55
1034.7151	3071.1046	1177.1	300.85
1034.8241	3072.1226	1173.95	293.15
1034.9331	3073.1399	1171.35	292.55
1035.042	3074.1567	1162.85	285.85
1035.1508	3075.1727	1153.15	271.6
1035.2597	3076.1882	1149.9	272.15
1035.3684	3077.203	1149.2	272
1035.4772	3078.2173	1137.75	258.3
1035.5859	3079.2308	1134.5	254.2
1035.6945	3080.2438	1126.85	246
1035.8031	3081.2561	1121.15	242.05
1035.9117	3082.2678	1114.2	236.45
1036.0202	3083.2789	1109.8	231.05
1036.1286	3084.2893	1101.85	225.6
1036.2371	3085.2991	1103.5	223.1
1036.3454	3086.3083	1102.9	220.7
1036.4538	3087.3169	1098.45	219.35
1036.562	3088.3248	1089	208.95
1036.6703	3089.3321	1084.85	206.6
1036.7785	3090.3388	1081.55	203.95
1036.8866	3091.3449	1077.15	199.75
1036.9948	3092.3503	1076.25	196.2
1037.1028	3093.3551	1070.75	194.85
1037.2108	3094.3593	1067.45	189.8
1037.3188	3095.3629	1063.6	184.2
1037.4267	3096.3658	1065.7	184.7
1037.5346	3097.3681	1061.3	184.2
1037.6425	3098.3698	1060.65	182.45
1037.7503	3099.3708	1061.3	176.65
1037.858	3100.3713	1051.25	175.8
1037.9657	3101.3711	1048.35	170.75
1038.0734	3102.3702	1164.1	169.7
1038.181	3103.3688	1046.45	168.15
1038.2886	3104.3667	1046.6	168.65
1038.3961	3105.364	1043.05	165.15
1038.5036	3106.3607	1039.9	161.6
1038.611	3107.3568	1037.3	157.3
1038.7184	3108.3522	1036.15	158.95
1038.8257	3109.347	1039.85	162.25
1038.933	3110.3412	1034.65	151.5
1039.0403	3111.3348	1032.9	155.5
1039.1475	3112.3277	1023.4	146.15
1039.2547	3113.32	1023.5	146.55
1039.3618	3114.3117	1027.95	148.2
1039.4689	3115.3028	1026.65	149.2
1039.5759	3116.2932	1025.2	146.15
1039.6829	3117.2831	1026.95	143.9
1039.7898	3118.2723	1020.45	142.85
1039.8967	3119.2608	1016.95	138.75
1040.0035	3120.2488	1012.7	132.8
1040.1103	3121.2361	1014.05	137.35
1040.2171	3122.2229	1014.9	139.1
1040.3238	3123.209	1008.05	129.15
1040.4305	3124.1944	1007.1	130.35
1040.5371	3125.1793	1009.55	129.8
1040.6437	3126.1635	1006.6	127.8
1040.7502	3127.1471	1010	132.95
1040.8567	3128.1301	1000.45	123
1040.9631	3129.1125	1001.1	121.95
1041.0695	3130.0942	1003.9	125.15
1041.1759	3131.0753	1009.6	123.2
1041.2822	3132.0558	1004.1	123.85
1041.3884	3133.0357	997.35	119.15
1041.4946	3134.015	1000	122.05
1041.6008	3134.9936	998.5	118.95
1041.7069	3135.9716	1018.1	119.4
1041.813	3136.949	998.05	121.55
1041.919	3137.9258	1014.95	119.2
1042.025	3138.902	999.85	118.55
1042.1309	3139.8775	988.4	111.3
1042.2368	3140.8524	987	107.1
1042.3427	3141.8267	992.8	114.8
1042.4485	3142.8004	989.55	111.35
1042.5542	3143.7735	992.7	110.1
1042.6599	3144.7459	988.05	111.6
1042.7656	3145.7178	991.7	113.25
1042.8712	3146.689	983	107
1042.9768	3147.6596	987.2	107.9
1043.0823	3148.6295	982.9	104.9
1043.1878	3149.5989	980.25	103.25
1043.2932	3150.5676	982.05	106.5
1043.3986	3151.5357	977.55	100.35
1043.5039	3152.5032	977.5	100.95
1043.6092	3153.4701	979.8	102.2
1043.7145	3154.4364	980.85	101.5
1043.8197	3155.402	971.2	94.3
1043.9248	3156.367	977.95	99.5
1044.03	3157.3315	1017	103.55
1044.135	3158.2952	974	96.5
1044.24	3159.2584	978.05	100.3
1044.345	3160.221	974	95.85
1044.4499	3161.1829	970.05	92.5
1044.5548	3162.1442	973.4	95.55
1044.6596	3163.105	971.55	94.05
1044.7644	3164.065	973.3	98.65
1044.8692	3165.0245	975.9	95.7
1044.9739	3165.9834	971.5	95.25
1045.0785	3166.9416	970.35	95.45
1045.1831	3167.8993	971.55	92.65
1045.2877	3168.8563	967.85	89.7
1045.3922	3169.8127	967.25	90.55
1045.4966	3170.7684	964.55	86.5
1045.6011	3171.7236	967.6	90.05
1045.7054	3172.6782	968.5	92.55
1045.8098	3173.6321	965.4	88.5
1045.914	3174.5854	968.4	85.25
1046.0183	3175.5381	967.8	90.15
1046.1224	3176.4902	965	89.6
1046.2266	3177.4417	963.65	87.05
1046.3307	3178.3926	961.7	84.7
1046.4347	3179.3428	959.6	82.6
1046.5387	3180.2924	961.4	84.1
1046.6427	3181.2415	963.55	86.05
1046.7466	3182.1899	958.25	78.45
1046.8504	3183.1377	959.3	83.05
1046.9542	3184.0848	962.4	80.25
1047.058	3185.0314	956.55	79.8
1047.1617	3185.9773	958.7	80.15
1047.2654	3186.9227	958.15	79.95
1047.369	3187.8674	954.15	76.65
1047.4726	3188.8115	963.65	81.15
1047.5761	3189.755	954.85	78.25
1047.6796	3190.6979	955.05	79.6
1047.783	3191.6402	951.25	73.45
1047.8864	3192.5818	954	76.75
1047.9898	3193.5229	959.75	75.5
1048.0931	3194.4633	951.05	73.45
1048.1963	3195.4031	953.7	77
1048.2995	3196.3423	952.55	74.5
1048.4027	3197.2809	954.05	77.15
1048.5058	3198.2189	953.65	76.85
1048.6089	3199.1563	967.45	73.15
1048.7119	3200.0931	953.5	79.2
1048.8148	3201.0292	948.8	71.8
1048.9178	3201.9648	948.8	71.15
1049.0206	3202.8997	949.45	69.1
1049.1235	3203.834	947.5	70.5
1049.2262	3204.7677	949	71.15
1049.329	3205.7008	950.25	72.75
1049.4317	3206.6333	948.75	72.15
1049.5343	3207.5652	951.15	72.35
1049.6369	3208.4964	946.25	69.2
1049.7394	3209.4271	947.3	70.55
1049.8419	3210.3571	943.05	65.75
1049.9444	3211.2865	946.05	70
1050.0468	3212.2154	948.9	70.7
1050.1491	3213.1436	951.5	72
1050.2514	3214.0712	954.9	71.6
1050.3537	3214.9982	944.05	67.75
1050.4559	3215.9246	945	67.35
1050.5581	3216.8503	943.85	68.05
1050.6602	3217.7755	946.7	68.85
1050.7623	3218.7001	942.8	66.4
1050.8643	3219.624	941.45	62.05
1050.9663	3220.5473	944.35	66.6
1051.0682	3221.4701	943.2	66.3
1051.1701	3222.3922	943.55	63.45
1051.2719	3223.3137	942.3	65.35
1051.3737	3224.2346	941	64.15
1051.4754	3225.1549	938.55	63.55
1051.5771	3226.0746	942.45	67
1051.6788	3226.9937	940.5	61.55
1051.7804	3227.9121	938.1	60.35
1051.8819	3228.83	937.3	61.2
1051.9834	3229.7473	939.35	62.55
1052.0849	3230.6639	934.5	56.55
1052.1863	3231.5799	936.9	60.6
1052.2876	3232.4954	937.6	58.05
1052.3889	3233.4102	937.3	62.15
1052.4902	3234.3244	936.75	59
1052.5914	3235.238	933.6	57.75
1052.6926	3236.151	957.6	56.15
1052.7937	3237.0634	931.5	55.5
1052.8948	3237.9752	933.15	57.35
1052.9958	3238.8864	934.1	57.7
1053.0968	3239.797	933.25	57.6
1053.1977	3240.7069	936.7	60.2
1053.2986	3241.6163	932.1	54.2
1053.3994	3242.5251	933.05	57.65
1053.5002	3243.4332	932	55.8
1053.6009	3244.3408	930.65	54.8
1053.7016	3245.2477	930.2	53.3
1053.8022	3246.154	928.75	50.1
1053.9028	3247.0598	932.55	55.75
1054.0034	3247.9649	926.6	50.1
1054.1039	3248.8694	930.6	54.9
1054.2043	3249.7733	929.3	53
1054.3047	3250.6766	931.7	56.75
1054.4051	3251.5793	928.65	50.4
1054.5054	3252.4814	926.9	49.15
1054.6056	3253.3829	924.4	48.95
1054.7058	3254.2838	924.25	48.2
1054.806	3255.1841	924.4	47.6
1054.9061	3256.0838	924.75	48
1055.0061	3256.9829	924.8	48
1055.1062	3257.8814	927.15	47.85
1055.2061	3258.7792	926.25	47.05
1055.306	3259.6765	921.85	42.65
1055.4059	3260.5731	920	44.45
1055.5057	3261.4692	924.75	47.75
1055.6055	3262.3647	923.95	44.1
1055.7052	3263.2595	917.35	39.65
1055.8049	3264.1538	917.65	40.6
1055.9045	3265.0474	919.2	42.1
1056.0041	3265.9404	917.35	40.55
1056.1036	3266.8329	917.6	41.35
1056.2031	3267.7247	926.15	39.85
1056.3025	3268.616	914.5	40.05
1056.4019	3269.5066	913.3	37.1
1056.5013	3270.3966	913.15	35.2
1056.6005	3271.286	911.1	36
