Software Version:	3.9.2.0
Unit SN:	10000200
Spectrometer SN:	6960
Date:	3/8/2024 1:23:21 PM
Data Line Index:	25
Spectral Points:	2048
Integration time (ms):	125
Averages:	20
Delay (ms):	30000
Sequence Number:	1
Processing:	dark subtract
Laser Power (mW):	300
Laser Current (mA):	822
Laser Diode Temp (C):	25
Laser Case Temp (C):	26.2
System Temp (C):	26.2
Spectrometer Temp (C):	24
CCD Temp (C):	0.009
Secondary Temp (C):	20.01
Heatsink Temp (C):	21.238
CCDPCB Temp (C):	36.329
SecondaryPCB Temp (C):	30.949

Wavelength	RamanShift	Raw Counts	Dark Subtracted
787.061	30.1047	449.9	41.3
787.2016	32.3739	453.95	46.65
787.3422	34.6426	456.2	48.9
787.4828	36.9109	462.25	52
787.6235	39.1787	472.95	59.4
787.7642	41.4461	483.1	64.8
787.9049	43.7131	489.4	69.95
788.0456	45.9796	496.55	71.75
788.1863	48.2456	506.35	77.2
788.3271	50.5112	515.5	83.75
788.4679	52.7764	522.65	86.15
788.6087	55.0411	533.75	93.35
788.7496	57.3054	544.05	97.55
788.8904	59.5692	552.9	106
789.0313	61.8326	561.15	112
789.1722	64.0955	574.9	120.55
789.3132	66.3579	588.3	128.9
789.4541	68.6199	611.4	148.2
789.5951	70.8815	642	174.35
789.7361	73.1426	722.6	251.95
789.8771	75.4032	919.15	446.4
790.0181	77.6634	1404.4	925
790.1592	79.9231	2536.05	2047.95
790.3003	82.1824	5000.75	4494.75
790.4414	84.4412	9384.55	8845.3
790.5825	86.6995	15411.7	14832.75
790.7237	88.9574	21287.8	20676.25
790.8648	91.2148	25336.9	24698
791.006	93.4717	27188.2	26539.85
791.1472	95.7282	27450.45	26790.3
791.2885	97.9842	27304.4	26642.8
791.4297	100.2398	26664.25	26001.05
791.571	102.4949	26012.6	25346
791.7123	104.7495	25213.45	24542.7
791.8536	107.0036	24355	23685.9
791.9949	109.2573	23543.75	22872.4
792.1363	111.5105	22796.65	22119.7
792.2777	113.7632	22064.2	21389.6
792.4191	116.0154	21463.8	20775.9
792.5605	118.2672	20989.1	20307.1
792.7019	120.5185	20534.35	19852.9
792.8434	122.7693	20188.45	19507
792.9849	125.0197	19860.5	19171.6
793.1264	127.2696	19570.45	18880.7
793.2679	129.519	19405	18706.95
793.4094	131.7679	19151.25	18454
793.551	134.0163	18949.45	18244.7
793.6926	136.2642	18703.35	17998.1
793.8342	138.5117	18425.15	17715.05
793.9758	140.7587	18141.5	17431.95
794.1175	143.0052	17871.4	17157
794.2591	145.2512	17607.95	16899.15
794.4008	147.4967	17358.35	16643.95
794.5425	149.7417	17173.9	16454.65
794.6842	151.9863	17050.8	16326.65
794.826	154.2304	16996.55	16269.85
794.9677	156.4739	16819.15	16091.3
795.1095	158.717	16683.55	15952.3
795.2513	160.9596	16558.05	15822.55
795.3931	163.2017	16296.45	15559.9
795.535	165.4433	16026.9	15286.35
795.6768	167.6844	15691.4	14952.9
795.8187	169.925	15375.15	14634.8
795.9606	172.1651	15009.75	14263.9
796.1025	174.4047	14713.7	13967.3
796.2445	176.6439	14459.15	13709.15
796.3864	178.8825	14187.15	13431.45
796.5284	181.1206	14062.7	13303
796.6704	183.3582	13879.3	13116.65
796.8124	185.5954	13797.3	13035.5
796.9544	187.832	13706.5	12937.8
797.0965	190.0681	13667.5	12895.7
797.2386	192.3037	13655.65	12881.55
797.3806	194.5388	13630.75	12852.7
797.5228	196.7734	13686.9	12905.95
797.6649	199.0075	13741.65	12960.1
797.807	201.2411	13882.35	13101.7
797.9492	203.4742	13921.75	13138.95
798.0914	205.7068	14079.9	13292.45
798.2336	207.9389	14183.05	13390.6
798.3758	210.1704	14340.75	13556.5
798.518	212.4015	14445.75	13670.2
798.6603	214.632	14624.1	13854.15
798.8025	216.862	14789	14024.15
798.9448	219.0915	14936.8	14166.5
799.0871	221.3205	15114.95	14344.95
799.2294	223.549	15320.75	14557.1
799.3718	225.777	15546.05	14774.55
799.5141	228.0044	15820.85	15047.5
799.6565	230.2314	16199.25	15426.55
799.7989	232.4578	16569.85	15795.9
799.9413	234.6837	16834.4	16052.4
800.0837	236.909	17043.9	16254.9
800.2262	239.1339	17004.8	16192.1
800.3687	241.3582	16808.3	16005.85
800.5111	243.582	16573.1	15744.6
800.6536	245.8053	16295.45	15477.55
800.7961	248.0281	16041.35	15230.05
800.9387	250.2503	15866.95	15053.6
801.0812	252.472	15739.05	14923.25
801.2238	254.6932	15761.6	14947.7
801.3664	256.9139	15738.1	14923.6
801.509	259.134	15811.2	14987.35
801.6516	261.3536	15860.65	15040.9
801.7942	263.5727	15991.3	15167.85
801.9369	265.7912	16062.1	15239.55
802.0795	268.0092	16162.9	15344.3
802.2222	270.2267	16200.25	15383.95
802.3649	272.4436	16199.6	15375.8
802.5076	274.6601	16141.55	15307.55
802.6504	276.8759	16043.7	15217.6
802.7931	279.0913	15976.45	15150.95
802.9359	281.3061	15892.45	15062.05
803.0787	283.5204	15914.65	15081.4
803.2215	285.7341	15946.8	15110.7
803.3643	287.9473	16071	15224.85
803.5071	290.16	16221.6	15381.15
803.6499	292.3721	16490.4	15654.35
803.7928	294.5837	16848.65	16014
803.9357	296.7947	17189.25	16352.4
804.0786	299.0052	17395.85	16556.6
804.2215	301.2152	17291.55	16454.55
804.3644	303.4246	16990.55	16156.7
804.5074	305.6334	16474.55	15641.9
804.6503	307.8418	15976.95	15139.35
804.7933	310.0495	15561.95	14722.3
804.9363	312.2568	15237.2	14396.05
805.0793	314.4635	14956.45	14108.5
805.2223	316.6696	14810.75	13962.55
805.3653	318.8752	14724.65	13870.95
805.5084	321.0802	14724.15	13876.55
805.6514	323.2847	14792.75	13945.35
805.7945	325.4887	14840	13988.95
805.9376	327.692	14816.25	13966.55
806.0807	329.8949	14734.75	13882.8
806.2238	332.0972	14461.4	13607.55
806.367	334.2989	14187	13330.9
806.5101	336.5001	13921.7	13063.75
806.6533	338.7007	13700.9	12849.85
806.7965	340.9008	13593.6	12738.55
806.9397	343.1003	13478.3	12617.6
807.0829	345.2992	13385	12523.8
807.2261	347.4976	13325.45	12466.6
807.3693	349.6955	13323.75	12455.9
807.5126	351.8927	13370.35	12504
807.6559	354.0895	13336.7	12455.7
807.7991	356.2856	13358.3	12488.05
807.9424	358.4812	13315.6	12446.9
808.0857	360.6763	13357.05	12484.5
808.2291	362.8707	13328.6	12453.25
808.3724	365.0646	13370.3	12494.6
808.5158	367.258	13394	12519.45
808.6591	369.4508	13429.25	12545.55
808.8025	371.643	13553.25	12674.65
808.9459	373.8346	13569.7	12690.6
809.0893	376.0257	13590.5	12709.2
809.2327	378.2162	13519.2	12637
809.3762	380.4062	13453.7	12574.2
809.5196	382.5956	13300	12423.4
809.6631	384.7844	13181	12307.1
809.8066	386.9726	13051.9	12182.9
809.9501	389.1603	13006.1	12128.65
810.0936	391.3474	13019.75	12113.1
810.2371	393.5339	13001.05	12124.55
810.3806	395.7199	12932.35	12062.9
810.5241	397.9052	12930.55	12060.05
810.6677	400.09	12953.6	12079.1
810.8113	402.2743	13038.9	12165.65
810.9548	404.4579	13157.65	12281.5
811.0984	406.641	13363.1	12486.55
811.2421	408.8235	13542.9	12663.05
811.3857	411.0054	13837.7	12953.3
811.5293	413.1868	14196.35	13307.4
811.673	415.3675	14462.9	13573
811.8166	417.5477	14589.35	13705.85
811.9603	419.7273	14616.8	13727.7
812.104	421.9064	14517.6	13624.8
812.2477	424.0848	14405.7	13521.6
812.3914	426.2627	14190.05	13300.75
812.5351	428.4399	13957.85	13067.45
812.6788	430.6166	13581.6	12687
812.8226	432.7928	13232.95	12336.1
812.9663	434.9683	12902.65	12009.05
813.1101	437.1432	12702.1	11811.45
813.2539	439.3176	12526.1	11646.5
813.3977	441.4914	12396.3	11516.85
813.5415	443.6645	12369.65	11486.25
813.6853	445.8371	12336.7	11447.7
813.8291	448.0091	12291.1	11400.85
813.973	450.1806	12239.95	11351.4
814.1168	452.3514	12218.5	11331.1
814.2607	454.5216	12236.65	11337.1
814.4046	456.6913	12182.65	11292.55
814.5485	458.8603	12225.3	11329.65
814.6924	461.0288	12263.85	11381.9
814.8363	463.1967	12284.55	11402.9
814.9802	465.3639	12380.1	11492.85
815.1241	467.5306	12455.55	11566.4
815.2681	469.6967	12544.15	11661.25
815.412	471.8622	12697.35	11815.7
815.556	474.0271	12788.15	11903.9
815.7	476.1914	12849.75	11954.2
815.844	478.3551	12857.25	11964.4
815.988	480.5182	12833.9	11945.5
816.132	482.6807	12855.4	11972.5
816.276	484.8426	13008.9	12135.7
816.4201	487.0039	13295.15	12413.55
816.5641	489.1647	13684.65	12793.45
816.7082	491.3248	14086.8	13193.5
816.8522	493.4843	14245.2	13361.15
816.9963	495.6432	14235.9	13349.85
817.1404	497.8015	14116.4	13218.25
817.2845	499.9592	14078.95	13174.6
817.4286	502.1163	13981.55	13073.55
817.5727	504.2728	13742.4	12845.9
817.7168	506.4287	13432.7	12545.9
817.861	508.5839	13042.8	12155.9
818.0051	510.7386	12749.4	11857.3
818.1493	512.8927	12598.8	11695.5
818.2935	515.0461	12507.9	11610.3
818.4377	517.199	12513.5	11614.6
818.5818	519.3512	12556.35	11650.7
818.726	521.5029	12685.1	11782.9
818.8703	523.6539	12838.2	11937.1
819.0145	525.8043	12867.2	11962.55
819.1587	527.9541	12876.8	11976.75
819.303	530.1033	12795.8	11894.6
819.4472	532.2519	12746.9	11845.45
819.5915	534.3999	12855.2	11950.75
819.7357	536.5472	13057.85	12157.25
819.88	538.694	13431.25	12533.1
820.0243	540.8401	13957.4	13053.95
820.1686	542.9856	14370	13457.65
820.3129	545.1305	14492.55	13572.5
820.4572	547.2748	14398.2	13474.5
820.6016	549.4185	14053.85	13130.6
820.7459	551.5615	13791.3	12870.2
820.8902	553.704	13683.4	12765.7
821.0346	555.8458	13637.3	12723.65
821.1789	557.987	13724.15	12815.3
821.3233	560.1276	13787.55	12873.75
821.4677	562.2675	13936.65	13022.55
821.6121	564.4069	14097.1	13177.35
821.7565	566.5456	14258.9	13345.9
821.9009	568.6837	14244.6	13333.65
822.0453	570.8212	13919.45	13011.6
822.1897	572.958	13455.05	12546.15
822.3342	575.0942	13067.35	12158.55
822.4786	577.2299	12794	11886.2
822.6231	579.3648	12702.7	11809.15
822.7675	581.4992	12725.75	11842.65
822.912	583.6329	12896.75	12019
823.0565	585.766	13136.65	12247.15
823.201	587.8985	13268.2	12373.4
823.3454	590.0304	13321.25	12395.9
823.4899	592.1616	13264.3	12350.15
823.6345	594.2922	13166.35	12250.65
823.779	596.4222	12974.9	12057.05
823.9235	598.5515	12803.05	11882.6
824.068	600.6802	12626.1	11704.5
824.2126	602.8083	12454.45	11539.55
824.3571	604.9358	12408.1	11492.7
824.5017	607.0626	12375.65	11456.3
824.6462	609.1888	12380.65	11452.1
824.7908	611.3144	12423.15	11497.85
824.9354	613.4393	12380.55	11457.05
825.08	615.5636	12353.5	11427.3
825.2246	617.6873	12282.8	11359.4
825.3692	619.8103	12225.75	11300.3
825.5138	621.9327	12098.25	11171.9
825.6584	624.0544	11989.55	11067.5
825.803	626.1756	11905.25	10989.9
825.9477	628.2961	11833.75	10911.95
826.0923	630.4159	11781	10856.7
826.237	632.5351	11749.35	10824.5
826.3816	634.6537	11722.6	10791.5
826.5263	636.7716	11702.9	10768.75
826.6709	638.8889	11714.7	10784.85
826.8156	641.0056	11752.5	10819.3
826.9603	643.1216	11740.65	10814.2
827.105	645.237	11728.5	10801.8
827.2497	647.3518	11683.6	10765.2
827.3944	649.4659	11714.65	10796.9
827.5391	651.5793	11664.2	10748.4
827.6838	653.6922	11674.8	10755.2
827.8285	655.8043	11669.3	10747.8
827.9733	657.9159	11636.45	10715.7
828.118	660.0268	11568.5	10647.5
828.2627	662.137	11532.75	10604.9
828.4075	664.2466	11529.4	10598.35
828.5522	666.3556	11505.15	10573.15
828.697	668.4639	11473.9	10547.6
828.8418	670.5716	11505.5	10585.1
828.9865	672.6786	11574.7	10648.15
829.1313	674.785	11599.7	10668
829.2761	676.8907	11634.7	10707.6
829.4209	678.9958	11685.7	10764.5
829.5657	681.1002	11648.65	10722.5
829.7105	683.204	11634.5	10693.4
829.8553	685.3072	11624.75	10689
830.0001	687.4097	11552.9	10623.1
830.1449	689.5115	11548.2	10614.85
830.2898	691.6127	11509.45	10582.3
830.4346	693.7132	11438	10515.25
830.5794	695.8131	11434.95	10494.7
830.7243	697.9123	11426.05	10484.45
830.8691	700.0109	11393.25	10454.5
831.014	702.1089	11401.3	10466.3
831.1588	704.2061	11450.8	10520
831.3037	706.3028	11497.2	10560.45
831.4486	708.3987	11498.75	10564.2
831.5935	710.4941	11569.25	10631.5
831.7383	712.5887	11724.7	10796.2
831.8832	714.6827	11949.1	11013.7
832.0281	716.7761	12225.15	11297.2
832.173	718.8688	12504.25	11567.45
832.3179	720.9608	12714.55	11776.8
832.4628	723.0522	12804.75	11855.85
832.6077	725.1429	12690.7	11751.95
832.7527	727.233	12530.35	11588.1
832.8976	729.3224	12362.4	11427
833.0425	731.4112	12157.35	11220.2
833.1874	733.4993	11971.5	11032.75
833.3324	735.5867	11789.45	10849.8
833.4773	737.6735	11684.05	10745.3
833.6222	739.7596	11574.05	10635.65
833.7672	741.845	11472.45	10535.55
833.9122	743.9298	11436.95	10498.45
834.0571	746.014	11434.3	10494.2
834.2021	748.0974	11448.3	10504.4
834.347	750.1802	11447.6	10504.95
834.492	752.2624	11483.5	10538.05
834.637	754.3439	11504.4	10560.2
834.782	756.4247	11602.6	10650.05
834.9269	758.5048	11736.15	10795.9
835.0719	760.5843	11999.25	11054.4
835.2169	762.6631	12332.5	11387.3
835.3619	764.7413	12832	11893.3
835.5069	766.8188	13467.65	12522.75
835.6519	768.8956	13941.05	12998.6
835.7969	770.9718	14260.15	13320.75
835.9419	773.0473	14171.25	13230.05
836.0869	775.1221	13851.75	12911.85
836.232	777.1962	13494.8	12548.7
836.377	779.2697	13312.85	12369.75
836.522	781.3426	13351.7	12393.45
836.667	783.4147	13593.75	12644.9
836.8121	785.4862	13820.65	12878.35
836.9571	787.557	13793.1	12848.55
837.1021	789.6271	13411.95	12463.85
837.2472	791.6966	12838.15	11894.15
837.3922	793.7654	12293.3	11349.55
837.5373	795.8335	11954.7	11014.95
837.6823	797.901	11729.6	10783.9
837.8274	799.9678	11621.15	10672
837.9724	802.0339	11591.7	10645
838.1175	804.0993	11597.35	10639.1
838.2626	806.1641	11585.3	10637.25
838.4076	808.2282	11517.75	10574.05
838.5527	810.2916	11431.05	10483.95
838.6978	812.3544	11360.3	10416.55
838.8428	814.4164	11288.9	10342.3
838.9879	816.4778	11317.25	10369.3
839.133	818.5385	11324.65	10374.4
839.2781	820.5986	11439.5	10487.1
839.4232	822.658	11568.1	10618.65
839.5682	824.7166	11782	10835.1
839.7133	826.7747	12078.2	11130.45
839.8584	828.832	12368.5	11418.8
840.0035	830.8886	12594.7	11646.65
840.1486	832.9446	12726.3	11774.5
840.2937	834.9999	12699.75	11754.45
840.4388	837.0545	12609.5	11654.1
840.5839	839.1085	12534.45	11581.7
840.729	841.1618	12389.5	11433.4
840.8741	843.2143	12305.5	11354.5
841.0192	845.2662	12197.05	11248
841.1643	847.3175	12108.8	11156.2
841.3095	849.368	11975.85	11021.2
841.4546	851.4179	11887.6	10935.05
841.5997	853.467	11753.15	10801.1
841.7448	855.5155	11677.1	10724.7
841.8899	857.5633	11585.4	10632.65
842.0351	859.6105	11504.85	10553.45
842.1802	861.6569	11442.2	10489.5
842.3253	863.7027	11367.5	10413.7
842.4704	865.7478	11334.85	10375.4
842.6156	867.7922	11339.15	10386.5
842.7607	869.8359	11343.35	10392.25
842.9058	871.8789	11464.55	10512.55
843.0509	873.9212	11598.1	10613.3
843.1961	875.9629	11707.05	10757.15
843.3412	878.0039	11877.15	10923.9
843.4863	880.0441	11991.15	11040.7
843.6315	882.0837	12001.55	11050.05
843.7766	884.1226	11949.15	10996.35
843.9218	886.1609	11923.95	10972.6
844.0669	888.1984	11881.65	10927.5
844.212	890.2352	11905.9	10948.6
844.3572	892.2714	11892.1	10931.9
844.5023	894.3069	11845.4	10889
844.6475	896.3416	11752.8	10797.95
844.7926	898.3757	11688.1	10733
844.9377	900.4091	11687.55	10730.7
845.0829	902.4418	11693.3	10732.35
845.228	904.4739	11681.75	10723.95
845.3732	906.5052	11682.45	10725.25
845.5183	908.5358	11626.25	10670
845.6635	910.5658	11502.1	10547.5
845.8086	912.595	11317.4	10357.75
845.9538	914.6236	11173.5	10218.9
846.0989	916.6515	11062.8	10108.3
846.2441	918.6786	11044.8	10083.65
846.3892	920.7051	11087.4	10127.55
846.5344	922.7309	11159.25	10200.45
846.6795	924.756	11207.1	10250.75
846.8246	926.7804	11308.6	10355.7
846.9698	928.8041	11290.55	10332.05
847.1149	930.8272	11331.3	10372.7
847.2601	932.8495	11311.05	10355.5
847.4052	934.8711	11268.5	10312.65
847.5504	936.892	11124.15	10164.9
847.6955	938.9123	11044.55	10086
847.8407	940.9318	10959.65	9999.7
847.9858	942.9506	10904.25	9951.35
848.131	944.9688	10827.05	9870.65
848.2761	946.9862	10771.7	9814.75
848.4213	949.003	10670.7	9711
848.5664	951.019	10635.6	9678.4
848.7115	953.0344	10640.9	9683.75
848.8567	955.0491	10651.95	9696.4
849.0018	957.063	10743.8	9786.3
849.147	959.0763	10815.7	9857.05
849.2921	961.0888	10878.9	9917.85
849.4373	963.1007	10969.25	10016.25
849.5824	965.1119	11015.2	10069.85
849.7275	967.1223	11034.5	10097.25
849.8727	969.1321	11022.35	10085.2
850.0178	971.1412	11025.4	10076.6
850.1629	973.1495	11036.45	10084.8
850.3081	975.1572	11123.75	10121.15
850.4532	977.1641	11114.65	10161.55
850.5983	979.1704	11091.55	10134.1
850.7435	981.1759	11063.15	10100.35
850.8886	983.1808	11162.2	10205.65
851.0337	985.1849	11184.8	10217.5
851.1788	987.1884	11310.4	10349.5
851.324	989.1911	11466.75	10512.35
851.4691	991.1932	11574.15	10619
851.6142	993.1945	11642.1	10685.4
851.7593	995.1951	11602.55	10645.55
851.9045	997.1951	11582.45	10615.45
852.0496	999.1943	11496.75	10539.1
852.1947	1001.1928	11460.3	10504.7
852.3398	1003.1906	11470.2	10517.45
852.4849	1005.1877	11560.55	10605.95
852.63	1007.1841	11621.4	10666.55
852.7751	1009.1798	11547.9	10591.9
852.9202	1011.1748	11420.95	10467.1
853.0653	1013.1691	11230.85	10274.1
853.2104	1015.1627	11009.5	10056.65
853.3555	1017.1556	10810	9854.5
853.5006	1019.1477	10715.6	9762
853.6457	1021.1392	10636.15	9688.35
853.7908	1023.1299	10600.55	9652.05
853.9359	1025.12	10622.65	9683.3
854.081	1027.1093	10697.45	9774.4
854.2261	1029.0979	10790.75	9869.3
854.3712	1031.0859	10861.9	9935.35
854.5163	1033.0731	10876.7	9935.05
854.6613	1035.0596	10809.6	9863.45
854.8064	1037.0454	10691.9	9741.95
854.9515	1039.0304	10605.15	9649.9
855.0965	1041.0148	10513.35	9560.5
855.2416	1042.9985	10380.25	9427.55
855.3867	1044.9814	10353.15	9404.35
855.5317	1046.9636	10317.55	9361.35
855.6768	1048.9452	10321.75	9371.9
855.8219	1050.926	10343.5	9392.35
855.9669	1052.9061	10329.45	9378.35
856.112	1054.8855	10349	9397.35
856.257	1056.8642	10394.6	9442.35
856.4021	1058.8421	10446.85	9487.4
856.5471	1060.8194	10469.3	9513.1
856.6921	1062.7959	10502	9548
856.8372	1064.7717	10568.8	9616.3
856.9822	1066.7469	10585.05	9629.85
857.1272	1068.7213	10637.35	9678.85
857.2723	1070.695	10632.65	9678.65
857.4173	1072.6679	10602.95	9648.35
857.5623	1074.6402	10580.3	9624.35
857.7073	1076.6117	10544.45	9584.8
857.8523	1078.5826	10487.9	9530.75
857.9973	1080.5527	10472.7	9517.35
858.1423	1082.5221	10522.95	9570.2
858.2873	1084.4908	10631.15	9677.7
858.4323	1086.4587	10779.25	9825.05
858.5773	1088.426	10859.45	9906.2
858.7223	1090.3925	10880.3	9919.75
858.8673	1092.3584	10859.65	9903.9
859.0123	1094.3235	10772.7	9821.05
859.1573	1096.2879	10766.2	9814.55
859.3022	1098.2515	10789.95	9836.35
859.4472	1100.2145	10901.05	9946
859.5922	1102.1767	11031.8	10077.85
859.7371	1104.1382	11226.2	10274.45
859.8821	1106.099	11439.25	10485.55
860.027	1108.0591	11648.3	10695.6
860.172	1110.0185	11805.65	10849.05
860.3169	1111.9771	11856.95	10902.9
860.4619	1113.9351	11660.65	10708
860.6068	1115.8923	11439.05	10484.2
860.7517	1117.8488	11182	10229.15
860.8967	1119.8045	10968.85	10015
861.0416	1121.7596	10822.1	9871.5
861.1865	1123.7139	10733.5	9783.5
861.3314	1125.6675	10752.5	9802.15
861.4763	1127.6204	10790.25	9835.4
861.6212	1129.5726	10768.15	9814.1
861.7661	1131.524	10750.2	9800
861.911	1133.4748	10674.5	9722.5
862.0559	1135.4248	10611.4	9658.5
862.2008	1137.3741	10564.8	9614.05
862.3457	1139.3226	10488.25	9535.9
862.4905	1141.2705	10444.85	9492.3
862.6354	1143.2176	10352.3	9393
862.7803	1145.164	10358.7	9402.75
862.9251	1147.1097	10365.15	9414.5
863.07	1149.0546	10315.4	9362.3
863.2148	1150.9989	10224.15	9272.1
863.3597	1152.9424	10096.25	9143.75
863.5045	1154.8852	9955.95	9004.85
863.6493	1156.8272	9883.85	8928.1
863.7942	1158.7686	9853.9	8895.45
863.939	1160.7092	9829.15	8877
864.0838	1162.6491	9833.2	8877.25
864.2286	1164.5883	9942.35	8991.2
864.3734	1166.5267	10057.1	9103.25
864.5182	1168.4644	10190.45	9237.7
864.663	1170.4014	10356.4	9404.45
864.8078	1172.3377	10595.8	9647.75
864.9526	1174.2732	10846.25	9896.15
865.0974	1176.2081	11146.4	10199.2
865.2421	1178.1421	11491.9	10537.05
865.3869	1180.0755	11779.5	10830.8
865.5317	1182.0082	11996.15	11049.15
865.6764	1183.9401	12070.65	11123.45
865.8212	1185.8713	11931.85	10989.9
865.9659	1187.8017	11674.3	10738.4
866.1106	1189.7315	11406.9	10479.75
866.2554	1191.6605	11081.9	10156.2
866.4001	1193.5888	10843.6	9908.6
866.5448	1195.5163	10739.35	9799.1
866.6895	1197.4432	10665.15	9719.25
866.8342	1199.3693	10615.25	9672.7
866.9789	1201.2947	10577.3	9625.75
867.1236	1203.2193	10559.3	9613.5
867.2683	1205.1432	10570	9620.25
867.413	1207.0664	10571.75	9623.35
867.5576	1208.9889	10602.6	9651
867.7023	1210.9106	10626.8	9680
867.847	1212.8316	10654.7	9710.4
867.9916	1214.7519	10696.9	9739.6
868.1363	1216.6715	10714.65	9768.15
868.2809	1218.5903	10770.75	9822.15
868.4255	1220.5084	10786.45	9837.8
868.5701	1222.4257	10804.9	9860.75
868.7148	1224.3424	10785.95	9843.05
868.8594	1226.2583	10844.35	9895.2
869.004	1228.1735	10965.85	10018.95
869.1486	1230.0879	11094.15	10147.2
869.2932	1232.0016	11202.95	10256.95
869.4377	1233.9146	11244.7	10296.2
869.5823	1235.8269	11212.7	10265.55
869.7269	1237.7384	11097.6	10150.7
869.8715	1239.6492	10943.65	10000.9
870.016	1241.5592	10862.4	9915.9
870.1606	1243.4686	10821.55	9874.25
870.3051	1245.3772	10876.5	9931.55
870.4496	1247.285	10893.15	9944.8
870.5941	1249.1922	10922.25	9974.25
870.7387	1251.0986	10971.45	10024.25
870.8832	1253.0042	10974.45	10031.25
871.0277	1254.9092	11019.15	10075.45
871.1722	1256.8134	11108.95	10167.25
871.3167	1258.7169	11274.3	10330.1
871.4611	1260.6196	11412.25	10472.2
871.6056	1262.5216	11658.55	10712.95
871.7501	1264.4229	11849.75	10905.65
871.8945	1266.3234	12011.75	11067.75
872.039	1268.2232	12086.75	11138.7
872.1834	1270.1223	12134	11187.4
872.3278	1272.0207	12128.15	11181.5
872.4723	1273.9183	12076.8	11127.1
872.6167	1275.8151	12032.2	11086.55
872.7611	1277.7113	11960.7	11014.2
872.9055	1279.6067	11923.6	10984.65
873.0499	1281.5014	11918.2	10972.6
873.1943	1283.3953	12021.6	11073.7
873.3386	1285.2885	12197.2	11250.6
873.483	1287.181	12362.95	11418.25
873.6274	1289.0727	12556.15	11616.15
873.7717	1290.9637	12687.15	11743.25
873.9161	1292.854	12863.4	11921.95
874.0604	1294.7435	12943.2	12002.85
874.2047	1296.6323	13043.95	12100.8
874.349	1298.5204	13153.1	12207.75
874.4933	1300.4077	13235.85	12288.8
874.6376	1302.2943	13280.4	12336.45
874.7819	1304.1802	13234.75	12293.05
874.9262	1306.0653	12958.4	12015.6
875.0705	1307.9497	12701.05	11758.75
875.2147	1309.8333	12448.8	11509.5
875.359	1311.7162	12314.35	11371.65
875.5032	1313.5984	12249.8	11305.45
875.6475	1315.4798	12220.8	11276.3
875.7917	1317.3605	12261.95	11301.85
875.9359	1319.2405	12292.6	11345.1
876.0801	1321.1197	12158.9	11210.95
876.2243	1322.9982	12007.1	11058.2
876.3685	1324.876	11864.5	10922
876.5127	1326.753	11716.85	10772.8
876.6569	1328.6293	11665.05	10718.85
876.801	1330.5048	11620.25	10673.4
876.9452	1332.3796	11498.6	10555.05
877.0893	1334.2537	11463.3	10490.2
877.2335	1336.127	11399.75	10455.9
877.3776	1337.9996	11395.75	10450.3
877.5217	1339.8714	11384.4	10441.65
877.6658	1341.7426	11385.85	10398.15
877.8099	1343.6129	11349.95	10406.25
877.954	1345.4826	11300.15	10355.3
878.0981	1347.3515	11318.65	10372.3
878.2422	1349.2196	11258.7	10311.55
878.3862	1351.087	11305.7	10358.8
878.5303	1352.9537	11357.35	10414.05
878.6743	1354.8197	11468.7	10524.8
878.8184	1356.6849	11599.35	10657.8
878.9624	1358.5493	11742.05	10800.75
879.1064	1360.4131	11821.2	10878.9
879.2504	1362.276	11853.45	10909.2
879.3944	1364.1383	11772.65	10829.1
879.5384	1365.9998	11542.65	10594.15
879.6823	1367.8606	11215.05	10269.3
879.8263	1369.7206	10900.7	9957.8
879.9702	1371.5799	10594.75	9644.75
880.1142	1373.4384	10417.9	9475
880.2581	1375.2962	10240.85	9296.95
880.402	1377.1533	9970.7	9027.6
880.5459	1379.0096	9639	8701.7
880.6898	1380.8652	9332.85	8396.15
880.8337	1382.7201	9050.55	8113.35
880.9776	1384.5742	8818.05	7878.25
881.1215	1386.4275	8650.4	7705.65
881.2653	1388.2802	8546.45	7602.95
881.4092	1390.132	8423.4	7481.7
881.553	1391.9832	8363.65	7420.35
881.6968	1393.8336	8276.25	7330.95
881.8406	1395.6832	8239.2	7294.1
881.9844	1397.5322	8216.25	7273.15
882.1282	1399.3803	8199.1	7255.05
882.272	1401.2278	8149.4	7212.35
882.4158	1403.0745	8153.2	7214.4
882.5595	1404.9204	8153.2	7214.35
882.7033	1406.7656	8179.9	7238.85
882.847	1408.6101	8204.05	7263.65
882.9908	1410.4538	8229.7	7285.35
883.1345	1412.2968	8276.75	7337.75
883.2782	1414.139	8321.45	7378.25
883.4219	1415.9805	8411.55	7471.35
883.5656	1417.8213	8477.4	7530.6
883.7092	1419.6613	8591.85	7651.25
883.8529	1421.5006	8740.65	7801.35
883.9965	1423.3391	8976.9	8036.95
884.1402	1425.1769	9282.9	8342.55
884.2838	1427.0139	9746.9	8805.1
884.4274	1428.8502	10319	9376.7
884.571	1430.6858	10854.8	9915.85
884.7146	1432.5206	11277	10337.05
884.8582	1434.3547	11527.15	10583.85
885.0018	1436.188	11565.6	10627.6
885.1453	1438.0206	11436.9	10495.4
885.2889	1439.8524	11298.2	10356.75
885.4324	1441.6835	11178	10238.8
885.5759	1443.5139	11072.55	10130.5
885.7194	1445.3435	11013.35	10076.05
885.8629	1447.1724	10970.45	10032.05
886.0064	1449.0005	10898.2	9960.35
886.1499	1450.8279	10812	9872.5
886.2933	1452.6545	10802.55	9865.2
886.4368	1454.4804	10792.75	9857.75
886.5802	1456.3056	10823.8	9879.15
886.7237	1458.13	10729.4	9793.7
886.8671	1459.9536	10528.85	9592.6
887.0105	1461.7766	10221.45	9283.6
887.1539	1463.5987	9867	8927.8
887.2972	1465.4202	9507.3	8568.5
887.4406	1467.2409	9130.25	8193.8
887.584	1469.0608	8853.9	7915.3
887.7273	1470.88	8588	7649.75
887.8706	1472.6984	8357.8	7422.05
888.0139	1474.5161	8149.6	7210.6
888.1572	1476.3331	7990.7	7055
888.3005	1478.1493	7885.3	6949.7
888.4438	1479.9648	7806.2	6866.25
888.5871	1481.7795	7700.9	6762.05
888.7303	1483.5935	7640	6701.5
888.8736	1485.4067	7574.05	6638.1
889.0168	1487.2192	7534.6	6597
889.16	1489.031	7476.45	6536.05
889.3032	1490.842	7445.6	6509.8
889.4464	1492.6522	7377.95	6440.25
889.5896	1494.4618	7365.45	6425.9
889.7327	1496.2705	7348.45	6412.4
889.8759	1498.0785	7292.35	6357.45
890.019	1499.8858	7273.9	6334.5
890.1622	1501.6924	7249.45	6314.1
890.3053	1503.4981	7194.95	6257.6
890.4484	1505.3032	7177.6	6240.35
890.5914	1507.1075	7135.25	6199.6
890.7345	1508.911	7129.3	6192.75
890.8776	1510.7138	7090.2	6152.15
891.0206	1512.5159	7020.95	6088.1
891.1637	1514.3172	6991.55	6057.9
891.3067	1516.1178	6918.4	5983.65
891.4497	1517.9176	6918.05	5982.05
891.5927	1519.7166	6876.75	5945.3
891.7357	1521.515	6860.55	5918.2
891.8786	1523.3126	6814.75	5879.4
892.0216	1525.1094	6792.65	5857.7
892.1645	1526.9055	6765.55	5832.25
892.3074	1528.7008	6761.3	5827.45
892.4503	1530.4954	6714	5781.65
892.5932	1532.2893	6707.5	5777.25
892.7361	1534.0824	6677.75	5746.2
892.879	1535.8747	6669.95	5739.55
893.0218	1537.6663	6661.55	5734
893.1647	1539.4572	6655.45	5723.4
893.3075	1541.2473	6651.55	5720.3
893.4503	1543.0367	6648.95	5719.85
893.5931	1544.8253	6641.7	5704.85
893.7359	1546.6132	6663.75	5730.8
893.8787	1548.4003	6660.95	5721.25
894.0214	1550.1867	6702.85	5766
894.1642	1551.9723	6752.2	5821.45
894.3069	1553.7572	6799.65	5870.35
894.4496	1555.5414	6855.45	5929.5
894.5923	1557.3247	6926.1	6000.1
894.735	1559.1074	7043.25	6123.65
894.8777	1560.8893	7147	6225.05
895.0204	1562.6705	7221.5	6298.4
895.163	1564.4509	7334.8	6411.3
895.3056	1566.2305	7378.65	6459.15
895.4482	1568.0094	7443.8	6524.9
895.5908	1569.7876	7482.1	6561.9
895.7334	1571.565	7458.1	6537.7
895.876	1573.3417	7473.35	6549.7
896.0186	1575.1176	7437.6	6517.75
896.1611	1576.8928	7405.15	6487.3
896.3036	1578.6672	7358.05	6443.9
896.4461	1580.4409	7299.55	6388.3
896.5886	1582.2138	7236	6321.6
896.7311	1583.986	7173.7	6255.3
896.8736	1585.7575	7154.35	6234.05
897.0161	1587.5282	7130.25	6214.4
897.1585	1589.2981	7154.5	6242.75
897.3009	1591.0673	7157.8	6245.75
897.4433	1592.8358	7193.1	6277.75
897.5857	1594.6035	7249.2	6331.2
897.7281	1596.3704	7281.05	6362.75
897.8705	1598.1366	7352.6	6438.55
898.0128	1599.9021	7398.85	6484.9
898.1551	1601.6668	7503.6	6584.9
898.2975	1603.4308	7597.95	6681.2
898.4398	1605.194	7719.75	6800.05
898.5821	1606.9564	7879.85	6969.5
898.7243	1608.7182	8056.2	7151.35
898.8666	1610.4791	8263.45	7365.35
899.0088	1612.2394	8456.5	7557.45
899.1511	1613.9988	8670.9	7767.6
899.2933	1615.7576	8915.7	8008.8
899.4355	1617.5156	9124.2	8202.5
899.5776	1619.2728	9279.3	8360.4
899.7198	1621.0293	9308.3	8391.05
899.862	1622.785	9262.15	8351.4
900.0041	1624.54	9117.65	8207.75
900.1462	1626.2942	8883.4	7972.35
900.2883	1628.0477	8641.4	7732.8
900.4304	1629.8005	8371.4	7460.4
900.5725	1631.5525	8155.85	7249.7
900.7145	1633.3037	7932.25	7026.8
900.8566	1635.0542	7812.85	6906.05
900.9986	1636.804	7672.5	6766
901.1406	1638.553	7673.95	6703.55
901.2826	1640.3013	7571.2	6664.25
901.4245	1642.0488	7547.05	6637.75
901.5665	1643.7955	7602.6	6697.7
901.7085	1645.5416	7655.25	6749.9
901.8504	1647.2868	7759.45	6853.05
901.9923	1649.0313	7866.25	6957
902.1342	1650.7751	8028.6	7119.65
902.2761	1652.5181	8171.25	7264.6
902.4179	1654.2604	8354.7	7448.3
902.5598	1656.0019	8614.7	7712.7
902.7016	1657.7427	8879.9	7973.4
902.8434	1659.4828	9179.9	8268.9
902.9852	1661.222	9347.95	8439.95
903.127	1662.9606	9319.1	8412
903.2687	1664.6984	9083.7	8171.65
903.4105	1666.4354	8681.35	7767.15
903.5522	1668.1717	8146.65	7233.25
903.6939	1669.9072	7634.2	6720.2
903.8356	1671.642	7171.6	6258.2
903.9773	1673.3761	6804.45	5896.2
904.119	1675.1094	6508.6	5599.45
904.2606	1676.8419	6262.25	5350.5
904.4022	1678.5737	6113.5	5205.8
904.5439	1680.3048	5971.7	5058.95
904.6855	1682.0351	5835.4	4924.8
904.827	1683.7646	5741.3	4828.45
904.9686	1685.4934	5674.7	4766.7
905.1101	1687.2215	5593.7	4687.85
905.2517	1688.9488	5556.15	4651.25
905.3932	1690.6754	5497.9	4591.65
905.5347	1692.4012	5464.85	4557.45
905.6761	1694.1263	5428.3	4517.5
905.8176	1695.8506	5388	4477
905.9591	1697.5742	5358.1	4453.4
906.1005	1699.297	5307.85	4405.4
906.2419	1701.0191	5281.7	4381.5
906.3833	1702.7404	5235.1	4331.2
906.5246	1704.461	5204.35	4296.75
906.666	1706.1808	5179.6	4272.9
906.8073	1707.8999	5145.3	4241.45
906.9487	1709.6182	5119.1	4220.35
907.09	1711.3358	5098.75	4200.5
907.2313	1713.0527	5097.25	4201.95
907.3725	1714.7688	5061.9	4156.15
907.5138	1716.4841	5036.55	4130.35
907.655	1718.1987	5019.6	4110.6
907.7962	1719.9126	4995.4	4097.15
907.9374	1721.6257	4973.95	4073.45
908.0786	1723.338	4956.85	4061.4
908.2198	1725.0496	4940.05	4040.25
908.3609	1726.7605	4932.55	4030.95
908.502	1728.4706	4914.25	4014.35
908.6431	1730.18	4889.25	3988
908.7842	1731.8886	4866.4	3968.05
908.9253	1733.5964	4877.35	3954.35
909.0664	1735.3036	4851.85	3949.95
909.2074	1737.0099	4852.4	3952.25
909.3484	1738.7156	4817.25	3919.4
909.4894	1740.4204	4783.65	3883
909.6304	1742.1246	4782.6	3880.95
909.7714	1743.8279	4742.55	3844.85
909.9123	1745.5306	4726.4	3826.4
910.0532	1747.2325	4701.55	3805.85
910.1941	1748.9336	4694.6	3796.55
910.335	1750.634	4657.7	3754.95
910.4759	1752.3336	4652.6	3754.1
910.6168	1754.0325	4649.2	3754.05
910.7576	1755.7307	4629	3733.35
910.8984	1757.4281	4634.5	3736.6
911.0392	1759.1247	4628.1	3718.8
911.18	1760.8206	4608.55	3701.9
911.3208	1762.5158	4608.3	3701.85
911.4615	1764.2102	4578	3679.3
911.6022	1765.9039	4573.15	3674.95
911.7429	1767.5968	4562.3	3667.45
911.8836	1769.289	4539.45	3642.8
912.0243	1770.9804	4544	3643.35
912.1649	1772.6711	4511.8	3607.85
912.3056	1774.361	4503.15	3601.25
912.4462	1776.0502	4524.5	3624.6
912.5868	1777.7386	4490.7	3588
912.7274	1779.4263	4492.35	3593.55
912.8679	1781.1132	4483.65	3587.7
913.0084	1782.7994	4472.95	3580.05
913.149	1784.4849	4463.1	3570.15
913.2895	1786.1696	4459.45	3556.55
913.4299	1787.8535	4446.85	3553.85
913.5704	1789.5367	4422.6	3531.25
913.7108	1791.2192	4423.7	3529.15
913.8513	1792.9009	4419.85	3494.25
913.9917	1794.5818	4411.7	3510.05
914.132	1796.2621	4397.95	3501
914.2724	1797.9415	4376.75	3478.8
914.4128	1799.6202	4370.75	3471
914.5531	1801.2982	4353.85	3452.8
914.6934	1802.9755	4350.7	3450.8
914.8337	1804.6519	4341.45	3440.55
914.9739	1806.3277	4333.3	3437.05
915.1142	1808.0027	4311	3420.45
915.2544	1809.6769	4295.9	3404.7
915.3946	1811.3504	4281	3387.75
915.5348	1813.0231	4286.45	3393.4
915.675	1814.6951	4281.45	3387.75
915.8151	1816.3664	4285.45	3385.75
915.9553	1818.0369	4262.2	3364
916.0954	1819.7067	4253.05	3355.95
916.2355	1821.3757	4243.65	3341.2
916.3755	1823.044	4240.15	3338.8
916.5156	1824.7115	4222.85	3322.65
916.6556	1826.3783	4213.65	3315.55
916.7956	1828.0443	4191.65	3295.75
916.9356	1829.7096	4194.3	3296.3
917.0756	1831.3741	4191	3290.75
917.2155	1833.0379	4184.9	3292
917.3555	1834.701	4176.9	3283.9
917.4954	1836.3633	4170.45	3277.5
917.6353	1838.0248	4167.4	3273.65
917.7751	1839.6856	4162.35	3264.95
917.915	1841.3457	4150.5	3252.85
918.0548	1843.005	4161.85	3263
918.1946	1844.6636	4139.85	3243.8
918.3344	1846.3214	4112.8	3218.9
918.4742	1847.9785	4128.75	3231.6
918.6139	1849.6349	4111.85	3212.1
918.7537	1851.2904	4121.05	3212.85
918.8934	1852.9453	4116.25	3214.65
919.0331	1854.5994	4095.4	3195.6
919.1727	1856.2528	4101	3197.45
919.3124	1857.9054	4084.3	3186.5
919.452	1859.5572	4075.45	3180.65
919.5916	1861.2083	4068.75	3169.7
919.7312	1862.8587	4063.35	3166.1
919.8708	1864.5084	4056.35	3155.6
920.0103	1866.1572	4040.35	3141.5
920.1498	1867.8054	4031	3131.15
920.2893	1869.4528	4041.95	3139.9
920.4288	1871.0994	4023.3	3125.05
920.5683	1872.7453	4012.35	3112.3
920.7077	1874.3905	4020.65	3103.45
920.8471	1876.0349	3994	3097
920.9865	1877.6786	3982.9	3082.15
921.1259	1879.3215	4006.05	3109
921.2653	1880.9637	3974.55	3076
921.4046	1882.6051	3968.3	3071.55
921.5439	1884.2458	3949.85	3051.95
921.6832	1885.8858	3939.35	3042.6
921.8225	1887.525	3947.15	3052.25
921.9617	1889.1634	3920.2	3022.2
922.101	1890.8011	3927	3027.95
922.2402	1892.4381	3921	3021.5
922.3794	1894.0743	3906.2	3012.25
922.5185	1895.7098	3900.5	3004.1
922.6577	1897.3446	3878.95	2981.55
922.7968	1898.9786	3876.55	2976.25
922.9359	1900.6118	3878.25	2981.6
923.075	1902.2443	3871.95	2975.55
923.214	1903.8761	3853.15	2957.25
923.3531	1905.5071	3824.15	2927.75
923.4921	1907.1374	3822.75	2926.3
923.6311	1908.7669	3838.95	2944.45
923.77	1910.3957	3820.05	2924.95
923.909	1912.0237	3774.7	2878.15
924.0479	1913.651	3796.45	2902.7
924.1868	1915.2776	3781.65	2887.8
924.3257	1916.9034	3759.7	2864.8
924.4646	1918.5285	3745.8	2851.75
924.6034	1920.1528	3734.3	2837.7
924.7422	1921.7764	3735.55	2840.4
924.881	1923.3992	3726.6	2831.15
925.0198	1925.0213	3720.2	2824.9
925.1586	1926.6427	3690.85	2797.7
925.2973	1928.2633	3858.1	2757.95
925.436	1929.8832	3722.9	2823.75
925.5747	1931.5023	3680.8	2786.25
925.7134	1933.1207	3663.4	2765.55
925.852	1934.7383	3665.5	2769.25
925.9906	1936.3552	3632	2738.6
926.1292	1937.9714	3638.4	2743.8
926.2678	1939.5868	3629.55	2729.9
926.4064	1941.2015	3631.7	2732.6
926.5449	1942.8154	3603.85	2705.2
926.6834	1944.4286	3596.35	2700.8
926.8219	1946.041	3602.5	2687.15
926.9604	1947.6528	3573.1	2673.55
927.0988	1949.2637	3579.75	2685.7
927.2372	1950.8739	3545.85	2652.4
927.3756	1952.4834	3544.25	2648.9
927.514	1954.0921	3544.05	2646.4
927.6523	1955.7001	3540.4	2641.75
927.7907	1957.3074	3511.9	2619.4
927.929	1958.9139	3500.35	2611.9
928.0673	1960.5197	3499.5	2607.25
928.2055	1962.1247	3488.15	2594.8
928.3438	1963.729	3473.75	2582.7
928.482	1965.3325	3450.4	2551.55
928.6202	1966.9353	3456.55	2567.2
928.7584	1968.5374	3461.75	2571.9
928.8965	1970.1387	3439.8	2548.6
929.0346	1971.7393	3433.2	2541
929.1727	1973.3392	3402.55	2512.55
929.3108	1974.9383	3411.4	2520.85
929.4489	1976.5366	3394.15	2505.55
929.5869	1978.1342	3394	2505.85
929.7249	1979.7311	3401.5	2510.85
929.8629	1981.3273	3388.75	2499.6
930.0009	1982.9227	3364.55	2473.05
930.1388	1984.5173	3361.65	2474.85
930.2767	1986.1112	3357.4	2469.7
930.4146	1987.7044	3352.15	2463.35
930.5525	1989.2968	3340.6	2449.35
930.6904	1990.8885	3317.9	2427.15
930.8282	1992.4795	3329.4	2441.45
930.966	1994.0697	3305.55	2421.6
931.1038	1995.6592	3296.1	2409.1
931.2415	1997.2479	3296.05	2407.5
931.3793	1998.8359	3289.95	2403.5
931.517	2000.4232	3277.55	2394.7
931.6547	2002.0097	3264.2	2383.65
931.7923	2003.5955	3244.3	2359.35
931.93	2005.1805	3271.95	2387.45
932.0676	2006.7648	3263.35	2379
932.2052	2008.3484	3248.15	2363.6
932.3427	2009.9312	3246.9	2363.85
932.4803	2011.5133	3228.4	2348.4
932.6178	2013.0946	3224.05	2340.55
932.7553	2014.6752	3208.9	2327.5
932.8928	2016.2551	3220.75	2335.15
933.0302	2017.8342	3203	2317.6
933.1676	2019.4126	3193.3	2311.25
933.305	2020.9902	3190.4	2309.6
933.4424	2022.5672	3177.1	2294.35
933.5798	2024.1433	3170.7	2286.05
933.7171	2025.7188	3166.8	2286.65
933.8544	2027.2935	3159.05	2278.2
933.9917	2028.8674	3155.3	2273.75
934.129	2030.4406	3142.95	2262.9
934.2662	2032.0131	3128.35	2249.65
934.4034	2033.5849	3133.25	2244.75
934.5406	2035.1559	3125.4	2244.7
934.6778	2036.7261	3121.4	2236.65
934.8149	2038.2957	3130.15	2244.55
934.952	2039.8645	3125.45	2238.55
935.0891	2041.4325	3116.1	2225.7
935.2262	2042.9998	3097.05	2213.4
935.3632	2044.5664	3082.75	2198.3
935.5002	2046.1323	3082.4	2201.75
935.6372	2047.6974	3089.25	2208.35
935.7742	2049.2617	3070.15	2187.35
935.9111	2050.8254	3104.95	2189.85
936.048	2052.3883	3086.8	2202.05
936.1849	2053.9504	3067.95	2181.6
936.3218	2055.5118	3051.55	2163.55
936.4586	2057.0725	3054.9	2165.65
936.5955	2058.6325	3041	2156.95
936.7323	2060.1917	3031.05	2149.25
936.869	2061.7502	3033.85	2147.6
937.0058	2063.3079	3033	2153.7
937.1425	2064.8649	3004.15	2119.55
937.2792	2066.4212	3009.9	2126.15
937.4159	2067.9767	2991.15	2106.55
937.5525	2069.5315	3002.25	2117.95
937.6891	2071.0856	2978.45	2093.85
937.8257	2072.6389	2972.35	2091.2
937.9623	2074.1915	2961.75	2082
938.0989	2075.7433	2955.3	2070.4
938.2354	2077.2945	2949.9	2067.65
938.3719	2078.8448	2951.25	2064.7
938.5084	2080.3945	2947.7	2061.95
938.6448	2081.9434	2940.85	2051.45
938.7812	2083.4916	2939.6	2051.7
938.9176	2085.039	2924	2032.05
939.054	2086.5857	2925.6	2029.25
939.1903	2088.1317	2920.8	2028.6
939.3267	2089.677	2909.7	2018.65
939.463	2091.2215	2909.1	2016.6
939.5992	2092.7652	2903.5	2008.6
939.7355	2094.3083	2886.9	1994.55
939.8717	2095.8506	2883.9	1995.4
940.0079	2097.3921	2870.75	1980.55
940.1441	2098.933	2864.7	1978.05
940.2802	2100.4731	2868.9	1981
940.4163	2102.0124	2869.45	1973.8
940.5524	2103.5511	2867.8	1977.45
940.6885	2105.089	2866.5	1976.8
940.8245	2106.6261	2863.15	1976.15
940.9606	2108.1626	2849.25	1959.1
941.0965	2109.6983	2864.8	1947.35
941.2325	2111.2332	2847.4	1958.55
941.3684	2112.7675	2837.9	1944.8
941.5044	2114.301	2823.25	1930.6
941.6403	2115.8337	2824.6	1932.9
941.7761	2117.3657	2814.2	1925
941.912	2118.897	2820.3	1929.2
942.0478	2120.4276	2819.75	1921.05
942.1835	2121.9575	2798.1	1908.55
942.3193	2123.4866	2809.8	1915.9
942.455	2125.0149	2798.9	1906.1
942.5907	2126.5426	2770.55	1884
942.7264	2128.0695	2777.55	1889
942.8621	2129.5956	2766.6	1885.5
942.9977	2131.1211	2767.05	1877
943.1333	2132.6458	2769.45	1882.05
943.2689	2134.1698	2753.85	1863.05
943.4044	2135.693	2760.9	1864.85
943.54	2137.2155	2755.75	1862.5
943.6755	2138.7373	2745.75	1856.15
943.8109	2140.2584	2739.15	1855.5
943.9464	2141.7787	2722.15	1832.9
944.0818	2143.2983	2720.6	1839.35
944.2172	2144.8171	2712.75	1830.3
944.3526	2146.3353	2711.8	1825.35
944.4879	2147.8527	2706.3	1820.05
944.6232	2149.3693	2717.7	1826.55
944.7585	2150.8853	2710.1	1817.65
944.8938	2152.4005	2694.75	1800.85
945.029	2153.9149	2694.6	1802.95
945.1642	2155.4287	2688.15	1795
945.2994	2156.9417	2686.05	1796.65
945.4346	2158.454	2673.85	1785.65
945.5697	2159.9655	2671.85	1787.2
945.7048	2161.4764	2667.95	1781.3
945.8399	2162.9865	2654.45	1769.6
945.9749	2164.4958	2656.15	1768.85
946.1099	2166.0045	2643.7	1755.2
946.2449	2167.5124	2646.2	1759.7
946.3799	2169.0195	2645.05	1755.15
946.5148	2170.526	2638.25	1749.7
946.6498	2172.0317	2648.8	1757.9
946.7846	2173.5367	2640.2	1750.15
946.9195	2175.0409	2634.25	1745.8
947.0543	2176.5445	2628.35	1738.05
947.1891	2178.0473	2625.3	1734.55
947.3239	2179.5494	2608.7	1715.25
947.4587	2181.0507	2596.55	1707.15
947.5934	2182.5513	2592.4	1702.45
947.7281	2184.0512	2590.05	1700.05
947.8628	2185.5504	2603.45	1713.2
947.9974	2187.0488	2571.8	1684.65
948.132	2188.5465	2567.45	1683.1
948.2666	2190.0435	2569.5	1683.7
948.4012	2191.5397	2558.45	1668.85
948.5357	2193.0353	2562.4	1671
948.6702	2194.5301	2558.75	1663.5
948.8047	2196.0241	2550.2	1654.3
948.9392	2197.5175	2563.15	1667.5
949.0736	2199.0101	2530.2	1632.95
949.208	2200.502	2530.6	1638.8
949.3424	2201.9931	2522.1	1635.45
949.4767	2203.4835	2510.65	1623.55
949.611	2204.9733	2516.9	1625.1
949.7453	2206.4622	2501.95	1616.5
949.8796	2207.9505	2503.25	1617.05
950.0138	2209.438	2494.5	1611.4
950.148	2210.9248	2482.6	1597.45
950.2822	2212.4109	2470.9	1580.5
950.4164	2213.8962	2488.75	1593.9
950.5505	2215.3809	2482.05	1586.95
950.6846	2216.8648	2485.05	1589.85
950.8186	2218.3479	2478.95	1578.5
950.9527	2219.8304	2466.95	1568.35
951.0867	2221.3121	2449.25	1550.5
951.2207	2222.7931	2460.1	1567.2
951.3546	2224.2733	2447.2	1556.25
951.4886	2225.7529	2444.25	1553.15
951.6225	2227.2317	2441.1	1548.8
951.7563	2228.7098	2428.15	1542.05
951.8902	2230.1872	2423.1	1537.65
952.024	2231.6638	2426.8	1541.6
952.1578	2233.1397	2416.75	1526.8
952.2916	2234.6149	2409.25	1523.3
952.4253	2236.0894	2404.15	1516.6
952.559	2237.5632	2402.85	1506.3
952.6927	2239.0362	2396.25	1509.4
952.8263	2240.5085	2387.3	1497.5
952.9599	2241.9801	2382.85	1490.75
953.0935	2243.4509	2386.85	1493.95
953.2271	2244.921	2384.95	1490.05
953.3606	2246.3904	2374.25	1477
953.4941	2247.8591	2365	1474.15
953.6276	2249.3271	2368.65	1476.95
953.7611	2250.7943	2353.6	1464.45
953.8945	2252.2608	2344.85	1454.55
954.0279	2253.7266	2343.5	1451.45
954.1612	2255.1917	2339.1	1446.2
954.2946	2256.656	2339.45	1450.5
954.4279	2258.1197	2327.05	1441.6
954.5612	2259.5826	2329.55	1437.4
954.6944	2261.0447	2324.9	1433.95
954.8276	2262.5062	2326.5	1432.8
954.9608	2263.9669	2314.45	1420.75
955.094	2265.4269	2311.5	1418.5
955.2271	2266.8862	2314.35	1424.15
955.3602	2268.3448	2293.8	1406.1
955.4933	2269.8026	2299.4	1411.2
955.6264	2271.2598	2289.35	1398.7
955.7594	2272.7162	2307.75	1420.45
955.8924	2274.1719	2290.45	1396.4
956.0253	2275.6268	2294.4	1401.45
956.1583	2277.0811	2289.95	1398.65
956.2912	2278.5346	2284.45	1396.6
956.4241	2279.9874	2285.6	1397.75
956.5569	2281.4395	2282.15	1395.7
956.6897	2282.8908	2279.55	1386.15
956.8225	2284.3414	2271.6	1380.2
956.9553	2285.7914	2255.3	1363.3
957.088	2287.2406	2260.55	1366.6
957.2207	2288.689	2262.35	1366.05
957.3534	2290.1368	2259.4	1364.55
957.486	2291.5838	2251.85	1352.55
957.6186	2293.0302	2251.7	1352.1
957.7512	2294.4758	2249	1354.7
957.8838	2295.9206	2234.15	1340.25
958.0163	2297.3648	2242.35	1351.25
958.1488	2298.8082	2237.55	1344.65
958.2813	2300.251	2223.8	1333.5
958.4137	2301.693	2224.4	1327.7
958.5461	2303.1343	2227.15	1331.85
958.6785	2304.5748	2216.15	1324.85
958.8108	2306.0147	2216.55	1327.65
958.9432	2307.4538	2197.1	1306.55
959.0754	2308.8922	2204.75	1320.05
959.2077	2310.3299	2198.75	1311.5
959.3399	2311.7669	2183.1	1293
959.4721	2313.2031	2194.95	1303.95
959.6043	2314.6387	2181.4	1290.6
959.7365	2316.0735	2167.65	1277.5
959.8686	2317.5076	2177.15	1286
960.0006	2318.941	2176.75	1282.05
960.1327	2320.3737	2173.15	1277.65
960.2647	2321.8056	2156.2	1261.1
960.3967	2323.2369	2159.75	1267.9
960.5287	2324.6674	2159.75	1266.7
960.6606	2326.0972	2153.2	1260.85
960.7925	2327.5263	2153.2	1260.05
960.9244	2328.9547	2146.6	1254.9
961.0562	2330.3823	2150.4	1254.3
961.1881	2331.8092	2151.35	1255.65
961.3198	2333.2355	2138.25	1242.05
961.4516	2334.661	2136.2	1241.9
961.5833	2336.0858	2138.2	1244.45
961.715	2337.5098	2130.6	1237.5
961.8467	2338.9332	2131.3	1238.35
961.9783	2340.3558	2123.4	1233.05
962.1099	2341.7778	2109.35	1220.1
962.2415	2343.199	2114.75	1223.9
962.373	2344.6195	2116.1	1228.5
962.5045	2346.0393	2109	1219.85
962.636	2347.4583	2103.5	1213.6
962.7675	2348.8767	2103.55	1209.25
962.8989	2350.2943	2113.5	1219.2
963.0303	2351.7113	2112.25	1214.85
963.1617	2353.1275	2103.25	1210.3
963.293	2354.543	2105.9	1204.5
963.4243	2355.9578	2091.4	1197.25
963.5556	2357.3718	2087.3	1197.85
963.6868	2358.7852	2085.85	1194.85
963.818	2360.1978	2071.45	1180.5
963.9492	2361.6098	2067.1	1178.75
964.0803	2363.021	2076	1180.7
964.2114	2364.4315	2072.15	1180.9
964.3425	2365.8413	2065.6	1171.05
964.4736	2367.2504	2061.45	1172.75
964.6046	2368.6587	2053.85	1165.8
964.7356	2370.0664	2050.7	1161.95
964.8666	2371.4733	2039.05	1148.75
964.9975	2372.8795	2048.35	1158.85
965.1284	2374.285	2036.4	1146.95
965.2593	2375.6899	2033.55	1146.4
965.3901	2377.0939	2024.5	1135.6
965.5209	2378.4973	2018.5	1131.3
965.6517	2379.9	2024.1	1135.4
965.7825	2381.3019	2012.85	1126.35
965.9132	2382.7032	2010.1	1125.1
966.0439	2384.1037	2008.75	1121.4
966.1745	2385.5035	1998.35	1113.3
966.3051	2386.9027	2003.7	1119.55
966.4357	2388.3011	2001.5	1114.35
966.5663	2389.6987	1999.1	1112.3
966.6968	2391.0957	1988.8	1100.25
966.8273	2392.492	1983.15	1095.55
966.9578	2393.8876	1969.4	1082.4
967.0882	2395.2824	1971.35	1084.4
967.2186	2396.6765	1967.5	1082.8
967.349	2398.07	1966	1078.2
967.4793	2399.4627	1967.8	1078.95
967.6097	2400.8547	1969.85	1080.3
967.7399	2402.246	1958.45	1062.85
967.8702	2403.6366	1950.05	1061.9
968.0004	2405.0265	1943.3	1055.25
968.1306	2406.4156	1954.35	1062.7
968.2607	2407.8041	1948.05	1057.3
968.3909	2409.1918	1945.85	1055.05
968.521	2410.5789	1929.9	1042.65
968.651	2411.9652	1938.15	1047.35
968.781	2413.3508	1929.9	1042.45
968.911	2414.7358	1928.5	1040.8
969.041	2416.12	1926.35	1041.9
969.1709	2417.5035	1916.4	1031.15
969.3008	2418.8863	1907.55	1019.2
969.4307	2420.2684	1919.5	1030.1
969.5606	2421.6497	1913.6	1023.85
969.6904	2423.0304	1907.55	1020.2
969.8201	2424.4104	1902.05	1012.8
969.9499	2425.7896	1903.95	1016.4
970.0796	2427.1682	1902.85	1016.95
970.2093	2428.546	1901.35	1011.4
970.3389	2429.9232	1894.75	1005.35
970.4685	2431.2996	1891.05	1001.55
970.5981	2432.6753	1892.1	1003.6
970.7277	2434.0503	1895.95	1005.6
970.8572	2435.4246	1882.25	992.75
970.9867	2436.7982	1885.5	996.25
971.1161	2438.1711	1874	984.45
971.2456	2439.5433	1877	986.4
971.375	2440.9148	1881.5	986.05
971.5043	2442.2856	1864.05	974.85
971.6336	2443.6557	1866.3	977.35
971.7629	2445.025	1855.8	965.85
971.8922	2446.3937	1858.6	968.3
972.0214	2447.7617	1857.75	968.05
972.1506	2449.1289	1853.8	965.45
972.2798	2450.4955	1850.5	958.5
972.4089	2451.8613	1847.45	960.65
972.538	2453.2265	1841.95	954.45
972.6671	2454.5909	1844.35	955.9
972.7961	2455.9546	1843.35	955.3
972.9251	2457.3177	1842.95	955.45
973.0541	2458.68	1843.75	955.3
973.1831	2460.0416	1840.85	951.85
973.312	2461.4025	1829.4	939.35
973.4408	2462.7627	1841.1	940.15
973.5697	2464.1222	1816.5	932.15
973.6985	2465.4811	1820.05	934.45
973.8273	2466.8392	1813.6	927.5
973.956	2468.1966	1828.35	939.3
974.0847	2469.5533	1825.35	933.7
974.2134	2470.9093	1821.25	931.1
974.3421	2472.2645	1819.05	928.6
974.4707	2473.6191	1814.1	926.6
974.5993	2474.973	1810.2	921.1
974.7278	2476.3262	1799.85	909.3
974.8563	2477.6787	1801.9	912.95
974.9848	2479.0305	1801.95	913.65
975.1132	2480.3816	1798.75	908.55
975.2417	2481.7319	1797.55	909.85
975.37	2483.0816	1796	907.35
975.4984	2484.4306	1796	909
975.6267	2485.7789	1781.85	897.6
975.755	2487.1264	1788.7	898.95
975.8833	2488.4733	1767.4	881.2
976.0115	2489.8195	1795.85	890.2
976.1397	2491.165	1776.45	883.8
976.2678	2492.5097	1775.7	884.5
976.3959	2493.8538	1762.75	873.95
976.524	2495.1972	1755.7	868.05
976.6521	2496.5398	1758.85	868.5
976.7801	2497.8818	1754.5	862
976.9081	2499.2231	1750.9	860.25
977.036	2500.5637	1755.65	863.8
977.164	2501.9035	1747.8	857
977.2918	2503.2427	1751.1	855.6
977.4197	2504.5812	1743.8	854.45
977.5475	2505.919	1745	853
977.6753	2507.256	1743.7	852.5
977.8031	2508.5924	1732.75	842.75
977.9308	2509.9281	1742.8	848.5
978.0585	2511.2631	1732.45	844.25
978.1861	2512.5974	1726.45	837.65
978.3137	2513.9309	1719.3	828.55
978.4413	2515.2638	1751.6	835.5
978.5689	2516.596	1730	841.1
978.6964	2517.9275	1722.85	834.7
978.8239	2519.2583	1720.1	830.1
978.9513	2520.5884	1720.75	829.55
979.0788	2521.9178	1719	831.2
979.2062	2523.2465	1710.95	824.35
979.3335	2524.5745	1705.35	817.65
979.4608	2525.9018	1709.7	822.25
979.5881	2527.2284	1699.25	812.35
979.7154	2528.5543	1697.65	808.75
979.8426	2529.8796	1696.55	806.3
979.9698	2531.2041	1700.55	810.4
980.0969	2532.5279	1695.4	808.25
980.224	2533.851	1693.55	805.4
980.3511	2535.1735	1698.35	808.95
980.4781	2536.4952	1684.25	797.05
980.6052	2537.8163	1694.65	803.6
980.7321	2539.1366	1695.95	804.5
980.8591	2540.4562	1681.25	790.4
980.986	2541.7752	1682.65	791.75
981.1129	2543.0935	1696.85	808
981.2397	2544.411	1681.9	792.8
981.3665	2545.7279	1683.9	792.7
981.4933	2547.0441	1675.35	785.15
981.62	2548.3596	1673.8	780.7
981.7467	2549.6744	1675.65	785.55
981.8734	2550.9885	1669	778.9
982.0001	2552.3019	1668.8	779.8
982.1267	2553.6146	1669.95	781.1
982.2532	2554.9266	1661.4	771.85
982.3798	2556.2379	1664.45	773.85
982.5063	2557.5485	1655.35	768.15
982.6327	2558.8585	1667	771.2
982.7592	2560.1677	1661.4	767.05
982.8856	2561.4762	1651.35	761.95
983.0119	2562.7841	1661.3	768.6
983.1383	2564.0913	1650.85	763.75
983.2646	2565.3977	1647.15	757.6
983.3908	2566.7035	1652.65	765.3
983.517	2568.0086	1663.45	770.75
983.6432	2569.313	1646.35	754.75
983.7694	2570.6167	1653.15	758.7
983.8955	2571.9197	1638.1	746.65
984.0216	2573.222	1650.2	758.25
984.1476	2574.5236	1634.35	744.3
984.2737	2575.8246	1646.1	753.75
984.3996	2577.1248	1651.55	758.8
984.5256	2578.4244	1638.4	749.8
984.6515	2579.7232	1635.7	745.7
984.7774	2581.0214	1656	741.3
984.9032	2582.3189	1644.85	755.5
985.029	2583.6157	1646.9	751.95
985.1548	2584.9118	1635.35	742
985.2806	2586.2072	1636.8	747.05
985.4063	2587.5019	1638.3	749.95
985.5319	2588.7959	1634.75	743.1
985.6576	2590.0893	1633.45	741.1
985.7832	2591.3819	1634.45	745.25
985.9087	2592.6739	1627.25	737.55
986.0343	2593.9652	1628.55	736.05
986.1597	2595.2557	1641.8	751.75
986.2852	2596.5456	1637.25	746.55
986.4106	2597.8348	1629.55	740.8
986.536	2599.1234	1636.75	749.5
986.6614	2600.4112	1636.75	749
986.7867	2601.6983	1643.7	749.75
986.912	2602.9848	1627.5	736.85
987.0372	2604.2705	1635.9	739.25
987.1624	2605.5556	1628.25	738.05
987.2876	2606.84	1625.3	736.8
987.4128	2608.1237	1622.8	735.35
987.5379	2609.4067	1619.75	730.4
987.6629	2610.689	1629.7	732.8
987.788	2611.9707	1616.3	722.55
987.913	2613.2516	1618.35	725.25
988.0379	2614.5319	1615.7	725
988.1629	2615.8115	1613.5	723.7
988.2878	2617.0903	1602.4	710.5
988.4126	2618.3685	1605.15	716.05
988.5375	2619.6461	1607.65	717.85
988.6622	2620.9229	1603.9	715.5
988.787	2622.199	1600.7	712.05
988.9117	2623.4745	1599.95	710.1
989.0364	2624.7493	1595.1	706.7
989.161	2626.0234	1591.65	704.9
989.2857	2627.2968	1589.75	698.45
989.4102	2628.5695	1582.85	693.85
989.5348	2629.8415	1586.55	699.65
989.6593	2631.1128	1588.75	697.65
989.7837	2632.3835	1588	701.3
989.9082	2633.6535	1582.7	695.5
990.0326	2634.9228	1582.1	694.95
990.1569	2636.1914	1580.15	692.8
990.2812	2637.4593	1588.8	698.35
990.4055	2638.7265	1584.4	696.9
990.5298	2639.9931	1579.9	690.3
990.654	2641.259	1574.55	684.85
990.7782	2642.5242	1576.5	688.15
990.9023	2643.7887	1564.4	674.8
991.0264	2645.0525	1565.9	679.05
991.1505	2646.3156	1571.05	679.8
991.2745	2647.5781	1563.75	675.05
991.3985	2648.8398	1561.45	673.5
991.5225	2650.1009	1598.55	671.5
991.6464	2651.3613	1557	668.85
991.7703	2652.6211	1557.85	668.1
991.8942	2653.8801	1550.85	664.7
992.018	2655.1385	1565.05	673.9
992.1418	2656.3961	1551.15	664.25
992.2655	2657.6531	1554.2	667.2
992.3892	2658.9094	1553	663.9
992.5129	2660.1651	1561.8	675.7
992.6366	2661.42	1558.85	672.25
992.7602	2662.6743	1559.25	670.05
992.8837	2663.9279	1550.95	665.4
993.0073	2665.1808	1556.2	667.75
993.1307	2666.433	1564.55	675.45
993.2542	2667.6846	1564.3	675.4
993.3776	2668.9354	1563.9	671.85
993.501	2670.1856	1563.95	675.8
993.6244	2671.4351	1563.1	676.05
993.7477	2672.6839	1565.1	677.4
993.8709	2673.9321	1564.05	678.85
993.9942	2675.1795	1569.25	680.6
994.1174	2676.4263	1574.65	687.65
994.2405	2677.6724	1579.75	691.8
994.3637	2678.9179	1572.85	684.4
994.4868	2680.1626	1565.1	676.8
994.6098	2681.4067	1563.2	674.95
994.7328	2682.6501	1565.4	677.15
994.8558	2683.8928	1567.25	681.2
994.9788	2685.1348	1560.75	676.45
995.1017	2686.3761	1559.8	673.15
995.2245	2687.6168	1554.25	666.4
995.3474	2688.8568	1553.75	665.25
995.4702	2690.0961	1539.95	652.8
995.5929	2691.3348	1541.1	652.35
995.7156	2692.5727	1542.05	652
995.8383	2693.81	1531.3	644.75
995.961	2695.0466	1530.6	643.35
996.0836	2696.2826	1537.2	650.25
996.2062	2697.5178	1535.8	644.2
996.3287	2698.7524	1535.5	649.15
996.4512	2699.9863	1541.15	650.9
996.5737	2701.2195	1536.15	647.25
996.6961	2702.452	1544.1	654.35
996.8185	2703.6839	1546.7	658.45
996.9408	2704.9151	1542.75	657.2
997.0631	2706.1456	1553.5	665.2
997.1854	2707.3755	1560.1	671.2
997.3077	2708.6046	1567.5	677.6
997.4299	2709.8331	1581.45	691.2
997.552	2711.0609	1579.8	694.25
997.6742	2712.2881	1584.35	697.25
997.7963	2713.5145	1594.15	700.3
997.9183	2714.7403	1600.45	713.75
998.0403	2715.9654	1617.15	728.8
998.1623	2717.1899	1627.9	726.6
998.2842	2718.4136	1630.2	744.65
998.4062	2719.6367	1641.8	756.15
998.528	2720.8591	1654.7	761.4
998.6498	2722.0809	1659.25	769.55
998.7716	2723.3019	1666.55	775.2
998.8934	2724.5223	1677.15	791.2
999.0151	2725.7421	1680.05	793.55
999.1368	2726.9611	1682	794.4
999.2584	2728.1795	1688.1	795.55
999.38	2729.3972	1682.1	794.55
999.5016	2730.6142	1669.05	771.2
999.6231	2731.8306	1653.4	764.95
999.7446	2733.0462	1636.05	746.25
999.8661	2734.2612	1618.45	725.6
999.9875	2735.4756	1594.95	704.35
1000.1089	2736.6892	1586.8	698.95
1000.2302	2737.9022	1569.4	683.95
1000.3515	2739.1145	1559.6	674.85
1000.4728	2740.3262	1551.9	658.7
1000.594	2741.5372	1536.95	649.7
1000.7152	2742.7475	1522.05	636.95
1000.8363	2743.9571	1513.55	624.85
1000.9575	2745.1661	1507.05	614.95
1001.0785	2746.3744	1494.3	606.55
1001.1996	2747.582	1482	595.4
1001.3206	2748.7889	1475	588.05
1001.4415	2749.9952	1468.55	580.4
1001.5625	2751.2008	1468.95	580.5
1001.6833	2752.4057	1463.35	573.4
1001.8042	2753.61	1459.55	573
1001.925	2754.8136	1456.75	568.2
1002.0458	2756.0165	1451.35	564.35
1002.1665	2757.2188	1456.7	571.55
1002.2872	2758.4204	1450.05	562.65
1002.4078	2759.6213	1450.95	562.1
1002.5285	2760.8215	1459.7	568.45
1002.649	2762.0211	1454.05	566.85
1002.7696	2763.22	1450.1	560.75
1002.8901	2764.4182	1445.45	558.1
1003.0106	2765.6158	1441.65	554.45
1003.131	2766.8127	1442.2	556.85
1003.2514	2768.009	1438	553.9
1003.3717	2769.2045	1430.4	542.6
1003.492	2770.3994	1431.3	543.2
1003.6123	2771.5936	1424.45	537.95
1003.7325	2772.7872	1420.7	537.35
1003.8527	2773.9801	1424.05	534.5
1003.9729	2775.1723	1429.8	530.35
1004.093	2776.3639	1420	535.95
1004.2131	2777.5548	1421.8	533.05
1004.3331	2778.745	1427.1	541.35
1004.4531	2779.9346	1417.8	534
1004.5731	2781.1235	1424.6	536.75
1004.693	2782.3117	1420.2	535.1
1004.8129	2783.4992	1428.9	544.2
1004.9328	2784.6861	1426.1	541.55
1005.0526	2785.8723	1433.3	546.25
1005.1723	2787.0579	1445	559.8
1005.2921	2788.2428	1446.8	561.9
1005.4118	2789.427	1443.85	560.55
1005.5314	2790.6106	1459.05	573.95
1005.651	2791.7935	1471.5	587.1
1005.7706	2792.9757	1475.15	589.4
1005.8902	2794.1573	1488.65	599.65
1006.0097	2795.3382	1504.85	620.35
1006.1291	2796.5184	1513.45	628.9
1006.2485	2797.698	1518.35	633.95
1006.3679	2798.8769	1528.6	644.95
1006.4873	2800.0551	1544.95	660
1006.6066	2801.2327	1563.75	674.5
1006.7258	2802.4096	1576.65	690
1006.8451	2803.5859	1595.65	710.2
1006.9642	2804.7615	1616	730.1
1007.0834	2805.9364	1637.75	752.75
1007.2025	2807.1106	1665.7	781.4
1007.3216	2808.2842	1689.9	803.1
1007.4406	2809.4572	1713.8	829.1
1007.5596	2810.6294	1751.45	866.8
1007.6785	2811.801	1784	900
1007.7975	2812.972	1833.75	948.75
1007.9163	2814.1423	1871.45	987.7
1008.0352	2815.3119	1916.35	1033.75
1008.154	2816.4808	1956.6	1071.4
1008.2727	2817.6491	2007.3	1122.25
1008.3914	2818.8167	2061.5	1177.3
1008.5101	2819.9837	2114.05	1225
1008.6288	2821.15	2147.3	1262.4
1008.7474	2822.3157	2204.25	1320.2
1008.8659	2823.4807	2253.6	1369.1
1008.9844	2824.645	2305.35	1421
1009.1029	2825.8086	2347.5	1461.7
1009.2214	2826.9716	2396.1	1511.15
1009.3398	2828.134	2452.55	1570.2
1009.4581	2829.2957	2483.1	1597.5
1009.5764	2830.4567	2520.75	1638.75
1009.6947	2831.617	2539.25	1656
1009.813	2832.7767	2550.9	1667.2
1009.9312	2833.9358	2547.3	1662.25
1010.0493	2835.0941	2546.05	1660.25
1010.1675	2836.2519	2535.45	1650.35
1010.2855	2837.4089	2515.15	1629.65
1010.4036	2838.5653	2517.85	1634.15
1010.5216	2839.7211	2510.55	1626.9
1010.6396	2840.8761	2508.15	1622.75
1010.7575	2842.0306	2523.9	1639.35
1010.8754	2843.1843	2555.95	1671.75
1010.9932	2844.3374	2598.65	1717.75
1011.111	2845.4899	2655.15	1771.1
1011.2288	2846.6417	2720.25	1836.1
1011.3465	2847.7928	2796.7	1911.15
1011.4642	2848.9433	2854.75	1972.05
1011.5818	2850.0931	2939.9	2057.1
1011.6995	2851.2422	3000.25	2116.25
1011.817	2852.3907	3061.1	2175.25
1011.9345	2853.5385	3121.7	2235.05
1012.052	2854.6857	3177.4	2281.8
1012.1695	2855.8323	3209.95	2328.2
1012.2869	2856.9781	3268.7	2386
1012.4042	2858.1233	3313.9	2431.15
1012.5216	2859.2679	3360.95	2476.55
1012.6389	2860.4118	3402	2517.3
1012.7561	2861.555	3455.65	2569.25
1012.8733	2862.6976	3491.9	2605.7
1012.9905	2863.8395	3526.3	2642.5
1013.1076	2864.9808	3533.1	2650.65
1013.2247	2866.1214	3563.5	2678.65
1013.3417	2867.2614	3589	2707.15
1013.4587	2868.4007	3589.9	2704.55
1013.5757	2869.5393	3597.5	2711.7
1013.6926	2870.6773	3623.15	2738.05
1013.8095	2871.8146	3636.4	2746.85
1013.9263	2872.9513	3639.95	2751.9
1014.0431	2874.0874	3615.2	2729.9
1014.1599	2875.2227	3632.1	2748.65
1014.2766	2876.3574	3592.35	2709.5
1014.3933	2877.4915	3578.8	2694.1
1014.51	2878.6249	3556.4	2672.25
1014.6266	2879.7577	3537.35	2652.9
1014.7431	2880.8898	3524.45	2630.65
1014.8596	2882.0212	3498.25	2614.7
1014.9761	2883.152	3492.25	2608.5
1015.0925	2884.2821	3480.15	2597.45
1015.2089	2885.4116	3458	2575.6
1015.3253	2886.5405	3467.65	2583.25
1015.4416	2887.6686	3473.7	2589.15
1015.5579	2888.7962	3477.5	2597.1
1015.6741	2889.923	3490.15	2607.25
1015.7903	2891.0493	3496.2	2614.55
1015.9065	2892.1748	3501.25	2617.7
1016.0226	2893.2997	3531.65	2647.05
1016.1387	2894.424	3532.3	2651.7
1016.2547	2895.5476	3544.3	2662.4
1016.3707	2896.6706	3577.2	2694.85
1016.4866	2897.7929	3596	2711
1016.6025	2898.9145	3623.9	2742.05
1016.7184	2900.0355	3664.8	2784.45
1016.8342	2901.1559	3685.1	2801.6
1016.95	2902.2756	3711.8	2830.55
1017.0658	2903.3946	3759.55	2875.25
1017.1815	2904.513	3795.95	2910.4
1017.2971	2905.6308	3809.8	2926.35
1017.4127	2906.7479	3824.15	2940.95
1017.5283	2907.8643	3867.3	2984.5
1017.6439	2908.9801	3866.65	2984.1
1017.7594	2910.0953	3890.95	3008.5
1017.8748	2911.2098	3891.45	3007.15
1017.9902	2912.3236	3864.75	2975.35
1018.1056	2913.4368	3870.7	2985.1
1018.2209	2914.5494	3827.8	2942.45
1018.3362	2915.6613	3806.95	2919.15
1018.4515	2916.7725	3784.75	2898.6
1018.5667	2917.8831	3759.65	2875.4
1018.6819	2918.9931	3728.35	2843
1018.797	2920.1024	3698.5	2816.7
1018.9121	2921.211	3665.9	2782.7
1019.0271	2922.319	3661.5	2778.45
1019.1421	2923.4264	3634.8	2752.55
1019.2571	2924.5331	3619.6	2736.6
1019.372	2925.6391	3607.8	2725.95
1019.4869	2926.7445	3615.55	2735.65
1019.6017	2927.8493	3612.5	2729.1
1019.7165	2928.9534	3615.8	2732.8
1019.8313	2930.0569	3610.3	2725.95
1019.946	2931.1597	3599.65	2714.05
1020.0606	2932.2619	3600.65	2718.9
1020.1753	2933.3634	3597.3	2716.1
1020.2899	2934.4643	3594.05	2704.75
1020.4044	2935.5645	3577.5	2690.25
1020.5189	2936.6641	3549.7	2662.9
1020.6334	2937.763	3503.35	2620.95
1020.7478	2938.8613	3453.15	2570.8
1020.8622	2939.959	3412.25	2523.45
1020.9765	2941.056	3342.4	2460.6
1021.0908	2942.1523	3252.2	2368.55
1021.2051	2943.248	3173.75	2290.9
1021.3193	2944.3431	3085.1	2202.15
1021.4334	2945.4375	3003.05	2120.85
1021.5476	2946.5313	2897.1	2014.85
1021.6617	2947.6244	2803.05	1921.25
1021.7757	2948.7169	2695.8	1812.35
1021.8897	2949.8087	2611.7	1727.65
1022.0037	2950.8999	2513.85	1632.05
1022.1176	2951.9904	2429.75	1548.65
1022.2315	2953.0803	2351.65	1468.75
1022.3453	2954.1696	2297.85	1415.45
1022.4591	2955.2582	2261.55	1380.85
1022.5728	2956.3462	2204.25	1322.5
1022.6865	2957.4335	2172.3	1291.9
1022.8002	2958.5202	2128.1	1244.85
1022.9138	2959.6062	2104.05	1224.45
1023.0274	2960.6916	2083	1202
1023.141	2961.7764	2069.3	1187.45
1023.2545	2962.8605	2042.2	1159.35
1023.3679	2963.9439	2029.45	1148.3
1023.4813	2965.0267	2025.35	1140.8
1023.5947	2966.1089	2027.75	1125.4
1023.708	2967.1905	2005.8	1123.75
1023.8213	2968.2714	2002.5	1122.75
1023.9346	2969.3516	1999.3	1118.3
1024.0478	2970.4312	2008.4	1118.75
1024.1609	2971.5102	2007.95	1128.7
1024.274	2972.5885	2004.65	1124.75
1024.3871	2973.6662	2009.85	1123.9
1024.5002	2974.7432	2003.5	1123.45
1024.6132	2975.8196	1997.4	1112.9
1024.7261	2976.8954	1989.8	1108.25
1024.839	2977.9705	1988.45	1109.5
1024.9519	2979.045	1969.25	1087.85
1025.0647	2980.1188	1954.4	1075.4
1025.1775	2981.192	1929.25	1047.4
1025.2902	2982.2645	1908.95	1028.75
1025.4029	2983.3364	1898.15	1018.7
1025.5156	2984.4077	1865.75	985.15
1025.6282	2985.4783	1850.2	962.8
1025.7407	2986.5483	1812.4	933.85
1025.8532	2987.6177	1781.5	902.95
1025.9657	2988.6864	1737.8	857.3
1026.0782	2989.7545	1705.55	822.5
1026.1906	2990.8219	1671.1	791.45
1026.3029	2991.8887	1644.5	760.35
1026.4152	2992.9548	1617.05	734.55
1026.5275	2994.0204	1577.15	697.25
1026.6397	2995.0852	1551.15	670.5
1026.7519	2996.1495	1533.05	651.95
1026.864	2997.2131	1503.8	623.05
1026.9761	2998.276	1484.3	603.35
1027.0882	2999.3383	1460.35	579.85
1027.2002	3000.4	1446.05	565.25
1027.3122	3001.4611	1422.45	541.45
1027.4241	3002.5215	1416.85	536.95
1027.536	3003.5812	1398.65	517.6
1027.6478	3004.6404	1382.5	503.6
1027.7596	3005.6989	1372.85	488.95
1027.8714	3006.7567	1359.1	480.55
1027.9831	3007.8139	1379.05	468.4
1028.0947	3008.8705	1337.9	456.55
1028.2064	3009.9264	1356.8	460.05
1028.3179	3010.9818	1329.05	448.15
1028.4295	3012.0364	1328.65	450.9
1028.541	3013.0905	1323.65	442.75
1028.6524	3014.1439	1324	442.95
1028.7638	3015.1966	1319.7	437.35
1028.8752	3016.2487	1314.85	437.3
1028.9865	3017.3002	1312.75	425.9
1029.0978	3018.3511	1305.4	425.55
1029.209	3019.4013	1313.5	432.2
1029.3202	3020.4509	1307.6	426.45
1029.4314	3021.4998	1310.15	428.8
1029.5425	3022.5481	1305.55	424.6
1029.6535	3023.5958	1303	423.55
1029.7645	3024.6428	1303.4	420.3
1029.8755	3025.6892	1304.4	427.8
1029.9864	3026.735	1306.55	425.8
1030.0973	3027.7802	1306.9	425.05
1030.2082	3028.8247	1309.7	429.9
1030.319	3029.8685	1314	432.1
1030.4297	3030.9118	1318.2	437.05
1030.5404	3031.9544	1315.85	435.9
1030.6511	3032.9963	1323.35	444.55
1030.7617	3034.0376	1326.9	445.75
1030.8723	3035.0783	1327.2	443.7
1030.9829	3036.1184	1330.5	448.75
1031.0934	3037.1578	1325.9	446.15
1031.2038	3038.1966	1330.5	446.85
1031.3142	3039.2348	1333.05	454.45
1031.4246	3040.2723	1341.05	452.05
1031.5349	3041.3092	1335.55	457.75
1031.6452	3042.3455	1335.15	455.4
1031.7554	3043.3811	1331.15	450.35
1031.8656	3044.4161	1329.5	446.7
1031.9758	3045.4505	1327.45	447.25
1032.0859	3046.4842	1317	437.95
1032.1959	3047.5173	1310.4	431.15
1032.3059	3048.5498	1314.1	435
1032.4159	3049.5816	1302.25	421.8
1032.5258	3050.6128	1302	422.45
1032.6357	3051.6434	1293.6	413.95
1032.7455	3052.6734	1292.7	409.35
1032.8553	3053.7027	1284.5	406.9
1032.9651	3054.7314	1282.25	403.15
1033.0748	3055.7594	1272.5	394.25
1033.1845	3056.7868	1275.75	395.8
1033.2941	3057.8136	1271.15	393.85
1033.4037	3058.8398	1256.7	376.2
1033.5132	3059.8653	1264.35	385.3
1033.6227	3060.8902	1257.3	375.95
1033.7321	3061.9145	1253.5	373.3
1033.8415	3062.9381	1244.05	365.3
1033.9509	3063.9612	1258.7	361.8
1034.0602	3064.9835	1239.7	361.35
1034.1694	3066.0053	1237.15	354.65
1034.2787	3067.0264	1223.9	344.6
1034.3878	3068.0469	1226.15	346.95
1034.497	3069.0668	1221.8	338.6
1034.6061	3070.086	1212.7	334.9
1034.7151	3071.1046	1209.45	327.95
1034.8241	3072.1226	1203.9	323.25
1034.9331	3073.1399	1188.95	309.8
1035.042	3074.1567	1185.4	305.5
1035.1508	3075.1727	1173.65	291.1
1035.2597	3076.1882	1162.85	282.95
1035.3684	3077.203	1160.45	279.8
1035.4772	3078.2173	1156.85	275.2
1035.5859	3079.2308	1145.85	262.3
1035.6945	3080.2438	1145.05	262.45
1035.8031	3081.2561	1133.2	253.25
1035.9117	3082.2678	1123.75	244.9
1036.0202	3083.2789	1118.8	241.15
1036.1286	3084.2893	1111.45	232.65
1036.2371	3085.2991	1107.9	228.05
1036.3454	3086.3083	1103.85	222.15
1036.4538	3087.3169	1102.45	222.15
1036.562	3088.3248	1097.1	215.55
1036.6703	3089.3321	1088.95	206.85
1036.7785	3090.3388	1083.8	203.7
1036.8866	3091.3449	1076.5	196.75
1036.9948	3092.3503	1077.95	195.15
1037.1028	3093.3551	1075.35	197.75
1037.2108	3094.3593	1073.6	195.9
1037.3188	3095.3629	1069.35	191.8
1037.4267	3096.3658	1068.5	184.9
1037.5346	3097.3681	1065.9	186.1
1037.6425	3098.3698	1056.05	175.9
1037.7503	3099.3708	1060.4	176.05
1037.858	3100.3713	1053.15	175.8
1037.9657	3101.3711	1052.9	172.5
1038.0734	3102.3702	1186	169.95
1038.181	3103.3688	1053.4	171.65
1038.2886	3104.3667	1045.85	167.55
1038.3961	3105.364	1043.55	165.65
1038.5036	3106.3607	1041.1	162.1
1038.611	3107.3568	1038.15	156.9
1038.7184	3108.3522	1039.5	160.5
1038.8257	3109.347	1037.15	156.55
1038.933	3110.3412	1039.6	156.3
1039.0403	3111.3348	1031.15	151.1
1039.1475	3112.3277	1031.25	153.25
1039.2547	3113.32	1030.5	150.95
1039.3618	3114.3117	1033	151.85
1039.4689	3115.3028	1027.55	148.2
1039.5759	3116.2932	1026.25	146.1
1039.6829	3117.2831	1028.45	145.05
1039.7898	3118.2723	1025.95	149.5
1039.8967	3119.2608	1020.2	142.05
1040.0035	3120.2488	1019.05	139.35
1040.1103	3121.2361	1020.85	140.7
1040.2171	3122.2229	1014.9	135.9
1040.3238	3123.209	1015.65	136.5
1040.4305	3124.1944	1013.4	135.4
1040.5371	3125.1793	1016.9	135.2
1040.6437	3126.1635	1011.7	133.15
1040.7502	3127.1471	1015.2	136.65
1040.8567	3128.1301	1010.65	132.85
1040.9631	3129.1125	1009.3	130.9
1041.0695	3130.0942	1007.75	128.55
1041.1759	3131.0753	1016.15	129.4
1041.2822	3132.0558	1011.9	130.05
1041.3884	3133.0357	1002.6	121.7
1041.4946	3134.015	1004.65	123.9
1041.6008	3134.9936	1001.7	121.7
1041.7069	3135.9716	1025.55	124.1
1041.813	3136.949	998.05	119.35
1041.919	3137.9258	1015.3	118.65
1042.025	3138.902	1005.5	121.4
1042.1309	3139.8775	996.15	118.95
1042.2368	3140.8524	997	121
1042.3427	3141.8267	996.95	115
1042.4485	3142.8004	997.5	119.4
1042.5542	3143.7735	998.55	112.45
1042.6599	3144.7459	994.5	113.35
1042.7656	3145.7178	992.5	113.55
1042.8712	3146.689	989.75	113.6
1042.9768	3147.6596	991.45	112.85
1043.0823	3148.6295	987.4	108.9
1043.1878	3149.5989	990.35	112.65
1043.2932	3150.5676	989.4	114
1043.3986	3151.5357	986.75	107.9
1043.5039	3152.5032	986.1	110.35
1043.6092	3153.4701	985.75	109.3
1043.7145	3154.4364	983	102.9
1043.8197	3155.402	982.3	105.55
1043.9248	3156.367	983.75	103.3
1044.03	3157.3315	1011.15	101.6
1044.135	3158.2952	977.65	100.65
1044.24	3159.2584	978.3	101.7
1044.345	3160.221	978.8	100.1
1044.4499	3161.1829	978.35	100.2
1044.5548	3162.1442	978.15	101.65
1044.6596	3163.105	976.85	98.9
1044.7644	3164.065	977.5	99.35
1044.8692	3165.0245	977.35	95
1044.9739	3165.9834	971.4	94.9
1045.0785	3166.9416	973.2	94.95
1045.1831	3167.8993	974.95	97.4
1045.2877	3168.8563	973.65	96.05
1045.3922	3169.8127	969.5	91.35
1045.4966	3170.7684	973.5	94.6
1045.6011	3171.7236	967.75	87.5
1045.7054	3172.6782	969.7	92.35
1045.8098	3173.6321	970.75	92.05
1045.914	3174.5854	974.15	93.05
1046.0183	3175.5381	965.9	87.55
1046.1224	3176.4902	968.65	90.4
1046.2266	3177.4417	966.45	87.05
1046.3307	3178.3926	969.25	91.05
1046.4347	3179.3428	961.85	86.45
1046.5387	3180.2924	962.1	84.85
1046.6427	3181.2415	964.25	87.95
1046.7466	3182.1899	964.5	87.7
1046.8504	3183.1377	964.35	87.3
1046.9542	3184.0848	969.05	89.8
1047.058	3185.0314	963.4	82.5
1047.1617	3185.9773	963.8	84.2
1047.2654	3186.9227	963.25	83.4
1047.369	3187.8674	962.3	84.8
1047.4726	3188.8115	960.7	79.35
1047.5761	3189.755	958.15	80
1047.6796	3190.6979	956.85	78.1
1047.783	3191.6402	956.4	81.25
1047.8864	3192.5818	960	82.4
1047.9898	3193.5229	976.55	81.55
1048.0931	3194.4633	958.35	80.35
1048.1963	3195.4031	956.65	79.4
1048.2995	3196.3423	953.55	75.55
1048.4027	3197.2809	955.6	75.35
1048.5058	3198.2189	953.75	76.6
1048.6089	3199.1563	961.8	75.7
1048.7119	3200.0931	952.55	77.7
1048.8148	3201.0292	954.5	77.35
1048.9178	3201.9648	953.2	75.4
1049.0206	3202.8997	958.35	78.7
1049.1235	3203.834	952.75	74.6
1049.2262	3204.7677	948.85	70
1049.329	3205.7008	953	74.95
1049.4317	3206.6333	950.25	73.5
1049.5343	3207.5652	955.45	75.5
1049.6369	3208.4964	948.5	70.95
1049.7394	3209.4271	947	71.3
1049.8419	3210.3571	947.5	71
1049.9444	3211.2865	950.5	71.2
1050.0468	3212.2154	949.4	72.45
1050.1491	3213.1436	947.95	65.2
1050.2514	3214.0712	957.2	73.45
1050.3537	3214.9982	949.8	73.5
1050.4559	3215.9246	946	67.2
1050.5581	3216.8503	944.35	68.25
1050.6602	3217.7755	946.7	69.7
1050.7623	3218.7001	945.1	67.25
1050.8643	3219.624	948.55	73.9
1050.9663	3220.5473	945.15	67.35
1051.0682	3221.4701	947.7	71.2
1051.1701	3222.3922	942.1	62.8
1051.2719	3223.3137	944.7	67.85
1051.3737	3224.2346	941.8	64.95
1051.4754	3225.1549	942.65	66
1051.5771	3226.0746	941.8	65
1051.6788	3226.9937	941.05	64.7
1051.7804	3227.9121	941.3	64.55
1051.8819	3228.83	942.25	65.75
1051.9834	3229.7473	941.85	65.25
1052.0849	3230.6639	939.4	60.85
1052.1863	3231.5799	939.5	64.55
1052.2876	3232.4954	940.4	62.5
1052.3889	3233.4102	939.45	60.85
1052.4902	3234.3244	938.5	60.45
1052.5914	3235.238	938.85	61.75
1052.6926	3236.151	964.25	61.45
1052.7937	3237.0634	938.55	62.2
1052.8948	3237.9752	936.3	59.3
1052.9958	3238.8864	937.75	60.8
1053.0968	3239.797	938	61.3
1053.1977	3240.7069	939.85	61.5
1053.2986	3241.6163	938.35	59.1
1053.3994	3242.5251	935.9	61.05
1053.5002	3243.4332	930.95	56.15
1053.6009	3244.3408	935.6	58.2
1053.7016	3245.2477	934.45	58.95
1053.8022	3246.154	933.85	56.25
1053.9028	3247.0598	934.9	58.05
1054.0034	3247.9649	932.15	54.65
1054.1039	3248.8694	932.85	56.75
1054.2043	3249.7733	933.95	59.35
1054.3047	3250.6766	930.65	52.2
1054.4051	3251.5793	934.25	56.35
1054.5054	3252.4814	929.6	53.3
1054.6056	3253.3829	927.55	52
1054.7058	3254.2838	930.5	53.35
1054.806	3255.1841	928.15	51.85
1054.9061	3256.0838	931.35	54.75
1055.0061	3256.9829	927.1	52.55
1055.1062	3257.8814	929.65	50.65
1055.2061	3258.7792	926.5	48.75
1055.306	3259.6765	925.45	49.6
1055.4059	3260.5731	925.5	50.3
1055.5057	3261.4692	925.4	48.55
1055.6055	3262.3647	923.85	46.15
1055.7052	3263.2595	922.5	45.7
1055.8049	3264.1538	920.3	44.05
1055.9045	3265.0474	924.4	46.6
1056.0041	3265.9404	922.4	46.75
1056.1036	3266.8329	919.05	44.7
1056.2031	3267.7247	928.15	41.8
1056.3025	3268.616	915.95	41.25
1056.4019	3269.5066	916.05	39.35
1056.5013	3270.3966	917.65	40.3
1056.6005	3271.286	914.5	39
