Software Version:	3.9.2.0
Unit SN:	10000200
Spectrometer SN:	6960
Date:	3/8/2024 2:18:43 PM
Data Line Index:	25
Spectral Points:	2048
Integration time (ms):	125
Averages:	20
Delay (ms):	30000
Sequence Number:	1
Processing:	dark subtract
Laser Power (mW):	300
Laser Current (mA):	825
Laser Diode Temp (C):	25
Laser Case Temp (C):	26.2
System Temp (C):	26.2
Spectrometer Temp (C):	24.1
CCD Temp (C):	0.009
Secondary Temp (C):	20.013
Heatsink Temp (C):	20.557
CCDPCB Temp (C):	36.329
SecondaryPCB Temp (C):	31.427

Wavelength	RamanShift	Raw Counts	Dark Subtracted
787.061	30.1047	460.2	54.85
787.2016	32.3739	464.75	58.1
787.3422	34.6426	468.1	59.85
787.4828	36.9109	472.6	63.8
787.6235	39.1787	484.8	73.3
787.7642	41.4461	493.55	76.95
787.9049	43.7131	499.4	78.95
788.0456	45.9796	510.9	87.7
788.1863	48.2456	518.65	91.25
788.3271	50.5112	531.5	100.45
788.4679	52.7764	543.55	107.5
788.6087	55.0411	554.5	114.25
788.7496	57.3054	564.25	118.35
788.8904	59.5692	575.1	131.05
789.0313	61.8326	586.15	139.3
789.1722	64.0955	595.15	143.5
789.3132	66.3579	614.85	157.95
789.4541	68.6199	636	175.2
789.5951	70.8815	671.6	205.7
789.7361	73.1426	756.7	286.45
789.8771	75.4032	964.8	491.15
790.0181	77.6634	1489.4	1011.5
790.1592	79.9231	2716.2	2229.15
790.3003	82.1824	5408.4	4904.15
790.4414	84.4412	10219.65	9690.4
790.5825	86.6995	16818.65	16247.95
790.7237	88.9574	23196.55	22596.15
790.8648	91.2148	27625.05	27004.35
791.006	93.4717	29712.15	29077.55
791.1472	95.7282	30202.9	29556.8
791.2885	97.9842	30167.75	29521.45
791.4297	100.2398	29700.25	29044.6
791.571	102.4949	29131.15	28479.35
791.7123	104.7495	28410.4	27753.25
791.8536	107.0036	27656.7	27001.2
791.9949	109.2573	26883.3	26224.6
792.1363	111.5105	26169.15	25510
792.2777	113.7632	25458.8	24799.5
792.4191	116.0154	24858.6	24186.75
792.5605	118.2672	24403.6	23734.65
792.7019	120.5185	23949.25	23277.85
792.8434	122.7693	23585.7	22914.15
792.9849	125.0197	23313.7	22636.65
793.1264	127.2696	23029.8	22352.3
793.2679	129.519	22885.05	22200.9
793.4094	131.7679	22721.7	22031.95
793.551	134.0163	22580.95	21893.7
793.6926	136.2642	22436.7	21744.95
793.8342	138.5117	22253.55	21550.1
793.9758	140.7587	22063.3	21368.05
794.1175	143.0052	21860.55	21161.2
794.2591	145.2512	21663.65	20965.6
794.4008	147.4967	21469.25	20772.35
794.5425	149.7417	21314.15	20613.05
794.6842	151.9863	21181.25	20477.4
794.826	154.2304	21137.85	20426.15
794.9677	156.4739	20979.3	20262.65
795.1095	158.717	20975	20256.75
795.2513	160.9596	20848.8	20121.85
795.3931	163.2017	20624.15	19898.45
795.535	165.4433	20351.2	19621.9
795.6768	167.6844	20022.5	19295.55
795.8187	169.925	19706	18974.8
795.9606	172.1651	19331.15	18600
796.1025	174.4047	19038.95	18304.6
796.2445	176.6439	18792.5	18056.4
796.3864	178.8825	18572.25	17831.8
796.5284	181.1206	18450.65	17701.95
796.6704	183.3582	18270.85	17523.15
796.8124	185.5954	18173.8	17422.8
796.9544	187.832	18098.7	17343.95
797.0965	190.0681	18084.15	17325.4
797.2386	192.3037	18095.05	17337.2
797.3806	194.5388	18086	17324
797.5228	196.7734	18139.85	17375.25
797.6649	199.0075	18225.05	17452.15
797.807	201.2411	18351.45	17580.3
797.9492	203.4742	18443.35	17672.8
798.0914	205.7068	18607.85	17834.5
798.2336	207.9389	18714.35	17942.35
798.3758	210.1704	18928.75	18158.7
798.518	212.4015	18986.25	18222.05
798.6603	214.632	19201.2	18446.4
798.8025	216.862	19355.2	18603.1
798.9448	219.0915	19553.95	18796
799.0871	221.3205	19821.2	19061.9
799.2294	223.549	20091.65	19336.5
799.3718	225.777	20439.95	19688.3
799.5141	228.0044	20848.2	20087.75
799.6565	230.2314	21336.45	20572.65
799.7989	232.4578	21796.35	21030.15
799.9413	234.6837	22200.15	21429.2
800.0837	236.909	22387.6	21614.4
800.2262	239.1339	22396.3	21589.85
800.3687	241.3582	22152.1	21363.2
800.5111	243.582	21860.85	21043.85
800.6536	245.8053	21481.7	20679.25
800.7961	248.0281	21159.3	20363.15
800.9387	250.2503	20871.95	20072.7
801.0812	252.472	20717.35	19911.3
801.2238	254.6932	20668.4	19867.65
801.3664	256.9139	20586.6	19781.8
801.509	259.134	20562.9	19754.05
801.6516	261.3536	20528.8	19723.2
801.7942	263.5727	20590.65	19779.65
801.9369	265.7912	20539.45	19728.3
802.0795	268.0092	20535.65	19725.85
802.2222	270.2267	20484.8	19677.95
802.3649	272.4436	20453.95	19646.15
802.5076	274.6601	20398.3	19577.75
802.6504	276.8759	20335.75	19523.55
802.7931	279.0913	20324.75	19512.1
802.9359	281.3061	20319.45	19509.5
803.0787	283.5204	20420.95	19598.55
803.2215	285.7341	20519.55	19696.75
803.3643	287.9473	20710.95	19878.7
803.5071	290.16	20952.85	20128.95
803.6499	292.3721	21261.05	20440.1
803.7928	294.5837	21757.1	20935.25
803.9357	296.7947	22103.95	21281.7
804.0786	299.0052	22321.9	21496.6
804.2215	301.2152	22191.25	21364.7
804.3644	303.4246	21834.05	21014.3
804.5074	305.6334	21312.25	20491.05
804.6503	307.8418	20817.9	19993.05
804.7933	310.0495	20395.25	19566.5
804.9363	312.2568	20090.7	19261.95
805.0793	314.4635	19865.95	19040.55
805.2223	316.6696	19800.65	18968.95
805.3653	318.8752	19742.35	18903.05
805.5084	321.0802	19832.25	18998.55
805.6514	323.2847	19959.1	19122.7
805.7945	325.4887	20005.75	19169.95
805.9376	327.692	19976.75	19138.65
806.0807	329.8949	19895.35	19055.65
806.2238	332.0972	19633	18791.15
806.367	334.2989	19372.4	18527.75
806.5101	336.5001	19108.1	18266.4
806.6533	338.7007	18900.9	18058.9
806.7965	340.9008	18805.5	17957.3
806.9397	343.1003	18645.6	17800.4
807.0829	345.2992	18603.35	17754.65
807.2261	347.4976	18605.55	17755.65
807.3693	349.6955	18614.25	17760.3
807.5126	351.8927	18726.95	17875.9
807.6559	354.0895	18753.4	17890.2
807.7991	356.2856	18779.1	17920.4
807.9424	358.4812	18751.95	17894.35
808.0857	360.6763	18809.3	17951.05
808.2291	362.8707	18789.45	17932.75
808.3724	365.0646	18865.35	18005.5
808.5158	367.258	18864.45	18003.95
808.6591	369.4508	18882.5	18017.25
808.8025	371.643	18979.1	18108.8
808.9459	373.8346	18960.75	18092.95
809.0893	376.0257	18943.35	18070.3
809.2327	378.2162	18829.05	17962.4
809.3762	380.4062	18784.75	17918.6
809.5196	382.5956	18642.4	17777.05
809.6631	384.7844	18530.8	17672.65
809.8066	386.9726	18443.2	17583.95
809.9501	389.1603	18391.5	17534.55
810.0936	391.3474	18376.55	17493.05
810.2371	393.5339	18393.65	17530.65
810.3806	395.7199	18322.8	17465.6
810.5241	397.9052	18354.15	17491.7
810.6677	400.09	18391.65	17528.15
810.8113	402.2743	18437	17577
810.9548	404.4579	18523.6	17659.25
811.0984	406.641	18713.7	17852.1
811.2421	408.8235	18911.35	18047.25
811.3857	411.0054	19233.45	18366.85
811.5293	413.1868	19733.1	18853
811.673	415.3675	20090.3	19217.25
811.8166	417.5477	20309.55	19438
811.9603	419.7273	20373.75	19495.45
812.104	421.9064	20268.2	19386.45
812.2477	424.0848	20091.25	19216.7
812.3914	426.2627	19882.85	19005
812.5351	428.4399	19612.65	18736.9
812.6788	430.6166	19258.4	18374
812.8226	432.7928	18903.95	18020.8
812.9663	434.9683	18596.6	17719.1
813.1101	437.1432	18355.2	17477.5
813.2539	439.3176	18201.1	17331.5
813.3977	441.4914	18100.6	17231.8
813.5415	443.6645	18058	17187.5
813.6853	445.8371	18015.25	17139.3
813.8291	448.0091	17931.85	17055
813.973	450.1806	17937.15	17061.4
814.1168	452.3514	17878.3	17005.3
814.2607	454.5216	17886	17004.25
814.4046	456.6913	17794.7	16918.6
814.5485	458.8603	17843.45	16968.3
814.6924	461.0288	17910.7	17041.9
814.8363	463.1967	17945.5	17076.35
814.9802	465.3639	18089.4	17219.55
815.1241	467.5306	18173.85	17299.75
815.2681	469.6967	18343.35	17475.3
815.412	471.8622	18500	17632.55
815.556	474.0271	18696	17826.8
815.7	476.1914	18777.35	17897.6
815.844	478.3551	18787.4	17909.7
815.988	480.5182	18745.5	17870.75
816.132	482.6807	18728.65	17856.75
816.276	484.8426	18835.65	17974.2
816.4201	487.0039	19112.8	18243.15
816.5641	489.1647	19532	18654.15
816.7082	491.3248	19999.15	19119.15
816.8522	493.4843	20190.15	19318.4
816.9963	495.6432	20203.25	19329.25
817.1404	497.8015	20131.05	19244.8
817.2845	499.9592	20132.2	19241.2
817.4286	502.1163	20086.4	19195.5
817.5727	504.2728	19880.05	18999.3
817.7168	506.4287	19603.8	18731.45
817.861	508.5839	19192	18318.75
818.0051	510.7386	18864.5	17986.05
818.1493	512.8927	18699.8	17810.65
818.2935	515.0461	18582.6	17694.75
818.4377	517.199	18525.75	17638.35
818.5818	519.3512	18516.05	17628.5
818.726	521.5029	18585.3	17691.75
818.8703	523.6539	18611.15	17723.75
819.0145	525.8043	18681.5	17791.6
819.1587	527.9541	18723.65	17832.65
819.303	530.1033	18700.8	17814.15
819.4472	532.2519	18784.75	17894.25
819.5915	534.3999	18903.9	18011.75
819.7357	536.5472	19196.6	18306.15
819.88	538.694	19717.8	18832.7
820.0243	540.8401	20313.7	19419.85
820.1686	542.9856	20842.85	19942.15
820.3129	545.1305	21029.65	20123.25
820.4572	547.2748	20928.4	20019.8
820.6016	549.4185	20557	19645.25
820.7459	551.5615	20220.9	19312.95
820.8902	553.704	20087.35	19180
821.0346	555.8458	19987.65	19084.65
821.1789	557.987	20010	19110.2
821.3233	560.1276	19954.7	19054.2
821.4677	562.2675	19977.15	19075.85
821.6121	564.4069	19980.15	19077.55
821.7565	566.5456	19940.55	19047.5
821.9009	568.6837	19845.55	18947
822.0453	570.8212	19602.35	18706.2
822.1897	572.958	19287.8	18393.1
822.3342	575.0942	19039.1	18147.75
822.4786	577.2299	18863.1	17972.65
822.6231	579.3648	18868.8	17988.6
822.7675	581.4992	18948.25	18079.7
822.912	583.6329	19158.95	18290.5
823.0565	585.766	19420.4	18548
823.201	587.8985	19517.9	18636.2
823.3454	590.0304	19535.5	18636.5
823.4899	592.1616	19491.6	18589.5
823.6345	594.2922	19431.2	18526.8
823.779	596.4222	19261.7	18357.75
823.9235	598.5515	19087.3	18177
824.068	600.6802	18951.55	18042.35
824.2126	602.8083	18741.05	17836.6
824.3571	604.9358	18711.95	17809.35
824.5017	607.0626	18678.85	17770.7
824.6462	609.1888	18629.4	17710.45
824.7908	611.3144	18567.25	17651.4
824.9354	613.4393	18480.65	17568.3
825.08	615.5636	18367.9	17453.75
825.2246	617.6873	18277.55	17367.75
825.3692	619.8103	18257.5	17343.75
825.5138	621.9327	18137.35	17229.75
825.6584	624.0544	18115.05	17208.4
825.803	626.1756	18103.8	17199.1
825.9477	628.2961	18104.45	17193.5
826.0923	630.4159	18051.45	17139.2
826.237	632.5351	18001.35	17087.1
826.3816	634.6537	17980.25	17065.9
826.5263	636.7716	17945.35	17027.95
826.6709	638.8889	17980.65	17062.15
826.8156	641.0056	18044.65	17122.15
826.9603	643.1216	18029.75	17110.25
827.105	645.237	18056.4	17143
827.2497	647.3518	18048.55	17142.55
827.3944	649.4659	18111.3	17207.15
827.5391	651.5793	18124.05	17218.5
827.6838	653.6922	18105.8	17201.25
827.8285	655.8043	18092.35	17184.25
827.9733	657.9159	18095.15	17185.6
828.118	660.0268	18014.15	17105.25
828.2627	662.137	17973	17056.3
828.4075	664.2466	17951.25	17032.7
828.5522	666.3556	17966.4	17048.3
828.697	668.4639	17963.05	17052.3
828.8418	670.5716	18004.4	17097.55
828.9865	672.6786	18102.2	17187
829.1313	674.785	18162.95	17243.4
829.2761	676.8907	18222.2	17308.9
829.4209	678.9958	18301.7	17388.75
829.5657	681.1002	18311.85	17397.75
829.7105	683.204	18299.5	17374.9
829.8553	685.3072	18249.1	17326.35
830.0001	687.4097	18206.45	17285.6
830.1449	689.5115	18144.35	17223.9
830.2898	691.6127	18123.95	17207.3
830.4346	693.7132	18048.55	17137.8
830.5794	695.8131	18077.2	17140.85
830.7243	697.9123	18043.45	17119.95
830.8691	700.0109	18006.4	17081.9
831.014	702.1089	18005.8	17081.25
831.1588	704.2061	18042.35	17118.6
831.3037	706.3028	18057.65	17137.45
831.4486	708.3987	18148.55	17222.5
831.5935	710.4941	18233.75	17310.8
831.7383	712.5887	18424.5	17504
831.8832	714.6827	18739.1	17812.6
832.0281	716.7761	19094.5	18177.15
832.173	718.8688	19512.7	18591.4
832.3179	720.9608	19694.95	18765.85
832.4628	723.0522	19761.1	18828.8
832.6077	725.1429	19563.4	18633.95
832.7527	727.233	19272.75	18346.25
832.8976	729.3224	19027.3	18102.6
833.0425	731.4112	18751.05	17827.3
833.1874	733.4993	18543.45	17618.1
833.3324	735.5867	18385.45	17461.1
833.4773	737.6735	18316.3	17388.3
833.6222	739.7596	18254.45	17327.3
833.7672	741.845	18193.55	17268.7
833.9122	743.9298	18184.1	17256.85
834.0571	746.014	18204.75	17277.7
834.2021	748.0974	18247.15	17317.4
834.347	750.1802	18240	17308.65
834.492	752.2624	18205.95	17274.35
834.637	754.3439	18244.7	17309.55
834.782	756.4247	18341.5	17399.5
834.9269	758.5048	18421.85	17489.5
835.0719	760.5843	18662.9	17730.55
835.2169	762.6631	18944.05	18013.25
835.3619	764.7413	19362.15	18432.55
835.5069	766.8188	19976.35	19046.2
835.6519	768.8956	20441	19510.05
835.7969	770.9718	20751.5	19821.1
835.9419	773.0473	20616.35	19683.5
836.0869	775.1221	20311.35	19381.5
836.232	777.1962	19931.1	19001.1
836.377	779.2697	19747.95	18817.8
836.522	781.3426	19819.1	18867.75
836.667	783.4147	20051.35	19115.6
836.8121	785.4862	20356.05	19425.55
836.9571	787.557	20425.95	19492.85
837.1021	789.6271	20114.45	19179.3
837.2472	791.6966	19542.2	18609.95
837.3922	793.7654	19038.35	18105.75
837.5373	795.8335	18770.2	17835.95
837.6823	797.901	18579.65	17649.8
837.8274	799.9678	18526.8	17589.85
837.9724	802.0339	18529.85	17592.7
838.1175	804.0993	18612.7	17663.35
838.2626	806.1641	18600.5	17663.55
838.4076	808.2282	18560.95	17625.1
838.5527	810.2916	18488.1	17550.6
838.6978	812.3544	18384.35	17451.6
838.8428	814.4164	18311.75	17378.65
838.9879	816.4778	18360.9	17421.75
839.133	818.5385	18342.65	17400.3
839.2781	820.5986	18409.1	17467.15
839.4232	822.658	18529.55	17594.5
839.5682	824.7166	18598.45	17658.2
839.7133	826.7747	18827.6	17893.55
839.8584	828.832	18991.4	18050.1
840.0035	830.8886	19114.2	18172.1
840.1486	832.9446	19280.55	18340.25
840.2937	834.9999	19327.1	18384.95
840.4388	837.0545	19380.95	18440.1
840.5839	839.1085	19423.2	18480.2
840.729	841.1618	19390.45	18447.45
840.8741	843.2143	19413.6	18473.15
841.0192	845.2662	19300.05	18362.15
841.1643	847.3175	19235.45	18296.75
841.3095	849.368	19116.75	18177
841.4546	851.4179	19032.7	18091.25
841.5997	853.467	18904.1	17966.55
841.7448	855.5155	18778.8	17841.3
841.8899	857.5633	18718.85	17779.65
842.0351	859.6105	18615.35	17670.1
842.1802	861.6569	18562.85	17618.65
842.3253	863.7027	18487.6	17544.9
842.4704	865.7478	18519.95	17575.6
842.6156	867.7922	18518.8	17575.95
842.7607	869.8359	18572	17628.85
842.9058	871.8789	18698.9	17754.05
843.0509	873.9212	18935.25	17962.25
843.1961	875.9629	19077.3	18134.6
843.3412	878.0039	19289.75	18349
843.4863	880.0441	19383.9	18446.1
843.6315	882.0837	19400.75	18461
843.7766	884.1226	19329.15	18388.3
843.9218	886.1609	19204.15	18261.3
844.0669	888.1984	19104.2	18161
844.212	890.2352	19178.85	18237.7
844.3572	892.2714	19097.7	18149.2
844.5023	894.3069	19087	18135.8
844.6475	896.3416	18978.85	18036.2
844.7926	898.3757	19029.3	18085.75
844.9377	900.4091	19040.7	18094.15
845.0829	902.4418	19028.8	18080.1
845.228	904.4739	19036.05	18090.7
845.3732	906.5052	19057.85	18110.15
845.5183	908.5358	18916.05	17968.7
845.6635	910.5658	18802.25	17856.75
845.8086	912.595	18683.85	17736.65
845.9538	914.6236	18497.05	17549.45
846.0989	916.6515	18501.65	17556.2
846.2441	918.6786	18500.6	17553.75
846.3892	920.7051	18567.75	17620.4
846.5344	922.7309	18704.6	17758.8
846.6795	924.756	18728.95	17785.6
846.8246	926.7804	18877.3	17931.1
846.9698	928.8041	18796.4	17848.8
847.1149	930.8272	18819.8	17872.7
847.2601	932.8495	18745.7	17794.7
847.4052	934.8711	18717.95	17772.9
847.5504	936.892	18567.35	17619.85
847.6955	938.9123	18428.75	17481.5
847.8407	940.9318	18304.15	17352.95
847.9858	942.9506	18179.8	17232.3
848.131	944.9688	18070.85	17125.05
848.2761	946.9862	18014	17064.8
848.4213	949.003	17959.85	17011.9
848.5664	951.019	18004.9	17060.6
848.7115	953.0344	17961.2	17014.95
848.8567	955.0491	18043.6	17100.4
849.0018	957.063	18166.8	17218.5
849.147	959.0763	18284.15	17338
849.2921	961.0888	18335.75	17387.35
849.4373	963.1007	18416.6	17474.7
849.5824	965.1119	18456.95	17520.8
849.7275	967.1223	18489.4	17556.55
849.8727	969.1321	18513.45	17580.4
850.0178	971.1412	18568.65	17630.1
850.1629	973.1495	18624	17683.5
850.3081	975.1572	18673.7	17691.25
850.4532	977.1641	18690.5	17744.45
850.5983	979.1704	18628.25	17679.2
850.7435	981.1759	18661.85	17713.95
850.8886	983.1808	18757	17808.8
851.0337	985.1849	18852.6	17896.55
851.1788	987.1884	19013.9	18062.4
851.324	989.1911	19175.55	18228.85
851.4691	991.1932	19325.95	18382.75
851.6142	993.1945	19320.2	18378.7
851.7593	995.1951	19291.65	18346.6
851.9045	997.1951	19223.4	18270.1
852.0496	999.1943	19162.4	18216.95
852.1947	1001.1928	19086.95	18140.25
852.3398	1003.1906	19054.45	18104.9
852.4849	1005.1877	19153.2	18207.5
852.63	1007.1841	19135.3	18189.2
852.7751	1009.1798	19016.9	18076.1
852.9202	1011.1748	18857.95	17914.55
853.0653	1013.1691	18674.15	17726
853.2104	1015.1627	18420	17473
853.3555	1017.1556	18206.45	17263.35
853.5006	1019.1477	18122.4	17178.15
853.6457	1021.1392	18003.95	17064.8
853.7908	1023.1299	18002.15	17064.75
853.9359	1025.12	18021.1	17095.85
854.081	1027.1093	18027.15	17112.2
854.2261	1029.0979	18138.75	17225.1
854.3712	1031.0859	18170.25	17249.6
854.5163	1033.0731	18189.5	17254.95
854.6613	1035.0596	18131.25	17196.95
854.8064	1037.0454	17962.8	17024
854.9515	1039.0304	17856.5	16914
855.0965	1041.0148	17713.6	16768.3
855.2416	1042.9985	17656.05	16713
855.3867	1044.9814	17638.1	16698.9
855.5317	1046.9636	17559.75	16617.15
855.6768	1048.9452	17525.85	16586.4
855.8219	1050.926	17536.7	16596.65
855.9669	1052.9061	17501.05	16559.55
856.112	1054.8855	17539.55	16594.75
856.257	1056.8642	17569.35	16626.6
856.4021	1058.8421	17653.15	16702.1
856.5471	1060.8194	17687.45	16739.65
856.6921	1062.7959	17741.05	16798.7
856.8372	1064.7717	17725.05	16780.45
856.9822	1066.7469	17742.55	16795.45
857.1272	1068.7213	17725.4	16780.75
857.2723	1070.695	17713.15	16770.6
857.4173	1072.6679	17624.05	16682.85
857.5623	1074.6402	17607.4	16661.25
857.7073	1076.6117	17605.9	16654.7
857.8523	1078.5826	17594.05	16650.4
857.9973	1080.5527	17610.45	16662.6
858.1423	1082.5221	17680.2	16736.1
858.2873	1084.4908	17925.9	16980.2
858.4323	1086.4587	18075.3	17128.35
858.5773	1088.426	18226.35	17280.8
858.7223	1090.3925	18221.55	17273.55
858.8673	1092.3584	18208.5	17265.4
859.0123	1094.3235	18037.15	17094
859.1573	1096.2879	17979.7	17033.85
859.3022	1098.2515	17949.7	17005.05
859.4472	1100.2145	18002.55	17059.2
859.5922	1102.1767	18097.4	17152.45
859.7371	1104.1382	18234.8	17291.25
859.8821	1106.099	18439.4	17493.25
860.027	1108.0591	18634.75	17688.75
860.172	1110.0185	18770.55	17822.65
860.3169	1111.9771	18788.4	17845.55
860.4619	1113.9351	18557.05	17613
860.6068	1115.8923	18289.9	17342.9
860.7517	1117.8488	17957.95	17013.45
860.8967	1119.8045	17640.45	16695.9
861.0416	1121.7596	17571.05	16631
861.1865	1123.7139	17497.8	16560.2
861.3314	1125.6675	17504.05	16562.9
861.4763	1127.6204	17570.1	16628.4
861.6212	1129.5726	17573.05	16628.05
861.7661	1131.524	17568.75	16625.3
861.911	1133.4748	17559.6	16613.75
862.0559	1135.4248	17530.9	16584.65
862.2008	1137.3741	17545.1	16604.55
862.3457	1139.3226	17501.6	16557.05
862.4905	1141.2705	17500.3	16556.8
862.6354	1143.2176	17392.35	16443.75
862.7803	1145.164	17378.05	16433.1
862.9251	1147.1097	17408.6	16463.65
863.07	1149.0546	17424	16479.45
863.2148	1150.9989	17332.3	16389.8
863.3597	1152.9424	17194.7	16252
863.5045	1154.8852	17032	16086.85
863.6493	1156.8272	16923.05	15980.25
863.7942	1158.7686	16874.35	15927.35
863.939	1160.7092	16836.4	15890.85
864.0838	1162.6491	16799.6	15854.05
864.2286	1164.5883	16892.5	15949.6
864.3734	1166.5267	16970	16024.75
864.5182	1168.4644	17084.9	16140
864.663	1170.4014	17268.15	16320.35
864.8078	1172.3377	17542.05	16600.65
864.9526	1174.2732	17726.55	16785.75
865.0974	1176.2081	17990.45	17050.45
865.2421	1178.1421	18185.45	17241.75
865.3869	1180.0755	18372.3	17431.85
865.5317	1182.0082	18443.4	17504.2
865.6764	1183.9401	18439.8	17499.05
865.8212	1185.8713	18296.35	17362
865.9659	1187.8017	18075.55	17147.8
866.1106	1189.7315	17806.5	16888.4
866.2554	1191.6605	17492.75	16572.35
866.4001	1193.5888	17279.8	16353.85
866.5448	1195.5163	17202	16272.3
866.6895	1197.4432	17075.6	16137.3
866.8342	1199.3693	17022.75	16084.15
866.9789	1201.2947	16985.05	16037.9
867.1236	1203.2193	16921	15982.6
867.2683	1205.1432	16991.4	16053.55
867.413	1207.0664	16989.9	16050.55
867.5576	1208.9889	16997.9	16056.4
867.7023	1210.9106	17061.05	16123.6
867.847	1212.8316	17109.65	16172.6
867.9916	1214.7519	17172.25	16221.2
868.1363	1216.6715	17176.35	16237.8
868.2809	1218.5903	17166.9	16224.9
868.4255	1220.5084	17124.7	16185.55
868.5701	1222.4257	17113.5	16171.55
868.7148	1224.3424	17042.15	16107.35
868.8594	1226.2583	17091.75	16149.9
869.004	1228.1735	17191.5	16256.25
869.1486	1230.0879	17253.05	16314.45
869.2932	1232.0016	17390.55	16451.55
869.4377	1233.9146	17402.55	16460.65
869.5823	1235.8269	17298.7	16362.1
869.7269	1237.7384	17180.45	16241.2
869.8715	1239.6492	17007.2	16069
870.016	1241.5592	16888.95	15951.95
870.1606	1243.4686	16791.9	15855.3
870.3051	1245.3772	16772.25	15836
870.4496	1247.285	16723.35	15787.35
870.5941	1249.1922	16680.4	15743.15
870.7387	1251.0986	16711	15773.85
870.8832	1253.0042	16648.3	15711.25
871.0277	1254.9092	16702.4	15768.85
871.1722	1256.8134	16791.45	15857.5
871.3167	1258.7169	16930.15	15993.25
871.4611	1260.6196	17065.7	16132.35
871.6056	1262.5216	17256.15	16320.2
871.7501	1264.4229	17396.15	16459.45
871.8945	1266.3234	17560.1	16622.75
872.039	1268.2232	17622.45	16684.75
872.1834	1270.1223	17615.95	16675.35
872.3278	1272.0207	17609.6	16669.25
872.4723	1273.9183	17568.2	16625.65
872.6167	1275.8151	17481.3	16545.35
872.7611	1277.7113	17386.75	16451.9
872.9055	1279.6067	17267.05	16332.7
873.0499	1281.5014	17134.65	16196.05
873.1943	1283.3953	17053.55	16117.65
873.3386	1285.2885	17065.9	16130.35
873.483	1287.181	17077.15	16139.65
873.6274	1289.0727	17141.95	16209.5
873.7717	1290.9637	17200.05	16266.65
873.9161	1292.854	17348.45	16414.65
874.0604	1294.7435	17475	16543.25
874.2047	1296.6323	17684.35	16747.75
874.349	1298.5204	17925.3	16986.3
874.4933	1300.4077	18103.4	17168.35
874.6376	1302.2943	18260.15	17327.15
874.7819	1304.1802	18400.7	17464.65
874.9262	1306.0653	18215.1	17276.1
875.0705	1307.9497	18050.55	17115.05
875.2147	1309.8333	17900	16969.25
875.359	1311.7162	17812.95	16878.95
875.5032	1313.5984	17836.55	16898.85
875.6475	1315.4798	17911.2	16960.35
875.7917	1317.3605	17987.75	17037.55
875.9359	1319.2405	18051.1	17114.95
876.0801	1321.1197	18009.35	17070.95
876.2243	1322.9982	17909.5	16970.65
876.3685	1324.876	17850.65	16916.65
876.5127	1326.753	17733.15	16798.9
876.6569	1328.6293	17710.7	16774.15
876.801	1330.5048	17698.95	16758.4
876.9452	1332.3796	17649.7	16715.45
877.0893	1334.2537	17637.8	16679.15
877.2335	1336.127	17530.7	16593.6
877.3776	1337.9996	17530.6	16596.35
877.5217	1339.8714	17455.05	16516.55
877.6658	1341.7426	17430.85	16449.25
877.8099	1343.6129	17390.2	16451.9
877.954	1345.4826	17310.8	16376.25
878.0981	1347.3515	17296.95	16357
878.2422	1349.2196	17191.65	16254.35
878.3862	1351.087	17215.2	16277.9
878.5303	1352.9537	17267.4	16331
878.6743	1354.8197	17386.1	16448.45
878.8184	1356.6849	17521.95	16590.35
878.9624	1358.5493	17603.75	16670.3
879.1064	1360.4131	17660.3	16726
879.2504	1362.276	17559.2	16626.15
879.3944	1364.1383	17403.7	16471.05
879.5384	1365.9998	17213.85	16274.25
879.6823	1367.8606	16864.1	15926.5
879.8263	1369.7206	16598.15	15660.35
879.9702	1371.5799	16359.9	15419.6
880.1142	1373.4384	16184.9	15247.8
880.2581	1375.2962	16019.55	15084.4
880.402	1377.1533	15735.1	14796.6
880.5459	1379.0096	15439.1	14510.35
880.6898	1380.8652	15117.2	14187.5
880.8337	1382.7201	14900.7	13967.25
880.9776	1384.5742	14677.8	13744.5
881.1215	1386.4275	14505.9	13568.85
881.2653	1388.2802	14328.95	13395.85
881.4092	1390.132	14219.5	13282.15
881.553	1391.9832	14201.95	13266.15
881.6968	1393.8336	14048.3	13110.8
881.8406	1395.6832	14001.75	13064.7
881.9844	1397.5322	13956.35	13021.3
882.1282	1399.3803	13921.9	12983.75
882.272	1401.2278	13890.05	12956.9
882.4158	1403.0745	13869.7	12938.85
882.5595	1404.9204	13812.05	12880.75
882.7033	1406.7656	13809.95	12875.55
882.847	1408.6101	13809.05	12874.4
882.9908	1410.4538	13817.8	12884.6
883.1345	1412.2968	13855.75	12923.4
883.2782	1414.139	13854.7	12922.1
883.4219	1415.9805	13932.2	12998.75
883.5656	1417.8213	14015.95	13076.5
883.7092	1419.6613	14103.95	13173.15
883.8529	1421.5006	14247.1	13315.85
883.9965	1423.3391	14527.1	13594.2
884.1402	1425.1769	14827.3	13893.15
884.2838	1427.0139	15272.75	14340.4
884.4274	1428.8502	15833.6	14897.2
884.571	1430.6858	16430.1	15500.45
884.7146	1432.5206	16821.7	15890.95
884.8582	1434.3547	17051.65	16119.7
885.0018	1436.188	17097.4	16165.3
885.1453	1438.0206	16996.1	16065.05
885.2889	1439.8524	16819.15	15887.25
885.4324	1441.6835	16755.45	15822.4
885.5759	1443.5139	16635.65	15697.4
885.7194	1445.3435	16535.55	15602.35
885.8629	1447.1724	16480.55	15549.9
886.0064	1449.0005	16431.65	15501.6
886.1499	1450.8279	16287.5	15357.35
886.2933	1452.6545	16252.25	15323.25
886.4368	1454.4804	16282.75	15350.4
886.5802	1456.3056	16276.9	15340.8
886.7237	1458.13	16145.65	15216.75
886.8671	1459.9536	15949.9	15017.2
887.0105	1461.7766	15585.15	14654.15
887.1539	1463.5987	15150.65	14220.25
887.2972	1465.4202	14790.9	13859.2
887.4406	1467.2409	14418.35	13486.6
887.584	1469.0608	14127.7	13196.95
887.7273	1470.88	13876.4	12945.4
887.8706	1472.6984	13657.45	12730.05
888.0139	1474.5161	13408.45	12474
888.1572	1476.3331	13246.15	12317.1
888.3005	1478.1493	13096.9	12165.9
888.4438	1479.9648	13003.4	12071.75
888.5871	1481.7795	12874.2	11943.4
888.7303	1483.5935	12793.35	11863.45
888.8736	1485.4067	12757.75	11824.95
889.0168	1487.2192	12697.45	11768.95
889.16	1489.031	12644.85	11713.6
889.3032	1490.842	12582.3	11652.8
889.4464	1492.6522	12574.85	11646.75
889.5896	1494.4618	12523.55	11592.55
889.7327	1496.2705	12474.2	11546.65
889.8759	1498.0785	12437.9	11507.5
890.019	1499.8858	12395.7	11465.15
890.1622	1501.6924	12340.05	11410.6
890.3053	1503.4981	12318.5	11388.8
890.4484	1505.3032	12301.8	11374.4
890.5914	1507.1075	12265.3	11333.4
890.7345	1508.911	12219.05	11288.5
890.8776	1510.7138	12163.85	11232.45
891.0206	1512.5159	12090.25	11162.35
891.1637	1514.3172	12047.85	11121.6
891.3067	1516.1178	12001.65	11073.85
891.4497	1517.9176	11958.55	11026.65
891.5927	1519.7166	11906.95	10979.95
891.7357	1521.515	11895.85	10963.7
891.8786	1523.3126	11839.25	10911.95
892.0216	1525.1094	11786.2	10857.7
892.1645	1526.9055	11728.9	10802.7
892.3074	1528.7008	11690.6	10763.75
892.4503	1530.4954	11653.65	10728.75
892.5932	1532.2893	11629.5	10708.45
892.7361	1534.0824	11547.3	10618.75
892.879	1535.8747	11571.55	10649.45
893.0218	1537.6663	11498.85	10574.5
893.1647	1539.4572	11478.3	10554
893.3075	1541.2473	11485.4	10561.35
893.4503	1543.0367	11448.9	10526.85
893.5931	1544.8253	11432.1	10503.7
893.7359	1546.6132	11441.75	10513.45
893.8787	1548.4003	11426.65	10493.85
894.0214	1550.1867	11450.85	10518.65
894.1642	1551.9723	11436.45	10511.2
894.3069	1553.7572	11423.5	10500.85
894.4496	1555.5414	11464.95	10545.35
894.5923	1557.3247	11512.45	10595
894.735	1559.1074	11565.95	10650.15
894.8777	1560.8893	11615.15	10697.9
895.0204	1562.6705	11660.75	10744.45
895.163	1564.4509	11710.35	10794.5
895.3056	1566.2305	11753.1	10841.95
895.4482	1568.0094	11865.1	10952.05
895.5908	1569.7876	11879.85	10966.25
895.7334	1571.565	11880.15	10963.15
895.876	1573.3417	11902.4	10984.8
896.0186	1575.1176	11890.35	10976
896.1611	1576.8928	11843	10932.9
896.3036	1578.6672	11736.5	10832.2
896.4461	1580.4409	11611.8	10706.4
896.5886	1582.2138	11467.35	10559.2
896.7311	1583.986	11389.85	10477.95
896.8736	1585.7575	11305.65	10395.5
897.0161	1587.5282	11217.55	10310.95
897.1585	1589.2981	11219.9	10312.6
897.3009	1591.0673	11134.8	10230.05
897.4433	1592.8358	11117.85	10210.3
897.5857	1594.6035	11145.95	10233
897.7281	1596.3704	11118.35	10207.5
897.8705	1598.1366	11150.1	10239.9
898.0128	1599.9021	11137.15	10227.65
898.1551	1601.6668	11200.6	10290.95
898.2975	1603.4308	11269.5	10357
898.4398	1605.194	11333.15	10421.85
898.5821	1606.9564	11430.05	10526.5
898.7243	1608.7182	11555.2	10653.25
898.8666	1610.4791	11681.5	10787.1
899.0088	1612.2394	11809.4	10917.1
899.1511	1613.9988	11980.15	11084.25
899.2933	1615.7576	12180.4	11279.55
899.4355	1617.5156	12419.85	11507.75
899.5776	1619.2728	12607.45	11696.75
899.7198	1621.0293	12712.8	11804.6
899.862	1622.785	12705.65	11799.25
900.0041	1624.54	12636.65	11732.3
900.1462	1626.2942	12478.85	11576.95
900.2883	1628.0477	12211.5	11306.65
900.4304	1629.8005	11941.5	11034.2
900.5725	1631.5525	11764.95	10863.2
900.7145	1633.3037	11569.15	10667.85
900.8566	1635.0542	11436.95	10535.85
900.9986	1636.804	11313.35	10411
901.1406	1638.553	11303.05	10312.3
901.2826	1640.3013	11172.85	10268.8
901.4245	1642.0488	11131.5	10229.9
901.5665	1643.7955	11145.65	10246.65
901.7085	1645.5416	11182.4	10285.7
901.8504	1647.2868	11254.7	10353.35
901.9923	1649.0313	11319.4	10415.5
902.1342	1650.7751	11476.9	10572.8
902.2761	1652.5181	11612.8	10712.1
902.4179	1654.2604	11781.2	10882
902.5598	1656.0019	12071.9	11172
902.7016	1657.7427	12333.55	11432.6
902.8434	1659.4828	12669.6	11764.85
902.9852	1661.222	12830.15	11925.35
903.127	1662.9606	12844.75	11941.3
903.2687	1664.6984	12629	11721.85
903.4105	1666.4354	12260.35	11354
903.5522	1668.1717	11769.6	10864.35
903.6939	1669.9072	11253.05	10348.1
903.8356	1671.642	10845.55	9935.1
903.9773	1673.3761	10497.2	9592.6
904.119	1675.1094	10210.6	9306.2
904.2606	1676.8419	9963.25	9059.65
904.4022	1678.5737	9794	8892.55
904.5439	1680.3048	9710.2	8803.55
904.6855	1682.0351	9566.2	8662.9
904.827	1683.7646	9456.15	8546.4
904.9686	1685.4934	9380.75	8477.4
905.1101	1687.2215	9315.05	8410.75
905.2517	1688.9488	9245.55	8345.4
905.3932	1690.6754	9169	8270.5
905.5347	1692.4012	9141.8	8241.05
905.6761	1694.1263	9090.85	8188.5
905.8176	1695.8506	9073.5	8170
905.9591	1697.5742	9035.2	8137.1
906.1005	1699.297	8967.35	8073.65
906.2419	1701.0191	8906.9	8010.55
906.3833	1702.7404	8880.3	7982.95
906.5246	1704.461	8824.25	7926.2
906.666	1706.1808	8771.35	7873
906.8073	1707.8999	8753	7856.45
906.9487	1709.6182	8722.7	7829.4
907.09	1711.3358	8685.4	7791.95
907.2313	1713.0527	8639.85	7747
907.3725	1714.7688	8611.35	7710.55
907.5138	1716.4841	8594.85	7697.05
907.655	1718.1987	8578.6	7676.2
907.7962	1719.9126	8522.4	7628.35
907.9374	1721.6257	8467.85	7573.8
908.0786	1723.338	8465.4	7574.1
908.2198	1725.0496	8416.4	7520.6
908.3609	1726.7605	8429.65	7535.8
908.502	1728.4706	8375.05	7478.95
908.6431	1730.18	8357.9	7463.25
908.7842	1731.8886	8299.05	7407.4
908.9253	1733.5964	8300.85	7385.3
909.0664	1735.3036	8276.3	7377.35
909.2074	1737.0099	8254.25	7360.65
909.3484	1738.7156	8235.8	7343.05
909.4894	1740.4204	8183.2	7290.6
909.6304	1742.1246	8157.65	7261.15
909.7714	1743.8279	8133.1	7237.15
909.9123	1745.5306	8121.65	7227.5
910.0532	1747.2325	8090.95	7195.95
910.1941	1748.9336	8079.7	7184.8
910.335	1750.634	8038.05	7142.6
910.4759	1752.3336	7990.75	7096.05
910.6168	1754.0325	7994.05	7106.75
910.7576	1755.7307	7960.6	7069.95
910.8984	1757.4281	7965.05	7073.15
911.0392	1759.1247	7965.7	7058.4
911.18	1760.8206	7939.3	7035.25
911.3208	1762.5158	7916.15	7014.9
911.4615	1764.2102	7879.1	6982.75
911.6022	1765.9039	7851.5	6957.4
911.7429	1767.5968	7820.35	6930.75
911.8836	1769.289	7798.25	6906.25
912.0243	1770.9804	7791.9	6896.9
912.1649	1772.6711	7764.6	6868.75
912.3056	1774.361	7757.75	6859.5
912.4462	1776.0502	7721.75	6824.35
912.5868	1777.7386	7710.6	6813.55
912.7274	1779.4263	7684.8	6791.2
912.8679	1781.1132	7693.5	6802.3
913.0084	1782.7994	7656.1	6767.1
913.149	1784.4849	7638.4	6750.8
913.2895	1786.1696	7627.55	6729.1
913.4299	1787.8535	7580.35	6689.75
913.5704	1789.5367	7570.25	6682.7
913.7108	1791.2192	7560.45	6671.3
913.8513	1792.9009	7534.95	6617.65
913.9917	1794.5818	7524.05	6626.7
914.132	1796.2621	7505.7	6612.45
914.2724	1797.9415	7490.9	6594.5
914.4128	1799.6202	7465.6	6570.7
914.5531	1801.2982	7446.35	6554.3
914.6934	1802.9755	7450.7	6554.45
914.8337	1804.6519	7425.85	6532.85
914.9739	1806.3277	7396.05	6502.8
915.1142	1808.0027	7357.75	6469.55
915.2544	1809.6769	7341.45	6453.15
915.3946	1811.3504	7317.5	6429.8
915.5348	1813.0231	7305.55	6420.55
915.675	1814.6951	7309.3	6422.75
915.8151	1816.3664	7309.05	6413.15
915.9553	1818.0369	7298.95	6405.7
916.0954	1819.7067	7276.65	6385.45
916.2355	1821.3757	7277.45	6381.6
916.3755	1823.044	7245.4	6350.75
916.5156	1824.7115	7225.35	6328.9
916.6556	1826.3783	7188.85	6296
916.7956	1828.0443	7169.9	6278.5
916.9356	1829.7096	7132.7	6240.85
917.0756	1831.3741	7130.95	6236.95
917.2155	1833.0379	7120.2	6229.85
917.3555	1834.701	7088.9	6201.05
917.4954	1836.3633	7060.65	6173.7
917.6353	1838.0248	7077.55	6187.2
917.7751	1839.6856	7065.65	6175.85
917.915	1841.3457	7073.45	6180.75
918.0548	1843.005	7073.2	6181.9
918.1946	1844.6636	7036.45	6143.7
918.3344	1846.3214	7002.35	6111.9
918.4742	1847.9785	6991.7	6103.05
918.6139	1849.6349	6986.25	6092
918.7537	1851.2904	6963.25	6060.9
918.8934	1852.9453	6946.7	6050.7
919.0331	1854.5994	6934.9	6037.75
919.1727	1856.2528	6944.85	6048.65
919.3124	1857.9054	6920.9	6028.15
919.452	1859.5572	6899.65	6008.75
919.5916	1861.2083	6888.6	5997.95
919.7312	1862.8587	6872.95	5979.55
919.8708	1864.5084	6850.6	5955.8
920.0103	1866.1572	6830.95	5935.65
920.1498	1867.8054	6804.6	5910.3
920.2893	1869.4528	6807.35	5912.75
920.4288	1871.0994	6775	5880.5
920.5683	1872.7453	6772.15	5876.15
920.7077	1874.3905	6759.5	5848.1
920.8471	1876.0349	6731.5	5837.5
920.9865	1877.6786	6725	5831.35
921.1259	1879.3215	6717.25	5826.05
921.2653	1880.9637	6698.15	5803.35
921.4046	1882.6051	6676.2	5787.4
921.5439	1884.2458	6655.9	5764.3
921.6832	1885.8858	6628.95	5737.75
921.8225	1887.525	6620.25	5727.3
921.9617	1889.1634	6599.1	5706.9
922.101	1890.8011	6600.2	5706.6
922.2402	1892.4381	6570.5	5677.4
922.3794	1894.0743	6575.2	5680.95
922.5185	1895.7098	6535.95	5643.3
922.6577	1897.3446	6528.05	5635.15
922.7968	1898.9786	6514.4	5616.4
922.9359	1900.6118	6497.8	5604.55
923.075	1902.2443	6469.7	5578.75
923.214	1903.8761	6455.45	5564.15
923.3531	1905.5071	6408.6	5516.75
923.4921	1907.1374	6392.5	5501.6
923.6311	1908.7669	6406.1	5513.6
923.77	1910.3957	6384.9	5495.45
923.909	1912.0237	6377.75	5487.1
924.0479	1913.651	6351.25	5458.7
924.1868	1915.2776	6341.9	5453
924.3257	1916.9034	6305.35	5416.35
924.4646	1918.5285	6266.05	5378.55
924.6034	1920.1528	6264.4	5374.9
924.7422	1921.7764	6242.15	5353.3
924.881	1923.3992	6217.5	5326.75
925.0198	1925.0213	6183.6	5292.2
925.1586	1926.6427	6161.35	5272.05
925.2973	1928.2633	6240.9	5252.2
925.436	1929.8832	6163.2	5270.75
925.5747	1931.5023	6135.35	5245.85
925.7134	1933.1207	6105.3	5213.55
925.852	1934.7383	6091.55	5199.45
925.9906	1936.3552	6078.65	5188.45
926.1292	1937.9714	6066.5	5177.75
926.2678	1939.5868	6029.3	5136.9
926.4064	1941.2015	6003.5	5108.3
926.5449	1942.8154	5976.65	5084.4
926.6834	1944.4286	5959.7	5066.4
926.8219	1946.041	5961.05	5045.45
926.9604	1947.6528	5915.15	5018.65
927.0988	1949.2637	5907.25	5016.65
927.2372	1950.8739	5880.7	4991.2
927.3756	1952.4834	5883.5	4995.45
927.514	1954.0921	5856.1	4965.6
927.6523	1955.7001	5834.95	4944.25
927.7907	1957.3074	5836.5	4948.6
927.929	1958.9139	5800.55	4914.85
928.0673	1960.5197	5806.45	4918.65
928.2055	1962.1247	5761.6	4873.3
928.3438	1963.729	5732.3	4847.7
928.482	1965.3325	5713.45	4823.25
928.6202	1966.9353	5692.85	4810.2
928.7584	1968.5374	5682.7	4794.25
928.8965	1970.1387	5671.05	4785.2
929.0346	1971.7393	5650.5	4764.45
929.1727	1973.3392	5635.65	4747.85
929.3108	1974.9383	5607.65	4723
929.4489	1976.5366	5587.95	4705.95
929.5869	1978.1342	5579.95	4695.45
929.7249	1979.7311	5563.4	4681.45
929.8629	1981.3273	5556.15	4669.35
930.0009	1982.9227	5540.85	4657.1
930.1388	1984.5173	5504.85	4622.75
930.2767	1986.1112	5495.15	4609.6
930.4146	1987.7044	5477.55	4593.25
930.5525	1989.2968	5470.1	4583.55
930.6904	1990.8885	5481.95	4595.35
930.8282	1992.4795	5453.75	4572.35
930.966	1994.0697	5431.05	4551
931.1038	1995.6592	5419.1	4537.5
931.2415	1997.2479	5418.5	4534.8
931.3793	1998.8359	5372.4	4488.95
931.517	2000.4232	5364.2	4485.6
931.6547	2002.0097	5341.75	4462.4
931.7923	2003.5955	5314.7	4433.5
931.93	2005.1805	5325.35	4444.2
932.0676	2006.7648	5303.15	4423.7
932.2052	2008.3484	5278.15	4401.25
932.3427	2009.9312	5286.35	4406.05
932.4803	2011.5133	5284.8	4407.2
932.6178	2013.0946	5251.45	4374.05
932.7553	2014.6752	5241.85	4361.6
932.8928	2016.2551	5219	4338.9
933.0302	2017.8342	5220.05	4338
933.1676	2019.4126	5206.8	4328.85
933.305	2020.9902	5175.3	4299.55
933.4424	2022.5672	5170.25	4292.15
933.5798	2024.1433	5150	4268.25
933.7171	2025.7188	5134.4	4258.75
933.8544	2027.2935	5108.95	4231.15
933.9917	2028.8674	5121.2	4244.7
934.129	2030.4406	5083.8	4205.95
934.2662	2032.0131	5069.6	4195.35
934.4034	2033.5849	5053.75	4168.85
934.5406	2035.1559	5053.45	4176.15
934.6778	2036.7261	5041.35	4158.65
934.8149	2038.2957	5044.25	4159.55
934.952	2039.8645	5027.3	4143.2
935.0891	2041.4325	5023.75	4137.65
935.2262	2042.9998	5008.35	4129
935.3632	2044.5664	4996.65	4114.05
935.5002	2046.1323	4973.35	4095.4
935.6372	2047.6974	4957.2	4080.85
935.7742	2049.2617	4939.75	4062.35
935.9111	2050.8254	4940.7	4057.15
936.048	2052.3883	4950.05	4066.75
936.1849	2053.9504	4923.65	4039.55
936.3218	2055.5118	4924.05	4041.6
936.4586	2057.0725	4899.15	4013.35
936.5955	2058.6325	4889.05	4008.45
936.7323	2060.1917	4863.65	3984.15
936.869	2061.7502	4855.8	3972.55
937.0058	2063.3079	4842.05	3964.55
937.1425	2064.8649	4819.45	3935.2
937.2792	2066.4212	4824.9	3946.8
937.4159	2067.9767	4798.95	3918.1
937.5525	2069.5315	4790.55	3909.75
937.6891	2071.0856	4774.8	3895.5
937.8257	2072.6389	4750.75	3870.95
937.9623	2074.1915	4739.2	3862.5
938.0989	2075.7433	4710.4	3831.05
938.2354	2077.2945	4705.4	3826
938.3719	2078.8448	4720.2	3836.55
938.5084	2080.3945	4692.05	3808.65
938.6448	2081.9434	4681.4	3796.3
938.7812	2083.4916	4666.65	3782.6
938.9176	2085.039	4637.5	3747.55
939.054	2086.5857	4648.2	3757.1
939.1903	2088.1317	4648.95	3760.7
939.3267	2089.677	4618.3	3727.25
939.463	2091.2215	4618.85	3727.8
939.5992	2092.7652	4590.9	3700.6
939.7355	2094.3083	4605.4	3716.15
939.8717	2095.8506	4583.25	3697
940.0079	2097.3921	4571.3	3689.4
940.1441	2098.933	4564.55	3678.7
940.2802	2100.4731	4529.8	3644.35
940.4163	2102.0124	4547.5	3644.95
940.5524	2103.5511	4539.25	3651.45
940.6885	2105.089	4543.7	3658.45
940.8245	2106.6261	4511.5	3626
940.9606	2108.1626	4509.9	3624.05
941.0965	2109.6983	4529.65	3614.95
941.2325	2111.2332	4486.4	3599.75
941.3684	2112.7675	4480.3	3592.45
941.5044	2114.301	4470.2	3581.9
941.6403	2115.8337	4461.75	3575.2
941.7761	2117.3657	4437.65	3551.95
941.912	2118.897	4444.55	3557.35
942.0478	2120.4276	4426.1	3533.3
942.1835	2121.9575	4406.15	3517.75
942.3193	2123.4866	4434.65	3531.95
942.455	2125.0149	4395.95	3505.5
942.5907	2126.5426	4367.7	3484.55
942.7264	2128.0695	4371.15	3486
942.8621	2129.5956	4363.2	3484.8
942.9977	2131.1211	4361.75	3475.95
943.1333	2132.6458	4349.1	3465.55
943.2689	2134.1698	4326.95	3441.45
943.4044	2135.693	4327.6	3435.75
943.54	2137.2155	4326.2	3436.3
943.6755	2138.7373	4304.8	3420.7
943.8109	2140.2584	4290.25	3409.65
943.9464	2141.7787	4279.65	3395.6
944.0818	2143.2983	4249.15	3371.7
944.2172	2144.8171	4241.6	3363.7
944.3526	2146.3353	4230.45	3348.65
944.4879	2147.8527	4220.55	3339.75
944.6232	2149.3693	4223.75	3336.25
944.7585	2150.8853	4224.6	3335.15
944.8938	2152.4005	4186.65	3298.95
945.029	2153.9149	4205.15	3316.95
945.1642	2155.4287	4183.2	3296.65
945.2994	2156.9417	4180.25	3292.8
945.4346	2158.454	4159.55	3272.6
945.5697	2159.9655	4158.15	3275.45
945.7048	2161.4764	4165.9	3283.5
945.8399	2162.9865	4121.1	3239.45
945.9749	2164.4958	4119.7	3237.65
946.1099	2166.0045	4097	3209.7
946.2449	2167.5124	4113.55	3229.8
946.3799	2169.0195	4095.7	3212.05
946.5148	2170.526	4096.35	3208
946.6498	2172.0317	4077.15	3193.35
946.7846	2173.5367	4072.55	3187.05
946.9195	2175.0409	4080.8	3199.3
947.0543	2176.5445	4063.4	3177.4
947.1891	2178.0473	4035.5	3149.4
947.3239	2179.5494	4037.35	3145.75
947.4587	2181.0507	4015.45	3130.65
947.5934	2182.5513	4000.6	3113.6
947.7281	2184.0512	4000.35	3113.1
947.8628	2185.5504	3983.95	3098
947.9974	2187.0488	3957.35	3074.15
948.132	2188.5465	3962.75	3081.05
948.2666	2190.0435	3936.05	3052.45
948.4012	2191.5397	3940.6	3053.2
948.5357	2193.0353	3937.4	3049.7
948.6702	2194.5301	3920.35	3030.2
948.8047	2196.0241	3910.45	3018.55
948.9392	2197.5175	3912.7	3021.3
949.0736	2199.0101	3903.35	3009.8
949.208	2200.502	3888.95	3000.35
949.3424	2201.9931	3859.25	2976
949.4767	2203.4835	3868.4	2985.75
949.611	2204.9733	3861	2974.5
949.7453	2206.4622	3835.85	2952.3
949.8796	2207.9505	3834.4	2952.05
950.0138	2209.438	3803.1	2923.15
950.148	2210.9248	3806.35	2923
950.2822	2212.4109	3792	2906
950.4164	2213.8962	3785.65	2892.35
950.5505	2215.3809	3776.55	2882.55
950.6846	2216.8648	3783.45	2890.9
950.8186	2218.3479	3778.05	2880.5
950.9527	2219.8304	3752.15	2856.2
951.0867	2221.3121	3741.35	2849.35
951.2207	2222.7931	3720.8	2830.55
951.3546	2224.2733	3709.7	2820.55
951.4886	2225.7529	3706	2818.3
951.6225	2227.2317	3694.85	2809.6
951.7563	2228.7098	3689.45	2806.5
951.8902	2230.1872	3677.7	2794.35
952.024	2231.6638	3675.6	2793.7
952.1578	2233.1397	3663.5	2773.95
952.2916	2234.6149	3644.05	2762.25
952.4253	2236.0894	3628.1	2742.15
952.559	2237.5632	3633.6	2739.75
952.6927	2239.0362	3619.25	2733.85
952.8263	2240.5085	3608.55	2721.85
952.9599	2241.9801	3602.9	2715.4
953.0935	2243.4509	3593.2	2703.3
953.2271	2244.921	3584.75	2693
953.3606	2246.3904	3586.35	2692.2
953.4941	2247.8591	3565.8	2675.25
953.6276	2249.3271	3551.4	2661.05
953.7611	2250.7943	3539.65	2650.45
953.8945	2252.2608	3538.7	2650.6
954.0279	2253.7266	3522.45	2633.65
954.1612	2255.1917	3528.75	2641
954.2946	2256.656	3506	2618.15
954.4279	2258.1197	3490.05	2606.3
954.5612	2259.5826	3490.8	2606.3
954.6944	2261.0447	3487.4	2598
954.8276	2262.5062	3477.8	2588.4
954.9608	2263.9669	3473	2582.55
955.094	2265.4269	3457.4	2570.45
955.2271	2266.8862	3458.65	2571.75
955.3602	2268.3448	3438.95	2553.4
955.4933	2269.8026	3448.05	2562.4
955.6264	2271.2598	3422.3	2536.4
955.7594	2272.7162	3430.15	2543.85
955.8924	2274.1719	3422.55	2532.65
956.0253	2275.6268	3419.25	2528.8
956.1583	2277.0811	3402.7	2514.9
956.2912	2278.5346	3401.4	2515.9
956.4241	2279.9874	3392.45	2507.3
956.5569	2281.4395	3382.15	2496.3
956.6897	2282.8908	3382.7	2494.15
956.8225	2284.3414	3380.25	2491.25
956.9553	2285.7914	3362.45	2475.2
957.088	2287.2406	3372.2	2480.65
957.2207	2288.689	3338.65	2448.6
957.3534	2290.1368	3327.4	2434.4
957.486	2291.5838	3329	2432.85
957.6186	2293.0302	3329.05	2434.15
957.7512	2294.4758	3311.75	2419.7
957.8838	2295.9206	3301.65	2409.8
958.0163	2297.3648	3296.35	2409
958.1488	2298.8082	3309	2421
958.2813	2300.251	3300.6	2410.5
958.4137	2301.693	3276.95	2383.85
958.5461	2303.1343	3285.4	2393.55
958.6785	2304.5748	3274.8	2389.15
958.8108	2306.0147	3255.1	2368.75
958.9432	2307.4538	3261.7	2376.2
959.0754	2308.8922	3231.85	2349.05
959.2077	2310.3299	3225.25	2342.15
959.3399	2311.7669	3231.4	2346.3
959.4721	2313.2031	3217.1	2331.3
959.6043	2314.6387	3212.95	2322.15
959.7365	2316.0735	3198.15	2309.05
959.8686	2317.5076	3204.35	2318.05
960.0006	2318.941	3200.4	2308.85
960.1327	2320.3737	3195.15	2302.85
960.2647	2321.8056	3167.65	2276.2
960.3967	2323.2369	3172.25	2281.6
960.5287	2324.6674	3164.75	2275.15
960.6606	2326.0972	3146.3	2255.2
960.7925	2327.5263	3138.3	2250.95
960.9244	2328.9547	3140.1	2248.75
961.0562	2330.3823	3123.55	2231.75
961.1881	2331.8092	3121.65	2228.3
961.3198	2333.2355	3128.05	2237.1
961.4516	2334.661	3108.15	2216.95
961.5833	2336.0858	3099.4	2206.7
961.715	2337.5098	3099.2	2210.35
961.8467	2338.9332	3092.45	2204.15
961.9783	2340.3558	3079.9	2191.25
962.1099	2341.7778	3083.9	2198.8
962.2415	2343.199	3064.75	2175.8
962.373	2344.6195	3054.15	2166.75
962.5045	2346.0393	3064.55	2179.85
962.636	2347.4583	3058.35	2171
962.7675	2348.8767	3057.15	2168.65
962.8989	2350.2943	3052.6	2164.45
963.0303	2351.7113	3031.75	2140.85
963.1617	2353.1275	3038.2	2145
963.293	2354.543	3046.8	2130.7
963.4243	2355.9578	3024.95	2136.95
963.5556	2357.3718	3004.8	2118.35
963.6868	2358.7852	3006.6	2118.75
963.818	2360.1978	2995.35	2111.4
963.9492	2361.6098	2983.5	2096.5
964.0803	2363.021	2986.2	2095.35
964.2114	2364.4315	2970.45	2084.6
964.3425	2365.8413	2968.8	2081.5
964.4736	2367.2504	2948.15	2063.9
964.6046	2368.6587	2948.55	2064.85
964.7356	2370.0664	2932.85	2047.15
964.8666	2371.4733	2937.55	2050.55
964.9975	2372.8795	2924.4	2041.45
965.1284	2374.285	2927.9	2040.1
965.2593	2375.6899	2903.55	2021.05
965.3901	2377.0939	2899.4	2014.1
965.5209	2378.4973	2885.6	2000.95
965.6517	2379.9	2888.15	2002.85
965.7825	2381.3019	2865.05	1982.5
965.9132	2382.7032	2870	1988.9
966.0439	2384.1037	2862.55	1981.45
966.1745	2385.5035	2855.5	1974.7
966.3051	2386.9027	2846.6	1966.65
966.4357	2388.3011	2845	1958.2
966.5663	2389.6987	2833.75	1951.15
966.6968	2391.0957	2824.35	1942.25
966.8273	2392.492	2812.45	1930.5
966.9578	2393.8876	2796.7	1915.4
967.0882	2395.2824	2796.4	1913.4
967.2186	2396.6765	2791.2	1909.8
967.349	2398.07	2781.4	1897.45
967.4793	2399.4627	2786.6	1902.1
967.6097	2400.8547	2778.95	1895.85
967.7399	2402.246	2772.7	1883.45
967.8702	2403.6366	2757.95	1876.4
968.0004	2405.0265	2748.2	1866.2
968.1306	2406.4156	2741.85	1856.8
968.2607	2407.8041	2730.45	1844.95
968.3909	2409.1918	2732.5	1848.35
968.521	2410.5789	2719.05	1837.05
968.651	2411.9652	2720.9	1835.4
968.781	2413.3508	2709.35	1824.15
968.911	2414.7358	2691.7	1808.1
969.041	2416.12	2702.25	1819.05
969.1709	2417.5035	2698.45	1817.3
969.3008	2418.8863	2685.05	1801.75
969.4307	2420.2684	2676.3	1792.9
969.5606	2421.6497	2671	1784.4
969.6904	2423.0304	2664.9	1784.45
969.8201	2424.4104	2662.9	1777.35
969.9499	2425.7896	2653.4	1770.65
970.0796	2427.1682	2653.7	1769
970.2093	2428.546	2638.35	1752.35
970.3389	2429.9232	2634.1	1747.65
970.4685	2431.2996	2647.35	1761.35
970.5981	2432.6753	2630.85	1744.7
970.7277	2434.0503	2626.65	1742.25
970.8572	2435.4246	2625.5	1741.35
970.9867	2436.7982	2609.1	1723.45
971.1161	2438.1711	2601	1718
971.2456	2439.5433	2599.95	1713.55
971.375	2440.9148	2597.3	1707.05
971.5043	2442.2856	2589.15	1705.55
971.6336	2443.6557	2576.7	1693.55
971.7629	2445.025	2568.75	1683.35
971.8922	2446.3937	2564.1	1677.4
972.0214	2447.7617	2567.85	1682.95
972.1506	2449.1289	2548.65	1663.65
972.2798	2450.4955	2547.2	1659.1
972.4089	2451.8613	2534.15	1651.05
972.538	2453.2265	2547.75	1663.75
972.6671	2454.5909	2535.5	1651.35
972.7961	2455.9546	2528.35	1643.5
972.9251	2457.3177	2526.2	1643.45
973.0541	2458.68	2520.55	1634.75
973.1831	2460.0416	2526.5	1641.7
973.312	2461.4025	2525.9	1639.9
973.4408	2462.7627	2529.05	1633.75
973.5697	2464.1222	2514	1631.65
973.6985	2465.4811	2503.05	1618.65
973.8273	2466.8392	2485.3	1603.55
973.956	2468.1966	2511.45	1625
974.0847	2469.5533	2499.95	1612.4
974.2134	2470.9093	2497.3	1613.2
974.3421	2472.2645	2486.7	1600.4
974.4707	2473.6191	2481.7	1596.3
974.5993	2474.973	2480.95	1596.7
974.7278	2476.3262	2471	1585.4
974.8563	2477.6787	2467.7	1584.35
974.9848	2479.0305	2453.7	1571.9
975.1132	2480.3816	2453	1566.1
975.2417	2481.7319	2449.15	1565.6
975.37	2483.0816	2443.6	1556.3
975.4984	2484.4306	2433.7	1548
975.6267	2485.7789	2429.8	1545.65
975.755	2487.1264	2424.15	1536.2
975.8833	2488.4733	2408.15	1526.7
976.0115	2489.8195	2407.75	1517.85
976.1397	2491.165	2396.6	1508.1
976.2678	2492.5097	2394.15	1509.2
976.3959	2493.8538	2394.45	1511
976.524	2495.1972	2375.2	1489.05
976.6521	2496.5398	2382.9	1495.65
976.7801	2497.8818	2379.45	1492.6
976.9081	2499.2231	2363.8	1478.3
977.036	2500.5637	2360.85	1471.7
977.164	2501.9035	2361.6	1473.05
977.2918	2503.2427	2361.75	1473.75
977.4197	2504.5812	2350.15	1463.3
977.5475	2505.919	2353	1465.65
977.6753	2507.256	2334.7	1446.9
977.8031	2508.5924	2339.9	1453.9
977.9308	2509.9281	2344.8	1453.7
978.0585	2511.2631	2332.6	1449.85
978.1861	2512.5974	2320.55	1438.05
978.3137	2513.9309	2315.05	1430.9
978.4413	2515.2638	2337.95	1427.05
978.5689	2516.596	2312.35	1429.9
978.6964	2517.9275	2298.45	1413
978.8239	2519.2583	2297.8	1412.2
978.9513	2520.5884	2296.3	1410.05
979.0788	2521.9178	2273.35	1386.95
979.2062	2523.2465	2282.1	1398.3
979.3335	2524.5745	2274.35	1390.1
979.4608	2525.9018	2276.9	1392.45
979.5881	2527.2284	2275.8	1390.45
979.7154	2528.5543	2259.95	1376
979.8426	2529.8796	2263.65	1377.75
979.9698	2531.2041	2264.85	1378.35
980.0969	2532.5279	2252.45	1366.65
980.224	2533.851	2251.35	1364.95
980.3511	2535.1735	2244.75	1361
980.4781	2536.4952	2240.15	1352.7
980.6052	2537.8163	2244.1	1357.45
980.7321	2539.1366	2241.15	1354.95
980.8591	2540.4562	2229.15	1341.75
980.986	2541.7752	2240.55	1356.05
981.1129	2543.0935	2235.3	1348
981.2397	2544.411	2229.15	1339.05
981.3665	2545.7279	2217	1330.15
981.4933	2547.0441	2226.55	1340
981.62	2548.3596	2212.85	1325.4
981.7467	2549.6744	2214.7	1328.5
981.8734	2550.9885	2224.4	1329.55
982.0001	2552.3019	2207.15	1322.3
982.1267	2553.6146	2199.35	1313
982.2532	2554.9266	2190.4	1305.4
982.3798	2556.2379	2195.2	1306.25
982.5063	2557.5485	2180.1	1295.1
982.6327	2558.8585	2192.65	1300.15
982.7592	2560.1677	2180.25	1290.5
982.8856	2561.4762	2175.5	1291.05
983.0119	2562.7841	2183.55	1295.85
983.1383	2564.0913	2173.8	1289
983.2646	2565.3977	2166.95	1279.4
983.3908	2566.7035	2164.95	1276.75
983.517	2568.0086	2162.85	1271.05
983.6432	2569.313	2155.1	1266.55
983.7694	2570.6167	2165.55	1274.1
983.8955	2571.9197	2144.75	1256.6
984.0216	2573.222	2150.3	1260.4
984.1476	2574.5236	2151.75	1263.35
984.2737	2575.8246	2144.8	1255.2
984.3996	2577.1248	2151.8	1262
984.5256	2578.4244	2144	1256.4
984.6515	2579.7232	2138	1249.25
984.7774	2581.0214	2170.35	1252.3
984.9032	2582.3189	2144.75	1260
985.029	2583.6157	2141.1	1249.95
985.1548	2584.9118	2127.35	1238.9
985.2806	2586.2072	2131.25	1245.55
985.4063	2587.5019	2129.05	1240.9
985.5319	2588.7959	2125.1	1238.45
985.6576	2590.0893	2119.8	1230.95
985.7832	2591.3819	2124.75	1238.15
985.9087	2592.6739	2116.5	1230.4
986.0343	2593.9652	2126.8	1237.8
986.1597	2595.2557	2117.05	1228.6
986.2852	2596.5456	2109.4	1220.5
986.4106	2597.8348	2118.55	1235.75
986.536	2599.1234	2112.5	1226.5
986.6614	2600.4112	2112.05	1225.25
986.7867	2601.6983	2110.75	1222.8
986.912	2602.9848	2106.55	1219.2
987.0372	2604.2705	2098.9	1204.45
987.1624	2605.5556	2093.5	1206.25
987.2876	2606.84	2094.4	1210
987.4128	2608.1237	2086.55	1199.1
987.5379	2609.4067	2086.65	1199.85
987.6629	2610.689	2077.85	1182.5
987.788	2611.9707	2080.4	1191.6
987.913	2613.2516	2073.7	1181.65
988.0379	2614.5319	2068.1	1182.05
988.1629	2615.8115	2053.9	1165.2
988.2878	2617.0903	2044.5	1157.4
988.4126	2618.3685	2048.25	1162.8
988.5375	2619.6461	2050	1162.15
988.6622	2620.9229	2050.55	1163.4
988.787	2622.199	2043.95	1157.2
988.9117	2623.4745	2042.85	1153.05
989.0364	2624.7493	2033	1144.4
989.161	2626.0234	2033.9	1149.2
989.2857	2627.2968	2035.4	1150.8
989.4102	2628.5695	2028.4	1143.2
989.5348	2629.8415	2017.8	1130.8
989.6593	2631.1128	2015.9	1127.2
989.7837	2632.3835	2012.2	1127.65
989.9082	2633.6535	2011.45	1125.6
990.0326	2634.9228	2003.65	1116.5
990.1569	2636.1914	2006.4	1119
990.2812	2637.4593	2016.35	1129.55
990.4055	2638.7265	1997.65	1110.45
990.5298	2639.9931	1997.65	1110.55
990.654	2641.259	1995.15	1110.2
990.7782	2642.5242	1991	1104.65
990.9023	2643.7887	1983.65	1096.45
991.0264	2645.0525	1979.45	1094.05
991.1505	2646.3156	1981.75	1096.8
991.2745	2647.5781	1961.75	1077.9
991.3985	2648.8398	1971.95	1087.6
991.5225	2650.1009	1977.35	1084.4
991.6464	2651.3613	1955.15	1069.95
991.7703	2652.6211	1969.75	1081.55
991.8942	2653.8801	1949.25	1063.6
992.018	2655.1385	1956.75	1067.1
992.1418	2656.3961	1952.25	1066.55
992.2655	2657.6531	1944.15	1058
992.3892	2658.9094	1953.25	1067.5
992.5129	2660.1651	1953.75	1069.35
992.6366	2661.42	1945.9	1060.65
992.7602	2662.6743	1946.3	1057.85
992.8837	2663.9279	1952.25	1066.65
993.0073	2665.1808	1950.65	1064.3
993.1307	2666.433	1951.55	1065.6
993.2542	2667.6846	1950.85	1064.65
993.3776	2668.9354	1949.65	1061.7
993.501	2670.1856	1949.75	1061.75
993.6244	2671.4351	1943.05	1057.3
993.7477	2672.6839	1950.4	1065.35
993.8709	2673.9321	1945.1	1057.25
993.9942	2675.1795	1934.7	1048.75
994.1174	2676.4263	1948.35	1063.4
994.2405	2677.6724	1947.3	1061.65
994.3637	2678.9179	1942.05	1055.7
994.4868	2680.1626	1944.5	1057.6
994.6098	2681.4067	1949.15	1062.25
994.7328	2682.6501	1929.9	1044.25
994.8558	2683.8928	1926.05	1038.9
994.9788	2685.1348	1924.3	1037.5
995.1017	2686.3761	1921.2	1037.9
995.2245	2687.6168	1904.7	1019.6
995.3474	2688.8568	1907.1	1022.9
995.4702	2690.0961	1899.15	1014.95
995.5929	2691.3348	1903.3	1018.6
995.7156	2692.5727	1894.15	1008.25
995.8383	2693.81	1887.5	1004.4
995.961	2695.0466	1891.9	1007.9
996.0836	2696.2826	1893.15	1005.45
996.2062	2697.5178	1894.7	1005
996.3287	2698.7524	1884.9	998.15
996.4512	2699.9863	1881.9	995.15
996.5737	2701.2195	1881.75	997
996.6961	2702.452	1885.25	998.35
996.8185	2703.6839	1882.9	996.15
996.9408	2704.9151	1893.15	1008.45
997.0631	2706.1456	1890.95	1003.9
997.1854	2707.3755	1899.8	1014.35
997.3077	2708.6046	1901.1	1012.75
997.4299	2709.8331	1912.25	1028
997.552	2711.0609	1913.2	1027.95
997.6742	2712.2881	1920.8	1034.9
997.7963	2713.5145	1934.5	1046.8
997.9183	2714.7403	1929.85	1045.15
998.0403	2715.9654	1936.4	1050
998.1623	2717.1899	1963.95	1064.55
998.2842	2718.4136	1952.85	1068.6
998.4062	2719.6367	1973.8	1090.55
998.528	2720.8591	1982.6	1089.5
998.6498	2722.0809	1987.75	1104.7
998.7716	2723.3019	2003.55	1115.85
998.8934	2724.5223	1992.1	1105
999.0151	2725.7421	1999.4	1113.15
999.1368	2726.9611	2001.65	1114.1
999.2584	2728.1795	2005.55	1114.95
999.38	2729.3972	1993.95	1109.95
999.5016	2730.6142	1987.35	1090.95
999.6231	2731.8306	1962.95	1076.15
999.7446	2733.0462	1945.4	1058.75
999.8661	2734.2612	1927.95	1038.15
999.9875	2735.4756	1912.75	1026.35
1000.1089	2736.6892	1885.25	999.35
1000.2302	2737.9022	1869.9	986.4
1000.3515	2739.1145	1852.8	967.2
1000.4728	2740.3262	1844.35	951.4
1000.594	2741.5372	1833.1	945.8
1000.7152	2742.7475	1815.5	930.1
1000.8363	2743.9571	1806.2	921.35
1000.9575	2745.1661	1796.6	907.55
1001.0785	2746.3744	1772.1	884.95
1001.1996	2747.582	1771.8	885.7
1001.3206	2748.7889	1767.45	882.25
1001.4415	2749.9952	1754.15	872.15
1001.5625	2751.2008	1752.45	866.5
1001.6833	2752.4057	1751.9	865.35
1001.8042	2753.61	1742.75	856.9
1001.925	2754.8136	1741.2	852.2
1002.0458	2756.0165	1737.4	852.75
1002.1665	2757.2188	1729.3	846.95
1002.2872	2758.4204	1736.5	850.9
1002.4078	2759.6213	1742.5	855.95
1002.5285	2760.8215	1725.35	838.15
1002.649	2762.0211	1724.3	836.9
1002.7696	2763.22	1721.85	835.2
1002.8901	2764.4182	1720.7	834.8
1003.0106	2765.6158	1711.6	828.55
1003.131	2766.8127	1710.35	825.55
1003.2514	2768.009	1703.45	816.9
1003.3717	2769.2045	1712.05	824.35
1003.492	2770.3994	1700.15	812.75
1003.6123	2771.5936	1697.35	811.7
1003.7325	2772.7872	1696.15	812.1
1003.8527	2773.9801	1683.75	798.4
1003.9729	2775.1723	1700.35	799
1004.093	2776.3639	1679.3	797.2
1004.2131	2777.5548	1683.35	797
1004.3331	2778.745	1684.5	800.35
1004.4531	2779.9346	1679.3	794.55
1004.5731	2781.1235	1682	796.55
1004.693	2782.3117	1679.85	796.75
1004.8129	2783.4992	1681.45	796.55
1004.9328	2784.6861	1684.35	800.85
1005.0526	2785.8723	1699.15	813.3
1005.1723	2787.0579	1697.25	813.4
1005.2921	2788.2428	1702.15	817.2
1005.4118	2789.427	1703.95	819.85
1005.5314	2790.6106	1716.75	831.8
1005.651	2791.7935	1718.05	834
1005.7706	2792.9757	1740.55	858.4
1005.8902	2794.1573	1739.25	854.7
1006.0097	2795.3382	1753.75	870.45
1006.1291	2796.5184	1761.4	878.75
1006.2485	2797.698	1784.9	898.8
1006.3679	2798.8769	1796.55	914.05
1006.4873	2800.0551	1812.05	927.15
1006.6066	2801.2327	1832.9	946.55
1006.7258	2802.4096	1851.65	971.1
1006.8451	2803.5859	1866.1	982.85
1006.9642	2804.7615	1882.6	998.4
1007.0834	2805.9364	1899.2	1018.8
1007.2025	2807.1106	1925.85	1042.75
1007.3216	2808.2842	1946.7	1062
1007.4406	2809.4572	1986.35	1102.45
1007.5596	2810.6294	2010.6	1126.95
1007.6785	2811.801	2052.1	1168.4
1007.7975	2812.972	2085.5	1200.7
1007.9163	2814.1423	2141.2	1257
1008.0352	2815.3119	2186	1302.15
1008.154	2816.4808	2230	1348.55
1008.2727	2817.6491	2273.15	1389.15
1008.3914	2818.8167	2314.3	1433.25
1008.5101	2819.9837	2374.4	1487.85
1008.6288	2821.15	2422.45	1540.1
1008.7474	2822.3157	2473.5	1592.45
1008.8659	2823.4807	2502.6	1618.55
1008.9844	2824.645	2550.85	1667.85
1009.1029	2825.8086	2602.45	1719.5
1009.2214	2826.9716	2639.95	1758.65
1009.3398	2828.134	2674.45	1793.5
1009.4581	2829.2957	2707.5	1826.2
1009.5764	2830.4567	2748.4	1867.5
1009.6947	2831.617	2780	1896
1009.813	2832.7767	2778.85	1898.1
1009.9312	2833.9358	2784.05	1902
1010.0493	2835.0941	2768.8	1885.2
1010.1675	2836.2519	2761.45	1878.65
1010.2855	2837.4089	2754.75	1872.15
1010.4036	2838.5653	2739.95	1859.85
1010.5216	2839.7211	2734.6	1855.75
1010.6396	2840.8761	2750	1865.15
1010.7575	2842.0306	2763.75	1882.75
1010.8754	2843.1843	2802.2	1919.8
1010.9932	2844.3374	2847	1962.25
1011.111	2845.4899	2913.85	2031.05
1011.2288	2846.6417	2973.5	2087.15
1011.3465	2847.7928	3065.85	2185.7
1011.4642	2848.9433	3135.95	2252.85
1011.5818	2850.0931	3203.5	2321.75
1011.6995	2851.2422	3283.55	2399.35
1011.817	2852.3907	3356.5	2470.6
1011.9345	2853.5385	3415.35	2530.15
1012.052	2854.6857	3484.35	2575.4
1012.1695	2855.8323	3513.4	2630.65
1012.2869	2856.9781	3549.95	2667.1
1012.4042	2858.1233	3620.05	2737.65
1012.5216	2859.2679	3655.55	2775.65
1012.6389	2860.4118	3704.3	2819.95
1012.7561	2861.555	3746.9	2860.85
1012.8733	2862.6976	3775.25	2892.3
1012.9905	2863.8395	3802.55	2921.8
1013.1076	2864.9808	3815.75	2933.25
1013.2247	2866.1214	3840.55	2960.4
1013.3417	2867.2614	3856.25	2974.95
1013.4587	2868.4007	3864	2980.75
1013.5757	2869.5393	3870.15	2987.05
1013.6926	2870.6773	3880.35	2992.95
1013.8095	2871.8146	3918	3032.6
1013.9263	2872.9513	3893.65	3009.5
1014.0431	2874.0874	3900.55	3018.6
1014.1599	2875.2227	3886	3003.95
1014.2766	2876.3574	3867.3	2986.25
1014.3933	2877.4915	3842.65	2962.45
1014.51	2878.6249	3823.1	2944.35
1014.6266	2879.7577	3801.5	2918.55
1014.7431	2880.8898	3786.55	2895
1014.8596	2882.0212	3774.05	2892.5
1014.9761	2883.152	3747.45	2865.5
1015.0925	2884.2821	3721.65	2840.45
1015.2089	2885.4116	3717.2	2836.85
1015.3253	2886.5405	3719.2	2838.15
1015.4416	2887.6686	3736.75	2852.85
1015.5579	2888.7962	3739.9	2858.8
1015.6741	2889.923	3753.8	2871.75
1015.7903	2891.0493	3749.15	2866.55
1015.9065	2892.1748	3748.35	2867.8
1016.0226	2893.2997	3771.1	2889.7
1016.1387	2894.424	3786.45	2907.35
1016.2547	2895.5476	3803.55	2922
1016.3707	2896.6706	3836.2	2958
1016.4866	2897.7929	3852.3	2969.25
1016.6025	2898.9145	3888.95	3009.85
1016.7184	2900.0355	3913.2	3030.7
1016.8342	2901.1559	3953.65	3070.15
1016.95	2902.2756	3992.5	3111.6
1017.0658	2903.3946	4014.45	3136.4
1017.1815	2904.513	4033.45	3148.7
1017.2971	2905.6308	4069.3	3188.45
1017.4127	2906.7479	4087.8	3206.05
1017.5283	2907.8643	4111.7	3226.6
1017.6439	2908.9801	4119.35	3240.25
1017.7594	2910.0953	4127	3245.5
1017.8748	2911.2098	4122.9	3238.35
1017.9902	2912.3236	4128.65	3239.65
1018.1056	2913.4368	4110.7	3227.2
1018.2209	2914.5494	4085.75	3203.6
1018.3362	2915.6613	4052.85	3165.25
1018.4515	2916.7725	4033.65	3149.25
1018.5667	2917.8831	4010.75	3129.5
1018.6819	2918.9931	3977.3	3093.15
1018.797	2920.1024	3943.9	3061.6
1018.9121	2921.211	3913.15	3033.05
1019.0271	2922.319	3886.4	3006.4
1019.1421	2923.4264	3888.5	3008.65
1019.2571	2924.5331	3862	2981
1019.372	2925.6391	3864.85	2983.3
1019.4869	2926.7445	3837.7	2957.25
1019.6017	2927.8493	3845.85	2965.5
1019.7165	2928.9534	3821.35	2941.5
1019.8313	2930.0569	3829.45	2947.9
1019.946	2931.1597	3821.45	2939.35
1020.0606	2932.2619	3803.5	2923.85
1020.1753	2933.3634	3798.15	2916.5
1020.2899	2934.4643	3798	2911.8
1020.4044	2935.5645	3784.1	2899.85
1020.5189	2936.6641	3737.85	2854.2
1020.6334	2937.763	3698.15	2819.65
1020.7478	2938.8613	3643.3	2760.45
1020.8622	2939.959	3586.9	2700.15
1020.9765	2941.056	3510.85	2634
1021.0908	2942.1523	3444.55	2564.45
1021.2051	2943.248	3353.2	2471.4
1021.3193	2944.3431	3248.2	2366.6
1021.4334	2945.4375	3154.65	2271.95
1021.5476	2946.5313	3050.3	2170.05
1021.6617	2947.6244	2951.9	2070.6
1021.7757	2948.7169	2842.85	1962.55
1021.8897	2949.8087	2754.8	1874.5
1022.0037	2950.8999	2663.4	1783.95
1022.1176	2951.9904	2591.5	1712.2
1022.2315	2953.0803	2509.65	1629.1
1022.3453	2954.1696	2443.75	1563.85
1022.4591	2955.2582	2395.25	1515.15
1022.5728	2956.3462	2338.25	1457.65
1022.6865	2957.4335	2308.05	1425.75
1022.8002	2958.5202	2276.45	1394.25
1022.9138	2959.6062	2243.55	1363.15
1023.0274	2960.6916	2223.15	1345
1023.141	2961.7764	2201.85	1318.9
1023.2545	2962.8605	2175.8	1294.35
1023.3679	2963.9439	2155.2	1274.55
1023.4813	2965.0267	2157.05	1274.55
1023.5947	2966.1089	2178.4	1276.55
1023.708	2967.1905	2151.2	1272.3
1023.8213	2968.2714	2139.7	1261.6
1023.9346	2969.3516	2132.5	1254.3
1024.0478	2970.4312	2143.5	1256.65
1024.1609	2971.5102	2130.2	1249.5
1024.274	2972.5885	2134.35	1255.45
1024.3871	2973.6662	2139.55	1252.8
1024.5002	2974.7432	2132.15	1254.45
1024.6132	2975.8196	2124.25	1244.7
1024.7261	2976.8954	2103.85	1228.1
1024.839	2977.9705	2094.85	1217.4
1024.9519	2979.045	2092.9	1212.7
1025.0647	2980.1188	2069.2	1191.3
1025.1775	2981.192	2052.6	1175.2
1025.2902	2982.2645	2026.05	1146.1
1025.4029	2983.3364	2004.75	1125.7
1025.5156	2984.4077	1973.05	1093.5
1025.6282	2985.4783	1949.8	1066.95
1025.7407	2986.5483	1916.1	1038.25
1025.8532	2987.6177	1884.7	1004.15
1025.9657	2988.6864	1847.5	968.6
1026.0782	2989.7545	1810.1	930.55
1026.1906	2990.8219	1771.4	893.75
1026.3029	2991.8887	1736.05	856.4
1026.4152	2992.9548	1707.5	827.8
1026.5275	2994.0204	1679.45	800.85
1026.6397	2995.0852	1652.3	775.25
1026.7519	2996.1495	1631.25	751.5
1026.864	2997.2131	1601.95	721.7
1026.9761	2998.276	1575.25	696
1027.0882	2999.3383	1558.75	678.7
1027.2002	3000.4	1541.2	662.65
1027.3122	3001.4611	1526.55	647.35
1027.4241	3002.5215	1512.5	632.6
1027.536	3003.5812	1490.55	610.35
1027.6478	3004.6404	1473.35	596.6
1027.7596	3005.6989	1477.15	595.55
1027.8714	3006.7567	1469.35	592.15
1027.9831	3007.8139	1489.55	580.2
1028.0947	3008.8705	1456	575.75
1028.2064	3009.9264	1451.15	570.35
1028.3179	3010.9818	1434.5	555.6
1028.4295	3012.0364	1424.6	544.2
1028.541	3013.0905	1424.05	544.25
1028.6524	3014.1439	1424.8	545.6
1028.7638	3015.1966	1424.4	548.1
1028.8752	3016.2487	1417.05	536.45
1028.9865	3017.3002	1422.3	538.95
1029.0978	3018.3511	1417.05	539.8
1029.209	3019.4013	1412.85	535.1
1029.3202	3020.4509	1412.5	533.55
1029.4314	3021.4998	1420.05	539.4
1029.5425	3022.5481	1421	544.15
1029.6535	3023.5958	1415.2	537.65
1029.7645	3024.6428	1414.6	534.55
1029.8755	3025.6892	1418.55	542.6
1029.9864	3026.735	1413.3	533
1030.0973	3027.7802	1420.1	539.8
1030.2082	3028.8247	1418.25	540.15
1030.319	3029.8685	1424.55	545.05
1030.4297	3030.9118	1432.7	551.15
1030.5404	3031.9544	1421.95	545.95
1030.6511	3032.9963	1430.95	552.05
1030.7617	3034.0376	1433.7	557.25
1030.8723	3035.0783	1441.55	560.6
1030.9829	3036.1184	1444.6	566.45
1031.0934	3037.1578	1446.3	569.45
1031.2038	3038.1966	1441.05	560.95
1031.3142	3039.2348	1447.2	569.1
1031.4246	3040.2723	1460.1	573.5
1031.5349	3041.3092	1441.75	565.05
1031.6452	3042.3455	1438	560.2
1031.7554	3043.3811	1436.85	558.7
1031.8656	3044.4161	1436.25	556.25
1031.9758	3045.4505	1431.8	555.9
1032.0859	3046.4842	1428.1	546.8
1032.1959	3047.5173	1412.7	536.95
1032.3059	3048.5498	1404.75	526.7
1032.4159	3049.5816	1413.2	536.05
1032.5258	3050.6128	1400.7	518.75
1032.6357	3051.6434	1389.7	509.6
1032.7455	3052.6734	1390.05	509.35
1032.8553	3053.7027	1387.05	508.65
1032.9651	3054.7314	1371.25	493.7
1033.0748	3055.7594	1371.7	493.75
1033.1845	3056.7868	1370.25	489.55
1033.2941	3057.8136	1351.2	474.45
1033.4037	3058.8398	1351.75	473.55
1033.5132	3059.8653	1350.55	475.35
1033.6227	3060.8902	1344	467.45
1033.7321	3061.9145	1337.95	460.35
1033.8415	3062.9381	1331.25	455.7
1033.9509	3063.9612	1339.85	446.55
1034.0602	3064.9835	1316.15	438.6
1034.1694	3066.0053	1318.3	438.4
1034.2787	3067.0264	1313.3	437.95
1034.3878	3068.0469	1303.1	424.4
1034.497	3069.0668	1295.65	416.4
1034.6061	3070.086	1288.5	412.9
1034.7151	3071.1046	1275.85	398.5
1034.8241	3072.1226	1268.35	389.6
1034.9331	3073.1399	1262.8	385.45
1035.042	3074.1567	1248.8	370.15
1035.1508	3075.1727	1248.85	368.8
1035.2597	3076.1882	1232.65	354.15
1035.3684	3077.203	1224.75	345.6
1035.4772	3078.2173	1219.85	340.55
1035.5859	3079.2308	1217.4	337.85
1035.6945	3080.2438	1203.2	324.8
1035.8031	3081.2561	1201.05	323.85
1035.9117	3082.2678	1187.05	308.95
1036.0202	3083.2789	1182.8	303.75
1036.1286	3084.2893	1177.7	300.65
1036.2371	3085.2991	1168.1	290.45
1036.3454	3086.3083	1167.2	284.1
1036.4538	3087.3169	1160.15	285.2
1036.562	3088.3248	1155.9	277
1036.6703	3089.3321	1148.1	269.95
1036.7785	3090.3388	1140.1	262.7
1036.8866	3091.3449	1136.05	257.4
1036.9948	3092.3503	1140.2	260.75
1037.1028	3093.3551	1132.35	256.85
1037.2108	3094.3593	1130.9	255.65
1037.3188	3095.3629	1126.35	247.8
1037.4267	3096.3658	1124.2	246.35
1037.5346	3097.3681	1118.1	237.15
1037.6425	3098.3698	1113.8	236.45
1037.7503	3099.3708	1119.45	235.2
1037.858	3100.3713	1110.9	231.85
1037.9657	3101.3711	1103.95	225.2
1038.0734	3102.3702	1220.5	224.95
1038.181	3103.3688	1102.6	223.95
1038.2886	3104.3667	1099.6	224.7
1038.3961	3105.364	1097.65	219.7
1038.5036	3106.3607	1092.25	211.95
1038.611	3107.3568	1091.15	212.95
1038.7184	3108.3522	1088.2	212.1
1038.8257	3109.347	1090.45	213
1038.933	3110.3412	1093.3	212.6
1039.0403	3111.3348	1083.8	207.8
1039.1475	3112.3277	1083.45	207.05
1039.2547	3113.32	1078.5	201.05
1039.3618	3114.3117	1077.5	200.25
1039.4689	3115.3028	1080.8	203.05
1039.5759	3116.2932	1073.85	196
1039.6829	3117.2831	1081.75	199.6
1039.7898	3118.2723	1073.15	195.45
1039.8967	3119.2608	1070.55	195.2
1040.0035	3120.2488	1071.15	193.7
1040.1103	3121.2361	1062.45	184
1040.2171	3122.2229	1066.8	190.15
1040.3238	3123.209	1066.65	187.4
1040.4305	3124.1944	1060.3	186.7
1040.5371	3125.1793	1062.4	181.65
1040.6437	3126.1635	1061.3	187.2
1040.7502	3127.1471	1060.75	184.85
1040.8567	3128.1301	1050.85	173.1
1040.9631	3129.1125	1054.1	179.55
1041.0695	3130.0942	1052.75	173.1
1041.1759	3131.0753	1064.55	179.5
1041.2822	3132.0558	1054.2	175.5
1041.3884	3133.0357	1053.05	174.3
1041.4946	3134.015	1052.7	175.45
1041.6008	3134.9936	1048.55	171.2
1041.7069	3135.9716	1068.3	171.05
1041.813	3136.949	1042.05	166.35
1041.919	3137.9258	1063.15	168.3
1042.025	3138.902	1054	171.95
1042.1309	3139.8775	1041.9	163.3
1042.2368	3140.8524	1033.85	158.8
1042.3427	3141.8267	1038.4	158.6
1042.4485	3142.8004	1036	158.9
1042.5542	3143.7735	1040.7	159.25
1042.6599	3144.7459	1037.75	160.4
1042.7656	3145.7178	1036.45	159.9
1042.8712	3146.689	1035.05	159.85
1042.9768	3147.6596	1035.2	156.75
1043.0823	3148.6295	1028.8	151.2
1043.1878	3149.5989	1029.1	151.95
1043.2932	3150.5676	1026.85	150.05
1043.3986	3151.5357	1024.6	148.1
1043.5039	3152.5032	1025.95	150.7
1043.6092	3153.4701	1023.5	147.65
1043.7145	3154.4364	1026	149.55
1043.8197	3155.402	1019.4	143.55
1043.9248	3156.367	1019.4	143.15
1044.03	3157.3315	1045.4	141.8
1044.135	3158.2952	1021.4	146.75
1044.24	3159.2584	1015.9	139.85
1044.345	3160.221	1019.3	142.45
1044.4499	3161.1829	1013.4	136.35
1044.5548	3162.1442	1016.3	139.7
1044.6596	3163.105	1014.2	138.45
1044.7644	3164.065	1015	138.55
1044.8692	3165.0245	1017.95	138.85
1044.9739	3165.9834	1009.75	137.05
1045.0785	3166.9416	1010.65	133
1045.1831	3167.8993	1009.55	133.25
1045.2877	3168.8563	1008.35	131.5
1045.3922	3169.8127	1007.7	132.95
1045.4966	3170.7684	1006.55	131.25
1045.6011	3171.7236	1007.9	131.1
1045.7054	3172.6782	1001.9	125.75
1045.8098	3173.6321	1003.6	127.35
1045.914	3174.5854	1005.75	128.25
1046.0183	3175.5381	1001.7	126.85
1046.1224	3176.4902	1004.5	129.75
1046.2266	3177.4417	1001.65	126.7
1046.3307	3178.3926	1000.1	124.2
1046.4347	3179.3428	996.8	124.55
1046.5387	3180.2924	994.25	119.35
1046.6427	3181.2415	996.05	118.7
1046.7466	3182.1899	998.8	122.1
1046.8504	3183.1377	996.6	121.9
1046.9542	3184.0848	997.9	119.7
1047.058	3185.0314	992.8	115.1
1047.1617	3185.9773	990.1	113.6
1047.2654	3186.9227	991.9	115.35
1047.369	3187.8674	992.5	117.25
1047.4726	3188.8115	995.1	115.35
1047.5761	3189.755	988.95	115.35
1047.6796	3190.6979	986.9	111.7
1047.783	3191.6402	986.3	110.7
1047.8864	3192.5818	988.9	116
1047.9898	3193.5229	997.05	113.75
1048.0931	3194.4633	986.1	111
1048.1963	3195.4031	987.3	112.75
1048.2995	3196.3423	983	106.05
1048.4027	3197.2809	989.1	113.35
1048.5058	3198.2189	986.55	108.3
1048.6089	3199.1563	999.15	108.7
1048.7119	3200.0931	982.95	110.9
1048.8148	3201.0292	981.1	106.35
1048.9178	3201.9648	982.4	107.7
1049.0206	3202.8997	981	103.75
1049.1235	3203.834	982.85	107.15
1049.2262	3204.7677	979.75	105.45
1049.329	3205.7008	980.3	103.95
1049.4317	3206.6333	978.25	105.2
1049.5343	3207.5652	980.5	103.15
1049.6369	3208.4964	979.7	104.65
1049.7394	3209.4271	974.15	99.4
1049.8419	3210.3571	976.05	102.25
1049.9444	3211.2865	976.95	101.95
1050.0468	3212.2154	976.9	101.05
1050.1491	3213.1436	977.75	99.4
1050.2514	3214.0712	979.8	101.65
1050.3537	3214.9982	973.9	98.45
1050.4559	3215.9246	974.6	96.4
1050.5581	3216.8503	970.3	96.3
1050.6602	3217.7755	971.4	96.25
1050.7623	3218.7001	970.05	96.85
1050.8643	3219.624	972.65	96.6
1050.9663	3220.5473	966.6	92.8
1051.0682	3221.4701	971.2	94.6
1051.1701	3222.3922	968.85	92.25
1051.2719	3223.3137	965.1	90.8
1051.3737	3224.2346	963.1	89.35
1051.4754	3225.1549	970.5	96.7
1051.5771	3226.0746	967.45	93.9
1051.6788	3226.9937	970.65	94.9
1051.7804	3227.9121	962.7	88.65
1051.8819	3228.83	964.35	90.35
1051.9834	3229.7473	967.2	90.7
1052.0849	3230.6639	964.95	90.75
1052.1863	3231.5799	964.4	91.3
1052.2876	3232.4954	963.15	87.4
1052.3889	3233.4102	962.6	90.7
1052.4902	3234.3244	966.8	92.1
1052.5914	3235.238	964.35	89.95
1052.6926	3236.151	970.85	82.5
1052.7937	3237.0634	959.7	85.4
1052.8948	3237.9752	960.45	86.05
1052.9958	3238.8864	961.4	87.35
1053.0968	3239.797	959.9	82.3
1053.1977	3240.7069	959.95	84.45
1053.2986	3241.6163	963.6	88.9
1053.3994	3242.5251	957.15	82.3
1053.5002	3243.4332	954.9	82.65
1053.6009	3244.3408	955.65	82.1
1053.7016	3245.2477	954.4	79.75
1053.8022	3246.154	954.8	81.95
1053.9028	3247.0598	955.35	78.9
1054.0034	3247.9649	953.35	78.95
1054.1039	3248.8694	951.15	74.85
1054.2043	3249.7733	953.05	79.5
1054.3047	3250.6766	952.05	78.45
1054.4051	3251.5793	955.35	77.85
1054.5054	3252.4814	950.5	77.65
1054.6056	3253.3829	948	74
1054.7058	3254.2838	949.5	76.45
1054.806	3255.1841	946	70.95
1054.9061	3256.0838	950.3	76.1
1055.0061	3256.9829	946.45	72.45
1055.1062	3257.8814	951.2	74.8
1055.2061	3258.7792	945.4	70.1
1055.306	3259.6765	943.65	72.35
1055.4059	3260.5731	942.35	68.65
1055.5057	3261.4692	941.7	66.95
1055.6055	3262.3647	941.15	66.6
1055.7052	3263.2595	938.45	64.75
1055.8049	3264.1538	940.1	66.6
1055.9045	3265.0474	938.65	64.8
1056.0041	3265.9404	937	63.75
1056.1036	3266.8329	932.15	59.55
1056.2031	3267.7247	945.2	63.55
1056.3025	3268.616	931.2	58.85
1056.4019	3269.5066	933.3	60
1056.5013	3270.3966	933.8	58.25
1056.6005	3271.286	925.45	51.7
