Software Version:	3.9.2.0
Unit SN:	10000200
Spectrometer SN:	6960
Date:	3/8/2024 11:23:02 AM
Data Line Index:	25
Spectral Points:	2048
Integration time (ms):	125
Averages:	20
Delay (ms):	30000
Sequence Number:	1
Processing:	dark subtract
Laser Power (mW):	300
Laser Current (mA):	822
Laser Diode Temp (C):	25
Laser Case Temp (C):	24.9
System Temp (C):	24.9
Spectrometer Temp (C):	22.7
CCD Temp (C):	0.001
Secondary Temp (C):	20.006
Heatsink Temp (C):	19.685
CCDPCB Temp (C):	33.483
SecondaryPCB Temp (C):	26.658

Wavelength	RamanShift	Raw Counts	Dark Subtracted
787.061	30.1047	416.45	4.6
787.2016	32.3739	414.65	7.2
787.3422	34.6426	416.5	8.8
787.4828	36.9109	417.7	4.05
787.6235	39.1787	422.7	8.1
787.7642	41.4461	425.8	7.5
787.9049	43.7131	434.15	12.15
788.0456	45.9796	436.05	10.1
788.1863	48.2456	442	15.1
788.3271	50.5112	446.1	11.65
788.4679	52.7764	449.35	14.35
788.6087	55.0411	452.1	10.75
788.7496	57.3054	458.2	11.2
788.8904	59.5692	462	15.25
789.0313	61.8326	466.05	15.75
789.1722	64.0955	470	17.6
789.3132	66.3579	477.8	20.55
789.4541	68.6199	484.85	25.25
789.5951	70.8815	495.1	30.3
789.7361	73.1426	516.95	47.6
789.8771	75.4032	555.7	83.85
790.0181	77.6634	641.1	165.1
790.1592	79.9231	834.95	355.6
790.3003	82.1824	1240.6	751.7
790.4414	84.4412	1909.65	1407.85
790.5825	86.6995	2764.35	2244.2
790.7237	88.9574	3596.8	3064.2
790.8648	91.2148	4129.8	3588
791.006	93.4717	4386.25	3838.85
791.1472	95.7282	4421.15	3868.55
791.2885	97.9842	4407.1	3854.1
791.4297	100.2398	4365.85	3809.2
791.571	102.4949	4305.3	3745.45
791.7123	104.7495	4270.35	3704.25
791.8536	107.0036	4212.85	3648.55
791.9949	109.2573	4133.1	3571.75
792.1363	111.5105	4038.5	3471.35
792.2777	113.7632	3938.55	3370.75
792.4191	116.0154	3846.7	3269.1
792.5605	118.2672	3724.25	3150.05
792.7019	120.5185	3601.25	3026.65
792.8434	122.7693	3497.65	2921.35
792.9849	125.0197	3387	2805.8
793.1264	127.2696	3298	2711.35
793.2679	129.519	3256	2670.15
793.4094	131.7679	3216	2625.5
793.551	134.0163	3177.15	2583.1
793.6926	136.2642	3174.9	2579
793.8342	138.5117	3172.35	2569.95
793.9758	140.7587	3148.25	2544.8
794.1175	143.0052	3096.25	2494.1
794.2591	145.2512	3045.8	2440.05
794.4008	147.4967	2966.5	2360.85
794.5425	149.7417	2932.65	2323.5
794.6842	151.9863	2885.25	2271.95
794.826	154.2304	2891.1	2276.1
794.9677	156.4739	2879.9	2257.9
795.1095	158.717	2887.75	2265.55
795.2513	160.9596	2925.3	2299.65
795.3931	163.2017	2957.3	2327.5
795.535	165.4433	2974.25	2341.25
795.6768	167.6844	2968.4	2333.55
795.8187	169.925	2951.85	2316.1
795.9606	172.1651	2880.2	2240.75
796.1025	174.4047	2823.05	2179.55
796.2445	176.6439	2774.8	2131.85
796.3864	178.8825	2752.85	2102.7
796.5284	181.1206	2730.55	2079.65
796.6704	183.3582	2708.1	2052.6
796.8124	185.5954	2705.15	2049.3
796.9544	187.832	2703.45	2042.7
797.0965	190.0681	2714.3	2049.4
797.2386	192.3037	2718.7	2049.45
797.3806	194.5388	2722.2	2051.5
797.5228	196.7734	2737.7	2065.75
797.6649	199.0075	2755.15	2084.5
797.807	201.2411	2774.8	2100.65
797.9492	203.4742	2805.9	2132.55
798.0914	205.7068	2821.35	2140.85
798.2336	207.9389	2858.05	2176.1
798.3758	210.1704	2868.15	2196.5
798.518	212.4015	2872.4	2209.6
798.6603	214.632	2874.7	2220.3
798.8025	216.862	2883.55	2225.85
798.9448	219.0915	2879.6	2220.25
799.0871	221.3205	2901.6	2240.2
799.2294	223.549	2918.95	2263.05
799.3718	225.777	2909.75	2245.05
799.5141	228.0044	2910.8	2241
799.6565	230.2314	2913.35	2245.2
799.7989	232.4578	2895.55	2223.95
799.9413	234.6837	2883.05	2203.45
800.0837	236.909	2871.2	2190.25
800.2262	239.1339	2878.05	2169.8
800.3687	241.3582	2854.65	2161.55
800.5111	243.582	2879.4	2156.1
800.6536	245.8053	2880.5	2171.55
800.7961	248.0281	2882.4	2176
800.9387	250.2503	2885.05	2176.65
801.0812	252.472	2894.45	2186.2
801.2238	254.6932	2894.55	2187.5
801.3664	256.9139	2911.6	2201.65
801.509	259.134	2915.75	2200
801.6516	261.3536	2942.25	2228.2
801.7942	263.5727	2988.25	2274.75
801.9369	265.7912	3038.5	2323.6
802.0795	268.0092	3105.75	2388.1
802.2222	270.2267	3170.75	2454.7
802.3649	272.4436	3241.4	2520.3
802.5076	274.6601	3287.15	2560
802.6504	276.8759	3301.5	2579.5
802.7931	279.0913	3325.15	2600.45
802.9359	281.3061	3339.2	2613.8
803.0787	283.5204	3377.95	2652.85
803.2215	285.7341	3397.2	2667.9
803.3643	287.9473	3425.65	2691.95
803.5071	290.16	3439.35	2705.65
803.6499	292.3721	3378.5	2651
803.7928	294.5837	3337.65	2609.05
803.9357	296.7947	3310.2	2579.7
804.0786	299.0052	3266.85	2535.25
804.2215	301.2152	3247.6	2513.95
804.3644	303.4246	3245.1	2513.95
804.5074	305.6334	3219.05	2489.8
804.6503	307.8418	3201.4	2464.75
804.7933	310.0495	3179.95	2446.3
804.9363	312.2568	3157.2	2419.25
805.0793	314.4635	3100.7	2360.4
805.2223	316.6696	3041.65	2300
805.3653	318.8752	2991.3	2242.2
805.5084	321.0802	2943.45	2203.35
805.6514	323.2847	2951.1	2206.45
805.7945	325.4887	2952.15	2206.45
805.9376	327.692	2970.55	2224.5
806.0807	329.8949	3023.25	2273.55
806.2238	332.0972	3062.1	2310.4
806.367	334.2989	3111.4	2356.45
806.5101	336.5001	3110.55	2355.8
806.6533	338.7007	3084.3	2329
806.7965	340.9008	3016.2	2258.9
806.9397	343.1003	2955.55	2196.3
807.0829	345.2992	2888.75	2131.45
807.2261	347.4976	2833.85	2070.7
807.3693	349.6955	2802.1	2039.25
807.5126	351.8927	2778.7	2012.35
807.6559	354.0895	2767.45	1991.55
807.7991	356.2856	2744.2	1975.9
807.9424	358.4812	2748.65	1981.7
808.0857	360.6763	2727.6	1957.25
808.2291	362.8707	2721.2	1950.3
808.3724	365.0646	2740.15	1965
808.5158	367.258	2738.65	1962.2
808.6591	369.4508	2744.75	1965.05
808.8025	371.643	2793.8	2016.5
808.9459	373.8346	2818.15	2039.55
809.0893	376.0257	2868.2	2085.4
809.2327	378.2162	2909.3	2130.45
809.3762	380.4062	2916	2134.6
809.5196	382.5956	2874.8	2095.5
809.6631	384.7844	2840.25	2066.65
809.8066	386.9726	2790.1	2015.15
809.9501	389.1603	2730.1	1959.35
810.0936	391.3474	2752.2	1945.9
810.2371	393.5339	2726.1	1949.15
810.3806	395.7199	2724.3	1950.3
810.5241	397.9052	2762.4	1984.95
810.6677	400.09	2813.6	2036.35
810.8113	402.2743	2863.3	2082.9
810.9548	404.4579	2915.7	2135.65
811.0984	406.641	2958.8	2178.9
811.2421	408.8235	3012	2231.05
811.3857	411.0054	3062.8	2277.4
811.5293	413.1868	3122.6	2331.65
811.673	415.3675	3185.45	2395.15
811.8166	417.5477	3187.85	2397.35
811.9603	419.7273	3112.85	2319.3
812.104	421.9064	3039.5	2237.9
812.2477	424.0848	2963.2	2165.3
812.3914	426.2627	2886.35	2090.6
812.5351	428.4399	2813.9	2015.05
812.6788	430.6166	2745.1	1944.3
812.8226	432.7928	2703.6	1903.45
812.9663	434.9683	2650.55	1848.4
813.1101	437.1432	2619.25	1817.6
813.2539	439.3176	2603.85	1805.8
813.3977	441.4914	2566.85	1767.55
813.5415	443.6645	2572.45	1772.45
813.6853	445.8371	2565.3	1763.85
813.8291	448.0091	2566.9	1764.1
813.973	450.1806	2561.9	1757.65
814.1168	452.3514	2561.4	1756.1
814.2607	454.5216	2571.05	1761
814.4046	456.6913	2559.75	1753.7
814.5485	458.8603	2548.8	1742.4
814.6924	461.0288	2568.75	1766.45
814.8363	463.1967	2562.95	1759
814.9802	465.3639	2568.65	1760.45
815.1241	467.5306	2567.65	1759.8
815.2681	469.6967	2552.65	1747.45
815.412	471.8622	2541.75	1736.45
815.556	474.0271	2525.05	1718.1
815.7	476.1914	2531.2	1720.9
815.844	478.3551	2533.15	1721.7
815.988	480.5182	2530.65	1720.55
816.132	482.6807	2526.4	1717.8
816.276	484.8426	2549.9	1744.3
816.4201	487.0039	2602.95	1792.65
816.5641	489.1647	2671.7	1858.9
816.7082	491.3248	2719.1	1905.45
816.8522	493.4843	2738.3	1926.9
816.9963	495.6432	2720.95	1909.75
817.1404	497.8015	2694.8	1876.5
817.2845	499.9592	2634.95	1818.85
817.4286	502.1163	2583.4	1761.8
817.5727	504.2728	2525.4	1707.15
817.7168	506.4287	2501.95	1687.15
817.861	508.5839	2467.1	1650.15
818.0051	510.7386	2473.45	1657.65
818.1493	512.8927	2487.85	1659
818.2935	515.0461	2478.5	1655.85
818.4377	517.199	2491.3	1670.45
818.5818	519.3512	2548.75	1725.65
818.726	521.5029	2630.45	1802.65
818.8703	523.6539	2708.05	1884.35
819.0145	525.8043	2712.85	1887.45
819.1587	527.9541	2652.95	1824.25
819.303	530.1033	2569.55	1741.9
819.4472	532.2519	2516	1693
819.5915	534.3999	2472.35	1643.9
819.7357	536.5472	2468.1	1640.1
819.88	538.694	2468.55	1642
820.0243	540.8401	2482.05	1654.9
820.1686	542.9856	2510.05	1679.5
820.3129	545.1305	2526.8	1693.75
820.4572	547.2748	2541.2	1706.95
820.6016	549.4185	2551.4	1719.1
820.7459	551.5615	2548.1	1716.75
820.8902	553.704	2580.8	1751.2
821.0346	555.8458	2582	1753.25
821.1789	557.987	2618.15	1790.55
821.3233	560.1276	2676.1	1846.05
821.4677	562.2675	2721.8	1888.4
821.6121	564.4069	2796.15	1964.25
821.7565	566.5456	2871.9	2039.7
821.9009	568.6837	2846.15	2013.5
822.0453	570.8212	2742.7	1912.5
822.1897	572.958	2640.2	1806.85
822.3342	575.0942	2555.05	1722.65
822.4786	577.2299	2524.1	1691.2
822.6231	579.3648	2491.35	1660.95
822.7675	581.4992	2454.1	1625.5
822.912	583.6329	2469.6	1639.05
823.0565	585.766	2510.8	1680.65
823.201	587.8985	2578.95	1750.95
823.3454	590.0304	2641.7	1796.05
823.4899	592.1616	2670.2	1829.9
823.6345	594.2922	2679.5	1840.35
823.779	596.4222	2635.8	1797.3
823.9235	598.5515	2572.25	1731.35
824.068	600.6802	2488.85	1648.45
824.2126	602.8083	2443.9	1604.8
824.3571	604.9358	2407.15	1566.15
824.5017	607.0626	2404.9	1563.65
824.6462	609.1888	2431.95	1588.6
824.7908	611.3144	2449.05	1605
824.9354	613.4393	2501.15	1656
825.08	615.5636	2560.1	1714.7
825.2246	617.6873	2625.55	1781.05
825.3692	619.8103	2660.7	1812.8
825.5138	621.9327	2658.3	1812
825.6584	624.0544	2618.6	1772.4
825.803	626.1756	2531.35	1686.2
825.9477	628.2961	2487.35	1642.15
826.0923	630.4159	2449.45	1604.45
826.237	632.5351	2445.75	1597.75
826.3816	634.6537	2429.85	1580.45
826.5263	636.7716	2420.1	1569.3
826.6709	638.8889	2417.35	1564.7
826.8156	641.0056	2420.4	1571.9
826.9603	643.1216	2430.15	1579.65
827.105	645.237	2441.2	1589.8
827.2497	647.3518	2419.95	1568.85
827.3944	649.4659	2390.95	1542.8
827.5391	651.5793	2361.5	1515.2
827.6838	653.6922	2339.05	1490.75
827.8285	655.8043	2317.75	1468.45
827.9733	657.9159	2309.35	1457.6
828.118	660.0268	2304.5	1451.8
828.2627	662.137	2299.55	1443.85
828.4075	664.2466	2301.15	1443.45
828.5522	666.3556	2306.05	1452.95
828.697	668.4639	2292	1434.3
828.8418	670.5716	2292.45	1444.35
828.9865	672.6786	2275.6	1421.7
829.1313	674.785	2270	1411.25
829.2761	676.8907	2250.55	1396.25
829.4209	678.9958	2249.8	1399.15
829.5657	681.1002	2254.55	1397.7
829.7105	683.204	2262.95	1402
829.8553	685.3072	2277.95	1421.25
830.0001	687.4097	2259.05	1401.45
830.1449	689.5115	2262.9	1404.7
830.2898	691.6127	2245.2	1391.95
830.4346	693.7132	2248.85	1392.65
830.5794	695.8131	2250.2	1386.9
830.7243	697.9123	2266.4	1408.15
830.8691	700.0109	2261.15	1399.9
831.014	702.1089	2271.8	1412.1
831.1588	704.2061	2280.45	1421.2
831.3037	706.3028	2308.75	1447.5
831.4486	708.3987	2350.1	1487.05
831.5935	710.4941	2363.05	1505.45
831.7383	712.5887	2368.9	1506.6
831.8832	714.6827	2357.1	1492.55
832.0281	716.7761	2344.45	1482.05
832.173	718.8688	2348.15	1484.8
832.3179	720.9608	2351.8	1485.75
832.4628	723.0522	2360.7	1491.65
832.6077	725.1429	2380.8	1517.5
832.7527	727.233	2420.8	1556.5
832.8976	729.3224	2490	1625.7
833.0425	731.4112	2568.1	1704.75
833.1874	733.4993	2575.4	1708.35
833.3324	735.5867	2523.45	1658.65
833.4773	737.6735	2438.5	1571.85
833.6222	739.7596	2365	1497.6
833.7672	741.845	2312.7	1448.85
833.9122	743.9298	2319.75	1451.4
834.0571	746.014	2316.25	1451.65
834.2021	748.0974	2320.45	1454.95
834.347	750.1802	2333.3	1464.6
834.492	752.2624	2310.95	1444.35
834.637	754.3439	2297.85	1430.65
834.782	756.4247	2298.2	1417.75
834.9269	758.5048	2304.15	1436.1
835.0719	760.5843	2318.95	1451.9
835.2169	762.6631	2368.45	1498.45
835.3619	764.7413	2423.9	1555.15
835.5069	766.8188	2536.05	1665.45
835.6519	768.8956	2626.55	1757.2
835.7969	770.9718	2713.1	1842.5
835.9419	773.0473	2681.05	1813.15
836.0869	775.1221	2642.85	1774
836.232	777.1962	2625.8	1753.5
836.377	779.2697	2692.8	1820.75
836.522	781.3426	2827.25	1939.7
836.667	783.4147	2915.55	2042.9
836.8121	785.4862	2912.7	2044.95
836.9571	787.557	2810.5	1939.95
837.1021	789.6271	2649.55	1776.3
837.2472	791.6966	2490.25	1617.55
837.3922	793.7654	2361.3	1487.9
837.5373	795.8335	2294.7	1422.6
837.6823	797.901	2254.15	1382
837.8274	799.9678	2240.15	1365.45
837.9724	802.0339	2249	1378
838.1175	804.0993	2259.45	1375.45
838.2626	806.1641	2240.4	1369.75
838.4076	808.2282	2224.45	1351.6
838.5527	810.2916	2205.25	1331
838.6978	812.3544	2181.9	1312.25
838.8428	814.4164	2169.2	1295.55
838.9879	816.4778	2180.8	1306.95
839.133	818.5385	2194.1	1318.95
839.2781	820.5986	2224.1	1347.65
839.4232	822.658	2292.85	1419
839.5682	824.7166	2371.25	1498.1
839.7133	826.7747	2469.65	1594.85
839.8584	828.832	2573.1	1696.8
840.0035	830.8886	2643.95	1765.75
840.1486	832.9446	2675.25	1798.15
840.2937	834.9999	2632.35	1756.35
840.4388	837.0545	2557.65	1677.4
840.5839	839.1085	2446.45	1568.6
840.729	841.1618	2357.3	1478.4
840.8741	843.2143	2282.75	1408.9
841.0192	845.2662	2256.45	1378.8
841.1643	847.3175	2227.9	1351.35
841.3095	849.368	2205.75	1329.5
841.4546	851.4179	2204.55	1327.75
841.5997	853.467	2204.9	1328.5
841.7448	855.5155	2224.6	1344.15
841.8899	857.5633	2215.85	1338.1
842.0351	859.6105	2206.4	1327.7
842.1802	861.6569	2194.7	1317.15
842.3253	863.7027	2187.4	1309.45
842.4704	865.7478	2161.25	1284.05
842.6156	867.7922	2149.1	1268.6
842.7607	869.8359	2147.85	1269.3
842.9058	871.8789	2134.4	1255
843.0509	873.9212	2159.25	1247.75
843.1961	875.9629	2144.95	1263.15
843.3412	878.0039	2160.75	1281.6
843.4863	880.0441	2168.3	1293.4
843.6315	882.0837	2179.5	1297.8
843.7766	884.1226	2216.6	1337.1
843.9218	886.1609	2264.2	1385.7
844.0669	888.1984	2342.2	1463.65
844.212	890.2352	2396.45	1516.9
844.3572	892.2714	2397.25	1511.9
844.5023	894.3069	2371.75	1491.1
844.6475	896.3416	2309.55	1425.75
844.7926	898.3757	2244.3	1361.8
844.9377	900.4091	2221.7	1340.45
845.0829	902.4418	2222.6	1336.55
845.228	904.4739	2256.65	1371.35
845.3732	906.5052	2263.1	1379.85
845.5183	908.5358	2270.35	1387.95
845.6635	910.5658	2248.95	1363.6
845.8086	912.595	2208.4	1324.45
845.9538	914.6236	2156.2	1273.2
846.0989	916.6515	2119.35	1235
846.2441	918.6786	2096.65	1210.3
846.3892	920.7051	2081.85	1195.4
846.5344	922.7309	2081.3	1198.8
846.6795	924.756	2095.5	1211.35
846.8246	926.7804	2105	1218.4
846.9698	928.8041	2106.75	1221.15
847.1149	930.8272	2128.2	1244.85
847.2601	932.8495	2134.7	1251.4
847.4052	934.8711	2149.85	1262.85
847.5504	936.892	2151.35	1266.7
847.6955	938.9123	2178.15	1291.3
847.8407	940.9318	2216.9	1334.4
847.9858	942.9506	2235.05	1348.6
848.131	944.9688	2220.15	1334.3
848.2761	946.9862	2192.65	1309.85
848.4213	949.003	2143.7	1258.2
848.5664	951.019	2120.55	1236
848.7115	953.0344	2113.1	1225.6
848.8567	955.0491	2080.9	1195.75
849.0018	957.063	2071.25	1183.05
849.147	959.0763	2073.75	1188.65
849.2921	961.0888	2065	1180
849.4373	963.1007	2067.8	1181.4
849.5824	965.1119	2060.45	1176.5
849.7275	967.1223	2041.2	1160.9
849.8727	969.1321	2033.3	1151.55
850.0178	971.1412	2029.6	1146.6
850.1629	973.1495	2033.9	1147.5
850.3081	975.1572	2061.6	1143
850.4532	977.1641	2034.3	1149.15
850.5983	979.1704	2034.35	1147.8
850.7435	981.1759	2024.05	1131.85
850.8886	983.1808	2019.75	1133.2
851.0337	985.1849	2022.8	1125.7
851.1788	987.1884	2010.05	1118.95
851.324	989.1911	2018.65	1127.65
851.4691	991.1932	2027.15	1140.05
851.6142	993.1945	2025.45	1138.95
851.7593	995.1951	2030.75	1140.95
851.9045	997.1951	2020.65	1129.35
852.0496	999.1943	2022.25	1135.1
852.1947	1001.1928	2020.55	1133
852.3398	1003.1906	2026.35	1140.8
852.4849	1005.1877	2061.25	1173.15
852.63	1007.1841	2079	1192.55
852.7751	1009.1798	2105.55	1218.9
852.9202	1011.1748	2091.6	1206.6
853.0653	1013.1691	2071.4	1181.4
853.2104	1015.1627	2019.05	1128.75
853.3555	1017.1556	1989.45	1103.7
853.5006	1019.1477	1970.95	1083.4
853.6457	1021.1392	1941.1	1053.95
853.7908	1023.1299	1939.85	1054.75
853.9359	1025.12	1937.1	1051.05
854.081	1027.1093	1946.65	1068.1
854.2261	1029.0979	1963.1	1086.1
854.3712	1031.0859	1980.55	1098.55
854.5163	1033.0731	2000.2	1113.1
854.6613	1035.0596	2013.6	1127.25
854.8064	1037.0454	1997.5	1110.65
854.9515	1039.0304	1985.25	1098.9
855.0965	1041.0148	1958.2	1068.25
855.2416	1042.9985	1934.9	1043.85
855.3867	1044.9814	1916.65	1030.35
855.5317	1046.9636	1910.3	1020.6
855.6768	1048.9452	1921.7	1034.4
855.8219	1050.926	1945.1	1058.9
855.9669	1052.9061	1959.55	1073.45
856.112	1054.8855	1967.8	1080.1
856.257	1056.8642	1970.75	1083.95
856.4021	1058.8421	1973.7	1079
856.5471	1060.8194	1967.75	1076.25
856.6921	1062.7959	1968.3	1077.1
856.8372	1064.7717	1953.1	1062.75
856.9822	1066.7469	1952.35	1062.3
857.1272	1068.7213	1955.8	1062.85
857.2723	1070.695	1981.4	1094.45
857.4173	1072.6679	2005.4	1116.95
857.5623	1074.6402	2037.8	1147.6
857.7073	1076.6117	2046	1150.6
857.8523	1078.5826	2030.2	1138.7
857.9973	1080.5527	1985.8	1095.45
858.1423	1082.5221	1936.25	1047.5
858.2873	1084.4908	1900.05	1011
858.4323	1086.4587	1889.3	996.9
858.5773	1088.426	1880.45	987.95
858.7223	1090.3925	1871.8	976.55
858.8673	1092.3584	1866.55	976.85
859.0123	1094.3235	1881.85	993.55
859.1573	1096.2879	1901	1009.7
859.3022	1098.2515	1927.1	1036.2
859.4472	1100.2145	1974.7	1085.7
859.5922	1102.1767	2005.35	1113.35
859.7371	1104.1382	2063.35	1173.85
859.8821	1106.099	2106.85	1213.55
860.027	1108.0591	2174.85	1284.15
860.172	1110.0185	2220.9	1327.1
860.3169	1111.9771	2274.15	1383.15
860.4619	1113.9351	2324.35	1434.2
860.6068	1115.8923	2403.75	1512.2
860.7517	1117.8488	2454.3	1559.7
860.8967	1119.8045	2400.95	1511.2
861.0416	1121.7596	2290.25	1397.4
861.1865	1123.7139	2160.1	1269.7
861.3314	1125.6675	2084.85	1194.8
861.4763	1127.6204	2068.3	1177.35
861.6212	1129.5726	2092.35	1198.8
861.7661	1131.524	2100	1211.3
861.911	1133.4748	2066.65	1175.05
862.0559	1135.4248	1978.4	1083.8
862.2008	1137.3741	1923.4	1033.4
862.3457	1139.3226	1884.65	990.85
862.4905	1141.2705	1881.8	989.45
862.6354	1143.2176	1902.7	1006.25
862.7803	1145.164	1911.7	1016.75
862.9251	1147.1097	1906.45	1018.85
863.07	1149.0546	1895.85	1002.7
863.2148	1150.9989	1864.6	973.5
863.3597	1152.9424	1827.1	934.5
863.5045	1154.8852	1820.45	928.85
863.6493	1156.8272	1808.25	916.05
863.7942	1158.7686	1815.95	917.05
863.939	1160.7092	1808.3	914.5
864.0838	1162.6491	1810.4	916.35
864.2286	1164.5883	1821.75	928.3
864.3734	1166.5267	1838.55	943.35
864.5182	1168.4644	1860.85	967.75
864.663	1170.4014	1900.25	1005.45
864.8078	1172.3377	1949.8	1057.65
864.9526	1174.2732	2005.8	1112.05
865.0974	1176.2081	2110.2	1219.35
865.2421	1178.1421	2253.5	1356.5
865.3869	1180.0755	2414.25	1522.8
865.5317	1182.0082	2499.9	1606.65
865.6764	1183.9401	2485.5	1594.3
865.8212	1185.8713	2377.55	1487.1
865.9659	1187.8017	2223.2	1331.9
866.1106	1189.7315	2086.65	1199.45
866.2554	1191.6605	2005.8	1090.4
866.4001	1193.5888	1929.55	1041.35
866.5448	1195.5163	1886.7	996.55
866.6895	1197.4432	1863.15	971.9
866.8342	1199.3693	1838.75	948
866.9789	1201.2947	1826	932.2
867.1236	1203.2193	1811	918.65
867.2683	1205.1432	1807.05	913.3
867.413	1207.0664	1817.05	921.95
867.5576	1208.9889	1809.3	914.55
867.7023	1210.9106	1804.45	912.4
867.847	1212.8316	1800.3	909.25
867.9916	1214.7519	1839.05	938.65
868.1363	1216.6715	1828.1	936.45
868.2809	1218.5903	1852.45	960.45
868.4255	1220.5084	1859.65	965.95
868.5701	1222.4257	1878.45	986
868.7148	1224.3424	1886	995.4
868.8594	1226.2583	1922.35	1026.5
869.004	1228.1735	1956.4	1060.65
869.1486	1230.0879	1994.45	1101.55
869.2932	1232.0016	2041.2	1148.7
869.4377	1233.9146	2077.9	1181.55
869.5823	1235.8269	2113.95	1222.05
869.7269	1237.7384	2106.35	1211.15
869.8715	1239.6492	2097.6	1208.05
870.016	1241.5592	2129.1	1237.25
870.1606	1243.4686	2175.7	1286.8
870.3051	1245.3772	2259.6	1365.85
870.4496	1247.285	2362.85	1469.05
870.5941	1249.1922	2461.5	1568.55
870.7387	1251.0986	2555.95	1662.85
870.8832	1253.0042	2626.05	1731.8
871.0277	1254.9092	2720.7	1829.85
871.1722	1256.8134	2838.7	1947.5
871.3167	1258.7169	2949.3	2056.6
871.4611	1260.6196	3018.4	2129.1
871.6056	1262.5216	3066.15	2171.95
871.7501	1264.4229	3037.25	2146.9
871.8945	1266.3234	3003.8	2111.15
872.039	1268.2232	2937.05	2043.55
872.1834	1270.1223	2862.6	1967
872.3278	1272.0207	2820.4	1926.1
872.4723	1273.9183	2813.65	1914.6
872.6167	1275.8151	2798.9	1903.55
872.7611	1277.7113	2842.9	1949.6
872.9055	1279.6067	2940.3	2048.25
873.0499	1281.5014	3106.5	2212.45
873.1943	1283.3953	3333.15	2439.25
873.3386	1285.2885	3565.25	2672.6
873.483	1287.181	3758.25	2864.1
873.6274	1289.0727	3832.9	2941.25
873.7717	1290.9637	3782.4	2888.2
873.9161	1292.854	3646.35	2754.2
874.0604	1294.7435	3484.15	2589.4
874.2047	1296.6323	3334.95	2443.05
874.349	1298.5204	3200.75	2302.9
874.4933	1300.4077	3101.3	2208.2
874.6376	1302.2943	3038.6	2146.3
874.7819	1304.1802	3001.55	2108.8
874.9262	1306.0653	2935.35	2039.5
875.0705	1307.9497	2915.3	2023.45
875.2147	1309.8333	2872.5	1976.3
875.359	1311.7162	2825.85	1930.9
875.5032	1313.5984	2816.35	1918.8
875.6475	1315.4798	2793.75	1880.85
875.7917	1317.3605	2781.95	1883
875.9359	1319.2405	2786.7	1891.35
876.0801	1321.1197	2777.4	1882.7
876.2243	1322.9982	2729.05	1829.25
876.3685	1324.876	2654.85	1760.1
876.5127	1326.753	2543.7	1651.25
876.6569	1328.6293	2430.35	1533.5
876.801	1330.5048	2325.85	1428.6
876.9452	1332.3796	2228.9	1333.55
877.0893	1334.2537	2161.45	1242.05
877.2335	1336.127	2096.75	1203.45
877.3776	1337.9996	2052.9	1156.05
877.5217	1339.8714	2030.45	1136.7
877.6658	1341.7426	2041.1	1101.6
877.8099	1343.6129	1990.45	1093.4
877.954	1345.4826	1961.15	1068.3
878.0981	1347.3515	1948.1	1049.6
878.2422	1349.2196	1931.55	1036.55
878.3862	1351.087	1918.85	1025.2
878.5303	1352.9537	1919.35	1023.3
878.6743	1354.8197	1918.2	1025.3
878.8184	1356.6849	1927.7	1032.3
878.9624	1358.5493	1947.7	1051
879.1064	1360.4131	1973.15	1079.85
879.2504	1362.276	2010.75	1118.8
879.3944	1364.1383	2062.65	1167.35
879.5384	1365.9998	2090	1190.6
879.6823	1367.8606	2065.8	1171.05
879.8263	1369.7206	2067.8	1171.55
879.9702	1371.5799	2061.95	1163.25
880.1142	1373.4384	2050.7	1156.75
880.2581	1375.2962	2025.25	1129.35
880.402	1377.1533	1969.95	1075.5
880.5459	1379.0096	1903.6	1009.45
880.6898	1380.8652	1863.45	969.6
880.8337	1382.7201	1828.15	936.95
880.9776	1384.5742	1797.55	902
881.1215	1386.4275	1765.35	868.4
881.2653	1388.2802	1738.9	843.9
881.4092	1390.132	1737.2	842.35
881.553	1391.9832	1725.7	832
881.6968	1393.8336	1709.9	815.05
881.8406	1395.6832	1708.15	810.9
881.9844	1397.5322	1704	809.2
882.1282	1399.3803	1696.4	797.2
882.272	1401.2278	1674.3	778.75
882.4158	1403.0745	1669.6	774.8
882.5595	1404.9204	1648.4	752.3
882.7033	1406.7656	1647	754.3
882.847	1408.6101	1645.55	747.95
882.9908	1410.4538	1643.9	750.45
883.1345	1412.2968	1636.85	740.75
883.2782	1414.139	1650.55	759.65
883.4219	1415.9805	1645.8	751.75
883.5656	1417.8213	1668.65	767.55
883.7092	1419.6613	1687.45	793.25
883.8529	1421.5006	1725.45	831
883.9965	1423.3391	1760.95	866.45
884.1402	1425.1769	1828.9	934
884.2838	1427.0139	1919.75	1025.6
884.4274	1428.8502	2026.7	1131.8
884.571	1430.6858	2098.75	1203.4
884.7146	1432.5206	2121.2	1225.85
884.8582	1434.3547	2127.65	1233
885.0018	1436.188	2103.35	1210.35
885.1453	1438.0206	2084.3	1189.55
885.2889	1439.8524	2072.15	1176.55
885.4324	1441.6835	2077.55	1184.45
885.5759	1443.5139	2073.45	1175.65
885.7194	1445.3435	2070.75	1176.35
885.8629	1447.1724	2070.3	1176.8
886.0064	1449.0005	2076.35	1183.1
886.1499	1450.8279	2059.5	1163.35
886.2933	1452.6545	2062.4	1168.75
886.4368	1454.4804	2052.65	1159.1
886.5802	1456.3056	2057.3	1157.55
886.7237	1458.13	2015.05	1121
886.8671	1459.9536	1993.1	1097.8
887.0105	1461.7766	1948	1053.15
887.1539	1463.5987	1908	1010.75
887.2972	1465.4202	1855.95	963.7
887.4406	1467.2409	1817.45	923.1
887.584	1469.0608	1770.85	876.05
887.7273	1470.88	1737.35	843.8
887.8706	1472.6984	1707.55	812.65
888.0139	1474.5161	1680.75	782.55
888.1572	1476.3331	1652.55	759.6
888.3005	1478.1493	1651.35	756.55
888.4438	1479.9648	1643.75	749.7
888.5871	1481.7795	1635.95	741.65
888.7303	1483.5935	1636.5	741
888.8736	1485.4067	1635.15	741.1
889.0168	1487.2192	1645.8	751.1
889.16	1489.031	1647.8	751.1
889.3032	1490.842	1637.1	743.3
889.4464	1492.6522	1644.65	749.45
889.5896	1494.4618	1637.35	742.6
889.7327	1496.2705	1631.65	737.45
889.8759	1498.0785	1627.75	731.8
890.019	1499.8858	1623.15	728.55
890.1622	1501.6924	1615.2	723.15
890.3053	1503.4981	1609.85	715.65
890.4484	1505.3032	1603.3	708.25
890.5914	1507.1075	1590.5	695.1
890.7345	1508.911	1587.2	691.05
890.8776	1510.7138	1574.05	677.85
891.0206	1512.5159	1575.15	680.5
891.1637	1514.3172	1557.65	661.2
891.3067	1516.1178	1549.85	657.35
891.4497	1517.9176	1550.45	652.3
891.5927	1519.7166	1543.65	651.85
891.7357	1521.515	1542	643.3
891.8786	1523.3126	1527.95	634.5
892.0216	1525.1094	1523.05	626.15
892.1645	1526.9055	1518.3	625.8
892.3074	1528.7008	1518.5	624.15
892.4503	1530.4954	1509.85	608.3
892.5932	1532.2893	1508.5	615.65
892.7361	1534.0824	1507.6	608.7
892.879	1535.8747	1501.3	607.5
893.0218	1537.6663	1501.85	606.35
893.1647	1539.4572	1495.35	600.7
893.3075	1541.2473	1509.55	615.6
893.4503	1543.0367	1496.75	604.7
893.5931	1544.8253	1504.85	607.8
893.7359	1546.6132	1507.9	611.25
893.8787	1548.4003	1514.7	612
894.0214	1550.1867	1521.5	621.9
894.1642	1551.9723	1523.55	625.05
894.3069	1553.7572	1548.2	654.2
894.4496	1555.5414	1572.35	678.25
894.5923	1557.3247	1596.6	706.85
894.735	1559.1074	1623.8	732.4
894.8777	1560.8893	1683.7	793.1
895.0204	1562.6705	1733.4	843.2
895.163	1564.4509	1764.65	874
895.3056	1566.2305	1768.45	878
895.4482	1568.0094	1786.6	896.4
895.5908	1569.7876	1774.35	883.7
895.7334	1571.565	1773.2	880.9
895.876	1573.3417	1776.05	884.85
896.0186	1575.1176	1786.6	896.25
896.1611	1576.8928	1798.6	907.2
896.3036	1578.6672	1816.5	926.15
896.4461	1580.4409	1858.15	971.1
896.5886	1582.2138	1902.75	1010.05
896.7311	1583.986	1946.65	1056.4
896.8736	1585.7575	1998	1107.6
897.0161	1587.5282	2031.15	1142.4
897.1585	1589.2981	2068	1180.7
897.3009	1591.0673	2082.4	1191.95
897.4433	1592.8358	2108.5	1220.85
897.5857	1594.6035	2098.1	1204.75
897.7281	1596.3704	2081.1	1189.95
897.8705	1598.1366	2053.35	1163.1
898.0128	1599.9021	2025.35	1137.15
898.1551	1601.6668	1992	1100.2
898.2975	1603.4308	1979.8	1086.95
898.4398	1605.194	1984.45	1086.95
898.5821	1606.9564	1995.35	1107.85
898.7243	1608.7182	2072.3	1182.35
898.8666	1610.4791	2164.75	1280.3
899.0088	1612.2394	2287.1	1404
899.1511	1613.9988	2405.2	1516.7
899.2933	1615.7576	2511.9	1626.2
899.4355	1617.5156	2564	1671.6
899.5776	1619.2728	2531.05	1638.6
899.7198	1621.0293	2434.85	1545.8
899.862	1622.785	2294.2	1404.7
900.0041	1624.54	2152.45	1261.1
900.1462	1626.2942	2012.75	1122.75
900.2883	1628.0477	1881.95	989.05
900.4304	1629.8005	1785.45	894.6
900.5725	1631.5525	1696.2	808.95
900.7145	1633.3037	1633.05	744.4
900.8566	1635.0542	1581	690.7
900.9986	1636.804	1542.25	652.65
901.1406	1638.553	1579	632.45
901.2826	1640.3013	1491.5	604.05
901.4245	1642.0488	1464.95	574.9
901.5665	1643.7955	1446.3	558.65
901.7085	1645.5416	1430.6	540.25
901.8504	1647.2868	1421.55	535.8
901.9923	1649.0313	1416.2	526.75
902.1342	1650.7751	1409.85	516.75
902.2761	1652.5181	1402.6	516
902.4179	1654.2604	1403.85	514.9
902.5598	1656.0019	1410.9	525.85
902.7016	1657.7427	1419.9	532.25
902.8434	1659.4828	1445.45	557.65
902.9852	1661.222	1479.4	589.2
903.127	1662.9606	1520.4	631.45
903.2687	1664.6984	1566.35	676
903.4105	1666.4354	1580.75	689.1
903.5522	1668.1717	1557.95	666.9
903.6939	1669.9072	1515	623.9
903.8356	1671.642	1470.7	577
903.9773	1673.3761	1414.75	525.75
904.119	1675.1094	1372.6	485.1
904.2606	1676.8419	1339.1	448.95
904.4022	1678.5737	1331.05	442.95
904.5439	1680.3048	1317.55	426.65
904.6855	1682.0351	1304.35	414.95
904.827	1683.7646	1300.05	405.5
904.9686	1685.4934	1292.65	403.05
905.1101	1687.2215	1282.9	396.6
905.2517	1688.9488	1277.8	388.15
905.3932	1690.6754	1272.65	383.5
905.5347	1692.4012	1275.6	385.95
905.6761	1694.1263	1266.65	378.9
905.8176	1695.8506	1272.25	382.05
905.9591	1697.5742	1262.85	374.25
906.1005	1699.297	1255.55	366.5
906.2419	1701.0191	1259.05	368.6
906.3833	1702.7404	1253.45	367
906.5246	1704.461	1247.95	358.5
906.666	1706.1808	1251.5	363.35
906.8073	1707.8999	1245.7	356.45
906.9487	1709.6182	1247.4	359.75
907.09	1711.3358	1240.95	351.5
907.2313	1713.0527	1233.35	348.4
907.3725	1714.7688	1249.05	355.5
907.5138	1716.4841	1237.15	348.4
907.655	1718.1987	1236.95	344.7
907.7962	1719.9126	1230.15	339.85
907.9374	1721.6257	1230.8	341.8
908.0786	1723.338	1229.5	342.05
908.2198	1725.0496	1227.85	340.4
908.3609	1726.7605	1227.55	338.25
908.502	1728.4706	1222.1	332.75
908.6431	1730.18	1219.9	332.45
908.7842	1731.8886	1221.15	335.05
908.9253	1733.5964	1236.4	328.55
909.0664	1735.3036	1226.15	338
909.2074	1737.0099	1218.95	332.6
909.3484	1738.7156	1216.3	331
909.4894	1740.4204	1214.15	324.1
909.6304	1742.1246	1217.55	326.95
909.7714	1743.8279	1214.35	325.95
909.9123	1745.5306	1215.2	327.1
910.0532	1747.2325	1209.1	322.45
910.1941	1748.9336	1211.1	323.9
910.335	1750.634	1210.95	322.25
910.4759	1752.3336	1209.9	322.3
910.6168	1754.0325	1207.4	320.05
910.7576	1755.7307	1208.2	321.55
910.8984	1757.4281	1207.75	319.2
911.0392	1759.1247	1215.25	317.4
911.18	1760.8206	1209.8	318.3
911.3208	1762.5158	1209.3	317.4
911.4615	1764.2102	1205.55	317.35
911.6022	1765.9039	1204.45	318.05
911.7429	1767.5968	1205.1	318.7
911.8836	1769.289	1204.1	317.5
912.0243	1770.9804	1200.65	312.05
912.1649	1772.6711	1204.9	316.65
912.3056	1774.361	1195.8	305.95
912.4462	1776.0502	1196.65	308.4
912.5868	1777.7386	1196.05	301.3
912.7274	1779.4263	1192.45	303.55
912.8679	1781.1132	1195.65	307.7
913.0084	1782.7994	1195.7	309
913.149	1784.4849	1196.95	311.05
913.2895	1786.1696	1209.3	304.85
913.4299	1787.8535	1186.3	299.7
913.5704	1789.5367	1187.8	300.55
913.7108	1791.2192	1191.15	305
913.8513	1792.9009	1214.2	302.55
913.9917	1794.5818	1190.6	298.9
914.132	1796.2621	1184.55	296.3
914.2724	1797.9415	1189.4	302.05
914.4128	1799.6202	1182.4	295.05
914.5531	1801.2982	1181.95	293.7
914.6934	1802.9755	1182.2	292.85
914.8337	1804.6519	1181.3	292.05
914.9739	1806.3277	1181.3	292.8
915.1142	1808.0027	1180.8	294.55
915.2544	1809.6769	1179.2	292.35
915.3946	1811.3504	1177.35	289.8
915.5348	1813.0231	1176.85	292.2
915.675	1814.6951	1174	289.25
915.8151	1816.3664	1174.7	283.15
915.9553	1818.0369	1174.15	284.8
916.0954	1819.7067	1170.2	282
916.2355	1821.3757	1175.5	287.15
916.3755	1823.044	1177.9	290.35
916.5156	1824.7115	1175.45	286.55
916.6556	1826.3783	1165.45	277.55
916.7956	1828.0443	1168.5	281.65
916.9356	1829.7096	1168.3	278.2
917.0756	1831.3741	1171.25	279.9
917.2155	1833.0379	1163.45	276.85
917.3555	1834.701	1167.7	281.7
917.4954	1836.3633	1172.55	285.6
917.6353	1838.0248	1164.9	275.35
917.7751	1839.6856	1171.55	282.95
917.915	1841.3457	1164.75	278.85
918.0548	1843.005	1162.9	276.2
918.1946	1844.6636	1157.9	270.75
918.3344	1846.3214	1159.1	272.6
918.4742	1847.9785	1158.1	272.55
918.6139	1849.6349	1158.7	269.75
918.7537	1851.2904	1173.2	275.1
918.8934	1852.9453	1163.85	275.05
919.0331	1854.5994	1158.15	265.85
919.1727	1856.2528	1166.15	271.1
919.3124	1857.9054	1162.25	272.55
919.452	1859.5572	1153.3	264.3
919.5916	1861.2083	1153.4	264.45
919.7312	1862.8587	1155.4	266.15
919.8708	1864.5084	1157.9	266.75
920.0103	1866.1572	1157.15	268.45
920.1498	1867.8054	1149.8	261.3
920.2893	1869.4528	1152.7	262.7
920.4288	1871.0994	1152.3	262.75
920.5683	1872.7453	1154.9	264
920.7077	1874.3905	1158.2	263.7
920.8471	1876.0349	1152.95	263.85
920.9865	1877.6786	1150.95	260.55
921.1259	1879.3215	1146.75	260.5
921.2653	1880.9637	1148.65	257.45
921.4046	1882.6051	1144.4	257.5
921.5439	1884.2458	1150.9	261.45
921.6832	1885.8858	1143.85	254.85
921.8225	1887.525	1147.6	259.8
921.9617	1889.1634	1146.15	257.65
922.101	1890.8011	1142.65	255.25
922.2402	1892.4381	1145.2	257.35
922.3794	1894.0743	1142.8	254.45
922.5185	1895.7098	1142	254.4
922.6577	1897.3446	1136.1	245.75
922.7968	1898.9786	1143.45	250.35
922.9359	1900.6118	1138.35	250.5
923.075	1902.2443	1143.05	251.15
923.214	1903.8761	1139.9	253.3
923.3531	1905.5071	1139.4	250.7
923.4921	1907.1374	1139.1	250.45
923.6311	1908.7669	1132.85	245.35
923.77	1910.3957	1135.8	246.4
923.909	1912.0237	1133.55	245.45
924.0479	1913.651	1129.05	240.05
924.1868	1915.2776	1131.35	247.35
924.3257	1916.9034	1127.2	239.5
924.4646	1918.5285	1134.9	246.3
924.6034	1920.1528	1128.85	241.2
924.7422	1921.7764	1128.2	240.65
924.881	1923.3992	1125.65	239.35
925.0198	1925.0213	1128	240.9
925.1586	1926.6427	1123.05	236.95
925.2973	1928.2633	1342.55	243.2
925.436	1929.8832	1132.35	237.65
925.5747	1931.5023	1124.55	235.05
925.7134	1933.1207	1127.85	240.2
925.852	1934.7383	1124.15	235.75
925.9906	1936.3552	1123.7	235.1
926.1292	1937.9714	1118	231
926.2678	1939.5868	1120	230.7
926.4064	1941.2015	1120.75	231.35
926.5449	1942.8154	1115.6	224.65
926.6834	1944.4286	1124.2	235.75
926.8219	1946.041	1141.4	229.7
926.9604	1947.6528	1120.2	226.5
927.0988	1949.2637	1113.3	226.9
927.2372	1950.8739	1116.45	228.45
927.3756	1952.4834	1111	225.4
927.514	1954.0921	1113.25	224.85
927.6523	1955.7001	1116.45	225.15
927.7907	1957.3074	1114.45	228.7
927.929	1958.9139	1108.8	222.15
928.0673	1960.5197	1111	221.95
928.2055	1962.1247	1111.55	226.4
928.3438	1963.729	1103.5	217.45
928.482	1965.3325	1128.65	219.6
928.6202	1966.9353	1102.5	215.95
928.7584	1968.5374	1106.1	221
928.8965	1970.1387	1104.4	218.25
929.0346	1971.7393	1104.5	218.7
929.1727	1973.3392	1098.3	213.05
929.3108	1974.9383	1103.2	217.35
929.4489	1976.5366	1099.95	215.3
929.5869	1978.1342	1101.7	217.25
929.7249	1979.7311	1097.35	211.25
929.8629	1981.3273	1098	211.75
930.0009	1982.9227	1098.8	211.9
930.1388	1984.5173	1098.2	215
930.2767	1986.1112	1100.95	214.85
930.4146	1987.7044	1093.05	208.85
930.5525	1989.2968	1097.15	209.65
930.6904	1990.8885	1099.75	212.1
930.8282	1992.4795	1094.7	211.1
930.966	1994.0697	1096.3	213.45
931.1038	1995.6592	1097.05	212.7
931.2415	1997.2479	1095.2	210.75
931.3793	1998.8359	1094.8	210.6
931.517	2000.4232	1089.9	208.75
931.6547	2002.0097	1087.5	206.1
931.7923	2003.5955	1087.65	205
931.93	2005.1805	1095.65	210.05
932.0676	2006.7648	1088.65	207.8
932.2052	2008.3484	1088.2	204.9
932.3427	2009.9312	1091.1	205.25
932.4803	2011.5133	1083.35	201.75
932.6178	2013.0946	1085.8	202.8
932.7553	2014.6752	1084.4	202.15
932.8928	2016.2551	1088.05	205.25
933.0302	2017.8342	1085.35	201.9
933.1676	2019.4126	1083.25	201.65
933.305	2020.9902	1084.9	205.85
933.4424	2022.5672	1086.5	204
933.5798	2024.1433	1084.85	197.9
933.7171	2025.7188	1077.3	196.35
933.8544	2027.2935	1081.05	198.6
933.9917	2028.8674	1081.3	198.45
934.129	2030.4406	1075.7	194.45
934.2662	2032.0131	1078.2	196.95
934.4034	2033.5849	1081.65	196.6
934.5406	2035.1559	1081.8	201.1
934.6778	2036.7261	1082.25	199.45
934.8149	2038.2957	1083.95	199.5
934.952	2039.8645	1079.15	195.7
935.0891	2041.4325	1082.5	197.3
935.2262	2042.9998	1082.1	200.05
935.3632	2044.5664	1075.1	189.15
935.5002	2046.1323	1079.05	197
935.6372	2047.6974	1072.6	190.05
935.7742	2049.2617	1076.95	197
935.9111	2050.8254	1099.35	184.95
936.048	2052.3883	1079.25	194
936.1849	2053.9504	1074.3	191.25
936.3218	2055.5118	1082.45	197.1
936.4586	2057.0725	1082.45	195.95
936.5955	2058.6325	1079	196.25
936.7323	2060.1917	1072.25	189.7
936.869	2061.7502	1074.9	188.95
937.0058	2063.3079	1074.95	193.95
937.1425	2064.8649	1075.1	190.75
937.2792	2066.4212	1076.35	191.6
937.4159	2067.9767	1077.25	194.35
937.5525	2069.5315	1068.4	185.1
937.6891	2071.0856	1070.3	187.45
937.8257	2072.6389	1069.6	186.6
937.9623	2074.1915	1067.75	188.45
938.0989	2075.7433	1069.25	184.8
938.2354	2077.2945	1068.4	186.95
938.3719	2078.8448	1065.85	181.6
938.5084	2080.3945	1068.65	186.55
938.6448	2081.9434	1068.3	183.55
938.7812	2083.4916	1069.15	186.95
938.9176	2085.039	1069.35	181.5
939.054	2086.5857	1075.3	188.5
939.1903	2088.1317	1070.8	184.6
939.3267	2089.677	1069.75	184.75
939.463	2091.2215	1066.7	180.5
939.5992	2092.7652	1067.75	180.35
939.7355	2094.3083	1071.1	185.5
939.8717	2095.8506	1062.45	179.45
940.0079	2097.3921	1063.8	180.85
940.1441	2098.933	1065.4	182.3
940.2802	2100.4731	1066.1	184.4
940.4163	2102.0124	1084.45	183.4
940.5524	2103.5511	1064.2	178.35
940.6885	2105.089	1068.6	185.8
940.8245	2106.6261	1061.55	175.2
940.9606	2108.1626	1067.55	184.65
941.0965	2109.6983	1092.25	179.2
941.2325	2111.2332	1064.8	179.1
941.3684	2112.7675	1068.55	183.25
941.5044	2114.301	1065.15	177.35
941.6403	2115.8337	1062.85	178.05
941.7761	2117.3657	1060.55	177.5
941.912	2118.897	1062.35	177.8
942.0478	2120.4276	1069.55	181
942.1835	2121.9575	1064.05	179.6
942.3193	2123.4866	1074.5	177.45
942.455	2125.0149	1068.4	178.65
942.5907	2126.5426	1061.8	179.3
942.7264	2128.0695	1065.3	178.15
942.8621	2129.5956	1056	174.35
942.9977	2131.1211	1063.45	177.35
943.1333	2132.6458	1059.05	178.45
943.2689	2134.1698	1059.1	176
943.4044	2135.693	1063.35	176.9
943.54	2137.2155	1063.15	174.45
943.6755	2138.7373	1060.05	176.05
943.8109	2140.2584	1056.4	173.95
943.9464	2141.7787	1061.65	174.4
944.0818	2143.2983	1056.05	177.1
944.2172	2144.8171	1052.1	173.3
944.3526	2146.3353	1060.55	178.55
944.4879	2147.8527	1050.55	169.95
944.6232	2149.3693	1058.7	175.95
944.7585	2150.8853	1056.5	172.7
944.8938	2152.4005	1056.95	174.3
945.029	2153.9149	1056.2	172.7
945.1642	2155.4287	1052.7	168.05
945.2994	2156.9417	1055.8	170.1
945.4346	2158.454	1054.7	171.25
945.5697	2159.9655	1051.4	166.35
945.7048	2161.4764	1050.6	168.8
945.8399	2162.9865	1051.15	167.6
945.9749	2164.4958	1058.05	173.75
946.1099	2166.0045	1058.55	172.8
946.2449	2167.5124	1046.9	164.45
946.3799	2169.0195	1047.1	163.8
946.5148	2170.526	1054.8	171.85
946.6498	2172.0317	1044.35	160.1
946.7846	2173.5367	1054.45	170.65
946.9195	2175.0409	1051.35	168
947.0543	2176.5445	1053.6	170.4
947.1891	2178.0473	1053.35	168.5
947.3239	2179.5494	1054.55	166.35
947.4587	2181.0507	1046.85	163.9
947.5934	2182.5513	1049.5	166
947.7281	2184.0512	1047.4	162.9
947.8628	2185.5504	1046.65	164.4
947.9974	2187.0488	1044.15	160.7
948.132	2188.5465	1040.9	159.5
948.2666	2190.0435	1044.9	163.05
948.4012	2191.5397	1051.7	168.9
948.5357	2193.0353	1045.6	162.7
948.6702	2194.5301	1046.3	161.35
948.8047	2196.0241	1049.7	165.45
948.9392	2197.5175	1046.35	160.75
949.0736	2199.0101	1049.15	160.5
949.208	2200.502	1046.5	166.15
949.3424	2201.9931	1038.45	154.3
949.4767	2203.4835	1043.75	158.95
949.611	2204.9733	1058.2	158.9
949.7453	2206.4622	1041.25	159.35
949.8796	2207.9505	1043.1	157.75
950.0138	2209.438	1040.8	159.55
950.148	2210.9248	1040.95	158.7
950.2822	2212.4109	1038.2	158.6
950.4164	2213.8962	1042.75	155.35
950.5505	2215.3809	1037.35	152.65
950.6846	2216.8648	1041.8	154.7
950.8186	2218.3479	1041.55	153.1
950.9527	2219.8304	1042.4	154.5
951.0867	2221.3121	1040.95	154.7
951.2207	2222.7931	1035.75	153.7
951.3546	2224.2733	1035.8	151.3
951.4886	2225.7529	1034.9	151.3
951.6225	2227.2317	1039.9	155.45
951.7563	2228.7098	1036.75	154.2
951.8902	2230.1872	1032.85	151.65
952.024	2231.6638	1033.5	151.15
952.1578	2233.1397	1039.25	149.1
952.2916	2234.6149	1034.4	152.05
952.4253	2236.0894	1031.85	148.85
952.559	2237.5632	1042.2	149.65
952.6927	2239.0362	1031.35	150.55
952.8263	2240.5085	1032.9	149.2
952.9599	2241.9801	1034	151.25
953.0935	2243.4509	1029.4	145.05
953.2271	2244.921	1028.95	144.15
953.3606	2246.3904	1034.2	147.8
953.4941	2247.8591	1031.5	149.1
953.6276	2249.3271	1030	145.9
953.7611	2250.7943	1030.85	146.45
953.8945	2252.2608	1026.25	142.4
954.0279	2253.7266	1027.15	141.55
954.1612	2255.1917	1025.7	144.25
954.2946	2256.656	1025.5	140.75
954.4279	2258.1197	1021.45	139.8
954.5612	2259.5826	1029.8	145.45
954.6944	2261.0447	1024.1	140.3
954.8276	2262.5062	1029.4	144.35
954.9608	2263.9669	1026.45	142.75
955.094	2265.4269	1026	144.4
955.2271	2266.8862	1026.35	143.4
955.3602	2268.3448	1022.9	138.8
955.4933	2269.8026	1025.4	141.05
955.6264	2271.2598	1022.4	139.85
955.7594	2272.7162	1020.25	139.85
955.8924	2274.1719	1025.55	142.25
956.0253	2275.6268	1021.1	137
956.1583	2277.0811	1019.55	136.1
956.2912	2278.5346	1018.45	138.4
956.4241	2279.9874	1017.5	133.4
956.5569	2281.4395	1022.45	139.8
956.6897	2282.8908	1025.85	136.75
956.8225	2284.3414	1026.05	140.2
956.9553	2285.7914	1019.75	139.15
957.088	2287.2406	1026.35	139.85
957.2207	2288.689	1021.45	137.6
957.3534	2290.1368	1021.1	134.8
957.486	2291.5838	1023.9	139.55
957.6186	2293.0302	1020.75	134.3
957.7512	2294.4758	1020.3	136.9
957.8838	2295.9206	1018.2	133
958.0163	2297.3648	1014.9	131.85
958.1488	2298.8082	1019	132.85
958.2813	2300.251	1016.05	132.5
958.4137	2301.693	1018.95	133.3
958.5461	2303.1343	1017.15	132.8
958.6785	2304.5748	1018.9	135.05
958.8108	2306.0147	1016.45	132.3
958.9432	2307.4538	1015.05	129.3
959.0754	2308.8922	1009.75	126.65
959.2077	2310.3299	1011.65	128.5
959.3399	2311.7669	1013.85	131.7
959.4721	2313.2031	1018.05	135.65
959.6043	2314.6387	1015.65	132.6
959.7365	2316.0735	1014.95	131.35
959.8686	2317.5076	1013.2	127.6
960.0006	2318.941	1018.05	133.75
960.1327	2320.3737	1017.05	132.15
960.2647	2321.8056	1019.2	132.3
960.3967	2323.2369	1015.55	129.15
960.5287	2324.6674	1019.6	132.6
960.6606	2326.0972	1019.85	133.45
960.7925	2327.5263	1019.95	135.3
960.9244	2328.9547	1028.2	143.55
961.0562	2330.3823	1021.85	137.9
961.1881	2331.8092	1015.85	127.9
961.3198	2333.2355	1013.75	127.25
961.4516	2334.661	1010.6	124.4
961.5833	2336.0858	1011.4	127.95
961.715	2337.5098	1010.85	126.4
961.8467	2338.9332	1007.65	121.25
961.9783	2340.3558	1014.35	127.45
962.1099	2341.7778	1008.35	125.65
962.2415	2343.199	1007.8	122.2
962.373	2344.6195	1011.95	128.15
962.5045	2346.0393	1002	117.3
962.636	2347.4583	1007.15	122.95
962.7675	2348.8767	1006.65	121.65
962.8989	2350.2943	1008.55	124.1
963.0303	2351.7113	1008	122.1
963.1617	2353.1275	1007.7	123.4
963.293	2354.543	1030.25	122.2
963.4243	2355.9578	1008.35	122.5
963.5556	2357.3718	1006.15	121.7
963.6868	2358.7852	1006.3	119.5
963.818	2360.1978	1004.75	119.45
963.9492	2361.6098	1004.95	120.5
964.0803	2363.021	1004.8	117.45
964.2114	2364.4315	1001.75	117.3
964.3425	2365.8413	1005.25	120.45
964.4736	2367.2504	1002.8	119.75
964.6046	2368.6587	1004.1	118.85
964.7356	2370.0664	1002	117.6
964.8666	2371.4733	1003.8	118.75
964.9975	2372.8795	1007.45	123.2
965.1284	2374.285	1003.8	119.65
965.2593	2375.6899	1001.2	118.05
965.3901	2377.0939	1003.5	119.1
965.5209	2378.4973	1000.25	116.15
965.6517	2379.9	1001.5	115.1
965.7825	2381.3019	1000.4	116.25
965.9132	2382.7032	1000.2	116.95
966.0439	2384.1037	998.85	116.4
966.1745	2385.5035	1001.9	118.05
966.3051	2386.9027	994.45	111.45
966.4357	2388.3011	998.75	109.6
966.5663	2389.6987	996.35	112.8
966.6968	2391.0957	996	112.5
966.8273	2392.492	997.15	111.9
966.9578	2393.8876	997.6	114.5
967.0882	2395.2824	994.75	109.35
967.2186	2396.6765	994.05	110.75
967.349	2398.07	997.7	113.45
967.4793	2399.4627	995.55	107.7
967.6097	2400.8547	1003.2	116.75
967.7399	2402.246	1001.9	109.5
967.8702	2403.6366	996.55	111.1
968.0004	2405.0265	993.9	110.75
968.1306	2406.4156	995.35	104.7
968.2607	2407.8041	998.55	110.25
968.3909	2409.1918	996.85	108.3
968.521	2410.5789	992.75	107.3
968.651	2411.9652	996	106.55
968.781	2413.3508	993.85	108.8
968.911	2414.7358	993.15	105.5
969.041	2416.12	992	106.85
969.1709	2417.5035	992.55	106.75
969.3008	2418.8863	993.6	108
969.4307	2420.2684	994.05	107.45
969.5606	2421.6497	991.5	105.7
969.6904	2423.0304	989.85	105.7
969.8201	2424.4104	986.05	99.8
969.9499	2425.7896	993	106.5
970.0796	2427.1682	990.3	104.7
970.2093	2428.546	992.35	107.45
970.3389	2429.9232	990.25	105.1
970.4685	2431.2996	989.3	103.55
970.5981	2432.6753	989.55	103.65
970.7277	2434.0503	986	102.45
970.8572	2435.4246	988.55	104.1
970.9867	2436.7982	992	104.95
971.1161	2438.1711	990.2	104.95
971.2456	2439.5433	985.95	98.65
971.375	2440.9148	985.75	98.15
971.5043	2442.2856	986.65	101.3
971.6336	2443.6557	985.85	98.95
971.7629	2445.025	987.65	102.5
971.8922	2446.3937	987.05	102.9
972.0214	2447.7617	988.65	103.25
972.1506	2449.1289	983.7	98.2
972.2798	2450.4955	988.5	99.85
972.4089	2451.8613	984.55	102.5
972.538	2453.2265	979.65	94.25
972.6671	2454.5909	984.35	99.45
972.7961	2455.9546	983.9	98.65
972.9251	2457.3177	980.35	94.55
973.0541	2458.68	985.85	97.9
973.1831	2460.0416	985.4	102.6
973.312	2461.4025	982.7	95.5
973.4408	2462.7627	992.3	96.9
973.5697	2464.1222	980.85	98.65
973.6985	2465.4811	984	99.4
973.8273	2466.8392	981.3	94.5
973.956	2468.1966	980.3	92.55
974.0847	2469.5533	984.3	97.7
974.2134	2470.9093	984.4	98.25
974.3421	2472.2645	983.65	98.2
974.4707	2473.6191	981.25	96.7
974.5993	2474.973	984.3	99.2
974.7278	2476.3262	982	93.25
974.8563	2477.6787	980.8	96.05
974.9848	2479.0305	982.05	99.1
975.1132	2480.3816	981.6	94.8
975.2417	2481.7319	981.45	97.15
975.37	2483.0816	982.7	95.35
975.4984	2484.4306	979.1	94.65
975.6267	2485.7789	977.45	93
975.755	2487.1264	980.3	92.85
975.8833	2488.4733	979	95
976.0115	2489.8195	985.95	95
976.1397	2491.165	979.25	91.4
976.2678	2492.5097	975.95	91.25
976.3959	2493.8538	978.5	94.45
976.524	2495.1972	978.45	93.15
976.6521	2496.5398	977.45	90.65
976.7801	2497.8818	978.1	91.75
976.9081	2499.2231	976.25	90.75
977.036	2500.5637	976.4	89.75
977.164	2501.9035	977.4	91.3
977.2918	2503.2427	980	90.8
977.4197	2504.5812	979.55	95.3
977.5475	2505.919	978.65	92.75
977.6753	2507.256	976.65	92.95
977.8031	2508.5924	976.3	91.4
977.9308	2509.9281	979.6	88.3
978.0585	2511.2631	973.85	89.6
978.1861	2512.5974	972.9	89.15
978.3137	2513.9309	970.95	85.35
978.4413	2515.2638	999.65	89.95
978.5689	2516.596	971.4	86.8
978.6964	2517.9275	971.45	86.7
978.8239	2519.2583	974.25	88.7
978.9513	2520.5884	970.75	87
979.0788	2521.9178	974.9	93.1
979.2062	2523.2465	971.75	88.85
979.3335	2524.5745	971.9	88.55
979.4608	2525.9018	970.95	84.75
979.5881	2527.2284	965.95	83.6
979.7154	2528.5543	970.55	86.7
979.8426	2529.8796	970.9	84.65
979.9698	2531.2041	970.3	84.1
980.0969	2532.5279	971.05	86.9
980.224	2533.851	971.4	86.8
980.3511	2535.1735	967.95	84.15
980.4781	2536.4952	969.3	84.85
980.6052	2537.8163	970.35	84.65
980.7321	2539.1366	968.95	85.3
980.8591	2540.4562	970.55	86.15
980.986	2541.7752	970.55	85.85
981.1129	2543.0935	969.1	83.15
981.2397	2544.411	972.1	86.3
981.3665	2545.7279	968.9	86.6
981.4933	2547.0441	967.95	83.25
981.62	2548.3596	970.15	82.55
981.7467	2549.6744	963.5	78.35
981.8734	2550.9885	973.05	78.95
982.0001	2552.3019	964.05	80.05
982.1267	2553.6146	966.3	81.9
982.2532	2554.9266	964.95	79.15
982.3798	2556.2379	970.05	86
982.5063	2557.5485	968	87.55
982.6327	2558.8585	976.35	85.35
982.7592	2560.1677	973.4	85.9
982.8856	2561.4762	966.35	83.15
983.0119	2562.7841	965.5	78.7
983.1383	2564.0913	965.8	81.25
983.2646	2565.3977	966.55	81.8
983.3908	2566.7035	964.25	81.5
983.517	2568.0086	966.4	79.6
983.6432	2569.313	968.95	82.25
983.7694	2570.6167	972.65	83.75
983.8955	2571.9197	965.3	78.9
984.0216	2573.222	965.7	75.8
984.1476	2574.5236	961.15	77.6
984.2737	2575.8246	961.45	73.95
984.3996	2577.1248	969.15	83.35
984.5256	2578.4244	963.05	79.8
984.6515	2579.7232	962.55	79.2
984.7774	2581.0214	993.85	81.9
984.9032	2582.3189	962.6	78.4
985.029	2583.6157	967.8	78.15
985.1548	2584.9118	964.25	79.15
985.2806	2586.2072	964.9	80.7
985.4063	2587.5019	963.8	79.95
985.5319	2588.7959	962.4	78.95
985.6576	2590.0893	966	83
985.7832	2591.3819	965.1	80.2
985.9087	2592.6739	961.15	75.1
986.0343	2593.9652	964.05	77.3
986.1597	2595.2557	966.95	84.15
986.2852	2596.5456	964.05	77.45
986.4106	2597.8348	963.7	80.1
986.536	2599.1234	961.95	76.45
986.6614	2600.4112	963	80.8
986.7867	2601.6983	969.05	81.2
986.912	2602.9848	962.7	78.6
987.0372	2604.2705	969.4	79.2
987.1624	2605.5556	962	78.15
987.2876	2606.84	963.65	79.8
987.4128	2608.1237	966.15	80.55
987.5379	2609.4067	961.7	78.1
987.6629	2610.689	972.15	78.7
987.788	2611.9707	968.65	79.3
987.913	2613.2516	966.1	78.5
988.0379	2614.5319	964	81.8
988.1629	2615.8115	961	75.55
988.2878	2617.0903	961.3	73.5
988.4126	2618.3685	959.1	74.2
988.5375	2619.6461	961.9	77.6
988.6622	2620.9229	961.5	77.4
988.787	2622.199	957.85	73.4
988.9117	2623.4745	960.3	75.05
989.0364	2624.7493	959.2	75.35
989.161	2626.0234	956.55	74.8
989.2857	2627.2968	956.45	71.4
989.4102	2628.5695	959.6	72.3
989.5348	2629.8415	955.25	71.3
989.6593	2631.1128	960.15	73.75
989.7837	2632.3835	954.75	70.6
989.9082	2633.6535	958.9	77
990.0326	2634.9228	955.95	72.8
990.1569	2636.1914	956.6	72.2
990.2812	2637.4593	957.95	71.1
990.4055	2638.7265	960.2	74.65
990.5298	2639.9931	954.25	72
990.654	2641.259	955.95	69.15
990.7782	2642.5242	957.2	71.1
990.9023	2643.7887	954.2	70.1
991.0264	2645.0525	954.95	72.1
991.1505	2646.3156	954.7	69.4
991.2745	2647.5781	953.8	71
991.3985	2648.8398	952.4	68.7
991.5225	2650.1009	992.55	72.4
991.6464	2651.3613	952.65	67
991.7703	2652.6211	954.55	70.8
991.8942	2653.8801	953.65	72.25
992.018	2655.1385	953.1	67.55
992.1418	2656.3961	952	68.95
992.2655	2657.6531	949.25	65.55
992.3892	2658.9094	950.2	66.5
992.5129	2660.1651	950.15	65.9
992.6366	2661.42	950.65	66.8
992.7602	2662.6743	954.3	70.2
992.8837	2663.9279	952.75	68.25
993.0073	2665.1808	951.5	67.85
993.1307	2666.433	952	65.35
993.2542	2667.6846	949.5	65.1
993.3776	2668.9354	958.6	71.5
993.501	2670.1856	951.7	68.2
993.6244	2671.4351	952.05	67.95
993.7477	2672.6839	956.65	71.6
993.8709	2673.9321	951.45	67.5
993.9942	2675.1795	956.4	73.25
994.1174	2676.4263	953.05	70.85
994.2405	2677.6724	951.6	70.05
994.3637	2678.9179	955.6	72.15
994.4868	2680.1626	952.25	69.15
994.6098	2681.4067	953.75	70.05
994.7328	2682.6501	954.35	72
994.8558	2683.8928	952.25	67.5
994.9788	2685.1348	950.35	68.8
995.1017	2686.3761	950.3	66.35
995.2245	2687.6168	955.55	70.5
995.3474	2688.8568	951.2	66.05
995.4702	2690.0961	948.1	65.05
995.5929	2691.3348	950.55	68.2
995.7156	2692.5727	950.2	66.65
995.8383	2693.81	948.9	65.3
995.961	2695.0466	944.1	61.2
996.0836	2696.2826	946.35	63.55
996.2062	2697.5178	953.15	65.5
996.3287	2698.7524	945.6	61.4
996.4512	2699.9863	952.95	66.7
996.5737	2701.2195	947.9	65.05
996.6961	2702.452	951.8	68.1
996.8185	2703.6839	949.2	65.7
996.9408	2704.9151	948.55	67.05
997.0631	2706.1456	949.3	63.9
997.1854	2707.3755	950.4	67.15
997.3077	2708.6046	953.8	68.9
997.4299	2709.8331	953.45	70.45
997.552	2711.0609	950.25	65.35
997.6742	2712.2881	951.65	68.2
997.7963	2713.5145	956.75	72.1
997.9183	2714.7403	956	74.7
998.0403	2715.9654	954.05	69.8
998.1623	2717.1899	967.6	70.3
998.2842	2718.4136	953.95	70.85
998.4062	2719.6367	955	70.7
998.528	2720.8591	966	77.35
998.6498	2722.0809	961.3	77.95
998.7716	2723.3019	963.35	77
998.8934	2724.5223	963.4	78.8
999.0151	2725.7421	964.65	79.3
999.1368	2726.9611	960	76
999.2584	2728.1795	962.25	73.5
999.38	2729.3972	955.65	72.4
999.5016	2730.6142	966.4	70.7
999.6231	2731.8306	953.45	69.4
999.7446	2733.0462	952.35	66.45
999.8661	2734.2612	955.45	67.8
999.9875	2735.4756	950.95	64
1000.1089	2736.6892	948.8	65.75
1000.2302	2737.9022	947.45	65.95
1000.3515	2739.1145	946.3	64.25
1000.4728	2740.3262	955.7	66.5
1000.594	2741.5372	946.35	62.35
1000.7152	2742.7475	945.85	63.8
1000.8363	2743.9571	945.25	59.55
1000.9575	2745.1661	948	62.25
1001.0785	2746.3744	943.45	60.55
1001.1996	2747.582	940.15	57.7
1001.3206	2748.7889	943.9	56.85
1001.4415	2749.9952	940.2	57.7
1001.5625	2751.2008	939.25	55.55
1001.6833	2752.4057	941.95	57.55
1001.8042	2753.61	939.6	56.05
1001.925	2754.8136	940.8	58.65
1002.0458	2756.0165	938.05	54.9
1002.1665	2757.2188	935.9	56
1002.2872	2758.4204	940.25	59
1002.4078	2759.6213	940.95	54.55
1002.5285	2760.8215	945.95	60.7
1002.649	2762.0211	941.25	54.95
1002.7696	2763.22	940.3	56.35
1002.8901	2764.4182	938.1	54.65
1003.0106	2765.6158	936.2	55.45
1003.131	2766.8127	934.45	53.5
1003.2514	2768.009	935.55	52.25
1003.3717	2769.2045	936.3	56.2
1003.492	2770.3994	937.25	52.75
1003.6123	2771.5936	938.2	54.25
1003.7325	2772.7872	935.8	55.4
1003.8527	2773.9801	935.1	50.65
1003.9729	2775.1723	949.15	48.9
1004.093	2776.3639	933.6	51.7
1004.2131	2777.5548	933.85	47.35
1004.3331	2778.745	936.5	52.55
1004.4531	2779.9346	932.5	49.8
1004.5731	2781.1235	933.1	50.2
1004.693	2782.3117	932.45	49.7
1004.8129	2783.4992	931.75	48.8
1004.9328	2784.6861	933.55	53.6
1005.0526	2785.8723	936	51.65
1005.1723	2787.0579	935.9	53.6
1005.2921	2788.2428	933.45	51.5
1005.4118	2789.427	933	51.1
1005.5314	2790.6106	935.25	55.2
1005.651	2791.7935	934.45	49.15
1005.7706	2792.9757	930.25	48.95
1005.8902	2794.1573	933.35	48.55
1006.0097	2795.3382	934.6	50.45
1006.1291	2796.5184	933.5	51.7
1006.2485	2797.698	936.05	52.1
1006.3679	2798.8769	935.9	53.2
1006.4873	2800.0551	934.8	52.3
1006.6066	2801.2327	939.55	55.35
1006.7258	2802.4096	935.9	54
1006.8451	2803.5859	937.1	54.5
1006.9642	2804.7615	938.8	54
1007.0834	2805.9364	936.65	57.7
1007.2025	2807.1106	939.25	56.85
1007.3216	2808.2842	940.55	58.65
1007.4406	2809.4572	940.7	57.85
1007.5596	2810.6294	944.05	59.85
1007.6785	2811.801	942.45	59.5
1007.7975	2812.972	946.55	65.6
1007.9163	2814.1423	948.95	66.95
1008.0352	2815.3119	951.05	69
1008.154	2816.4808	954.95	73.7
1008.2727	2817.6491	956.6	73.4
1008.3914	2818.8167	960.1	78.3
1008.5101	2819.9837	971.15	85.65
1008.6288	2821.15	974.65	93.25
1008.7474	2822.3157	979.35	97.15
1008.8659	2823.4807	987.1	104.35
1008.9844	2824.645	999.35	114.3
1009.1029	2825.8086	1006.45	125.45
1009.2214	2826.9716	1013.65	130.95
1009.3398	2828.134	1024.95	144.3
1009.4581	2829.2957	1032.15	149.85
1009.5764	2830.4567	1042.8	164.35
1009.6947	2831.617	1048.05	165.05
1009.813	2832.7767	1047.3	166.1
1009.9312	2833.9358	1045.85	166.35
1010.0493	2835.0941	1046.85	165.3
1010.1675	2836.2519	1042.75	159.35
1010.2855	2837.4089	1035.95	153.45
1010.4036	2838.5653	1033	150.55
1010.5216	2839.7211	1028.95	148.45
1010.6396	2840.8761	1025.6	139.5
1010.7575	2842.0306	1026.7	143.8
1010.8754	2843.1843	1022.3	141.3
1010.9932	2844.3374	1026.3	144.75
1011.111	2845.4899	1032.9	150.75
1011.2288	2846.6417	1031.5	150.05
1011.3465	2847.7928	1031.55	151.2
1011.4642	2848.9433	1038.2	157.25
1011.5818	2850.0931	1035.7	155.35
1011.6995	2851.2422	1040.85	155.5
1011.817	2852.3907	1038.35	154.85
1011.9345	2853.5385	1042	157.85
1012.052	2854.6857	1067.8	160.6
1012.1695	2855.8323	1042	162.05
1012.2869	2856.9781	1046.8	163.3
1012.4042	2858.1233	1049.8	168.45
1012.5216	2859.2679	1054.9	172.75
1012.6389	2860.4118	1058.9	178.05
1012.7561	2861.555	1069.9	183.9
1012.8733	2862.6976	1069.55	185.95
1012.9905	2863.8395	1070.7	189.15
1013.1076	2864.9808	1072.8	190.95
1013.2247	2866.1214	1073.25	193.1
1013.3417	2867.2614	1076.35	195.6
1013.4587	2868.4007	1078.7	196.05
1013.5757	2869.5393	1080.8	197.8
1013.6926	2870.6773	1083.6	199.9
1013.8095	2871.8146	1085.9	199.55
1013.9263	2872.9513	1090.45	204.85
1014.0431	2874.0874	1091.15	209.1
1014.1599	2875.2227	1095.3	213.3
1014.2766	2876.3574	1094.7	213.25
1014.3933	2877.4915	1092.85	213.6
1014.51	2878.6249	1097.15	216.85
1014.6266	2879.7577	1102.2	217.5
1014.7431	2880.8898	1109.9	217.95
1014.8596	2882.0212	1113.5	234.2
1014.9761	2883.152	1109.25	228.6
1015.0925	2884.2821	1113.05	232.05
1015.2089	2885.4116	1113.45	231.85
1015.3253	2886.5405	1117.45	235.75
1015.4416	2887.6686	1122.1	238.05
1015.5579	2888.7962	1114.45	233.35
1015.6741	2889.923	1117.3	238.05
1015.7903	2891.0493	1117.3	236.7
1015.9065	2892.1748	1119.85	239.35
1016.0226	2893.2997	1120.05	237.5
1016.1387	2894.424	1114.4	234
1016.2547	2895.5476	1122.2	244.05
1016.3707	2896.6706	1117.95	236.3
1016.4866	2897.7929	1119.5	236
1016.6025	2898.9145	1121.5	240.95
1016.7184	2900.0355	1115.5	233.25
1016.8342	2901.1559	1115.05	233.55
1016.95	2902.2756	1121.95	236.95
1017.0658	2903.3946	1115.3	234.3
1017.1815	2904.513	1117.1	233.15
1017.2971	2905.6308	1109.05	229.3
1017.4127	2906.7479	1111.7	228.8
1017.5283	2907.8643	1110.6	227.1
1017.6439	2908.9801	1109.15	227.7
1017.7594	2910.0953	1104.25	224.1
1017.8748	2911.2098	1110.1	225.1
1017.9902	2912.3236	1119.45	230.8
1018.1056	2913.4368	1113.15	228.4
1018.2209	2914.5494	1108.5	228.05
1018.3362	2915.6613	1119	232.9
1018.4515	2916.7725	1107.4	221.6
1018.5667	2917.8831	1103.3	220.8
1018.6819	2918.9931	1099.95	215.45
1018.797	2920.1024	1091.35	208.3
1018.9121	2921.211	1089	206.1
1019.0271	2922.319	1087.1	204.1
1019.1421	2923.4264	1086.05	205.4
1019.2571	2924.5331	1081.95	203.4
1019.372	2925.6391	1084.95	204.7
1019.4869	2926.7445	1081.8	203.1
1019.6017	2927.8493	1081.55	198.75
1019.7165	2928.9534	1087.2	206.7
1019.8313	2930.0569	1093.15	208.45
1019.946	2931.1597	1087.1	205.5
1020.0606	2932.2619	1094.15	214.1
1020.1753	2933.3634	1093.95	211.5
1020.2899	2934.4643	1102.9	214.65
1020.4044	2935.5645	1100.55	211.35
1020.5189	2936.6641	1100.65	212.95
1020.6334	2937.763	1095.3	216.7
1020.7478	2938.8613	1099.15	217.3
1020.8622	2939.959	1102.1	215.2
1020.9765	2941.056	1086.9	207.55
1021.0908	2942.1523	1081.5	197.2
1021.2051	2943.248	1073.7	192.3
1021.3193	2944.3431	1063.55	183.15
1021.4334	2945.4375	1057.25	175.75
1021.5476	2946.5313	1044.55	164.45
1021.6617	2947.6244	1036.25	154.2
1021.7757	2948.7169	1028.8	147.2
1021.8897	2949.8087	1021.05	141.7
1022.0037	2950.8999	1009.5	126.5
1022.1176	2951.9904	1007.65	127.65
1022.2315	2953.0803	1003.4	121.6
1022.3453	2954.1696	997.5	117.15
1022.4591	2955.2582	993.9	115.5
1022.5728	2956.3462	988.75	105.05
1022.6865	2957.4335	986.45	105.45
1022.8002	2958.5202	988.5	105.3
1022.9138	2959.6062	990	107.95
1023.0274	2960.6916	987.05	107.65
1023.141	2961.7764	990.1	107.4
1023.2545	2962.8605	989.5	107.95
1023.3679	2963.9439	986.6	106.85
1023.4813	2965.0267	987.65	103.8
1023.5947	2966.1089	1005.55	104
1023.708	2967.1905	986.35	105.15
1023.8213	2968.2714	982.8	103.05
1023.9346	2969.3516	985.2	105.1
1024.0478	2970.4312	992.45	104.45
1024.1609	2971.5102	982.05	102.55
1024.274	2972.5885	982	100.1
1024.3871	2973.6662	991.6	107.55
1024.5002	2974.7432	983.7	103.8
1024.6132	2975.8196	982.15	101.45
1024.7261	2976.8954	982.6	102.95
1024.839	2977.9705	982.05	101.95
1024.9519	2979.045	982.65	103.95
1025.0647	2980.1188	978.6	98.45
1025.1775	2981.192	979.1	99.85
1025.2902	2982.2645	981.2	100.15
1025.4029	2983.3364	980.55	99.8
1025.5156	2984.4077	976.45	96.15
1025.6282	2985.4783	975.9	88.4
1025.7407	2986.5483	971.35	91.65
1025.8532	2987.6177	965.55	86.2
1025.9657	2988.6864	965.05	85.4
1026.0782	2989.7545	960.5	79.2
1026.1906	2990.8219	958.35	76.85
1026.3029	2991.8887	957.5	74.35
1026.4152	2992.9548	952.4	70.5
1026.5275	2994.0204	949.1	68.65
1026.6397	2995.0852	944.95	65.2
1026.7519	2996.1495	942.45	60.45
1026.864	2997.2131	939.5	58.2
1026.9761	2998.276	936.05	55.2
1027.0882	2999.3383	935.1	50.45
1027.2002	3000.4	931.15	51.7
1027.3122	3001.4611	929.45	51.95
1027.4241	3002.5215	928.25	47.3
1027.536	3003.5812	926.8	46.2
1027.6478	3004.6404	925.05	42.7
1027.7596	3005.6989	926.05	44.45
1027.8714	3006.7567	920.7	40.65
1027.9831	3007.8139	945	38.8
1028.0947	3008.8705	919.05	39.65
1028.2064	3009.9264	936.15	40.75
1028.3179	3010.9818	918	39.5
1028.4295	3012.0364	916.85	36.75
1028.541	3013.0905	917.75	36.65
1028.6524	3014.1439	917.4	38.5
1028.7638	3015.1966	915.65	35.25
1028.8752	3016.2487	917.85	36.7
1028.9865	3017.3002	921.95	39.55
1029.0978	3018.3511	916	37.4
1029.209	3019.4013	914.25	34.75
1029.3202	3020.4509	914.05	33.95
1029.4314	3021.4998	915.1	34.45
1029.5425	3022.5481	915.25	34.4
1029.6535	3023.5958	914.15	33.2
1029.7645	3024.6428	913.55	32.9
1029.8755	3025.6892	912.35	32.9
1029.9864	3026.735	911.95	30.75
1030.0973	3027.7802	912.95	32.1
1030.2082	3028.8247	911.8	30.7
1030.319	3029.8685	912.45	31.65
1030.4297	3030.9118	913.6	31.8
1030.5404	3031.9544	910.2	28.8
1030.6511	3032.9963	912.15	33.4
1030.7617	3034.0376	911.75	29.9
1030.8723	3035.0783	912.6	30.4
1030.9829	3036.1184	914	30.55
1031.0934	3037.1578	910.5	30.7
1031.2038	3038.1966	911.75	32.95
1031.3142	3039.2348	912.45	33.6
1031.4246	3040.2723	924.25	35.15
1031.5349	3041.3092	911.3	32.8
1031.6452	3042.3455	912.9	32.15
1031.7554	3043.3811	913.7	32.8
1031.8656	3044.4161	913.95	32
1031.9758	3045.4505	912.65	34.05
1032.0859	3046.4842	913.85	33.3
1032.1959	3047.5173	912.85	32.9
1032.3059	3048.5498	912.9	34.3
1032.4159	3049.5816	913.75	32.1
1032.5258	3050.6128	913.4	31.05
1032.6357	3051.6434	914.55	32.55
1032.7455	3052.6734	914	32.25
1032.8553	3053.7027	914.4	32.85
1032.9651	3054.7314	910.65	31.05
1033.0748	3055.7594	913.6	33.2
1033.1845	3056.7868	914.4	33.85
1033.2941	3057.8136	914.55	33.95
1033.4037	3058.8398	910.5	32.5
1033.5132	3059.8653	914.6	36.25
1033.6227	3060.8902	911.9	30.6
1033.7321	3061.9145	914.85	34.5
1033.8415	3062.9381	914.25	32
1033.9509	3063.9612	929.7	34.6
1034.0602	3064.9835	914.55	33.05
1034.1694	3066.0053	918.95	38
1034.2787	3067.0264	916.8	35.85
1034.3878	3068.0469	916.45	35.6
1034.497	3069.0668	918.45	35.7
1034.6061	3070.086	915.15	36.75
1034.7151	3071.1046	915.3	34.15
1034.8241	3072.1226	916.65	34.75
1034.9331	3073.1399	914	34.15
1035.042	3074.1567	914.6	35.2
1035.1508	3075.1727	913.5	30.1
1035.2597	3076.1882	913.1	33
1035.3684	3077.203	912.35	34.1
1035.4772	3078.2173	914.1	30.7
1035.5859	3079.2308	912.2	28.6
1035.6945	3080.2438	910.55	28.5
1035.8031	3081.2561	910.1	29.5
1035.9117	3082.2678	909.85	31.4
1036.0202	3083.2789	907.4	25.6
1036.1286	3084.2893	906.85	29
1036.2371	3085.2991	905.65	25.4
1036.3454	3086.3083	909.9	23.45
1036.4538	3087.3169	908.35	26.1
1036.562	3088.3248	904.9	22.4
1036.6703	3089.3321	907.05	26
1036.7785	3090.3388	902.65	24.5
1036.8866	3091.3449	904.65	22.25
1036.9948	3092.3503	907.15	26.3
1037.1028	3093.3551	902.9	22.45
1037.2108	3094.3593	903.1	22.5
1037.3188	3095.3629	903.35	24.5
1037.4267	3096.3658	904.65	24.4
1037.5346	3097.3681	902.9	21.8
1037.6425	3098.3698	905.6	24.2
1037.7503	3099.3708	902.85	23.25
1037.858	3100.3713	898.65	21.2
1037.9657	3101.3711	902.55	21.8
1038.0734	3102.3702	1042.95	23.85
1038.181	3103.3688	903	21.4
1038.2886	3104.3667	903.05	23.7
1038.3961	3105.364	900.85	21.25
1038.5036	3106.3607	901.6	19.85
1038.611	3107.3568	902.75	22.9
1038.7184	3108.3522	899.6	19.75
1038.8257	3109.347	900.7	19
1038.933	3110.3412	901.95	18.55
1039.0403	3111.3348	898.3	18.65
1039.1475	3112.3277	898.4	20.95
1039.2547	3113.32	898.15	18.7
1039.3618	3114.3117	897.3	15
1039.4689	3115.3028	896.65	16.55
1039.5759	3116.2932	898.8	16.55
1039.6829	3117.2831	904.35	19.4
1039.7898	3118.2723	895.45	17.45
1039.8967	3119.2608	898.55	17.15
1040.0035	3120.2488	896.8	16.85
1040.1103	3121.2361	896.35	16
1040.2171	3122.2229	898.15	19.45
1040.3238	3123.209	896.8	15.6
1040.4305	3124.1944	896.05	16.9
1040.5371	3125.1793	895.75	14.5
1040.6437	3126.1635	895.95	15.45
1040.7502	3127.1471	896.9	18.3
1040.8567	3128.1301	893.8	14.4
1040.9631	3129.1125	894.15	13.95
1041.0695	3130.0942	897.05	18.45
1041.1759	3131.0753	901.85	13.5
1041.2822	3132.0558	898.6	15.4
1041.3884	3133.0357	896.3	15.45
1041.4946	3134.015	895.4	13.6
1041.6008	3134.9936	894.75	14.15
1041.7069	3135.9716	914.25	13.15
1041.813	3136.949	896	13.55
1041.919	3137.9258	909.3	13
1042.025	3138.902	900	12.9
1042.1309	3139.8775	893.3	12.95
1042.2368	3140.8524	891.85	11.25
1042.3427	3141.8267	895.6	14.2
1042.4485	3142.8004	893.2	12.85
1042.5542	3143.7735	899.6	13.55
1042.6599	3144.7459	894.95	10.25
1042.7656	3145.7178	893.4	12.5
1042.8712	3146.689	891.8	11.3
1042.9768	3147.6596	893.85	14.05
1043.0823	3148.6295	892.8	11.1
1043.1878	3149.5989	893.9	15.9
1043.2932	3150.5676	891.25	11.15
1043.3986	3151.5357	891.95	14.05
1043.5039	3152.5032	890.85	11.85
1043.6092	3153.4701	890.8	10.8
1043.7145	3154.4364	895.3	13.45
1043.8197	3155.402	891.45	10.6
1043.9248	3156.367	895.2	13.3
1044.03	3157.3315	927.9	13
1044.135	3158.2952	890.6	10.6
1044.24	3159.2584	891.25	11.9
1044.345	3160.221	893.7	13.4
1044.4499	3161.1829	891.2	10.65
1044.5548	3162.1442	892.45	13.8
1044.6596	3163.105	892	12.6
1044.7644	3164.065	891.95	12.35
1044.8692	3165.0245	892.65	11.2
1044.9739	3165.9834	890.05	11.8
1045.0785	3166.9416	891.5	13
1045.1831	3167.8993	891	9.8
1045.2877	3168.8563	893.05	12.2
1045.3922	3169.8127	890.85	10.85
1045.4966	3170.7684	890.2	10.5
1045.6011	3171.7236	889.5	9.3
1045.7054	3172.6782	888.75	9.35
1045.8098	3173.6321	891.5	10.7
1045.914	3174.5854	894.45	10.9
1046.0183	3175.5381	891.6	12
1046.1224	3176.4902	890.3	12.1
1046.2266	3177.4417	889.5	11.5
1046.3307	3178.3926	889.6	9.85
1046.4347	3179.3428	889.1	9.65
1046.5387	3180.2924	888.85	8.3
1046.6427	3181.2415	889.7	10.95
1046.7466	3182.1899	891.8	10.8
1046.8504	3183.1377	890.75	11.95
1046.9542	3184.0848	894.35	12.25
1047.058	3185.0314	889.2	8.15
1047.1617	3185.9773	890.8	9.95
1047.2654	3186.9227	889	8.45
1047.369	3187.8674	890.4	10.85
1047.4726	3188.8115	892.7	8.45
1047.5761	3189.755	889.2	10.9
1047.6796	3190.6979	889.45	9.6
1047.783	3191.6402	887.7	9.85
1047.8864	3192.5818	890.8	10.75
1047.9898	3193.5229	913.45	8.05
1048.0931	3194.4633	888.5	8.85
1048.1963	3195.4031	889.3	11.75
1048.2995	3196.3423	888.55	10.65
1048.4027	3197.2809	891.1	12.15
1048.5058	3198.2189	888.55	8.4
1048.6089	3199.1563	893.1	7.2
1048.7119	3200.0931	887.55	8.4
1048.8148	3201.0292	888.05	8.7
1048.9178	3201.9648	886.9	6.7
1049.0206	3202.8997	892.7	10.45
1049.1235	3203.834	889.75	8.9
1049.2262	3204.7677	891.65	12.8
1049.329	3205.7008	888.6	7.85
1049.4317	3206.6333	884	6.6
1049.5343	3207.5652	890.45	9.05
1049.6369	3208.4964	888.55	8.3
1049.7394	3209.4271	887.65	9.4
1049.8419	3210.3571	888.95	10.25
1049.9444	3211.2865	891	10.3
1050.0468	3212.2154	889.75	9.6
1050.1491	3213.1436	891.8	7.6
1050.2514	3214.0712	894.7	7.9
1050.3537	3214.9982	888.75	8.8
1050.4559	3215.9246	887.5	6.5
1050.5581	3216.8503	886.1	7.8
1050.6602	3217.7755	887.35	5.95
1050.7623	3218.7001	886	5.75
1050.8643	3219.624	888.5	11.25
1050.9663	3220.5473	887.95	8.05
1051.0682	3221.4701	889.15	9.95
1051.1701	3222.3922	890.7	9.05
1051.2719	3223.3137	889.35	10.15
1051.3737	3224.2346	886.05	5.3
1051.4754	3225.1549	886.35	6.7
1051.5771	3226.0746	888.45	8.05
1051.6788	3226.9937	887	7.7
1051.7804	3227.9121	886.6	8.45
1051.8819	3228.83	886.6	7.85
1051.9834	3229.7473	887.55	8.9
1052.0849	3230.6639	889.3	8.3
1052.1863	3231.5799	886.75	6.95
1052.2876	3232.4954	886.65	7.35
1052.3889	3233.4102	887.15	8
1052.4902	3234.3244	888.85	6.95
1052.5914	3235.238	885.45	5.2
1052.6926	3236.151	910.05	9.3
1052.7937	3237.0634	886.15	9.3
1052.8948	3237.9752	885.75	5.75
1052.9958	3238.8864	888.35	9.2
1053.0968	3239.797	887	5.6
1053.1977	3240.7069	888.9	10.75
1053.2986	3241.6163	888.4	9.3
1053.3994	3242.5251	886.9	6.8
1053.5002	3243.4332	886.05	7.9
1053.6009	3244.3408	887.6	6.35
1053.7016	3245.2477	886.85	8.7
1053.8022	3246.154	888.2	7.4
1053.9028	3247.0598	889.4	9.7
1054.0034	3247.9649	886.6	8.5
1054.1039	3248.8694	887.15	7.9
1054.2043	3249.7733	885.3	8.15
1054.3047	3250.6766	886.15	6.7
1054.4051	3251.5793	889.35	7.8
1054.5054	3252.4814	884.25	5.3
1054.6056	3253.3829	886.4	6.9
1054.7058	3254.2838	886.1	6.7
1054.806	3255.1841	887.3	6.65
1054.9061	3256.0838	887.2	8.9
1055.0061	3256.9829	883.7	5.55
1055.1062	3257.8814	887.05	2.3
1055.2061	3258.7792	886.65	5.4
1055.306	3259.6765	885.65	5.25
1055.4059	3260.5731	886.05	7.95
1055.5057	3261.4692	885.45	6.4
1055.6055	3262.3647	883.9	2.4
1055.7052	3263.2595	886.3	8.1
1055.8049	3264.1538	884.75	4.45
1055.9045	3265.0474	885.2	4.35
1056.0041	3265.9404	883.35	5.6
1056.1036	3266.8329	885.35	7.75
1056.2031	3267.7247	893.05	2.4
1056.3025	3268.616	882.95	5.6
1056.4019	3269.5066	883.35	3.35
1056.5013	3270.3966	886	4.55
1056.6005	3271.286	882.45	1.8
