Software Version:	3.9.2.0
Unit SN:	10000200
Spectrometer SN:	6960
Date:	3/8/2024 11:59:38 AM
Data Line Index:	25
Spectral Points:	2048
Integration time (ms):	125
Averages:	20
Delay (ms):	30000
Sequence Number:	1
Processing:	dark subtract
Laser Power (mW):	305
Laser Current (mA):	822
Laser Diode Temp (C):	25.1
Laser Case Temp (C):	25.5
System Temp (C):	25.5
Spectrometer Temp (C):	23.3
CCD Temp (C):	0.004
Secondary Temp (C):	19.967
Heatsink Temp (C):	20.086
CCDPCB Temp (C):	35.229
SecondaryPCB Temp (C):	28.67

Wavelength	RamanShift	Raw Counts	Dark Subtracted
787.061	30.1047	412.85	3.5
787.2016	32.3739	413.2	6.2
787.3422	34.6426	414.65	5.5
787.4828	36.9109	416.05	5.15
787.6235	39.1787	421.5	8.7
787.7642	41.4461	425.95	5.3
787.9049	43.7131	429.25	6.1
788.0456	45.9796	434.3	8.15
788.1863	48.2456	437.8	8.5
788.3271	50.5112	440.55	6.2
788.4679	52.7764	444.7	8.1
788.6087	55.0411	450.1	11.55
788.7496	57.3054	455.65	12.1
788.8904	59.5692	460.25	13.25
789.0313	61.8326	464.85	15.35
789.1722	64.0955	468.65	15.4
789.3132	66.3579	475.45	17.75
789.4541	68.6199	480.05	19.15
789.5951	70.8815	492.45	26.5
789.7361	73.1426	508.95	37.8
789.8771	75.4032	543.3	69.3
790.0181	77.6634	612.8	133.55
790.1592	79.9231	776.95	294.15
790.3003	82.1824	1116.95	623.1
790.4414	84.4412	1679.6	1167.45
790.5825	86.6995	2391	1856.85
790.7237	88.9574	3065.45	2509.9
790.8648	91.2148	3537.25	2965.9
791.006	93.4717	3717	3136.85
791.1472	95.7282	3740.5	3158.45
791.2885	97.9842	3726.15	3144.55
791.4297	100.2398	3655.2	3069
791.571	102.4949	3619.6	3028.1
791.7123	104.7495	3574.85	2979.9
791.8536	107.0036	3504.8	2907.4
791.9949	109.2573	3433.6	2836.25
792.1363	111.5105	3344.8	2749.15
792.2777	113.7632	3251.85	2654.6
792.4191	116.0154	3146.35	2535.25
792.5605	118.2672	3038.1	2433.85
792.7019	120.5185	2935.8	2336
792.8434	122.7693	2855.55	2248.25
792.9849	125.0197	2792.25	2180.4
793.1264	127.2696	2729.25	2115.7
793.2679	129.519	2690.65	2070.35
793.4094	131.7679	2656	2033.9
793.551	134.0163	2631.65	2005.4
793.6926	136.2642	2634.2	2005.1
793.8342	138.5117	2608.5	1968.35
793.9758	140.7587	2576.9	1945.95
794.1175	143.0052	2535.15	1901.2
794.2591	145.2512	2482.4	1848.3
794.4008	147.4967	2437.4	1803.35
794.5425	149.7417	2399.15	1760.75
794.6842	151.9863	2369.5	1725.2
794.826	154.2304	2373.7	1726.7
794.9677	156.4739	2376.75	1721.55
795.1095	158.717	2380.05	1725.85
795.2513	160.9596	2397.85	1739.6
795.3931	163.2017	2419.6	1760.95
795.535	165.4433	2412.25	1750.2
795.6768	167.6844	2409.2	1746.6
795.8187	169.925	2377.9	1713.15
795.9606	172.1651	2322.6	1657.95
796.1025	174.4047	2275.5	1603.7
796.2445	176.6439	2241.75	1570.85
796.3864	178.8825	2221.8	1542.25
796.5284	181.1206	2209.85	1522.95
796.6704	183.3582	2199.15	1513
796.8124	185.5954	2184.95	1498.45
796.9544	187.832	2194.4	1501.35
797.0965	190.0681	2196.7	1504.95
797.2386	192.3037	2205.85	1510.3
797.3806	194.5388	2205.55	1505.25
797.5228	196.7734	2227.7	1527.9
797.6649	199.0075	2230.85	1525.2
797.807	201.2411	2257.35	1553
797.9492	203.4742	2278.35	1570.75
798.0914	205.7068	2293.85	1584.45
798.2336	207.9389	2319.1	1607.85
798.3758	210.1704	2329.25	1624.7
798.518	212.4015	2322.5	1624.9
798.6603	214.632	2313.8	1622.5
798.8025	216.862	2324.3	1636.6
798.9448	219.0915	2332.65	1642.95
799.0871	221.3205	2351.1	1658.95
799.2294	223.549	2346.25	1657.35
799.3718	225.777	2361	1671.8
799.5141	228.0044	2342.45	1647.95
799.6565	230.2314	2323.25	1622.45
799.7989	232.4578	2314.8	1614.4
799.9413	234.6837	2308.65	1600.4
800.0837	236.909	2309.95	1597.05
800.2262	239.1339	2304.15	1571.95
800.3687	241.3582	2296.1	1575.45
800.5111	243.582	2317.9	1567.85
800.6536	245.8053	2325.4	1583.45
800.7961	248.0281	2323.65	1589.85
800.9387	250.2503	2319.9	1581.15
801.0812	252.472	2333.05	1593.45
801.2238	254.6932	2346.9	1608.6
801.3664	256.9139	2352.4	1613.8
801.509	259.134	2372.9	1630.4
801.6516	261.3536	2389.85	1648.55
801.7942	263.5727	2436	1691
801.9369	265.7912	2478.9	1738.7
802.0795	268.0092	2526.85	1785.1
802.2222	270.2267	2587.9	1844.15
802.3649	272.4436	2641.8	1895.1
802.5076	274.6601	2653.45	1897.3
802.6504	276.8759	2694.65	1942
802.7931	279.0913	2701.15	1953.8
802.9359	281.3061	2704.5	1955.2
803.0787	283.5204	2729	1972.6
803.2215	285.7341	2770.6	2010.85
803.3643	287.9473	2778.35	2016.75
803.5071	290.16	2766.8	2003.35
803.6499	292.3721	2728.5	1973.85
803.7928	294.5837	2705.25	1946.3
803.9357	296.7947	2695.85	1937.85
804.0786	299.0052	2682.9	1921.25
804.2215	301.2152	2656.1	1893.2
804.3644	303.4246	2647.25	1884.1
804.5074	305.6334	2613.4	1851.2
804.6503	307.8418	2603.2	1837.4
804.7933	310.0495	2580.55	1815.15
804.9363	312.2568	2536.15	1770.9
805.0793	314.4635	2491.55	1722.6
805.2223	316.6696	2455.7	1685.95
805.3653	318.8752	2417.05	1639.1
805.5084	321.0802	2376.3	1603.55
805.6514	323.2847	2384.2	1612.95
805.7945	325.4887	2389.6	1615.05
805.9376	327.692	2407.8	1631.05
806.0807	329.8949	2444.35	1665.8
806.2238	332.0972	2472.75	1694.85
806.367	334.2989	2504.4	1718.1
806.5101	336.5001	2486.35	1702.1
806.6533	338.7007	2460.6	1677.5
806.7965	340.9008	2408.65	1627.2
806.9397	343.1003	2361.2	1576.3
807.0829	345.2992	2332.65	1544.85
807.2261	347.4976	2284.6	1495.6
807.3693	349.6955	2262.45	1469.95
807.5126	351.8927	2250.15	1460.25
807.6559	354.0895	2243.65	1439.5
807.7991	356.2856	2221.5	1424.1
807.9424	358.4812	2215.8	1421.2
808.0857	360.6763	2216.95	1421.1
808.2291	362.8707	2208.35	1408.25
808.3724	365.0646	2223.75	1423.95
808.5158	367.258	2227.75	1425.5
808.6591	369.4508	2242.95	1437.5
808.8025	371.643	2266.95	1462.7
808.9459	373.8346	2290.4	1486.2
809.0893	376.0257	2316.4	1509.3
809.2327	378.2162	2333.95	1526.25
809.3762	380.4062	2337.45	1528.2
809.5196	382.5956	2320.5	1512.95
809.6631	384.7844	2284.55	1483.75
809.8066	386.9726	2249.45	1448
809.9501	389.1603	2225.8	1425.1
810.0936	391.3474	2234.75	1399.35
810.2371	393.5339	2204.35	1399.95
810.3806	395.7199	2215.45	1414.15
810.5241	397.9052	2243.35	1441.05
810.6677	400.09	2282.45	1479.15
810.8113	402.2743	2324	1522
810.9548	404.4579	2365.15	1562.1
811.0984	406.641	2400.9	1595.5
811.2421	408.8235	2444.4	1635.9
811.3857	411.0054	2482.9	1673.7
811.5293	413.1868	2549	1735.45
811.673	415.3675	2606.95	1789.8
811.8166	417.5477	2601.5	1783.75
811.9603	419.7273	2547.1	1727
812.104	421.9064	2463	1637.5
812.2477	424.0848	2408.55	1589.95
812.3914	426.2627	2348.35	1526
812.5351	428.4399	2291.45	1467.25
812.6788	430.6166	2242.9	1417.05
812.8226	432.7928	2189.5	1365.25
812.9663	434.9683	2161.6	1336.4
813.1101	437.1432	2137.4	1310.75
813.2539	439.3176	2117.25	1293.65
813.3977	441.4914	2087.7	1267.35
813.5415	443.6645	2099.85	1274.7
813.6853	445.8371	2101.25	1279.15
813.8291	448.0091	2097.4	1271.3
813.973	450.1806	2107.35	1280.35
814.1168	452.3514	2100.4	1273.75
814.2607	454.5216	2094.2	1259.25
814.4046	456.6913	2087.1	1256.25
814.5485	458.8603	2096.6	1267.9
814.6924	461.0288	2100.3	1273.7
814.8363	463.1967	2089.3	1264.05
814.9802	465.3639	2088.8	1261.75
815.1241	467.5306	2100.5	1270.55
815.2681	469.6967	2080.65	1252.55
815.412	471.8622	2070.7	1245.3
815.556	474.0271	2087.3	1257.75
815.7	476.1914	2061.55	1228.05
815.844	478.3551	2058.05	1224.85
815.988	480.5182	2071.8	1242.1
816.132	482.6807	2064.65	1240.4
816.276	484.8426	2088.5	1264.15
816.4201	487.0039	2123.2	1295.8
816.5641	489.1647	2175.75	1344.15
816.7082	491.3248	2223.05	1391.75
816.8522	493.4843	2240.35	1410.2
816.9963	495.6432	2233.35	1401.05
817.1404	497.8015	2195	1358.65
817.2845	499.9592	2163.2	1321.75
817.4286	502.1163	2113.45	1272.4
817.5727	504.2728	2082.65	1242.65
817.7168	506.4287	2045.15	1214.4
817.861	508.5839	2030.45	1198
818.0051	510.7386	2037.15	1200.6
818.1493	512.8927	2033.8	1188.7
818.2935	515.0461	2033.25	1191.85
818.4377	517.199	2047.15	1205.35
818.5818	519.3512	2105.35	1263.65
818.726	521.5029	2164.15	1318.05
818.8703	523.6539	2225.55	1380
819.0145	525.8043	2215	1369.35
819.1587	527.9541	2173.1	1326.9
819.303	530.1033	2110.65	1266.4
819.4472	532.2519	2064.7	1220.2
819.5915	534.3999	2057.85	1208.95
819.7357	536.5472	2035.1	1187.5
819.88	538.694	2031.6	1186.2
820.0243	540.8401	2048.55	1196.95
820.1686	542.9856	2072	1221.5
820.3129	545.1305	2087.4	1231
820.4572	547.2748	2103.85	1246.7
820.6016	549.4185	2108.05	1250.5
820.7459	551.5615	2109.5	1253.6
820.8902	553.704	2135.9	1280.3
821.0346	555.8458	2131.4	1277.15
821.1789	557.987	2156.6	1304.55
821.3233	560.1276	2191.25	1336.05
821.4677	562.2675	2236.7	1385.7
821.6121	564.4069	2282.75	1428.55
821.7565	566.5456	2329.6	1480.8
821.9009	568.6837	2303.75	1455.5
822.0453	570.8212	2254.55	1401
822.1897	572.958	2192.9	1339.4
822.3342	575.0942	2129.5	1279.4
822.4786	577.2299	2099.95	1251.95
822.6231	579.3648	2066.15	1217.8
822.7675	581.4992	2051.55	1210.65
822.912	583.6329	2058.25	1216.65
823.0565	585.766	2084.7	1240.3
823.201	587.8985	2129.75	1283.2
823.3454	590.0304	2184.7	1318.3
823.4899	592.1616	2199.65	1341.35
823.6345	594.2922	2193.35	1335.75
823.779	596.4222	2147.2	1283.7
823.9235	598.5515	2096.25	1235.5
824.068	600.6802	2054.2	1192.45
824.2126	602.8083	2015.1	1157.15
824.3571	604.9358	2014.8	1154
824.5017	607.0626	2012.05	1150.15
824.6462	609.1888	2026.25	1162.5
824.7908	611.3144	2042.05	1180.05
824.9354	613.4393	2081.4	1213.25
825.08	615.5636	2136.05	1271.75
825.2246	617.6873	2169.85	1305.8
825.3692	619.8103	2200.5	1332.4
825.5138	621.9327	2195.9	1331.55
825.6584	624.0544	2149.2	1287.3
825.803	626.1756	2091.75	1231.6
825.9477	628.2961	2067.2	1200.8
826.0923	630.4159	2039.65	1174.4
826.237	632.5351	2038.45	1172.4
826.3816	634.6537	2023.4	1157.65
826.5263	636.7716	2017.9	1146.1
826.6709	638.8889	2014.95	1142.3
826.8156	641.0056	2025.4	1153.75
826.9603	643.1216	2020.15	1149.6
827.105	645.237	2024.3	1150
827.2497	647.3518	2001.4	1134.15
827.3944	649.4659	1989.25	1125.65
827.5391	651.5793	1968.95	1104.85
827.6838	653.6922	1962.25	1098.4
827.8285	655.8043	1944.8	1078.7
827.9733	657.9159	1941.45	1074.75
828.118	660.0268	1933.95	1062.6
828.2627	662.137	1932.15	1061.4
828.4075	664.2466	1936.55	1059.15
828.5522	666.3556	1926.1	1056.35
828.697	668.4639	1933.55	1061.5
828.8418	670.5716	1904.95	1034.7
828.9865	672.6786	1912.7	1040.35
829.1313	674.785	1910.8	1036.2
829.2761	676.8907	1906	1035.5
829.4209	678.9958	1900.8	1033
829.5657	681.1002	1904.9	1031.7
829.7105	683.204	1901.75	1022.45
829.8553	685.3072	1903.05	1026.8
830.0001	687.4097	1894.5	1019.2
830.1449	689.5115	1890.6	1009.35
830.2898	691.6127	1894.25	1020.45
830.4346	693.7132	1890.9	1020.4
830.5794	695.8131	1909.6	1016.7
830.7243	697.9123	1901.2	1020.9
830.8691	700.0109	1911.35	1033.1
831.014	702.1089	1916.25	1039.9
831.1588	704.2061	1930	1056.15
831.3037	706.3028	1947.35	1068.5
831.4486	708.3987	1973.8	1093.65
831.5935	710.4941	1981.85	1103
831.7383	712.5887	1983.5	1102.85
831.8832	714.6827	1981.55	1101.55
832.0281	716.7761	1976.65	1099.6
832.173	718.8688	1972.1	1093.8
832.3179	720.9608	1976.9	1091.15
832.4628	723.0522	1997.3	1111.2
832.6077	725.1429	2015.9	1131.4
832.7527	727.233	2061.4	1179.4
832.8976	729.3224	2111.1	1229.5
833.0425	731.4112	2159.45	1279.5
833.1874	733.4993	2155.65	1272.5
833.3324	735.5867	2107.9	1226.7
833.4773	737.6735	2039.7	1158.5
833.6222	739.7596	1989.95	1107.45
833.7672	741.845	1967.55	1083.05
833.9122	743.9298	1966.7	1083.75
834.0571	746.014	1972.85	1092.55
834.2021	748.0974	1982.95	1096.85
834.347	750.1802	1983.65	1094.85
834.492	752.2624	1974.3	1087.65
834.637	754.3439	1971.75	1084.4
834.782	756.4247	1961.45	1067.75
834.9269	758.5048	1959.8	1074.05
835.0719	760.5843	1986.2	1098
835.2169	762.6631	2017.05	1129.2
835.3619	764.7413	2068.7	1181.65
835.5069	766.8188	2147	1258.5
835.6519	768.8956	2225.4	1336.75
835.7969	770.9718	2275.75	1389.2
835.9419	773.0473	2267.4	1378.15
836.0869	775.1221	2230.75	1343.55
836.232	777.1962	2224.3	1338.65
836.377	779.2697	2271.15	1383.45
836.522	781.3426	2392.45	1485.05
836.667	783.4147	2427.4	1535.2
836.8121	785.4862	2398.15	1514.15
836.9571	787.557	2301.4	1411.95
837.1021	789.6271	2198.7	1307.95
837.2472	791.6966	2080.95	1190.45
837.3922	793.7654	2001.2	1110.6
837.5373	795.8335	1949.85	1060.15
837.6823	797.901	1931.5	1042.2
837.8274	799.9678	1914.55	1019.75
837.9724	802.0339	1912.1	1018.35
838.1175	804.0993	1929.05	1027.8
838.2626	806.1641	1905.25	1012.4
838.4076	808.2282	1892.75	1002.3
838.5527	810.2916	1877.45	986.2
838.6978	812.3544	1858.4	968
838.8428	814.4164	1853.8	964.45
838.9879	816.4778	1864.85	970.9
839.133	818.5385	1877.55	984.2
839.2781	820.5986	1909.3	1017.85
839.4232	822.658	1944.8	1051.6
839.5682	824.7166	2004.35	1110.9
839.7133	826.7747	2094.65	1203.4
839.8584	828.832	2174.85	1283
840.0035	830.8886	2229.8	1335.7
840.1486	832.9446	2242.2	1346.75
840.2937	834.9999	2205.7	1314.2
840.4388	837.0545	2142.5	1247.2
840.5839	839.1085	2065	1167.65
840.729	841.1618	1999.55	1103.55
840.8741	843.2143	1951.8	1055.4
841.0192	845.2662	1918.3	1024.8
841.1643	847.3175	1900.45	1007.2
841.3095	849.368	1896.35	1003.45
841.4546	851.4179	1885.05	991.8
841.5997	853.467	1885.6	990.6
841.7448	855.5155	1892.15	997.15
841.8899	857.5633	1891.15	995.6
842.0351	859.6105	1890.45	993.75
842.1802	861.6569	1876.95	981.25
842.3253	863.7027	1867.9	969.3
842.4704	865.7478	1857.4	959.75
842.6156	867.7922	1849.95	953.35
842.7607	869.8359	1838.6	940.6
842.9058	871.8789	1837.15	941.5
843.0509	873.9212	1880.35	950.75
843.1961	875.9629	1843.3	945.6
843.3412	878.0039	1869.3	971.45
843.4863	880.0441	1868.25	971.9
843.6315	882.0837	1885.2	988.55
843.7766	884.1226	1908.1	1008.7
843.9218	886.1609	1944.6	1047.75
844.0669	888.1984	1988.65	1090.1
844.212	890.2352	2026.05	1131.05
844.3572	892.2714	2041.25	1140.2
844.5023	894.3069	2009.9	1114.85
844.6475	896.3416	1950.4	1052.25
844.7926	898.3757	1923.9	1025.2
844.9377	900.4091	1907.8	1009.3
845.0829	902.4418	1916.65	1010.85
845.228	904.4739	1925.45	1022.95
845.3732	906.5052	1933.55	1034.05
845.5183	908.5358	1918.05	1019.75
845.6635	910.5658	1903.65	1003.7
845.8086	912.595	1869.85	970.35
845.9538	914.6236	1839.05	940.75
846.0989	916.6515	1814.4	916
846.2441	918.6786	1801.55	901.5
846.3892	920.7051	1787.55	887.35
846.5344	922.7309	1790.65	887.55
846.6795	924.756	1794.8	894.15
846.8246	926.7804	1796.25	893.3
846.9698	928.8041	1809	906.6
847.1149	930.8272	1825	922.5
847.2601	932.8495	1837.8	931.75
847.4052	934.8711	1840.55	937.5
847.5504	936.892	1844.7	943.2
847.6955	938.9123	1871	969.1
847.8407	940.9318	1881.3	980.3
847.9858	942.9506	1898.45	993.85
848.131	944.9688	1886.4	987.7
848.2761	946.9862	1863.55	964.4
848.4213	949.003	1831.95	928.85
848.5664	951.019	1806.85	905.7
848.7115	953.0344	1800.25	899.85
848.8567	955.0491	1788.8	887.55
849.0018	957.063	1778.9	876.25
849.147	959.0763	1774.6	872.35
849.2921	961.0888	1776.95	875.65
849.4373	963.1007	1779.15	877
849.5824	965.1119	1769.2	873.9
849.7275	967.1223	1758.75	865
849.8727	969.1321	1754.8	858.25
850.0178	971.1412	1745.35	844.7
850.1629	973.1495	1751.65	851.55
850.3081	975.1572	1779.95	846.85
850.4532	977.1641	1756.7	852.9
850.5983	979.1704	1755.3	853.05
850.7435	981.1759	1747.65	842.8
850.8886	983.1808	1742.7	835.8
851.0337	985.1849	1747.7	835.25
851.1788	987.1884	1740.65	838.05
851.324	989.1911	1744.95	841.15
851.4691	991.1932	1757.15	854.9
851.6142	993.1945	1751.85	849.7
851.7593	995.1951	1746.4	841.7
851.9045	997.1951	1756.35	846.75
852.0496	999.1943	1738.2	834
852.1947	1001.1928	1743.05	838.55
852.3398	1003.1906	1756.8	855.6
852.4849	1005.1877	1777.85	872.9
852.63	1007.1841	1783.9	882.35
852.7751	1009.1798	1804.3	900.95
852.9202	1011.1748	1793.7	893.3
853.0653	1013.1691	1781.4	876.2
853.2104	1015.1627	1741.8	835.7
853.3555	1017.1556	1711.55	807.9
853.5006	1019.1477	1699.05	794.15
853.6457	1021.1392	1676.2	778.25
853.7908	1023.1299	1682	783
853.9359	1025.12	1678.65	784.8
854.081	1027.1093	1678.2	787.75
854.2261	1029.0979	1692.6	803.05
854.3712	1031.0859	1712.8	820.65
854.5163	1033.0731	1726.4	827.8
854.6613	1035.0596	1727.75	829.3
854.8064	1037.0454	1716.9	815.25
854.9515	1039.0304	1705.25	801.3
855.0965	1041.0148	1685.85	785.15
855.2416	1042.9985	1668.95	762.2
855.3867	1044.9814	1671.7	769.65
855.5317	1046.9636	1666.6	762.6
855.6768	1048.9452	1667.1	767.65
855.8219	1050.926	1680	779.85
855.9669	1052.9061	1691.95	792.45
856.112	1054.8855	1695.95	792.9
856.257	1056.8642	1691	786.15
856.4021	1058.8421	1697.8	791.75
856.5471	1060.8194	1697.45	793.4
856.6921	1062.7959	1694.05	790.25
856.8372	1064.7717	1691.65	786.2
856.9822	1066.7469	1690.65	786.15
857.1272	1068.7213	1703.45	798.5
857.2723	1070.695	1708.9	805.6
857.4173	1072.6679	1733.85	831.1
857.5623	1074.6402	1755.05	850.9
857.7073	1076.6117	1746.1	834.75
857.8523	1078.5826	1728.5	823.2
857.9973	1080.5527	1696.1	786.9
858.1423	1082.5221	1666.75	762.7
858.2873	1084.4908	1641.95	734.95
858.4323	1086.4587	1630.9	726.25
858.5773	1088.426	1632.5	728.6
858.7223	1090.3925	1632.4	723.75
858.8673	1092.3584	1638.6	735.35
859.0123	1094.3235	1644	743.05
859.1573	1096.2879	1659.4	755.65
859.3022	1098.2515	1680	776.3
859.4472	1100.2145	1712.4	809.6
859.5922	1102.1767	1745.7	837.75
859.7371	1104.1382	1770	863.5
859.8821	1106.099	1814.35	908.5
860.027	1108.0591	1856.4	952.25
860.172	1110.0185	1902.15	996.8
860.3169	1111.9771	1930.75	1027.9
860.4619	1113.9351	1970.75	1066.35
860.6068	1115.8923	2022.55	1117.8
860.7517	1117.8488	2029.7	1124.45
860.8967	1119.8045	1991.75	1086.75
861.0416	1121.7596	1907.4	1003.65
861.1865	1123.7139	1823.25	921.25
861.3314	1125.6675	1774.8	868.45
861.4763	1127.6204	1789.25	885.9
861.6212	1129.5726	1792.1	886.1
861.7661	1131.524	1798.75	896.5
861.911	1133.4748	1752.4	847.7
862.0559	1135.4248	1708.2	801.9
862.2008	1137.3741	1658.75	752.85
862.3457	1139.3226	1645.3	739
862.4905	1141.2705	1644.6	740.2
862.6354	1143.2176	1649	738.3
862.7803	1145.164	1654.75	749.05
862.9251	1147.1097	1652.9	748.05
863.07	1149.0546	1625.1	719.2
863.2148	1150.9989	1613.85	709.55
863.3597	1152.9424	1583.45	679.3
863.5045	1154.8852	1574.5	669
863.6493	1156.8272	1575.05	671.85
863.7942	1158.7686	1582.55	671.45
863.939	1160.7092	1580.65	677.25
864.0838	1162.6491	1585.3	674.35
864.2286	1164.5883	1593.7	689.6
864.3734	1166.5267	1602.3	695.75
864.5182	1168.4644	1633	729.1
864.663	1170.4014	1661.2	752.6
864.8078	1172.3377	1699.6	798.55
864.9526	1174.2732	1754.2	852.45
865.0974	1176.2081	1832.75	926.95
865.2421	1178.1421	1951.75	1042.45
865.3869	1180.0755	2037.3	1132.2
865.5317	1182.0082	2072.45	1171.2
865.6764	1183.9401	2050.05	1146.6
865.8212	1185.8713	1959.55	1060.55
865.9659	1187.8017	1841.7	944.9
866.1106	1189.7315	1748	852.05
866.2554	1191.6605	1710.85	790.45
866.4001	1193.5888	1649.2	751.9
866.5448	1195.5163	1632.2	732.35
866.6895	1197.4432	1618.55	715.55
866.8342	1199.3693	1600.05	697.95
866.9789	1201.2947	1594.75	690.5
867.1236	1203.2193	1577.1	674.6
867.2683	1205.1432	1580.5	677.1
867.413	1207.0664	1582.9	678.55
867.5576	1208.9889	1585.9	679.8
867.7023	1210.9106	1590.45	687.95
867.847	1212.8316	1584.7	683
867.9916	1214.7519	1607.8	694.3
868.1363	1216.6715	1607.15	703.05
868.2809	1218.5903	1617.8	713.25
868.4255	1220.5084	1636.65	735.1
868.5701	1222.4257	1644.95	738.3
868.7148	1224.3424	1648.95	745.65
868.8594	1226.2583	1679.15	772.25
869.004	1228.1735	1707.9	801.4
869.1486	1230.0879	1746.45	839.65
869.2932	1232.0016	1772.3	869.35
869.4377	1233.9146	1808.7	901.6
869.5823	1235.8269	1826.15	924.4
869.7269	1237.7384	1839.7	935.65
869.8715	1239.6492	1837.95	933.55
870.016	1241.5592	1856.3	951.95
870.1606	1243.4686	1894.95	991.5
870.3051	1245.3772	1978.3	1073
870.4496	1247.285	2048.4	1144.75
870.5941	1249.1922	2119.5	1214.95
870.7387	1251.0986	2177.7	1274.1
870.8832	1253.0042	2254.05	1349.65
871.0277	1254.9092	2316.75	1413.95
871.1722	1256.8134	2383.7	1481.3
871.3167	1258.7169	2443.35	1539.2
871.4611	1260.6196	2458.7	1554.25
871.6056	1262.5216	2453.15	1546.95
871.7501	1264.4229	2426.6	1523
871.8945	1266.3234	2406.5	1501.5
872.039	1268.2232	2363.05	1458.85
872.1834	1270.1223	2322.35	1415.1
872.3278	1272.0207	2291.4	1384.95
872.4723	1273.9183	2284.1	1373.75
872.6167	1275.8151	2280.4	1376.55
872.7611	1277.7113	2329.9	1424.2
872.9055	1279.6067	2417.8	1514.55
873.0499	1281.5014	2535.15	1629.25
873.1943	1283.3953	2687.8	1780.5
873.3386	1285.2885	2835.65	1932.75
873.483	1287.181	2925.2	2019.95
873.6274	1289.0727	2962.2	2058.2
873.7717	1290.9637	2922.7	2017.35
873.9161	1292.854	2846.95	1944.8
874.0604	1294.7435	2791.15	1885.2
874.2047	1296.6323	2670.65	1765.75
874.349	1298.5204	2616.3	1707.65
874.4933	1300.4077	2561.25	1653.25
874.6376	1302.2943	2514.7	1609.7
874.7819	1304.1802	2489.4	1585.15
874.9262	1306.0653	2461.3	1555.3
875.0705	1307.9497	2409.2	1505.15
875.2147	1309.8333	2382.3	1476.85
875.359	1311.7162	2341.5	1437.4
875.5032	1313.5984	2314.75	1405.1
875.6475	1315.4798	2298.65	1387.65
875.7917	1317.3605	2292.95	1373.25
875.9359	1319.2405	2269.05	1361.2
876.0801	1321.1197	2236.75	1331.75
876.2243	1322.9982	2173.75	1266.05
876.3685	1324.876	2113.5	1209.3
876.5127	1326.753	2031.55	1125.25
876.6569	1328.6293	1951.8	1044.7
876.801	1330.5048	1892.3	985.9
876.9452	1332.3796	1834.7	928.55
877.0893	1334.2537	1815.6	887.75
877.2335	1336.127	1755.7	849.3
877.3776	1337.9996	1730.8	825.45
877.5217	1339.8714	1718.4	813.9
877.6658	1341.7426	1746.45	800.3
877.8099	1343.6129	1694.85	786
877.954	1345.4826	1685.15	777.4
878.0981	1347.3515	1666.1	757.7
878.2422	1349.2196	1655.35	752.05
878.3862	1351.087	1656.9	751.9
878.5303	1352.9537	1647.9	741.15
878.6743	1354.8197	1648.4	742.95
878.8184	1356.6849	1661.05	755.6
878.9624	1358.5493	1677.3	772.7
879.1064	1360.4131	1697.7	792.25
879.2504	1362.276	1729.85	826.35
879.3944	1364.1383	1760.95	856.85
879.5384	1365.9998	1784.2	871.45
879.6823	1367.8606	1758.45	853.5
879.8263	1369.7206	1744.15	837.7
879.9702	1371.5799	1740.95	835.3
880.1142	1373.4384	1731.1	824.6
880.2581	1375.2962	1715.15	810.05
880.402	1377.1533	1662.35	756
880.5459	1379.0096	1623.65	723.05
880.6898	1380.8652	1590.15	688.05
880.8337	1382.7201	1561.8	656.85
880.9776	1384.5742	1546.6	639.3
881.1215	1386.4275	1528.1	618.9
881.2653	1388.2802	1517.75	610.85
881.4092	1390.132	1505.1	601.65
881.553	1391.9832	1496.6	589.1
881.6968	1393.8336	1480.8	576.55
881.8406	1395.6832	1476.9	568.6
881.9844	1397.5322	1478	572.6
882.1282	1399.3803	1469	559.55
882.272	1401.2278	1456.85	552.25
882.4158	1403.0745	1446.2	542.05
882.5595	1404.9204	1441.6	537.85
882.7033	1406.7656	1437.3	532.6
882.847	1408.6101	1435.45	529.95
882.9908	1410.4538	1434.85	531.9
883.1345	1412.2968	1426.15	519.4
883.2782	1414.139	1433.2	528.75
883.4219	1415.9805	1442.55	537.85
883.5656	1417.8213	1458.95	548.5
883.7092	1419.6613	1462.6	559.95
883.8529	1421.5006	1489.3	584.45
883.9965	1423.3391	1527	623.45
884.1402	1425.1769	1569.2	661.85
884.2838	1427.0139	1628.95	724
884.4274	1428.8502	1698.9	793.45
884.571	1430.6858	1759.6	856.7
884.7146	1432.5206	1783.7	881.2
884.8582	1434.3547	1783.55	881.85
885.0018	1436.188	1753.2	848.7
885.1453	1438.0206	1749.6	842.25
885.2889	1439.8524	1740.15	834.05
885.4324	1441.6835	1729.3	825.3
885.5759	1443.5139	1734.05	824.8
885.7194	1445.3435	1735.75	831.85
885.8629	1447.1724	1740.4	838.25
886.0064	1449.0005	1738.05	835.25
886.1499	1450.8279	1735.95	830.8
886.2933	1452.6545	1717.8	814.2
886.4368	1454.4804	1728.85	825.35
886.5802	1456.3056	1719.15	807.15
886.7237	1458.13	1692.85	788.7
886.8671	1459.9536	1680.05	778.5
887.0105	1461.7766	1650.25	747.4
887.1539	1463.5987	1608.2	704.45
887.2972	1465.4202	1584.65	681.95
887.4406	1467.2409	1548.85	641.1
887.584	1469.0608	1517.95	612.85
887.7273	1470.88	1489	584.65
887.8706	1472.6984	1465.85	560.25
888.0139	1474.5161	1453.6	548.05
888.1572	1476.3331	1440.35	537.75
888.3005	1478.1493	1427.6	524.5
888.4438	1479.9648	1432.3	530.7
888.5871	1481.7795	1420.85	516.1
888.7303	1483.5935	1427.65	522.65
888.8736	1485.4067	1435.4	531.35
889.0168	1487.2192	1426.15	521.85
889.16	1489.031	1422.25	516.6
889.3032	1490.842	1428	525.75
889.4464	1492.6522	1422.65	516.7
889.5896	1494.4618	1424.5	520.4
889.7327	1496.2705	1413.55	512.65
889.8759	1498.0785	1402.95	499.3
890.019	1499.8858	1404.25	500
890.1622	1501.6924	1397.45	495.6
890.3053	1503.4981	1387.05	482.4
890.4484	1505.3032	1388.35	484.7
890.5914	1507.1075	1378.1	475.25
890.7345	1508.911	1374.8	471.9
890.8776	1510.7138	1367.7	463.7
891.0206	1512.5159	1364	459.75
891.1637	1514.3172	1355.25	450.35
891.3067	1516.1178	1346.45	446.55
891.4497	1517.9176	1346.4	441.6
891.5927	1519.7166	1340.55	438.6
891.7357	1521.515	1346.65	437.45
891.8786	1523.3126	1333.05	431.85
892.0216	1525.1094	1330.1	426.55
892.1645	1526.9055	1324.6	425.35
892.3074	1528.7008	1318.85	417.45
892.4503	1530.4954	1324.9	418.4
892.5932	1532.2893	1315.1	414.65
892.7361	1534.0824	1323.45	416.5
892.879	1535.8747	1316.15	417
893.0218	1537.6663	1312.75	412.4
893.1647	1539.4572	1318.1	416.7
893.3075	1541.2473	1318.45	416.7
893.4503	1543.0367	1312.85	413.3
893.5931	1544.8253	1324.2	419.3
893.7359	1546.6132	1317.5	413.35
893.8787	1548.4003	1333.7	421.75
894.0214	1550.1867	1336.6	426.1
894.1642	1551.9723	1337.65	435.45
894.3069	1553.7572	1350.5	451.1
894.4496	1555.5414	1374.8	474.65
894.5923	1557.3247	1392.4	495.2
894.735	1559.1074	1421.9	524.1
894.8777	1560.8893	1455.95	558.35
895.0204	1562.6705	1481	581.45
895.163	1564.4509	1499.5	602.15
895.3056	1566.2305	1513.35	618.35
895.4482	1568.0094	1511.85	616.6
895.5908	1569.7876	1501.15	604.75
895.7334	1571.565	1498.35	600.25
895.876	1573.3417	1496.65	598.4
896.0186	1575.1176	1505.2	607.95
896.1611	1576.8928	1515.4	618.8
896.3036	1578.6672	1524.55	633.3
896.4461	1580.4409	1546.35	654.65
896.5886	1582.2138	1575.95	678.5
896.7311	1583.986	1607	710.95
896.8736	1585.7575	1643.6	747.35
897.0161	1587.5282	1657.2	763.95
897.1585	1589.2981	1680.35	783.85
897.3009	1591.0673	1706.25	811.65
897.4433	1592.8358	1699.2	804.8
897.5857	1594.6035	1708.7	812
897.7281	1596.3704	1709.7	814
897.8705	1598.1366	1689.4	793.55
898.0128	1599.9021	1670.3	774.9
898.1551	1601.6668	1654.9	757.85
898.2975	1603.4308	1651.35	754.1
898.4398	1605.194	1671.2	769.75
898.5821	1606.9564	1683.55	791.2
898.7243	1608.7182	1735.65	842.95
898.8666	1610.4791	1798.5	909.75
899.0088	1612.2394	1877.65	988.9
899.1511	1613.9988	1949.55	1056.8
899.2933	1615.7576	2000.9	1109.9
899.4355	1617.5156	2018.5	1117.95
899.5776	1619.2728	1969.75	1072.85
899.7198	1621.0293	1895.85	1000.75
899.862	1622.785	1793.75	897.65
900.0041	1624.54	1702.3	808.6
900.1462	1626.2942	1615.85	725.55
900.2883	1628.0477	1540.55	644.4
900.4304	1629.8005	1473.1	577.7
900.5725	1631.5525	1424.25	531.65
900.7145	1633.3037	1381.2	489.95
900.8566	1635.0542	1347.35	456
900.9986	1636.804	1330.3	437.75
901.1406	1638.553	1369.5	407.85
901.2826	1640.3013	1292.4	399.05
901.4245	1642.0488	1273.25	379.4
901.5665	1643.7955	1263.45	372.6
901.7085	1645.5416	1247.55	356.3
901.8504	1647.2868	1243.3	349.7
901.9923	1649.0313	1233.85	342.5
902.1342	1650.7751	1240.9	344.1
902.2761	1652.5181	1233.2	340.3
902.4179	1654.2604	1230.2	339.15
902.5598	1656.0019	1236.9	346.55
902.7016	1657.7427	1252.5	359.7
902.8434	1659.4828	1274	378.1
902.9852	1661.222	1299	403.8
903.127	1662.9606	1316.75	424.25
903.2687	1664.6984	1330.25	435.9
903.4105	1666.4354	1331.9	436.65
903.5522	1668.1717	1307.45	410.7
903.6939	1669.9072	1270.6	375.1
903.8356	1671.642	1239.5	342.5
903.9773	1673.3761	1211.1	315.95
904.119	1675.1094	1194.3	300.5
904.2606	1676.8419	1175.3	280.75
904.4022	1678.5737	1160.35	265.3
904.5439	1680.3048	1154.85	262.25
904.6855	1682.0351	1152.35	258.9
904.827	1683.7646	1150.25	252.35
904.9686	1685.4934	1141.7	247.3
905.1101	1687.2215	1137.7	241.9
905.2517	1688.9488	1135.6	242.65
905.3932	1690.6754	1136.85	244.45
905.5347	1692.4012	1129.15	235.2
905.6761	1694.1263	1127.6	232.05
905.8176	1695.8506	1126.25	231.75
905.9591	1697.5742	1122.9	230.4
906.1005	1699.297	1117.8	225.7
906.2419	1701.0191	1119.95	229
906.3833	1702.7404	1111.7	221.2
906.5246	1704.461	1118.9	224.95
906.666	1706.1808	1114.55	220.45
906.8073	1707.8999	1111.25	217.35
906.9487	1709.6182	1107.6	218
907.09	1711.3358	1099.8	211.6
907.2313	1713.0527	1103.9	217.05
907.3725	1714.7688	1110.95	217.6
907.5138	1716.4841	1106.65	211.15
907.655	1718.1987	1105.3	210.1
907.7962	1719.9126	1096.8	208.35
907.9374	1721.6257	1101.4	210.1
908.0786	1723.338	1091.6	203.7
908.2198	1725.0496	1092.45	200.3
908.3609	1726.7605	1095.25	204.45
908.502	1728.4706	1093.05	202.7
908.6431	1730.18	1091.2	196.25
908.7842	1731.8886	1093.25	205.1
908.9253	1733.5964	1113.85	204.15
909.0664	1735.3036	1096.65	203.1
909.2074	1737.0099	1087.6	194.85
909.3484	1738.7156	1083.95	194.5
909.4894	1740.4204	1091.45	198.45
909.6304	1742.1246	1089	198.4
909.7714	1743.8279	1091.25	200.05
909.9123	1745.5306	1089.65	200.5
910.0532	1747.2325	1086.9	196.6
910.1941	1748.9336	1086.25	196.55
910.335	1750.634	1090.5	195.95
910.4759	1752.3336	1084.9	193.85
910.6168	1754.0325	1086.15	198.6
910.7576	1755.7307	1083.3	192.35
910.8984	1757.4281	1089.75	199.6
911.0392	1759.1247	1094.6	193.15
911.18	1760.8206	1091.05	191.15
911.3208	1762.5158	1087.4	191.3
911.4615	1764.2102	1078.7	188.15
911.6022	1765.9039	1083.5	193.15
911.7429	1767.5968	1077.05	189.2
911.8836	1769.289	1075.75	185.25
912.0243	1770.9804	1080.5	187.45
912.1649	1772.6711	1080.85	187.3
912.3056	1774.361	1085.75	192
912.4462	1776.0502	1081.65	191.05
912.5868	1777.7386	1080.6	184.5
912.7274	1779.4263	1074.45	185.15
912.8679	1781.1132	1073.8	185.1
913.0084	1782.7994	1076.95	187.25
913.149	1784.4849	1073.35	185.25
913.2895	1786.1696	1094.1	185.2
913.4299	1787.8535	1070.1	181.65
913.5704	1789.5367	1069.5	180.95
913.7108	1791.2192	1071.85	183.1
913.8513	1792.9009	1097.1	181.05
913.9917	1794.5818	1074.15	181.05
914.132	1796.2621	1075.05	184.05
914.2724	1797.9415	1069.3	178.35
914.4128	1799.6202	1073.15	181.55
914.5531	1801.2982	1069.95	177.7
914.6934	1802.9755	1070.05	176.45
914.8337	1804.6519	1069.75	178.8
914.9739	1806.3277	1067.5	178.4
915.1142	1808.0027	1059.9	172.55
915.2544	1809.6769	1064	177.8
915.3946	1811.3504	1063.25	174.65
915.5348	1813.0231	1069.5	181.65
915.675	1814.6951	1067.55	179.35
915.8151	1816.3664	1066.7	175.45
915.9553	1818.0369	1066.6	173.45
916.0954	1819.7067	1059.85	169.9
916.2355	1821.3757	1067.65	175.35
916.3755	1823.044	1066.85	175.9
916.5156	1824.7115	1062.45	172.4
916.6556	1826.3783	1060.8	169.75
916.7956	1828.0443	1060.05	171.45
916.9356	1829.7096	1063.55	173.55
917.0756	1831.3741	1066.1	173.8
917.2155	1833.0379	1056.85	168.75
917.3555	1834.701	1060.55	170.45
917.4954	1836.3633	1057.6	169
917.6353	1838.0248	1056.9	164.6
917.7751	1839.6856	1054.95	165.1
917.915	1841.3457	1058.15	167.3
918.0548	1843.005	1054.15	163
918.1946	1844.6636	1053.4	163.05
918.3344	1846.3214	1052.2	161.05
918.4742	1847.9785	1056.2	164.7
918.6139	1849.6349	1057	165.7
918.7537	1851.2904	1065.55	165.5
918.8934	1852.9453	1057.45	166.5
919.0331	1854.5994	1057.05	163
919.1727	1856.2528	1057.3	160.55
919.3124	1857.9054	1055.25	162.5
919.452	1859.5572	1054	166.25
919.5916	1861.2083	1054.05	163.5
919.7312	1862.8587	1053.55	164
919.8708	1864.5084	1053.9	160.6
920.0103	1866.1572	1051	159.25
920.1498	1867.8054	1051.45	156.05
920.2893	1869.4528	1054.55	161.15
920.4288	1871.0994	1049.1	156.35
920.5683	1872.7453	1050.15	159.4
920.7077	1874.3905	1052.2	154.25
920.8471	1876.0349	1049.55	157.3
920.9865	1877.6786	1049.6	157.3
921.1259	1879.3215	1048.8	159.75
921.2653	1880.9637	1047.55	155.85
921.4046	1882.6051	1044.2	152.65
921.5439	1884.2458	1045.65	151.35
921.6832	1885.8858	1047.15	155.9
921.8225	1887.525	1047.2	156.75
921.9617	1889.1634	1046.8	154.6
922.101	1890.8011	1044.4	153.55
922.2402	1892.4381	1045.2	154.65
922.3794	1894.0743	1044.4	154.15
922.5185	1895.7098	1048.95	158.3
922.6577	1897.3446	1045.75	154.3
922.7968	1898.9786	1050.5	156.15
922.9359	1900.6118	1038.7	147.6
923.075	1902.2443	1046.1	152.15
923.214	1903.8761	1041.3	149.9
923.3531	1905.5071	1042	150.4
923.4921	1907.1374	1039.6	147.8
923.6311	1908.7669	1041.35	152.7
923.77	1910.3957	1037.9	146.6
923.909	1912.0237	1037.3	147.3
924.0479	1913.651	1035.45	144.85
924.1868	1915.2776	1040.4	149.55
924.3257	1916.9034	1035.9	147
924.4646	1918.5285	1034.15	144.55
924.6034	1920.1528	1035.15	144.95
924.7422	1921.7764	1037.15	146.2
924.881	1923.3992	1033.3	142.35
925.0198	1925.0213	1035.2	144
925.1586	1926.6427	1031.9	141.25
925.2973	1928.2633	1239.2	135.8
925.436	1929.8832	1034.95	138.75
925.5747	1931.5023	1034.9	142.4
925.7134	1933.1207	1031.35	140.95
925.852	1934.7383	1035	145.55
925.9906	1936.3552	1031.35	140.6
926.1292	1937.9714	1031.2	142.35
926.2678	1939.5868	1036.4	144.85
926.4064	1941.2015	1036.4	145.35
926.5449	1942.8154	1033.35	141.6
926.6834	1944.4286	1028.8	136.65
926.8219	1946.041	1053.4	140.75
926.9604	1947.6528	1033.9	137.9
927.0988	1949.2637	1029.15	139
927.2372	1950.8739	1027.9	137.6
927.3756	1952.4834	1028.35	138.2
927.514	1954.0921	1033.3	145.85
927.6523	1955.7001	1028.05	133.3
927.7907	1957.3074	1025.15	136.85
927.929	1958.9139	1024.2	136.8
928.0673	1960.5197	1026.6	138.5
928.2055	1962.1247	1027.85	140.6
928.3438	1963.729	1020	132.6
928.482	1965.3325	1029.3	136.5
928.6202	1966.9353	1022.5	137.8
928.7584	1968.5374	1026.15	139.15
928.8965	1970.1387	1019.15	131.15
929.0346	1971.7393	1021.65	134.5
929.1727	1973.3392	1023.2	136
929.3108	1974.9383	1015.5	130.7
929.4489	1976.5366	1018.85	131.45
929.5869	1978.1342	1018.25	133.6
929.7249	1979.7311	1017.45	131.25
929.8629	1981.3273	1016.4	134.35
930.0009	1982.9227	1019.7	132.9
930.1388	1984.5173	1019.45	134.65
930.2767	1986.1112	1020.05	135.15
930.4146	1987.7044	1010.5	125.05
930.5525	1989.2968	1016.15	127.5
930.6904	1990.8885	1017	128.45
930.8282	1992.4795	1014	127.65
930.966	1994.0697	1013.65	131
931.1038	1995.6592	1014.25	130.2
931.2415	1997.2479	1013.4	125.5
931.3793	1998.8359	1012.6	130.25
931.517	2000.4232	1006.8	124.3
931.6547	2002.0097	1012.6	131.75
931.7923	2003.5955	1010.1	125.95
931.93	2005.1805	1010.8	127.45
932.0676	2006.7648	1011.05	127.8
932.2052	2008.3484	1009.9	125.2
932.3427	2009.9312	1008.8	124.05
932.4803	2011.5133	1008.15	126.5
932.6178	2013.0946	1009.35	126.55
932.7553	2014.6752	1005.55	125.85
932.8928	2016.2551	1009.85	125.75
933.0302	2017.8342	1010.25	127.5
933.1676	2019.4126	1006.2	126.5
933.305	2020.9902	1005.75	125.7
933.4424	2022.5672	1010	130
933.5798	2024.1433	1012.8	125.9
933.7171	2025.7188	1005.5	126.05
933.8544	2027.2935	1002.3	121.15
933.9917	2028.8674	1003.6	120.35
934.129	2030.4406	1003.05	123.95
934.2662	2032.0131	1002.45	123.55
934.4034	2033.5849	1008.45	121.35
934.5406	2035.1559	1004.35	124.6
934.6778	2036.7261	1007.75	124.7
934.8149	2038.2957	1008.35	124.2
934.952	2039.8645	1004.1	120.2
935.0891	2041.4325	1008.35	122.7
935.2262	2042.9998	1006.35	125.7
935.3632	2044.5664	1008	124.6
935.5002	2046.1323	1003.5	121
935.6372	2047.6974	1000.15	119.2
935.7742	2049.2617	999.85	117.15
935.9111	2050.8254	1009.6	122.3
936.048	2052.3883	1006.8	122.35
936.1849	2053.9504	1005.1	119.9
936.3218	2055.5118	1008.75	126.05
936.4586	2057.0725	1006.85	118.2
936.5955	2058.6325	1000.95	120.15
936.7323	2060.1917	995.7	116.55
936.869	2061.7502	1003.65	119
937.0058	2063.3079	1001.85	121.45
937.1425	2064.8649	1002.85	118.15
937.2792	2066.4212	1000.1	119.45
937.4159	2067.9767	1003.4	121.55
937.5525	2069.5315	1002	121.55
937.6891	2071.0856	1008.35	126.25
937.8257	2072.6389	1004.95	123.95
937.9623	2074.1915	998.9	120
938.0989	2075.7433	1002.1	116.75
938.2354	2077.2945	999.65	118.85
938.3719	2078.8448	1000.9	120.2
938.5084	2080.3945	1002.85	118.65
938.6448	2081.9434	999.4	116.3
938.7812	2083.4916	1002.05	117.5
938.9176	2085.039	1005.2	119.25
939.054	2086.5857	1004.65	119.05
939.1903	2088.1317	1007.25	121.1
939.3267	2089.677	1007.95	121.4
939.463	2091.2215	1005.75	119.7
939.5992	2092.7652	1008.1	120.6
939.7355	2094.3083	1001.4	115.05
939.8717	2095.8506	999.95	115.1
940.0079	2097.3921	1003.1	119.65
940.1441	2098.933	1003.75	120.1
940.2802	2100.4731	1001.9	117.1
940.4163	2102.0124	1020.5	117.75
940.5524	2103.5511	1003.75	118.1
940.6885	2105.089	1002.65	118.05
940.8245	2106.6261	1001.8	116.9
940.9606	2108.1626	1002.35	118.65
941.0965	2109.6983	1026.3	112.1
941.2325	2111.2332	1002.8	117.15
941.3684	2112.7675	1005.3	121.75
941.5044	2114.301	1005.95	117.35
941.6403	2115.8337	1001.3	117.1
941.7761	2117.3657	1000.25	116.5
941.912	2118.897	1000.65	114.85
942.0478	2120.4276	1008.85	116.9
942.1835	2121.9575	1003.35	119.35
942.3193	2123.4866	1007.95	120.45
942.455	2125.0149	1000.7	114.95
942.5907	2126.5426	998	114.4
942.7264	2128.0695	998.2	114.1
942.8621	2129.5956	994.45	114.7
942.9977	2131.1211	1000	113.05
943.1333	2132.6458	996.5	112.55
943.2689	2134.1698	1003.4	119.3
943.4044	2135.693	1005.7	119.75
943.54	2137.2155	1002.7	116.5
943.6755	2138.7373	998.95	115.85
943.8109	2140.2584	997.2	114.75
943.9464	2141.7787	1004.2	118.9
944.0818	2143.2983	994.9	113.95
944.2172	2144.8171	996.1	118.45
944.3526	2146.3353	999.35	115.2
944.4879	2147.8527	996.25	115.2
944.6232	2149.3693	992.75	108.8
944.7585	2150.8853	998.5	112.85
944.8938	2152.4005	997.3	112.85
945.029	2153.9149	998.05	112.6
945.1642	2155.4287	997.45	114.15
945.2994	2156.9417	994.35	109.55
945.4346	2158.454	997.8	111.8
945.5697	2159.9655	992.05	110.8
945.7048	2161.4764	992.8	109.1
945.8399	2162.9865	994.4	111.95
945.9749	2164.4958	996.8	113.35
946.1099	2166.0045	995.3	110.9
946.2449	2167.5124	996.05	114.2
946.3799	2169.0195	995.45	112.55
946.5148	2170.526	995.1	107.55
946.6498	2172.0317	998.45	115.55
946.7846	2173.5367	994.5	109.3
946.9195	2175.0409	992.75	110.55
947.0543	2176.5445	992.55	109.25
947.1891	2178.0473	996.7	112.5
947.3239	2179.5494	997.5	108.55
947.4587	2181.0507	995.95	110.5
947.5934	2182.5513	995.6	112.25
947.7281	2184.0512	995.75	109.5
947.8628	2185.5504	993.45	111.9
947.9974	2187.0488	990	109.75
948.132	2188.5465	992.6	110.45
948.2666	2190.0435	992.5	109.4
948.4012	2191.5397	990.65	106.45
948.5357	2193.0353	992.85	108.8
948.6702	2194.5301	998.85	114.6
948.8047	2196.0241	993.4	106.35
948.9392	2197.5175	994.3	110.1
949.0736	2199.0101	996.6	108.3
949.208	2200.502	992.05	109.8
949.3424	2201.9931	989.95	108.95
949.4767	2203.4835	988.8	106.1
949.611	2204.9733	1005.6	105.95
949.7453	2206.4622	988.3	108.85
949.8796	2207.9505	990.75	106.85
950.0138	2209.438	986.75	107.25
950.148	2210.9248	988.05	103.6
950.2822	2212.4109	987.6	105.65
950.4164	2213.8962	992.75	107.95
950.5505	2215.3809	989.5	102.2
950.6846	2216.8648	989.25	101.25
950.8186	2218.3479	991.8	99.7
950.9527	2219.8304	992.5	102.85
951.0867	2221.3121	988.05	99.45
951.2207	2222.7931	989.7	101.35
951.3546	2224.2733	988.75	102
951.4886	2225.7529	987.3	102.75
951.6225	2227.2317	988.6	103.25
951.7563	2228.7098	984.35	104.45
951.8902	2230.1872	982.05	100.2
952.024	2231.6638	987.15	105.95
952.1578	2233.1397	986.85	100.25
952.2916	2234.6149	983.8	100.75
952.4253	2236.0894	985.95	104.85
952.559	2237.5632	994.4	103.35
952.6927	2239.0362	985	101.45
952.8263	2240.5085	983.15	101.85
952.9599	2241.9801	983.55	99.8
953.0935	2243.4509	979.9	94.75
953.2271	2244.921	984	98.65
953.3606	2246.3904	988.55	101.3
953.4941	2247.8591	983.35	99.1
953.6276	2249.3271	984	100.15
953.7611	2250.7943	985.45	98.55
953.8945	2252.2608	980.05	94.4
954.0279	2253.7266	982.45	99.1
954.1612	2255.1917	980.9	98.1
954.2946	2256.656	978.85	94.2
954.4279	2258.1197	976.45	93.55
954.5612	2259.5826	981.35	97.55
954.6944	2261.0447	978.2	92.7
954.8276	2262.5062	979.85	92.55
954.9608	2263.9669	980.85	96.7
955.094	2265.4269	978.5	95.35
955.2271	2266.8862	979	97.3
955.3602	2268.3448	975.15	91.15
955.4933	2269.8026	977.95	92.6
955.6264	2271.2598	976.95	95.55
955.7594	2272.7162	978.1	96.95
955.8924	2274.1719	977.4	92.2
956.0253	2275.6268	977.7	90.7
956.1583	2277.0811	979.5	94.05
956.2912	2278.5346	974.85	91.65
956.4241	2279.9874	974.35	91.45
956.5569	2281.4395	975.65	95.45
956.6897	2282.8908	983.3	95.4
956.8225	2284.3414	977.4	92.95
956.9553	2285.7914	976	94.05
957.088	2287.2406	978.45	94.1
957.2207	2288.689	976.3	90.75
957.3534	2290.1368	980.65	94.3
957.486	2291.5838	977.75	90.25
957.6186	2293.0302	979.4	91.15
957.7512	2294.4758	975.85	91.95
957.8838	2295.9206	980.15	95
958.0163	2297.3648	973.35	91.7
958.1488	2298.8082	973.7	88.5
958.2813	2300.251	974.4	90.1
958.4137	2301.693	979.25	93.65
958.5461	2303.1343	975.3	91
958.6785	2304.5748	975.45	92.9
958.8108	2306.0147	974.9	91
958.9432	2307.4538	973.25	85.8
959.0754	2308.8922	971.15	91.3
959.2077	2310.3299	972.05	90.55
959.3399	2311.7669	974.35	92.05
959.4721	2313.2031	971.4	87.65
959.6043	2314.6387	972.65	88.45
959.7365	2316.0735	972.55	87.2
959.8686	2317.5076	974.35	88.75
960.0006	2318.941	973.25	87.65
960.1327	2320.3737	971.95	85.3
960.2647	2321.8056	975.2	87.6
960.3967	2323.2369	977.35	91.7
960.5287	2324.6674	978.1	92.85
960.6606	2326.0972	979.9	95.35
960.7925	2327.5263	981.9	97.3
960.9244	2328.9547	985	99.95
961.0562	2330.3823	981.9	95.4
961.1881	2331.8092	977.35	89.2
961.3198	2333.2355	972.3	86.9
961.4516	2334.661	976.5	90.95
961.5833	2336.0858	972.1	84.65
961.715	2337.5098	968.65	85.2
961.8467	2338.9332	970	85.45
961.9783	2340.3558	969.3	81.5
962.1099	2341.7778	967.05	82.6
962.2415	2343.199	966.25	80.95
962.373	2344.6195	968.7	84.55
962.5045	2346.0393	966.7	84.85
962.636	2347.4583	973.85	88.95
962.7675	2348.8767	972.05	87.15
962.8989	2350.2943	973.25	86.8
963.0303	2351.7113	971.5	84.4
963.1617	2353.1275	970.65	84.25
963.293	2354.543	999.3	87.55
963.4243	2355.9578	968.6	81.2
963.5556	2357.3718	967	82.5
963.6868	2358.7852	968.35	83.3
963.818	2360.1978	967.65	83.05
963.9492	2361.6098	965.2	82.15
964.0803	2363.021	970.1	81.55
964.2114	2364.4315	965.55	78.55
964.3425	2365.8413	967.65	80.7
964.4736	2367.2504	963.85	79.65
964.6046	2368.6587	967	81.55
964.7356	2370.0664	967.2	83.45
964.8666	2371.4733	966.35	82.05
964.9975	2372.8795	966.2	79.85
965.1284	2374.285	969.8	83.1
965.2593	2375.6899	966.5	79.35
965.3901	2377.0939	963.9	77.75
965.5209	2378.4973	963.25	78.65
965.6517	2379.9	962.05	75.4
965.7825	2381.3019	965.55	82.35
965.9132	2382.7032	963.65	77.1
966.0439	2384.1037	961.85	78.3
966.1745	2385.5035	963.95	80.1
966.3051	2386.9027	962.5	78.25
966.4357	2388.3011	966.8	77.5
966.5663	2389.6987	961	75.4
966.6968	2391.0957	960.15	75.2
966.8273	2392.492	960.15	73.65
966.9578	2393.8876	963.35	76.3
967.0882	2395.2824	958.05	70.1
967.2186	2396.6765	961.5	75.1
967.349	2398.07	963	75.7
967.4793	2399.4627	965.1	78.35
967.6097	2400.8547	962.9	75.45
967.7399	2402.246	967.3	75.05
967.8702	2403.6366	961.2	75.85
968.0004	2405.0265	959.75	74.85
968.1306	2406.4156	963	71.85
968.2607	2407.8041	966.45	76.4
968.3909	2409.1918	962.35	72.25
968.521	2410.5789	962.45	76
968.651	2411.9652	964.55	72.2
968.781	2413.3508	961.15	75.5
968.911	2414.7358	957.55	69.6
969.041	2416.12	960.55	73.95
969.1709	2417.5035	960.05	72.25
969.3008	2418.8863	962.25	76
969.4307	2420.2684	958.55	71.35
969.5606	2421.6497	961.3	72.3
969.6904	2423.0304	961	75.9
969.8201	2424.4104	956.2	67.4
969.9499	2425.7896	963.1	72.05
970.0796	2427.1682	960.6	74.45
970.2093	2428.546	960.6	74.4
970.3389	2429.9232	960.15	71.9
970.4685	2431.2996	959.95	72.15
970.5981	2432.6753	957.75	71.6
970.7277	2434.0503	957.55	70.8
970.8572	2435.4246	957.35	70.55
970.9867	2436.7982	959.15	71.5
971.1161	2438.1711	953.25	66.4
971.2456	2439.5433	956.25	67
971.375	2440.9148	958.85	72.5
971.5043	2442.2856	954.75	67.4
971.6336	2443.6557	954.7	64.65
971.7629	2445.025	956.65	71.1
971.8922	2446.3937	956.35	68
972.0214	2447.7617	957.8	70.2
972.1506	2449.1289	952.6	66.5
972.2798	2450.4955	955.85	67.1
972.4089	2451.8613	954.05	69.9
972.538	2453.2265	953.45	66.2
972.6671	2454.5909	953.25	68.2
972.7961	2455.9546	953.15	66.9
972.9251	2457.3177	952.05	64.7
973.0541	2458.68	953.95	66.7
973.1831	2460.0416	953.9	65.75
973.312	2461.4025	953.8	66.5
973.4408	2462.7627	964.1	68.1
973.5697	2464.1222	945.4	62.5
973.6985	2465.4811	952.6	69.35
973.8273	2466.8392	954.9	68.8
973.956	2468.1966	953	63.8
974.0847	2469.5533	954.2	66.1
974.2134	2470.9093	956.25	69.35
974.3421	2472.2645	949.1	65.75
974.4707	2473.6191	951.65	64.4
974.5993	2474.973	948.75	63
974.7278	2476.3262	952.95	68.05
974.8563	2477.6787	950.3	66.85
974.9848	2479.0305	951.05	65.3
975.1132	2480.3816	952.4	65.3
975.2417	2481.7319	950.75	66.15
975.37	2483.0816	950.6	62.3
975.4984	2484.4306	948.75	63.8
975.6267	2485.7789	950.2	64.55
975.755	2487.1264	951.55	67
975.8833	2488.4733	950.05	63.55
976.0115	2489.8195	964.2	61.5
976.1397	2491.165	951	61.4
976.2678	2492.5097	947.35	61.85
976.3959	2493.8538	947.55	63.85
976.524	2495.1972	949.95	63.45
976.6521	2496.5398	948.65	61.9
976.7801	2497.8818	953.75	64.85
976.9081	2499.2231	945.3	60.15
977.036	2500.5637	953	65.65
977.164	2501.9035	948.65	61.25
977.2918	2503.2427	950.7	60.4
977.4197	2504.5812	949	61.6
977.5475	2505.919	949	61.55
977.6753	2507.256	947.7	62.35
977.8031	2508.5924	943.55	57.8
977.9308	2509.9281	953.25	63.8
978.0585	2511.2631	947.35	63.9
978.1861	2512.5974	945.25	62.25
978.3137	2513.9309	948.25	62.85
978.4413	2515.2638	973.1	59.9
978.5689	2516.596	945.05	58.9
978.6964	2517.9275	947	58.2
978.8239	2519.2583	947.35	62.05
978.9513	2520.5884	949.25	62.8
979.0788	2521.9178	945	59.05
979.2062	2523.2465	941.75	57.15
979.3335	2524.5745	944.05	59.75
979.4608	2525.9018	943	58.8
979.5881	2527.2284	941.9	58.6
979.7154	2528.5543	942.85	59.9
979.8426	2529.8796	944.05	59.2
979.9698	2531.2041	941	56.45
980.0969	2532.5279	944.9	60.9
980.224	2533.851	943.55	57.1
980.3511	2535.1735	941.8	57.4
980.4781	2536.4952	944.55	58.65
980.6052	2537.8163	945.45	60.3
980.7321	2539.1366	943.75	58.15
980.8591	2540.4562	944.35	58.55
980.986	2541.7752	943.9	58.35
981.1129	2543.0935	943.9	57.55
981.2397	2544.411	944.75	58.25
981.3665	2545.7279	943.65	59.15
981.4933	2547.0441	941.35	55.4
981.62	2548.3596	949.7	60.4
981.7467	2549.6744	942.85	57.75
981.8734	2550.9885	949.8	55.1
982.0001	2552.3019	937.45	52.15
982.1267	2553.6146	944.4	58.9
982.2532	2554.9266	942.5	58
982.3798	2556.2379	941.4	55.25
982.5063	2557.5485	941.2	56.9
982.6327	2558.8585	951.2	59.3
982.7592	2560.1677	945.1	55.7
982.8856	2561.4762	941.8	54.6
983.0119	2562.7841	939.9	49.55
983.1383	2564.0913	941.15	59.7
983.2646	2565.3977	938.8	52.8
983.3908	2566.7035	941.8	58.1
983.517	2568.0086	942.55	56.65
983.6432	2569.313	943.05	57.35
983.7694	2570.6167	945.7	57.4
983.8955	2571.9197	940.25	55.95
984.0216	2573.222	943.2	56.85
984.1476	2574.5236	940.4	54.05
984.2737	2575.8246	940.65	50.9
984.3996	2577.1248	941.95	52.65
984.5256	2578.4244	940	54.4
984.6515	2579.7232	938.9	55.1
984.7774	2581.0214	963.6	51.75
984.9032	2582.3189	941.85	58.2
985.029	2583.6157	942.25	53.6
985.1548	2584.9118	939.6	52.2
985.2806	2586.2072	939.75	54.35
985.4063	2587.5019	941.35	55.65
985.5319	2588.7959	940.55	53.25
985.6576	2590.0893	942.35	56.7
985.7832	2591.3819	938	53.55
985.9087	2592.6739	940.5	57.45
986.0343	2593.9652	942.2	56.3
986.1597	2595.2557	939.6	55.2
986.2852	2596.5456	941.3	52.6
986.4106	2597.8348	937.7	53.45
986.536	2599.1234	937.5	53.7
986.6614	2600.4112	940.7	56.45
986.7867	2601.6983	940.6	52.45
986.912	2602.9848	941.5	55.9
987.0372	2604.2705	948.5	57.1
987.1624	2605.5556	938.85	53.2
987.2876	2606.84	938.35	53.45
987.4128	2608.1237	940.5	55.05
987.5379	2609.4067	934.9	49.15
987.6629	2610.689	944.5	51.4
987.788	2611.9707	940.45	50.8
987.913	2613.2516	941	51.35
988.0379	2614.5319	933.8	48.15
988.1629	2615.8115	936.5	51
988.2878	2617.0903	936.5	50.25
988.4126	2618.3685	937.25	50.95
988.5375	2619.6461	937.55	52.15
988.6622	2620.9229	936.9	51.1
988.787	2622.199	937.1	52.05
988.9117	2623.4745	937.5	52.3
989.0364	2624.7493	937.7	53.85
989.161	2626.0234	933.8	48.65
989.2857	2627.2968	932.95	47.2
989.4102	2628.5695	936.7	49.25
989.5348	2629.8415	934.7	50.85
989.6593	2631.1128	934.55	50
989.7837	2632.3835	934.45	49.3
989.9082	2633.6535	932.3	48.55
990.0326	2634.9228	932.25	48.75
990.1569	2636.1914	932.7	49.55
990.2812	2637.4593	936.5	51.05
990.4055	2638.7265	932.7	47.85
990.5298	2639.9931	931.7	47.3
990.654	2641.259	931.4	45.2
990.7782	2642.5242	933.95	48.35
990.9023	2643.7887	932.6	48.05
991.0264	2645.0525	929.05	45.75
991.1505	2646.3156	934.95	48.45
991.2745	2647.5781	931.85	48
991.3985	2648.8398	929.05	44.95
991.5225	2650.1009	938.7	44.3
991.6464	2651.3613	931.2	45.75
991.7703	2652.6211	930.45	43.6
991.8942	2653.8801	928.65	45.1
992.018	2655.1385	930.35	43.7
992.1418	2656.3961	928.8	45.2
992.2655	2657.6531	928.6	43.15
992.3892	2658.9094	930.75	45.2
992.5129	2660.1651	928.95	45.65
992.6366	2661.42	931.4	49.3
992.7602	2662.6743	932.95	49.3
992.8837	2663.9279	930.55	44.9
993.0073	2665.1808	931.1	46.2
993.1307	2666.433	928.65	42.85
993.2542	2667.6846	931.7	48.7
993.3776	2668.9354	935.9	48.45
993.501	2670.1856	930.8	46.25
993.6244	2671.4351	929.1	44.7
993.7477	2672.6839	933.25	48.1
993.8709	2673.9321	929.9	45.8
993.9942	2675.1795	933.35	48.45
994.1174	2676.4263	930.2	44.5
994.2405	2677.6724	930	45.75
994.3637	2678.9179	930.5	45.8
994.4868	2680.1626	931.3	48.8
994.6098	2681.4067	931.9	49.45
994.7328	2682.6501	929.45	43.3
994.8558	2683.8928	931.4	47.45
994.9788	2685.1348	927.9	45.85
995.1017	2686.3761	929.2	44.95
995.2245	2687.6168	928.6	44.55
995.3474	2688.8568	928.9	45.1
995.4702	2690.0961	927.35	43.75
995.5929	2691.3348	926.8	43.2
995.7156	2692.5727	929.9	45
995.8383	2693.81	927.05	42.85
995.961	2695.0466	923.9	42
996.0836	2696.2826	928.55	43
996.2062	2697.5178	928.1	41.05
996.3287	2698.7524	927	42.9
996.4512	2699.9863	931.9	47.8
996.5737	2701.2195	927.45	46.15
996.6961	2702.452	929.6	44.2
996.8185	2703.6839	928.4	41.85
996.9408	2704.9151	928.55	47.6
997.0631	2706.1456	927.65	42.75
997.1854	2707.3755	931.8	47.25
997.3077	2708.6046	929.3	39.65
997.4299	2709.8331	930	45.45
997.552	2711.0609	929.5	45.55
997.6742	2712.2881	928.7	44.95
997.7963	2713.5145	933.15	46.95
997.9183	2714.7403	930.5	47.25
998.0403	2715.9654	931.75	48.35
998.1623	2717.1899	945.7	47.4
998.2842	2718.4136	930.95	48.3
998.4062	2719.6367	931.4	46.6
998.528	2720.8591	941.15	50.45
998.6498	2722.0809	933.75	50.2
998.7716	2723.3019	939.2	52.5
998.8934	2724.5223	934.9	51
999.0151	2725.7421	935.05	51.35
999.1368	2726.9611	935.3	52.45
999.2584	2728.1795	938.45	49.75
999.38	2729.3972	933.3	49.5
999.5016	2730.6142	936.9	46.65
999.6231	2731.8306	932.85	48
999.7446	2733.0462	930.35	45.6
999.8661	2734.2612	935.7	48
999.9875	2735.4756	930.25	47.35
1000.1089	2736.6892	929.85	45.35
1000.2302	2737.9022	927.75	47.45
1000.3515	2739.1145	925.1	41.55
1000.4728	2740.3262	928.4	38
1000.594	2741.5372	924.1	43.05
1000.7152	2742.7475	926.15	42.45
1000.8363	2743.9571	926.5	41.05
1000.9575	2745.1661	927.1	41.1
1001.0785	2746.3744	922.6	38.9
1001.1996	2747.582	919.65	37.9
1001.3206	2748.7889	923.35	37.3
1001.4415	2749.9952	919.55	37.5
1001.5625	2751.2008	921.95	41.05
1001.6833	2752.4057	923.65	37.9
1001.8042	2753.61	921.9	39.5
1001.925	2754.8136	922.35	38.25
1002.0458	2756.0165	919.15	35.1
1002.1665	2757.2188	918.3	36.65
1002.2872	2758.4204	919.6	36
1002.4078	2759.6213	919.1	35.95
1002.5285	2760.8215	923.35	33.5
1002.649	2762.0211	922.55	37.4
1002.7696	2763.22	923.6	38.55
1002.8901	2764.4182	918.65	32.65
1003.0106	2765.6158	920.6	37.05
1003.131	2766.8127	920.2	39.2
1003.2514	2768.009	918.45	35.1
1003.3717	2769.2045	919.5	38.6
1003.492	2770.3994	918.1	33.4
1003.6123	2771.5936	921.4	39.25
1003.7325	2772.7872	918.35	37.9
1003.8527	2773.9801	919.15	36.6
1003.9729	2775.1723	931.8	34.55
1004.093	2776.3639	918.45	35.6
1004.2131	2777.5548	918.25	33
1004.3331	2778.745	919.25	34.4
1004.4531	2779.9346	915.05	33.8
1004.5731	2781.1235	915	32.9
1004.693	2782.3117	914.2	33.05
1004.8129	2783.4992	914.85	33.9
1004.9328	2784.6861	914.95	33.75
1005.0526	2785.8723	919.05	35.5
1005.1723	2787.0579	915.55	32
1005.2921	2788.2428	915.2	31.4
1005.4118	2789.427	915.9	35.6
1005.5314	2790.6106	916.2	34.75
1005.651	2791.7935	917.35	32.85
1005.7706	2792.9757	916.25	36.5
1005.8902	2794.1573	917.65	34.2
1006.0097	2795.3382	916.45	33.3
1006.1291	2796.5184	917.45	38.25
1006.2485	2797.698	916.4	31.5
1006.3679	2798.8769	919.3	37.85
1006.4873	2800.0551	916.25	33.9
1006.6066	2801.2327	920.25	35.35
1006.7258	2802.4096	918.1	36.4
1006.8451	2803.5859	919.35	35.2
1006.9642	2804.7615	920.8	37.3
1007.0834	2805.9364	918.7	39.3
1007.2025	2807.1106	919.85	38.2
1007.3216	2808.2842	921.85	39.45
1007.4406	2809.4572	918.9	36.4
1007.5596	2810.6294	924.35	41.75
1007.6785	2811.801	922.25	42.3
1007.7975	2812.972	923.55	43.8
1007.9163	2814.1423	926.9	43.6
1008.0352	2815.3119	932.5	49.65
1008.154	2816.4808	932.4	53.5
1008.2727	2817.6491	934.8	52
1008.3914	2818.8167	933.45	51.7
1008.5101	2819.9837	944.75	57.45
1008.6288	2821.15	943.55	59.85
1008.7474	2822.3157	945.45	66.35
1008.8659	2823.4807	953.2	71.45
1008.9844	2824.645	964.2	82.6
1009.1029	2825.8086	964.55	85.4
1009.2214	2826.9716	969.8	87.35
1009.3398	2828.134	976.95	95.9
1009.4581	2829.2957	986.5	103.3
1009.5764	2830.4567	986.85	105.65
1009.6947	2831.617	990.85	106.95
1009.813	2832.7767	993.2	111.95
1009.9312	2833.9358	991.05	110.65
1010.0493	2835.0941	995	109.9
1010.1675	2836.2519	990.6	110.35
1010.2855	2837.4089	984.95	102.55
1010.4036	2838.5653	985.4	105.4
1010.5216	2839.7211	976.6	95.3
1010.6396	2840.8761	978.55	94.55
1010.7575	2842.0306	973.6	92.7
1010.8754	2843.1843	974.45	95.65
1010.9932	2844.3374	975.05	92.6
1011.111	2845.4899	980.1	96.05
1011.2288	2846.6417	979.4	97.1
1011.3465	2847.7928	980.4	100.65
1011.4642	2848.9433	980.45	98.95
1011.5818	2850.0931	985.75	104.4
1011.6995	2851.2422	984.7	101.7
1011.817	2852.3907	989.55	109.15
1011.9345	2853.5385	992.3	109.3
1012.052	2854.6857	1016.25	110.55
1012.1695	2855.8323	990.05	110.2
1012.2869	2856.9781	989.05	109.25
1012.4042	2858.1233	997.6	116.55
1012.5216	2859.2679	998	117
1012.6389	2860.4118	1004.55	122.3
1012.7561	2861.555	1007.2	121.95
1012.8733	2862.6976	1007.7	123.45
1012.9905	2863.8395	1006.35	125.45
1013.1076	2864.9808	1010.6	130.45
1013.2247	2866.1214	1006.4	125.9
1013.3417	2867.2614	1009.75	128.25
1013.4587	2868.4007	1012.25	131.45
1013.5757	2869.5393	1014.15	131
1013.6926	2870.6773	1018.2	134.2
1013.8095	2871.8146	1022.45	137.1
1013.9263	2872.9513	1019.25	133.75
1014.0431	2874.0874	1017.05	136.3
1014.1599	2875.2227	1022	138.9
1014.2766	2876.3574	1019.8	136.1
1014.3933	2877.4915	1025.6	144.85
1014.51	2878.6249	1025.1	144.3
1014.6266	2879.7577	1026.4	143.15
1014.7431	2880.8898	1038	146.3
1014.8596	2882.0212	1029.7	150.95
1014.9761	2883.152	1031	148.15
1015.0925	2884.2821	1030.2	151.45
1015.2089	2885.4116	1032.75	152.3
1015.3253	2886.5405	1030.1	151.75
1015.4416	2887.6686	1039.8	155
1015.5579	2888.7962	1032	152.45
1015.6741	2889.923	1030.8	148.05
1015.7903	2891.0493	1032.55	151.95
1015.9065	2892.1748	1034.25	152.3
1016.0226	2893.2997	1038	158.7
1016.1387	2894.424	1032.75	152.85
1016.2547	2895.5476	1035.65	156.55
1016.3707	2896.6706	1036.1	157.55
1016.4866	2897.7929	1032.8	152.2
1016.6025	2898.9145	1036.1	155.4
1016.7184	2900.0355	1040.4	158.05
1016.8342	2901.1559	1035.65	153.1
1016.95	2902.2756	1037.15	148.8
1017.0658	2903.3946	1034.7	156
1017.1815	2904.513	1035.75	152.5
1017.2971	2905.6308	1032.6	153.65
1017.4127	2906.7479	1038.45	155.75
1017.5283	2907.8643	1034.5	154.4
1017.6439	2908.9801	1034.75	152.7
1017.7594	2910.0953	1032.45	152.4
1017.8748	2911.2098	1036.7	152.1
1017.9902	2912.3236	1045.45	158.3
1018.1056	2913.4368	1037	152.25
1018.2209	2914.5494	1032.1	151.7
1018.3362	2915.6613	1032.25	145.05
1018.4515	2916.7725	1032.6	149.75
1018.5667	2917.8831	1029.9	150.05
1018.6819	2918.9931	1026.1	143.25
1018.797	2920.1024	1019.85	139.15
1018.9121	2921.211	1019.15	137.7
1019.0271	2922.319	1020.45	139.3
1019.1421	2923.4264	1021.5	141.2
1019.2571	2924.5331	1018	137.7
1019.372	2925.6391	1016.9	136.9
1019.4869	2926.7445	1016.55	136.4
1019.6017	2927.8493	1021	140.75
1019.7165	2928.9534	1020.35	140.05
1019.8313	2930.0569	1021.55	136.6
1019.946	2931.1597	1022.95	141.35
1020.0606	2932.2619	1022.5	141.85
1020.1753	2933.3634	1022.35	142.6
1020.2899	2934.4643	1031.75	144.85
1020.4044	2935.5645	1029.8	142.8
1020.5189	2936.6641	1029.45	145.4
1020.6334	2937.763	1024.5	146.5
1020.7478	2938.8613	1025.35	143.9
1020.8622	2939.959	1024.6	138.65
1020.9765	2941.056	1019.65	139.75
1021.0908	2942.1523	1013.25	130.8
1021.2051	2943.248	1007.45	127.6
1021.3193	2944.3431	1003.1	121.8
1021.4334	2945.4375	1001.8	122.7
1021.5476	2946.5313	986.05	107.05
1021.6617	2947.6244	987.55	108.3
1021.7757	2948.7169	980	97.8
1021.8897	2949.8087	972.9	91.45
1022.0037	2950.8999	967.95	86.65
1022.1176	2951.9904	962.25	82
1022.2315	2953.0803	959.9	79
1022.3453	2954.1696	958.75	79.15
1022.4591	2955.2582	954.4	75.55
1022.5728	2956.3462	952.55	73.25
1022.6865	2957.4335	954.95	74.25
1022.8002	2958.5202	953.8	74.3
1022.9138	2959.6062	950.4	71.25
1023.0274	2960.6916	952.3	72.35
1023.141	2961.7764	951.35	70.65
1023.2545	2962.8605	950.85	71.35
1023.3679	2963.9439	948.15	70.3
1023.4813	2965.0267	950.6	66.35
1023.5947	2966.1089	970.35	71.2
1023.708	2967.1905	947.8	68.95
1023.8213	2968.2714	947.95	68.15
1023.9346	2969.3516	949	68.5
1024.0478	2970.4312	953.4	66.35
1024.1609	2971.5102	949.9	69.55
1024.274	2972.5885	947.95	69
1024.3871	2973.6662	954.25	69.9
1024.5002	2974.7432	950.35	71.65
1024.6132	2975.8196	946.05	66.1
1024.7261	2976.8954	947	69.35
1024.839	2977.9705	948.3	71.4
1024.9519	2979.045	948.3	68.7
1025.0647	2980.1188	947.55	69.4
1025.1775	2981.192	943.2	66.05
1025.2902	2982.2645	946.45	64.15
1025.4029	2983.3364	943.6	64.75
1025.5156	2984.4077	944.4	66.15
1025.6282	2985.4783	944.1	58.95
1025.7407	2986.5483	938.95	62.95
1025.8532	2987.6177	933.3	53.2
1025.9657	2988.6864	934.25	51.8
1026.0782	2989.7545	934	53.05
1026.1906	2990.8219	930.15	50.65
1026.3029	2991.8887	930.75	48.4
1026.4152	2992.9548	929.25	48.75
1026.5275	2994.0204	924.95	48.8
1026.6397	2995.0852	921.7	42.35
1026.7519	2996.1495	919.5	39.6
1026.864	2997.2131	921.05	40.8
1026.9761	2998.276	915.9	35.6
1027.0882	2999.3383	917.75	39.45
1027.2002	3000.4	914	33.75
1027.3122	3001.4611	911.75	31.95
1027.4241	3002.5215	910.1	29.3
1027.536	3003.5812	907.25	26.6
1027.6478	3004.6404	908.95	30.4
1027.7596	3005.6989	909.1	28.6
1027.8714	3006.7567	909.1	29.05
1027.9831	3007.8139	938.35	28.05
1028.0947	3008.8705	906.85	27.55
1028.2064	3009.9264	910.65	29.8
1028.3179	3010.9818	904.5	23.35
1028.4295	3012.0364	908.25	28.55
1028.541	3013.0905	904.25	24.4
1028.6524	3014.1439	904.55	25.6
1028.7638	3015.1966	900.05	21.7
1028.8752	3016.2487	903.3	23
1028.9865	3017.3002	908.05	23.3
1029.0978	3018.3511	904	26.45
1029.209	3019.4013	901.7	23.1
1029.3202	3020.4509	899.65	22.65
1029.4314	3021.4998	902.9	23.95
1029.5425	3022.5481	901.85	22.8
1029.6535	3023.5958	902.1	23.1
1029.7645	3024.6428	901.8	20.9
1029.8755	3025.6892	901.2	23.65
1029.9864	3026.735	900.45	19.95
1030.0973	3027.7802	901.35	22.4
1030.2082	3028.8247	901.9	24.35
1030.319	3029.8685	900.4	20.9
1030.4297	3030.9118	902.95	22.05
1030.5404	3031.9544	899.05	20.45
1030.6511	3032.9963	901.85	22.5
1030.7617	3034.0376	897	18.15
1030.8723	3035.0783	903.8	21
1030.9829	3036.1184	900.65	18.5
1031.0934	3037.1578	901.3	23.2
1031.2038	3038.1966	901.55	20.9
1031.3142	3039.2348	900.95	23.8
1031.4246	3040.2723	909.65	23.7
1031.5349	3041.3092	898.85	17.85
1031.6452	3042.3455	901.95	22.1
1031.7554	3043.3811	900.3	21.3
1031.8656	3044.4161	899.75	20.6
1031.9758	3045.4505	899.4	22.45
1032.0859	3046.4842	901.85	21.1
1032.1959	3047.5173	901.4	22.7
1032.3059	3048.5498	902.4	22.9
1032.4159	3049.5816	901.45	21.35
1032.5258	3050.6128	901.5	23.05
1032.6357	3051.6434	902.25	20.15
1032.7455	3052.6734	903.05	23.4
1032.8553	3053.7027	900.7	19.8
1032.9651	3054.7314	900.6	21.85
1033.0748	3055.7594	899.65	20.6
1033.1845	3056.7868	902.55	22.15
1033.2941	3057.8136	901.75	24.3
1033.4037	3058.8398	900.6	24.65
1033.5132	3059.8653	899.85	22.2
1033.6227	3060.8902	901.45	23
1033.7321	3061.9145	903.25	23.6
1033.8415	3062.9381	897.95	20.1
1033.9509	3063.9612	919.15	24.15
1034.0602	3064.9835	903.9	23.3
1034.1694	3066.0053	904.4	23.95
1034.2787	3067.0264	902.05	22.15
1034.3878	3068.0469	902.45	21.7
1034.497	3069.0668	904.8	24.65
1034.6061	3070.086	901.2	23.5
1034.7151	3071.1046	903.7	26.7
1034.8241	3072.1226	902.55	22.1
1034.9331	3073.1399	898.9	20.45
1035.042	3074.1567	900.95	23.35
1035.1508	3075.1727	902.6	20.7
1035.2597	3076.1882	900.65	21.85
1035.3684	3077.203	900.8	20.9
1035.4772	3078.2173	898.3	17.35
1035.5859	3079.2308	900.75	19.55
1035.6945	3080.2438	900.65	19.05
1035.8031	3081.2561	899.25	19.6
1035.9117	3082.2678	895.8	17.3
1036.0202	3083.2789	894.8	16.4
1036.1286	3084.2893	894.65	15.85
1036.2371	3085.2991	896.25	16.65
1036.3454	3086.3083	898.1	15.35
1036.4538	3087.3169	896.6	16.4
1036.562	3088.3248	896.35	14.95
1036.6703	3089.3321	898.1	17.2
1036.7785	3090.3388	895.7	14.85
1036.8866	3091.3449	895.1	15.95
1036.9948	3092.3503	897.1	12.15
1037.1028	3093.3551	893.55	17.15
1037.2108	3094.3593	891.9	15.8
1037.3188	3095.3629	891.5	12
1037.4267	3096.3658	893.75	14.4
1037.5346	3097.3681	894.05	14.15
1037.6425	3098.3698	895.7	16.65
1037.7503	3099.3708	892.7	14.65
1037.858	3100.3713	891.3	13.2
1037.9657	3101.3711	894.35	15.15
1038.0734	3102.3702	1031.2	18.2
1038.181	3103.3688	894.3	15.05
1038.2886	3104.3667	892.2	15
1038.3961	3105.364	893.9	14.65
1038.5036	3106.3607	893.9	10.6
1038.611	3107.3568	893.25	13.55
1038.7184	3108.3522	890.7	12.75
1038.8257	3109.347	892.5	12.7
1038.933	3110.3412	896.85	16.4
1039.0403	3111.3348	891.55	13.05
1039.1475	3112.3277	892.15	14.5
1039.2547	3113.32	889.15	11.8
1039.3618	3114.3117	891.7	12.6
1039.4689	3115.3028	891.8	15
1039.5759	3116.2932	891.25	10.75
1039.6829	3117.2831	896.45	13.1
1039.7898	3118.2723	892.15	12.55
1039.8967	3119.2608	890.45	11
1040.0035	3120.2488	889.4	9.35
1040.1103	3121.2361	889.85	11.95
1040.2171	3122.2229	888.75	10.2
1040.3238	3123.209	890.65	11.3
1040.4305	3124.1944	889.55	11.35
1040.5371	3125.1793	889.9	9.2
1040.6437	3126.1635	887.4	8.55
1040.7502	3127.1471	888.2	10.75
1040.8567	3128.1301	888.6	9.75
1040.9631	3129.1125	890.05	13.25
1041.0695	3130.0942	890.4	12.3
1041.1759	3131.0753	897.4	9.9
1041.2822	3132.0558	891.2	9.1
1041.3884	3133.0357	887.9	5.4
1041.4946	3134.015	887.1	7.25
1041.6008	3134.9936	890.5	10.8
1041.7069	3135.9716	913.6	15.6
1041.813	3136.949	887.9	10.5
1041.919	3137.9258	905.85	7.05
1042.025	3138.902	892.1	10.75
1042.1309	3139.8775	887.4	9.5
1042.2368	3140.8524	888	10.1
1042.3427	3141.8267	890.1	9.2
1042.4485	3142.8004	889.05	9.7
1042.5542	3143.7735	894.9	10.3
1042.6599	3144.7459	890.95	11.35
1042.7656	3145.7178	888.1	8.3
1042.8712	3146.689	887.5	10.15
1042.9768	3147.6596	888.25	8.95
1043.0823	3148.6295	887	6.55
1043.1878	3149.5989	886.2	8.8
1043.2932	3150.5676	885.75	9
1043.3986	3151.5357	884.9	6.9
1043.5039	3152.5032	885.05	7.85
1043.6092	3153.4701	886.05	7.45
1043.7145	3154.4364	889.4	9
1043.8197	3155.402	884.6	6.6
1043.9248	3156.367	888.5	7.55
1044.03	3157.3315	929.95	9.15
1044.135	3158.2952	886.55	7.6
1044.24	3159.2584	884.05	5.2
1044.345	3160.221	885.35	5.75
1044.4499	3161.1829	883.85	3.55
1044.5548	3162.1442	884.2	4
1044.6596	3163.105	885.95	7.85
1044.7644	3164.065	886.8	9.5
1044.8692	3165.0245	888.25	9.55
1044.9739	3165.9834	883.55	7.4
1045.0785	3166.9416	886.5	8
1045.1831	3167.8993	887.25	8.35
1045.2877	3168.8563	885.75	8.35
1045.3922	3169.8127	886.7	9.6
1045.4966	3170.7684	886.05	8.65
1045.6011	3171.7236	886.4	6.05
1045.7054	3172.6782	884	4
1045.8098	3173.6321	886.1	9
1045.914	3174.5854	887.7	4.75
1046.0183	3175.5381	886.1	6.95
1046.1224	3176.4902	885.75	7.7
1046.2266	3177.4417	884.2	5.95
1046.3307	3178.3926	886.7	9.95
1046.4347	3179.3428	884.15	7.35
1046.5387	3180.2924	886.3	7.15
1046.6427	3181.2415	885.2	8
1046.7466	3182.1899	886.35	8.4
1046.8504	3183.1377	885.95	7.55
1046.9542	3184.0848	886.45	5
1047.058	3185.0314	885.7	7.15
1047.1617	3185.9773	886.1	7.35
1047.2654	3186.9227	885.25	6.55
1047.369	3187.8674	885.4	7.8
1047.4726	3188.8115	888.2	6
1047.5761	3189.755	885.2	9.3
1047.6796	3190.6979	883.2	3.9
1047.783	3191.6402	885.45	9.25
1047.8864	3192.5818	883.4	5.15
1047.9898	3193.5229	900.25	4.9
1048.0931	3194.4633	884.15	9.1
1048.1963	3195.4031	884.9	7.8
1048.2995	3196.3423	883.15	5.8
1048.4027	3197.2809	884.6	5
1048.5058	3198.2189	885.85	5.65
1048.6089	3199.1563	901.6	6.1
1048.7119	3200.0931	884.8	9.45
1048.8148	3201.0292	881.6	5.6
1048.9178	3201.9648	884.6	7.5
1049.0206	3202.8997	886.6	5
1049.1235	3203.834	885.2	7.2
1049.2262	3204.7677	884	7.85
1049.329	3205.7008	886.3	7.35
1049.4317	3206.6333	881.5	5.05
1049.5343	3207.5652	887.15	5.8
1049.6369	3208.4964	882.7	4.9
1049.7394	3209.4271	884.8	8.1
1049.8419	3210.3571	881.9	2.75
1049.9444	3211.2865	883.8	5
1050.0468	3212.2154	885.2	7.7
1050.1491	3213.1436	883.75	1.8
1050.2514	3214.0712	891.45	5.75
1050.3537	3214.9982	886.05	8.4
1050.4559	3215.9246	885.05	5.85
1050.5581	3216.8503	882.7	6.65
1050.6602	3217.7755	883.45	4.85
1050.7623	3218.7001	881.3	3.35
1050.8643	3219.624	882.9	3.7
1050.9663	3220.5473	882.9	4.9
1051.0682	3221.4701	885.85	5.4
1051.1701	3222.3922	884.8	4.45
1051.2719	3223.3137	884.6	6.8
1051.3737	3224.2346	884.9	6.1
1051.4754	3225.1549	882.2	4.9
1051.5771	3226.0746	882.65	6.15
1051.6788	3226.9937	884.25	6.3
1051.7804	3227.9121	880.3	3.1
1051.8819	3228.83	882.9	3
1051.9834	3229.7473	881.65	2.65
1052.0849	3230.6639	883	5.7
1052.1863	3231.5799	883.15	5.05
1052.2876	3232.4954	884.1	7.25
1052.3889	3233.4102	882.2	4.1
1052.4902	3234.3244	883.95	5.65
1052.5914	3235.238	882.6	6.55
1052.6926	3236.151	909.6	8.05
1052.7937	3237.0634	880.85	3.5
1052.8948	3237.9752	881.2	2.5
1052.9958	3238.8864	882.3	4.9
1053.0968	3239.797	882.2	3
1053.1977	3240.7069	884.6	8.5
1053.2986	3241.6163	883.2	6.05
1053.3994	3242.5251	882.45	5.3
1053.5002	3243.4332	882.7	5.85
1053.6009	3244.3408	882.85	4.2
1053.7016	3245.2477	882.85	6.95
1053.8022	3246.154	883.4	3.55
1053.9028	3247.0598	883.35	6.5
1054.0034	3247.9649	882.3	6.5
1054.1039	3248.8694	881.45	2.4
1054.2043	3249.7733	880.4	4.75
1054.3047	3250.6766	881.55	2.9
1054.4051	3251.5793	881.3	3.7
1054.5054	3252.4814	881.4	2.7
1054.6056	3253.3829	882.45	6
1054.7058	3254.2838	882.6	4.5
1054.806	3255.1841	880.95	2.2
1054.9061	3256.0838	882.7	4.55
1055.0061	3256.9829	880	3.4
1055.1062	3257.8814	884.1	4.45
1055.2061	3258.7792	882.7	2.2
1055.306	3259.6765	883.1	6.9
1055.4059	3260.5731	882.5	4.25
1055.5057	3261.4692	883.05	3.3
1055.6055	3262.3647	882.45	3
1055.7052	3263.2595	881.25	3.45
1055.8049	3264.1538	879.8	2.5
1055.9045	3265.0474	881.75	3.4
1056.0041	3265.9404	879.2	1.65
1056.1036	3266.8329	881.8	4.35
1056.2031	3267.7247	890.65	4.1
1056.3025	3268.616	878.85	2.3
1056.4019	3269.5066	882.4	5.1
1056.5013	3270.3966	881.3	1.3
1056.6005	3271.286	879.2	2.25
