Software Version:	3.9.2.0
Unit SN:	10000200
Spectrometer SN:	6960
Date:	3/8/2024 1:17:03 PM
Data Line Index:	25
Spectral Points:	2048
Integration time (ms):	125
Averages:	20
Delay (ms):	30000
Sequence Number:	1
Processing:	dark subtract
Laser Power (mW):	305
Laser Current (mA):	823
Laser Diode Temp (C):	25.1
Laser Case Temp (C):	26.1
System Temp (C):	26.1
Spectrometer Temp (C):	24
CCD Temp (C):	0.008
Secondary Temp (C):	20.014
Heatsink Temp (C):	20.541
CCDPCB Temp (C):	36.262
SecondaryPCB Temp (C):	29.393

Wavelength	RamanShift	Raw Counts	Dark Subtracted
787.061	30.1047	453.15	45.35
787.2016	32.3739	452.65	46.75
787.3422	34.6426	461.85	53.85
787.4828	36.9109	465.75	57.1
787.6235	39.1787	472.3	59.1
787.7642	41.4461	484.4	67.85
787.9049	43.7131	491	71.65
788.0456	45.9796	498.15	74.2
788.1863	48.2456	508.85	81.05
788.3271	50.5112	516.35	84.2
788.4679	52.7764	525.7	92.25
788.6087	55.0411	539.15	101.55
788.7496	57.3054	551.05	106.3
788.8904	59.5692	558	112.55
789.0313	61.8326	567.25	116.05
789.1722	64.0955	573.4	121.8
789.3132	66.3579	592.05	133.15
789.4541	68.6199	613.1	150.75
789.5951	70.8815	652.45	186.35
789.7361	73.1426	731.8	262
789.8771	75.4032	927.9	453.6
790.0181	77.6634	1424.6	945.9
790.1592	79.9231	2593.8	2104.25
790.3003	82.1824	5106.9	4601
790.4414	84.4412	9656.35	9117.4
790.5825	86.6995	15835.1	15256.55
790.7237	88.9574	21879.25	21263.7
790.8648	91.2148	26010.25	25371.45
791.006	93.4717	27886.6	27231.1
791.1472	95.7282	28253.25	27588.75
791.2885	97.9842	28027.05	27361.15
791.4297	100.2398	27389.45	26719.7
791.571	102.4949	26679.6	26009.25
791.7123	104.7495	25858.7	25186.05
791.8536	107.0036	25003.65	24324.7
791.9949	109.2573	24200.1	23525.15
792.1363	111.5105	23449.3	22771.8
792.2777	113.7632	22691.1	22008.65
792.4191	116.0154	22133	21440.25
792.5605	118.2672	21706.35	21018.85
792.7019	120.5185	21212.9	20527.55
792.8434	122.7693	20842.25	20150.2
792.9849	125.0197	20552.85	19860
793.1264	127.2696	20262.45	19566.5
793.2679	129.519	20062.75	19359.4
793.4094	131.7679	19838.8	19132.3
793.551	134.0163	19605.35	18898.7
793.6926	136.2642	19327.95	18616.55
793.8342	138.5117	19103.3	18384.35
793.9758	140.7587	18789.2	18076.7
794.1175	143.0052	18546.25	17829
794.2591	145.2512	18243.25	17527.8
794.4008	147.4967	17994.1	17275
794.5425	149.7417	17796.4	17075.25
794.6842	151.9863	17643	16919.25
794.826	154.2304	17556.7	16821.7
794.9677	156.4739	17397.5	16657.6
795.1095	158.717	17331.9	16595.3
795.2513	160.9596	17182.85	16438.2
795.3931	163.2017	16926.2	16186.25
795.535	165.4433	16638.55	15890.65
795.6768	167.6844	16260.1	15510.85
795.8187	169.925	15938.6	15190.55
795.9606	172.1651	15590.7	14839
796.1025	174.4047	15345.85	14591.25
796.2445	176.6439	15066.2	14314.5
796.3864	178.8825	14830.45	14073.1
796.5284	181.1206	14677.35	13912.35
796.6704	183.3582	14521.05	13749.7
796.8124	185.5954	14385.45	13611.95
796.9544	187.832	14305.1	13531.1
797.0965	190.0681	14264.95	13488.85
797.2386	192.3037	14275.05	13496.05
797.3806	194.5388	14279	13492.95
797.5228	196.7734	14331.45	13548.3
797.6649	199.0075	14393.95	13606.6
797.807	201.2411	14518.5	13730.55
797.9492	203.4742	14558.9	13768.9
798.0914	205.7068	14723.65	13926.7
798.2336	207.9389	14825.95	14031.05
798.3758	210.1704	14981.25	14194.65
798.518	212.4015	15097.9	14319.85
798.6603	214.632	15273.6	14501.45
798.8025	216.862	15450.6	14676.85
798.9448	219.0915	15599.85	14828.85
799.0871	221.3205	15773.2	15000
799.2294	223.549	15976	15204.2
799.3718	225.777	16160.65	15390.35
799.5141	228.0044	16448.8	15668.85
799.6565	230.2314	16806.4	16027.4
799.7989	232.4578	17130.3	16350.35
799.9413	234.6837	17373.35	16586.25
800.0837	236.909	17540.35	16748.55
800.2262	239.1339	17564.3	16748.6
800.3687	241.3582	17365.8	16557.6
800.5111	243.582	17114.5	16281.55
800.6536	245.8053	16881.65	16059.8
800.7961	248.0281	16698.2	15884.65
800.9387	250.2503	16493.7	15674.95
801.0812	252.472	16421.2	15599.4
801.2238	254.6932	16425.55	15607.2
801.3664	256.9139	16449.25	15630.3
801.509	259.134	16505.8	15676.75
801.6516	261.3536	16614.25	15788.45
801.7942	263.5727	16782.1	15958.25
801.9369	265.7912	16840.4	16017
802.0795	268.0092	16976.75	16159.6
802.2222	270.2267	17034.95	16212.25
802.3649	272.4436	17038.2	16213.1
802.5076	274.6601	17027.2	16187.2
802.6504	276.8759	16917.5	16087.2
802.7931	279.0913	16838.9	16010.75
802.9359	281.3061	16758.55	15925.6
803.0787	283.5204	16758.05	15916.95
803.2215	285.7341	16790.35	15946.75
803.3643	287.9473	16950.5	16098.05
803.5071	290.16	17089.95	16245.35
803.6499	292.3721	17316.7	16479.6
803.7928	294.5837	17669.4	16828.9
803.9357	296.7947	17991.2	17151.25
804.0786	299.0052	18176.35	17335.4
804.2215	301.2152	18076.6	17235.65
804.3644	303.4246	17761.05	16922.55
804.5074	305.6334	17262.9	16426.15
804.6503	307.8418	16800.95	15958.75
804.7933	310.0495	16376.05	15529.05
804.9363	312.2568	16034.05	15184.25
805.0793	314.4635	15742.75	14896.85
805.2223	316.6696	15551.6	14700.65
805.3653	318.8752	15458.3	14597
805.5084	321.0802	15483.35	14631
805.6514	323.2847	15554.1	14702.55
805.7945	325.4887	15583.55	14729.85
805.9376	327.692	15546.95	14692.05
806.0807	329.8949	15472.7	14613.85
806.2238	332.0972	15224.4	14366.75
806.367	334.2989	14968.6	14107.5
806.5101	336.5001	14682.35	13823.55
806.6533	338.7007	14507.6	13643.05
806.7965	340.9008	14375.35	13509.5
806.9397	343.1003	14242.4	13379.75
807.0829	345.2992	14170.85	13307.35
807.2261	347.4976	14107.6	13242.55
807.3693	349.6955	14093.85	13223.5
807.5126	351.8927	14160.3	13290.7
807.6559	354.0895	14105.6	13226.45
807.7991	356.2856	14114.5	13244.35
807.9424	358.4812	14073.05	13203.2
808.0857	360.6763	14101.3	13227.05
808.2291	362.8707	14103.6	13229.55
808.3724	365.0646	14124.15	13246.05
808.5158	367.258	14155.3	13277.75
808.6591	369.4508	14236.15	13348.65
808.8025	371.643	14329.1	13442.25
808.9459	373.8346	14326.2	13438.75
809.0893	376.0257	14395.05	13506.9
809.2327	378.2162	14306.65	13422.9
809.3762	380.4062	14260.75	13380.7
809.5196	382.5956	14102.85	13223.2
809.6631	384.7844	13998.25	13123.45
809.8066	386.9726	13917.7	13042.9
809.9501	389.1603	13827.2	12955.45
810.0936	391.3474	13807.5	12897.85
810.2371	393.5339	13788.25	12908.3
810.3806	395.7199	13748.2	12870.95
810.5241	397.9052	13779.85	12906.85
810.6677	400.09	13800.6	12925.85
810.8113	402.2743	13888.8	13008.5
810.9548	404.4579	13991.5	13115.05
811.0984	406.641	14190.2	13312.95
811.2421	408.8235	14360.7	13478.2
811.3857	411.0054	14618.1	13740.25
811.5293	413.1868	14973.05	14081.75
811.673	415.3675	15250.5	14357.35
811.8166	417.5477	15376.45	14485.1
811.9603	419.7273	15363.3	14468.6
812.104	421.9064	15281.05	14380.6
812.2477	424.0848	15198.6	14308.3
812.3914	426.2627	14992.55	14099.85
812.5351	428.4399	14739.1	13844.9
812.6788	430.6166	14404.9	13506.1
812.8226	432.7928	14005.75	13108.35
812.9663	434.9683	13690.7	12795.05
813.1101	437.1432	13504.35	12611.6
813.2539	439.3176	13317.55	12432.5
813.3977	441.4914	13203.4	12317.85
813.5415	443.6645	13167.4	12276.7
813.6853	445.8371	13126.45	12234.85
813.8291	448.0091	13096.4	12206.5
813.973	450.1806	13060.55	12168.45
814.1168	452.3514	13019.75	12132.05
814.2607	454.5216	13022.9	12123.25
814.4046	456.6913	13011.4	12114.9
814.5485	458.8603	13039.8	12148.55
814.6924	461.0288	13102.45	12216
814.8363	463.1967	13110.25	12228.45
814.9802	465.3639	13191.3	12303.4
815.1241	467.5306	13250.2	12360.6
815.2681	469.6967	13342	12455.75
815.412	471.8622	13445.9	12561.1
815.556	474.0271	13541.6	12653.55
815.7	476.1914	13611.5	12713.2
815.844	478.3551	13626.15	12731.75
815.988	480.5182	13644.6	12754
816.132	482.6807	13666.1	12783.7
816.276	484.8426	13800.9	12924.7
816.4201	487.0039	14108.3	13227.8
816.5641	489.1647	14487.15	13598.6
816.7082	491.3248	14887.4	13993.5
816.8522	493.4843	15062.15	14173.5
816.9963	495.6432	15024.75	14133.75
817.1404	497.8015	14920.75	14020.75
817.2845	499.9592	14898.95	13988.65
817.4286	502.1163	14792.15	13888.55
817.5727	504.2728	14523	13626.85
817.7168	506.4287	14226.05	13343.95
817.861	508.5839	13838.7	12953.7
818.0051	510.7386	13534.15	12641.2
818.1493	512.8927	13398.25	12491.35
818.2935	515.0461	13332.25	12429.55
818.4377	517.199	13353.3	12448.7
818.5818	519.3512	13425.3	12522.65
818.726	521.5029	13564.85	12653.6
818.8703	523.6539	13709	12803.25
819.0145	525.8043	13758.05	12850.2
819.1587	527.9541	13771.6	12863.2
819.303	530.1033	13650.3	12747.6
819.4472	532.2519	13628.6	12724.65
819.5915	534.3999	13708.35	12801.2
819.7357	536.5472	13905.25	13003.4
819.88	538.694	14271.15	13369.15
820.0243	540.8401	14751.6	13844.65
820.1686	542.9856	15138.8	14221.5
820.3129	545.1305	15243.55	14320.75
820.4572	547.2748	15134.7	14207.6
820.6016	549.4185	14835.25	13910.4
820.7459	551.5615	14580.15	13659.3
820.8902	553.704	14487.5	13568.5
821.0346	555.8458	14464.2	13543.25
821.1789	557.987	14569.25	13656.8
821.3233	560.1276	14650.7	13734.85
821.4677	562.2675	14805.05	13890.3
821.6121	564.4069	15035.4	14118.55
821.7565	566.5456	15228.8	14314.1
821.9009	568.6837	15222.7	14311.9
822.0453	570.8212	14892.7	13983.55
822.1897	572.958	14438.65	13527.9
822.3342	575.0942	14014.95	13103.1
822.4786	577.2299	13727.3	12824.45
822.6231	579.3648	13611.75	12719.4
822.7675	581.4992	13627.8	12741.45
822.912	583.6329	13799.2	12918.15
823.0565	585.766	13980.75	13093.75
823.201	587.8985	14144.8	13250.65
823.3454	590.0304	14172.5	13244.25
823.4899	592.1616	14118.2	13201.95
823.6345	594.2922	14012.85	13092.35
823.779	596.4222	13833.85	12911.15
823.9235	598.5515	13652.15	12727.75
824.068	600.6802	13490.7	12568.5
824.2126	602.8083	13286.35	12366.2
824.3571	604.9358	13245.65	12324.45
824.5017	607.0626	13253.5	12334.85
824.6462	609.1888	13253.2	12327.2
824.7908	611.3144	13307.85	12379.75
824.9354	613.4393	13313.05	12379.95
825.08	615.5636	13273.4	12342.15
825.2246	617.6873	13250.6	12324.1
825.3692	619.8103	13146.1	12220.9
825.5138	621.9327	13030.8	12109.5
825.6584	624.0544	12931.75	12013.75
825.803	626.1756	12828.1	11910.45
825.9477	628.2961	12756.4	11831.15
826.0923	630.4159	12689.65	11765.85
826.237	632.5351	12658.25	11730.7
826.3816	634.6537	12623.45	11695.8
826.5263	636.7716	12610.2	11674.75
826.6709	638.8889	12646.85	11710.65
826.8156	641.0056	12659.45	11728.1
826.9603	643.1216	12642.05	11707.85
827.105	645.237	12654.35	11728
827.2497	647.3518	12553.05	11630.55
827.3944	649.4659	12592.15	11677.05
827.5391	651.5793	12569.35	11652.6
827.6838	653.6922	12550.85	11629.4
827.8285	655.8043	12539.85	11616.75
827.9733	657.9159	12544.6	11621.35
828.118	660.0268	12495.25	11570.25
828.2627	662.137	12455.1	11531.7
828.4075	664.2466	12434.4	11502.75
828.5522	666.3556	12434.5	11503.9
828.697	668.4639	12389.95	11462.95
828.8418	670.5716	12425.65	11506.95
828.9865	672.6786	12471.15	11545.3
829.1313	674.785	12483.05	11549.1
829.2761	676.8907	12523.4	11593.7
829.4209	678.9958	12568.8	11645.9
829.5657	681.1002	12539.35	11608.25
829.7105	683.204	12550.35	11610.6
829.8553	685.3072	12503.5	11569.7
830.0001	687.4097	12465.3	11532.1
830.1449	689.5115	12440.05	11503.95
830.2898	691.6127	12400.45	11469.75
830.4346	693.7132	12356.4	11427.45
830.5794	695.8131	12329.8	11390.3
830.7243	697.9123	12336.3	11397.85
830.8691	700.0109	12343.8	11399.25
831.014	702.1089	12350.65	11415.95
831.1588	704.2061	12362.7	11428.85
831.3037	706.3028	12412.45	11475.6
831.4486	708.3987	12446.55	11507.15
831.5935	710.4941	12501.2	11567.3
831.7383	712.5887	12612.25	11678.6
831.8832	714.6827	12848.4	11911.25
832.0281	716.7761	13117.25	12187.55
832.173	718.8688	13427.7	12491.75
832.3179	720.9608	13604.65	12663.7
832.4628	723.0522	13669.95	12723.05
832.6077	725.1429	13582	12640
832.7527	727.233	13443.45	12506.55
832.8976	729.3224	13354.05	12416.9
833.0425	731.4112	13163.2	12224.5
833.1874	733.4993	12953.55	12015.4
833.3324	735.5867	12773.25	11835.9
833.4773	737.6735	12635.45	11698.95
833.6222	739.7596	12526.3	11584
833.7672	741.845	12422.95	11482.25
833.9122	743.9298	12371.3	11431.9
834.0571	746.014	12359.35	11419.75
834.2021	748.0974	12359.2	11412.75
834.347	750.1802	12393.8	11445.3
834.492	752.2624	12396.3	11449.1
834.637	754.3439	12449.5	11501
834.782	756.4247	12545.5	11595.3
834.9269	758.5048	12678.3	11737.75
835.0719	760.5843	12928.6	11982.2
835.2169	762.6631	13287.55	12340.95
835.3619	764.7413	13823.95	12877.7
835.5069	766.8188	14468.75	13524.75
835.6519	768.8956	14964.5	14020.2
835.7969	770.9718	15250.65	14308.65
835.9419	773.0473	15152.9	14210.85
836.0869	775.1221	14848.55	13904.9
836.232	777.1962	14563.6	13622.35
836.377	779.2697	14377.65	13431.9
836.522	781.3426	14432.2	13474.75
836.667	783.4147	14608.95	13660.85
836.8121	785.4862	14846.15	13900.3
836.9571	787.557	14774.85	13827.05
837.1021	789.6271	14390.65	13440.95
837.2472	791.6966	13803.8	12854.35
837.3922	793.7654	13253	12307.2
837.5373	795.8335	12901.8	11957.05
837.6823	797.901	12655.85	11710.65
837.8274	799.9678	12539.6	11589.2
837.9724	802.0339	12513.7	11564.15
838.1175	804.0993	12539	11578.45
838.2626	806.1641	12507.3	11556.65
838.4076	808.2282	12444.25	11498.65
838.5527	810.2916	12367.55	11416.35
838.6978	812.3544	12288.25	11344
838.8428	814.4164	12232.6	11285.65
838.9879	816.4778	12227.2	11275.8
839.133	818.5385	12264.2	11312.7
839.2781	820.5986	12382.6	11429.4
839.4232	822.658	12570.4	11617.3
839.5682	824.7166	12745.85	11795.95
839.7133	826.7747	13114.5	12166.6
839.8584	828.832	13437.6	12484
840.0035	830.8886	13644.15	12692.05
840.1486	832.9446	13794.25	12842
840.2937	834.9999	13760.15	12808.05
840.4388	837.0545	13666.25	12713.2
840.5839	839.1085	13504.15	12550.65
840.729	841.1618	13349.3	12395.25
840.8741	843.2143	13226.45	12276.75
841.0192	845.2662	13125.3	12174.1
841.1643	847.3175	13022.25	12068.05
841.3095	849.368	12925.5	11974.5
841.4546	851.4179	12833.75	11882.2
841.5997	853.467	12694.85	11747.75
841.7448	855.5155	12612.1	11660.05
841.8899	857.5633	12522.55	11572.7
842.0351	859.6105	12413.25	11458.55
842.1802	861.6569	12344.55	11387.55
842.3253	863.7027	12291.75	11334.05
842.4704	865.7478	12273.05	11316.3
842.6156	867.7922	12276.95	11322.25
842.7607	869.8359	12314.85	11363.3
842.9058	871.8789	12387.3	11433.95
843.0509	873.9212	12519.7	11533.45
843.1961	875.9629	12628.15	11674.05
843.3412	878.0039	12798.65	11843.4
843.4863	880.0441	12905.65	11954
843.6315	882.0837	12930.5	11977.7
843.7766	884.1226	12897	11937.6
843.9218	886.1609	12837.8	11885
844.0669	888.1984	12818.65	11866.2
844.212	890.2352	12894.95	11940.45
844.3572	892.2714	12861.4	11899.75
844.5023	894.3069	12861.7	11906.85
844.6475	896.3416	12740.15	11787
844.7926	898.3757	12634.45	11677.4
844.9377	900.4091	12597.3	11640.3
845.0829	902.4418	12617.75	11653.9
845.228	904.4739	12642	11681.95
845.3732	906.5052	12660.9	11701.4
845.5183	908.5358	12610.1	11653.7
845.6635	910.5658	12452.1	11495
845.8086	912.595	12248.15	11291.85
845.9538	914.6236	12086.6	11130.7
846.0989	916.6515	12006.45	11049.7
846.2441	918.6786	11953.25	10991.55
846.3892	920.7051	12011.3	11049.35
846.5344	922.7309	12084.8	11126.6
846.6795	924.756	12161.65	11206
846.8246	926.7804	12228.45	11268.75
846.9698	928.8041	12203.3	11243.4
847.1149	930.8272	12298.7	11342.85
847.2601	932.8495	12203	11244.65
847.4052	934.8711	12184.1	11225.65
847.5504	936.892	12058.55	11100.5
847.6955	938.9123	11993.6	11032.9
847.8407	940.9318	11953.15	10994.8
847.9858	942.9506	11856	10899.05
848.131	944.9688	11771.05	10816
848.2761	946.9862	11721.3	10763.7
848.4213	949.003	11617.25	10658.35
848.5664	951.019	11623.75	10668.5
848.7115	953.0344	11589.55	10632.4
848.8567	955.0491	11601.55	10642.75
849.0018	957.063	11659.15	10698.45
849.147	959.0763	11779	10821.05
849.2921	961.0888	11807.7	10850.1
849.4373	963.1007	11886.25	10933.85
849.5824	965.1119	11929.55	10985.4
849.7275	967.1223	11945.05	11005.55
849.8727	969.1321	11948.1	11007.95
850.0178	971.1412	11978.55	11032.65
850.1629	973.1495	11976.4	11024.45
850.3081	975.1572	12044.25	11041.6
850.4532	977.1641	12054	11097.1
850.5983	979.1704	12010.85	11047.05
850.7435	981.1759	12001.8	11043.35
850.8886	983.1808	12033.2	11072.9
851.0337	985.1849	12122.15	11147.5
851.1788	987.1884	12209.3	11250.55
851.324	989.1911	12353.9	11395.7
851.4691	991.1932	12496.25	11543.55
851.6142	993.1945	12512.7	11559.3
851.7593	995.1951	12454.75	11500.2
851.9045	997.1951	12452.55	11490.55
852.0496	999.1943	12390.5	11433.15
852.1947	1001.1928	12378.8	11417.8
852.3398	1003.1906	12365.6	11404.55
852.4849	1005.1877	12453.9	11496.2
852.63	1007.1841	12473.2	11519.35
852.7751	1009.1798	12458.75	11504.95
852.9202	1011.1748	12306.9	11351.4
853.0653	1013.1691	12134.65	11178.45
853.2104	1015.1627	11894.55	10938.2
853.3555	1017.1556	11699.6	10748.15
853.5006	1019.1477	11610.3	10656.35
853.6457	1021.1392	11524.35	10578.45
853.7908	1023.1299	11494.2	10555.6
853.9359	1025.12	11493.35	10556.7
854.081	1027.1093	11538.4	10611.05
854.2261	1029.0979	11674.1	10752.4
854.3712	1031.0859	11746.8	10818.3
854.5163	1033.0731	11757.6	10819.45
854.6613	1035.0596	11696.15	10748.3
854.8064	1037.0454	11575.05	10625.2
854.9515	1039.0304	11450.95	10500.5
855.0965	1041.0148	11352.4	10397.7
855.2416	1042.9985	11273.8	10319.05
855.3867	1044.9814	11227.1	10274.05
855.5317	1046.9636	11192.2	10241.35
855.6768	1048.9452	11144.75	10194.45
855.8219	1050.926	11189.95	10237.7
855.9669	1052.9061	11173.6	10222.4
856.112	1054.8855	11197.7	10242.5
856.257	1056.8642	11277.45	10321.35
856.4021	1058.8421	11327.85	10368.65
856.5471	1060.8194	11327.95	10372.15
856.6921	1062.7959	11371.6	10416.6
856.8372	1064.7717	11437.6	10479.6
856.9822	1066.7469	11447.1	10492.2
857.1272	1068.7213	11507.55	10552.25
857.2723	1070.695	11504.5	10548.9
857.4173	1072.6679	11480.75	10524.3
857.5623	1074.6402	11456	10498.75
857.7073	1076.6117	11458.15	10498.05
857.8523	1078.5826	11394.7	10442.9
857.9973	1080.5527	11339.4	10378.5
858.1423	1082.5221	11381.5	10427.85
858.2873	1084.4908	11457.7	10503.75
858.4323	1086.4587	11622.25	10670.45
858.5773	1088.426	11711.1	10755.45
858.7223	1090.3925	11705.1	10747.65
858.8673	1092.3584	11689.05	10735.05
859.0123	1094.3235	11645.8	10693.95
859.1573	1096.2879	11629.3	10675.6
859.3022	1098.2515	11662.8	10710.45
859.4472	1100.2145	11764.55	10812.25
859.5922	1102.1767	11922.25	10966.4
859.7371	1104.1382	12106.3	11154.6
859.8821	1106.099	12334.15	11381.1
860.027	1108.0591	12519.45	11567.15
860.172	1110.0185	12678.95	11724
860.3169	1111.9771	12747.85	11795.45
860.4619	1113.9351	12588.3	11639.5
860.6068	1115.8923	12368.45	11413.85
860.7517	1117.8488	12141.95	11187.75
860.8967	1119.8045	11874.35	10924.55
861.0416	1121.7596	11744	10792.15
861.1865	1123.7139	11689.1	10739.6
861.3314	1125.6675	11672.4	10720.65
861.4763	1127.6204	11732.6	10781.7
861.6212	1129.5726	11698.95	10746.3
861.7661	1131.524	11675.2	10720.95
861.911	1133.4748	11590.15	10638.35
862.0559	1135.4248	11486.15	10531.35
862.2008	1137.3741	11396.35	10446.6
862.3457	1139.3226	11342.55	10389.4
862.4905	1141.2705	11294.4	10338.05
862.6354	1143.2176	11234.5	10275.9
862.7803	1145.164	11186.3	10232.25
862.9251	1147.1097	11179.4	10225.55
863.07	1149.0546	11137.3	10185.35
863.2148	1150.9989	11023.3	10070.15
863.3597	1152.9424	10941.15	9985.5
863.5045	1154.8852	10813.2	9858.75
863.6493	1156.8272	10719	9764.7
863.7942	1158.7686	10702.85	9742.2
863.939	1160.7092	10701.5	9746.75
864.0838	1162.6491	10714.5	9760.75
864.2286	1164.5883	10796.3	9844.35
864.3734	1166.5267	10898.2	9943.2
864.5182	1168.4644	11050.4	10095.35
864.663	1170.4014	11229.25	10270.85
864.8078	1172.3377	11480.35	10531.55
864.9526	1174.2732	11722.8	10773.25
865.0974	1176.2081	12051.35	11102.7
865.2421	1178.1421	12405.65	11452.75
865.3869	1180.0755	12755.7	11807.8
865.5317	1182.0082	12925	11976.6
865.6764	1183.9401	13032.7	12084.8
865.8212	1185.8713	12930.25	11989.7
865.9659	1187.8017	12637.45	11702.5
866.1106	1189.7315	12331.95	11406
866.2554	1191.6605	11987.45	11061.8
866.4001	1193.5888	11769.75	10838.05
866.5448	1195.5163	11668.7	10729.6
866.6895	1197.4432	11573.15	10627.85
866.8342	1199.3693	11538.45	10591.1
866.9789	1201.2947	11515.55	10564.95
867.1236	1203.2193	11501.4	10553.95
867.2683	1205.1432	11509.65	10562.9
867.413	1207.0664	11500.35	10556.35
867.5576	1208.9889	11504.1	10555.4
867.7023	1210.9106	11486.9	10542.05
867.847	1212.8316	11533.8	10588.05
867.9916	1214.7519	11566.05	10609.45
868.1363	1216.6715	11613.6	10665.6
868.2809	1218.5903	11679.45	10732.25
868.4255	1220.5084	11677.3	10732.65
868.5701	1222.4257	11703.7	10755.4
868.7148	1224.3424	11734.1	10791.2
868.8594	1226.2583	11782.5	10833.5
869.004	1228.1735	11877.7	10930.4
869.1486	1230.0879	11986.45	11041.25
869.2932	1232.0016	12140.95	11196
869.4377	1233.9146	12203.75	11255.95
869.5823	1235.8269	12159.05	11214.75
869.7269	1237.7384	12060.35	11112.9
869.8715	1239.6492	11866.95	10925
870.016	1241.5592	11805.2	10857.8
870.1606	1243.4686	11757.85	10812.8
870.3051	1245.3772	11806.15	10862.85
870.4496	1247.285	11873.85	10930.55
870.5941	1249.1922	11949.8	11006.15
870.7387	1251.0986	11947.3	11002.95
870.8832	1253.0042	12006	11060.7
871.0277	1254.9092	12068.4	11126.3
871.1722	1256.8134	12151.45	11205.45
871.3167	1258.7169	12280.45	11332.9
871.4611	1260.6196	12423.4	11479.65
871.6056	1262.5216	12649	11704.15
871.7501	1264.4229	12865	11923
871.8945	1266.3234	13035.05	12094
872.039	1268.2232	13137.35	12188.85
872.1834	1270.1223	13161.2	12216.75
872.3278	1272.0207	13187.75	12239.65
872.4723	1273.9183	13151.25	12201.75
872.6167	1275.8151	13076.55	12131.9
872.7611	1277.7113	13037.1	12093.75
872.9055	1279.6067	12980.85	12037.95
873.0499	1281.5014	13005.4	12058.05
873.1943	1283.3953	13137.8	12191.9
873.3386	1285.2885	13333.15	12390.7
873.483	1287.181	13573.95	12631.45
873.6274	1289.0727	13821.65	12877.75
873.7717	1290.9637	13947.9	13006.55
873.9161	1292.854	14127.8	13183.8
874.0604	1294.7435	14186.45	13242.5
874.2047	1296.6323	14279.05	13335.2
874.349	1298.5204	14318.9	13372.5
874.4933	1300.4077	14395.95	13452.6
874.6376	1302.2943	14402.3	13456.5
874.7819	1304.1802	14319.25	13375.15
874.9262	1306.0653	14054.1	13111.75
875.0705	1307.9497	13750.2	12810.85
875.2147	1309.8333	13500.25	12557
875.359	1311.7162	13295.85	12353.85
875.5032	1313.5984	13241.95	12295.05
875.6475	1315.4798	13194	12246.95
875.7917	1317.3605	13230.4	12270.35
875.9359	1319.2405	13207.05	12261.8
876.0801	1321.1197	13087.7	12141.15
876.2243	1322.9982	12891.3	11942.35
876.3685	1324.876	12732.4	11791.9
876.5127	1326.753	12525.3	11581.95
876.6569	1328.6293	12472.55	11526.6
876.801	1330.5048	12397.3	11451.2
876.9452	1332.3796	12327.4	11381.7
877.0893	1334.2537	12294.65	11322.85
877.2335	1336.127	12243.6	11299.6
877.3776	1337.9996	12198.6	11256.1
877.5217	1339.8714	12177.45	11233.55
877.6658	1341.7426	12166	11179
877.8099	1343.6129	12171.2	11225.1
877.954	1345.4826	12130.15	11184.8
878.0981	1347.3515	12130.75	11185.6
878.2422	1349.2196	12101	11155.5
878.3862	1351.087	12125.15	11184.6
878.5303	1352.9537	12186.3	11242.45
878.6743	1354.8197	12289.35	11342.1
878.8184	1356.6849	12424.05	11477.2
878.9624	1358.5493	12556.55	11608.65
879.1064	1360.4131	12673.35	11729.6
879.2504	1362.276	12693.55	11750.6
879.3944	1364.1383	12605.4	11664.35
879.5384	1365.9998	12351.25	11402.8
879.6823	1367.8606	12054.1	11110.25
879.8263	1369.7206	11722.6	10778.9
879.9702	1371.5799	11455.2	10507.7
880.1142	1373.4384	11260.65	10318.1
880.2581	1375.2962	11032.4	10086.65
880.402	1377.1533	10771.5	9831.15
880.5459	1379.0096	10422.65	9486.9
880.6898	1380.8652	10114.8	9178.45
880.8337	1382.7201	9832.05	8894.25
880.9776	1384.5742	9609.7	8666.1
881.1215	1386.4275	9432.85	8487.7
881.2653	1388.2802	9284.25	8343.3
881.4092	1390.132	9175.8	8233.85
881.553	1391.9832	9092.9	8147.55
881.6968	1393.8336	9043.45	8101.45
881.8406	1395.6832	8988.1	8044.9
881.9844	1397.5322	8948.7	8007.35
882.1282	1399.3803	8936.65	7991.6
882.272	1401.2278	8879.4	7937.75
882.4158	1403.0745	8879.1	7939.45
882.5595	1404.9204	8886.55	7946.45
882.7033	1406.7656	8914.65	7973.35
882.847	1408.6101	8920.5	7978.4
882.9908	1410.4538	8933.75	7993.65
883.1345	1412.2968	8983.2	8042.4
883.2782	1414.139	9030.55	8091.8
883.4219	1415.9805	9096.3	8154.95
883.5656	1417.8213	9200.85	8253.75
883.7092	1419.6613	9299.5	8360.7
883.8529	1421.5006	9473.85	8533.4
883.9965	1423.3391	9674.3	8732.3
884.1402	1425.1769	9982.85	9044
884.2838	1427.0139	10439.05	9496.25
884.4274	1428.8502	10991.25	10050
884.571	1430.6858	11570.1	10631.75
884.7146	1432.5206	11979.35	11040.8
884.8582	1434.3547	12193.95	11255.65
885.0018	1436.188	12217.65	11278.4
885.1453	1438.0206	12121.6	11183.35
885.2889	1439.8524	11958.55	11018.4
885.4324	1441.6835	11857.85	10912.5
885.5759	1443.5139	11763.4	10819.35
885.7194	1445.3435	11690.1	10749.8
885.8629	1447.1724	11643.2	10705
886.0064	1449.0005	11556.45	10617.6
886.1499	1450.8279	11497.8	10560.1
886.2933	1452.6545	11457	10521.2
886.4368	1454.4804	11477.5	10542.75
886.5802	1456.3056	11476.7	10535.25
886.7237	1458.13	11407.6	10471.25
886.8671	1459.9536	11193.6	10256.55
887.0105	1461.7766	10879.25	9942.25
887.1539	1463.5987	10517.15	9578.15
887.2972	1465.4202	10159.35	9222.25
887.4406	1467.2409	9794.9	8855.2
887.584	1469.0608	9517.15	8581.1
887.7273	1470.88	9255.3	8317.2
887.8706	1472.6984	9042.1	8103.9
888.0139	1474.5161	8810.1	7871.5
888.1572	1476.3331	8649.1	7713.35
888.3005	1478.1493	8530.75	7591.85
888.4438	1479.9648	8444.2	7506.7
888.5871	1481.7795	8362.55	7425.15
888.7303	1483.5935	8290.15	7350.65
888.8736	1485.4067	8229.95	7293.35
889.0168	1487.2192	8173.05	7236.4
889.16	1489.031	8109.95	7167.8
889.3032	1490.842	8082.4	7146.05
889.4464	1492.6522	8055.8	7116.95
889.5896	1494.4618	7994.75	7056.15
889.7327	1496.2705	7978.3	7039.9
889.8759	1498.0785	7951.4	7014.05
890.019	1499.8858	7902.85	6964.45
890.1622	1501.6924	7871.45	6934.45
890.3053	1503.4981	7837.75	6899.4
890.4484	1505.3032	7809.7	6873.75
890.5914	1507.1075	7753.95	6817.75
890.7345	1508.911	7726.35	6794.2
890.8776	1510.7138	7692.6	6759.65
891.0206	1512.5159	7653.35	6718.6
891.1637	1514.3172	7593.45	6659.95
891.3067	1516.1178	7546.7	6616.55
891.4497	1517.9176	7520.55	6582.1
891.5927	1519.7166	7483.7	6548.95
891.7357	1521.515	7467.75	6528.9
891.8786	1523.3126	7438.1	6502.35
892.0216	1525.1094	7406.9	6471.55
892.1645	1526.9055	7388.4	6458.55
892.3074	1528.7008	7354.9	6422.45
892.4503	1530.4954	7332.35	6400.5
892.5932	1532.2893	7303.5	6375.95
892.7361	1534.0824	7285.8	6355.55
892.879	1535.8747	7270.65	6345
893.0218	1537.6663	7254.2	6326.2
893.1647	1539.4572	7259.25	6329.15
893.3075	1541.2473	7252.35	6322.75
893.4503	1543.0367	7253.5	6327.05
893.5931	1544.8253	7250.1	6314
893.7359	1546.6132	7233.5	6302.85
893.8787	1548.4003	7252.5	6314.2
894.0214	1550.1867	7288.8	6352.7
894.1642	1551.9723	7339.9	6411.25
894.3069	1553.7572	7398.95	6470.95
894.4496	1555.5414	7472.65	6547.5
894.5923	1557.3247	7580.05	6655.1
894.735	1559.1074	7672.2	6752.25
894.8777	1560.8893	7770.2	6848.85
895.0204	1562.6705	7860.95	6940.9
895.163	1564.4509	7961.55	7041.25
895.3056	1566.2305	8015.75	7098.85
895.4482	1568.0094	8071.35	7155.75
895.5908	1569.7876	8092.35	7171.3
895.7334	1571.565	8086.55	7165.4
895.876	1573.3417	8101.3	7178.5
896.0186	1575.1176	8064.55	7143.5
896.1611	1576.8928	8043.9	7131.75
896.3036	1578.6672	7978.15	7066.4
896.4461	1580.4409	7947.9	7039.65
896.5886	1582.2138	7862.95	6950.45
896.7311	1583.986	7800.2	6883.4
896.8736	1585.7575	7815.6	6900
897.0161	1587.5282	7805.85	6895.55
897.1585	1589.2981	7819.5	6912.9
897.3009	1591.0673	7842.15	6931.25
897.4433	1592.8358	7896.9	6986
897.5857	1594.6035	7948.05	7032.25
897.7281	1596.3704	7996	7079.05
897.8705	1598.1366	8058.25	7146.85
898.0128	1599.9021	8123.35	7208.15
898.1551	1601.6668	8207.55	7294.4
898.2975	1603.4308	8317.85	7401.8
898.4398	1605.194	8454.65	7537.3
898.5821	1606.9564	8589.15	7680.3
898.7243	1608.7182	8785.7	7879.45
898.8666	1610.4791	9011.7	8111.35
899.0088	1612.2394	9220.3	8321.7
899.1511	1613.9988	9441.6	8539.5
899.2933	1615.7576	9688	8782.5
899.4355	1617.5156	9908.75	8987.75
899.5776	1619.2728	10044.5	9126.7
899.7198	1621.0293	10078.95	9162.9
899.862	1622.785	10019.15	9105
900.0041	1624.54	9826.8	8918.35
900.1462	1626.2942	9601.05	8695.9
900.2883	1628.0477	9273.9	8367.5
900.4304	1629.8005	9024.05	8114.75
900.5725	1631.5525	8791.1	7888.25
900.7145	1633.3037	8572.7	7668.2
900.8566	1635.0542	8411.75	7507.5
900.9986	1636.804	8298.15	7392.2
901.1406	1638.553	8289.3	7306.1
901.2826	1640.3013	8197.9	7291.4
901.4245	1642.0488	8169.45	7260.65
901.5665	1643.7955	8223.85	7322.6
901.7085	1645.5416	8265.65	7363.45
901.8504	1647.2868	8355.45	7449.65
901.9923	1649.0313	8475.95	7568.25
902.1342	1650.7751	8611.55	7703.35
902.2761	1652.5181	8782.1	7879.75
902.4179	1654.2604	8949.1	8042.4
902.5598	1656.0019	9203.4	8299.85
902.7016	1657.7427	9503.15	8599.4
902.8434	1659.4828	9790.1	8881.5
902.9852	1661.222	9935.1	9025.65
903.127	1662.9606	9901.85	8994.55
903.2687	1664.6984	9663.2	8754.75
903.4105	1666.4354	9250.7	8337.35
903.5522	1668.1717	8691.95	7779.8
903.6939	1669.9072	8161.7	7248.25
903.8356	1671.642	7708.9	6797.65
903.9773	1673.3761	7322.6	6412.75
904.119	1675.1094	7018.85	6111
904.2606	1676.8419	6795.95	5890.1
904.4022	1678.5737	6614	5704.25
904.5439	1680.3048	6443.55	5534.4
904.6855	1682.0351	6331.05	5425.05
904.827	1683.7646	6229.75	5317.25
904.9686	1685.4934	6166.4	5259.35
905.1101	1687.2215	6076.3	5172.05
905.2517	1688.9488	6007.7	5102.85
905.3932	1690.6754	5958.6	5054.8
905.5347	1692.4012	5924.55	5015.85
905.6761	1694.1263	5865.7	4957.9
905.8176	1695.8506	5842.75	4935.2
905.9591	1697.5742	5810.65	4907.4
906.1005	1699.297	5753.15	4852.8
906.2419	1701.0191	5714.75	4815
906.3833	1702.7404	5691.65	4793.5
906.5246	1704.461	5649.2	4745.3
906.666	1706.1808	5616.95	4710.05
906.8073	1707.8999	5611.3	4708.75
906.9487	1709.6182	5538.25	4640.45
907.09	1711.3358	5534.9	4635.45
907.2313	1713.0527	5528.5	4633.8
907.3725	1714.7688	5483.15	4579.45
907.5138	1716.4841	5470.35	4568.55
907.655	1718.1987	5457.85	4552.65
907.7962	1719.9126	5424.25	4525.1
907.9374	1721.6257	5412.2	4514.05
908.0786	1723.338	5371.6	4476.3
908.2198	1725.0496	5360	4461.45
908.3609	1726.7605	5351.2	4450.2
908.502	1728.4706	5312.15	4412.4
908.6431	1730.18	5288.8	4392.65
908.7842	1731.8886	5295	4401.4
908.9253	1733.5964	5283.6	4366.1
909.0664	1735.3036	5266.45	4366.75
909.2074	1737.0099	5237.85	4340
909.3484	1738.7156	5220.1	4325
909.4894	1740.4204	5182.15	4280.85
909.6304	1742.1246	5160.25	4260.9
909.7714	1743.8279	5152	4256.4
909.9123	1745.5306	5148.05	4251.65
910.0532	1747.2325	5119.7	4223.35
910.1941	1748.9336	5084.6	4186.6
910.335	1750.634	5045.65	4145.05
910.4759	1752.3336	5057	4160.7
910.6168	1754.0325	5036.8	4143.6
910.7576	1755.7307	5024.2	4130.5
910.8984	1757.4281	5016	4119.2
911.0392	1759.1247	5010.3	4101.45
911.18	1760.8206	5039.75	4132.75
911.3208	1762.5158	5005.6	4100.35
911.4615	1764.2102	4980.05	4080.45
911.6022	1765.9039	4944.55	4047.85
911.7429	1767.5968	4927.25	4034.05
911.8836	1769.289	4931.4	4038.35
912.0243	1770.9804	4919.7	4022.4
912.1649	1772.6711	4912.85	4011.75
912.3056	1774.361	4890.4	3987.7
912.4462	1776.0502	4881.9	3980
912.5868	1777.7386	4868.3	3967.6
912.7274	1779.4263	4852.55	3956.5
912.8679	1781.1132	4852.9	3959.7
913.0084	1782.7994	4818.9	3926.45
913.149	1784.4849	4816.6	3924.8
913.2895	1786.1696	4806.4	3906.6
913.4299	1787.8535	4805.7	3916.7
913.5704	1789.5367	4784.55	3895.25
913.7108	1791.2192	4795.75	3904.15
913.8513	1792.9009	4793.8	3874.85
913.9917	1794.5818	4770.95	3870.2
914.132	1796.2621	4739.5	3842.1
914.2724	1797.9415	4745.55	3850.2
914.4128	1799.6202	4737.2	3839.95
914.5531	1801.2982	4730	3829.95
914.6934	1802.9755	4713.45	3815.8
914.8337	1804.6519	4702.5	3805.1
914.9739	1806.3277	4672.9	3780.1
915.1142	1808.0027	4654	3761.35
915.2544	1809.6769	4652.65	3762.1
915.3946	1811.3504	4632.05	3741.4
915.5348	1813.0231	4642.2	3751.05
915.675	1814.6951	4627.95	3733.3
915.8151	1816.3664	4629.6	3733.5
915.9553	1818.0369	4608.45	3712.1
916.0954	1819.7067	4617.2	3721.05
916.2355	1821.3757	4607.7	3709.4
916.3755	1823.044	4589.9	3690.9
916.5156	1824.7115	4578.9	3681.55
916.6556	1826.3783	4559.6	3663.7
916.7956	1828.0443	4561.8	3668.5
916.9356	1829.7096	4562.25	3663.9
917.0756	1831.3741	4539.95	3641.2
917.2155	1833.0379	4526.45	3631.85
917.3555	1834.701	4518.05	3624.4
917.4954	1836.3633	4518	3627.8
917.6353	1838.0248	4507.55	3614.95
917.7751	1839.6856	4502.35	3608.6
917.915	1841.3457	4496.1	3604.15
918.0548	1843.005	4487.55	3591.9
918.1946	1844.6636	4488.55	3594.7
918.3344	1846.3214	4452.55	3557.3
918.4742	1847.9785	4465.85	3571.15
918.6139	1849.6349	4469.7	3572.35
918.7537	1851.2904	4465.1	3561.75
918.8934	1852.9453	4434.1	3536.1
919.0331	1854.5994	4424.25	3525.2
919.1727	1856.2528	4425.45	3523.95
919.3124	1857.9054	4406.85	3510.65
919.452	1859.5572	4404.7	3511.4
919.5916	1861.2083	4401	3507.4
919.7312	1862.8587	4406.4	3508.6
919.8708	1864.5084	4386.05	3489.6
920.0103	1866.1572	4387.8	3490.05
920.1498	1867.8054	4362.25	3464.95
920.2893	1869.4528	4354.45	3456.35
920.4288	1871.0994	4335.85	3437.1
920.5683	1872.7453	4338.2	3440.25
920.7077	1874.3905	4345.5	3433.1
920.8471	1876.0349	4311.1	3414.55
920.9865	1877.6786	4318.5	3418.3
921.1259	1879.3215	4300.85	3404.7
921.2653	1880.9637	4300.65	3404.75
921.4046	1882.6051	4280.3	3388.2
921.5439	1884.2458	4272.8	3377.85
921.6832	1885.8858	4266	3372.65
921.8225	1887.525	4258.45	3361.85
921.9617	1889.1634	4240.85	3346.1
922.101	1890.8011	4239.55	3343.85
922.2402	1892.4381	4213.4	3318.3
922.3794	1894.0743	4209.3	3315.8
922.5185	1895.7098	4195.85	3299
922.6577	1897.3446	4192.95	3300.05
922.7968	1898.9786	4179.45	3279.9
922.9359	1900.6118	4190.45	3298.85
923.075	1902.2443	4165.1	3272.55
923.214	1903.8761	4156.05	3262.55
923.3531	1905.5071	4144.9	3249.35
923.4921	1907.1374	4142	3246.2
923.6311	1908.7669	4133.7	3240.3
923.77	1910.3957	4130	3238.5
923.909	1912.0237	4091	3196.6
924.0479	1913.651	4096.75	3201.7
924.1868	1915.2776	4097.55	3202.25
924.3257	1916.9034	4059.2	3166.1
924.4646	1918.5285	4064.45	3173.4
924.6034	1920.1528	4035.4	3140.8
924.7422	1921.7764	4031.75	3137.85
924.881	1923.3992	4039.75	3146.3
925.0198	1925.0213	3993.95	3102.55
925.1586	1926.6427	3994.8	3101.5
925.2973	1928.2633	4157.9	3058.25
925.436	1929.8832	3984.9	3088.35
925.5747	1931.5023	3970.7	3076.1
925.7134	1933.1207	3960.25	3067.05
925.852	1934.7383	3954.4	3061.2
925.9906	1936.3552	3929.4	3037.4
926.1292	1937.9714	3928.65	3035.45
926.2678	1939.5868	3905.3	3009.55
926.4064	1941.2015	3895.8	3000.1
926.5449	1942.8154	3888.75	2991.5
926.6834	1944.4286	3874.1	2979.05
926.8219	1946.041	3874.15	2962.55
926.9604	1947.6528	3844.8	2945.4
927.0988	1949.2637	3853.05	2959.95
927.2372	1950.8739	3852.8	2961.5
927.3756	1952.4834	3821.25	2928.3
927.514	1954.0921	3816.7	2926.3
927.6523	1955.7001	3813.55	2919
927.7907	1957.3074	3793.25	2903.45
927.929	1958.9139	3775.55	2888.55
928.0673	1960.5197	3772.5	2881.45
928.2055	1962.1247	3759.3	2869.8
928.3438	1963.729	3752.45	2865.2
928.482	1965.3325	3726.2	2831.85
928.6202	1966.9353	3714.9	2827.55
928.7584	1968.5374	3719.7	2829.5
928.8965	1970.1387	3716.8	2827.2
929.0346	1971.7393	3708.95	2819.85
929.1727	1973.3392	3694.3	2806.25
929.3108	1974.9383	3666	2780.45
929.4489	1976.5366	3663.5	2776.35
929.5869	1978.1342	3673.15	2785.7
929.7249	1979.7311	3655.6	2768.45
929.8629	1981.3273	3632.2	2744.25
930.0009	1982.9227	3623.7	2735.15
930.1388	1984.5173	3611.45	2726.7
930.2767	1986.1112	3602.4	2717.9
930.4146	1987.7044	3602.05	2715.8
930.5525	1989.2968	3596.6	2709
930.6904	1990.8885	3593.8	2704.8
930.8282	1992.4795	3580.65	2697.3
930.966	1994.0697	3572.15	2688.35
931.1038	1995.6592	3559.75	2674.3
931.2415	1997.2479	3554.4	2667.75
931.3793	1998.8359	3560.3	2677.2
931.517	2000.4232	3530.15	2650.3
931.6547	2002.0097	3510.85	2632.6
931.7923	2003.5955	3514.1	2633.8
931.93	2005.1805	3511.1	2628.05
932.0676	2006.7648	3497.75	2614.8
932.2052	2008.3484	3479.45	2597.25
932.3427	2009.9312	3480.45	2598.8
932.4803	2011.5133	3478.3	2599.5
932.6178	2013.0946	3469.1	2590.05
932.7553	2014.6752	3467.2	2586.65
932.8928	2016.2551	3447.1	2564.6
933.0302	2017.8342	3434.2	2551.55
933.1676	2019.4126	3426	2542.05
933.305	2020.9902	3420.65	2541.85
933.4424	2022.5672	3418.2	2536.2
933.5798	2024.1433	3408.45	2524.5
933.7171	2025.7188	3400.8	2522.5
933.8544	2027.2935	3381.4	2505.25
933.9917	2028.8674	3371.65	2494.25
934.129	2030.4406	3352.45	2473.95
934.2662	2032.0131	3366.6	2490.9
934.4034	2033.5849	3368.1	2488.95
934.5406	2035.1559	3354.75	2479.2
934.6778	2036.7261	3356.45	2475.1
934.8149	2038.2957	3354.5	2469.05
934.952	2039.8645	3354.5	2469.85
935.0891	2041.4325	3347.15	2458.05
935.2262	2042.9998	3324.3	2442.55
935.3632	2044.5664	3310.65	2429.5
935.5002	2046.1323	3300.6	2422.35
935.6372	2047.6974	3305.5	2425.55
935.7742	2049.2617	3300.95	2422.9
935.9111	2050.8254	3302.65	2400.65
936.048	2052.3883	3292.95	2407.7
936.1849	2053.9504	3303.75	2420.3
936.3218	2055.5118	3267.75	2384.75
936.4586	2057.0725	3260.15	2376.5
936.5955	2058.6325	3262.85	2379.9
936.7323	2060.1917	3267.55	2388.25
936.869	2061.7502	3254.75	2372.1
937.0058	2063.3079	3240.9	2363.75
937.1425	2064.8649	3217.75	2335.25
937.2792	2066.4212	3230	2348.55
937.4159	2067.9767	3213.75	2331.8
937.5525	2069.5315	3210.65	2329.3
937.6891	2071.0856	3205.3	2323.6
937.8257	2072.6389	3186.5	2306.15
937.9623	2074.1915	3181.85	2303.6
938.0989	2075.7433	3174.3	2291.05
938.2354	2077.2945	3162.8	2282.2
938.3719	2078.8448	3152.5	2269.15
938.5084	2080.3945	3160.6	2276.55
938.6448	2081.9434	3151.85	2268.45
938.7812	2083.4916	3136.4	2250.7
938.9176	2085.039	3137.05	2247.95
939.054	2086.5857	3131.45	2241
939.1903	2088.1317	3114.9	2223.2
939.3267	2089.677	3112.65	2221.45
939.463	2091.2215	3106.9	2215.55
939.5992	2092.7652	3112.7	2217.2
939.7355	2094.3083	3087.95	2196.25
939.8717	2095.8506	3089.05	2202.7
940.0079	2097.3921	3093.4	2211.55
940.1441	2098.933	3083.75	2197.1
940.2802	2100.4731	3081.1	2196.55
940.4163	2102.0124	3074.15	2179.55
940.5524	2103.5511	3075	2187.65
940.6885	2105.089	3078.15	2190.25
940.8245	2106.6261	3057.8	2171.35
940.9606	2108.1626	3061.65	2175.95
941.0965	2109.6983	3073.7	2158.2
941.2325	2111.2332	3032.75	2144.55
941.3684	2112.7675	3044	2154.65
941.5044	2114.301	3038.8	2150.25
941.6403	2115.8337	3036.7	2149.5
941.7761	2117.3657	3024.4	2138.05
941.912	2118.897	3014.95	2128.05
942.0478	2120.4276	2990.1	2096.8
942.1835	2121.9575	2985.8	2094.8
942.3193	2123.4866	2982.6	2092.1
942.455	2125.0149	2999.7	2108.6
942.5907	2126.5426	2977.95	2095.25
942.7264	2128.0695	2962.15	2076.4
942.8621	2129.5956	2956.8	2078.2
942.9977	2131.1211	2957.15	2071.8
943.1333	2132.6458	2958.35	2073.7
943.2689	2134.1698	2947.7	2060.1
943.4044	2135.693	2939.05	2046.2
943.54	2137.2155	2955.45	2064.55
943.6755	2138.7373	2940.35	2051.9
943.8109	2140.2584	2922.1	2040.2
943.9464	2141.7787	2916.7	2032.2
944.0818	2143.2983	2908.5	2029.7
944.2172	2144.8171	2895.95	2016.5
944.3526	2146.3353	2892.15	2008.25
944.4879	2147.8527	2887.2	2004.25
944.6232	2149.3693	2894.8	2009.7
944.7585	2150.8853	2880.3	1992.9
944.8938	2152.4005	2862.05	1972.65
945.029	2153.9149	2874.45	1983.95
945.1642	2155.4287	2865.9	1978.3
945.2994	2156.9417	2865.7	1977
945.4346	2158.454	2854.85	1968.7
945.5697	2159.9655	2852.65	1971
945.7048	2161.4764	2847.5	1964.25
945.8399	2162.9865	2833.55	1949.3
945.9749	2164.4958	2833.35	1948.9
946.1099	2166.0045	2824.95	1939.25
946.2449	2167.5124	2813.15	1928.4
946.3799	2169.0195	2818.45	1930.45
946.5148	2170.526	2825.7	1937
946.6498	2172.0317	2806.85	1919.4
946.7846	2173.5367	2801.9	1914.7
946.9195	2175.0409	2791.55	1905.85
947.0543	2176.5445	2789.55	1901.85
947.1891	2178.0473	2795.3	1906.6
947.3239	2179.5494	2781.3	1888.6
947.4587	2181.0507	2771.1	1884.2
947.5934	2182.5513	2765.05	1878
947.7281	2184.0512	2763.25	1877.55
947.8628	2185.5504	2754.4	1866.9
947.9974	2187.0488	2744.9	1861.45
948.132	2188.5465	2736.5	1855.35
948.2666	2190.0435	2728.9	1844.25
948.4012	2191.5397	2741.55	1855.7
948.5357	2193.0353	2728.25	1839.35
948.6702	2194.5301	2723.05	1832.6
948.8047	2196.0241	2712.35	1820.65
948.9392	2197.5175	2706.7	1812.95
949.0736	2199.0101	2708.75	1812.65
949.208	2200.502	2696.1	1807.95
949.3424	2201.9931	2690.7	1806.95
949.4767	2203.4835	2686.9	1802.25
949.611	2204.9733	2679.45	1788.8
949.7453	2206.4622	2665.1	1783.15
949.8796	2207.9505	2670.2	1787.4
950.0138	2209.438	2635.55	1757.5
950.148	2210.9248	2645.05	1762.6
950.2822	2212.4109	2647.25	1761.65
950.4164	2213.8962	2650.45	1759.65
950.5505	2215.3809	2649.9	1757.5
950.6846	2216.8648	2635.35	1740.2
950.8186	2218.3479	2624.8	1726.15
950.9527	2219.8304	2618.65	1724.4
951.0867	2221.3121	2614.85	1718.75
951.2207	2222.7931	2611.75	1722.1
951.3546	2224.2733	2600.5	1707.5
951.4886	2225.7529	2591.9	1701.15
951.6225	2227.2317	2591.15	1703.9
951.7563	2228.7098	2584.35	1700.55
951.8902	2230.1872	2577.45	1692.75
952.024	2231.6638	2570.55	1688.6
952.1578	2233.1397	2573.1	1685.15
952.2916	2234.6149	2554.85	1672.5
952.4253	2236.0894	2561.35	1674.55
952.559	2237.5632	2564.65	1668.35
952.6927	2239.0362	2540.6	1652.55
952.8263	2240.5085	2546.7	1660.05
952.9599	2241.9801	2537.9	1648.45
953.0935	2243.4509	2536.85	1646.15
953.2271	2244.921	2531.2	1639.25
953.3606	2246.3904	2512.35	1616.8
953.4941	2247.8591	2524.3	1636.1
953.6276	2249.3271	2507.25	1615.3
953.7611	2250.7943	2501.65	1611.2
953.8945	2252.2608	2491.8	1603.15
954.0279	2253.7266	2489.75	1602.3
954.1612	2255.1917	2483.5	1595.95
954.2946	2256.656	2470.35	1583.15
954.4279	2258.1197	2467.05	1582.1
954.5612	2259.5826	2473.2	1585.6
954.6944	2261.0447	2474.45	1587.05
954.8276	2262.5062	2467.9	1576.15
954.9608	2263.9669	2461.4	1570.55
955.094	2265.4269	2456.3	1567.05
955.2271	2266.8862	2445.85	1557.45
955.3602	2268.3448	2435.5	1550.3
955.4933	2269.8026	2441.3	1556.6
955.6264	2271.2598	2434.35	1548.75
955.7594	2272.7162	2421.95	1537.95
955.8924	2274.1719	2422.8	1534.5
956.0253	2275.6268	2431.25	1539.25
956.1583	2277.0811	2429.25	1538.7
956.2912	2278.5346	2419.45	1533.3
956.4241	2279.9874	2418.4	1533.55
956.5569	2281.4395	2408.2	1522.95
956.6897	2282.8908	2402.4	1511.95
956.8225	2284.3414	2404.75	1512.25
956.9553	2285.7914	2395.7	1506.35
957.088	2287.2406	2386.45	1496.25
957.2207	2288.689	2385.45	1493.9
957.3534	2290.1368	2384.95	1489.65
957.486	2291.5838	2381.7	1487.9
957.6186	2293.0302	2379.05	1482.9
957.7512	2294.4758	2370.75	1475.85
957.8838	2295.9206	2369.05	1477.05
958.0163	2297.3648	2360.95	1473.65
958.1488	2298.8082	2363.2	1475.7
958.2813	2300.251	2362.25	1473.65
958.4137	2301.693	2353.8	1460.75
958.5461	2303.1343	2356.85	1465.95
958.6785	2304.5748	2347.55	1459.35
958.8108	2306.0147	2338.6	1451.35
958.9432	2307.4538	2330.85	1443.15
959.0754	2308.8922	2332.55	1449.9
959.2077	2310.3299	2318.25	1433
959.3399	2311.7669	2315.95	1432
959.4721	2313.2031	2316.15	1426.65
959.6043	2314.6387	2303.65	1416.35
959.7365	2316.0735	2305.4	1415.2
959.8686	2317.5076	2301	1411.3
960.0006	2318.941	2302.95	1412.95
960.1327	2320.3737	2295.9	1405.7
960.2647	2321.8056	2295.05	1401.75
960.3967	2323.2369	2279.1	1390.45
960.5287	2324.6674	2284.6	1393.6
960.6606	2326.0972	2289	1398.6
960.7925	2327.5263	2276.2	1388.15
960.9244	2328.9547	2274.95	1383.8
961.0562	2330.3823	2269.8	1376.65
961.1881	2331.8092	2268.55	1374.35
961.3198	2333.2355	2269.35	1377.7
961.4516	2334.661	2255.35	1360.25
961.5833	2336.0858	2253.55	1361.95
961.715	2337.5098	2244.1	1352.8
961.8467	2338.9332	2249.15	1360.05
961.9783	2340.3558	2240.6	1349.4
962.1099	2341.7778	2235.3	1349.35
962.2415	2343.199	2237.3	1346.85
962.373	2344.6195	2234.75	1348.6
962.5045	2346.0393	2219.4	1333.75
962.636	2347.4583	2222	1332.2
962.7675	2348.8767	2228.8	1338.5
962.8989	2350.2943	2222.25	1331.5
963.0303	2351.7113	2226.3	1335.3
963.1617	2353.1275	2213	1320.35
963.293	2354.543	2216.7	1319.9
963.4243	2355.9578	2199.65	1307.5
963.5556	2357.3718	2198.7	1309.7
963.6868	2358.7852	2183.75	1295.6
963.818	2360.1978	2174.6	1287.4
963.9492	2361.6098	2182.85	1297
964.0803	2363.021	2182.65	1290.65
964.2114	2364.4315	2172	1282.7
964.3425	2365.8413	2179.05	1292.05
964.4736	2367.2504	2154.4	1271.35
964.6046	2368.6587	2167.95	1280.75
964.7356	2370.0664	2158.75	1273.8
964.8666	2371.4733	2154.3	1266.05
964.9975	2372.8795	2150.75	1262.2
965.1284	2374.285	2156.6	1269.8
965.2593	2375.6899	2139.85	1252.2
965.3901	2377.0939	2132.7	1244.55
965.5209	2378.4973	2122.8	1238.95
965.6517	2379.9	2128.15	1242.7
965.7825	2381.3019	2122.3	1237.05
965.9132	2382.7032	2117.05	1232.8
966.0439	2384.1037	2115.95	1232.65
966.1745	2385.5035	2109	1225.8
966.3051	2386.9027	2102.6	1219.3
966.4357	2388.3011	2104.15	1217.3
966.5663	2389.6987	2097.85	1213.3
966.6968	2391.0957	2093.3	1207.5
966.8273	2392.492	2094.45	1209.9
966.9578	2393.8876	2074.75	1190.95
967.0882	2395.2824	2080.45	1196.55
967.2186	2396.6765	2069.95	1187.2
967.349	2398.07	2075.3	1190.35
967.4793	2399.4627	2069.55	1182.75
967.6097	2400.8547	2058.2	1170.65
967.7399	2402.246	2060.65	1167.95
967.8702	2403.6366	2052.05	1167.25
968.0004	2405.0265	2058	1174.5
968.1306	2406.4156	2053.9	1165.65
968.2607	2407.8041	2049.4	1161.45
968.3909	2409.1918	2032.35	1145.8
968.521	2410.5789	2039	1152.55
968.651	2411.9652	2034.15	1144.85
968.781	2413.3508	2028.85	1143.15
968.911	2414.7358	2025.05	1138.6
969.041	2416.12	2029.15	1144
969.1709	2417.5035	2024.05	1139.05
969.3008	2418.8863	2021.4	1135.8
969.4307	2420.2684	2017.6	1131.95
969.5606	2421.6497	2014.95	1128.75
969.6904	2423.0304	1995.95	1110.55
969.8201	2424.4104	1997.6	1109.65
969.9499	2425.7896	1994.95	1106.05
970.0796	2427.1682	1982.35	1097.95
970.2093	2428.546	1985.35	1097.45
970.3389	2429.9232	1984.2	1094.85
970.4685	2431.2996	1988	1104.85
970.5981	2432.6753	1981	1093.15
970.7277	2434.0503	1976.55	1090
970.8572	2435.4246	1974	1091.35
970.9867	2436.7982	1981.65	1095.95
971.1161	2438.1711	1961.2	1074.9
971.2456	2439.5433	1974.45	1087.3
971.375	2440.9148	1962.2	1066.95
971.5043	2442.2856	1939.1	1052.95
971.6336	2443.6557	1947.05	1059.8
971.7629	2445.025	1936.7	1048.65
971.8922	2446.3937	1947	1059.35
972.0214	2447.7617	1934.85	1048.75
972.1506	2449.1289	1937.55	1052.8
972.2798	2450.4955	1933.55	1044.7
972.4089	2451.8613	1918.2	1032.3
972.538	2453.2265	1928.75	1042.6
972.6671	2454.5909	1930	1041.35
972.7961	2455.9546	1922.75	1037.75
972.9251	2457.3177	1925	1038.35
973.0541	2458.68	1929.3	1041.15
973.1831	2460.0416	1917.9	1031.35
973.312	2461.4025	1913.7	1026
973.4408	2462.7627	1924.95	1028.2
973.5697	2464.1222	1913.8	1030.8
973.6985	2465.4811	1909.3	1022.9
973.8273	2466.8392	1900.35	1014.85
973.956	2468.1966	1898.95	1008.65
974.0847	2469.5533	1910.55	1021.1
974.2134	2470.9093	1898.4	1012.2
974.3421	2472.2645	1898.1	1009.8
974.4707	2473.6191	1891.3	1005.6
974.5993	2474.973	1892.6	1006.1
974.7278	2476.3262	1886.7	999.65
974.8563	2477.6787	1886.4	1001.3
974.9848	2479.0305	1880.65	994.75
975.1132	2480.3816	1883.05	994.15
975.2417	2481.7319	1875.25	989.6
975.37	2483.0816	1866.25	979.3
975.4984	2484.4306	1866.1	979.9
975.6267	2485.7789	1859.05	974
975.755	2487.1264	1864.85	977.95
975.8833	2488.4733	1853.85	968.5
976.0115	2489.8195	1866.2	976.15
976.1397	2491.165	1857.75	968.65
976.2678	2492.5097	1856.7	969.6
976.3959	2493.8538	1835.4	951.1
976.524	2495.1972	1837.65	951.45
976.6521	2496.5398	1834.75	947.05
976.7801	2497.8818	1836.65	948.7
976.9081	2499.2231	1829.7	939.7
977.036	2500.5637	1835.5	944.8
977.164	2501.9035	1832.75	941.65
977.2918	2503.2427	1828.95	939
977.4197	2504.5812	1818.4	932.65
977.5475	2505.919	1820.05	931.2
977.6753	2507.256	1818.45	932.95
977.8031	2508.5924	1808.45	923.75
977.9308	2509.9281	1812.75	919.55
978.0585	2511.2631	1807.05	920.5
978.1861	2512.5974	1808.1	920.9
978.3137	2513.9309	1806.1	921.65
978.4413	2515.2638	1819.65	906.65
978.5689	2516.596	1798.25	911.55
978.6964	2517.9275	1803.1	915.8
978.8239	2519.2583	1798.5	913.25
978.9513	2520.5884	1789.95	902
979.0788	2521.9178	1778.5	891.45
979.2062	2523.2465	1784.3	901.1
979.3335	2524.5745	1777.1	893.5
979.4608	2525.9018	1781.2	894.55
979.5881	2527.2284	1776.15	889.85
979.7154	2528.5543	1767	881.1
979.8426	2529.8796	1776.85	890.6
979.9698	2531.2041	1770.55	883.45
980.0969	2532.5279	1766.85	883.6
980.224	2533.851	1767.05	878.95
980.3511	2535.1735	1757.9	871.65
980.4781	2536.4952	1759	871.5
980.6052	2537.8163	1759.2	869.8
980.7321	2539.1366	1765.7	880.8
980.8591	2540.4562	1746.45	856.8
980.986	2541.7752	1755.7	867.4
981.1129	2543.0935	1756.7	867.2
981.2397	2544.411	1754.05	866.55
981.3665	2545.7279	1747.8	860.5
981.4933	2547.0441	1747.35	862.1
981.62	2548.3596	1756.75	868.2
981.7467	2549.6744	1745.45	858.7
981.8734	2550.9885	1738.7	849.15
982.0001	2552.3019	1736.5	851.45
982.1267	2553.6146	1734.05	844.45
982.2532	2554.9266	1733.55	846.05
982.3798	2556.2379	1728.75	840.8
982.5063	2557.5485	1720.65	837.55
982.6327	2558.8585	1731.25	838.6
982.7592	2560.1677	1718.9	826.15
982.8856	2561.4762	1720.6	832.05
983.0119	2562.7841	1724.7	836.3
983.1383	2564.0913	1717.1	832.6
983.2646	2565.3977	1721.7	835.25
983.3908	2566.7035	1719.5	832.2
983.517	2568.0086	1723.65	835.15
983.6432	2569.313	1714.6	825.35
983.7694	2570.6167	1723.2	834.05
983.8955	2571.9197	1712.4	824.95
984.0216	2573.222	1714	823.8
984.1476	2574.5236	1705.9	819.05
984.2737	2575.8246	1702.7	813.3
984.3996	2577.1248	1708.35	819.15
984.5256	2578.4244	1708.3	821.05
984.6515	2579.7232	1696.75	808.55
984.7774	2581.0214	1728.55	815.35
984.9032	2582.3189	1700.3	815.95
985.029	2583.6157	1694.8	803.85
985.1548	2584.9118	1699.95	810.4
985.2806	2586.2072	1698.3	810.25
985.4063	2587.5019	1702.2	815.55
985.5319	2588.7959	1699.55	811.3
985.6576	2590.0893	1694.55	805.3
985.7832	2591.3819	1693.7	805.2
985.9087	2592.6739	1691	805.85
986.0343	2593.9652	1702.55	811.1
986.1597	2595.2557	1702.35	813.65
986.2852	2596.5456	1704.85	813.6
986.4106	2597.8348	1688.75	801
986.536	2599.1234	1685.7	797.85
986.6614	2600.4112	1695.35	809.3
986.7867	2601.6983	1695.15	806.95
986.912	2602.9848	1690.75	804.1
987.0372	2604.2705	1695.35	802.85
987.1624	2605.5556	1693.4	810
987.2876	2606.84	1674.25	788.9
987.4128	2608.1237	1684	797.3
987.5379	2609.4067	1687.6	800.85
987.6629	2610.689	1681.7	786.6
987.788	2611.9707	1669.8	779.85
987.913	2613.2516	1679.15	787.75
988.0379	2614.5319	1665.1	776.5
988.1629	2615.8115	1658.45	770.95
988.2878	2617.0903	1670.9	785.05
988.4126	2618.3685	1654	769.6
988.5375	2619.6461	1662.15	775.7
988.6622	2620.9229	1657.65	772.3
988.787	2622.199	1661.45	773.15
988.9117	2623.4745	1645.6	759.3
989.0364	2624.7493	1650.1	766.6
989.161	2626.0234	1641.8	757.5
989.2857	2627.2968	1646.55	760.25
989.4102	2628.5695	1643.9	755.4
989.5348	2629.8415	1652.75	770.2
989.6593	2631.1128	1647.55	760.85
989.7837	2632.3835	1639	753.05
989.9082	2633.6535	1633.95	751.8
990.0326	2634.9228	1642.6	757.85
990.1569	2636.1914	1631.1	746.85
990.2812	2637.4593	1636.9	750.45
990.4055	2638.7265	1629.05	741.8
990.5298	2639.9931	1630.75	743.8
990.654	2641.259	1627.9	740.55
990.7782	2642.5242	1628.85	745.25
990.9023	2643.7887	1620	735.05
991.0264	2645.0525	1626.5	740
991.1505	2646.3156	1620.25	730.9
991.2745	2647.5781	1610.1	725.5
991.3985	2648.8398	1608.5	721.95
991.5225	2650.1009	1642.25	720.1
991.6464	2651.3613	1606.7	720.75
991.7703	2652.6211	1603.85	718.65
991.8942	2653.8801	1600.4	713.1
992.018	2655.1385	1608.1	720.25
992.1418	2656.3961	1601.6	716.3
992.2655	2657.6531	1598.35	713.15
992.3892	2658.9094	1601.9	714.35
992.5129	2660.1651	1605.5	720.35
992.6366	2661.42	1607.5	723.45
992.7602	2662.6743	1597.2	712.05
992.8837	2663.9279	1598.45	716.35
993.0073	2665.1808	1604.25	721.35
993.1307	2666.433	1611.45	722.7
993.2542	2667.6846	1609.35	723.9
993.3776	2668.9354	1604.75	715.1
993.501	2670.1856	1616.6	729.65
993.6244	2671.4351	1602.95	718.7
993.7477	2672.6839	1616.85	729.3
993.8709	2673.9321	1609.1	725.7
993.9942	2675.1795	1617.85	731.85
994.1174	2676.4263	1616.95	730.4
994.2405	2677.6724	1615.25	730
994.3637	2678.9179	1615.35	729.65
994.4868	2680.1626	1616.35	732.1
994.6098	2681.4067	1623.05	735.45
994.7328	2682.6501	1612.95	727.8
994.8558	2683.8928	1610.1	725.7
994.9788	2685.1348	1607.05	726.35
995.1017	2686.3761	1605.15	722.05
995.2245	2687.6168	1595.55	710.3
995.3474	2688.8568	1593.65	706.8
995.4702	2690.0961	1588.4	703.5
995.5929	2691.3348	1577.8	692.05
995.7156	2692.5727	1583.9	697.25
995.8383	2693.81	1577.7	693.95
995.961	2695.0466	1577.4	693.1
996.0836	2696.2826	1585.45	701.05
996.2062	2697.5178	1581.1	692.2
996.3287	2698.7524	1574.75	690.25
996.4512	2699.9863	1584.35	697.1
996.5737	2701.2195	1577.55	692.2
996.6961	2702.452	1583.2	700.55
996.8185	2703.6839	1587.35	702.45
996.9408	2704.9151	1590.9	708.45
997.0631	2706.1456	1588.5	702.5
997.1854	2707.3755	1598.15	712.8
997.3077	2708.6046	1608.3	721.7
997.4299	2709.8331	1610.75	726.55
997.552	2711.0609	1617	731.65
997.6742	2712.2881	1617.8	732.1
997.7963	2713.5145	1631.55	744.6
997.9183	2714.7403	1633.7	748.55
998.0403	2715.9654	1643.1	757.4
998.1623	2717.1899	1678.45	780
998.2842	2718.4136	1666.7	781.5
998.4062	2719.6367	1681.25	796.5
998.528	2720.8591	1695.8	805.7
998.6498	2722.0809	1698.9	813
998.7716	2723.3019	1710.1	823.55
998.8934	2724.5223	1706.95	821.35
999.0151	2725.7421	1723.95	840.7
999.1368	2726.9611	1722	836.35
999.2584	2728.1795	1719.4	830.35
999.38	2729.3972	1712.2	827.15
999.5016	2730.6142	1704.15	807.85
999.6231	2731.8306	1681.65	795.85
999.7446	2733.0462	1666.05	780.95
999.8661	2734.2612	1661.1	774.45
999.9875	2735.4756	1633.85	748.85
1000.1089	2736.6892	1620.7	734.7
1000.2302	2737.9022	1606.45	724.3
1000.3515	2739.1145	1592.25	709.9
1000.4728	2740.3262	1596	705.8
1000.594	2741.5372	1564.9	680.05
1000.7152	2742.7475	1561.9	680.15
1000.8363	2743.9571	1547.8	663.4
1000.9575	2745.1661	1542.15	654.15
1001.0785	2746.3744	1529.3	644
1001.1996	2747.582	1524.8	640.85
1001.3206	2748.7889	1516.6	633.35
1001.4415	2749.9952	1500.9	617.4
1001.5625	2751.2008	1505.35	621.8
1001.6833	2752.4057	1484.55	598.65
1001.8042	2753.61	1487.5	604.75
1001.925	2754.8136	1484.9	601.65
1002.0458	2756.0165	1489.5	605.55
1002.1665	2757.2188	1488.95	607.7
1002.2872	2758.4204	1489.45	605.1
1002.4078	2759.6213	1490.2	606.5
1002.5285	2760.8215	1497.75	608.95
1002.649	2762.0211	1483	596.65
1002.7696	2763.22	1481.15	593.4
1002.8901	2764.4182	1484.65	600.65
1003.0106	2765.6158	1471.4	588.6
1003.131	2766.8127	1470.5	586.6
1003.2514	2768.009	1468.8	587.7
1003.3717	2769.2045	1460.25	577.25
1003.492	2770.3994	1462.25	576.55
1003.6123	2771.5936	1464.55	579.9
1003.7325	2772.7872	1448.9	566.65
1003.8527	2773.9801	1454.35	569.65
1003.9729	2775.1723	1467.85	569.3
1004.093	2776.3639	1444.25	561.5
1004.2131	2777.5548	1446.4	559.15
1004.3331	2778.745	1452	569.45
1004.4531	2779.9346	1450.3	569.15
1004.5731	2781.1235	1453.85	570.45
1004.693	2782.3117	1444.95	564.3
1004.8129	2783.4992	1456.75	573.45
1004.9328	2784.6861	1455.6	572.55
1005.0526	2785.8723	1461.95	575.75
1005.1723	2787.0579	1468.8	587.1
1005.2921	2788.2428	1478.8	597.4
1005.4118	2789.427	1478.55	598.1
1005.5314	2790.6106	1489.25	606.05
1005.651	2791.7935	1502.1	618.1
1005.7706	2792.9757	1506.3	625.35
1005.8902	2794.1573	1508.6	625.9
1006.0097	2795.3382	1524	639.7
1006.1291	2796.5184	1527.4	648.45
1006.2485	2797.698	1547.35	662.3
1006.3679	2798.8769	1555.8	674.95
1006.4873	2800.0551	1579.4	698.4
1006.6066	2801.2327	1591.55	705.5
1006.7258	2802.4096	1596.45	715.35
1006.8451	2803.5859	1622.9	742.1
1006.9642	2804.7615	1637.1	753.8
1007.0834	2805.9364	1658.15	778.55
1007.2025	2807.1106	1682.7	797.55
1007.3216	2808.2842	1720.1	837
1007.4406	2809.4572	1747.95	866.1
1007.5596	2810.6294	1768.75	886.9
1007.6785	2811.801	1803.9	923.8
1007.7975	2812.972	1843.05	961.55
1007.9163	2814.1423	1885.2	1004.65
1008.0352	2815.3119	1938.7	1056.45
1008.154	2816.4808	1980.9	1099.6
1008.2727	2817.6491	2030.2	1145.6
1008.3914	2818.8167	2077.05	1198
1008.5101	2819.9837	2128.25	1241.5
1008.6288	2821.15	2171.55	1290.6
1008.7474	2822.3157	2224.85	1345.05
1008.8659	2823.4807	2272.75	1391.95
1008.9844	2824.645	2325.65	1442.1
1009.1029	2825.8086	2368	1487.45
1009.2214	2826.9716	2416.95	1535.6
1009.3398	2828.134	2469	1587.95
1009.4581	2829.2957	2512.45	1632.25
1009.5764	2830.4567	2541.5	1661.95
1009.6947	2831.617	2567.75	1684.55
1009.813	2832.7767	2592.2	1712.6
1009.9312	2833.9358	2591.9	1710.6
1010.0493	2835.0941	2586	1704.15
1010.1675	2836.2519	2572.6	1691.6
1010.2855	2837.4089	2554.2	1672.3
1010.4036	2838.5653	2538.2	1657.75
1010.5216	2839.7211	2516.15	1636.05
1010.6396	2840.8761	2541.2	1659.35
1010.7575	2842.0306	2546.5	1667.45
1010.8754	2843.1843	2593.5	1712.3
1010.9932	2844.3374	2630.75	1750.3
1011.111	2845.4899	2673.45	1793.05
1011.2288	2846.6417	2722.4	1840.2
1011.3465	2847.7928	2789.45	1907.45
1011.4642	2848.9433	2873.75	1993.2
1011.5818	2850.0931	2936.65	2058.45
1011.6995	2851.2422	3014.35	2131.35
1011.817	2852.3907	3067.5	2186.45
1011.9345	2853.5385	3119.85	2238.2
1012.052	2854.6857	3199.75	2305.05
1012.1695	2855.8323	3236.05	2356.45
1012.2869	2856.9781	3283	2402.8
1012.4042	2858.1233	3331.5	2451.75
1012.5216	2859.2679	3381.05	2501.4
1012.6389	2860.4118	3423.75	2541.4
1012.7561	2861.555	3475.45	2591.5
1012.8733	2862.6976	3528	2645.6
1012.9905	2863.8395	3536.6	2655.95
1013.1076	2864.9808	3581.05	2699.45
1013.2247	2866.1214	3591.95	2711
1013.3417	2867.2614	3608.25	2727.8
1013.4587	2868.4007	3625.2	2741.6
1013.5757	2869.5393	3629.65	2748
1013.6926	2870.6773	3649.15	2765.3
1013.8095	2871.8146	3671.7	2787
1013.9263	2872.9513	3662.35	2776.8
1014.0431	2874.0874	3646.65	2763.85
1014.1599	2875.2227	3654.35	2772
1014.2766	2876.3574	3634.7	2753.2
1014.3933	2877.4915	3605.25	2725.65
1014.51	2878.6249	3571.8	2691.4
1014.6266	2879.7577	3564.65	2682.5
1014.7431	2880.8898	3550.1	2661.65
1014.8596	2882.0212	3516	2639.4
1014.9761	2883.152	3495.2	2614.85
1015.0925	2884.2821	3487	2608.5
1015.2089	2885.4116	3472.8	2591.95
1015.3253	2886.5405	3482.35	2601.75
1015.4416	2887.6686	3500.55	2615.8
1015.5579	2888.7962	3502.25	2623.45
1015.6741	2889.923	3512.6	2633.45
1015.7903	2891.0493	3504.9	2624.7
1015.9065	2892.1748	3528.75	2650.6
1016.0226	2893.2997	3532	2652.05
1016.1387	2894.424	3561.05	2681.35
1016.2547	2895.5476	3572.55	2695.2
1016.3707	2896.6706	3588.7	2712.6
1016.4866	2897.7929	3617.45	2736.65
1016.6025	2898.9145	3646.35	2765.75
1016.7184	2900.0355	3665.55	2785.7
1016.8342	2901.1559	3706.8	2827.5
1016.95	2902.2756	3742.4	2861.95
1017.0658	2903.3946	3759.35	2881.4
1017.1815	2904.513	3799.95	2916.8
1017.2971	2905.6308	3822.75	2941.8
1017.4127	2906.7479	3846.3	2964.3
1017.5283	2907.8643	3868.75	2988.5
1017.6439	2908.9801	3893.15	3012.05
1017.7594	2910.0953	3886.75	3006.6
1017.8748	2911.2098	3896.25	3012.55
1017.9902	2912.3236	3885.85	2997.5
1018.1056	2913.4368	3869.9	2987.75
1018.2209	2914.5494	3859.3	2978.8
1018.3362	2915.6613	3832.15	2947.7
1018.4515	2916.7725	3785.8	2903.25
1018.5667	2917.8831	3759.8	2880.55
1018.6819	2918.9931	3742.45	2859.65
1018.797	2920.1024	3713.1	2832.1
1018.9121	2921.211	3693.85	2815.05
1019.0271	2922.319	3669	2788.8
1019.1421	2923.4264	3645.6	2766.05
1019.2571	2924.5331	3638.5	2761.05
1019.372	2925.6391	3623.9	2744.5
1019.4869	2926.7445	3626.65	2750.25
1019.6017	2927.8493	3611.35	2732.7
1019.7165	2928.9534	3604.1	2725.95
1019.8313	2930.0569	3620.05	2739.35
1019.946	2931.1597	3620.6	2739.35
1020.0606	2932.2619	3615.55	2737.1
1020.1753	2933.3634	3611.95	2731.95
1020.2899	2934.4643	3610.25	2723.15
1020.4044	2935.5645	3604.55	2720.45
1020.5189	2936.6641	3558.85	2672.85
1020.6334	2937.763	3528.65	2649.75
1020.7478	2938.8613	3483.4	2604.5
1020.8622	2939.959	3441.95	2557.55
1020.9765	2941.056	3371.25	2495.25
1021.0908	2942.1523	3282.35	2401.95
1021.2051	2943.248	3201.45	2322
1021.3193	2944.3431	3105.5	2227.8
1021.4334	2945.4375	3015.3	2137.75
1021.5476	2946.5313	2912.8	2036.4
1021.6617	2947.6244	2816.3	1936.7
1021.7757	2948.7169	2713.95	1835.35
1021.8897	2949.8087	2616.95	1737.3
1022.0037	2950.8999	2525.35	1646.3
1022.1176	2951.9904	2451.15	1574.95
1022.2315	2953.0803	2388.05	1506.5
1022.3453	2954.1696	2325.6	1447.55
1022.4591	2955.2582	2271	1391.8
1022.5728	2956.3462	2232.65	1351.9
1022.6865	2957.4335	2179.25	1299.45
1022.8002	2958.5202	2140.6	1259.7
1022.9138	2959.6062	2106.65	1228.7
1023.0274	2960.6916	2100.05	1222.2
1023.141	2961.7764	2074.75	1193.45
1023.2545	2962.8605	2059.85	1181.05
1023.3679	2963.9439	2050.8	1173.5
1023.4813	2965.0267	2042	1162.25
1023.5947	2966.1089	2051.15	1152.95
1023.708	2967.1905	2016.8	1138.5
1023.8213	2968.2714	2028.7	1148.85
1023.9346	2969.3516	2008.65	1132.7
1024.0478	2970.4312	2027.1	1142.1
1024.1609	2971.5102	2020.3	1143.05
1024.274	2972.5885	2026.25	1147.95
1024.3871	2973.6662	2033.9	1150.95
1024.5002	2974.7432	2029.15	1151.45
1024.6132	2975.8196	2013.8	1135.95
1024.7261	2976.8954	2018.65	1141.6
1024.839	2977.9705	1997.4	1119.65
1024.9519	2979.045	1991.5	1112
1025.0647	2980.1188	1971.75	1092.25
1025.1775	2981.192	1953.3	1075.25
1025.2902	2982.2645	1935.8	1054.95
1025.4029	2983.3364	1913.35	1034.95
1025.5156	2984.4077	1885.9	1008.5
1025.6282	2985.4783	1859.45	976.05
1025.7407	2986.5483	1825.75	949.25
1025.8532	2987.6177	1787.35	910.35
1025.9657	2988.6864	1767.65	891.45
1026.0782	2989.7545	1719.7	841.35
1026.1906	2990.8219	1683.1	808.2
1026.3029	2991.8887	1662.7	780.95
1026.4152	2992.9548	1633.75	756.65
1026.5275	2994.0204	1600.4	723.8
1026.6397	2995.0852	1570.15	693.3
1026.7519	2996.1495	1543.2	663.65
1026.864	2997.2131	1516.9	638.7
1026.9761	2998.276	1497.3	621.25
1027.0882	2999.3383	1463.55	583.4
1027.2002	3000.4	1452.95	575.7
1027.3122	3001.4611	1437.65	559.45
1027.4241	3002.5215	1421.9	544
1027.536	3003.5812	1406.85	528.85
1027.6478	3004.6404	1398.25	521.95
1027.7596	3005.6989	1386.75	508
1027.8714	3006.7567	1373.2	493.85
1027.9831	3007.8139	1389.6	482.15
1028.0947	3008.8705	1355.55	479.4
1028.2064	3009.9264	1366.7	471.65
1028.3179	3010.9818	1335.25	459.45
1028.4295	3012.0364	1337.05	457.4
1028.541	3013.0905	1335.5	458.05
1028.6524	3014.1439	1331.55	454
1028.7638	3015.1966	1324	447.95
1028.8752	3016.2487	1324.05	448.15
1028.9865	3017.3002	1319.95	438.35
1029.0978	3018.3511	1313.8	440.4
1029.209	3019.4013	1313.25	435.35
1029.3202	3020.4509	1311.8	432.95
1029.4314	3021.4998	1311.3	433.2
1029.5425	3022.5481	1303.4	426.1
1029.6535	3023.5958	1314.2	438.4
1029.7645	3024.6428	1313.05	435.75
1029.8755	3025.6892	1303.8	426.55
1029.9864	3026.735	1313.25	434.55
1030.0973	3027.7802	1312.55	436.25
1030.2082	3028.8247	1310.7	432.95
1030.319	3029.8685	1322.55	446.75
1030.4297	3030.9118	1318.8	439.55
1030.5404	3031.9544	1319.75	441.35
1030.6511	3032.9963	1322	443.65
1030.7617	3034.0376	1326.95	450
1030.8723	3035.0783	1332.4	452.15
1030.9829	3036.1184	1333.15	455.85
1031.0934	3037.1578	1333.95	457.5
1031.2038	3038.1966	1337.4	459.65
1031.3142	3039.2348	1335.7	459.6
1031.4246	3040.2723	1343.75	457
1031.5349	3041.3092	1332.1	457.5
1031.6452	3042.3455	1335.7	457.85
1031.7554	3043.3811	1333.1	455.15
1031.8656	3044.4161	1333.9	455
1031.9758	3045.4505	1329.95	453
1032.0859	3046.4842	1327.4	449.3
1032.1959	3047.5173	1315.05	439.4
1032.3059	3048.5498	1314.7	437.15
1032.4159	3049.5816	1304.65	425.45
1032.5258	3050.6128	1310.15	433.35
1032.6357	3051.6434	1304.3	425.65
1032.7455	3052.6734	1292.85	413.5
1032.8553	3053.7027	1295.85	416.95
1032.9651	3054.7314	1285.3	407.15
1033.0748	3055.7594	1280.65	404.25
1033.1845	3056.7868	1281	404.55
1033.2941	3057.8136	1272.65	396.15
1033.4037	3058.8398	1270.2	395.25
1033.5132	3059.8653	1263.15	385.25
1033.6227	3060.8902	1264.65	389.4
1033.7321	3061.9145	1261.1	382.9
1033.8415	3062.9381	1258.9	381.35
1033.9509	3063.9612	1264.2	372.7
1034.0602	3064.9835	1246.25	367.75
1034.1694	3066.0053	1246.85	368.3
1034.2787	3067.0264	1228.85	354.25
1034.3878	3068.0469	1237.65	361.55
1034.497	3069.0668	1227.9	349.8
1034.6061	3070.086	1215.05	340.15
1034.7151	3071.1046	1206.25	328.05
1034.8241	3072.1226	1204.7	327.3
1034.9331	3073.1399	1198.85	321.05
1035.042	3074.1567	1191.4	314.15
1035.1508	3075.1727	1182.95	303.85
1035.2597	3076.1882	1172.05	295.2
1035.3684	3077.203	1169.35	294.45
1035.4772	3078.2173	1159.05	278.6
1035.5859	3079.2308	1156.55	275.8
1035.6945	3080.2438	1144.7	265.2
1035.8031	3081.2561	1136.7	259.3
1035.9117	3082.2678	1128.9	251.45
1036.0202	3083.2789	1122.65	246.05
1036.1286	3084.2893	1122.3	246.25
1036.2371	3085.2991	1116.15	239.45
1036.3454	3086.3083	1109	228.55
1036.4538	3087.3169	1108.05	231.25
1036.562	3088.3248	1100.5	221.3
1036.6703	3089.3321	1098.35	219.15
1036.7785	3090.3388	1095.2	218.9
1036.8866	3091.3449	1089.1	212.35
1036.9948	3092.3503	1085.2	207.9
1037.1028	3093.3551	1082.55	207.35
1037.2108	3094.3593	1075.5	197.9
1037.3188	3095.3629	1076.05	198.65
1037.4267	3096.3658	1073.75	196.05
1037.5346	3097.3681	1069.6	193.1
1037.6425	3098.3698	1066.65	189.1
1037.7503	3099.3708	1069.1	186.05
1037.858	3100.3713	1054.85	181.95
1037.9657	3101.3711	1056.95	180.5
1038.0734	3102.3702	1195.05	179
1038.181	3103.3688	1055.25	177.5
1038.2886	3104.3667	1048.95	172.15
1038.3961	3105.364	1048.35	172.55
1038.5036	3106.3607	1050.45	172.2
1038.611	3107.3568	1049.7	172.8
1038.7184	3108.3522	1046.25	169.95
1038.8257	3109.347	1046.6	171.7
1038.933	3110.3412	1042.35	163.55
1039.0403	3111.3348	1034.85	160.35
1039.1475	3112.3277	1040.25	162.6
1039.2547	3113.32	1035.15	160.8
1039.3618	3114.3117	1036.2	157.95
1039.4689	3115.3028	1031.1	154.15
1039.5759	3116.2932	1033	155.55
1039.6829	3117.2831	1035.6	154.45
1039.7898	3118.2723	1024.6	149.2
1039.8967	3119.2608	1027.9	153.55
1040.0035	3120.2488	1025.25	150.45
1040.1103	3121.2361	1024.45	147.8
1040.2171	3122.2229	1025.25	149.5
1040.3238	3123.209	1022.6	145.3
1040.4305	3124.1944	1017.5	140.3
1040.5371	3125.1793	1017.85	139.7
1040.6437	3126.1635	1016.25	140.35
1040.7502	3127.1471	1012.6	136.15
1040.8567	3128.1301	1010.45	136.05
1040.9631	3129.1125	1015.55	140.55
1041.0695	3130.0942	1015.15	138.05
1041.1759	3131.0753	1018.5	133.5
1041.2822	3132.0558	1012.35	134.25
1041.3884	3133.0357	1005.35	130.1
1041.4946	3134.015	1008.95	132.8
1041.6008	3134.9936	1007.15	129.45
1041.7069	3135.9716	1026.1	128.7
1041.813	3136.949	1007.5	131.4
1041.919	3137.9258	1022.1	129.4
1042.025	3138.902	1006.65	124.55
1042.1309	3139.8775	999.3	124.15
1042.2368	3140.8524	1002.4	128.35
1042.3427	3141.8267	999.6	121.4
1042.4485	3142.8004	994.3	117.55
1042.5542	3143.7735	1003.05	120.7
1042.6599	3144.7459	993.4	116.65
1042.7656	3145.7178	998.2	122.6
1042.8712	3146.689	994.85	121
1042.9768	3147.6596	991.9	117.25
1043.0823	3148.6295	991.5	115.2
1043.1878	3149.5989	989.15	113.7
1043.2932	3150.5676	987.6	113.35
1043.3986	3151.5357	987.1	112.65
1043.5039	3152.5032	986.85	112.6
1043.6092	3153.4701	983.35	107.85
1043.7145	3154.4364	988	110.35
1043.8197	3155.402	982.65	108.5
1043.9248	3156.367	984.65	105.75
1044.03	3157.3315	1015.75	108.4
1044.135	3158.2952	980.9	104.55
1044.24	3159.2584	980.55	105.55
1044.345	3160.221	981.9	104.45
1044.4499	3161.1829	984.15	108.65
1044.5548	3162.1442	977.45	104.15
1044.6596	3163.105	978.55	102.7
1044.7644	3164.065	978.85	104.35
1044.8692	3165.0245	977.35	99.95
1044.9739	3165.9834	974.6	100.75
1045.0785	3166.9416	972.55	97.9
1045.1831	3167.8993	977.05	101.7
1045.2877	3168.8563	977.25	101.1
1045.3922	3169.8127	976.85	102.3
1045.4966	3170.7684	971.85	96.35
1045.6011	3171.7236	971.85	95.3
1045.7054	3172.6782	970.45	96.6
1045.8098	3173.6321	971.65	96.65
1045.914	3174.5854	974.8	96
1046.0183	3175.5381	969.3	94
1046.1224	3176.4902	968.2	94.35
1046.2266	3177.4417	971	96.65
1046.3307	3178.3926	967.65	92.3
1046.4347	3179.3428	965.3	91.9
1046.5387	3180.2924	964.35	87.35
1046.6427	3181.2415	968.1	92.85
1046.7466	3182.1899	967.85	93.65
1046.8504	3183.1377	962.6	89.3
1046.9542	3184.0848	967.65	91.6
1047.058	3185.0314	960.95	84.7
1047.1617	3185.9773	962.85	88
1047.2654	3186.9227	960.9	85.55
1047.369	3187.8674	962.75	86.3
1047.4726	3188.8115	967.1	87.4
1047.5761	3189.755	962.15	86.9
1047.6796	3190.6979	960.55	86.1
1047.783	3191.6402	958.85	84.35
1047.8864	3192.5818	958.3	82.4
1047.9898	3193.5229	974.8	83.15
1048.0931	3194.4633	957.9	83.95
1048.1963	3195.4031	956.35	80.75
1048.2995	3196.3423	955.2	79.65
1048.4027	3197.2809	955.15	80.6
1048.5058	3198.2189	957.45	81.75
1048.6089	3199.1563	964.05	83.1
1048.7119	3200.0931	955.6	81.05
1048.8148	3201.0292	954.9	81.95
1048.9178	3201.9648	952.5	75.95
1049.0206	3202.8997	957.7	79.15
1049.1235	3203.834	953.05	79.3
1049.2262	3204.7677	951.4	76.25
1049.329	3205.7008	953.1	77.15
1049.4317	3206.6333	955.3	81.75
1049.5343	3207.5652	955.95	77.8
1049.6369	3208.4964	952	78.1
1049.7394	3209.4271	950.7	76.25
1049.8419	3210.3571	947.5	72.05
1049.9444	3211.2865	948.55	71.4
1050.0468	3212.2154	950.3	76.45
1050.1491	3213.1436	951.4	74.75
1050.2514	3214.0712	957.85	77.75
1050.3537	3214.9982	949.75	74.05
1050.4559	3215.9246	946.6	71.7
1050.5581	3216.8503	946.15	72.15
1050.6602	3217.7755	944.4	69.4
1050.7623	3218.7001	946.5	72.3
1050.8643	3219.624	945.3	72.4
1050.9663	3220.5473	946.8	71
1051.0682	3221.4701	944.7	69.35
1051.1701	3222.3922	948.25	72.85
1051.2719	3223.3137	943.6	68.25
1051.3737	3224.2346	943.6	67.4
1051.4754	3225.1549	944.95	71.1
1051.5771	3226.0746	942.5	68.75
1051.6788	3226.9937	941.2	68.35
1051.7804	3227.9121	941.95	66.95
1051.8819	3228.83	944.25	70.6
1051.9834	3229.7473	940.9	65.05
1052.0849	3230.6639	940.15	64.6
1052.1863	3231.5799	939.6	65.65
1052.2876	3232.4954	942.75	67.55
1052.3889	3233.4102	941.4	68.15
1052.4902	3234.3244	937.8	62.6
1052.5914	3235.238	937.65	63.75
1052.6926	3236.151	964.05	68.1
1052.7937	3237.0634	938.75	65.5
1052.8948	3237.9752	940	66.6
1052.9958	3238.8864	938.1	63.7
1053.0968	3239.797	938.6	65.2
1053.1977	3240.7069	938.9	65.65
1053.2986	3241.6163	940.05	65.2
1053.3994	3242.5251	936.8	64.75
1053.5002	3243.4332	934.15	60.2
1053.6009	3244.3408	936.95	62.85
1053.7016	3245.2477	933.45	57.6
1053.8022	3246.154	936.35	61.6
1053.9028	3247.0598	933.2	58.3
1054.0034	3247.9649	932.45	58.1
1054.1039	3248.8694	931.55	55.85
1054.2043	3249.7733	933.75	62.15
1054.3047	3250.6766	933.4	60.1
1054.4051	3251.5793	931.3	56.45
1054.5054	3252.4814	930.55	58.25
1054.6056	3253.3829	926.55	52.35
1054.7058	3254.2838	929.3	55.85
1054.806	3255.1841	931.1	58
1054.9061	3256.0838	929.4	56.25
1055.0061	3256.9829	929.25	56.7
1055.1062	3257.8814	928.5	51.15
1055.2061	3258.7792	928.55	53.85
1055.306	3259.6765	924.6	48.05
1055.4059	3260.5731	924.4	49.6
1055.5057	3261.4692	926.45	53.3
1055.6055	3262.3647	924.1	48.95
1055.7052	3263.2595	922.8	48.45
1055.8049	3264.1538	922.3	48.15
1055.9045	3265.0474	923.55	49.65
1056.0041	3265.9404	918.8	46.6
1056.1036	3266.8329	917.65	45.15
1056.2031	3267.7247	930.15	45.85
1056.3025	3268.616	915.75	42.6
1056.4019	3269.5066	917.2	42.3
1056.5013	3270.3966	916.35	43.55
1056.6005	3271.286	913.3	40.65
