Software Version:	3.9.2.0
Unit SN:	10000200
Spectrometer SN:	6960
Date:	3/8/2024 12:02:51 PM
Data Line Index:	25
Spectral Points:	2048
Integration time (ms):	125
Averages:	20
Delay (ms):	30000
Sequence Number:	1
Processing:	dark subtract
Laser Power (mW):	300
Laser Current (mA):	822
Laser Diode Temp (C):	25
Laser Case Temp (C):	25.6
System Temp (C):	25.5
Spectrometer Temp (C):	23.4
CCD Temp (C):	0.005
Secondary Temp (C):	20.007
Heatsink Temp (C):	20.38
CCDPCB Temp (C):	34.895
SecondaryPCB Temp (C):	28.103

Wavelength	RamanShift	Raw Counts	Dark Subtracted
787.061	30.1047	413.85	4.8
787.2016	32.3739	412.35	7
787.3422	34.6426	413.35	4.4
787.4828	36.9109	417.4	5.95
787.6235	39.1787	419.1	4.95
787.7642	41.4461	425.05	6.25
787.9049	43.7131	428.9	8.55
788.0456	45.9796	432.55	9.3
788.1863	48.2456	437.05	7.55
788.3271	50.5112	441.4	9.7
788.4679	52.7764	447	9.2
788.6087	55.0411	450.1	8.35
788.7496	57.3054	458.5	11.9
788.8904	59.5692	458.75	12.15
789.0313	61.8326	463.2	16.35
789.1722	64.0955	467.4	14.7
789.3132	66.3579	474.1	15.85
789.4541	68.6199	480.85	18.8
789.5951	70.8815	492.75	27.7
789.7361	73.1426	508.15	39.35
789.8771	75.4032	543.85	71.5
790.0181	77.6634	614.8	138.3
790.1592	79.9231	778.15	296.65
790.3003	82.1824	1124.8	631.75
790.4414	84.4412	1711.6	1203.7
790.5825	86.6995	2416.9	1887.1
790.7237	88.9574	3114.35	2569.1
790.8648	91.2148	3587.35	3029.7
791.006	93.4717	3775.7	3208.3
791.1472	95.7282	3793.9	3222.45
791.2885	97.9842	3784.5	3212.3
791.4297	100.2398	3721.85	3146.3
791.571	102.4949	3683.95	3108.15
791.7123	104.7495	3627.25	3044.2
791.8536	107.0036	3575.6	2994.3
791.9949	109.2573	3496.1	2915.05
792.1363	111.5105	3399.15	2813.95
792.2777	113.7632	3304.15	2716.2
792.4191	116.0154	3219.1	2621.3
792.5605	118.2672	3105.3	2513.9
792.7019	120.5185	2981.15	2387.25
792.8434	122.7693	2909.25	2315
792.9849	125.0197	2821.9	2221.15
793.1264	127.2696	2751.65	2149.75
793.2679	129.519	2728.95	2122.05
793.4094	131.7679	2695.1	2086.9
793.551	134.0163	2682.35	2071.15
793.6926	136.2642	2668.15	2050.55
793.8342	138.5117	2653.95	2032.25
793.9758	140.7587	2619.35	1998.3
794.1175	143.0052	2581.6	1959.45
794.2591	145.2512	2531.15	1907.9
794.4008	147.4967	2482.75	1860.85
794.5425	149.7417	2444.4	1817.2
794.6842	151.9863	2408.3	1775.35
794.826	154.2304	2419.9	1785.95
794.9677	156.4739	2399.65	1759.05
795.1095	158.717	2415	1772
795.2513	160.9596	2439.9	1795
795.3931	163.2017	2451.5	1805.85
795.535	165.4433	2463.15	1817.35
795.6768	167.6844	2440.5	1791
795.8187	169.925	2415.5	1762.6
795.9606	172.1651	2361.05	1706.55
796.1025	174.4047	2315.05	1655.8
796.2445	176.6439	2278.25	1615.4
796.3864	178.8825	2263.3	1601
796.5284	181.1206	2256	1588.55
796.6704	183.3582	2233.55	1558.65
796.8124	185.5954	2232.55	1560.5
796.9544	187.832	2232.25	1556.8
797.0965	190.0681	2232	1552.8
797.2386	192.3037	2244.45	1562.4
797.3806	194.5388	2239.7	1552.55
797.5228	196.7734	2257.9	1570.15
797.6649	199.0075	2270.75	1582
797.807	201.2411	2288.9	1599.35
797.9492	203.4742	2316.7	1626.95
798.0914	205.7068	2336.25	1640
798.2336	207.9389	2353.85	1653.7
798.3758	210.1704	2362.2	1667.15
798.518	212.4015	2358.15	1674.35
798.6603	214.632	2356.05	1679.5
798.8025	216.862	2359.75	1688.9
798.9448	219.0915	2368.7	1693
799.0871	221.3205	2376.2	1694.65
799.2294	223.549	2386.5	1713.1
799.3718	225.777	2379.4	1702.95
799.5141	228.0044	2371.75	1687.9
799.6565	230.2314	2366.9	1680.9
799.7989	232.4578	2353.55	1662.9
799.9413	234.6837	2343.85	1645.95
800.0837	236.909	2336.7	1637.85
800.2262	239.1339	2350.75	1626.85
800.3687	241.3582	2337.45	1629.65
800.5111	243.582	2358.95	1621
800.6536	245.8053	2350.45	1621.2
800.7961	248.0281	2362.6	1643.25
800.9387	250.2503	2378.1	1654.4
801.0812	252.472	2364.9	1636.4
801.2238	254.6932	2376.45	1651.4
801.3664	256.9139	2394.75	1665.8
801.509	259.134	2410.5	1677.25
801.6516	261.3536	2435.05	1704.4
801.7942	263.5727	2469.95	1740.15
801.9369	265.7912	2520.85	1789.7
802.0795	268.0092	2575	1842.8
802.2222	270.2267	2628	1898.45
802.3649	272.4436	2675.65	1942.9
802.5076	274.6601	2698.35	1956.55
802.6504	276.8759	2728.55	1985.7
802.7931	279.0913	2745.5	2002.95
802.9359	281.3061	2754.05	2012.9
803.0787	283.5204	2773.5	2028.85
803.2215	285.7341	2782.85	2034.85
803.3643	287.9473	2808.85	2061.1
803.5071	290.16	2814.55	2064.4
803.6499	292.3721	2778.25	2033.6
803.7928	294.5837	2751.8	2001.05
803.9357	296.7947	2730.55	1984.35
804.0786	299.0052	2707.7	1959.9
804.2215	301.2152	2709.3	1960.95
804.3644	303.4246	2689.95	1943.3
804.5074	305.6334	2678.1	1932.3
804.6503	307.8418	2645.35	1892.45
804.7933	310.0495	2622.35	1868.95
804.9363	312.2568	2580.8	1829.9
805.0793	314.4635	2538.2	1784.35
805.2223	316.6696	2496.45	1739.3
805.3653	318.8752	2451.2	1686.55
805.5084	321.0802	2416.85	1658.75
805.6514	323.2847	2413.8	1653.45
805.7945	325.4887	2428.35	1665.7
805.9376	327.692	2437.8	1674.55
806.0807	329.8949	2483.55	1720.35
806.2238	332.0972	2522.8	1758.95
806.367	334.2989	2526.35	1758.35
806.5101	336.5001	2515.9	1748.05
806.6533	338.7007	2499.45	1732.3
806.7965	340.9008	2447.4	1676.2
806.9397	343.1003	2394.6	1625.6
807.0829	345.2992	2358.85	1584.4
807.2261	347.4976	2319.1	1542.5
807.3693	349.6955	2297.75	1520.15
807.5126	351.8927	2291.9	1512.1
807.6559	354.0895	2277.8	1487.6
807.7991	356.2856	2260.55	1475.7
807.9424	358.4812	2249.2	1470.35
808.0857	360.6763	2251.5	1466.05
808.2291	362.8707	2238.85	1450.4
808.3724	365.0646	2248.3	1458.15
808.5158	367.258	2251.5	1462.6
808.6591	369.4508	2280.2	1487.65
808.8025	371.643	2293.4	1502.05
808.9459	373.8346	2325.75	1533.15
809.0893	376.0257	2355.8	1558.85
809.2327	378.2162	2371.5	1574.7
809.3762	380.4062	2378	1578.7
809.5196	382.5956	2338.75	1541.15
809.6631	384.7844	2310.9	1523.75
809.8066	386.9726	2294	1504.6
809.9501	389.1603	2257.35	1469.1
810.0936	391.3474	2271.55	1447.8
810.2371	393.5339	2255.05	1462.75
810.3806	395.7199	2258.55	1469.6
810.5241	397.9052	2280	1491.55
810.6677	400.09	2314.9	1525.05
810.8113	402.2743	2364.15	1574.8
810.9548	404.4579	2406.1	1616.9
811.0984	406.641	2444.8	1651.2
811.2421	408.8235	2486.45	1691.05
811.3857	411.0054	2518.9	1719.15
811.5293	413.1868	2590.75	1788.35
811.673	415.3675	2639.1	1835.25
811.8166	417.5477	2626.95	1823.35
811.9603	419.7273	2571.9	1763.2
812.104	421.9064	2494.1	1680.6
812.2477	424.0848	2435.35	1627.3
812.3914	426.2627	2386.25	1576.05
812.5351	428.4399	2320.05	1511.85
812.6788	430.6166	2272.45	1460.15
812.8226	432.7928	2228.15	1413.2
812.9663	434.9683	2189.55	1373.45
813.1101	437.1432	2174.65	1358
813.2539	439.3176	2150.15	1339.3
813.3977	441.4914	2126.6	1316.9
813.5415	443.6645	2126.85	1312.55
813.6853	445.8371	2126.2	1313.2
813.8291	448.0091	2123.45	1307.65
813.973	450.1806	2126.45	1313.4
814.1168	452.3514	2118.75	1304.7
814.2607	454.5216	2126	1298.8
814.4046	456.6913	2096.85	1275.65
814.5485	458.8603	2132.95	1317.85
814.6924	461.0288	2127	1313.2
814.8363	463.1967	2122.6	1307.8
814.9802	465.3639	2142.7	1323.35
815.1241	467.5306	2119	1297.3
815.2681	469.6967	2111.55	1290.2
815.412	471.8622	2102.6	1283.05
815.556	474.0271	2101.2	1283.65
815.7	476.1914	2100.55	1279.8
815.844	478.3551	2092.55	1270.9
815.988	480.5182	2106.5	1285.1
816.132	482.6807	2117.2	1298.55
816.276	484.8426	2134.05	1316.75
816.4201	487.0039	2157.15	1337.25
816.5641	489.1647	2204.45	1381.5
816.7082	491.3248	2248.15	1425.7
816.8522	493.4843	2267.9	1446.25
816.9963	495.6432	2259.45	1437.1
817.1404	497.8015	2246.7	1414.5
817.2845	499.9592	2193.15	1363.5
817.4286	502.1163	2151.15	1321.5
817.5727	504.2728	2105.8	1280
817.7168	506.4287	2083.4	1259.35
817.861	508.5839	2068	1242.2
818.0051	510.7386	2058	1229.5
818.1493	512.8927	2049.75	1215.05
818.2935	515.0461	2061.9	1229.75
818.4377	517.199	2087.35	1253.25
818.5818	519.3512	2133.8	1303.4
818.726	521.5029	2199.65	1363.3
818.8703	523.6539	2240.3	1404.95
819.0145	525.8043	2250.45	1416.45
819.1587	527.9541	2196.4	1357.25
819.303	530.1033	2145.65	1312.75
819.4472	532.2519	2103.85	1269.85
819.5915	534.3999	2081.8	1242.9
819.7357	536.5472	2068.65	1232.25
819.88	538.694	2074.7	1238.65
820.0243	540.8401	2085.6	1248.65
820.1686	542.9856	2101.75	1260.2
820.3129	545.1305	2111.15	1266.4
820.4572	547.2748	2135.2	1293.7
820.6016	549.4185	2135.95	1294.25
820.7459	551.5615	2141	1296.35
820.8902	553.704	2160.85	1316.8
821.0346	555.8458	2175.2	1335.45
821.1789	557.987	2188.85	1348.85
821.3233	560.1276	2218.55	1377.45
821.4677	562.2675	2262.7	1421.3
821.6121	564.4069	2327.6	1487.3
821.7565	566.5456	2342.05	1500.1
821.9009	568.6837	2345.05	1501.85
822.0453	570.8212	2283.05	1443
822.1897	572.958	2217.4	1370.7
822.3342	575.0942	2161.45	1318.35
822.4786	577.2299	2117.8	1273.6
822.6231	579.3648	2092.5	1252.65
822.7675	581.4992	2074.55	1236.95
822.912	583.6329	2087.25	1252.35
823.0565	585.766	2120.8	1283.8
823.201	587.8985	2157.7	1316.15
823.3454	590.0304	2200.8	1347.7
823.4899	592.1616	2241.8	1393.8
823.6345	594.2922	2230.85	1382.8
823.779	596.4222	2186.3	1335.45
823.9235	598.5515	2125.95	1275.2
824.068	600.6802	2078.75	1225.45
824.2126	602.8083	2053.9	1205.8
824.3571	604.9358	2036.55	1183.5
824.5017	607.0626	2040.25	1187.7
824.6462	609.1888	2049.8	1197.25
824.7908	611.3144	2068.4	1212.45
824.9354	613.4393	2100.2	1247.25
825.08	615.5636	2156.55	1300.05
825.2246	617.6873	2193.35	1338.8
825.3692	619.8103	2215.5	1359.6
825.5138	621.9327	2210.8	1351.5
825.6584	624.0544	2175.55	1320.15
825.803	626.1756	2125.15	1272.05
825.9477	628.2961	2092.75	1237
826.0923	630.4159	2075.95	1218.15
826.237	632.5351	2074	1218.85
826.3816	634.6537	2050.7	1195.6
826.5263	636.7716	2047.8	1187.35
826.6709	638.8889	2039.4	1179.85
826.8156	641.0056	2044.25	1186.2
826.9603	643.1216	2058.9	1198.1
827.105	645.237	2055.4	1193.25
827.2497	647.3518	2030.85	1175.3
827.3944	649.4659	2004.55	1150.15
827.5391	651.5793	1987.4	1132.15
827.6838	653.6922	1972	1114.85
827.8285	655.8043	1965.9	1106.8
827.9733	657.9159	1961.65	1102.65
828.118	660.0268	1957.8	1095.65
828.2627	662.137	1960.2	1098.5
828.4075	664.2466	1956.05	1092.1
828.5522	666.3556	1945.7	1086.75
828.697	668.4639	1939.1	1077.25
828.8418	670.5716	1923.3	1062.85
828.9865	672.6786	1925.75	1065.25
829.1313	674.785	1936.75	1072.75
829.2761	676.8907	1927.25	1065.55
829.4209	678.9958	1930.1	1068.75
829.5657	681.1002	1935.85	1070.8
829.7105	683.204	1929.75	1061.35
829.8553	685.3072	1923.8	1056.55
830.0001	687.4097	1926.85	1061.05
830.1449	689.5115	1915	1048.05
830.2898	691.6127	1912.2	1047.75
830.4346	693.7132	1906.5	1040.3
830.5794	695.8131	1941.95	1054.25
830.7243	697.9123	1925.25	1058.6
830.8691	700.0109	1927.35	1060.45
831.014	702.1089	1939.2	1072.7
831.1588	704.2061	1954.85	1088.9
831.3037	706.3028	1974.6	1105.4
831.4486	708.3987	1995.7	1126.85
831.5935	710.4941	2009.4	1140.65
831.7383	712.5887	2010.9	1141.65
831.8832	714.6827	2003.55	1132.15
832.0281	716.7761	1995.1	1129.35
832.173	718.8688	1996.8	1124.2
832.3179	720.9608	2004.15	1130.6
832.4628	723.0522	2027.15	1153.35
832.6077	725.1429	2037.65	1165.9
832.7527	727.233	2081.6	1208.5
832.8976	729.3224	2144.3	1271.65
833.0425	731.4112	2188.1	1313.3
833.1874	733.4993	2183.3	1311.8
833.3324	735.5867	2127.4	1251.35
833.4773	737.6735	2070.05	1194.5
833.6222	739.7596	2017.8	1142.35
833.7672	741.845	1995.5	1122.1
833.9122	743.9298	1979.9	1103.85
834.0571	746.014	1990	1116.55
834.2021	748.0974	2011	1132.75
834.347	750.1802	2002.05	1125.15
834.492	752.2624	1996.4	1123.15
834.637	754.3439	2000.05	1123.7
834.782	756.4247	1987.25	1102.2
834.9269	758.5048	1994.65	1119.1
835.0719	760.5843	2004.45	1124.85
835.2169	762.6631	2030.9	1153.45
835.3619	764.7413	2086.7	1211.55
835.5069	766.8188	2165.05	1285.4
835.6519	768.8956	2251.1	1373.65
835.7969	770.9718	2302.75	1425.25
835.9419	773.0473	2288.85	1412.2
836.0869	775.1221	2262.5	1385.35
836.232	777.1962	2261.8	1383.55
836.377	779.2697	2311.55	1430.75
836.522	781.3426	2410	1512.4
836.667	783.4147	2446.35	1568.95
836.8121	785.4862	2407.25	1530.9
836.9571	787.557	2324.45	1446.35
837.1021	789.6271	2214.3	1333.25
837.2472	791.6966	2114.1	1235.95
837.3922	793.7654	2021.9	1142.75
837.5373	795.8335	1977.55	1100.9
837.6823	797.901	1940.55	1060.95
837.8274	799.9678	1942.45	1062.5
837.9724	802.0339	1942.65	1063.1
838.1175	804.0993	1946.45	1057.75
838.2626	806.1641	1931.6	1050.25
838.4076	808.2282	1903.3	1025.35
838.5527	810.2916	1894.5	1010.3
838.6978	812.3544	1887.95	1012.95
838.8428	814.4164	1874.3	993.35
838.9879	816.4778	1885.4	1004.35
839.133	818.5385	1894.65	1013.25
839.2781	820.5986	1926.6	1045.8
839.4232	822.658	1971.9	1088.6
839.5682	824.7166	2028.9	1147
839.7133	826.7747	2111.5	1231.2
839.8584	828.832	2198.35	1316
840.0035	830.8886	2255.35	1372.45
840.1486	832.9446	2278.75	1393.35
840.2937	834.9999	2244.9	1364.25
840.4388	837.0545	2159.8	1271.05
840.5839	839.1085	2084.7	1197.75
840.729	841.1618	2019.25	1132.15
840.8741	843.2143	1963.1	1078.55
841.0192	845.2662	1932.6	1048.95
841.1643	847.3175	1930.65	1047.35
841.3095	849.368	1912.75	1028.15
841.4546	851.4179	1914.7	1030.9
841.5997	853.467	1907.6	1024.6
841.7448	855.5155	1917.1	1031.25
841.8899	857.5633	1913.1	1028.8
842.0351	859.6105	1909.3	1023.8
842.1802	861.6569	1905.7	1021.4
842.3253	863.7027	1881.8	994.15
842.4704	865.7478	1885.2	997.15
842.6156	867.7922	1870.05	982.75
842.7607	869.8359	1862.05	974.8
842.9058	871.8789	1856.9	970.9
843.0509	873.9212	1883.85	962.8
843.1961	875.9629	1869.8	979.35
843.3412	878.0039	1876.9	989
843.4863	880.0441	1891.6	1005
843.6315	882.0837	1910.6	1023.5
843.7766	884.1226	1927.55	1038.2
843.9218	886.1609	1967.9	1082.7
844.0669	888.1984	1993.85	1108.5
844.212	890.2352	2050.4	1163.1
844.3572	892.2714	2059.4	1166.5
844.5023	894.3069	2028.75	1139.9
844.6475	896.3416	1977.15	1086.5
844.7926	898.3757	1945.55	1054.25
844.9377	900.4091	1931.8	1040.45
845.0829	902.4418	1925.05	1030.25
845.228	904.4739	1938	1046.4
845.3732	906.5052	1959.15	1070.45
845.5183	908.5358	1955.4	1064.85
845.6635	910.5658	1928.95	1034.2
845.8086	912.595	1891.55	1000.15
845.9538	914.6236	1855.05	966.1
846.0989	916.6515	1837.1	947.55
846.2441	918.6786	1813.8	920.35
846.3892	920.7051	1809.8	914.5
846.5344	922.7309	1808.25	918.95
846.6795	924.756	1802.95	913.6
846.8246	926.7804	1821.6	928.55
846.9698	928.8041	1822.1	930.95
847.1149	930.8272	1836.35	946.35
847.2601	932.8495	1854.55	964.9
847.4052	934.8711	1866.6	975.05
847.5504	936.892	1869.35	980
847.6955	938.9123	1886.2	991.85
847.8407	940.9318	1910.35	1014.8
847.9858	942.9506	1909.8	1018.15
848.131	944.9688	1902.2	1008.6
848.2761	946.9862	1884.9	992.85
848.4213	949.003	1851	959.45
848.5664	951.019	1831.95	940
848.7115	953.0344	1813.6	922.2
848.8567	955.0491	1801	908.4
849.0018	957.063	1802.7	909.35
849.147	959.0763	1793.65	902.95
849.2921	961.0888	1793.15	899.25
849.4373	963.1007	1797.4	906.5
849.5824	965.1119	1773.65	885.85
849.7275	967.1223	1779.85	891.5
849.8727	969.1321	1775.45	888.45
850.0178	971.1412	1776.95	886.6
850.1629	973.1495	1772.1	882.6
850.3081	975.1572	1791.8	863.25
850.4532	977.1641	1768	874.05
850.5983	979.1704	1768.55	874.8
850.7435	981.1759	1770.1	872.65
850.8886	983.1808	1766.25	871
851.0337	985.1849	1762.2	858.2
851.1788	987.1884	1761.25	864.1
851.324	989.1911	1762.15	867.65
851.4691	991.1932	1758.75	864.55
851.6142	993.1945	1770.25	878.4
851.7593	995.1951	1771	878.55
851.9045	997.1951	1761.65	863.5
852.0496	999.1943	1758.85	865.6
852.1947	1001.1928	1766.65	871.45
852.3398	1003.1906	1769.05	873
852.4849	1005.1877	1793.05	899.8
852.63	1007.1841	1806.6	914.05
852.7751	1009.1798	1816.15	921.9
852.9202	1011.1748	1799.15	905.1
853.0653	1013.1691	1784.65	890
853.2104	1015.1627	1756.65	861.45
853.3555	1017.1556	1730.85	838.65
853.5006	1019.1477	1717.45	825.65
853.6457	1021.1392	1700.95	811.55
853.7908	1023.1299	1696.85	807.55
853.9359	1025.12	1698.45	807.75
854.081	1027.1093	1699.35	815.5
854.2261	1029.0979	1709.35	827.9
854.3712	1031.0859	1727.7	842.3
854.5163	1033.0731	1751.35	860.6
854.6613	1035.0596	1745.4	856.15
854.8064	1037.0454	1735.3	844.6
854.9515	1039.0304	1733.75	841.6
855.0965	1041.0148	1709.65	818.8
855.2416	1042.9985	1691.85	796.25
855.3867	1044.9814	1676.15	783.7
855.5317	1046.9636	1686.65	792.1
855.6768	1048.9452	1684.6	790.6
855.8219	1050.926	1701.3	812.2
855.9669	1052.9061	1710.75	815.7
856.112	1054.8855	1709.9	816.25
856.257	1056.8642	1714.25	819.35
856.4021	1058.8421	1704.85	809.2
856.5471	1060.8194	1710.85	815.55
856.6921	1062.7959	1728.05	833.5
856.8372	1064.7717	1712.55	815.65
856.9822	1066.7469	1718.65	821.85
857.1272	1068.7213	1718.45	822.9
857.2723	1070.695	1725.7	831.7
857.4173	1072.6679	1750.3	852.9
857.5623	1074.6402	1759.3	864.25
857.7073	1076.6117	1765.1	866.1
857.8523	1078.5826	1747.45	852.65
857.9973	1080.5527	1712.85	814.2
858.1423	1082.5221	1682.55	785.15
858.2873	1084.4908	1658.55	764.55
858.4323	1086.4587	1645.9	747.65
858.5773	1088.426	1647.1	751.15
858.7223	1090.3925	1647.6	748.85
858.8673	1092.3584	1642.3	747
859.0123	1094.3235	1653.1	760.25
859.1573	1096.2879	1671.5	779.85
859.3022	1098.2515	1701.25	804.2
859.4472	1100.2145	1726.85	833.6
859.5922	1102.1767	1762.2	865.35
859.7371	1104.1382	1801	907.05
859.8821	1106.099	1846.75	952.9
860.027	1108.0591	1887	992.6
860.172	1110.0185	1927.1	1029.6
860.3169	1111.9771	1953.3	1058.1
860.4619	1113.9351	1990.15	1093.85
860.6068	1115.8923	2049.85	1155.9
860.7517	1117.8488	2061.5	1163.15
860.8967	1119.8045	2013	1117.55
861.0416	1121.7596	1938.75	1043.1
861.1865	1123.7139	1843.05	948.75
861.3314	1125.6675	1806.5	908.1
861.4763	1127.6204	1802.9	909.15
861.6212	1129.5726	1811.05	913.85
861.7661	1131.524	1810.2	913.2
861.911	1133.4748	1763.6	866.55
862.0559	1135.4248	1716.55	819.2
862.2008	1137.3741	1673.55	780.1
862.3457	1139.3226	1662.75	765.8
862.4905	1141.2705	1664.05	767.3
862.6354	1143.2176	1665.7	765.45
862.7803	1145.164	1672.95	776.95
862.9251	1147.1097	1664.85	768.15
863.07	1149.0546	1650	751.7
863.2148	1150.9989	1621.3	723.95
863.3597	1152.9424	1599.75	702.75
863.5045	1154.8852	1591.1	692.85
863.6493	1156.8272	1590.75	694.55
863.7942	1158.7686	1596.35	692.2
863.939	1160.7092	1595.2	698.75
864.0838	1162.6491	1596.5	700.25
864.2286	1164.5883	1609.35	716.85
864.3734	1166.5267	1624.65	728.4
864.5182	1168.4644	1649.1	749.75
864.663	1170.4014	1679.2	778.95
864.8078	1172.3377	1722.2	826.9
864.9526	1174.2732	1763.95	870.25
865.0974	1176.2081	1853.75	957.7
865.2421	1178.1421	1956.55	1054.65
865.3869	1180.0755	2056.25	1159.3
865.5317	1182.0082	2093.55	1198.9
865.6764	1183.9401	2065.8	1170.1
865.8212	1185.8713	1967.75	1073.85
865.9659	1187.8017	1869.05	976.8
866.1106	1189.7315	1769.45	880.4
866.2554	1191.6605	1733.95	816
866.4001	1193.5888	1666.35	774.95
866.5448	1195.5163	1649.45	756.7
866.6895	1197.4432	1631.05	734.85
866.8342	1199.3693	1621	727.1
866.9789	1201.2947	1606.45	706.8
867.1236	1203.2193	1607.9	712.35
867.2683	1205.1432	1594.1	697.5
867.413	1207.0664	1585.6	689.1
867.5576	1208.9889	1599.9	700.75
867.7023	1210.9106	1597.3	701.1
867.847	1212.8316	1603.65	708.35
867.9916	1214.7519	1623.05	719.1
868.1363	1216.6715	1625.35	729.4
868.2809	1218.5903	1631.8	734.25
868.4255	1220.5084	1647.15	749.05
868.5701	1222.4257	1659.9	763.65
868.7148	1224.3424	1666	774.1
868.8594	1226.2583	1700.55	801.45
869.004	1228.1735	1724.1	825.35
869.1486	1230.0879	1764.55	867.6
869.2932	1232.0016	1795.65	899.2
869.4377	1233.9146	1826.4	929.95
869.5823	1235.8269	1842.6	947.95
869.7269	1237.7384	1854.25	959.05
869.8715	1239.6492	1847.4	952
870.016	1241.5592	1879.3	983.35
870.1606	1243.4686	1914.3	1017.35
870.3051	1245.3772	1988.35	1091.65
870.4496	1247.285	2068.95	1170.95
870.5941	1249.1922	2136.7	1241.8
870.7387	1251.0986	2208.05	1311.8
870.8832	1253.0042	2265.6	1371.6
871.0277	1254.9092	2340.1	1444.95
871.1722	1256.8134	2412	1517.4
871.3167	1258.7169	2462.35	1566
871.4611	1260.6196	2468.95	1572.25
871.6056	1262.5216	2461.85	1563.9
871.7501	1264.4229	2448.6	1551.25
871.8945	1266.3234	2404.2	1507.85
872.039	1268.2232	2391.45	1492
872.1834	1270.1223	2346.35	1448.15
872.3278	1272.0207	2309.3	1411.85
872.4723	1273.9183	2304.8	1403.5
872.6167	1275.8151	2300.15	1404.55
872.7611	1277.7113	2354.7	1457.5
872.9055	1279.6067	2433.7	1538.9
873.0499	1281.5014	2558.6	1662.6
873.1943	1283.3953	2707.9	1811
873.3386	1285.2885	2855.15	1959.15
873.483	1287.181	2946.95	2048.95
873.6274	1289.0727	2978.1	2084.15
873.7717	1290.9637	2946.7	2049.5
873.9161	1292.854	2884.45	1988
874.0604	1294.7435	2791.3	1893.3
874.2047	1296.6323	2711.8	1813
874.349	1298.5204	2622.05	1723.4
874.4933	1300.4077	2569.2	1671.95
874.6376	1302.2943	2533.35	1634.85
874.7819	1304.1802	2513.15	1617.1
874.9262	1306.0653	2466.9	1570.45
875.0705	1307.9497	2434.4	1538.2
875.2147	1309.8333	2398.55	1504.65
875.359	1311.7162	2356.75	1457.7
875.5032	1313.5984	2315.5	1417.6
875.6475	1315.4798	2310.8	1396.65
875.7917	1317.3605	2310.6	1394.6
875.9359	1319.2405	2286.35	1388.6
876.0801	1321.1197	2264.85	1365.4
876.2243	1322.9982	2184.75	1284.05
876.3685	1324.876	2124.7	1226.75
876.5127	1326.753	2048	1150.95
876.6569	1328.6293	1966.7	1068.05
876.801	1330.5048	1899.55	998.2
876.9452	1332.3796	1838.35	941.2
877.0893	1334.2537	1829.25	907
877.2335	1336.127	1762.25	865.05
877.3776	1337.9996	1744.6	848.6
877.5217	1339.8714	1730.85	833.6
877.6658	1341.7426	1761.2	817.9
877.8099	1343.6129	1704.4	805.05
877.954	1345.4826	1686.25	786.9
878.0981	1347.3515	1687.05	787.85
878.2422	1349.2196	1672.6	774.8
878.3862	1351.087	1674.65	776.4
878.5303	1352.9537	1662.2	762.95
878.6743	1354.8197	1664.15	767.7
878.8184	1356.6849	1678.05	779.55
878.9624	1358.5493	1688.45	791.8
879.1064	1360.4131	1722.1	822.8
879.2504	1362.276	1744.35	847.05
879.3944	1364.1383	1778.45	880.35
879.5384	1365.9998	1789.7	886.95
879.6823	1367.8606	1769.9	872.85
879.8263	1369.7206	1759	859.35
879.9702	1371.5799	1757.55	859.1
880.1142	1373.4384	1748.5	850.75
880.2581	1375.2962	1719.85	822.5
880.402	1377.1533	1673.9	777.75
880.5459	1379.0096	1628.9	731.65
880.6898	1380.8652	1594.15	696.65
880.8337	1382.7201	1574.95	680.05
880.9776	1384.5742	1551.75	653.35
881.1215	1386.4275	1537.8	637.45
881.2653	1388.2802	1533.05	636.55
881.4092	1390.132	1512.05	614.85
881.553	1391.9832	1503.45	604.85
881.6968	1393.8336	1488	589.6
881.8406	1395.6832	1484.95	585
881.9844	1397.5322	1485.5	589.4
882.1282	1399.3803	1466.25	564.55
882.272	1401.2278	1466.65	568.65
882.4158	1403.0745	1457.1	561.2
882.5595	1404.9204	1449.45	552.15
882.7033	1406.7656	1451.7	552.6
882.847	1408.6101	1433.05	536.55
882.9908	1410.4538	1437.95	538.7
883.1345	1412.2968	1443.9	544.8
883.2782	1414.139	1442.1	544.55
883.4219	1415.9805	1450	553.65
883.5656	1417.8213	1467.55	566.25
883.7092	1419.6613	1482	585.65
883.8529	1421.5006	1507.35	611.35
883.9965	1423.3391	1528.9	632.25
884.1402	1425.1769	1569.35	670.55
884.2838	1427.0139	1636.15	737.45
884.4274	1428.8502	1711.75	812.75
884.571	1430.6858	1775.85	877.25
884.7146	1432.5206	1789.3	892.6
884.8582	1434.3547	1788.95	892.75
885.0018	1436.188	1772.2	875.9
885.1453	1438.0206	1758	861.6
885.2889	1439.8524	1750.85	853.2
885.4324	1441.6835	1743.25	844.4
885.5759	1443.5139	1752.9	853
885.7194	1445.3435	1750.9	854
885.8629	1447.1724	1746.7	852.45
886.0064	1449.0005	1748.05	853.3
886.1499	1450.8279	1737.85	840.6
886.2933	1452.6545	1733.4	838.1
886.4368	1454.4804	1726.9	830.45
886.5802	1456.3056	1735.95	833.7
886.7237	1458.13	1699.05	804.3
886.8671	1459.9536	1689.45	792.85
887.0105	1461.7766	1657.35	760.95
887.1539	1463.5987	1625.3	727.3
887.2972	1465.4202	1590.25	693.8
887.4406	1467.2409	1558	661.5
887.584	1469.0608	1531.2	635.35
887.7273	1470.88	1504.15	607.25
887.8706	1472.6984	1478.95	583.5
888.0139	1474.5161	1462.9	563.45
888.1572	1476.3331	1444.35	548.6
888.3005	1478.1493	1442.2	544.6
888.4438	1479.9648	1436.6	540.9
888.5871	1481.7795	1430.4	534.85
888.7303	1483.5935	1431.6	536.05
888.8736	1485.4067	1429.15	535.1
889.0168	1487.2192	1432.05	535.3
889.16	1489.031	1434.65	535.55
889.3032	1490.842	1424.75	529.25
889.4464	1492.6522	1419.85	524
889.5896	1494.4618	1420.45	524.2
889.7327	1496.2705	1421.8	525.8
889.8759	1498.0785	1417.45	519.55
890.019	1499.8858	1406.35	509.45
890.1622	1501.6924	1407.7	513.05
890.3053	1503.4981	1399.45	502.7
890.4484	1505.3032	1391	497.05
890.5914	1507.1075	1390.75	493.25
890.7345	1508.911	1383.6	487.65
890.8776	1510.7138	1378.95	483.3
891.0206	1512.5159	1367.2	469.65
891.1637	1514.3172	1369.3	473.05
891.3067	1516.1178	1356.2	462.9
891.4497	1517.9176	1355.65	458.3
891.5927	1519.7166	1353.55	458.3
891.7357	1521.515	1355.85	451.85
891.8786	1523.3126	1341.6	441.7
892.0216	1525.1094	1337.3	440.45
892.1645	1526.9055	1327.5	432.4
892.3074	1528.7008	1327.4	432.9
892.4503	1530.4954	1325.2	422.35
892.5932	1532.2893	1323.45	428.85
892.7361	1534.0824	1327.8	428.35
892.879	1535.8747	1317.6	423.8
893.0218	1537.6663	1313.8	421.6
893.1647	1539.4572	1309.45	413.85
893.3075	1541.2473	1319.85	426.9
893.4503	1543.0367	1311.45	416.7
893.5931	1544.8253	1322.95	424.6
893.7359	1546.6132	1322.85	427.85
893.8787	1548.4003	1335.55	432.8
894.0214	1550.1867	1337.5	434.4
894.1642	1551.9723	1345.65	447.35
894.3069	1553.7572	1355.35	463.6
894.4496	1555.5414	1372.15	479.45
894.5923	1557.3247	1400.55	507.8
894.735	1559.1074	1430.2	537.85
894.8777	1560.8893	1471.1	579.1
895.0204	1562.6705	1497.3	605
895.163	1564.4509	1507.25	617.5
895.3056	1566.2305	1523	631.95
895.4482	1568.0094	1519.2	630.05
895.5908	1569.7876	1502.6	610.6
895.7334	1571.565	1504.25	610.5
895.876	1573.3417	1508.5	618.65
896.0186	1575.1176	1519.95	629.8
896.1611	1576.8928	1523.55	633.85
896.3036	1578.6672	1536.75	649.35
896.4461	1580.4409	1562.05	673.95
896.5886	1582.2138	1586.3	697.2
896.7311	1583.986	1614.55	722.2
896.8736	1585.7575	1640	750.5
897.0161	1587.5282	1663.15	774.45
897.1585	1589.2981	1688.85	801.95
897.3009	1591.0673	1707.8	819.35
897.4433	1592.8358	1718.9	830.3
897.5857	1594.6035	1711.55	817.3
897.7281	1596.3704	1713.8	821.75
897.8705	1598.1366	1701.95	810.3
898.0128	1599.9021	1672.3	781.05
898.1551	1601.6668	1664.7	774.85
898.2975	1603.4308	1664.6	773.85
898.4398	1605.194	1669.1	773.1
898.5821	1606.9564	1699.35	811.15
898.7243	1608.7182	1740.35	851.25
898.8666	1610.4791	1799.7	913.35
899.0088	1612.2394	1881.85	997.9
899.1511	1613.9988	1957.25	1070.4
899.2933	1615.7576	2015.3	1127.15
899.4355	1617.5156	2020	1126.2
899.5776	1619.2728	1978.3	1087.15
899.7198	1621.0293	1910.95	1020.3
899.862	1622.785	1809.6	916.6
900.0041	1624.54	1716.7	825.65
900.1462	1626.2942	1625.95	737.6
900.2883	1628.0477	1538.05	648.85
900.4304	1629.8005	1489.2	598.8
900.5725	1631.5525	1426.1	538.75
900.7145	1633.3037	1390	501.9
900.8566	1635.0542	1359.65	472.45
900.9986	1636.804	1328.1	441.55
901.1406	1638.553	1379	421
901.2826	1640.3013	1296.65	407.65
901.4245	1642.0488	1279.2	387.95
901.5665	1643.7955	1269.05	382.45
901.7085	1645.5416	1255.05	368.8
901.8504	1647.2868	1250.55	364.7
901.9923	1649.0313	1244.4	355.8
902.1342	1650.7751	1244.15	354.75
902.2761	1652.5181	1234.85	348.75
902.4179	1654.2604	1237.4	349.55
902.5598	1656.0019	1243.65	356.45
902.7016	1657.7427	1256.85	367.4
902.8434	1659.4828	1276.8	387
902.9852	1661.222	1304.3	415.65
903.127	1662.9606	1321.85	434.35
903.2687	1664.6984	1340.55	449.2
903.4105	1666.4354	1343.9	452.95
903.5522	1668.1717	1311.85	420.9
903.6939	1669.9072	1279.6	390.2
903.8356	1671.642	1245.4	354.35
903.9773	1673.3761	1213.85	324.55
904.119	1675.1094	1195.2	304.9
904.2606	1676.8419	1181.9	295.25
904.4022	1678.5737	1170.25	280.35
904.5439	1680.3048	1162.5	272.15
904.6855	1682.0351	1156.15	264.85
904.827	1683.7646	1153	262.65
904.9686	1685.4934	1143.55	252.6
905.1101	1687.2215	1144.2	254.35
905.2517	1688.9488	1142.85	253.85
905.3932	1690.6754	1132.85	244.1
905.5347	1692.4012	1132.75	244.5
905.6761	1694.1263	1127.15	239.6
905.8176	1695.8506	1135.8	248.65
905.9591	1697.5742	1127.2	238.75
906.1005	1699.297	1124.15	236.25
906.2419	1701.0191	1118.75	231.25
906.3833	1702.7404	1116.4	229.65
906.5246	1704.461	1116.95	226.5
906.666	1706.1808	1115.6	225.7
906.8073	1707.8999	1117.55	230.6
906.9487	1709.6182	1107.65	220.9
907.09	1711.3358	1108.45	223.75
907.2313	1713.0527	1101	215
907.3725	1714.7688	1108.45	216.2
907.5138	1716.4841	1102.05	212.55
907.655	1718.1987	1109.75	216.3
907.7962	1719.9126	1100.95	214.85
907.9374	1721.6257	1103.25	215.85
908.0786	1723.338	1100.2	213.55
908.2198	1725.0496	1100.1	212.85
908.3609	1726.7605	1096.05	207.45
908.502	1728.4706	1100.45	213.35
908.6431	1730.18	1098.9	209.35
908.7842	1731.8886	1089.75	202.2
908.9253	1733.5964	1111.4	206
909.0664	1735.3036	1096.65	206.75
909.2074	1737.0099	1095.15	209.15
909.3484	1738.7156	1091.9	208.45
909.4894	1740.4204	1097.4	209.9
909.6304	1742.1246	1096.55	207.8
909.7714	1743.8279	1089.65	204.15
909.9123	1745.5306	1094	209.15
910.0532	1747.2325	1089.45	203
910.1941	1748.9336	1086.1	201.15
910.335	1750.634	1084.85	196.1
910.4759	1752.3336	1086.7	200.7
910.6168	1754.0325	1091.3	207.1
910.7576	1755.7307	1086.7	200.3
910.8984	1757.4281	1089.45	202.3
911.0392	1759.1247	1093.6	197.7
911.18	1760.8206	1088.05	195.05
911.3208	1762.5158	1088	198
911.4615	1764.2102	1086	199.55
911.6022	1765.9039	1082.2	196.3
911.7429	1767.5968	1081.65	197.1
911.8836	1769.289	1084.9	198.2
912.0243	1770.9804	1083.5	195.85
912.1649	1772.6711	1085.5	195.05
912.3056	1774.361	1082.45	192.35
912.4462	1776.0502	1079.9	191.4
912.5868	1777.7386	1084.85	195.15
912.7274	1779.4263	1078.15	189
912.8679	1781.1132	1074	187.85
913.0084	1782.7994	1073.55	186.7
913.149	1784.4849	1075.35	190.75
913.2895	1786.1696	1092.7	188.35
913.4299	1787.8535	1074.25	189.4
913.5704	1789.5367	1070.4	184.7
913.7108	1791.2192	1074.55	189.95
913.8513	1792.9009	1098.2	187.5
913.9917	1794.5818	1075.4	187.6
914.132	1796.2621	1073.7	187.9
914.2724	1797.9415	1075	186.5
914.4128	1799.6202	1075.3	190.55
914.5531	1801.2982	1074.4	187.45
914.6934	1802.9755	1071	181.7
914.8337	1804.6519	1072.5	186.1
914.9739	1806.3277	1070.8	183.45
915.1142	1808.0027	1062.75	178.8
915.2544	1809.6769	1071.3	185.95
915.3946	1811.3504	1070.85	185.3
915.5348	1813.0231	1067.1	179.8
915.675	1814.6951	1065	180.5
915.8151	1816.3664	1071.15	183.2
915.9553	1818.0369	1063.5	177
916.0954	1819.7067	1061.45	175.55
916.2355	1821.3757	1062.9	175.1
916.3755	1823.044	1061.15	173.35
916.5156	1824.7115	1064.15	175.9
916.6556	1826.3783	1066.05	179.85
916.7956	1828.0443	1061.55	176.75
916.9356	1829.7096	1058.45	171.15
917.0756	1831.3741	1067.65	179.4
917.2155	1833.0379	1057.5	173.5
917.3555	1834.701	1059.35	173.1
917.4954	1836.3633	1058.45	170.9
917.6353	1838.0248	1054.85	166.4
917.7751	1839.6856	1059.2	172.85
917.915	1841.3457	1062.3	177.65
918.0548	1843.005	1060.55	174.35
918.1946	1844.6636	1057.15	171.4
918.3344	1846.3214	1060.85	174.5
918.4742	1847.9785	1054	166.8
918.6139	1849.6349	1058.55	170.4
918.7537	1851.2904	1070.9	174.7
918.8934	1852.9453	1058.55	171.6
919.0331	1854.5994	1056.3	167
919.1727	1856.2528	1060.25	167.9
919.3124	1857.9054	1055.85	170.95
919.452	1859.5572	1052.5	169.75
919.5916	1861.2083	1052.5	164.4
919.7312	1862.8587	1057.85	170.8
919.8708	1864.5084	1054.5	165.05
920.0103	1866.1572	1053.35	164
920.1498	1867.8054	1057.95	170.25
920.2893	1869.4528	1055.05	167.45
920.4288	1871.0994	1050.5	161.7
920.5683	1872.7453	1052.5	164.1
920.7077	1874.3905	1056.9	164
920.8471	1876.0349	1052.95	165.75
920.9865	1877.6786	1053.15	165.85
921.1259	1879.3215	1049.2	162.7
921.2653	1880.9637	1048.7	161.5
921.4046	1882.6051	1050	165.5
921.5439	1884.2458	1048.55	159.2
921.6832	1885.8858	1050.8	163.35
921.8225	1887.525	1051.8	165
921.9617	1889.1634	1043.1	154.35
922.101	1890.8011	1047.7	159.55
922.2402	1892.4381	1047.3	160.5
922.3794	1894.0743	1041.7	154.65
922.5185	1895.7098	1045.15	158.1
922.6577	1897.3446	1043.35	154.45
922.7968	1898.9786	1047.05	155.1
922.9359	1900.6118	1042.55	158.1
923.075	1902.2443	1043.5	153.5
923.214	1903.8761	1041.2	155.5
923.3531	1905.5071	1043.45	155.75
923.4921	1907.1374	1043.45	155.75
923.6311	1908.7669	1045.1	158.55
923.77	1910.3957	1041.3	155.9
923.909	1912.0237	1040.9	153.3
924.0479	1913.651	1041.6	154.2
924.1868	1915.2776	1037.1	152.6
924.3257	1916.9034	1040	154.4
924.4646	1918.5285	1036.1	152.15
924.6034	1920.1528	1037.4	150.2
924.7422	1921.7764	1033.15	146.25
924.881	1923.3992	1037.6	151.6
925.0198	1925.0213	1032.95	145.8
925.1586	1926.6427	1033.1	147.05
925.2973	1928.2633	1243.45	145.2
925.436	1929.8832	1037.9	149.4
925.5747	1931.5023	1029.6	142.25
925.7134	1933.1207	1034.6	149.85
925.852	1934.7383	1035.75	151.45
925.9906	1936.3552	1035.35	150.35
926.1292	1937.9714	1032.35	146.35
926.2678	1939.5868	1037.6	148.2
926.4064	1941.2015	1029.25	142.6
926.5449	1942.8154	1029.7	142.5
926.6834	1944.4286	1031.05	143.1
926.8219	1946.041	1055.3	144.05
926.9604	1947.6528	1035.2	141.5
927.0988	1949.2637	1024.35	140.35
927.2372	1950.8739	1026.15	139.15
927.3756	1952.4834	1029.25	143.95
927.514	1954.0921	1029.5	143.5
927.6523	1955.7001	1031.3	142.45
927.7907	1957.3074	1020	136.7
927.929	1958.9139	1022.35	138.55
928.0673	1960.5197	1031.05	144.35
928.2055	1962.1247	1023.05	139.6
928.3438	1963.729	1023.3	140.15
928.482	1965.3325	1027.35	139.15
928.6202	1966.9353	1019.65	137.6
928.7584	1968.5374	1021.6	137.45
928.8965	1970.1387	1019.85	134.85
929.0346	1971.7393	1023	138.4
929.1727	1973.3392	1017.15	132.25
929.3108	1974.9383	1021.8	137.15
929.4489	1976.5366	1018.55	135.9
929.5869	1978.1342	1018.75	136.5
929.7249	1979.7311	1024.9	140.2
929.8629	1981.3273	1018.5	134.65
930.0009	1982.9227	1020.65	136.1
930.1388	1984.5173	1018.7	137.95
930.2767	1986.1112	1015.95	131.6
930.4146	1987.7044	1020.45	138.45
930.5525	1989.2968	1018.95	133.65
930.6904	1990.8885	1021.85	136.25
930.8282	1992.4795	1016.5	132.6
930.966	1994.0697	1014	133.85
931.1038	1995.6592	1016.95	134.75
931.2415	1997.2479	1017.8	136.25
931.3793	1998.8359	1014.25	131.45
931.517	2000.4232	1011.25	130.5
931.6547	2002.0097	1007.5	130.3
931.7923	2003.5955	1012.9	130.6
931.93	2005.1805	1015	131.8
932.0676	2006.7648	1013.25	130.45
932.2052	2008.3484	1010.6	127.05
932.3427	2009.9312	1018.55	137.6
932.4803	2011.5133	1007	130.35
932.6178	2013.0946	1008.45	128.45
932.7553	2014.6752	1011.8	133.4
932.8928	2016.2551	1013.75	131.85
933.0302	2017.8342	1010.25	127.3
933.1676	2019.4126	1005.55	125.6
933.305	2020.9902	1008.5	129.55
933.4424	2022.5672	1010.1	130.3
933.5798	2024.1433	1012.85	128.5
933.7171	2025.7188	1006.75	127.8
933.8544	2027.2935	1008.2	129.1
933.9917	2028.8674	1002.4	121.85
934.129	2030.4406	1006.05	127.35
934.2662	2032.0131	1003.55	126.3
934.4034	2033.5849	1011.55	127.75
934.5406	2035.1559	1008.8	130
934.6778	2036.7261	1007.85	126.65
934.8149	2038.2957	1006.1	124.1
934.952	2039.8645	1009.8	127.8
935.0891	2041.4325	1014.7	130.1
935.2262	2042.9998	1006.25	129.45
935.3632	2044.5664	1005.3	123.5
935.5002	2046.1323	1002.6	121.4
935.6372	2047.6974	1006.9	127.05
935.7742	2049.2617	1004	124.9
935.9111	2050.8254	1010.15	126.35
936.048	2052.3883	1010.1	127.95
936.1849	2053.9504	1005.2	122.85
936.3218	2055.5118	1006.45	122.6
936.4586	2057.0725	1007.4	122.2
936.5955	2058.6325	1004.9	125.3
936.7323	2060.1917	1003.15	125.05
936.869	2061.7502	1009.15	128.5
937.0058	2063.3079	1006.35	127.15
937.1425	2064.8649	1009.3	126.6
937.2792	2066.4212	1008.7	126.45
937.4159	2067.9767	1005.4	125.1
937.5525	2069.5315	1005.35	123.5
937.6891	2071.0856	1007.55	130.35
937.8257	2072.6389	1008.25	126.5
937.9623	2074.1915	1002.55	123.95
938.0989	2075.7433	1007.3	127.15
938.2354	2077.2945	1002.25	124.3
938.3719	2078.8448	1003.95	122.8
938.5084	2080.3945	1000.7	117.9
938.6448	2081.9434	1004.15	124.2
938.7812	2083.4916	1003.9	122.15
938.9176	2085.039	1004.7	119.8
939.054	2086.5857	1005.75	120.3
939.1903	2088.1317	1007.6	124.05
939.3267	2089.677	1008.5	123.75
939.463	2091.2215	1005.4	122.7
939.5992	2092.7652	1005.9	121.7
939.7355	2094.3083	1003.1	118.9
939.8717	2095.8506	1002	120.65
940.0079	2097.3921	1004.25	123.95
940.1441	2098.933	1003.55	123.6
940.2802	2100.4731	1003.9	121.9
940.4163	2102.0124	1026.9	126.45
940.5524	2103.5511	1007.45	125.5
940.6885	2105.089	1002.1	118.4
940.8245	2106.6261	1006.7	126.9
940.9606	2108.1626	1005.05	119.65
941.0965	2109.6983	1033.85	124.1
941.2325	2111.2332	1002.55	119.4
941.3684	2112.7675	1004.35	121.85
941.5044	2114.301	1006.85	122.45
941.6403	2115.8337	1001.4	118.9
941.7761	2117.3657	1004.3	122.85
941.912	2118.897	1001.85	117.9
942.0478	2120.4276	1011.85	125
942.1835	2121.9575	1003.3	119.75
942.3193	2123.4866	1006.4	122.1
942.455	2125.0149	1008.05	123.6
942.5907	2126.5426	1001.75	120.75
942.7264	2128.0695	999.3	115
942.8621	2129.5956	995.1	118.25
942.9977	2131.1211	1002.5	117.65
943.1333	2132.6458	999.25	117.9
943.2689	2134.1698	1002.25	120.7
943.4044	2135.693	1002.75	117.5
943.54	2137.2155	1003.2	115.85
943.6755	2138.7373	1000.9	120.35
943.8109	2140.2584	999.7	119.85
943.9464	2141.7787	1000.05	114.75
944.0818	2143.2983	996.4	118.9
944.2172	2144.8171	992.95	116.2
944.3526	2146.3353	997.4	115.2
944.4879	2147.8527	996.95	117.8
944.6232	2149.3693	998.4	117.95
944.7585	2150.8853	1000.15	119.4
944.8938	2152.4005	995.4	113.4
945.029	2153.9149	1001.3	117.85
945.1642	2155.4287	1001.25	119.6
945.2994	2156.9417	1000.9	116.85
945.4346	2158.454	1004.4	119.6
945.5697	2159.9655	1000.25	121.05
945.7048	2161.4764	999.1	117.05
945.8399	2162.9865	997.45	117.05
945.9749	2164.4958	996.55	115.65
946.1099	2166.0045	999.65	118.2
946.2449	2167.5124	997.15	116.65
946.3799	2169.0195	998.05	117.3
946.5148	2170.526	996.3	110.65
946.6498	2172.0317	997.55	115.3
946.7846	2173.5367	996.4	114.7
946.9195	2175.0409	994.45	113.25
947.0543	2176.5445	997.55	114.95
947.1891	2178.0473	995.55	112.4
947.3239	2179.5494	1001.7	115.5
947.4587	2181.0507	995.65	112.1
947.5934	2182.5513	993.85	112.75
947.7281	2184.0512	994.1	110
947.8628	2185.5504	996.5	114.25
947.9974	2187.0488	990.5	108.2
948.132	2188.5465	992.8	114.25
948.2666	2190.0435	991.65	110.6
948.4012	2191.5397	992	110.65
948.5357	2193.0353	993.3	111.95
948.6702	2194.5301	995.6	110.2
948.8047	2196.0241	998.4	114.7
948.9392	2197.5175	993.75	109.55
949.0736	2199.0101	998.25	110.85
949.208	2200.502	991.05	109.05
949.3424	2201.9931	990.75	110.1
949.4767	2203.4835	992.2	110.9
949.611	2204.9733	1005.7	107.7
949.7453	2206.4622	988.7	110.3
949.8796	2207.9505	990.1	105.95
950.0138	2209.438	989.75	110.2
950.148	2210.9248	990.1	109.15
950.2822	2212.4109	988.3	107.25
950.4164	2213.8962	988.85	105.3
950.5505	2215.3809	992.4	108.6
950.6846	2216.8648	993.9	110.05
950.8186	2218.3479	997.2	107.7
950.9527	2219.8304	991.2	104.35
951.0867	2221.3121	994.15	107.45
951.2207	2222.7931	986.7	105.65
951.3546	2224.2733	987.5	102.45
951.4886	2225.7529	987.1	106.6
951.6225	2227.2317	987	102.4
951.7563	2228.7098	987.45	108.5
951.8902	2230.1872	986.15	105.85
952.024	2231.6638	987.95	109.45
952.1578	2233.1397	989	103.25
952.2916	2234.6149	982.65	103.15
952.4253	2236.0894	985.55	102.95
952.559	2237.5632	993.95	103.55
952.6927	2239.0362	984.75	105.25
952.8263	2240.5085	981.3	101.4
952.9599	2241.9801	988.35	103.75
953.0935	2243.4509	986.35	104.15
953.2271	2244.921	987.6	102.8
953.3606	2246.3904	987.6	102.05
953.4941	2247.8591	983.35	103.3
953.6276	2249.3271	984.4	102.8
953.7611	2250.7943	983.8	100.7
953.8945	2252.2608	982.6	100.85
954.0279	2253.7266	982.45	101.65
954.1612	2255.1917	980.35	99.35
954.2946	2256.656	984.8	103.1
954.4279	2258.1197	977.75	97.75
954.5612	2259.5826	980.4	98.25
954.6944	2261.0447	981.85	99.5
954.8276	2262.5062	980.9	96.25
954.9608	2263.9669	981.6	95.95
955.094	2265.4269	978.95	99.3
955.2271	2266.8862	980.1	98.6
955.3602	2268.3448	978.55	97
955.4933	2269.8026	979.4	99.4
955.6264	2271.2598	978.35	98
955.7594	2272.7162	977.4	96.95
955.8924	2274.1719	978.8	96.3
956.0253	2275.6268	978.45	93.95
956.1583	2277.0811	980.8	97.5
956.2912	2278.5346	974.3	91.8
956.4241	2279.9874	977.5	97.05
956.5569	2281.4395	977.25	97.35
956.6897	2282.8908	980.5	96.45
956.8225	2284.3414	978.8	95.45
956.9553	2285.7914	979.15	98.6
957.088	2287.2406	979.8	95.1
957.2207	2288.689	977.35	95.85
957.3534	2290.1368	979.95	94.65
957.486	2291.5838	981.9	95.85
957.6186	2293.0302	981.45	97.05
957.7512	2294.4758	981.4	99.8
957.8838	2295.9206	978.5	94.8
958.0163	2297.3648	977.6	96.95
958.1488	2298.8082	975.35	91.75
958.2813	2300.251	976.75	94.5
958.4137	2301.693	980.8	96.55
958.5461	2303.1343	976.6	92.55
958.6785	2304.5748	976.3	94.75
958.8108	2306.0147	975.8	92.3
958.9432	2307.4538	974.8	91.65
959.0754	2308.8922	972.65	92.7
959.2077	2310.3299	973.05	92.45
959.3399	2311.7669	973.2	94.15
959.4721	2313.2031	972.25	90.65
959.6043	2314.6387	976.35	93.7
959.7365	2316.0735	976.55	94.75
959.8686	2317.5076	976.35	95.05
960.0006	2318.941	975.8	93.95
960.1327	2320.3737	976.9	93.6
960.2647	2321.8056	975.65	91.3
960.3967	2323.2369	977.45	94.85
960.5287	2324.6674	980.3	95.1
960.6606	2326.0972	980	95
960.7925	2327.5263	985.6	102.95
960.9244	2328.9547	978.95	94.85
961.0562	2330.3823	981.7	98.8
961.1881	2331.8092	981.2	94.15
961.3198	2333.2355	976.2	93.55
961.4516	2334.661	978.35	92.7
961.5833	2336.0858	972.35	88.15
961.715	2337.5098	968.8	86.2
961.8467	2338.9332	971.2	87.85
961.9783	2340.3558	971.55	88.4
962.1099	2341.7778	967.25	85.8
962.2415	2343.199	973.8	89.8
962.373	2344.6195	969.55	89.7
962.5045	2346.0393	968.6	86.4
962.636	2347.4583	970.3	87.8
962.7675	2348.8767	972.55	88.5
962.8989	2350.2943	970.2	86.05
963.0303	2351.7113	972.8	88.15
963.1617	2353.1275	970.8	86.4
963.293	2354.543	994.65	84.35
963.4243	2355.9578	968.65	84.45
963.5556	2357.3718	967.85	85.15
963.6868	2358.7852	969.85	86.5
963.818	2360.1978	968.4	86.3
963.9492	2361.6098	967.35	87.65
964.0803	2363.021	970.15	82.1
964.2114	2364.4315	968.25	85.9
964.3425	2365.8413	969.8	85.1
964.4736	2367.2504	969.4	88.45
964.6046	2368.6587	965.05	83.7
964.7356	2370.0664	964.9	84.1
964.8666	2371.4733	966.7	82.8
964.9975	2372.8795	965.55	82.05
965.1284	2374.285	968.6	84.55
965.2593	2375.6899	962.95	81.6
965.3901	2377.0939	965.1	82.75
965.5209	2378.4973	964.95	81.45
965.6517	2379.9	964.9	78.9
965.7825	2381.3019	964.5	82.6
965.9132	2382.7032	964.35	82.7
966.0439	2384.1037	961.15	81.3
966.1745	2385.5035	962.8	80.6
966.3051	2386.9027	960.45	78.55
966.4357	2388.3011	962.25	74.85
966.5663	2389.6987	966.05	82.1
966.6968	2391.0957	966	83.1
966.8273	2392.492	963.35	82.95
966.9578	2393.8876	962.85	80.15
967.0882	2395.2824	964.05	81
967.2186	2396.6765	963.15	80.1
967.349	2398.07	960.75	76.9
967.4793	2399.4627	966.7	80.9
967.6097	2400.8547	963.8	80.6
967.7399	2402.246	971.4	81.4
967.8702	2403.6366	960.95	76.75
968.0004	2405.0265	960.5	75.65
968.1306	2406.4156	962.25	74.15
968.2607	2407.8041	961.65	74.8
968.3909	2409.1918	961.4	74
968.521	2410.5789	963.25	79.15
968.651	2411.9652	961.8	72.65
968.781	2413.3508	958.7	74.45
968.911	2414.7358	963.3	79.45
969.041	2416.12	957.4	72.65
969.1709	2417.5035	956.35	72.95
969.3008	2418.8863	960.75	75.8
969.4307	2420.2684	960.8	76
969.5606	2421.6497	961.55	76.05
969.6904	2423.0304	958.15	76.1
969.8201	2424.4104	958.05	73.55
969.9499	2425.7896	963.45	73.15
970.0796	2427.1682	959.05	75
970.2093	2428.546	961.4	77.15
970.3389	2429.9232	959.3	73.4
970.4685	2431.2996	957.95	74.85
970.5981	2432.6753	956.2	70.6
970.7277	2434.0503	957.2	72.05
970.8572	2435.4246	955.85	73.15
970.9867	2436.7982	956.75	71.5
971.1161	2438.1711	955.15	72.2
971.2456	2439.5433	956.25	69.2
971.375	2440.9148	958.05	74.85
971.5043	2442.2856	953.9	69.05
971.6336	2443.6557	960.75	73.45
971.7629	2445.025	954	71.8
971.8922	2446.3937	957.85	71.4
972.0214	2447.7617	953	68.05
972.1506	2449.1289	955.6	70.25
972.2798	2450.4955	960.55	72.7
972.4089	2451.8613	954	70.55
972.538	2453.2265	951.7	69.25
972.6671	2454.5909	953.85	69.05
972.7961	2455.9546	954.35	70.35
972.9251	2457.3177	952.9	70.1
973.0541	2458.68	955	71.2
973.1831	2460.0416	951.3	67.45
973.312	2461.4025	952.9	67.25
973.4408	2462.7627	966.05	70.45
973.5697	2464.1222	948.95	68.4
973.6985	2465.4811	953.3	70.35
973.8273	2466.8392	952.9	70.5
973.956	2468.1966	949.55	63.45
974.0847	2469.5533	951.6	65.2
974.2134	2470.9093	952.55	67.35
974.3421	2472.2645	953.7	68.85
974.4707	2473.6191	949.05	66.25
974.5993	2474.973	951.1	67.4
974.7278	2476.3262	953.3	66.6
974.8563	2477.6787	950.5	67.3
974.9848	2479.0305	948.15	66.25
975.1132	2480.3816	951.45	65.5
975.2417	2481.7319	951.65	67.95
975.37	2483.0816	952.05	66.4
975.4984	2484.4306	952.5	68.75
975.6267	2485.7789	949.45	69.05
975.755	2487.1264	947.6	63.3
975.8833	2488.4733	948	67.15
976.0115	2489.8195	964.2	64.2
976.1397	2491.165	951.35	63.75
976.2678	2492.5097	950.85	65.95
976.3959	2493.8538	946.3	65.45
976.524	2495.1972	947.3	62.65
976.6521	2496.5398	950.35	65.95
976.7801	2497.8818	948.55	64.45
976.9081	2499.2231	950.25	67.1
977.036	2500.5637	950.3	64.9
977.164	2501.9035	947.45	62.25
977.2918	2503.2427	951.1	63.05
977.4197	2504.5812	945.7	62.6
977.5475	2505.919	950.9	66.65
977.6753	2507.256	947.25	62.1
977.8031	2508.5924	946.05	61.4
977.9308	2509.9281	955.6	65.6
978.0585	2511.2631	945.9	64.25
978.1861	2512.5974	947.4	65.15
978.3137	2513.9309	945.85	62.85
978.4413	2515.2638	974.5	63.15
978.5689	2516.596	945.6	61.35
978.6964	2517.9275	948.45	63.3
978.8239	2519.2583	947.55	64.5
978.9513	2520.5884	948.95	64.55
979.0788	2521.9178	943.9	59.95
979.2062	2523.2465	944.05	61.95
979.3335	2524.5745	943.9	61.85
979.4608	2525.9018	945.75	62.8
979.5881	2527.2284	940.9	58.8
979.7154	2528.5543	940.85	58.7
979.8426	2529.8796	943.95	61.1
979.9698	2531.2041	941.1	57.65
980.0969	2532.5279	942.25	62.15
980.224	2533.851	943.35	58.5
980.3511	2535.1735	943.9	63.7
980.4781	2536.4952	943.1	58.35
980.6052	2537.8163	942.7	56.05
980.7321	2539.1366	941.6	58.75
980.8591	2540.4562	942	59
980.986	2541.7752	942.9	60.65
981.1129	2543.0935	944.7	60.15
981.2397	2544.411	940.1	58.05
981.3665	2545.7279	942.3	58.65
981.4933	2547.0441	941.9	60.05
981.62	2548.3596	945.55	60.15
981.7467	2549.6744	939.1	55.45
981.8734	2550.9885	948.3	57.55
982.0001	2552.3019	939.7	57.2
982.1267	2553.6146	942.7	58.55
982.2532	2554.9266	942	57.85
982.3798	2556.2379	942.2	58.35
982.5063	2557.5485	936.25	54.95
982.6327	2558.8585	946.95	57.75
982.7592	2560.1677	944.2	57.1
982.8856	2561.4762	939.05	57.85
983.0119	2562.7841	943.05	57.7
983.1383	2564.0913	939.6	57.5
983.2646	2565.3977	940.15	56.45
983.3908	2566.7035	942.45	59.85
983.517	2568.0086	941.4	58
983.6432	2569.313	944.9	61.4
983.7694	2570.6167	944.25	58.1
983.8955	2571.9197	939.75	59.9
984.0216	2573.222	942.65	57.15
984.1476	2574.5236	939.7	57.6
984.2737	2575.8246	942	56.25
984.3996	2577.1248	942.8	58.15
984.5256	2578.4244	941	60.4
984.6515	2579.7232	940.4	58.05
984.7774	2581.0214	964.65	54.8
984.9032	2582.3189	938.9	56
985.029	2583.6157	941.35	54.95
985.1548	2584.9118	939.15	55.05
985.2806	2586.2072	939.7	55.9
985.4063	2587.5019	940.75	57.15
985.5319	2588.7959	938.3	56.5
985.6576	2590.0893	941	54.4
985.7832	2591.3819	942.9	59.3
985.9087	2592.6739	935	51.75
986.0343	2593.9652	940.6	54.7
986.1597	2595.2557	941.65	59.3
986.2852	2596.5456	940.75	54.3
986.4106	2597.8348	940	60.65
986.536	2599.1234	935.05	52.3
986.6614	2600.4112	939.6	58.05
986.7867	2601.6983	941.5	55.4
986.912	2602.9848	937.35	54.15
987.0372	2604.2705	947.35	58.8
987.1624	2605.5556	938.5	56.2
987.2876	2606.84	939.3	56.35
987.4128	2608.1237	939.55	56.55
987.5379	2609.4067	936.7	53.95
987.6629	2610.689	946.15	55.55
987.788	2611.9707	938.45	52.7
987.913	2613.2516	939.95	51.2
988.0379	2614.5319	935.3	54.4
988.1629	2615.8115	937.7	53.9
988.2878	2617.0903	935.1	51.95
988.4126	2618.3685	938.25	56.65
988.5375	2619.6461	931.8	49.2
988.6622	2620.9229	934.35	51.95
988.787	2622.199	935.15	52.7
988.9117	2623.4745	934.85	52.85
989.0364	2624.7493	932.2	49.1
989.161	2626.0234	931.8	52.3
989.2857	2627.2968	933.1	49.55
989.4102	2628.5695	932.3	48
989.5348	2629.8415	933.65	52.6
989.6593	2631.1128	935.15	51.9
989.7837	2632.3835	932.35	51.1
989.9082	2633.6535	934.25	51.8
990.0326	2634.9228	930.2	48.55
990.1569	2636.1914	933.75	53
990.2812	2637.4593	932.9	47.95
990.4055	2638.7265	934.3	51.35
990.5298	2639.9931	929.35	47.9
990.654	2641.259	934.6	51.3
990.7782	2642.5242	935.2	52.15
990.9023	2643.7887	932.4	51.45
991.0264	2645.0525	931.1	49.15
991.1505	2646.3156	934.15	51.3
991.2745	2647.5781	930.55	48.95
991.3985	2648.8398	931.05	49.05
991.5225	2650.1009	938.6	46.75
991.6464	2651.3613	928.35	45.2
991.7703	2652.6211	930.55	48.65
991.8942	2653.8801	929.7	49.2
992.018	2655.1385	933.25	48.15
992.1418	2656.3961	929.3	48.95
992.2655	2657.6531	929.6	45.8
992.3892	2658.9094	929.35	48.15
992.5129	2660.1651	927.9	46.85
992.6366	2661.42	928.15	44.75
992.7602	2662.6743	929.3	47.05
992.8837	2663.9279	927.7	43.85
993.0073	2665.1808	931.75	48.7
993.1307	2666.433	930.35	47.3
993.2542	2667.6846	930.4	48.1
993.3776	2668.9354	932.7	48.7
993.501	2670.1856	931.95	49.1
993.6244	2671.4351	928.6	47.1
993.7477	2672.6839	932.65	48.4
993.8709	2673.9321	928.75	46.75
993.9942	2675.1795	932.65	52.05
994.1174	2676.4263	930.55	49.2
994.2405	2677.6724	931.15	49.7
994.3637	2678.9179	930.6	47.95
994.4868	2680.1626	930.15	47.95
994.6098	2681.4067	932	51.05
994.7328	2682.6501	928.15	46.1
994.8558	2683.8928	930.45	49.15
994.9788	2685.1348	928.35	48.9
995.1017	2686.3761	927.65	46.25
995.2245	2687.6168	928.95	47.95
995.3474	2688.8568	924.85	43.65
995.4702	2690.0961	923	42.25
995.5929	2691.3348	928.6	46.95
995.7156	2692.5727	927.35	45.7
995.8383	2693.81	926.8	44.65
995.961	2695.0466	926.1	47.4
996.0836	2696.2826	927.4	42.4
996.2062	2697.5178	945.9	42.9
996.3287	2698.7524	924.15	41.3
996.4512	2699.9863	927.9	45.2
996.5737	2701.2195	926.9	47.45
996.6961	2702.452	928.3	46.1
996.8185	2703.6839	930	47.95
996.9408	2704.9151	925.8	46.1
997.0631	2706.1456	926.45	43.6
997.1854	2707.3755	927.45	45.85
997.3077	2708.6046	932.55	49.1
997.4299	2709.8331	928.1	48.35
997.552	2711.0609	928.1	44.8
997.6742	2712.2881	928.25	46.2
997.7963	2713.5145	930.9	46.7
997.9183	2714.7403	927.8	46.1
998.0403	2715.9654	931.4	49.5
998.1623	2717.1899	943.55	48.7
998.2842	2718.4136	930.8	51.05
998.4062	2719.6367	931.6	50.8
998.528	2720.8591	939.95	52.95
998.6498	2722.0809	935.2	54.3
998.7716	2723.3019	936.15	53.05
998.8934	2724.5223	933.3	50.65
999.0151	2725.7421	932.75	50.15
999.1368	2726.9611	936.15	52
999.2584	2728.1795	938.15	51.3
999.38	2729.3972	933.65	54.95
999.5016	2730.6142	937	48.55
999.6231	2731.8306	930	46.4
999.7446	2733.0462	930.05	46.05
999.8661	2734.2612	930.55	46.9
999.9875	2735.4756	930.2	44.65
1000.1089	2736.6892	925.4	43.4
1000.2302	2737.9022	925.8	46.2
1000.3515	2739.1145	926.4	45.05
1000.4728	2740.3262	931.2	42.4
1000.594	2741.5372	922.7	43.2
1000.7152	2742.7475	923.8	42.45
1000.8363	2743.9571	922.5	39
1000.9575	2745.1661	926.65	40.4
1001.0785	2746.3744	923.45	40.4
1001.1996	2747.582	918.45	36.3
1001.3206	2748.7889	925.7	42.7
1001.4415	2749.9952	918.75	39.05
1001.5625	2751.2008	919.95	36.65
1001.6833	2752.4057	921.95	41.1
1001.8042	2753.61	918.9	38.35
1001.925	2754.8136	921.5	37.85
1002.0458	2756.0165	918.45	36.35
1002.1665	2757.2188	918.5	39.6
1002.2872	2758.4204	918.35	36.9
1002.4078	2759.6213	920.8	38.65
1002.5285	2760.8215	924.55	39.35
1002.649	2762.0211	921.05	37.7
1002.7696	2763.22	920.1	38.5
1002.8901	2764.4182	919.3	36.5
1003.0106	2765.6158	916	35.15
1003.131	2766.8127	919.8	40.45
1003.2514	2768.009	919.3	38.55
1003.3717	2769.2045	919.25	39.45
1003.492	2770.3994	922.85	40.6
1003.6123	2771.5936	917.1	37.65
1003.7325	2772.7872	916.05	37.9
1003.8527	2773.9801	916.8	34.15
1003.9729	2775.1723	931.55	34.5
1004.093	2776.3639	913.5	34.4
1004.2131	2777.5548	918.35	35.9
1004.3331	2778.745	916.65	35.8
1004.4531	2779.9346	915.8	35.2
1004.5731	2781.1235	915.15	35.05
1004.693	2782.3117	914.15	35.15
1004.8129	2783.4992	913.95	33.3
1004.9328	2784.6861	914.95	34.75
1005.0526	2785.8723	918.3	37.45
1005.1723	2787.0579	917.25	36.6
1005.2921	2788.2428	917.15	39.65
1005.4118	2789.427	915.3	34.35
1005.5314	2790.6106	916.2	35.4
1005.651	2791.7935	914.95	34.15
1005.7706	2792.9757	915.45	35.65
1005.8902	2794.1573	918.5	34.9
1006.0097	2795.3382	915.6	37.95
1006.1291	2796.5184	913.9	35.05
1006.2485	2797.698	920.5	39.35
1006.3679	2798.8769	915.6	34
1006.4873	2800.0551	919.7	38.45
1006.6066	2801.2327	919.65	37
1006.7258	2802.4096	916.65	37.2
1006.8451	2803.5859	920.05	38.6
1006.9642	2804.7615	917.9	36.9
1007.0834	2805.9364	917.45	38.2
1007.2025	2807.1106	919.3	40.1
1007.3216	2808.2842	920.35	37.9
1007.4406	2809.4572	920.4	39.85
1007.5596	2810.6294	925.6	43.8
1007.6785	2811.801	923.2	45.85
1007.7975	2812.972	920.65	40.65
1007.9163	2814.1423	926.5	46.15
1008.0352	2815.3119	929	47.7
1008.154	2816.4808	930.6	51.85
1008.2727	2817.6491	936.7	55.35
1008.3914	2818.8167	935.35	57.1
1008.5101	2819.9837	946.4	61.45
1008.6288	2821.15	945.15	65.6
1008.7474	2822.3157	947.1	67
1008.8659	2823.4807	952.55	73.6
1008.9844	2824.645	962.55	79.4
1009.1029	2825.8086	962.35	84.55
1009.2214	2826.9716	972.05	94.05
1009.3398	2828.134	973.75	94.15
1009.4581	2829.2957	984	104.35
1009.5764	2830.4567	983.9	105.55
1009.6947	2831.617	992.15	112.5
1009.813	2832.7767	992.75	113.3
1009.9312	2833.9358	991.8	112.45
1010.0493	2835.0941	992.45	109.75
1010.1675	2836.2519	989.5	111.45
1010.2855	2837.4089	984.55	104.8
1010.4036	2838.5653	983.7	103.6
1010.5216	2839.7211	978.05	99.8
1010.6396	2840.8761	979.2	98.5
1010.7575	2842.0306	976.1	97.85
1010.8754	2843.1843	972.45	92.4
1010.9932	2844.3374	979.75	101.7
1011.111	2845.4899	978.65	97.9
1011.2288	2846.6417	978.25	98.25
1011.3465	2847.7928	982.05	103.3
1011.4642	2848.9433	982.1	103.3
1011.5818	2850.0931	981	101.65
1011.6995	2851.2422	989.1	107.65
1011.817	2852.3907	989.7	109.35
1011.9345	2853.5385	989.45	108.15
1012.052	2854.6857	1017.35	111
1012.1695	2855.8323	991.7	111.8
1012.2869	2856.9781	993.85	114.95
1012.4042	2858.1233	993.75	114.85
1012.5216	2859.2679	997.3	117.8
1012.6389	2860.4118	1001.6	119.9
1012.7561	2861.555	1007.65	124.45
1012.8733	2862.6976	1007.9	126.05
1012.9905	2863.8395	1007.25	128.7
1013.1076	2864.9808	1007.8	128.9
1013.2247	2866.1214	1010.7	133
1013.3417	2867.2614	1006.7	126.2
1013.4587	2868.4007	1013.1	131.05
1013.5757	2869.5393	1008.25	127.1
1013.6926	2870.6773	1020.85	139.75
1013.8095	2871.8146	1019.3	135.65
1013.9263	2872.9513	1020.45	138.8
1014.0431	2874.0874	1018.15	137.35
1014.1599	2875.2227	1021	139.85
1014.2766	2876.3574	1020.4	140.8
1014.3933	2877.4915	1024.2	143.55
1014.51	2878.6249	1021.8	141.95
1014.6266	2879.7577	1024.7	143.5
1014.7431	2880.8898	1037.45	147.8
1014.8596	2882.0212	1031.55	153.35
1014.9761	2883.152	1030.55	150.55
1015.0925	2884.2821	1028.7	149.15
1015.2089	2885.4116	1031.05	152.35
1015.3253	2886.5405	1032.2	150.75
1015.4416	2887.6686	1036.6	153.8
1015.5579	2888.7962	1031.8	154.7
1015.6741	2889.923	1028.65	149.15
1015.7903	2891.0493	1038.95	159.8
1015.9065	2892.1748	1031.8	150.35
1016.0226	2893.2997	1034.35	156.35
1016.1387	2894.424	1032.45	154.75
1016.2547	2895.5476	1033.4	155.35
1016.3707	2896.6706	1035.95	156.1
1016.4866	2897.7929	1033.05	151.85
1016.6025	2898.9145	1035.95	155.75
1016.7184	2900.0355	1037.75	158.8
1016.8342	2901.1559	1040.85	161.8
1016.95	2902.2756	1041.35	159.6
1017.0658	2903.3946	1035.25	157.85
1017.1815	2904.513	1036.95	154.3
1017.2971	2905.6308	1033.55	155.45
1017.4127	2906.7479	1033.35	155.05
1017.5283	2907.8643	1038.75	156.95
1017.6439	2908.9801	1031.1	151.95
1017.7594	2910.0953	1036.45	157.5
1017.8748	2911.2098	1035.8	151.75
1017.9902	2912.3236	1042.95	156.95
1018.1056	2913.4368	1039.2	157.3
1018.2209	2914.5494	1035.45	156.5
1018.3362	2915.6613	1037.3	152.5
1018.4515	2916.7725	1027	147.45
1018.5667	2917.8831	1026.5	146.9
1018.6819	2918.9931	1025.65	145
1018.797	2920.1024	1027	147.8
1018.9121	2921.211	1024.3	146.3
1019.0271	2922.319	1019.15	140.25
1019.1421	2923.4264	1019.25	141.4
1019.2571	2924.5331	1016	135.8
1019.372	2925.6391	1018.95	138.85
1019.4869	2926.7445	1013.85	136.1
1019.6017	2927.8493	1019.95	142.15
1019.7165	2928.9534	1013.45	133.9
1019.8313	2930.0569	1021.6	140.95
1019.946	2931.1597	1020.55	139.9
1020.0606	2932.2619	1020.1	140.7
1020.1753	2933.3634	1023.75	147.25
1020.2899	2934.4643	1031.3	146.35
1020.4044	2935.5645	1028.4	143.8
1020.5189	2936.6641	1029.5	146.4
1020.6334	2937.763	1023.65	146.2
1020.7478	2938.8613	1024.1	143.15
1020.8622	2939.959	1028.55	142.05
1020.9765	2941.056	1019.45	140.65
1021.0908	2942.1523	1017.85	140.05
1021.2051	2943.248	1006.75	127.45
1021.3193	2944.3431	997.65	119.6
1021.4334	2945.4375	995.35	114.5
1021.5476	2946.5313	988.15	109.15
1021.6617	2947.6244	984.05	105.4
1021.7757	2948.7169	979.45	99.3
1021.8897	2949.8087	972.7	94.05
1022.0037	2950.8999	966.15	87.2
1022.1176	2951.9904	962.6	83.7
1022.2315	2953.0803	961.05	81.7
1022.3453	2954.1696	957.5	79
1022.4591	2955.2582	954.45	77.5
1022.5728	2956.3462	948.05	69.8
1022.6865	2957.4335	949.7	70.6
1022.8002	2958.5202	951.3	69.55
1022.9138	2959.6062	953.2	75.2
1023.0274	2960.6916	951.65	72.7
1023.141	2961.7764	952.6	72.1
1023.2545	2962.8605	947.75	68.05
1023.3679	2963.9439	948.65	71.45
1023.4813	2965.0267	950.35	69.65
1023.5947	2966.1089	968.95	65.75
1023.708	2967.1905	949.7	73.9
1023.8213	2968.2714	947.55	69.75
1023.9346	2969.3516	947.5	70.9
1024.0478	2970.4312	953.7	67.55
1024.1609	2971.5102	945.55	67.3
1024.274	2972.5885	947.85	69.9
1024.3871	2973.6662	952.7	69.6
1024.5002	2974.7432	949.6	70.25
1024.6132	2975.8196	948.45	69.5
1024.7261	2976.8954	945.25	67.2
1024.839	2977.9705	948.65	70.85
1024.9519	2979.045	945.4	68.25
1025.0647	2980.1188	945.05	66.6
1025.1775	2981.192	944.65	66.75
1025.2902	2982.2645	945.1	66.1
1025.4029	2983.3364	941.2	63.35
1025.5156	2984.4077	940.2	59.25
1025.6282	2985.4783	949	65.7
1025.7407	2986.5483	936.9	58.75
1025.8532	2987.6177	935.45	58.5
1025.9657	2988.6864	935	55.4
1026.0782	2989.7545	934.45	53.6
1026.1906	2990.8219	930.75	53.75
1026.3029	2991.8887	931	49.9
1026.4152	2992.9548	925.15	45.3
1026.5275	2994.0204	921.15	42.4
1026.6397	2995.0852	921.5	44
1026.7519	2996.1495	918.75	38.2
1026.864	2997.2131	916.65	39.45
1026.9761	2998.276	914.4	34.7
1027.0882	2999.3383	915.2	35.9
1027.2002	3000.4	912.15	32.4
1027.3122	3001.4611	909.85	31.5
1027.4241	3002.5215	911.3	33.6
1027.536	3003.5812	908.35	32.65
1027.6478	3004.6404	909.85	31.2
1027.7596	3005.6989	909.3	29
1027.8714	3006.7567	906.85	26.75
1027.9831	3007.8139	933.85	29.9
1028.0947	3008.8705	906.2	27.1
1028.2064	3009.9264	906.45	24.6
1028.3179	3010.9818	904.85	26.65
1028.4295	3012.0364	906.2	26.9
1028.541	3013.0905	903.05	22.95
1028.6524	3014.1439	900.1	24.2
1028.7638	3015.1966	903.35	24.5
1028.8752	3016.2487	902.7	25.7
1028.9865	3017.3002	906.5	25.65
1029.0978	3018.3511	900.1	24.7
1029.209	3019.4013	899.2	19.1
1029.3202	3020.4509	900.6	25.6
1029.4314	3021.4998	901.2	21.9
1029.5425	3022.5481	902.4	22.15
1029.6535	3023.5958	900.9	22.15
1029.7645	3024.6428	903.65	24.15
1029.8755	3025.6892	900.7	23.85
1029.9864	3026.735	901.05	23.55
1030.0973	3027.7802	899.6	20.75
1030.2082	3028.8247	902.25	24.8
1030.319	3029.8685	902.7	23.7
1030.4297	3030.9118	900	20.15
1030.5404	3031.9544	900.4	22.8
1030.6511	3032.9963	900.7	19.8
1030.7617	3034.0376	900.9	21.95
1030.8723	3035.0783	901.45	20.7
1030.9829	3036.1184	901.1	21.8
1031.0934	3037.1578	899.7	24.65
1031.2038	3038.1966	901.75	22.75
1031.3142	3039.2348	900.75	24.05
1031.4246	3040.2723	907.9	22.75
1031.5349	3041.3092	902.15	25.35
1031.6452	3042.3455	900.3	20.45
1031.7554	3043.3811	902.3	22.7
1031.8656	3044.4161	901.5	23.3
1031.9758	3045.4505	897.7	21.25
1032.0859	3046.4842	902.35	23.85
1032.1959	3047.5173	899.25	23.45
1032.3059	3048.5498	898.15	21.35
1032.4159	3049.5816	902.35	23.4
1032.5258	3050.6128	900.65	20.3
1032.6357	3051.6434	901.8	22.6
1032.7455	3052.6734	901.75	25.25
1032.8553	3053.7027	902.35	24.15
1032.9651	3054.7314	900.25	21.5
1033.0748	3055.7594	902.8	25.45
1033.1845	3056.7868	904.1	24.4
1033.2941	3057.8136	901.3	25.35
1033.4037	3058.8398	902.85	26.1
1033.5132	3059.8653	899.55	20.7
1033.6227	3060.8902	904.05	26.55
1033.7321	3061.9145	900.5	22.95
1033.8415	3062.9381	900.8	21.4
1033.9509	3063.9612	917.45	22.25
1034.0602	3064.9835	904.25	25.35
1034.1694	3066.0053	902.2	22.2
1034.2787	3067.0264	901.05	22.15
1034.3878	3068.0469	898.7	20.55
1034.497	3069.0668	906.45	25.8
1034.6061	3070.086	900.6	24
1034.7151	3071.1046	898.95	21.15
1034.8241	3072.1226	904.3	26.25
1034.9331	3073.1399	901.15	24
1035.042	3074.1567	899.35	19.85
1035.1508	3075.1727	901	21.5
1035.2597	3076.1882	899.15	24.25
1035.3684	3077.203	898.3	20.95
1035.4772	3078.2173	899.15	18.45
1035.5859	3079.2308	900.8	19.45
1035.6945	3080.2438	900.15	19.4
1035.8031	3081.2561	898.2	20.1
1035.9117	3082.2678	895	18.1
1036.0202	3083.2789	895.95	16.55
1036.1286	3084.2893	896.85	19.65
1036.2371	3085.2991	895.55	18.55
1036.3454	3086.3083	899.95	18
1036.4538	3087.3169	897	17.55
1036.562	3088.3248	895.8	16.95
1036.6703	3089.3321	896.25	17
1036.7785	3090.3388	892.95	16.9
1036.8866	3091.3449	893.95	16.05
1036.9948	3092.3503	896.65	16.35
1037.1028	3093.3551	892.45	14.65
1037.2108	3094.3593	891.85	15.4
1037.3188	3095.3629	892.9	16.65
1037.4267	3096.3658	894.95	13.9
1037.5346	3097.3681	895.35	18.4
1037.6425	3098.3698	895.95	16.75
1037.7503	3099.3708	891.95	12.4
1037.858	3100.3713	891.05	14.7
1037.9657	3101.3711	892	13.7
1038.0734	3102.3702	1030.6	15.25
1038.181	3103.3688	894.95	14.95
1038.2886	3104.3667	889.9	12.6
1038.3961	3105.364	891.35	13.1
1038.5036	3106.3607	893.25	14.1
1038.611	3107.3568	894.4	16.05
1038.7184	3108.3522	890.95	13.35
1038.8257	3109.347	890.3	11.7
1038.933	3110.3412	895.4	14.15
1039.0403	3111.3348	890.4	15
1039.1475	3112.3277	890.8	12.7
1039.2547	3113.32	888.55	12.8
1039.3618	3114.3117	891	11.6
1039.4689	3115.3028	889.15	12.6
1039.5759	3116.2932	891.15	12.55
1039.6829	3117.2831	895.75	11.15
1039.7898	3118.2723	890.35	14.15
1039.8967	3119.2608	887.85	9.8
1040.0035	3120.2488	888.4	11.6
1040.1103	3121.2361	886.5	7.9
1040.2171	3122.2229	888.85	11.5
1040.3238	3123.209	889.4	10.2
1040.4305	3124.1944	887.2	11.55
1040.5371	3125.1793	889.3	9.35
1040.6437	3126.1635	890	13.05
1040.7502	3127.1471	888.25	12.55
1040.8567	3128.1301	888.85	12.4
1040.9631	3129.1125	888.45	12.95
1041.0695	3130.0942	886.45	8.4
1041.1759	3131.0753	896.15	10.1
1041.2822	3132.0558	893.1	12.5
1041.3884	3133.0357	888.35	9.45
1041.4946	3134.015	887.75	9.75
1041.6008	3134.9936	889.15	10.95
1041.7069	3135.9716	907.35	8.55
1041.813	3136.949	886.5	11.45
1041.919	3137.9258	904.75	8.25
1042.025	3138.902	893.6	11.1
1042.1309	3139.8775	888.65	12.1
1042.2368	3140.8524	885.85	7.65
1042.3427	3141.8267	887.2	7.8
1042.4485	3142.8004	888.4	10.25
1042.5542	3143.7735	894.35	11.7
1042.6599	3144.7459	886.4	7.35
1042.7656	3145.7178	888.9	11.2
1042.8712	3146.689	885.15	9.8
1042.9768	3147.6596	889.7	10.3
1043.0823	3148.6295	885.8	8.6
1043.1878	3149.5989	886.85	8.55
1043.2932	3150.5676	884.65	7.4
1043.3986	3151.5357	885.1	9.5
1043.5039	3152.5032	885.05	8.3
1043.6092	3153.4701	888	10.45
1043.7145	3154.4364	887.15	8.1
1043.8197	3155.402	885.9	8.6
1043.9248	3156.367	886.75	6.6
1044.03	3157.3315	922.15	7.65
1044.135	3158.2952	887.25	10.85
1044.24	3159.2584	884.4	8.25
1044.345	3160.221	888.55	9.25
1044.4499	3161.1829	883.05	6.3
1044.5548	3162.1442	884.55	7.1
1044.6596	3163.105	883.55	5.65
1044.7644	3164.065	885.75	10
1044.8692	3165.0245	886.75	5.65
1044.9739	3165.9834	885.25	8.45
1045.0785	3166.9416	886.75	7.7
1045.1831	3167.8993	886.75	9
1045.2877	3168.8563	885.95	9.65
1045.3922	3169.8127	887.2	11.35
1045.4966	3170.7684	884.9	7.3
1045.6011	3171.7236	886.2	8.15
1045.7054	3172.6782	886.9	7.75
1045.8098	3173.6321	884.45	5.6
1045.914	3174.5854	890	8.2
1046.0183	3175.5381	884.55	6.65
1046.1224	3176.4902	885.85	10.4
1046.2266	3177.4417	884.55	9.75
1046.3307	3178.3926	883.1	5.7
1046.4347	3179.3428	885.75	8.6
1046.5387	3180.2924	883.85	6.5
1046.6427	3181.2415	885.75	9.05
1046.7466	3182.1899	886.15	8.55
1046.8504	3183.1377	883	5.35
1046.9542	3184.0848	890.3	10.8
1047.058	3185.0314	883.35	5.05
1047.1617	3185.9773	885.05	8.35
1047.2654	3186.9227	885.3	7.25
1047.369	3187.8674	882.9	4.65
1047.4726	3188.8115	888.8	8.45
1047.5761	3189.755	883.75	7.7
1047.6796	3190.6979	884.65	5.75
1047.783	3191.6402	883	4.95
1047.8864	3192.5818	883.35	4.85
1047.9898	3193.5229	903.25	6
1048.0931	3194.4633	885.1	6.9
1048.1963	3195.4031	883.1	3.9
1048.2995	3196.3423	882.3	5
1048.4027	3197.2809	885.2	7.9
1048.5058	3198.2189	883.55	8.2
1048.6089	3199.1563	900.25	6.95
1048.7119	3200.0931	882.35	7.6
1048.8148	3201.0292	884.3	7.9
1048.9178	3201.9648	883.65	4.55
1049.0206	3202.8997	887	8.25
1049.1235	3203.834	884.5	7.15
1049.2262	3204.7677	881.9	4.55
1049.329	3205.7008	886.5	6.45
1049.4317	3206.6333	880.55	5.5
1049.5343	3207.5652	885.75	7.35
1049.6369	3208.4964	884.15	6
1049.7394	3209.4271	883.55	7.75
1049.8419	3210.3571	881.55	2.65
1049.9444	3211.2865	883	5.5
1050.0468	3212.2154	884.1	5.15
1050.1491	3213.1436	887.55	9.3
1050.2514	3214.0712	889.25	5.35
1050.3537	3214.9982	886	9
1050.4559	3215.9246	882.5	3.7
1050.5581	3216.8503	882.8	6.4
1050.6602	3217.7755	882.15	4.2
1050.7623	3218.7001	882.05	5.8
1050.8643	3219.624	881.35	4.85
1050.9663	3220.5473	884.45	4.7
1051.0682	3221.4701	884.2	7.7
1051.1701	3222.3922	884.5	7
1051.2719	3223.3137	884.3	5.45
1051.3737	3224.2346	883.65	6.4
1051.4754	3225.1549	882.8	7.85
1051.5771	3226.0746	881.55	6.05
1051.6788	3226.9937	884.75	6.1
1051.7804	3227.9121	882.55	5.85
1051.8819	3228.83	880.85	2.85
1051.9834	3229.7473	883.55	5.35
1052.0849	3230.6639	882.6	4.85
1052.1863	3231.5799	882	5.95
1052.2876	3232.4954	882.8	4.4
1052.3889	3233.4102	881.8	5.8
1052.4902	3234.3244	882.05	4.6
1052.5914	3235.238	882.35	5
1052.6926	3236.151	904.4	4.05
1052.7937	3237.0634	882.1	5.55
1052.8948	3237.9752	880.65	3.5
1052.9958	3238.8864	882.35	3.4
1053.0968	3239.797	882.9	6.3
1053.1977	3240.7069	883.95	6.55
1053.2986	3241.6163	884.4	5.65
1053.3994	3242.5251	882.75	5.25
1053.5002	3243.4332	881.15	3.9
1053.6009	3244.3408	884.2	6.75
1053.7016	3245.2477	881.15	3.5
1053.8022	3246.154	880.15	1.5
1053.9028	3247.0598	880.75	4.45
1054.0034	3247.9649	882.6	4.6
1054.1039	3248.8694	881.2	5.4
1054.2043	3249.7733	881.4	5.25
1054.3047	3250.6766	881.75	5.75
1054.4051	3251.5793	883.5	5.9
1054.5054	3252.4814	881.55	4.95
1054.6056	3253.3829	881.35	3.7
1054.7058	3254.2838	879.3	2.85
1054.806	3255.1841	880.75	3
1054.9061	3256.0838	879.9	4.25
1055.0061	3256.9829	879.65	4.35
1055.1062	3257.8814	882.95	5.3
1055.2061	3258.7792	883	2.8
1055.306	3259.6765	883.55	6.15
1055.4059	3260.5731	880.5	3.6
1055.5057	3261.4692	881.5	3.85
1055.6055	3262.3647	881.35	1.6
1055.7052	3263.2595	880.65	3.85
1055.8049	3264.1538	880.05	4.1
1055.9045	3265.0474	881.65	3.55
1056.0041	3265.9404	878.4	0.9
1056.1036	3266.8329	880.45	4.6
1056.2031	3267.7247	890.95	5.15
1056.3025	3268.616	877.85	3.95
1056.4019	3269.5066	881.5	4.05
1056.5013	3270.3966	882.1	2
1056.6005	3271.286	878.9	3.45
