Software Version:	3.9.2.0
Unit SN:	10000200
Spectrometer SN:	6960
Date:	3/8/2024 12:51:02 PM
Data Line Index:	25
Spectral Points:	2048
Integration time (ms):	125
Averages:	20
Delay (ms):	30000
Sequence Number:	1
Processing:	dark subtract
Laser Power (mW):	305
Laser Current (mA):	822
Laser Diode Temp (C):	25
Laser Case Temp (C):	26.1
System Temp (C):	26.1
Spectrometer Temp (C):	24
CCD Temp (C):	0.002
Secondary Temp (C):	20.008
Heatsink Temp (C):	20.507
CCDPCB Temp (C):	35.962
SecondaryPCB Temp (C):	31.049

Wavelength	RamanShift	Raw Counts	Dark Subtracted
787.061	30.1047	451.65	44
787.2016	32.3739	454.9	50.5
787.3422	34.6426	455.7	47.95
787.4828	36.9109	463.25	53.15
787.6235	39.1787	469.85	56.05
787.7642	41.4461	478.55	59.35
787.9049	43.7131	491.15	70.3
788.0456	45.9796	497.9	72.95
788.1863	48.2456	504.5	78.3
788.3271	50.5112	513.05	80.7
788.4679	52.7764	524.25	88.15
788.6087	55.0411	531.55	91.85
788.7496	57.3054	547.2	100.45
788.8904	59.5692	556.1	108.75
789.0313	61.8326	564.65	115.4
789.1722	64.0955	575.7	122.15
789.3132	66.3579	589.4	129.65
789.4541	68.6199	611.05	147.55
789.5951	70.8815	642.1	175.15
789.7361	73.1426	727.7	257
789.8771	75.4032	926.4	451.2
790.0181	77.6634	1438.85	959.95
790.1592	79.9231	2619.2	2129.9
790.3003	82.1824	5165.15	4658.35
790.4414	84.4412	9734.15	9186.85
790.5825	86.6995	15940.15	15345.05
790.7237	88.9574	21944.05	21308.9
790.8648	91.2148	26031.7	25371.5
791.006	93.4717	27796.05	27119.6
791.1472	95.7282	28011.55	27328.5
791.2885	97.9842	27717.1	27027.45
791.4297	100.2398	26936.15	26243.9
791.571	102.4949	26093.75	25395.05
791.7123	104.7495	25133.7	24435.85
791.8536	107.0036	24200.4	23503.55
791.9949	109.2573	23349.4	22651.2
792.1363	111.5105	22577.55	21877.3
792.2777	113.7632	21867.4	21163.6
792.4191	116.0154	21324.7	20610.95
792.5605	118.2672	20867.45	20157.35
792.7019	120.5185	20434.95	19723.7
792.8434	122.7693	20108.1	19394.25
792.9849	125.0197	19826.65	19109.25
793.1264	127.2696	19541.9	18822.9
793.2679	129.519	19321.7	18595.4
793.4094	131.7679	19075.55	18345.35
793.551	134.0163	18772.7	18041.7
793.6926	136.2642	18429.05	17694.75
793.8342	138.5117	18091.1	17344.4
793.9758	140.7587	17693.8	16959.05
794.1175	143.0052	17342.65	16599
794.2591	145.2512	17005.15	16267.05
794.4008	147.4967	16684.9	15941.55
794.5425	149.7417	16461.15	15716.4
794.6842	151.9863	16324.2	15576.4
794.826	154.2304	16181.35	15425.35
794.9677	156.4739	16013.9	15253.5
795.1095	158.717	15907.5	15147.8
795.2513	160.9596	15708.9	14945.8
795.3931	163.2017	15510.3	14741.9
795.535	165.4433	15165.85	14396.25
795.6768	167.6844	14815.45	14046.65
795.8187	169.925	14509.25	13739.35
795.9606	172.1651	14160.45	13386.4
796.1025	174.4047	13876.85	13102.85
796.2445	176.6439	13636.6	12861.15
796.3864	178.8825	13385.2	12602.2
796.5284	181.1206	13257.55	12469.4
796.6704	183.3582	13124.55	12331.35
796.8124	185.5954	12999.75	12202.4
796.9544	187.832	12952.4	12159.25
797.0965	190.0681	12881.45	12080.1
797.2386	192.3037	12877.3	12073.95
797.3806	194.5388	12868.1	12062.85
797.5228	196.7734	12913.6	12097.6
797.6649	199.0075	12963.8	12153.5
797.807	201.2411	13088.45	12276.55
797.9492	203.4742	13154.4	12344.55
798.0914	205.7068	13314.7	12497.55
798.2336	207.9389	13436.25	12615.65
798.3758	210.1704	13603.95	12793
798.518	212.4015	13712.75	12911.15
798.6603	214.632	13843.5	13051.35
798.8025	216.862	14000.05	13209.95
798.9448	219.0915	14072.3	13273.95
799.0871	221.3205	14194.7	13395
799.2294	223.549	14310.2	13514.1
799.3718	225.777	14455.75	13662.1
799.5141	228.0044	14574.75	13770.85
799.6565	230.2314	14747.05	13949.4
799.7989	232.4578	14965.2	14160.25
799.9413	234.6837	15103.05	14293.75
800.0837	236.909	15238.55	14424.2
800.2262	239.1339	15227.5	14388.3
800.3687	241.3582	15136.35	14308.7
800.5111	243.582	14957.95	14093.7
800.6536	245.8053	14855.75	14014.5
800.7961	248.0281	14724.5	13885.95
800.9387	250.2503	14713.9	13875.7
801.0812	252.472	14723.55	13876.15
801.2238	254.6932	14812.25	13973.05
801.3664	256.9139	14907.45	14067.2
801.509	259.134	15092.25	14246.1
801.6516	261.3536	15263.05	14416.2
801.7942	263.5727	15532.3	14685.05
801.9369	265.7912	15768.05	14917.35
802.0795	268.0092	16051.5	15207.15
802.2222	270.2267	16170.7	15319.75
802.3649	272.4436	16301.55	15454.15
802.5076	274.6601	16306.6	15443.4
802.6504	276.8759	16222.45	15372.55
802.7931	279.0913	16118.7	15266.15
802.9359	281.3061	16020.6	15163.8
803.0787	283.5204	15959.85	15096.3
803.2215	285.7341	15944.75	15078.9
803.3643	287.9473	15991.35	15121.9
803.5071	290.16	16055.7	15187.35
803.6499	292.3721	16197.95	15339.05
803.7928	294.5837	16445.05	15584.55
803.9357	296.7947	16667.9	15804.5
804.0786	299.0052	16865.35	15997.3
804.2215	301.2152	16804.5	15940
804.3644	303.4246	16612.85	15755.45
804.5074	305.6334	16216.8	15356.95
804.6503	307.8418	15786.65	14922.5
804.7933	310.0495	15367.3	14502.25
804.9363	312.2568	14977.65	14109.4
805.0793	314.4635	14585.9	13717
805.2223	316.6696	14327.1	13455.55
805.3653	318.8752	14130.1	13247.55
805.5084	321.0802	14034.35	13160.5
805.6514	323.2847	14083.1	13203.35
805.7945	325.4887	14125.55	13246.9
805.9376	327.692	14091.45	13212.8
806.0807	329.8949	14056.55	13179.9
806.2238	332.0972	13855.95	12979.6
806.367	334.2989	13648.2	12765.05
806.5101	336.5001	13358.85	12474.65
806.6533	338.7007	13166.35	12282.55
806.7965	340.9008	12991.35	12105.4
806.9397	343.1003	12826.45	11939.45
807.0829	345.2992	12720.1	11834.25
807.2261	347.4976	12644.8	11757
807.3693	349.6955	12546.9	11650
807.5126	351.8927	12589.4	11695.3
807.6559	354.0895	12500.15	11595.25
807.7991	356.2856	12487.7	11591.2
807.9424	358.4812	12448.6	11553.25
808.0857	360.6763	12457.1	11558.65
808.2291	362.8707	12426.85	11530.25
808.3724	365.0646	12482	11583.75
808.5158	367.258	12522.65	11622.4
808.6591	369.4508	12582.7	11675.65
808.8025	371.643	12726.55	11817.7
808.9459	373.8346	12796.15	11890.25
809.0893	376.0257	12842.75	11932.2
809.2327	378.2162	12866.5	11962.3
809.3762	380.4062	12836.75	11931.95
809.5196	382.5956	12722.05	11814.65
809.6631	384.7844	12579.25	11682.65
809.8066	386.9726	12470.3	11574.15
809.9501	389.1603	12391.65	11493.7
810.0936	391.3474	12351.3	11430.95
810.2371	393.5339	12317.45	11418.3
810.3806	395.7199	12273.1	11370.25
810.5241	397.9052	12320.85	11415.95
810.6677	400.09	12362	11465.6
810.8113	402.2743	12519.65	11617.6
810.9548	404.4579	12645.2	11745.6
811.0984	406.641	12869.4	11969.7
811.2421	408.8235	13055.9	12149.6
811.3857	411.0054	13237.6	12334.65
811.5293	413.1868	13465.15	12553.6
811.673	415.3675	13563.95	12653.4
811.8166	417.5477	13582.95	12669.45
811.9603	419.7273	13560.45	12645.7
812.104	421.9064	13496.65	12578.35
812.2477	424.0848	13419.8	12508.25
812.3914	426.2627	13259.85	12345.2
812.5351	428.4399	13028.65	12114.05
812.6788	430.6166	12696.55	11777.3
812.8226	432.7928	12377.3	11456.45
812.9663	434.9683	12069.15	11156.3
813.1101	437.1432	11803.4	10887.15
813.2539	439.3176	11623.8	10715.1
813.3977	441.4914	11516.8	10613.15
813.5415	443.6645	11511.65	10603.5
813.6853	445.8371	11452.8	10537.85
813.8291	448.0091	11401.25	10485.85
813.973	450.1806	11404.5	10494.65
814.1168	452.3514	11388.1	10478.55
814.2607	454.5216	11410.15	10488.25
814.4046	456.6913	11385.6	10471
814.5485	458.8603	11460.75	10553.45
814.6924	461.0288	11485.55	10581.6
814.8363	463.1967	11473.95	10574.7
814.9802	465.3639	11513.2	10605.45
815.1241	467.5306	11524.4	10614
815.2681	469.6967	11508.3	10601.8
815.412	471.8622	11576.65	10674.05
815.556	474.0271	11636.45	10731.6
815.7	476.1914	11688	10776.55
815.844	478.3551	11690.25	10776
815.988	480.5182	11746.25	10838.45
816.132	482.6807	11810.75	10908.25
816.276	484.8426	11973.65	11079.75
816.4201	487.0039	12310.9	11409.45
816.5641	489.1647	12710.55	11803.45
816.7082	491.3248	13061	12149.3
816.8522	493.4843	13165.75	12255.4
816.9963	495.6432	13127.25	12221.7
817.1404	497.8015	13032.75	12114
817.2845	499.9592	12926.25	11999
817.4286	502.1163	12756.35	11832.15
817.5727	504.2728	12440.5	11525.3
817.7168	506.4287	12158.85	11254.25
817.861	508.5839	11812.65	10910.4
818.0051	510.7386	11572.55	10661.85
818.1493	512.8927	11475.8	10550.35
818.2935	515.0461	11421.2	10500.95
818.4377	517.199	11499.05	10577.1
818.5818	519.3512	11670.25	10745.2
818.726	521.5029	11904.75	10977.3
818.8703	523.6539	12118.8	11198.1
819.0145	525.8043	12221.25	11297.05
819.1587	527.9541	12181.85	11256.95
819.303	530.1033	12015.2	11088.75
819.4472	532.2519	11883.7	10964.85
819.5915	534.3999	11860.75	10930.85
819.7357	536.5472	11951.75	11027.5
819.88	538.694	12184.65	11265.8
820.0243	540.8401	12504.5	11577.75
820.1686	542.9856	12788.55	11848.9
820.3129	545.1305	12836	11895.15
820.4572	547.2748	12741.65	11797.1
820.6016	549.4185	12556.7	11613.3
820.7459	551.5615	12371.6	11429.95
820.8902	553.704	12335	11394.3
821.0346	555.8458	12397.35	11462.35
821.1789	557.987	12555.8	11619.65
821.3233	560.1276	12767.55	11833.15
821.4677	562.2675	13114.8	12175.35
821.6121	564.4069	13558.6	12621.35
821.7565	566.5456	13950.05	13017.6
821.9009	568.6837	14079.3	13150.45
822.0453	570.8212	13726.3	12794.7
822.1897	572.958	13084.9	12149.5
822.3342	575.0942	12471.1	11541.75
822.4786	577.2299	12038.45	11115.75
822.6231	579.3648	11836.15	10929.95
822.7675	581.4992	11792.45	10894.85
822.912	583.6329	11924.3	11026.85
823.0565	585.766	12094.6	11188.9
823.201	587.8985	12246.85	11334.45
823.3454	590.0304	12294	11345.1
823.4899	592.1616	12261.45	11324.05
823.6345	594.2922	12133.5	11192.45
823.779	596.4222	11939.9	11000
823.9235	598.5515	11759.45	10816.9
824.068	600.6802	11557.4	10616
824.2126	602.8083	11407.05	10471.8
824.3571	604.9358	11393.3	10454.2
824.5017	607.0626	11392.05	10452.45
824.6462	609.1888	11499.8	10552
824.7908	611.3144	11624.4	10681.55
824.9354	613.4393	11716.85	10771.1
825.08	615.5636	11797.4	10845.2
825.2246	617.6873	11781.8	10837.05
825.3692	619.8103	11738.15	10791.35
825.5138	621.9327	11575.5	10632.25
825.6584	624.0544	11349.2	10411.85
825.803	626.1756	11205.9	10270
825.9477	628.2961	11038.05	10093.85
826.0923	630.4159	10983.45	10038.45
826.237	632.5351	10951.8	10001.85
826.3816	634.6537	10910.55	9962.7
826.5263	636.7716	10929.55	9973.1
826.6709	638.8889	10950.85	9999.25
826.8156	641.0056	10988.35	10030.1
826.9603	643.1216	10946.1	9994.1
827.105	645.237	10928	9980.75
827.2497	647.3518	10814.75	9874.35
827.3944	649.4659	10781.3	9847.35
827.5391	651.5793	10734.15	9799.75
827.6838	653.6922	10709.1	9767.65
827.8285	655.8043	10708.75	9766.7
827.9733	657.9159	10701.8	9758.1
828.118	660.0268	10683.15	9735.85
828.2627	662.137	10644	9693.15
828.4075	664.2466	10657.1	9702.25
828.5522	666.3556	10657.45	9704.5
828.697	668.4639	10614	9668.2
828.8418	670.5716	10602.95	9668.25
828.9865	672.6786	10595.35	9642.85
829.1313	674.785	10581.7	9627.8
829.2761	676.8907	10550.5	9606.4
829.4209	678.9958	10551.35	9609
829.5657	681.1002	10505.3	9557.15
829.7105	683.204	10517.45	9559.3
829.8553	685.3072	10498.2	9542.4
830.0001	687.4097	10468.25	9517.7
830.1449	689.5115	10456.9	9505.55
830.2898	691.6127	10422.4	9471.75
830.4346	693.7132	10410.05	9466.8
830.5794	695.8131	10442.15	9483.9
830.7243	697.9123	10447.95	9492.35
830.8691	700.0109	10470.75	9512.35
831.014	702.1089	10533	9579.9
831.1588	704.2061	10542.3	9587.55
831.3037	706.3028	10597.7	9641.75
831.4486	708.3987	10651.2	9695.8
831.5935	710.4941	10666.3	9711.25
831.7383	712.5887	10726.45	9776.75
831.8832	714.6827	10845.8	9891.8
832.0281	716.7761	11003.75	10056.6
832.173	718.8688	11229.1	10278.35
832.3179	720.9608	11384.95	10426.45
832.4628	723.0522	11492.3	10526.85
832.6077	725.1429	11532.1	10572.05
832.7527	727.233	11560.05	10603.1
832.8976	729.3224	11568.75	10608.7
833.0425	731.4112	11475.55	10522.9
833.1874	733.4993	11343.35	10387.7
833.3324	735.5867	11134.9	10181
833.4773	737.6735	10914.8	9961.6
833.6222	739.7596	10730.55	9768.5
833.7672	741.845	10606.45	9650.5
833.9122	743.9298	10517.25	9557.6
834.0571	746.014	10490	9531.75
834.2021	748.0974	10479.6	9513.25
834.347	750.1802	10485.15	9523.6
834.492	752.2624	10529.8	9565.65
834.637	754.3439	10564.65	9601.35
834.782	756.4247	10683.75	9712.35
834.9269	758.5048	10872.3	9910
835.0719	760.5843	11151.5	10187.05
835.2169	762.6631	11511.15	10547.35
835.3619	764.7413	12112.25	11152.8
835.5069	766.8188	12806.2	11841.95
835.6519	768.8956	13384.4	12418.8
835.7969	770.9718	13741.5	12778.2
835.9419	773.0473	13696.8	12735.9
836.0869	775.1221	13436.65	12474.2
836.232	777.1962	13136.55	12170.65
836.377	779.2697	12998.35	12032.8
836.522	781.3426	13073.4	12096.35
836.667	783.4147	13185.3	12222.7
836.8121	785.4862	13320	12356.5
836.9571	787.557	13161.25	12196.9
837.1021	789.6271	12700.25	11731.5
837.2472	791.6966	12093.15	11126.75
837.3922	793.7654	11462.55	10496.15
837.5373	795.8335	11066.7	10101.75
837.6823	797.901	10758.9	9794.8
837.8274	799.9678	10642.1	9673.05
837.9724	802.0339	10528.65	9558.55
838.1175	804.0993	10507.45	9527.2
838.2626	806.1641	10461.55	9490.1
838.4076	808.2282	10377.2	9410.9
838.5527	810.2916	10298.85	9328.3
838.6978	812.3544	10214.1	9253
838.8428	814.4164	10159.05	9195
838.9879	816.4778	10195.05	9226.6
839.133	818.5385	10272.6	9303.35
839.2781	820.5986	10395.8	9426.15
839.4232	822.658	10609.7	9636.85
839.5682	824.7166	10919.6	9951.35
839.7133	826.7747	11436.65	10465.25
839.8584	828.832	11905.65	10937.85
840.0035	830.8886	12287.6	11316.65
840.1486	832.9446	12449.95	11475.25
840.2937	834.9999	12348	11377.3
840.4388	837.0545	12076.4	11104.15
840.5839	839.1085	11806.7	10833.75
840.729	841.1618	11503.1	10530.7
840.8741	843.2143	11268	10298.25
841.0192	845.2662	11052.3	10085.35
841.1643	847.3175	10932.05	9960.35
841.3095	849.368	10830.1	9853.8
841.4546	851.4179	10732.6	9761.7
841.5997	853.467	10611.35	9639.95
841.7448	855.5155	10555.05	9586.65
841.8899	857.5633	10450.05	9477.55
842.0351	859.6105	10367.55	9396.2
842.1802	861.6569	10293.75	9322.2
842.3253	863.7027	10222.2	9246.2
842.4704	865.7478	10177.3	9202.65
842.6156	867.7922	10151.05	9177.1
842.7607	869.8359	10155.3	9182
842.9058	871.8789	10177.15	9202.75
843.0509	873.9212	10291.3	9285.5
843.1961	875.9629	10363.2	9391.9
843.3412	878.0039	10513.95	9538.45
843.4863	880.0441	10588.15	9616.4
843.6315	882.0837	10647.8	9677.9
843.7766	884.1226	10670.45	9696.5
843.9218	886.1609	10673.05	9702
844.0669	888.1984	10773.25	9805.45
844.212	890.2352	10878.3	9901.25
844.3572	892.2714	10907.55	9930.3
844.5023	894.3069	10849.05	9877.05
844.6475	896.3416	10693.1	9718.15
844.7926	898.3757	10547.8	9570.05
844.9377	900.4091	10490.35	9512.25
845.0829	902.4418	10482	9500.35
845.228	904.4739	10528.9	9548.95
845.3732	906.5052	10583.15	9605.85
845.5183	908.5358	10504.7	9525.8
845.6635	910.5658	10394.25	9417.3
845.8086	912.595	10153.65	9178.1
845.9538	914.6236	9943.7	8964.3
846.0989	916.6515	9832.5	8854.9
846.2441	918.6786	9764.1	8789.1
846.3892	920.7051	9775.75	8796.3
846.5344	922.7309	9821.9	8846.65
846.6795	924.756	9830.75	8855.6
846.8246	926.7804	9926.25	8953.2
846.9698	928.8041	9890.95	8916.7
847.1149	930.8272	9962.1	8985.3
847.2601	932.8495	9967.75	8988.2
847.4052	934.8711	9961.8	8982.15
847.5504	936.892	9917.95	8940.55
847.6955	938.9123	9845.05	8865.95
847.8407	940.9318	9881.2	8906.05
847.9858	942.9506	9847.7	8870.35
848.131	944.9688	9803.5	8829.2
848.2761	946.9862	9681.85	8705.85
848.4213	949.003	9574.65	8598.2
848.5664	951.019	9496.4	8518.05
848.7115	953.0344	9436.75	8460.1
848.8567	955.0491	9408.2	8429.65
849.0018	957.063	9455.45	8481.75
849.147	959.0763	9556.9	8581.65
849.2921	961.0888	9572.05	8591.45
849.4373	963.1007	9638.05	8666.7
849.5824	965.1119	9638.9	8673.95
849.7275	967.1223	9652.15	8694.5
849.8727	969.1321	9638.35	8683.35
850.0178	971.1412	9628.3	8665.1
850.1629	973.1495	9634.5	8663.55
850.3081	975.1572	9713.55	8696.75
850.4532	977.1641	9668.05	8692.85
850.5983	979.1704	9652.95	8680.45
850.7435	981.1759	9621.6	8643.7
850.8886	983.1808	9655.15	8679.15
851.0337	985.1849	9675.15	8688.65
851.1788	987.1884	9737.3	8759.6
851.324	989.1911	9864.9	8885.3
851.4691	991.1932	9955	8982.5
851.6142	993.1945	9955.55	8984.4
851.7593	995.1951	9920.9	8949
851.9045	997.1951	9902.55	8918.2
852.0496	999.1943	9860.8	8884.85
852.1947	1001.1928	9848.4	8873.95
852.3398	1003.1906	9912.05	8936
852.4849	1005.1877	9995.4	9017.35
852.63	1007.1841	10071	9098.05
852.7751	1009.1798	10093.6	9122.45
852.9202	1011.1748	9993.2	9017.4
853.0653	1013.1691	9839.5	8867.25
853.2104	1015.1627	9636.6	8663.95
853.3555	1017.1556	9443.25	8469.7
853.5006	1019.1477	9333.75	8361.05
853.6457	1021.1392	9220.55	8256.55
853.7908	1023.1299	9179.55	8217.7
853.9359	1025.12	9200.1	8248.55
854.081	1027.1093	9244.05	8307.55
854.2261	1029.0979	9342.1	8410.75
854.3712	1031.0859	9456.15	8513.9
854.5163	1033.0731	9519.45	8566
854.6613	1035.0596	9457.3	8495.55
854.8064	1037.0454	9374.15	8405.35
854.9515	1039.0304	9248.1	8284.45
855.0965	1041.0148	9119.25	8148.9
855.2416	1042.9985	9051.75	8078.9
855.3867	1044.9814	9008.55	8039.85
855.5317	1046.9636	8942.55	7973.3
855.6768	1048.9452	8952.05	7984.1
855.8219	1050.926	8978.4	8008.6
855.9669	1052.9061	8998.2	8031.8
856.112	1054.8855	9023.65	8051.3
856.257	1056.8642	9041.1	8071.75
856.4021	1058.8421	9108.45	8132.15
856.5471	1060.8194	9160.9	8188.45
856.6921	1062.7959	9207.7	8236.05
856.8372	1064.7717	9247.1	8275.3
856.9822	1066.7469	9310.85	8337.65
857.1272	1068.7213	9406.4	8436.7
857.2723	1070.695	9478.45	8506.75
857.4173	1072.6679	9503.9	8533.2
857.5623	1074.6402	9507.2	8537.1
857.7073	1076.6117	9459.65	8483.55
857.8523	1078.5826	9359.2	8386.4
857.9973	1080.5527	9261.85	8286.35
858.1423	1082.5221	9202	8232.15
858.2873	1084.4908	9181.45	8211.4
858.4323	1086.4587	9216.3	8244.9
858.5773	1088.426	9272.95	8301.4
858.7223	1090.3925	9296.2	8321.5
858.8673	1092.3584	9321.85	8348.8
859.0123	1094.3235	9320.4	8350.25
859.1573	1096.2879	9382.55	8412.7
859.3022	1098.2515	9472.05	8500.9
859.4472	1100.2145	9633.8	8667.05
859.5922	1102.1767	9814.45	8848
859.7371	1104.1382	10067.3	9095.8
859.8821	1106.099	10293.6	9324.85
860.027	1108.0591	10515.65	9546.9
860.172	1110.0185	10700.8	9731.85
860.3169	1111.9771	10773.45	9800.1
860.4619	1113.9351	10645.8	9674.9
860.6068	1115.8923	10509	9541.2
860.7517	1117.8488	10342.65	9369.6
860.8967	1119.8045	10146.25	9175.9
861.0416	1121.7596	9987.5	9018.05
861.1865	1123.7139	9898.15	8934.1
861.3314	1125.6675	9846.2	8879
861.4763	1127.6204	9892.2	8921
861.6212	1129.5726	9858.05	8884.65
861.7661	1131.524	9780.2	8810.75
861.911	1133.4748	9625.45	8655.75
862.0559	1135.4248	9453.3	8482
862.2008	1137.3741	9332.85	8367.85
862.3457	1139.3226	9233.8	8264.95
862.4905	1141.2705	9167.2	8197.5
862.6354	1143.2176	9086.3	8116.8
862.7803	1145.164	9043.9	8073
862.9251	1147.1097	8986.35	8017.9
863.07	1149.0546	8903.35	7931.4
863.2148	1150.9989	8787.6	7817.2
863.3597	1152.9424	8694.85	7724.3
863.5045	1154.8852	8625.75	7658.75
863.6493	1156.8272	8587.45	7616.65
863.7942	1158.7686	8592	7616.75
863.939	1160.7092	8602.7	7635.3
864.0838	1162.6491	8642.3	7670.05
864.2286	1164.5883	8745.7	7777.15
864.3734	1166.5267	8842.5	7869.1
864.5182	1168.4644	8987.95	8021.7
864.663	1170.4014	9194.7	8224.25
864.8078	1172.3377	9449.05	8486.55
864.9526	1174.2732	9762	8796.4
865.0974	1176.2081	10183.1	9217.95
865.2421	1178.1421	10621.1	9650.3
865.3869	1180.0755	11127.8	10161.4
865.5317	1182.0082	11477.3	10515.5
865.6764	1183.9401	11667.9	10703.25
865.8212	1185.8713	11502.95	10542.95
865.9659	1187.8017	11189.55	10241.9
866.1106	1189.7315	10812.6	9874.4
866.2554	1191.6605	10402.95	9464
866.4001	1193.5888	10142.75	9197.5
866.5448	1195.5163	10000.45	9047.05
866.6895	1197.4432	9875.3	8913.25
866.8342	1199.3693	9847.5	8884.25
866.9789	1201.2947	9832.05	8864.25
867.1236	1203.2193	9800.9	8835.4
867.2683	1205.1432	9801.6	8836.85
867.413	1207.0664	9795.9	8830.7
867.5576	1208.9889	9757.35	8793.45
867.7023	1210.9106	9748.95	8787.9
867.847	1212.8316	9759.6	8799.45
867.9916	1214.7519	9787.35	8818.25
868.1363	1216.6715	9812.75	8848.55
868.2809	1218.5903	9891	8927.35
868.4255	1220.5084	9942.9	8979.95
868.5701	1222.4257	10048.4	9086.15
868.7148	1224.3424	10095.35	9136.3
868.8594	1226.2583	10219.7	9259
869.004	1228.1735	10330.95	9370.55
869.1486	1230.0879	10478.7	9516.75
869.2932	1232.0016	10690.8	9730.75
869.4377	1233.9146	10797.5	9833.65
869.5823	1235.8269	10796.5	9835.05
869.7269	1237.7384	10780.8	9820.2
869.8715	1239.6492	10632.35	9670.45
870.016	1241.5592	10596.95	9636.2
870.1606	1243.4686	10644.1	9679.95
870.3051	1245.3772	10816.85	9856.4
870.4496	1247.285	10974.15	10015.7
870.5941	1249.1922	11160.6	10200.5
870.7387	1251.0986	11274.9	10313.15
870.8832	1253.0042	11391.45	10430.6
871.0277	1254.9092	11461.6	10503.8
871.1722	1256.8134	11554.35	10595.15
871.3167	1258.7169	11693.6	10733.15
871.4611	1260.6196	11858.45	10897.45
871.6056	1262.5216	12108.35	11149.6
871.7501	1264.4229	12307.4	11349
871.8945	1266.3234	12503.1	11544.1
872.039	1268.2232	12646.9	11683.85
872.1834	1270.1223	12693.55	11729.7
872.3278	1272.0207	12745.2	11782.8
872.4723	1273.9183	12705.75	11737.85
872.6167	1275.8151	12637.3	11680.3
872.7611	1277.7113	12631.55	11673
872.9055	1279.6067	12696.45	11738
873.0499	1281.5014	12920.25	11956.25
873.1943	1283.3953	13303.7	12343.55
873.3386	1285.2885	13723.05	12766.05
873.483	1287.181	14190.1	13233.65
873.6274	1289.0727	14670	13714.8
873.7717	1290.9637	14989.75	14033.4
873.9161	1292.854	15189.95	14232.45
874.0604	1294.7435	15217.35	14259.9
874.2047	1296.6323	15113.55	14155.65
874.349	1298.5204	14987.6	14029.7
874.4933	1300.4077	14821.85	13859.3
874.6376	1302.2943	14622.2	13663
874.7819	1304.1802	14373.3	13414
874.9262	1306.0653	13934.05	12976.05
875.0705	1307.9497	13444.7	12484.65
875.2147	1309.8333	13058.15	12101.75
875.359	1311.7162	12728.45	11770.6
875.5032	1313.5984	12555.45	11598.35
875.6475	1315.4798	12459.35	11491.65
875.7917	1317.3605	12356.35	11390.9
875.9359	1319.2405	12253.25	11294.75
876.0801	1321.1197	12046.9	11087.75
876.2243	1322.9982	11740.7	10779.05
876.3685	1324.876	11482.2	10524.85
876.5127	1326.753	11188.65	10231.65
876.6569	1328.6293	11004.95	10049.1
876.801	1330.5048	10816.65	9856.6
876.9452	1332.3796	10685.65	9725.9
877.0893	1334.2537	10610.65	9623.6
877.2335	1336.127	10545.6	9584.9
877.3776	1337.9996	10471.8	9515.1
877.5217	1339.8714	10462.6	9506
877.6658	1341.7426	10504.25	9502.7
877.8099	1343.6129	10484.85	9523.15
877.954	1345.4826	10486.6	9526.8
878.0981	1347.3515	10500.15	9536.3
878.2422	1349.2196	10482.2	9522.2
878.3862	1351.087	10517.85	9557.7
878.5303	1352.9537	10543.1	9582.85
878.6743	1354.8197	10687.15	9726.5
878.8184	1356.6849	10838.95	9878.95
878.9624	1358.5493	10981.6	10022.7
879.1064	1360.4131	11151.5	10196.55
879.2504	1362.276	11272.75	10317.35
879.3944	1364.1383	11246.6	10289.95
879.5384	1365.9998	11068.55	10106.3
879.6823	1367.8606	10749.95	9790.05
879.8263	1369.7206	10401.9	9442.05
879.9702	1371.5799	10082.95	9121.35
880.1142	1373.4384	9795.75	8836.4
880.2581	1375.2962	9557.15	8597.9
880.402	1377.1533	9266.05	8310.7
880.5459	1379.0096	8895.55	7940.5
880.6898	1380.8652	8567.45	7617.6
880.8337	1382.7201	8271.45	7319.75
880.9776	1384.5742	8027.6	7074.6
881.1215	1386.4275	7843.45	6882.9
881.2653	1388.2802	7697.6	6740
881.4092	1390.132	7583.15	6625.35
881.553	1391.9832	7507.65	6547.95
881.6968	1393.8336	7416.7	6460.5
881.8406	1395.6832	7363.8	6404.6
881.9844	1397.5322	7350.45	6392.55
882.1282	1399.3803	7309.95	6348.2
882.272	1401.2278	7307.35	6351.55
882.4158	1403.0745	7285.5	6331.8
882.5595	1404.9204	7264.25	6310.55
882.7033	1406.7656	7268.4	6312.75
882.847	1408.6101	7301.95	6348.05
882.9908	1410.4538	7332.25	6378.25
883.1345	1412.2968	7364.7	6408
883.2782	1414.139	7420.85	6462.75
883.4219	1415.9805	7507.45	6550.35
883.5656	1417.8213	7575.75	6617.7
883.7092	1419.6613	7690.65	6737.25
883.8529	1421.5006	7834	6877.2
883.9965	1423.3391	8042.85	7084.45
884.1402	1425.1769	8320.3	7367.45
884.2838	1427.0139	8754.1	7797.65
884.4274	1428.8502	9308.25	8352.9
884.571	1430.6858	9858.15	8904.95
884.7146	1432.5206	10247.6	9294.45
884.8582	1434.3547	10457.4	9504.75
885.0018	1436.188	10487.15	9534.15
885.1453	1438.0206	10421.6	9466.65
885.2889	1439.8524	10261.35	9305.4
885.4324	1441.6835	10128.95	9173.05
885.5759	1443.5139	10041.85	9088.45
885.7194	1445.3435	9962.75	9011.2
885.8629	1447.1724	9920	8971.1
886.0064	1449.0005	9879.45	8929.3
886.1499	1450.8279	9821.5	8869.45
886.2933	1452.6545	9812.85	8863.15
886.4368	1454.4804	9818.5	8870.9
886.5802	1456.3056	9838.15	8883.45
886.7237	1458.13	9751.05	8803
886.8671	1459.9536	9585.1	8636.05
887.0105	1461.7766	9296.25	8344.6
887.1539	1463.5987	8975.3	8024.6
887.2972	1465.4202	8660.25	7708.6
887.4406	1467.2409	8292.85	7339.15
887.584	1469.0608	8048.5	7099.05
887.7273	1470.88	7780.7	6831.1
887.8706	1472.6984	7512.3	6562
888.0139	1474.5161	7334.25	6382.95
888.1572	1476.3331	7183.9	6234.4
888.3005	1478.1493	7092.85	6145.1
888.4438	1479.9648	6975.3	6025.3
888.5871	1481.7795	6901.7	5950.7
888.7303	1483.5935	6860.3	5913.8
888.8736	1485.4067	6800.2	5849.4
889.0168	1487.2192	6736	5785.65
889.16	1489.031	6700.5	5746.5
889.3032	1490.842	6663.8	5713.8
889.4464	1492.6522	6644.9	5698
889.5896	1494.4618	6614.4	5663.55
889.7327	1496.2705	6573.85	5625.4
889.8759	1498.0785	6511.85	5564.1
890.019	1499.8858	6480.5	5531.95
890.1622	1501.6924	6443.35	5497.4
890.3053	1503.4981	6405.25	5456.9
890.4484	1505.3032	6361.65	5414.65
890.5914	1507.1075	6339	5389.1
890.7345	1508.911	6300.9	5350.95
890.8776	1510.7138	6238.85	5288.65
891.0206	1512.5159	6202.8	5254.95
891.1637	1514.3172	6160.65	5214.05
891.3067	1516.1178	6114.25	5170
891.4497	1517.9176	6074.8	5122.9
891.5927	1519.7166	6055.65	5108.35
891.7357	1521.515	6026.2	5073.25
891.8786	1523.3126	6006.8	5061.4
892.0216	1525.1094	5971.65	5024.7
892.1645	1526.9055	5944.2	4999.95
892.3074	1528.7008	5936.7	4989.2
892.4503	1530.4954	5905.7	4964.3
892.5932	1532.2893	5896.05	4954.9
892.7361	1534.0824	5862.2	4917.7
892.879	1535.8747	5865.3	4923.15
893.0218	1537.6663	5846.3	4905.5
893.1647	1539.4572	5863.3	4919.75
893.3075	1541.2473	5863.25	4920.75
893.4503	1543.0367	5869.5	4928.05
893.5931	1544.8253	5882.8	4937.6
893.7359	1546.6132	5922.2	4977.45
893.8787	1548.4003	5947.35	4998.05
894.0214	1550.1867	6004.4	5057.65
894.1642	1551.9723	6065.65	5124.55
894.3069	1553.7572	6150.8	5214.55
894.4496	1555.5414	6258.2	5320.5
894.5923	1557.3247	6388.15	5453.7
894.735	1559.1074	6548.2	5615.75
894.8777	1560.8893	6723.45	5791.15
895.0204	1562.6705	6863.4	5931.15
895.163	1564.4509	6989.15	6057.05
895.3056	1566.2305	7053.6	6127.3
895.4482	1568.0094	7092.7	6164.85
895.5908	1569.7876	7115.05	6185.4
895.7334	1571.565	7084.8	6150.55
895.876	1573.3417	7068.3	6134.95
896.0186	1575.1176	7074.05	6144.15
896.1611	1576.8928	7037.9	6114
896.3036	1578.6672	7060.45	6138.9
896.4461	1580.4409	7052.8	6133.7
896.5886	1582.2138	7069.5	6145.1
896.7311	1583.986	7103.75	6176.15
896.8736	1585.7575	7203.6	6276.25
897.0161	1587.5282	7248.75	6328.15
897.1585	1589.2981	7366.1	6448.1
897.3009	1591.0673	7460.2	6539.1
897.4433	1592.8358	7552.15	6630.95
897.5857	1594.6035	7637.2	6712.45
897.7281	1596.3704	7751.5	6825.75
897.8705	1598.1366	7826.15	6900.75
898.0128	1599.9021	7932.8	7011.15
898.1551	1601.6668	8057.45	7131.95
898.2975	1603.4308	8158.75	7230.1
898.4398	1605.194	8359.35	7433.8
898.5821	1606.9564	8538.85	7622.15
898.7243	1608.7182	8774.4	7857.9
898.8666	1610.4791	9061.7	8154.7
899.0088	1612.2394	9401.05	8495.25
899.1511	1613.9988	9682.45	8774.25
899.2933	1615.7576	9986.2	9070.65
899.4355	1617.5156	10165.85	9235.8
899.5776	1619.2728	10270.95	9346.35
899.7198	1621.0293	10196.6	9272.25
899.862	1622.785	10025.4	9101.05
900.0041	1624.54	9693.15	8777.5
900.1462	1626.2942	9328.5	8415.45
900.2883	1628.0477	8918.2	7997.8
900.4304	1629.8005	8589.9	7669.55
900.5725	1631.5525	8256	7339.55
900.7145	1633.3037	7974.6	7059.6
900.8566	1635.0542	7782	6869.75
900.9986	1636.804	7583.9	6668.4
901.1406	1638.553	7547.2	6544.15
901.2826	1640.3013	7418	6500.5
901.4245	1642.0488	7383.65	6466.3
901.5665	1643.7955	7408.15	6497.65
901.7085	1645.5416	7438.9	6524.8
901.8504	1647.2868	7541.35	6623.95
901.9923	1649.0313	7642.35	6724.95
902.1342	1650.7751	7821.9	6902.55
902.2761	1652.5181	7971.05	7058
902.4179	1654.2604	8142.5	7231.1
902.5598	1656.0019	8382.75	7473.05
902.7016	1657.7427	8644.3	7727.95
902.8434	1659.4828	8912.3	7995.35
902.9852	1661.222	9051.5	8134.25
903.127	1662.9606	9048.95	8131.65
903.2687	1664.6984	8823.95	7902.7
903.4105	1666.4354	8380.2	7457.15
903.5522	1668.1717	7828.3	6904.55
903.6939	1669.9072	7275.65	6354.55
903.8356	1671.642	6787.8	5866.8
903.9773	1673.3761	6384.45	5463.95
904.119	1675.1094	6041.25	5124
904.2606	1676.8419	5811.25	4895.45
904.4022	1678.5737	5605.95	4692.5
904.5439	1680.3048	5443.6	4525.6
904.6855	1682.0351	5327.85	4410.5
904.827	1683.7646	5210.85	4291.15
904.9686	1685.4934	5132.75	4215.75
905.1101	1687.2215	5036.5	4120.1
905.2517	1688.9488	4966.6	4053.6
905.3932	1690.6754	4912.25	3997.95
905.5347	1692.4012	4885.5	3968.2
905.6761	1694.1263	4824.55	3909.15
905.8176	1695.8506	4789.85	3872.1
905.9591	1697.5742	4724.2	3811.25
906.1005	1699.297	4685.9	3778.4
906.2419	1701.0191	4636.2	3727.9
906.3833	1702.7404	4608.25	3701.75
906.5246	1704.461	4574.75	3661.8
906.666	1706.1808	4539.4	3627.15
906.8073	1707.8999	4520.35	3612.55
906.9487	1709.6182	4485.3	3578.05
907.09	1711.3358	4453.2	3548.75
907.2313	1713.0527	4452.2	3548.25
907.3725	1714.7688	4424.5	3510.5
907.5138	1716.4841	4399.35	3489.25
907.655	1718.1987	4408.1	3491.9
907.7962	1719.9126	4353.4	3447.95
907.9374	1721.6257	4340.8	3437.5
908.0786	1723.338	4332.9	3429.35
908.2198	1725.0496	4301.2	3394.25
908.3609	1726.7605	4299.8	3392.4
908.502	1728.4706	4281.3	3374.8
908.6431	1730.18	4256.1	3347.85
908.7842	1731.8886	4251.7	3348.4
908.9253	1733.5964	4252.4	3328.2
909.0664	1735.3036	4224.05	3316.25
909.2074	1737.0099	4214.2	3310.2
909.3484	1738.7156	4177.35	3275.65
909.4894	1740.4204	4146.95	3240.3
909.6304	1742.1246	4138.65	3228.45
909.7714	1743.8279	4135.85	3230.7
909.9123	1745.5306	4109.85	3206.1
910.0532	1747.2325	4089.25	3187.3
910.1941	1748.9336	4060.5	3154.95
910.335	1750.634	4051.6	3143.65
910.4759	1752.3336	4047.8	3142.85
910.6168	1754.0325	4022.4	3121.05
910.7576	1755.7307	3998.8	3097.25
910.8984	1757.4281	4003.35	3096.6
911.0392	1759.1247	4014.1	3094.85
911.18	1760.8206	3988.8	3072.9
911.3208	1762.5158	3992.4	3078.8
911.4615	1764.2102	3964.95	3058.15
911.6022	1765.9039	3950.15	3045.9
911.7429	1767.5968	3941.25	3040
911.8836	1769.289	3938.85	3036.55
912.0243	1770.9804	3924.65	3019.6
912.1649	1772.6711	3918.4	3007.4
912.3056	1774.361	3903.6	2994.05
912.4462	1776.0502	3903.05	2994.15
912.5868	1777.7386	3898.2	2989
912.7274	1779.4263	3889.8	2984.9
912.8679	1781.1132	3857.3	2956.25
913.0084	1782.7994	3852.75	2950.85
913.149	1784.4849	3847.5	2946.55
913.2895	1786.1696	3849.55	2930.05
913.4299	1787.8535	3835.45	2934.75
913.5704	1789.5367	3835.6	2940.25
913.7108	1791.2192	3832.6	2934.55
913.8513	1792.9009	3831.4	2902.95
913.9917	1794.5818	3817.25	2908.75
914.132	1796.2621	3801.35	2894.85
914.2724	1797.9415	3787.95	2883.15
914.4128	1799.6202	3776.85	2869.4
914.5531	1801.2982	3770.75	2865.75
914.6934	1802.9755	3770	2860.75
914.8337	1804.6519	3760.3	2854.15
914.9739	1806.3277	3738.35	2835
915.1142	1808.0027	3719.65	2820.55
915.2544	1809.6769	3709.1	2812.85
915.3946	1811.3504	3716.1	2819.3
915.5348	1813.0231	3721.7	2823.35
915.675	1814.6951	3719.4	2819.15
915.8151	1816.3664	3718.8	2813.1
915.9553	1818.0369	3709.25	2804.3
916.0954	1819.7067	3686.6	2780.8
916.2355	1821.3757	3702.35	2795.75
916.3755	1823.044	3677.4	2771.65
916.5156	1824.7115	3675.8	2770.65
916.6556	1826.3783	3653.95	2750.95
916.7956	1828.0443	3649.95	2747.9
916.9356	1829.7096	3650.1	2746.05
917.0756	1831.3741	3641.4	2735.65
917.2155	1833.0379	3639.7	2739.6
917.3555	1834.701	3623.3	2722.75
917.4954	1836.3633	3625	2728.4
917.6353	1838.0248	3612.9	2713.4
917.7751	1839.6856	3609	2707.45
917.915	1841.3457	3617.6	2715.2
918.0548	1843.005	3605.1	2703.95
918.1946	1844.6636	3623.1	2722.45
918.3344	1846.3214	3607.65	2706.9
918.4742	1847.9785	3591.05	2689.6
918.6139	1849.6349	3573.95	2667.05
918.7537	1851.2904	3582	2669.1
918.8934	1852.9453	3569.9	2664
919.0331	1854.5994	3565.75	2656.75
919.1727	1856.2528	3571.8	2663.35
919.3124	1857.9054	3550.85	2647.3
919.452	1859.5572	3554.15	2653.55
919.5916	1861.2083	3541.55	2639.6
919.7312	1862.8587	3556.6	2652.2
919.8708	1864.5084	3541.9	2634.25
920.0103	1866.1572	3524.55	2617.25
920.1498	1867.8054	3514.55	2606.15
920.2893	1869.4528	3525.5	2616.6
920.4288	1871.0994	3508.15	2604.25
920.5683	1872.7453	3500.35	2596.45
920.7077	1874.3905	3491.05	2580.7
920.8471	1876.0349	3482.65	2579.1
920.9865	1877.6786	3487.6	2581.75
921.1259	1879.3215	3483.25	2580
921.2653	1880.9637	3485.95	2583.7
921.4046	1882.6051	3460.05	2559.8
921.5439	1884.2458	3464	2558.85
921.6832	1885.8858	3437.6	2535.7
921.8225	1887.525	3440.2	2535.65
921.9617	1889.1634	3432.9	2530.7
922.101	1890.8011	3419.85	2515.5
922.2402	1892.4381	3415	2510.85
922.3794	1894.0743	3411.35	2510.15
922.5185	1895.7098	3403.85	2501.15
922.6577	1897.3446	3403.05	2499.7
922.7968	1898.9786	3393.55	2487.6
922.9359	1900.6118	3379.25	2477.45
923.075	1902.2443	3359.1	2458.3
923.214	1903.8761	3357.55	2455
923.3531	1905.5071	3344.3	2440.05
923.4921	1907.1374	3340.45	2436.55
923.6311	1908.7669	3335.85	2434.6
923.77	1910.3957	3332.7	2432.75
923.909	1912.0237	3319.7	2421.3
924.0479	1913.651	3320.25	2416
924.1868	1915.2776	3314.85	2412.5
924.3257	1916.9034	3309.95	2410.45
924.4646	1918.5285	3290.75	2393.35
924.6034	1920.1528	3272.1	2369.45
924.7422	1921.7764	3275.65	2373.1
924.881	1923.3992	3272.65	2371
925.0198	1925.0213	3263.05	2360.6
925.1586	1926.6427	3252.85	2353.15
925.2973	1928.2633	3310.5	2331.4
925.436	1929.8832	3248.7	2345.5
925.5747	1931.5023	3221.15	2320.8
925.7134	1933.1207	3211.25	2308.8
925.852	1934.7383	3222.55	2321.8
925.9906	1936.3552	3207.8	2307.3
926.1292	1937.9714	3198	2297.25
926.2678	1939.5868	3189.1	2286.95
926.4064	1941.2015	3177.35	2273.35
926.5449	1942.8154	3162.25	2260.1
926.6834	1944.4286	3159.7	2258.15
926.8219	1946.041	3170.65	2248.65
926.9604	1947.6528	3150.15	2244.7
927.0988	1949.2637	3139.95	2239.6
927.2372	1950.8739	3120.45	2220.8
927.3756	1952.4834	3112.75	2213.95
927.514	1954.0921	3114.95	2216
927.6523	1955.7001	3124.15	2220.55
927.7907	1957.3074	3099.9	2203.2
927.929	1958.9139	3075.85	2179.7
928.0673	1960.5197	3096.9	2202.2
928.2055	1962.1247	3073.35	2177.25
928.3438	1963.729	3064.7	2166.9
928.482	1965.3325	3064.8	2162.65
928.6202	1966.9353	3049.05	2154.1
928.7584	1968.5374	3054.2	2156.95
928.8965	1970.1387	3025.85	2130.8
929.0346	1971.7393	3021.75	2126.8
929.1727	1973.3392	3018.45	2122.4
929.3108	1974.9383	3011.4	2117.25
929.4489	1976.5366	2999.15	2106.1
929.5869	1978.1342	2991.7	2099.25
929.7249	1979.7311	3013.35	2119.1
929.8629	1981.3273	2993.9	2100.4
930.0009	1982.9227	2975.65	2082.6
930.1388	1984.5173	2970.15	2080.65
930.2767	1986.1112	2960.55	2067.8
930.4146	1987.7044	2954.5	2063.2
930.5525	1989.2968	2946.55	2053.35
930.6904	1990.8885	2935.1	2040.75
930.8282	1992.4795	2944.05	2055.35
930.966	1994.0697	2929.15	2041.1
931.1038	1995.6592	2914.8	2024.4
931.2415	1997.2479	2925.1	2034.7
931.3793	1998.8359	2920.25	2029.75
931.517	2000.4232	2889.3	2003.75
931.6547	2002.0097	2903.5	2020.5
931.7923	2003.5955	2885.3	1998.25
931.93	2005.1805	2892.25	2002.4
932.0676	2006.7648	2877	1987.95
932.2052	2008.3484	2872.6	1984.5
932.3427	2009.9312	2880.8	1994.25
932.4803	2011.5133	2858.25	1978.4
932.6178	2013.0946	2845.75	1961.8
932.7553	2014.6752	2856.75	1972.05
932.8928	2016.2551	2850.1	1959.55
933.0302	2017.8342	2853.95	1965.9
933.1676	2019.4126	2831.2	1945.75
933.305	2020.9902	2827.75	1945.95
933.4424	2022.5672	2816.6	1932.75
933.5798	2024.1433	2812.45	1925.2
933.7171	2025.7188	2808.9	1926.25
933.8544	2027.2935	2797.95	1914.9
933.9917	2028.8674	2797.65	1915.55
934.129	2030.4406	2785.9	1905.55
934.2662	2032.0131	2772.8	1891.9
934.4034	2033.5849	2786.45	1903.3
934.5406	2035.1559	2755.4	1875.05
934.6778	2036.7261	2770.85	1886.25
934.8149	2038.2957	2766.35	1874.5
934.952	2039.8645	2771.35	1881.15
935.0891	2041.4325	2767	1876.3
935.2262	2042.9998	2749.85	1865.35
935.3632	2044.5664	2751.65	1862.15
935.5002	2046.1323	2739.2	1854.75
935.6372	2047.6974	2734.95	1852.85
935.7742	2049.2617	2729.8	1846.65
935.9111	2050.8254	2740.75	1848.75
936.048	2052.3883	2733.75	1843.3
936.1849	2053.9504	2729.35	1840.5
936.3218	2055.5118	2727.8	1838.75
936.4586	2057.0725	2719.55	1828.8
936.5955	2058.6325	2707.9	1822.25
936.7323	2060.1917	2701.25	1814.65
936.869	2061.7502	2689.9	1805.1
937.0058	2063.3079	2680.45	1801.5
937.1425	2064.8649	2687.8	1800.25
937.2792	2066.4212	2670.85	1785
937.4159	2067.9767	2678.05	1790.5
937.5525	2069.5315	2657.35	1770.15
937.6891	2071.0856	2678	1792.8
937.8257	2072.6389	2648.85	1764.8
937.9623	2074.1915	2641.1	1760.1
938.0989	2075.7433	2626.5	1742.9
938.2354	2077.2945	2642.95	1757.2
938.3719	2078.8448	2631.1	1743.35
938.5084	2080.3945	2623.9	1734.65
938.6448	2081.9434	2622.85	1734.5
938.7812	2083.4916	2615	1722.05
938.9176	2085.039	2613.35	1716.95
939.054	2086.5857	2613.1	1714.5
939.1903	2088.1317	2617.35	1718.3
939.3267	2089.677	2613.8	1715.55
939.463	2091.2215	2605.65	1709.95
939.5992	2092.7652	2599.9	1697.55
939.7355	2094.3083	2598.25	1700.45
939.8717	2095.8506	2585.25	1691.5
940.0079	2097.3921	2576.55	1685.75
940.1441	2098.933	2573.25	1682.85
940.2802	2100.4731	2569.85	1678.8
940.4163	2102.0124	2586.25	1675.25
940.5524	2103.5511	2570.4	1675.95
940.6885	2105.089	2568.25	1674.6
940.8245	2106.6261	2563.55	1671.05
940.9606	2108.1626	2557.45	1665.15
941.0965	2109.6983	2576	1657.9
941.2325	2111.2332	2552.6	1659.9
941.3684	2112.7675	2548.5	1654.4
941.5044	2114.301	2545.6	1651.45
941.6403	2115.8337	2540.8	1645.35
941.7761	2117.3657	2535.45	1642.95
941.912	2118.897	2524.75	1631
942.0478	2120.4276	2529.25	1628.2
942.1835	2121.9575	2514	1619.3
942.3193	2123.4866	2526	1629.25
942.455	2125.0149	2506.9	1610.8
942.5907	2126.5426	2502.75	1615.9
942.7264	2128.0695	2497	1607.6
942.8621	2129.5956	2489.65	1606.3
942.9977	2131.1211	2494.05	1602.65
943.1333	2132.6458	2472.8	1583.55
943.2689	2134.1698	2494.8	1601.9
943.4044	2135.693	2481.4	1579.8
943.54	2137.2155	2479.25	1581.15
943.6755	2138.7373	2476.4	1584.55
943.8109	2140.2584	2457.1	1569.05
943.9464	2141.7787	2454.75	1565.25
944.0818	2143.2983	2445.45	1562.8
944.2172	2144.8171	2434.3	1553.8
944.3526	2146.3353	2439.35	1552.65
944.4879	2147.8527	2428.65	1538.7
944.6232	2149.3693	2435.75	1544.95
944.7585	2150.8853	2437.65	1542.6
944.8938	2152.4005	2435.25	1539.5
945.029	2153.9149	2433.95	1540.25
945.1642	2155.4287	2423.15	1529.15
945.2994	2156.9417	2423.55	1529.05
945.4346	2158.454	2404.85	1514.7
945.5697	2159.9655	2401.25	1515.9
945.7048	2161.4764	2410.35	1521.3
945.8399	2162.9865	2395.05	1507.2
945.9749	2164.4958	2389.4	1502
946.1099	2166.0045	2391.55	1500
946.2449	2167.5124	2383.8	1495.45
946.3799	2169.0195	2390.75	1498.65
946.5148	2170.526	2388.5	1493
946.6498	2172.0317	2376.95	1485.6
946.7846	2173.5367	2367.65	1477.95
946.9195	2175.0409	2362.75	1472.6
947.0543	2176.5445	2374.95	1484
947.1891	2178.0473	2360.45	1463.75
947.3239	2179.5494	2361.75	1466.6
947.4587	2181.0507	2344.1	1453.35
947.5934	2182.5513	2341.55	1449.85
947.7281	2184.0512	2342.15	1450.55
947.8628	2185.5504	2339.85	1448.25
947.9974	2187.0488	2328.55	1440
948.132	2188.5465	2324.5	1436.7
948.2666	2190.0435	2324	1434.4
948.4012	2191.5397	2317.65	1426.65
948.5357	2193.0353	2329	1436.15
948.6702	2194.5301	2312.45	1413.3
948.8047	2196.0241	2322.45	1424.2
948.9392	2197.5175	2311.95	1414.1
949.0736	2199.0101	2295.9	1395.35
949.208	2200.502	2290.9	1398.65
949.3424	2201.9931	2286.95	1396.4
949.4767	2203.4835	2277.35	1387.4
949.611	2204.9733	2300.65	1399.35
949.7453	2206.4622	2281.35	1393.3
949.8796	2207.9505	2282.3	1393.05
950.0138	2209.438	2259.15	1375.15
950.148	2210.9248	2260.3	1371.3
950.2822	2212.4109	2255.15	1363.25
950.4164	2213.8962	2260.8	1363.5
950.5505	2215.3809	2260.2	1360.8
950.6846	2216.8648	2250	1352
950.8186	2218.3479	2250.2	1343.1
950.9527	2219.8304	2242.5	1340.6
951.0867	2221.3121	2236	1333.35
951.2207	2222.7931	2237.15	1339.4
951.3546	2224.2733	2221.25	1326.5
951.4886	2225.7529	2218.4	1325.55
951.6225	2227.2317	2218.05	1322.9
951.7563	2228.7098	2199.9	1312.5
951.8902	2230.1872	2191.35	1306
952.024	2231.6638	2196.6	1309.95
952.1578	2233.1397	2202.45	1312
952.2916	2234.6149	2189.65	1301.2
952.4253	2236.0894	2198.5	1308
952.559	2237.5632	2193.85	1291.8
952.6927	2239.0362	2188.8	1296.55
952.8263	2240.5085	2176.45	1285.5
952.9599	2241.9801	2168.3	1275.25
953.0935	2243.4509	2159.35	1263.8
953.2271	2244.921	2164.75	1269
953.3606	2246.3904	2175.65	1276.85
953.4941	2247.8591	2153.15	1259
953.6276	2249.3271	2151.1	1258.1
953.7611	2250.7943	2149.3	1256.55
953.8945	2252.2608	2149.35	1251.2
954.0279	2253.7266	2140.8	1245.1
954.1612	2255.1917	2140.05	1247.3
954.2946	2256.656	2129.85	1239.25
954.4279	2258.1197	2119.2	1231.6
954.5612	2259.5826	2116.55	1225.1
954.6944	2261.0447	2120.9	1226.5
954.8276	2262.5062	2108.25	1212.8
954.9608	2263.9669	2119.8	1219.85
955.094	2265.4269	2115.9	1220.9
955.2271	2266.8862	2107.75	1216.75
955.3602	2268.3448	2105.6	1214.05
955.4933	2269.8026	2111.6	1222.5
955.6264	2271.2598	2092.2	1202.75
955.7594	2272.7162	2094.65	1204.8
955.8924	2274.1719	2086.15	1192.4
956.0253	2275.6268	2099.4	1202.7
956.1583	2277.0811	2085.4	1189.65
956.2912	2278.5346	2087.55	1195.9
956.4241	2279.9874	2090.15	1199.8
956.5569	2281.4395	2085	1197
956.6897	2282.8908	2078.6	1183.75
956.8225	2284.3414	2080.3	1189
956.9553	2285.7914	2076.65	1185.65
957.088	2287.2406	2072.75	1179
957.2207	2288.689	2074.2	1178.05
957.3534	2290.1368	2079.5	1179.2
957.486	2291.5838	2070.2	1165.35
957.6186	2293.0302	2065.8	1166.6
957.7512	2294.4758	2061.3	1166.6
957.8838	2295.9206	2060.4	1162.1
958.0163	2297.3648	2043.3	1152.75
958.1488	2298.8082	2047.65	1155.3
958.2813	2300.251	2051.35	1156.7
958.4137	2301.693	2049.75	1150.65
958.5461	2303.1343	2034.25	1135.7
958.6785	2304.5748	2036.2	1142
958.8108	2306.0147	2028.25	1139.75
958.9432	2307.4538	2025.4	1133.6
959.0754	2308.8922	2018.65	1129.7
959.2077	2310.3299	2019.6	1131.25
959.3399	2311.7669	2014.5	1123.9
959.4721	2313.2031	2026.2	1132.25
959.6043	2314.6387	2017.4	1123.85
959.7365	2316.0735	2011.75	1116.85
959.8686	2317.5076	2010.8	1119
960.0006	2318.941	2004.85	1108
960.1327	2320.3737	2002.05	1104.1
960.2647	2321.8056	2008.7	1111.8
960.3967	2323.2369	1993	1098.45
960.5287	2324.6674	1995.05	1099.7
960.6606	2326.0972	1984.35	1092.15
960.7925	2327.5263	1990.15	1096.7
960.9244	2328.9547	1971.35	1077.05
961.0562	2330.3823	1984.05	1087
961.1881	2331.8092	1987.35	1084.9
961.3198	2333.2355	1971.9	1074.1
961.4516	2334.661	1978.25	1081.15
961.5833	2336.0858	1970.35	1073.1
961.715	2337.5098	1966	1069.7
961.8467	2338.9332	1965.6	1070.6
961.9783	2340.3558	1957.1	1062.85
962.1099	2341.7778	1963.4	1071.05
962.2415	2343.199	1954.85	1059.15
962.373	2344.6195	1945.2	1053.1
962.5045	2346.0393	1952.4	1062.3
962.636	2347.4583	1948.9	1054.45
962.7675	2348.8767	1946.05	1049.35
962.8989	2350.2943	1947.95	1053.15
963.0303	2351.7113	1945.25	1044.4
963.1617	2353.1275	1945.8	1046.45
963.293	2354.543	1956.45	1048.35
963.4243	2355.9578	1947.55	1053.25
963.5556	2357.3718	1925.1	1031.4
963.6868	2358.7852	1923.25	1027.85
963.818	2360.1978	1914.2	1022
963.9492	2361.6098	1922.6	1030.3
964.0803	2363.021	1920.1	1021.65
964.2114	2364.4315	1912.55	1018.55
964.3425	2365.8413	1911.6	1015.8
964.4736	2367.2504	1909.65	1019.1
964.6046	2368.6587	1897.25	1005.95
964.7356	2370.0664	1900.3	1009.65
964.8666	2371.4733	1893.75	999.6
964.9975	2372.8795	1896.55	1001.8
965.1284	2374.285	1885.5	990.35
965.2593	2375.6899	1884.2	991.15
965.3901	2377.0939	1883.05	990.9
965.5209	2378.4973	1887	995.5
965.6517	2379.9	1890.35	996.85
965.7825	2381.3019	1872	979.65
965.9132	2382.7032	1873.65	982.3
966.0439	2384.1037	1863.95	976.1
966.1745	2385.5035	1862.4	974.15
966.3051	2386.9027	1863.1	975.25
966.4357	2388.3011	1864.05	971.75
966.5663	2389.6987	1859.05	967.4
966.6968	2391.0957	1839.4	946.75
966.8273	2392.492	1846.85	954.35
966.9578	2393.8876	1844.35	951.35
967.0882	2395.2824	1834.05	942.2
967.2186	2396.6765	1840.3	945.95
967.349	2398.07	1836.15	942
967.4793	2399.4627	1834.1	940.25
967.6097	2400.8547	1833.4	938.9
967.7399	2402.246	1828.05	927
967.8702	2403.6366	1816.5	923.3
968.0004	2405.0265	1816.45	925.85
968.1306	2406.4156	1823.35	927.5
968.2607	2407.8041	1818.6	923.15
968.3909	2409.1918	1806.3	911.3
968.521	2410.5789	1804.45	909.45
968.651	2411.9652	1805.9	909.5
968.781	2413.3508	1815.05	922.9
968.911	2414.7358	1798.8	905.7
969.041	2416.12	1794	902.3
969.1709	2417.5035	1804.85	912.9
969.3008	2418.8863	1796.7	900.15
969.4307	2420.2684	1799.8	904.65
969.5606	2421.6497	1784.4	890.05
969.6904	2423.0304	1780.65	888.8
969.8201	2424.4104	1782.85	887.55
969.9499	2425.7896	1775.45	878.8
970.0796	2427.1682	1782.95	889.45
970.2093	2428.546	1774.5	880.1
970.3389	2429.9232	1775.45	880.55
970.4685	2431.2996	1774.5	881.65
970.5981	2432.6753	1774.65	880.55
970.7277	2434.0503	1764.55	871.1
970.8572	2435.4246	1764.8	870.9
970.9867	2436.7982	1766.8	870.3
971.1161	2438.1711	1764.55	870.25
971.2456	2439.5433	1770.1	873.15
971.375	2440.9148	1754.2	855.3
971.5043	2442.2856	1751.35	857.7
971.6336	2443.6557	1744.65	848.35
971.7629	2445.025	1749.4	855.9
971.8922	2446.3937	1745.2	850.75
972.0214	2447.7617	1740.05	843.6
972.1506	2449.1289	1734.75	840.85
972.2798	2450.4955	1737.75	839.9
972.4089	2451.8613	1729.15	838.85
972.538	2453.2265	1736.45	844.7
972.6671	2454.5909	1735.4	840.85
972.7961	2455.9546	1725.85	833.3
972.9251	2457.3177	1719.5	827.55
973.0541	2458.68	1715.5	819.55
973.1831	2460.0416	1722.25	827.75
973.312	2461.4025	1720.1	827.55
973.4408	2462.7627	1727.9	823.15
973.5697	2464.1222	1716.45	826.55
973.6985	2465.4811	1710.1	819.1
973.8273	2466.8392	1715.45	823.25
973.956	2468.1966	1711.5	816.35
974.0847	2469.5533	1713.8	816.45
974.2134	2470.9093	1710.85	817.6
974.3421	2472.2645	1710.4	817.65
974.4707	2473.6191	1707.85	816.8
974.5993	2474.973	1707.6	817.2
974.7278	2476.3262	1711.8	819.15
974.8563	2477.6787	1703.3	810.4
974.9848	2479.0305	1693.35	800.05
975.1132	2480.3816	1697.55	802.1
975.2417	2481.7319	1692.9	800.6
975.37	2483.0816	1691.7	797.65
975.4984	2484.4306	1686.65	796.1
975.6267	2485.7789	1689.35	797.75
975.755	2487.1264	1671.3	777.6
975.8833	2488.4733	1674.4	782.55
976.0115	2489.8195	1679	779.5
976.1397	2491.165	1670.1	776.25
976.2678	2492.5097	1670.4	778.65
976.3959	2493.8538	1658.15	767.45
976.524	2495.1972	1660.65	768
976.6521	2496.5398	1661	765.35
976.7801	2497.8818	1665.65	770.05
976.9081	2499.2231	1655.25	759.4
977.036	2500.5637	1652.4	757.6
977.164	2501.9035	1653.55	758.75
977.2918	2503.2427	1653.85	757
977.4197	2504.5812	1657.2	764.55
977.5475	2505.919	1645.05	749.85
977.6753	2507.256	1650.45	757.6
977.8031	2508.5924	1641.8	749.4
977.9308	2509.9281	1647	751.9
978.0585	2511.2631	1635.9	741.85
978.1861	2512.5974	1635.35	742.95
978.3137	2513.9309	1631.4	739.25
978.4413	2515.2638	1667.5	747.25
978.5689	2516.596	1637.2	742.95
978.6964	2517.9275	1632.2	738.45
978.8239	2519.2583	1631.55	739.3
978.9513	2520.5884	1629.55	734.9
979.0788	2521.9178	1622.1	727.7
979.2062	2523.2465	1616	725.7
979.3335	2524.5745	1609.85	720.1
979.4608	2525.9018	1616.5	723.85
979.5881	2527.2284	1618.8	726.55
979.7154	2528.5543	1612.9	719.35
979.8426	2529.8796	1618.65	725.3
979.9698	2531.2041	1614	719.9
980.0969	2532.5279	1609.8	720.15
980.224	2533.851	1611.55	721.45
980.3511	2535.1735	1611	718.95
980.4781	2536.4952	1600.7	709.4
980.6052	2537.8163	1605.35	711.85
980.7321	2539.1366	1600.6	707.15
980.8591	2540.4562	1609.6	713.4
980.986	2541.7752	1612.2	717.9
981.1129	2543.0935	1605.25	710.05
981.2397	2544.411	1600.8	705.35
981.3665	2545.7279	1596.05	702.95
981.4933	2547.0441	1595.6	703.4
981.62	2548.3596	1596.3	700
981.7467	2549.6744	1595.25	700.8
981.8734	2550.9885	1593.85	699.1
982.0001	2552.3019	1591.75	697.4
982.1267	2553.6146	1597.75	702.3
982.2532	2554.9266	1592.65	697.55
982.3798	2556.2379	1584.1	691.45
982.5063	2557.5485	1586.15	697.5
982.6327	2558.8585	1587.55	688.85
982.7592	2560.1677	1582.4	684.7
982.8856	2561.4762	1585.55	690.7
983.0119	2562.7841	1579.3	683.6
983.1383	2564.0913	1575.65	684.15
983.2646	2565.3977	1568.2	673.9
983.3908	2566.7035	1574.3	680
983.517	2568.0086	1573.25	677.5
983.6432	2569.313	1574.45	678.8
983.7694	2570.6167	1576.25	679.6
983.8955	2571.9197	1572.55	680.35
984.0216	2573.222	1576.65	682.15
984.1476	2574.5236	1567.25	673.25
984.2737	2575.8246	1568.95	674.4
984.3996	2577.1248	1569.2	671.75
984.5256	2578.4244	1567.05	672.9
984.6515	2579.7232	1559.65	666.3
984.7774	2581.0214	1593.4	673.55
984.9032	2582.3189	1570.8	678.25
985.029	2583.6157	1575.85	678.65
985.1548	2584.9118	1567.8	675.05
985.2806	2586.2072	1567.8	671.95
985.4063	2587.5019	1571.15	677.65
985.5319	2588.7959	1560.4	665.45
985.6576	2590.0893	1574.7	680.65
985.7832	2591.3819	1563.85	671.05
985.9087	2592.6739	1572.3	679.6
986.0343	2593.9652	1565.5	673.1
986.1597	2595.2557	1572.35	678.9
986.2852	2596.5456	1571.55	678.2
986.4106	2597.8348	1574.4	681.65
986.536	2599.1234	1561.25	667.75
986.6614	2600.4112	1570.15	677.75
986.7867	2601.6983	1567.15	671.75
986.912	2602.9848	1556.3	663.95
987.0372	2604.2705	1561.7	662.35
987.1624	2605.5556	1562.8	671.1
987.2876	2606.84	1565.6	674.25
987.4128	2608.1237	1555.3	663.5
987.5379	2609.4067	1554.45	661.25
987.6629	2610.689	1558.35	657.45
987.788	2611.9707	1550.1	655.4
987.913	2613.2516	1553.65	656.5
988.0379	2614.5319	1537.05	645.35
988.1629	2615.8115	1537.05	646.05
988.2878	2617.0903	1538.7	647.65
988.4126	2618.3685	1537.85	645.8
988.5375	2619.6461	1528.4	636.9
988.6622	2620.9229	1529	636.4
988.787	2622.199	1530.05	635.2
988.9117	2623.4745	1536.5	643.2
989.0364	2624.7493	1528.6	638.6
989.161	2626.0234	1526.35	637.8
989.2857	2627.2968	1525.95	634.25
989.4102	2628.5695	1518.6	626.55
989.5348	2629.8415	1519.8	629
989.6593	2631.1128	1516.3	622.4
989.7837	2632.3835	1524.15	633.5
989.9082	2633.6535	1510.05	619.65
990.0326	2634.9228	1514.6	623
990.1569	2636.1914	1513.6	622.95
990.2812	2637.4593	1515.35	621.75
990.4055	2638.7265	1504	616.35
990.5298	2639.9931	1515.25	624.7
990.654	2641.259	1514.75	623.9
990.7782	2642.5242	1508.8	618.35
990.9023	2643.7887	1500.55	609
991.0264	2645.0525	1494.5	604.25
991.1505	2646.3156	1497.25	608.2
991.2745	2647.5781	1486	597.6
991.3985	2648.8398	1502.2	613.65
991.5225	2650.1009	1528.8	599.85
991.6464	2651.3613	1487.1	595.1
991.7703	2652.6211	1494.5	603.55
991.8942	2653.8801	1486.25	597.15
992.018	2655.1385	1497.05	605.75
992.1418	2656.3961	1489.15	597.15
992.2655	2657.6531	1484.3	596
992.3892	2658.9094	1486.95	597.65
992.5129	2660.1651	1494.65	607.05
992.6366	2661.42	1494.4	603.55
992.7602	2662.6743	1492.95	601.75
992.8837	2663.9279	1490.4	601.05
993.0073	2665.1808	1489.95	599.7
993.1307	2666.433	1498.55	607.75
993.2542	2667.6846	1496.2	605.1
993.3776	2668.9354	1495.35	603.2
993.501	2670.1856	1497	602.8
993.6244	2671.4351	1495.1	604.55
993.7477	2672.6839	1507.1	616.45
993.8709	2673.9321	1500.2	610.15
993.9942	2675.1795	1501.25	610.6
994.1174	2676.4263	1506.2	616.2
994.2405	2677.6724	1514.8	625.35
994.3637	2678.9179	1508.25	617.55
994.4868	2680.1626	1502.1	612.05
994.6098	2681.4067	1508.65	617.3
994.7328	2682.6501	1502.4	612
994.8558	2683.8928	1506.9	617.75
994.9788	2685.1348	1506.05	619.7
995.1017	2686.3761	1498.6	609.1
995.2245	2687.6168	1494.05	602.4
995.3474	2688.8568	1488	597.7
995.4702	2690.0961	1477.7	588.45
995.5929	2691.3348	1483.9	593.9
995.7156	2692.5727	1473.1	583.15
995.8383	2693.81	1471.55	582.1
995.961	2695.0466	1473.05	583.7
996.0836	2696.2826	1485.45	594.8
996.2062	2697.5178	1480.65	586.8
996.3287	2698.7524	1480.35	590.75
996.4512	2699.9863	1485.4	594.9
996.5737	2701.2195	1481.25	592.35
996.6961	2702.452	1486.55	594.65
996.8185	2703.6839	1487.8	597.35
996.9408	2704.9151	1495.45	606.75
997.0631	2706.1456	1502.1	614.25
997.1854	2707.3755	1501.95	612.95
997.3077	2708.6046	1508.4	617.45
997.4299	2709.8331	1512.2	620.75
997.552	2711.0609	1520.15	631.65
997.6742	2712.2881	1522	634.85
997.7963	2713.5145	1542.8	651.35
997.9183	2714.7403	1546.5	658.3
998.0403	2715.9654	1547.4	659.05
998.1623	2717.1899	1564.3	659.55
998.2842	2718.4136	1571	680.9
998.4062	2719.6367	1584.1	696.7
998.528	2720.8591	1597.4	699.55
998.6498	2722.0809	1600.75	711.25
998.7716	2723.3019	1610.8	718.9
998.8934	2724.5223	1621.7	733.7
999.0151	2725.7421	1621.7	730.2
999.1368	2726.9611	1623.5	734.25
999.2584	2728.1795	1634.8	743.45
999.38	2729.3972	1617.85	731.4
999.5016	2730.6142	1614	712.1
999.6231	2731.8306	1597	707.05
999.7446	2733.0462	1589.05	699.5
999.8661	2734.2612	1570.75	676.95
999.9875	2735.4756	1545.1	654.6
1000.1089	2736.6892	1533.8	643.95
1000.2302	2737.9022	1516.75	628.5
1000.3515	2739.1145	1503.35	615.35
1000.4728	2740.3262	1507.35	611.4
1000.594	2741.5372	1481.3	593.15
1000.7152	2742.7475	1469.4	582.65
1000.8363	2743.9571	1465	574.95
1000.9575	2745.1661	1452.65	558.55
1001.0785	2746.3744	1438.95	550.9
1001.1996	2747.582	1432.85	546.1
1001.3206	2748.7889	1433.3	546.6
1001.4415	2749.9952	1422.4	535.45
1001.5625	2751.2008	1424.55	535.65
1001.6833	2752.4057	1417.75	528.2
1001.8042	2753.61	1411.3	522.8
1001.925	2754.8136	1410.4	519.95
1002.0458	2756.0165	1401.5	515.3
1002.1665	2757.2188	1409.4	519.05
1002.2872	2758.4204	1408.6	522
1002.4078	2759.6213	1410.35	520.7
1002.5285	2760.8215	1413.95	523.6
1002.649	2762.0211	1401.7	513.85
1002.7696	2763.22	1406.7	518.65
1002.8901	2764.4182	1396.35	509.35
1003.0106	2765.6158	1399.15	512.05
1003.131	2766.8127	1394.05	505.75
1003.2514	2768.009	1389.25	502.95
1003.3717	2769.2045	1388.3	500.15
1003.492	2770.3994	1391.45	500.2
1003.6123	2771.5936	1385.85	501.5
1003.7325	2772.7872	1384.75	499.75
1003.8527	2773.9801	1365.9	477.95
1003.9729	2775.1723	1394.15	490.1
1004.093	2776.3639	1372.95	486.8
1004.2131	2777.5548	1373.75	483.9
1004.3331	2778.745	1375.3	486.45
1004.4531	2779.9346	1376.9	493
1004.5731	2781.1235	1382.4	492.7
1004.693	2782.3117	1379.45	492.65
1004.8129	2783.4992	1376.45	491.9
1004.9328	2784.6861	1384.7	499.2
1005.0526	2785.8723	1381.7	493.85
1005.1723	2787.0579	1388.9	500.3
1005.2921	2788.2428	1396.95	510.35
1005.4118	2789.427	1396.65	512.35
1005.5314	2790.6106	1404.05	516.2
1005.651	2791.7935	1414	526.3
1005.7706	2792.9757	1411.95	527.2
1005.8902	2794.1573	1419.25	531.65
1006.0097	2795.3382	1438.5	553.15
1006.1291	2796.5184	1443.15	556.65
1006.2485	2797.698	1454.9	566.9
1006.3679	2798.8769	1463.45	577
1006.4873	2800.0551	1477.65	591.95
1006.6066	2801.2327	1487.1	600.85
1006.7258	2802.4096	1499.35	612.6
1006.8451	2803.5859	1523.35	637.95
1006.9642	2804.7615	1525.25	637.25
1007.0834	2805.9364	1552.95	667.9
1007.2025	2807.1106	1563.5	676.4
1007.3216	2808.2842	1596.25	709.55
1007.4406	2809.4572	1629	743.1
1007.5596	2810.6294	1654.2	767.55
1007.6785	2811.801	1684.9	799.45
1007.7975	2812.972	1714.35	829.85
1007.9163	2814.1423	1754.3	869.4
1008.0352	2815.3119	1804.15	918.15
1008.154	2816.4808	1843.85	960.2
1008.2727	2817.6491	1894.75	1008.75
1008.3914	2818.8167	1942.2	1057.65
1008.5101	2819.9837	1999.5	1110.1
1008.6288	2821.15	2053.85	1168.75
1008.7474	2822.3157	2106.05	1221.2
1008.8659	2823.4807	2159.7	1273.35
1008.9844	2824.645	2230.15	1343.55
1009.1029	2825.8086	2273.85	1388.7
1009.2214	2826.9716	2330.35	1444.9
1009.3398	2828.134	2371.75	1486.75
1009.4581	2829.2957	2432.4	1547.3
1009.5764	2830.4567	2466.6	1581.3
1009.6947	2831.617	2487.6	1601.85
1009.813	2832.7767	2490.2	1605.45
1009.9312	2833.9358	2491	1605.95
1010.0493	2835.0941	2494.15	1606.35
1010.1675	2836.2519	2473.4	1592.65
1010.2855	2837.4089	2464.3	1578.3
1010.4036	2838.5653	2462.9	1579.45
1010.5216	2839.7211	2431.55	1546.7
1010.6396	2840.8761	2437.2	1550.95
1010.7575	2842.0306	2444.9	1558.9
1010.8754	2843.1843	2471.5	1585.4
1010.9932	2844.3374	2498.35	1614.15
1011.111	2845.4899	2534.5	1647.9
1011.2288	2846.6417	2596.05	1711
1011.3465	2847.7928	2650.05	1767.3
1011.4642	2848.9433	2715.75	1832
1011.5818	2850.0931	2771.65	1887.7
1011.6995	2851.2422	2843.9	1959.05
1011.817	2852.3907	2896.1	2010.5
1011.9345	2853.5385	2936.1	2047.85
1012.052	2854.6857	3014.5	2104.05
1012.1695	2855.8323	3052.1	2168.85
1012.2869	2856.9781	3096.6	2213.5
1012.4042	2858.1233	3147.3	2262.85
1012.5216	2859.2679	3188.05	2305.3
1012.6389	2860.4118	3237.1	2352.85
1012.7561	2861.555	3285.5	2397.65
1012.8733	2862.6976	3327.8	2440.3
1012.9905	2863.8395	3367.15	2482.6
1013.1076	2864.9808	3406.65	2523.9
1013.2247	2866.1214	3405.95	2521.75
1013.3417	2867.2614	3433.8	2549.3
1013.4587	2868.4007	3462.55	2577
1013.5757	2869.5393	3451.15	2569
1013.6926	2870.6773	3472.95	2585.65
1013.8095	2871.8146	3488.7	2599.9
1013.9263	2872.9513	3494.1	2606.45
1014.0431	2874.0874	3471.45	2585.15
1014.1599	2875.2227	3493.25	2607.45
1014.2766	2876.3574	3458.6	2573.4
1014.3933	2877.4915	3434.55	2550.05
1014.51	2878.6249	3408.2	2525.2
1014.6266	2879.7577	3388.8	2502.8
1014.7431	2880.8898	3374.1	2480.7
1014.8596	2882.0212	3340.05	2457.75
1014.9761	2883.152	3322.65	2439
1015.0925	2884.2821	3322.25	2440
1015.2089	2885.4116	3311.85	2429.65
1015.3253	2886.5405	3324.7	2443.05
1015.4416	2887.6686	3340.55	2453.95
1015.5579	2888.7962	3321.8	2440.3
1015.6741	2889.923	3354.05	2470.65
1015.7903	2891.0493	3348	2465.85
1015.9065	2892.1748	3354.75	2473.8
1016.0226	2893.2997	3363.4	2479.8
1016.1387	2894.424	3386.5	2503.45
1016.2547	2895.5476	3395.15	2513.3
1016.3707	2896.6706	3434.55	2550.9
1016.4866	2897.7929	3448.75	2565.35
1016.6025	2898.9145	3473.45	2591.25
1016.7184	2900.0355	3493.95	2611.35
1016.8342	2901.1559	3530.75	2648.5
1016.95	2902.2756	3553.35	2665.65
1017.0658	2903.3946	3580.4	2698.45
1017.1815	2904.513	3604.65	2718.2
1017.2971	2905.6308	3632.75	2748.45
1017.4127	2906.7479	3649.85	2765.75
1017.5283	2907.8643	3671	2786.55
1017.6439	2908.9801	3684.05	2801.3
1017.7594	2910.0953	3698.2	2817.95
1017.8748	2911.2098	3715.45	2829.2
1017.9902	2912.3236	3699.7	2810.85
1018.1056	2913.4368	3696.75	2809.5
1018.2209	2914.5494	3655.35	2773.25
1018.3362	2915.6613	3640.45	2753.85
1018.4515	2916.7725	3606.9	2721.5
1018.5667	2917.8831	3589.7	2707.75
1018.6819	2918.9931	3550.15	2666.15
1018.797	2920.1024	3518.6	2634.15
1018.9121	2921.211	3508.05	2627.6
1019.0271	2922.319	3471.7	2589.7
1019.1421	2923.4264	3467.4	2583.6
1019.2571	2924.5331	3459.8	2579.65
1019.372	2925.6391	3456.15	2573.95
1019.4869	2926.7445	3445.1	2564.35
1019.6017	2927.8493	3454.5	2570.85
1019.7165	2928.9534	3452.05	2570.5
1019.8313	2930.0569	3463.45	2578.35
1019.946	2931.1597	3472.05	2587.9
1020.0606	2932.2619	3481.35	2597.9
1020.1753	2933.3634	3481.35	2601.7
1020.2899	2934.4643	3477	2585.85
1020.4044	2935.5645	3454.8	2567.6
1020.5189	2936.6641	3442.65	2553.25
1020.6334	2937.763	3408.1	2528.9
1020.7478	2938.8613	3385.05	2502.5
1020.8622	2939.959	3325.8	2438.8
1020.9765	2941.056	3269.95	2388.6
1021.0908	2942.1523	3198.3	2316.2
1021.2051	2943.248	3130.9	2249.15
1021.3193	2944.3431	3030.05	2147.15
1021.4334	2945.4375	2949.65	2068.95
1021.5476	2946.5313	2848.7	1966.2
1021.6617	2947.6244	2741	1856.6
1021.7757	2948.7169	2639	1755.85
1021.8897	2949.8087	2551.75	1668.95
1022.0037	2950.8999	2471.05	1587.95
1022.1176	2951.9904	2380.05	1499
1022.2315	2953.0803	2317.55	1434.95
1022.3453	2954.1696	2259.8	1378.05
1022.4591	2955.2582	2210.25	1330.75
1022.5728	2956.3462	2161.85	1280.25
1022.6865	2957.4335	2119.15	1238.95
1022.8002	2958.5202	2092.85	1207.85
1022.9138	2959.6062	2061.2	1177.15
1023.0274	2960.6916	2046.1	1165.95
1023.141	2961.7764	2025.35	1141.75
1023.2545	2962.8605	2009.1	1126.8
1023.3679	2963.9439	2002.15	1120.8
1023.4813	2965.0267	1979.8	1095.8
1023.5947	2966.1089	1989.5	1086.3
1023.708	2967.1905	1973.1	1092.7
1023.8213	2968.2714	1966.45	1085.75
1023.9346	2969.3516	1958.95	1077.3
1024.0478	2970.4312	1971.65	1082.15
1024.1609	2971.5102	1972.15	1092
1024.274	2972.5885	1971.55	1090.45
1024.3871	2973.6662	1979.6	1092.05
1024.5002	2974.7432	1975.75	1094.35
1024.6132	2975.8196	1964.7	1081.9
1024.7261	2976.8954	1957.65	1078.35
1024.839	2977.9705	1951.4	1068.85
1024.9519	2979.045	1951.65	1071.9
1025.0647	2980.1188	1926.65	1047.35
1025.1775	2981.192	1913.1	1032.5
1025.2902	2982.2645	1895.45	1014.8
1025.4029	2983.3364	1872.45	992.4
1025.5156	2984.4077	1844.25	962.05
1025.6282	2985.4783	1830.95	945
1025.7407	2986.5483	1791.35	912.7
1025.8532	2987.6177	1759.5	880.1
1025.9657	2988.6864	1733.4	851.55
1026.0782	2989.7545	1700.45	818
1026.1906	2990.8219	1663.7	783.9
1026.3029	2991.8887	1626.45	743.35
1026.4152	2992.9548	1601.95	719.8
1026.5275	2994.0204	1570.05	687.65
1026.6397	2995.0852	1537.75	659.4
1026.7519	2996.1495	1517.1	635.6
1026.864	2997.2131	1487.95	606.7
1026.9761	2998.276	1466.45	587.2
1027.0882	2999.3383	1444.4	567
1027.2002	3000.4	1418.6	537.45
1027.3122	3001.4611	1411.85	531.95
1027.4241	3002.5215	1393.05	511.65
1027.536	3003.5812	1377.9	498.35
1027.6478	3004.6404	1362.45	482.85
1027.7596	3005.6989	1349.3	465.75
1027.8714	3006.7567	1340.2	459.1
1027.9831	3007.8139	1361.2	449.8
1028.0947	3008.8705	1325.6	446.15
1028.2064	3009.9264	1315.75	433.7
1028.3179	3010.9818	1306.95	426.6
1028.4295	3012.0364	1300.2	420.15
1028.541	3013.0905	1289.8	409.3
1028.6524	3014.1439	1291	410.65
1028.7638	3015.1966	1286.35	405.7
1028.8752	3016.2487	1283.5	400.65
1028.9865	3017.3002	1287.45	402.1
1029.0978	3018.3511	1270	389.35
1029.209	3019.4013	1271.7	390.5
1029.3202	3020.4509	1273.5	391.75
1029.4314	3021.4998	1263	382.2
1029.5425	3022.5481	1267.8	388.3
1029.6535	3023.5958	1264.4	382.85
1029.7645	3024.6428	1263	380.3
1029.8755	3025.6892	1263.25	381.7
1029.9864	3026.735	1259.45	380.4
1030.0973	3027.7802	1261.85	381.9
1030.2082	3028.8247	1260.4	377.35
1030.319	3029.8685	1264.3	384.1
1030.4297	3030.9118	1263.3	382.65
1030.5404	3031.9544	1261.55	383.25
1030.6511	3032.9963	1269.4	388.35
1030.7617	3034.0376	1267.75	389.2
1030.8723	3035.0783	1272.9	390.4
1030.9829	3036.1184	1283.15	402.1
1031.0934	3037.1578	1283.7	404.05
1031.2038	3038.1966	1282.45	400.6
1031.3142	3039.2348	1280.35	400.6
1031.4246	3040.2723	1287.9	399.6
1031.5349	3041.3092	1279.2	400.2
1031.6452	3042.3455	1281.45	401.6
1031.7554	3043.3811	1275	393.75
1031.8656	3044.4161	1274.1	394.15
1031.9758	3045.4505	1272.5	393.05
1032.0859	3046.4842	1277.75	400.55
1032.1959	3047.5173	1270.45	391.45
1032.3059	3048.5498	1261.95	382.35
1032.4159	3049.5816	1263.45	384.55
1032.5258	3050.6128	1264	383.05
1032.6357	3051.6434	1258.1	378.1
1032.7455	3052.6734	1253.65	374
1032.8553	3053.7027	1252.85	372.45
1032.9651	3054.7314	1241.4	365.05
1033.0748	3055.7594	1245.6	367.05
1033.1845	3056.7868	1242.1	361.95
1033.2941	3057.8136	1235.5	354.15
1033.4037	3058.8398	1234.65	354.85
1033.5132	3059.8653	1230.9	351.55
1033.6227	3060.8902	1226.6	347.55
1033.7321	3061.9145	1231.6	352.25
1033.8415	3062.9381	1224.85	346.45
1033.9509	3063.9612	1238	343.2
1034.0602	3064.9835	1220.35	339.8
1034.1694	3066.0053	1217.05	335.1
1034.2787	3067.0264	1210.4	332.05
1034.3878	3068.0469	1212.8	331.35
1034.497	3069.0668	1204.65	320.75
1034.6061	3070.086	1194.7	314.25
1034.7151	3071.1046	1194.6	313.85
1034.8241	3072.1226	1191.65	311.55
1034.9331	3073.1399	1180.35	301.8
1035.042	3074.1567	1172.2	291.9
1035.1508	3075.1727	1169.95	287.9
1035.2597	3076.1882	1161.1	282.65
1035.3684	3077.203	1156.65	276.3
1035.4772	3078.2173	1152.8	271.05
1035.5859	3079.2308	1142.35	259.4
1035.6945	3080.2438	1141.15	259.4
1035.8031	3081.2561	1127.45	249.8
1035.9117	3082.2678	1121	241.4
1036.0202	3083.2789	1118.5	240.8
1036.1286	3084.2893	1113.95	236.4
1036.2371	3085.2991	1107.8	228.25
1036.3454	3086.3083	1105.35	221.7
1036.4538	3087.3169	1100.1	218.8
1036.562	3088.3248	1089.65	207.85
1036.6703	3089.3321	1089.15	207.35
1036.7785	3090.3388	1084.2	206.2
1036.8866	3091.3449	1078.55	201.4
1036.9948	3092.3503	1080.5	199.4
1037.1028	3093.3551	1071.65	195.05
1037.2108	3094.3593	1071.65	193.45
1037.3188	3095.3629	1067.75	189.5
1037.4267	3096.3658	1067.4	188.9
1037.5346	3097.3681	1062.8	183.45
1037.6425	3098.3698	1056.6	176.05
1037.7503	3099.3708	1063.2	176.45
1037.858	3100.3713	1060.2	183.05
1037.9657	3101.3711	1055.45	175.6
1038.0734	3102.3702	1166.9	170.35
1038.181	3103.3688	1050.85	169.05
1038.2886	3104.3667	1045	166.7
1038.3961	3105.364	1044.3	165.3
1038.5036	3106.3607	1041.1	160.4
1038.611	3107.3568	1043.35	163.7
1038.7184	3108.3522	1039.75	163.65
1038.8257	3109.347	1035.55	156.5
1038.933	3110.3412	1040.85	158.45
1039.0403	3111.3348	1034.35	156.2
1039.1475	3112.3277	1033.95	153
1039.2547	3113.32	1026.25	148.75
1039.3618	3114.3117	1027.85	146.2
1039.4689	3115.3028	1025.5	146.6
1039.5759	3116.2932	1026.45	145.45
1039.6829	3117.2831	1025.7	142.6
1039.7898	3118.2723	1022.05	145.65
1039.8967	3119.2608	1018.75	140.8
1040.0035	3120.2488	1019.65	140.45
1040.1103	3121.2361	1017.15	138.6
1040.2171	3122.2229	1018.3	140.15
1040.3238	3123.209	1015.5	135.95
1040.4305	3124.1944	1009.25	131.15
1040.5371	3125.1793	1015.8	135.35
1040.6437	3126.1635	1011.65	133.6
1040.7502	3127.1471	1007.95	129.65
1040.8567	3128.1301	1009.4	131
1040.9631	3129.1125	1005.8	127.45
1041.0695	3130.0942	1002.05	120.95
1041.1759	3131.0753	1014.95	127.85
1041.2822	3132.0558	999.9	118.9
1041.3884	3133.0357	1000.45	121.4
1041.4946	3134.015	999.55	120
1041.6008	3134.9936	1002.9	125
1041.7069	3135.9716	1015.85	117.3
1041.813	3136.949	997.25	118.85
1041.919	3137.9258	1017.4	120.9
1042.025	3138.902	1001.8	117.95
1042.1309	3139.8775	996.25	116.55
1042.2368	3140.8524	988.8	109.55
1042.3427	3141.8267	994.4	115.4
1042.4485	3142.8004	988.95	109.1
1042.5542	3143.7735	998.75	116
1042.6599	3144.7459	991.2	113.05
1042.7656	3145.7178	988	106.45
1042.8712	3146.689	987.35	111
1042.9768	3147.6596	986.25	107.5
1043.0823	3148.6295	987.9	111.15
1043.1878	3149.5989	986.6	110.75
1043.2932	3150.5676	985.65	108.85
1043.3986	3151.5357	981.3	104
1043.5039	3152.5032	981.6	105.6
1043.6092	3153.4701	982.75	101.85
1043.7145	3154.4364	983.75	101.65
1043.8197	3155.402	977.9	100.35
1043.9248	3156.367	981.05	100.1
1044.03	3157.3315	1015.45	101.75
1044.135	3158.2952	979.95	103.9
1044.24	3159.2584	977.95	99.4
1044.345	3160.221	979.75	100.6
1044.4499	3161.1829	975.75	97.05
1044.5548	3162.1442	976.7	98.4
1044.6596	3163.105	972.9	96.2
1044.7644	3164.065	971.45	90.95
1044.8692	3165.0245	976.45	94.7
1044.9739	3165.9834	969.9	93.4
1045.0785	3166.9416	970.2	92.5
1045.1831	3167.8993	971.1	94.2
1045.2877	3168.8563	968.25	89.3
1045.3922	3169.8127	969.15	92.45
1045.4966	3170.7684	967.75	89.55
1045.6011	3171.7236	965.7	85.5
1045.7054	3172.6782	969.65	92.7
1045.8098	3173.6321	969.55	90.95
1045.914	3174.5854	971.5	92.7
1046.0183	3175.5381	970.75	92.8
1046.1224	3176.4902	966.35	90.5
1046.2266	3177.4417	960.05	83.05
1046.3307	3178.3926	966.85	90.15
1046.4347	3179.3428	962.95	86.25
1046.5387	3180.2924	962.95	86.4
1046.6427	3181.2415	961.95	83.8
1046.7466	3182.1899	966.15	87.3
1046.8504	3183.1377	959.65	82.55
1046.9542	3184.0848	960.1	78.5
1047.058	3185.0314	962.5	85.15
1047.1617	3185.9773	962.3	84.8
1047.2654	3186.9227	957.25	80.7
1047.369	3187.8674	959.5	82.35
1047.4726	3188.8115	957.3	75.85
1047.5761	3189.755	957.1	81.1
1047.6796	3190.6979	955.35	76.8
1047.783	3191.6402	956.7	79.5
1047.8864	3192.5818	957.1	80.5
1047.9898	3193.5229	960.1	76.15
1048.0931	3194.4633	956.55	80.5
1048.1963	3195.4031	957.85	81.35
1048.2995	3196.3423	954.7	77.15
1048.4027	3197.2809	955.9	79.85
1048.5058	3198.2189	951.95	74.95
1048.6089	3199.1563	970.05	76.25
1048.7119	3200.0931	952.3	77.5
1048.8148	3201.0292	949.75	75.05
1048.9178	3201.9648	952.3	74.3
1049.0206	3202.8997	954.5	73.5
1049.1235	3203.834	952.9	74.2
1049.2262	3204.7677	948.85	70.2
1049.329	3205.7008	949.15	69.7
1049.4317	3206.6333	946.95	72.1
1049.5343	3207.5652	951.4	72
1049.6369	3208.4964	949	71.15
1049.7394	3209.4271	943.05	68.05
1049.8419	3210.3571	947.15	69.95
1049.9444	3211.2865	945	64.95
1050.0468	3212.2154	948	69.25
1050.1491	3213.1436	947.8	68
1050.2514	3214.0712	951.2	66.75
1050.3537	3214.9982	948	71.45
1050.4559	3215.9246	945.25	66.35
1050.5581	3216.8503	945.8	70.75
1050.6602	3217.7755	944.4	67.15
1050.7623	3218.7001	948.5	70.95
1050.8643	3219.624	943.15	66.9
1050.9663	3220.5473	946.65	69.55
1051.0682	3221.4701	943.85	65.1
1051.1701	3222.3922	946.35	67.4
1051.2719	3223.3137	942.35	65.6
1051.3737	3224.2346	940.2	61.6
1051.4754	3225.1549	938.55	61.2
1051.5771	3226.0746	941.15	64.1
1051.6788	3226.9937	937.3	60.3
1051.7804	3227.9121	942.45	65.6
1051.8819	3228.83	937.75	60.95
1051.9834	3229.7473	940.8	63.3
1052.0849	3230.6639	939.4	60.9
1052.1863	3231.5799	941.05	64.5
1052.2876	3232.4954	940.5	62.2
1052.3889	3233.4102	936.7	60.7
1052.4902	3234.3244	935.7	56.25
1052.5914	3235.238	936.25	59.35
1052.6926	3236.151	958.7	57.65
1052.7937	3237.0634	930.2	55.65
1052.8948	3237.9752	935.8	60.6
1052.9958	3238.8864	935.4	57.75
1053.0968	3239.797	935.8	59
1053.1977	3240.7069	936.35	58.4
1053.2986	3241.6163	933.6	54.85
1053.3994	3242.5251	933.2	57.95
1053.5002	3243.4332	929.35	55.95
1053.6009	3244.3408	933.2	56.3
1053.7016	3245.2477	932.65	55.95
1053.8022	3246.154	931.25	51.2
1053.9028	3247.0598	931.5	53.85
1054.0034	3247.9649	929.5	51.45
1054.1039	3248.8694	932.25	54.95
1054.2043	3249.7733	931.9	57.1
1054.3047	3250.6766	931.6	55.3
1054.4051	3251.5793	931.25	53.7
1054.5054	3252.4814	929.25	55.45
1054.6056	3253.3829	926	50.7
1054.7058	3254.2838	926.1	50.65
1054.806	3255.1841	923.6	47
1054.9061	3256.0838	926.65	50.05
1055.0061	3256.9829	924	49.8
1055.1062	3257.8814	929.05	50.75
1055.2061	3258.7792	929.1	50.7
1055.306	3259.6765	926.15	47.35
1055.4059	3260.5731	923.6	47.85
1055.5057	3261.4692	923.95	46.9
1055.6055	3262.3647	921.75	44.8
1055.7052	3263.2595	921.9	45.95
1055.8049	3264.1538	921.3	45.45
1055.9045	3265.0474	922.15	46.8
1056.0041	3265.9404	917.2	43.25
1056.1036	3266.8329	915.95	42.35
1056.2031	3267.7247	929	42.7
1056.3025	3268.616	915.3	40.85
1056.4019	3269.5066	916.35	38.8
1056.5013	3270.3966	917.4	39.1
1056.6005	3271.286	913.85	36.7
