Software Version:	3.9.2.0
Unit SN:	10000200
Spectrometer SN:	6960
Date:	3/8/2024 12:53:24 PM
Data Line Index:	25
Spectral Points:	2048
Integration time (ms):	125
Averages:	20
Delay (ms):	30000
Sequence Number:	1
Processing:	dark subtract
Laser Power (mW):	305
Laser Current (mA):	823
Laser Diode Temp (C):	25
Laser Case Temp (C):	26.1
System Temp (C):	26.1
Spectrometer Temp (C):	23.9
CCD Temp (C):	0.008
Secondary Temp (C):	20.011
Heatsink Temp (C):	20.333
CCDPCB Temp (C):	35.884
SecondaryPCB Temp (C):	30.371

Wavelength	RamanShift	Raw Counts	Dark Subtracted
787.061	30.1047	452.3	44.8
787.2016	32.3739	452.5	47.3
787.3422	34.6426	458.85	51.8
787.4828	36.9109	464.6	54.5
787.6235	39.1787	470.25	57.05
787.7642	41.4461	483	63.25
787.9049	43.7131	488.1	65.35
788.0456	45.9796	498.1	73.4
788.1863	48.2456	507.9	77.45
788.3271	50.5112	515.65	82.7
788.4679	52.7764	519.15	84.5
788.6087	55.0411	539.1	99.95
788.7496	57.3054	548.45	101.7
788.8904	59.5692	556.4	108.85
789.0313	61.8326	560.35	110.7
789.1722	64.0955	573.7	121.45
789.3132	66.3579	590.7	131.5
789.4541	68.6199	610.05	148.25
789.5951	70.8815	643.65	177.8
789.7361	73.1426	732.25	259.4
789.8771	75.4032	936.1	460.2
790.0181	77.6634	1432.4	951.2
790.1592	79.9231	2624.2	2134.3
790.3003	82.1824	5174.35	4667.9
790.4414	84.4412	9777	9232
790.5825	86.6995	16014.4	15430.45
790.7237	88.9574	22035	21408.95
790.8648	91.2148	26121.25	25467.4
791.006	93.4717	27941.25	27273.5
791.1472	95.7282	28186	27506.05
791.2885	97.9842	27833.7	27149.85
791.4297	100.2398	27071.45	26390.2
791.571	102.4949	26286.3	25597.55
791.7123	104.7495	25344.25	24654.15
791.8536	107.0036	24409.55	23718.7
791.9949	109.2573	23583.25	22896.75
792.1363	111.5105	22845.15	22152.15
792.2777	113.7632	22134.55	21437.7
792.4191	116.0154	21519.05	20813.4
792.5605	118.2672	21110.45	20411.25
792.7019	120.5185	20716	20013.5
792.8434	122.7693	20363.4	19659.75
792.9849	125.0197	20081.5	19370.45
793.1264	127.2696	19822.45	19111.55
793.2679	129.519	19574.1	18858.7
793.4094	131.7679	19351.35	18630.75
793.551	134.0163	19050.25	18323.25
793.6926	136.2642	18706.65	17979.25
793.8342	138.5117	18367.3	17633.15
793.9758	140.7587	17990.85	17260.1
794.1175	143.0052	17693.1	16957.6
794.2591	145.2512	17344.45	16611.65
794.4008	147.4967	17072.45	16341.05
794.5425	149.7417	16839.05	16104.15
794.6842	151.9863	16639.9	15902.7
794.826	154.2304	16533.5	15790.1
794.9677	156.4739	16366.75	15612.8
795.1095	158.717	16262	15506.3
795.2513	160.9596	16099.7	15342.75
795.3931	163.2017	15821.6	15066.2
795.535	165.4433	15521.45	14763.75
795.6768	167.6844	15182.05	14422.7
795.8187	169.925	14877.3	14116.65
795.9606	172.1651	14507.85	13743.4
796.1025	174.4047	14235.6	13468.05
796.2445	176.6439	14006.1	13236.05
796.3864	178.8825	13764.8	12991.2
796.5284	181.1206	13623.45	12845.95
796.6704	183.3582	13466.65	12686.55
796.8124	185.5954	13376.45	12589.8
796.9544	187.832	13298.7	12512
797.0965	190.0681	13270.35	12480.55
797.2386	192.3037	13270.4	12476.45
797.3806	194.5388	13254.6	12458.05
797.5228	196.7734	13307.5	12509
797.6649	199.0075	13351.2	12551.45
797.807	201.2411	13471.1	12669.35
797.9492	203.4742	13557	12753.7
798.0914	205.7068	13710.7	12901.85
798.2336	207.9389	13859.15	13052.95
798.3758	210.1704	13998.5	13189.85
798.518	212.4015	14073	13280.75
798.6603	214.632	14238.65	13455.05
798.8025	216.862	14385.35	13600.75
798.9448	219.0915	14476.4	13692.9
799.0871	221.3205	14621.4	13829.35
799.2294	223.549	14741.35	13957.2
799.3718	225.777	14869.05	14084.3
799.5141	228.0044	15040.2	14244.5
799.6565	230.2314	15238.45	14444.65
799.7989	232.4578	15425.75	14630.55
799.9413	234.6837	15563.2	14763.55
800.0837	236.909	15694.25	14886
800.2262	239.1339	15682.2	14851.6
800.3687	241.3582	15582.95	14762.15
800.5111	243.582	15438.85	14589.2
800.6536	245.8053	15309.35	14475.95
800.7961	248.0281	15179.3	14350.25
800.9387	250.2503	15152.5	14322.6
801.0812	252.472	15145.75	14310.45
801.2238	254.6932	15246.95	14415.35
801.3664	256.9139	15307	14472.55
801.509	259.134	15486.35	14645.95
801.6516	261.3536	15676.05	14837.75
801.7942	263.5727	15958.35	15119.4
801.9369	265.7912	16171.25	15332.5
802.0795	268.0092	16374.2	15532.5
802.2222	270.2267	16547.55	15706.05
802.3649	272.4436	16645.05	15802.7
802.5076	274.6601	16637.5	15787.5
802.6504	276.8759	16567.7	15722.5
802.7931	279.0913	16464.3	15619.05
802.9359	281.3061	16306.8	15460.7
803.0787	283.5204	16284.2	15429
803.2215	285.7341	16291.4	15429.4
803.3643	287.9473	16327.65	15461.8
803.5071	290.16	16410.65	15551.55
803.6499	292.3721	16555.75	15703.55
803.7928	294.5837	16808.75	15954.95
803.9357	296.7947	17106.75	16255.55
804.0786	299.0052	17231.3	16377.45
804.2215	301.2152	17190.05	16336
804.3644	303.4246	16949.85	16100.05
804.5074	305.6334	16550.5	15696.7
804.6503	307.8418	16159.15	15302.1
804.7933	310.0495	15728.1	14867.35
804.9363	312.2568	15329.8	14471.45
805.0793	314.4635	14952.75	14092
805.2223	316.6696	14713.7	13848.4
805.3653	318.8752	14516.9	13643.4
805.5084	321.0802	14469.65	13604.7
805.6514	323.2847	14524.25	13655.6
805.7945	325.4887	14552.45	13686.75
805.9376	327.692	14535.75	13667.2
806.0807	329.8949	14454.9	13585.45
806.2238	332.0972	14219.05	13347.6
806.367	334.2989	14028	13155.75
806.5101	336.5001	13761	12886.1
806.6533	338.7007	13550.75	12674.8
806.7965	340.9008	13425.1	12551.5
806.9397	343.1003	13248.5	12374.05
807.0829	345.2992	13148.15	12269.65
807.2261	347.4976	13069.15	12191.05
807.3693	349.6955	13053.55	12168.1
807.5126	351.8927	13015.95	12129.7
807.6559	354.0895	12955.95	12061.5
807.7991	356.2856	12945.2	12061.05
807.9424	358.4812	12893.65	12008
808.0857	360.6763	12908.35	12015.55
808.2291	362.8707	12893	11996.45
808.3724	365.0646	12930.9	12035.4
808.5158	367.258	12966.6	12073.45
808.6591	369.4508	13049.35	12151.95
808.8025	371.643	13167.55	12267.9
808.9459	373.8346	13220.9	12322.85
809.0893	376.0257	13276.3	12374.2
809.2327	378.2162	13291.2	12395.8
809.3762	380.4062	13247.55	12347.4
809.5196	382.5956	13110.65	12214.5
809.6631	384.7844	13031.9	12139.9
809.8066	386.9726	12905.85	12012.9
809.9501	389.1603	12823.85	11934.15
810.0936	391.3474	12777.35	11865.4
810.2371	393.5339	12736.05	11842.55
810.3806	395.7199	12689.4	11800.5
810.5241	397.9052	12747.55	11855.3
810.6677	400.09	12802.9	11911.8
810.8113	402.2743	12919.35	12030.4
810.9548	404.4579	13083.95	12192.45
811.0984	406.641	13284.65	12395.2
811.2421	408.8235	13501.1	12607.6
811.3857	411.0054	13643.75	12747.9
811.5293	413.1868	13900.15	12997.15
811.673	415.3675	13982.1	13074.35
811.8166	417.5477	14069.95	13160.9
811.9603	419.7273	14064.75	13163.9
812.104	421.9064	13952.1	13044.6
812.2477	424.0848	13880.7	12977.25
812.3914	426.2627	13729.35	12822.65
812.5351	428.4399	13471.4	12563
812.6788	430.6166	13140	12230.1
812.8226	432.7928	12809.05	11897.35
812.9663	434.9683	12493.3	11586.65
813.1101	437.1432	12286.65	11378.55
813.2539	439.3176	12119.9	11220.5
813.3977	441.4914	12000.9	11103.8
813.5415	443.6645	11955.75	11055.85
813.6853	445.8371	11919.75	11016.55
813.8291	448.0091	11864.65	10958.3
813.973	450.1806	11840.15	10936.8
814.1168	452.3514	11838.6	10938.5
814.2607	454.5216	11865.1	10950.65
814.4046	456.6913	11850.55	10946.55
814.5485	458.8603	11888.65	10984.4
814.6924	461.0288	11945.05	11044.15
814.8363	463.1967	11915.45	11024.25
814.9802	465.3639	11964.8	11062
815.1241	467.5306	11956.9	11053.75
815.2681	469.6967	11994.75	11100.45
815.412	471.8622	12049.65	11152.15
815.556	474.0271	12143.4	11244.2
815.7	476.1914	12184.25	11272.75
815.844	478.3551	12194.05	11286.15
815.988	480.5182	12207.2	11305.2
816.132	482.6807	12280	11383.25
816.276	484.8426	12469.25	11581.95
816.4201	487.0039	12760.25	11865.65
816.5641	489.1647	13176.35	12267.35
816.7082	491.3248	13526.15	12622
816.8522	493.4843	13637.35	12740.05
816.9963	495.6432	13606.8	12703.85
817.1404	497.8015	13486.25	12575.6
817.2845	499.9592	13403.7	12486.35
817.4286	502.1163	13215.55	12298.7
817.5727	504.2728	12915.2	12004.4
817.7168	506.4287	12598.1	11703.5
817.861	508.5839	12295.2	11403.5
818.0051	510.7386	12070.3	11170.3
818.1493	512.8927	11969.6	11051.25
818.2935	515.0461	11927.65	11017.1
818.4377	517.199	11955.95	11040.7
818.5818	519.3512	12126.3	11210.1
818.726	521.5029	12363.7	11443.4
818.8703	523.6539	12583.45	11669.4
819.0145	525.8043	12678	11762.85
819.1587	527.9541	12615.95	11697.3
819.303	530.1033	12480.75	11562.95
819.4472	532.2519	12371.05	11455.5
819.5915	534.3999	12326.25	11409.95
819.7357	536.5472	12448.1	11533.65
819.88	538.694	12705.75	11794.1
820.0243	540.8401	13020.25	12103.45
820.1686	542.9856	13280.25	12349.55
820.3129	545.1305	13377.55	12440.15
820.4572	547.2748	13286.05	12350.5
820.6016	549.4185	13050.55	12112.15
820.7459	551.5615	12873.4	11938.9
820.8902	553.704	12858.5	11924.9
821.0346	555.8458	12916.4	11984.15
821.1789	557.987	13045.5	12120
821.3233	560.1276	13249.45	12324.6
821.4677	562.2675	13587.4	12661
821.6121	564.4069	14006.85	13076.4
821.7565	566.5456	14383.25	13459.35
821.9009	568.6837	14473.05	13548.4
822.0453	570.8212	14106.4	13181.2
822.1897	572.958	13501.6	12578
822.3342	575.0942	12917.05	11992.2
822.4786	577.2299	12501.9	11585.45
822.6231	579.3648	12333.35	11425.6
822.7675	581.4992	12291.85	11396.05
822.912	583.6329	12409	11516.35
823.0565	585.766	12571.3	11669.9
823.201	587.8985	12714.05	11806.45
823.3454	590.0304	12788.7	11846.25
823.4899	592.1616	12704.9	11772.45
823.6345	594.2922	12596.55	11663.45
823.779	596.4222	12419.55	11487
823.9235	598.5515	12230.7	11291.9
824.068	600.6802	12061.3	11127.15
824.2126	602.8083	11872.8	10942.95
824.3571	604.9358	11857.6	10927.35
824.5017	607.0626	11879.95	10945.4
824.6462	609.1888	11969.8	11031.15
824.7908	611.3144	12099.8	11160.15
824.9354	613.4393	12165.55	11229.05
825.08	615.5636	12236.8	11299.4
825.2246	617.6873	12221.75	11284.55
825.3692	619.8103	12164.25	11226.8
825.5138	621.9327	11984.4	11050
825.6584	624.0544	11777.45	10847.2
825.803	626.1756	11642.45	10714.95
825.9477	628.2961	11520.45	10582.5
826.0923	630.4159	11429.35	10492.95
826.237	632.5351	11403.35	10468.5
826.3816	634.6537	11374.55	10436.2
826.5263	636.7716	11353.2	10405.75
826.6709	638.8889	11381.35	10432.75
826.8156	641.0056	11419.55	10473.1
826.9603	643.1216	11400.6	10458.6
827.105	645.237	11381.95	10441.35
827.2497	647.3518	11305.8	10374.8
827.3944	649.4659	11248.35	10318.4
827.5391	651.5793	11232.6	10300.9
827.6838	653.6922	11205.95	10273.7
827.8285	655.8043	11193.75	10258
827.9733	657.9159	11186.1	10249.75
828.118	660.0268	11148.75	10215.15
828.2627	662.137	11145.75	10204.6
828.4075	664.2466	11140.6	10194.35
828.5522	666.3556	11130.8	10187.1
828.697	668.4639	11059.55	10120.25
828.8418	670.5716	11058.2	10127.45
828.9865	672.6786	11066.9	10125.55
829.1313	674.785	11021.05	10074.55
829.2761	676.8907	11030.1	10088.5
829.4209	678.9958	11055.5	10120.5
829.5657	681.1002	11028.4	10086.05
829.7105	683.204	11012.1	10065.45
829.8553	685.3072	10999	10052.1
830.0001	687.4097	10978.2	10034.85
830.1449	689.5115	10932.75	9988.15
830.2898	691.6127	10939.5	9997.05
830.4346	693.7132	10903.6	9966.05
830.5794	695.8131	10937.75	9986.4
830.7243	697.9123	10946.85	9996.45
830.8691	700.0109	10970.5	10016.85
831.014	702.1089	10982.05	10031.85
831.1588	704.2061	11007.65	10061.2
831.3037	706.3028	11062.85	10109.2
831.4486	708.3987	11119.75	10167.45
831.5935	710.4941	11153.4	10202.55
831.7383	712.5887	11228.35	10284.85
831.8832	714.6827	11346.35	10397.85
832.0281	716.7761	11514.35	10573.4
832.173	718.8688	11726.35	10779.35
832.3179	720.9608	11884.95	10934.1
832.4628	723.0522	12018.9	11061.2
832.6077	725.1429	12039.1	11085.9
832.7527	727.233	12013.2	11063.35
832.8976	729.3224	12019.15	11071.65
833.0425	731.4112	11902.45	10951.8
833.1874	733.4993	11773.1	10825.25
833.3324	735.5867	11569.6	10619.95
833.4773	737.6735	11371.55	10421.95
833.6222	739.7596	11206.15	10254.7
833.7672	741.845	11054.5	10104.85
833.9122	743.9298	10987.5	10035.65
834.0571	746.014	10970.65	10019.85
834.2021	748.0974	10946.65	9990.85
834.347	750.1802	10972.4	10014.85
834.492	752.2624	10974.35	10022.95
834.637	754.3439	11058.65	10102.85
834.782	756.4247	11142	10178.65
834.9269	758.5048	11300.45	10343.9
835.0719	760.5843	11625.45	10666
835.2169	762.6631	12013.2	11055.35
835.3619	764.7413	12560.85	11607.9
835.5069	766.8188	13277.9	12325.4
835.6519	768.8956	13804.85	12847.7
835.7969	770.9718	14181.2	13223.4
835.9419	773.0473	14067	13109.25
836.0869	775.1221	13795.5	12839.65
836.232	777.1962	13519.95	12566.65
836.377	779.2697	13418.8	12460.1
836.522	781.3426	13444.7	12475.25
836.667	783.4147	13564.8	12604.9
836.8121	785.4862	13695.7	12736.55
836.9571	787.557	13537.85	12573.85
837.1021	789.6271	13086.7	12126
837.2472	791.6966	12495.75	11538.25
837.3922	793.7654	11917.25	10958.35
837.5373	795.8335	11508	10548.45
837.6823	797.901	11227.85	10269.95
837.8274	799.9678	11117.2	10157.95
837.9724	802.0339	10996.35	10034.9
838.1175	804.0993	10999.35	10030
838.2626	806.1641	10941.8	9980
838.4076	808.2282	10856.6	9901.95
838.5527	810.2916	10784.9	9825.6
838.6978	812.3544	10696.95	9742.5
838.8428	814.4164	10649.65	9693.6
838.9879	816.4778	10674.4	9712.1
839.133	818.5385	10728.6	9761.45
839.2781	820.5986	10838	9873.2
839.4232	822.658	11077.5	10114.85
839.5682	824.7166	11369.55	10409.15
839.7133	826.7747	11836.15	10872.8
839.8584	828.832	12323.5	11359.35
840.0035	830.8886	12651.2	11683.4
840.1486	832.9446	12835.85	11868.35
840.2937	834.9999	12698.85	11736.6
840.4388	837.0545	12478.75	11513.3
840.5839	839.1085	12172.8	11208
840.729	841.1618	11899.7	10931.6
840.8741	843.2143	11685.5	10719.2
841.0192	845.2662	11534.6	10572.55
841.1643	847.3175	11411.8	10446.75
841.3095	849.368	11298.15	10336.5
841.4546	851.4179	11200.45	10235.9
841.5997	853.467	11072.5	10110.95
841.7448	855.5155	11021.8	10058.5
841.8899	857.5633	10929.75	9967.15
842.0351	859.6105	10819.35	9856.4
842.1802	861.6569	10763	9802
842.3253	863.7027	10704.35	9738.65
842.4704	865.7478	10656.2	9688.15
842.6156	867.7922	10619.2	9654.75
842.7607	869.8359	10630.3	9666.35
842.9058	871.8789	10673.6	9708
843.0509	873.9212	10788.05	9791.1
843.1961	875.9629	10864.05	9898.25
843.3412	878.0039	10968.3	10003.05
843.4863	880.0441	11073.25	10112.4
843.6315	882.0837	11132.75	10172.3
843.7766	884.1226	11146.05	10182.7
843.9218	886.1609	11158.1	10198.35
844.0669	888.1984	11246.6	10283.1
844.212	890.2352	11354.7	10393.75
844.3572	892.2714	11330.2	10358.1
844.5023	894.3069	11303.55	10337.3
844.6475	896.3416	11155.75	10189.05
844.7926	898.3757	11021.05	10053.45
844.9377	900.4091	10950.05	9981.7
845.0829	902.4418	10969.7	9994.15
845.228	904.4739	10978.45	10004.15
845.3732	906.5052	11000.8	10027.65
845.5183	908.5358	10946.65	9975.1
845.6635	910.5658	10833.85	9863
845.8086	912.595	10624	9653.8
845.9538	914.6236	10439.5	9470.9
846.0989	916.6515	10328.5	9361.25
846.2441	918.6786	10231.9	9261.85
846.3892	920.7051	10270.4	9301.05
846.5344	922.7309	10310.55	9339.1
846.6795	924.756	10346.35	9378.95
846.8246	926.7804	10417.8	9450.15
846.9698	928.8041	10416.25	9449.7
847.1149	930.8272	10463.55	9494.25
847.2601	932.8495	10439	9467.8
847.4052	934.8711	10421.7	9450.85
847.5504	936.892	10368.9	9399.7
847.6955	938.9123	10338.1	9366.9
847.8407	940.9318	10316.9	9348.95
847.9858	942.9506	10284.7	9313.95
848.131	944.9688	10231.25	9264.3
848.2761	946.9862	10144.55	9179.2
848.4213	949.003	10030.7	9062.4
848.5664	951.019	9949	8980.2
848.7115	953.0344	9887.5	8917.05
848.8567	955.0491	9876.2	8909.7
849.0018	957.063	9945.05	8977.25
849.147	959.0763	10008	9044.35
849.2921	961.0888	10067.75	9103.1
849.4373	963.1007	10136.75	9172.45
849.5824	965.1119	10149.4	9192.9
849.7275	967.1223	10147.35	9197.1
849.8727	969.1321	10126.5	9177.9
850.0178	971.1412	10117.7	9160.25
850.1629	973.1495	10113	9147.65
850.3081	975.1572	10180.65	9170.85
850.4532	977.1641	10162.9	9195
850.5983	979.1704	10141.2	9171.75
850.7435	981.1759	10123.9	9150.7
850.8886	983.1808	10152.65	9180.15
851.0337	985.1849	10203.55	9222.4
851.1788	987.1884	10263.1	9293.3
851.324	989.1911	10368	9397.3
851.4691	991.1932	10432	9465.6
851.6142	993.1945	10462.85	9498.6
851.7593	995.1951	10428.8	9462.2
851.9045	997.1951	10424.65	9449.05
852.0496	999.1943	10369.5	9404.45
852.1947	1001.1928	10351.8	9384.3
852.3398	1003.1906	10400.75	9430.75
852.4849	1005.1877	10507.45	9539.7
852.63	1007.1841	10584.65	9619
852.7751	1009.1798	10583.45	9618.3
852.9202	1011.1748	10471.6	9503.95
853.0653	1013.1691	10328.5	9360.8
853.2104	1015.1627	10127.75	9160.5
853.3555	1017.1556	9924.1	8958.45
853.5006	1019.1477	9751.45	8790
853.6457	1021.1392	9686.85	8729.55
853.7908	1023.1299	9647.35	8697.65
853.9359	1025.12	9671.05	8723.1
854.081	1027.1093	9726.2	8795
854.2261	1029.0979	9813.25	8882
854.3712	1031.0859	9926.95	8988.65
854.5163	1033.0731	9952.65	9001.9
854.6613	1035.0596	9935.45	8981.6
854.8064	1037.0454	9813	8854.6
854.9515	1039.0304	9707.95	8746.4
855.0965	1041.0148	9570.05	8609.65
855.2416	1042.9985	9500.15	8534
855.3867	1044.9814	9446.15	8481.65
855.5317	1046.9636	9406.75	8441.9
855.6768	1048.9452	9411.5	8452.85
855.8219	1050.926	9432.4	8473
855.9669	1052.9061	9451.8	8488.9
856.112	1054.8855	9449.3	8485.55
856.257	1056.8642	9501.6	8539.15
856.4021	1058.8421	9556.2	8583.85
856.5471	1060.8194	9598.05	8629.95
856.6921	1062.7959	9634.25	8672.35
856.8372	1064.7717	9704.8	8742.3
856.9822	1066.7469	9763.4	8799.25
857.1272	1068.7213	9823.8	8857.8
857.2723	1070.695	9913.9	8950.6
857.4173	1072.6679	9885.3	8918.8
857.5623	1074.6402	9914	8946.45
857.7073	1076.6117	9889.55	8919.8
857.8523	1078.5826	9785.3	8820.4
857.9973	1080.5527	9694	8724.35
858.1423	1082.5221	9602.75	8638.1
858.2873	1084.4908	9605.9	8642.85
858.4323	1086.4587	9679.95	8716.3
858.5773	1088.426	9735.85	8773.4
858.7223	1090.3925	9738.7	8770.6
858.8673	1092.3584	9778.65	8813.05
859.0123	1094.3235	9764.95	8796.15
859.1573	1096.2879	9821.1	8857.2
859.3022	1098.2515	9926.75	8966.05
859.4472	1100.2145	10073.8	9111.65
859.5922	1102.1767	10248.2	9286.8
859.7371	1104.1382	10463.65	9501.1
859.8821	1106.099	10732.35	9770.3
860.027	1108.0591	10925.2	9963.35
860.172	1110.0185	11074	10110.25
860.3169	1111.9771	11154.9	10193
860.4619	1113.9351	11038.85	10078.7
860.6068	1115.8923	10899.9	9935.5
860.7517	1117.8488	10711.9	9750.25
860.8967	1119.8045	10515.05	9549.55
861.0416	1121.7596	10384.3	9422.25
861.1865	1123.7139	10287.55	9328.75
861.3314	1125.6675	10236.05	9275.2
861.4763	1127.6204	10272.7	9310.7
861.6212	1129.5726	10224.9	9259.55
861.7661	1131.524	10141.35	9178.5
861.911	1133.4748	10036.45	9072.9
862.0559	1135.4248	9859.6	8898.7
862.2008	1137.3741	9727.85	8769.75
862.3457	1139.3226	9641	8673.45
862.4905	1141.2705	9574.5	8612.1
862.6354	1143.2176	9506.75	8542.65
862.7803	1145.164	9491.35	8524.7
862.9251	1147.1097	9433.65	8470.75
863.07	1149.0546	9340.2	8378.25
863.2148	1150.9989	9234	8271.85
863.3597	1152.9424	9130.7	8167.4
863.5045	1154.8852	9046.1	8083.25
863.6493	1156.8272	9011.6	8051.7
863.7942	1158.7686	8973.65	8000.4
863.939	1160.7092	8995.95	8031.55
864.0838	1162.6491	9050.85	8087.85
864.2286	1164.5883	9160.6	8198.45
864.3734	1166.5267	9283.25	8321.55
864.5182	1168.4644	9419.65	8459.15
864.663	1170.4014	9592.85	8632.8
864.8078	1172.3377	9830.8	8871.8
864.9526	1174.2732	10153.95	9192.45
865.0974	1176.2081	10553.85	9593.5
865.2421	1178.1421	11027.55	10061.5
865.3869	1180.0755	11512	10553
865.5317	1182.0082	11830.1	10875.05
865.6764	1183.9401	11990	11028.9
865.8212	1185.8713	11846.9	10893.75
865.9659	1187.8017	11566.15	10623.85
866.1106	1189.7315	11169.45	10236.25
866.2554	1191.6605	10773.85	9839.9
866.4001	1193.5888	10482.15	9541.8
866.5448	1195.5163	10345.85	9396.15
866.6895	1197.4432	10277.95	9321.05
866.8342	1199.3693	10223.75	9268.95
866.9789	1201.2947	10179.4	9214.5
867.1236	1203.2193	10159.3	9203.6
867.2683	1205.1432	10156.35	9198.75
867.413	1207.0664	10127.2	9173.9
867.5576	1208.9889	10134.05	9173.35
867.7023	1210.9106	10139.55	9180.25
867.847	1212.8316	10121.1	9167.7
867.9916	1214.7519	10161	9197.05
868.1363	1216.6715	10196.3	9240.45
868.2809	1218.5903	10244.85	9288.3
868.4255	1220.5084	10331.8	9374.9
868.5701	1222.4257	10390.7	9435.15
868.7148	1224.3424	10443.55	9490.55
868.8594	1226.2583	10570.75	9611.8
869.004	1228.1735	10689.75	9734.3
869.1486	1230.0879	10811.95	9855.5
869.2932	1232.0016	10979.5	10021.2
869.4377	1233.9146	11110.6	10152.05
869.5823	1235.8269	11101.6	10144.75
869.7269	1237.7384	11056.6	10101.15
869.8715	1239.6492	10942.2	9987.5
870.016	1241.5592	10907.25	9946.95
870.1606	1243.4686	10932.75	9976.75
870.3051	1245.3772	11079.8	10125.15
870.4496	1247.285	11229.9	10274.8
870.5941	1249.1922	11394.3	10436.2
870.7387	1251.0986	11524.65	10573.25
870.8832	1253.0042	11570.95	10617.55
871.0277	1254.9092	11668.5	10711.75
871.1722	1256.8134	11740.85	10791.8
871.3167	1258.7169	11900.15	10946.05
871.4611	1260.6196	12083.85	11129.95
871.6056	1262.5216	12324.2	11368.05
871.7501	1264.4229	12480.1	11526.9
871.8945	1266.3234	12680.35	11726.85
872.039	1268.2232	12846.95	11895.05
872.1834	1270.1223	12874.4	11916.7
872.3278	1272.0207	12913.2	11959.65
872.4723	1273.9183	12891.6	11932.7
872.6167	1275.8151	12852.65	11897.45
872.7611	1277.7113	12801.85	11851.1
872.9055	1279.6067	12838.8	11886.7
873.0499	1281.5014	13035.8	12082.95
873.1943	1283.3953	13394.95	12437.4
873.3386	1285.2885	13805.3	12852.9
873.483	1287.181	14265.55	13313.1
873.6274	1289.0727	14672.3	13721.25
873.7717	1290.9637	14949.6	13996.95
873.9161	1292.854	15140.9	14188.25
874.0604	1294.7435	15182.7	14229.1
874.2047	1296.6323	15102.2	14154.45
874.349	1298.5204	15017.25	14061.5
874.4933	1300.4077	14838.2	13885.05
874.6376	1302.2943	14666.45	13715.2
874.7819	1304.1802	14454.8	13502.65
874.9262	1306.0653	14025	13071.05
875.0705	1307.9497	13586.9	12636.1
875.2147	1309.8333	13207.45	12256.3
875.359	1311.7162	12911.3	11957.15
875.5032	1313.5984	12761.15	11802.05
875.6475	1315.4798	12657.4	11688.3
875.7917	1317.3605	12597.9	11628.55
875.9359	1319.2405	12456.05	11504.2
876.0801	1321.1197	12274.3	11319.4
876.2243	1322.9982	11959.2	11001.85
876.3685	1324.876	11708.3	10757.8
876.5127	1326.753	11462.6	10509.1
876.6569	1328.6293	11306.6	10351.6
876.801	1330.5048	11144.7	10188.9
876.9452	1332.3796	11005	10050.85
877.0893	1334.2537	10927.15	9951.1
877.2335	1336.127	10823.4	9871.5
877.3776	1337.9996	10787.05	9836.5
877.5217	1339.8714	10792.5	9840.55
877.6658	1341.7426	10817.75	9819.35
877.8099	1343.6129	10821.35	9863.6
877.954	1345.4826	10831.25	9879.65
878.0981	1347.3515	10831.65	9876.25
878.2422	1349.2196	10792.3	9839.8
878.3862	1351.087	10832.2	9880
878.5303	1352.9537	10852.2	9893.25
878.6743	1354.8197	11000.2	10045.75
878.8184	1356.6849	11145.3	10192.4
878.9624	1358.5493	11311.25	10361.3
879.1064	1360.4131	11462.7	10513.75
879.2504	1362.276	11552	10600.9
879.3944	1364.1383	11556.55	10605.8
879.5384	1365.9998	11366.9	10409.2
879.6823	1367.8606	11062.35	10108.05
879.8263	1369.7206	10675.35	9724
879.9702	1371.5799	10374.85	9418.85
880.1142	1373.4384	10096.5	9144.15
880.2581	1375.2962	9863.75	8909.55
880.402	1377.1533	9540.6	8589.35
880.5459	1379.0096	9206.4	8262.6
880.6898	1380.8652	8866.7	7920.2
880.8337	1382.7201	8570.5	7621.4
880.9776	1384.5742	8351.85	7399.9
881.1215	1386.4275	8165.35	7214.35
881.2653	1388.2802	8011.45	7061.7
881.4092	1390.132	7911.85	6960.55
881.553	1391.9832	7840.85	6885.35
881.6968	1393.8336	7730.7	6777.45
881.8406	1395.6832	7723.85	6773.25
881.9844	1397.5322	7661.45	6714.1
882.1282	1399.3803	7632.05	6675.85
882.272	1401.2278	7607.9	6660.85
882.4158	1403.0745	7605.1	6654.7
882.5595	1404.9204	7593.75	6646.1
882.7033	1406.7656	7619.65	6670.4
882.847	1408.6101	7616.15	6665.5
882.9908	1410.4538	7645.75	6695.95
883.1345	1412.2968	7685.65	6737.3
883.2782	1414.139	7734.25	6782.7
883.4219	1415.9805	7817.55	6869.65
883.5656	1417.8213	7877.5	6919.85
883.7092	1419.6613	7986.9	7039.6
883.8529	1421.5006	8138.35	7189.05
883.9965	1423.3391	8373.35	7426.9
884.1402	1425.1769	8660	7710.55
884.2838	1427.0139	9092.9	8143.6
884.4274	1428.8502	9645.25	8694.9
884.571	1430.6858	10155.05	9207.3
884.7146	1432.5206	10549.95	9604
884.8582	1434.3547	10772.3	9827.7
885.0018	1436.188	10816.45	9871.7
885.1453	1438.0206	10729.2	9781.55
885.2889	1439.8524	10551.8	9605.1
885.4324	1441.6835	10431.8	9483.4
885.5759	1443.5139	10328.4	9377.6
885.7194	1445.3435	10248.5	9302.3
885.8629	1447.1724	10238.75	9296.6
886.0064	1449.0005	10192.3	9247.05
886.1499	1450.8279	10111.95	9166.7
886.2933	1452.6545	10095.3	9153.05
886.4368	1454.4804	10139.25	9196.5
886.5802	1456.3056	10120.05	9171.15
886.7237	1458.13	10029.1	9088.6
886.8671	1459.9536	9876.2	8933.7
887.0105	1461.7766	9600.9	8655.75
887.1539	1463.5987	9291.2	8344.6
887.2972	1465.4202	8922.25	7975.05
887.4406	1467.2409	8593.5	7648.2
887.584	1469.0608	8304.9	7359.8
887.7273	1470.88	8037.45	7091.3
887.8706	1472.6984	7829.4	6888.95
888.0139	1474.5161	7634.65	6690.8
888.1572	1476.3331	7484.45	6540.95
888.3005	1478.1493	7365.3	6419.65
888.4438	1479.9648	7264.85	6322
888.5871	1481.7795	7185.45	6241.7
888.7303	1483.5935	7137.5	6190.65
888.8736	1485.4067	7080.35	6132.35
889.0168	1487.2192	7027.75	6082
889.16	1489.031	6986.05	6041.4
889.3032	1490.842	6956.65	6011.1
889.4464	1492.6522	6903.5	5957.7
889.5896	1494.4618	6889.8	5947.45
889.7327	1496.2705	6863.05	5919.35
889.8759	1498.0785	6820	5876.9
890.019	1499.8858	6766.55	5823.3
890.1622	1501.6924	6737.4	5793.1
890.3053	1503.4981	6718.05	5775.2
890.4484	1505.3032	6683.15	5741
890.5914	1507.1075	6619.8	5675.45
890.7345	1508.911	6585.35	5643.7
890.8776	1510.7138	6541.6	5595.3
891.0206	1512.5159	6486.75	5544.95
891.1637	1514.3172	6434.5	5489.45
891.3067	1516.1178	6395.35	5458.8
891.4497	1517.9176	6362.7	5418.9
891.5927	1519.7166	6340.95	5400.4
891.7357	1521.515	6314.6	5366.15
891.8786	1523.3126	6271	5330.65
892.0216	1525.1094	6258.6	5318.6
892.1645	1526.9055	6242.05	5303.25
892.3074	1528.7008	6221.5	5282.35
892.4503	1530.4954	6182.1	5240.45
892.5932	1532.2893	6186.9	5252.25
892.7361	1534.0824	6132.35	5191.45
892.879	1535.8747	6131.15	5195.25
893.0218	1537.6663	6140.05	5203.55
893.1647	1539.4572	6130.75	5194.2
893.3075	1541.2473	6145.35	5209.6
893.4503	1543.0367	6143.3	5207.75
893.5931	1544.8253	6168.55	5227.7
893.7359	1546.6132	6184.35	5242.85
893.8787	1548.4003	6198.2	5253.8
894.0214	1550.1867	6260.95	5318.15
894.1642	1551.9723	6325.2	5387.6
894.3069	1553.7572	6414.45	5480.95
894.4496	1555.5414	6509.2	5576.5
894.5923	1557.3247	6634.55	5705.55
894.735	1559.1074	6789.25	5863.3
894.8777	1560.8893	6940.15	6012.05
895.0204	1562.6705	7082.85	6155.85
895.163	1564.4509	7214.55	6290.6
895.3056	1566.2305	7272.9	6349.85
895.4482	1568.0094	7320.8	6399.5
895.5908	1569.7876	7338	6413.75
895.7334	1571.565	7303.2	6375.8
895.876	1573.3417	7286.4	6358.55
896.0186	1575.1176	7287.35	6361
896.1611	1576.8928	7255.5	6333.5
896.3036	1578.6672	7240.9	6324.15
896.4461	1580.4409	7246.5	6330.95
896.5886	1582.2138	7270.75	6349.25
896.7311	1583.986	7280.05	6357
896.8736	1585.7575	7340.7	6415.05
897.0161	1587.5282	7418	6498.75
897.1585	1589.2981	7516.8	6600.15
897.3009	1591.0673	7571.1	6654.45
897.4433	1592.8358	7661.4	6742.05
897.5857	1594.6035	7763.35	6838.1
897.7281	1596.3704	7843.8	6922.45
897.8705	1598.1366	7956.1	7035.85
898.0128	1599.9021	8044.8	7127.6
898.1551	1601.6668	8141.4	7217.9
898.2975	1603.4308	8267.55	7347.4
898.4398	1605.194	8432.85	7508.7
898.5821	1606.9564	8647	7732.4
898.7243	1608.7182	8883.25	7972.85
898.8666	1610.4791	9140.5	8236.45
899.0088	1612.2394	9433.15	8530.15
899.1511	1613.9988	9748	8840.2
899.2933	1615.7576	9999.45	9085.95
899.4355	1617.5156	10207.7	9286.25
899.5776	1619.2728	10316	9393.15
899.7198	1621.0293	10244.75	9326.5
899.862	1622.785	10063.75	9144
900.0041	1624.54	9764.35	8850.25
900.1462	1626.2942	9422.85	8509.6
900.2883	1628.0477	9038.65	8125.1
900.4304	1629.8005	8727.95	7812.7
900.5725	1631.5525	8410.05	7498.9
900.7145	1633.3037	8138.7	7226.65
900.8566	1635.0542	7924.4	7015.8
900.9986	1636.804	7779.2	6864.75
901.1406	1638.553	7733.65	6730.95
901.2826	1640.3013	7618.1	6707.55
901.4245	1642.0488	7585.95	6671
901.5665	1643.7955	7598.25	6689.85
901.7085	1645.5416	7663.25	6753.65
901.8504	1647.2868	7752.95	6841.2
901.9923	1649.0313	7854.2	6940.6
902.1342	1650.7751	8010.05	7095.7
902.2761	1652.5181	8154.45	7243.5
902.4179	1654.2604	8332.7	7421.75
902.5598	1656.0019	8544.6	7633.85
902.7016	1657.7427	8831.1	7920.85
902.8434	1659.4828	9105.65	8189.95
902.9852	1661.222	9246.35	8334.25
903.127	1662.9606	9227.1	8316.85
903.2687	1664.6984	8973.25	8055.55
903.4105	1666.4354	8544.4	7628.6
903.5522	1668.1717	7999.75	7081.05
903.6939	1669.9072	7429.7	6511.55
903.8356	1671.642	6987.95	6068.9
903.9773	1673.3761	6601.45	5687.05
904.119	1675.1094	6264.4	5349.45
904.2606	1676.8419	6016.85	5105.5
904.4022	1678.5737	5823.5	4910.25
904.5439	1680.3048	5669.6	4753.2
904.6855	1682.0351	5546.55	4630.3
904.827	1683.7646	5427.05	4510.75
904.9686	1685.4934	5325	4409.75
905.1101	1687.2215	5257	4344.15
905.2517	1688.9488	5166.95	4256.3
905.3932	1690.6754	5091.15	4182.35
905.5347	1692.4012	5073	4160.4
905.6761	1694.1263	5023.5	4109.9
905.8176	1695.8506	4988.35	4075.35
905.9591	1697.5742	4934.6	4025.45
906.1005	1699.297	4899.95	3994.4
906.2419	1701.0191	4846.05	3941
906.3833	1702.7404	4820.7	3913.75
906.5246	1704.461	4789	3879
906.666	1706.1808	4760.8	3854.4
906.8073	1707.8999	4742.85	3835
906.9487	1709.6182	4705.25	3802.85
907.09	1711.3358	4688.3	3784.4
907.2313	1713.0527	4649.85	3750.2
907.3725	1714.7688	4641	3732.4
907.5138	1716.4841	4607.75	3700.8
907.655	1718.1987	4611.25	3699.2
907.7962	1719.9126	4579.95	3677.55
907.9374	1721.6257	4547.95	3644.45
908.0786	1723.338	4539.35	3639.65
908.2198	1725.0496	4503.3	3600.25
908.3609	1726.7605	4510.75	3602.45
908.502	1728.4706	4496.25	3592.4
908.6431	1730.18	4471.1	3567.4
908.7842	1731.8886	4452.2	3553.55
908.9253	1733.5964	4464.7	3542.4
909.0664	1735.3036	4422.2	3517.1
909.2074	1737.0099	4415	3513.4
909.3484	1738.7156	4399.95	3498
909.4894	1740.4204	4351.95	3444.55
909.6304	1742.1246	4343.2	3437.25
909.7714	1743.8279	4315.35	3412.6
909.9123	1745.5306	4316.85	3415.15
910.0532	1747.2325	4292.75	3389.65
910.1941	1748.9336	4268.85	3367.3
910.335	1750.634	4243.75	3338.4
910.4759	1752.3336	4239.25	3337.5
910.6168	1754.0325	4226.9	3328.5
910.7576	1755.7307	4201	3302.6
910.8984	1757.4281	4215.05	3312.45
911.0392	1759.1247	4208.65	3291.1
911.18	1760.8206	4198.75	3285.7
911.3208	1762.5158	4179.9	3268.8
911.4615	1764.2102	4164.4	3259.85
911.6022	1765.9039	4138.55	3237.15
911.7429	1767.5968	4137.05	3241.8
911.8836	1769.289	4125.35	3227.3
912.0243	1770.9804	4120.1	3218.25
912.1649	1772.6711	4113.8	3203.15
912.3056	1774.361	4094.7	3186.8
912.4462	1776.0502	4099.15	3192.15
912.5868	1777.7386	4082.2	3177.8
912.7274	1779.4263	4077.2	3177.55
912.8679	1781.1132	4059.7	3162.7
913.0084	1782.7994	4058.35	3161.2
913.149	1784.4849	4047.9	3151.9
913.2895	1786.1696	4063.35	3144.95
913.4299	1787.8535	4038.75	3143.65
913.5704	1789.5367	4024.3	3126.95
913.7108	1791.2192	4028.5	3131.85
913.8513	1792.9009	4016.2	3090.55
913.9917	1794.5818	4001.15	3097.8
914.132	1796.2621	3980.25	3077.2
914.2724	1797.9415	3984.05	3083.75
914.4128	1799.6202	3975.1	3072.65
914.5531	1801.2982	3947.2	3043.15
914.6934	1802.9755	3961.1	3057.15
914.8337	1804.6519	3959.55	3058.4
914.9739	1806.3277	3924.5	3027.1
915.1142	1808.0027	3909.5	3012.65
915.2544	1809.6769	3896.95	3002.4
915.3946	1811.3504	3905.55	3010.6
915.5348	1813.0231	3906.1	3011
915.675	1814.6951	3898.3	3000
915.8151	1816.3664	3908.6	3007
915.9553	1818.0369	3891.5	2991.35
916.0954	1819.7067	3881.7	2979.7
916.2355	1821.3757	3866.15	2962.15
916.3755	1823.044	3874.15	2971.7
916.5156	1824.7115	3869.9	2966.95
916.6556	1826.3783	3847.95	2949.45
916.7956	1828.0443	3839.25	2939.95
916.9356	1829.7096	3832.7	2932.8
917.0756	1831.3741	3851.6	2947.05
917.2155	1833.0379	3812	2915.15
917.3555	1834.701	3810.85	2914.7
917.4954	1836.3633	3797.5	2904.15
917.6353	1838.0248	3790.95	2893.05
917.7751	1839.6856	3800.45	2902.7
917.915	1841.3457	3785.85	2888.05
918.0548	1843.005	3786.65	2888.65
918.1946	1844.6636	3766.6	2867.85
918.3344	1846.3214	3759.25	2860.4
918.4742	1847.9785	3754.5	2856.9
918.6139	1849.6349	3752.65	2849.35
918.7537	1851.2904	3767.45	2856.3
918.8934	1852.9453	3739.5	2834.5
919.0331	1854.5994	3738.9	2834.7
919.1727	1856.2528	3746.5	2842.55
919.3124	1857.9054	3738.45	2837.6
919.452	1859.5572	3720.9	2822.6
919.5916	1861.2083	3727.65	2827.7
919.7312	1862.8587	3727.45	2826.9
919.8708	1864.5084	3714.85	2812.5
920.0103	1866.1572	3686.95	2782.8
920.1498	1867.8054	3679.25	2777.25
920.2893	1869.4528	3682.5	2778.65
920.4288	1871.0994	3678.4	2774.05
920.5683	1872.7453	3671.2	2767.8
920.7077	1874.3905	3658.9	2750.9
920.8471	1876.0349	3644.35	2744.75
920.9865	1877.6786	3652.55	2751
921.1259	1879.3215	3642.95	2742.2
921.2653	1880.9637	3635.95	2733.3
921.4046	1882.6051	3633.35	2733.9
921.5439	1884.2458	3615.25	2715.2
921.6832	1885.8858	3610.05	2708.65
921.8225	1887.525	3611.2	2709.15
921.9617	1889.1634	3591.35	2690.8
922.101	1890.8011	3587.85	2686.85
922.2402	1892.4381	3588.55	2685.5
922.3794	1894.0743	3577.3	2677.55
922.5185	1895.7098	3569.25	2667.1
922.6577	1897.3446	3558.7	2657.6
922.7968	1898.9786	3561.65	2658
922.9359	1900.6118	3541.8	2642.4
923.075	1902.2443	3521.55	2621.7
923.214	1903.8761	3531.45	2632.15
923.3531	1905.5071	3508.55	2609.2
923.4921	1907.1374	3510.5	2609.35
923.6311	1908.7669	3505.25	2608.75
923.77	1910.3957	3492	2593
923.909	1912.0237	3479.45	2581.9
924.0479	1913.651	3474.45	2573.6
924.1868	1915.2776	3471.55	2574.25
924.3257	1916.9034	3459.5	2561.9
924.4646	1918.5285	3455.5	2557.95
924.6034	1920.1528	3428.95	2530.3
924.7422	1921.7764	3438.45	2538.95
924.881	1923.3992	3430.85	2532.5
925.0198	1925.0213	3428.55	2530
925.1586	1926.6427	3386.75	2489.55
925.2973	1928.2633	3458.25	2483.3
925.436	1929.8832	3402.25	2502.25
925.5747	1931.5023	3373.35	2474.1
925.7134	1933.1207	3368.55	2470.2
925.852	1934.7383	3368.45	2468.85
925.9906	1936.3552	3346.4	2449.9
926.1292	1937.9714	3347	2450.2
926.2678	1939.5868	3335.55	2436.25
926.4064	1941.2015	3321.05	2420.8
926.5449	1942.8154	3324.85	2424.9
926.6834	1944.4286	3308.15	2406.1
926.8219	1946.041	3315.7	2398.2
926.9604	1947.6528	3290.1	2384.85
927.0988	1949.2637	3287.1	2389.3
927.2372	1950.8739	3277.75	2378.05
927.3756	1952.4834	3266.3	2367.05
927.514	1954.0921	3264.4	2366.75
927.6523	1955.7001	3254.4	2353.1
927.7907	1957.3074	3242.4	2349.5
927.929	1958.9139	3228.6	2335
928.0673	1960.5197	3225.65	2326.9
928.2055	1962.1247	3205.4	2311.35
928.3438	1963.729	3203.75	2309.2
928.482	1965.3325	3203.05	2305.25
928.6202	1966.9353	3188.5	2298.8
928.7584	1968.5374	3186.65	2291.9
928.8965	1970.1387	3169.5	2275.45
929.0346	1971.7393	3168.1	2273.6
929.1727	1973.3392	3149.75	2253.95
929.3108	1974.9383	3146.7	2256.5
929.4489	1976.5366	3136.75	2245
929.5869	1978.1342	3134.5	2245.5
929.7249	1979.7311	3134	2241.25
929.8629	1981.3273	3114.25	2223.1
930.0009	1982.9227	3106.4	2215.1
930.1388	1984.5173	3101	2210.15
930.2767	1986.1112	3094.2	2206.3
930.4146	1987.7044	3086.35	2195.35
930.5525	1989.2968	3077.8	2184.55
930.6904	1990.8885	3077	2182.5
930.8282	1992.4795	3064.35	2175.2
930.966	1994.0697	3067.3	2180.75
931.1038	1995.6592	3059	2170.05
931.2415	1997.2479	3054.9	2164.25
931.3793	1998.8359	3043.75	2155.1
931.517	2000.4232	3029.4	2145.85
931.6547	2002.0097	3031.35	2150.5
931.7923	2003.5955	3019.9	2134.5
931.93	2005.1805	3014.8	2126
932.0676	2006.7648	3008.65	2122.15
932.2052	2008.3484	3003.95	2115.9
932.3427	2009.9312	3001.25	2117.05
932.4803	2011.5133	2991.45	2108.95
932.6178	2013.0946	2975.25	2090.8
932.7553	2014.6752	2975	2092.95
932.8928	2016.2551	2980.55	2093.2
933.0302	2017.8342	2964.2	2075.8
933.1676	2019.4126	2961.2	2076.85
933.305	2020.9902	2957.9	2074.05
933.4424	2022.5672	2950.4	2068
933.5798	2024.1433	2941	2054.1
933.7171	2025.7188	2936.45	2056.65
933.8544	2027.2935	2927.5	2045.5
933.9917	2028.8674	2924	2040.05
934.129	2030.4406	2909.8	2031.7
934.2662	2032.0131	2897	2017.45
934.4034	2033.5849	2892.75	2009.6
934.5406	2035.1559	2888.6	2007.7
934.6778	2036.7261	2901.6	2016.75
934.8149	2038.2957	2891.25	2004.5
934.952	2039.8645	2888.65	1999.6
935.0891	2041.4325	2897.7	2005.2
935.2262	2042.9998	2873.9	1990.7
935.3632	2044.5664	2861.15	1977.2
935.5002	2046.1323	2859.6	1979.05
935.6372	2047.6974	2854.6	1971.6
935.7742	2049.2617	2856.95	1974
935.9111	2050.8254	2878.1	1971.45
936.048	2052.3883	2856.6	1968.7
936.1849	2053.9504	2855.9	1966.75
936.3218	2055.5118	2845.25	1956.8
936.4586	2057.0725	2819.55	1929.7
936.5955	2058.6325	2828.75	1945.5
936.7323	2060.1917	2811.6	1925.2
936.869	2061.7502	2817.65	1933.15
937.0058	2063.3079	2809.1	1928.75
937.1425	2064.8649	2796.75	1909.35
937.2792	2066.4212	2804.8	1920.7
937.4159	2067.9767	2799.45	1914.75
937.5525	2069.5315	2785.85	1899.1
937.6891	2071.0856	2779.8	1894.65
937.8257	2072.6389	2770.25	1886.6
937.9623	2074.1915	2759	1879.9
938.0989	2075.7433	2747.05	1864.9
938.2354	2077.2945	2743.85	1859.45
938.3719	2078.8448	2747.35	1861.8
938.5084	2080.3945	2728.05	1837.85
938.6448	2081.9434	2730.65	1842.9
938.7812	2083.4916	2730.75	1840.45
938.9176	2085.039	2714.7	1817.85
939.054	2086.5857	2730.2	1835.9
939.1903	2088.1317	2724.85	1828.95
939.3267	2089.677	2717.55	1821.3
939.463	2091.2215	2703.25	1805.55
939.5992	2092.7652	2691.5	1794.1
939.7355	2094.3083	2704.8	1810.4
939.8717	2095.8506	2690.9	1802
940.0079	2097.3921	2686.05	1799
940.1441	2098.933	2696.6	1805.15
940.2802	2100.4731	2679.9	1789
940.4163	2102.0124	2692.15	1784.7
940.5524	2103.5511	2671.85	1779.1
940.6885	2105.089	2675.75	1784.85
940.8245	2106.6261	2673.8	1783.85
940.9606	2108.1626	2654.7	1763.65
941.0965	2109.6983	2681.2	1765.15
941.2325	2111.2332	2660.75	1766.6
941.3684	2112.7675	2649.75	1757.95
941.5044	2114.301	2651.9	1758.1
941.6403	2115.8337	2645.95	1755.15
941.7761	2117.3657	2632.25	1744.2
941.912	2118.897	2628.95	1736.25
942.0478	2120.4276	2623.7	1725.85
942.1835	2121.9575	2617.2	1722.8
942.3193	2123.4866	2627.15	1731.65
942.455	2125.0149	2617.2	1722.5
942.5907	2126.5426	2612.9	1724.35
942.7264	2128.0695	2596.55	1709.85
942.8621	2129.5956	2593.35	1712.95
942.9977	2131.1211	2583.35	1694.25
943.1333	2132.6458	2591.95	1705.1
943.2689	2134.1698	2584.25	1690.35
943.4044	2135.693	2578.75	1680.2
943.54	2137.2155	2581.95	1687
943.6755	2138.7373	2567.2	1674.3
943.8109	2140.2584	2561.3	1674.3
943.9464	2141.7787	2555.95	1665.6
944.0818	2143.2983	2548.95	1667.2
944.2172	2144.8171	2528.9	1647.65
944.3526	2146.3353	2525.8	1637.85
944.4879	2147.8527	2525.6	1640.1
944.6232	2149.3693	2534.35	1642.85
944.7585	2150.8853	2541.1	1648.65
944.8938	2152.4005	2526.95	1633.8
945.029	2153.9149	2521.4	1625.4
945.1642	2155.4287	2524.7	1633.55
945.2994	2156.9417	2520.4	1630.35
945.4346	2158.454	2509.05	1617.25
945.5697	2159.9655	2499.75	1615.05
945.7048	2161.4764	2500.25	1611.1
945.8399	2162.9865	2494.9	1606.55
945.9749	2164.4958	2496.45	1608.75
946.1099	2166.0045	2473.25	1584.4
946.2449	2167.5124	2479.95	1590.6
946.3799	2169.0195	2473.2	1582.1
946.5148	2170.526	2470.95	1575.05
946.6498	2172.0317	2468.7	1577.65
946.7846	2173.5367	2466.5	1576.5
946.9195	2175.0409	2460.05	1571.4
947.0543	2176.5445	2453.35	1562.85
947.1891	2178.0473	2465.25	1570.45
947.3239	2179.5494	2460.25	1563.05
947.4587	2181.0507	2450.7	1560.3
947.5934	2182.5513	2438.15	1546.5
947.7281	2184.0512	2432.85	1542.35
947.8628	2185.5504	2429.7	1537.6
947.9974	2187.0488	2427.9	1540.1
948.132	2188.5465	2414.95	1529.25
948.2666	2190.0435	2416.6	1528.4
948.4012	2191.5397	2410.7	1520.45
948.5357	2193.0353	2412.1	1520.1
948.6702	2194.5301	2413.05	1518.1
948.8047	2196.0241	2402.7	1504.45
948.9392	2197.5175	2394.45	1496.8
949.0736	2199.0101	2391.8	1493.3
949.208	2200.502	2383.45	1492.05
949.3424	2201.9931	2379.75	1494.75
949.4767	2203.4835	2371.45	1481.55
949.611	2204.9733	2387.25	1484.15
949.7453	2206.4622	2368.25	1482
949.8796	2207.9505	2363.05	1475.55
950.0138	2209.438	2342.7	1460.05
950.148	2210.9248	2349	1463.6
950.2822	2212.4109	2331.8	1442.9
950.4164	2213.8962	2341.8	1447.7
950.5505	2215.3809	2345.35	1448.9
950.6846	2216.8648	2339.4	1442.9
950.8186	2218.3479	2334	1432
950.9527	2219.8304	2325.35	1424.35
951.0867	2221.3121	2324.85	1425.65
951.2207	2222.7931	2317.6	1422
951.3546	2224.2733	2312.1	1416.65
951.4886	2225.7529	2306.2	1414.8
951.6225	2227.2317	2296.25	1405.45
951.7563	2228.7098	2287.1	1399.45
951.8902	2230.1872	2289.2	1400.85
952.024	2231.6638	2285.8	1398.75
952.1578	2233.1397	2266.9	1377.9
952.2916	2234.6149	2266.75	1380.8
952.4253	2236.0894	2265	1376.95
952.559	2237.5632	2279.85	1377.95
952.6927	2239.0362	2272.3	1382.65
952.8263	2240.5085	2259.45	1370.7
952.9599	2241.9801	2255.05	1362.4
953.0935	2243.4509	2245.9	1351.25
953.2271	2244.921	2244.1	1348.75
953.3606	2246.3904	2234.5	1338.5
953.4941	2247.8591	2232.9	1336.9
953.6276	2249.3271	2225.6	1331.7
953.7611	2250.7943	2223	1328.25
953.8945	2252.2608	2222.25	1325.7
954.0279	2253.7266	2218.25	1326.1
954.1612	2255.1917	2218.25	1327.2
954.2946	2256.656	2216.55	1325.95
954.4279	2258.1197	2206.2	1318.9
954.5612	2259.5826	2198.8	1308.6
954.6944	2261.0447	2200.4	1308.75
954.8276	2262.5062	2199.55	1303.85
954.9608	2263.9669	2187.4	1290.1
955.094	2265.4269	2194.4	1300.95
955.2271	2266.8862	2191.65	1302.1
955.3602	2268.3448	2174.1	1284.05
955.4933	2269.8026	2177.45	1288.45
955.6264	2271.2598	2169.2	1280.1
955.7594	2272.7162	2163.55	1274.4
955.8924	2274.1719	2173.85	1281.85
956.0253	2275.6268	2170.3	1274.55
956.1583	2277.0811	2171.2	1276
956.2912	2278.5346	2161.7	1269.3
956.4241	2279.9874	2157.6	1269.05
956.5569	2281.4395	2161.65	1275.25
956.6897	2282.8908	2152.15	1258.3
956.8225	2284.3414	2162.1	1271
956.9553	2285.7914	2142.7	1251.35
957.088	2287.2406	2147.1	1253.05
957.2207	2288.689	2142.6	1246.55
957.3534	2290.1368	2144.4	1246.3
957.486	2291.5838	2146.8	1248.55
957.6186	2293.0302	2144.1	1243.85
957.7512	2294.4758	2139.85	1245.55
957.8838	2295.9206	2134.5	1238.7
958.0163	2297.3648	2117.7	1227.2
958.1488	2298.8082	2124.7	1233
958.2813	2300.251	2120.2	1226.85
958.4137	2301.693	2127.15	1229.1
958.5461	2303.1343	2115.65	1218.55
958.6785	2304.5748	2103.8	1210.1
958.8108	2306.0147	2101.4	1212.95
958.9432	2307.4538	2094.2	1203.85
959.0754	2308.8922	2087.1	1202.05
959.2077	2310.3299	2082.45	1195.35
959.3399	2311.7669	2078.75	1189.4
959.4721	2313.2031	2079.5	1186.55
959.6043	2314.6387	2088.9	1196.05
959.7365	2316.0735	2074	1180.05
959.8686	2317.5076	2072.2	1178.9
960.0006	2318.941	2073.8	1179.95
960.1327	2320.3737	2064.4	1167.45
960.2647	2321.8056	2071.5	1173.9
960.3967	2323.2369	2063.75	1167.6
960.5287	2324.6674	2050.75	1156.25
960.6606	2326.0972	2056.25	1161.8
960.7925	2327.5263	2047.3	1154.4
960.9244	2328.9547	2042.35	1148.75
961.0562	2330.3823	2044.15	1147.65
961.1881	2331.8092	2053.5	1154.5
961.3198	2333.2355	2038.1	1141.55
961.4516	2334.661	2039.1	1144.3
961.5833	2336.0858	2035.8	1138.7
961.715	2337.5098	2025.85	1129.3
961.8467	2338.9332	2035.45	1143.2
961.9783	2340.3558	2013.5	1119
962.1099	2341.7778	2026.1	1136.25
962.2415	2343.199	2022.35	1130.75
962.373	2344.6195	2014.05	1121.9
962.5045	2346.0393	2012.5	1120.35
962.636	2347.4583	2012.25	1118.8
962.7675	2348.8767	2001.15	1106.5
962.8989	2350.2943	2008.95	1111.05
963.0303	2351.7113	2015.05	1114.2
963.1617	2353.1275	2007.4	1108.85
963.293	2354.543	2015.15	1109.25
963.4243	2355.9578	2005.4	1110.8
963.5556	2357.3718	1981.4	1088.55
963.6868	2358.7852	1991.65	1098.25
963.818	2360.1978	1983.85	1091.2
963.9492	2361.6098	1987.9	1095.2
964.0803	2363.021	1973.45	1076.25
964.2114	2364.4315	1972.6	1076.95
964.3425	2365.8413	1974.6	1079.65
964.4736	2367.2504	1956.3	1065.55
964.6046	2368.6587	1966.4	1076.05
964.7356	2370.0664	1963.65	1073.75
964.8666	2371.4733	1956.55	1063.05
964.9975	2372.8795	1961.05	1067.55
965.1284	2374.285	1947.05	1055.05
965.2593	2375.6899	1946.6	1055.5
965.3901	2377.0939	1953.05	1063.35
965.5209	2378.4973	1941.3	1048.55
965.6517	2379.9	1933.75	1041.8
965.7825	2381.3019	1932.55	1042.7
965.9132	2382.7032	1934.05	1043.45
966.0439	2384.1037	1939.4	1052.25
966.1745	2385.5035	1911.65	1025.85
966.3051	2386.9027	1923.3	1034.35
966.4357	2388.3011	1921.25	1030.05
966.5663	2389.6987	1912.4	1023.1
966.6968	2391.0957	1913.6	1024
966.8273	2392.492	1911.3	1021.75
966.9578	2393.8876	1901.05	1012.8
967.0882	2395.2824	1894.65	1006.25
967.2186	2396.6765	1895.2	1006.5
967.349	2398.07	1886.05	996.75
967.4793	2399.4627	1889.5	993.9
967.6097	2400.8547	1890.75	997.35
967.7399	2402.246	1885.2	987.2
967.8702	2403.6366	1874.1	981.65
968.0004	2405.0265	1873.25	982.1
968.1306	2406.4156	1873.75	983.2
968.2607	2407.8041	1865.5	970.8
968.3909	2409.1918	1870.85	978.3
968.521	2410.5789	1855.1	962.85
968.651	2411.9652	1862.15	965.45
968.781	2413.3508	1854.7	963.95
968.911	2414.7358	1849.05	955.25
969.041	2416.12	1855.5	965.65
969.1709	2417.5035	1848.9	957.15
969.3008	2418.8863	1846.85	954
969.4307	2420.2684	1848.45	958.15
969.5606	2421.6497	1850.6	956.3
969.6904	2423.0304	1839.45	947.95
969.8201	2424.4104	1845.4	951.15
969.9499	2425.7896	1841.1	947.05
970.0796	2427.1682	1834.85	946.15
970.2093	2428.546	1824.35	933.35
970.3389	2429.9232	1827.8	935.5
970.4685	2431.2996	1819	926.8
970.5981	2432.6753	1823.55	931.5
970.7277	2434.0503	1825.2	933.55
970.8572	2435.4246	1817.05	926.95
970.9867	2436.7982	1818.85	922.75
971.1161	2438.1711	1814.4	924.1
971.2456	2439.5433	1806.4	911.9
971.375	2440.9148	1809.15	915.1
971.5043	2442.2856	1801.05	909.05
971.6336	2443.6557	1800.35	905.5
971.7629	2445.025	1793.55	901.55
971.8922	2446.3937	1786.4	893.75
972.0214	2447.7617	1786.45	893.05
972.1506	2449.1289	1788.2	896.7
972.2798	2450.4955	1797.7	902.85
972.4089	2451.8613	1779.75	889.4
972.538	2453.2265	1783.55	891.7
972.6671	2454.5909	1775	883.95
972.7961	2455.9546	1773.4	879.55
972.9251	2457.3177	1771.6	879.2
973.0541	2458.68	1767.6	872.7
973.1831	2460.0416	1774.75	881
973.312	2461.4025	1764.7	875.75
973.4408	2462.7627	1778.5	879.35
973.5697	2464.1222	1769.55	881.6
973.6985	2465.4811	1758.8	868.5
973.8273	2466.8392	1755.5	863.7
973.956	2468.1966	1762.55	871.35
974.0847	2469.5533	1761.8	868.15
974.2134	2470.9093	1760.4	866.7
974.3421	2472.2645	1743.8	850.25
974.4707	2473.6191	1749.6	859.95
974.5993	2474.973	1748.85	857.4
974.7278	2476.3262	1751.85	860.1
974.8563	2477.6787	1743.1	851.3
974.9848	2479.0305	1735.45	845.05
975.1132	2480.3816	1740.55	848.65
975.2417	2481.7319	1737.45	845.85
975.37	2483.0816	1736.3	842.9
975.4984	2484.4306	1730.7	839.7
975.6267	2485.7789	1726.7	836
975.755	2487.1264	1720.15	829.95
975.8833	2488.4733	1717.7	828.2
976.0115	2489.8195	1725.35	829.35
976.1397	2491.165	1720.25	826.9
976.2678	2492.5097	1714.2	822.5
976.3959	2493.8538	1697.35	808.25
976.524	2495.1972	1703.85	813.7
976.6521	2496.5398	1706.3	814.55
976.7801	2497.8818	1716.45	820.15
976.9081	2499.2231	1701.75	811.4
977.036	2500.5637	1694.05	800.25
977.164	2501.9035	1695.25	801.45
977.2918	2503.2427	1697.2	803.3
977.4197	2504.5812	1692.2	799.7
977.5475	2505.919	1693.95	799.7
977.6753	2507.256	1686.55	795.15
977.8031	2508.5924	1683.6	791.85
977.9308	2509.9281	1687.85	789.85
978.0585	2511.2631	1678.9	788.1
978.1861	2512.5974	1678	786.15
978.3137	2513.9309	1672.3	780.15
978.4413	2515.2638	1701.8	783
978.5689	2516.596	1677.3	788.1
978.6964	2517.9275	1670.55	774.7
978.8239	2519.2583	1666.5	773.8
978.9513	2520.5884	1662.4	773.1
979.0788	2521.9178	1662.55	771.2
979.2062	2523.2465	1660.6	774.25
979.3335	2524.5745	1648.65	756.3
979.4608	2525.9018	1653.05	760.35
979.5881	2527.2284	1654.45	764.4
979.7154	2528.5543	1655.2	763.75
979.8426	2529.8796	1652.85	761
979.9698	2531.2041	1651.05	762.2
980.0969	2532.5279	1650.1	759.45
980.224	2533.851	1643.3	751.15
980.3511	2535.1735	1643	751.2
980.4781	2536.4952	1649	756.25
980.6052	2537.8163	1649.6	754.15
980.7321	2539.1366	1640.95	749.2
980.8591	2540.4562	1644.55	748.9
980.986	2541.7752	1638.5	745.7
981.1129	2543.0935	1630.85	738
981.2397	2544.411	1640.3	746.5
981.3665	2545.7279	1624.5	730.95
981.4933	2547.0441	1634.9	741.1
981.62	2548.3596	1640	744.45
981.7467	2549.6744	1629.25	736.85
981.8734	2550.9885	1628.35	731.65
982.0001	2552.3019	1627.15	734.85
982.1267	2553.6146	1623.25	729.1
982.2532	2554.9266	1621.05	729.45
982.3798	2556.2379	1625.15	732.4
982.5063	2557.5485	1624.4	731.3
982.6327	2558.8585	1630.05	729.85
982.7592	2560.1677	1619.6	722.75
982.8856	2561.4762	1621.15	729.6
983.0119	2562.7841	1617.05	721.55
983.1383	2564.0913	1615.75	723.2
983.2646	2565.3977	1611.8	721.95
983.3908	2566.7035	1610.5	718.8
983.517	2568.0086	1612.5	717.5
983.6432	2569.313	1609.35	715.7
983.7694	2570.6167	1616.4	720.85
983.8955	2571.9197	1607.45	715.55
984.0216	2573.222	1603.9	708.05
984.1476	2574.5236	1604	711.95
984.2737	2575.8246	1603.85	709.2
984.3996	2577.1248	1605.3	712.7
984.5256	2578.4244	1598.15	706.85
984.6515	2579.7232	1595.4	704.5
984.7774	2581.0214	1627.5	709.15
984.9032	2582.3189	1604.3	710.8
985.029	2583.6157	1601.95	705.25
985.1548	2584.9118	1604.3	712.65
985.2806	2586.2072	1597.35	707.1
985.4063	2587.5019	1598.85	706.4
985.5319	2588.7959	1598.65	708.3
985.6576	2590.0893	1601.05	709.5
985.7832	2591.3819	1601.3	709
985.9087	2592.6739	1597.55	706.65
986.0343	2593.9652	1598.1	701.4
986.1597	2595.2557	1598.6	705.1
986.2852	2596.5456	1594	697.65
986.4106	2597.8348	1595.25	704.45
986.536	2599.1234	1595.9	706.05
986.6614	2600.4112	1591.8	700.25
986.7867	2601.6983	1595.85	700.6
986.912	2602.9848	1599.5	707.55
987.0372	2604.2705	1598.1	699.05
987.1624	2605.5556	1597.15	706.65
987.2876	2606.84	1578.25	686.05
987.4128	2608.1237	1590.3	700.3
987.5379	2609.4067	1586.45	698.5
987.6629	2610.689	1584.9	686.55
987.788	2611.9707	1579.2	686.6
987.913	2613.2516	1576.95	682.45
988.0379	2614.5319	1568.5	676.9
988.1629	2615.8115	1570.7	678.1
988.2878	2617.0903	1564.9	673.25
988.4126	2618.3685	1564.4	674.75
988.5375	2619.6461	1556.5	667.3
988.6622	2620.9229	1562.55	671.5
988.787	2622.199	1562.05	670.95
988.9117	2623.4745	1557.35	667.6
989.0364	2624.7493	1554.05	664.3
989.161	2626.0234	1557.45	669.9
989.2857	2627.2968	1555.5	665.55
989.4102	2628.5695	1555.35	665.35
989.5348	2629.8415	1551.85	661.65
989.6593	2631.1128	1556.55	667.1
989.7837	2632.3835	1542.7	652.45
989.9082	2633.6535	1546.2	656.85
990.0326	2634.9228	1544.9	655.6
990.1569	2636.1914	1537.1	648.5
990.2812	2637.4593	1551.95	660.85
990.4055	2638.7265	1542.4	652
990.5298	2639.9931	1533.35	644.25
990.654	2641.259	1540.85	651.95
990.7782	2642.5242	1535.05	645
990.9023	2643.7887	1538.75	648.95
991.0264	2645.0525	1530.35	642.85
991.1505	2646.3156	1531.75	643
991.2745	2647.5781	1529.2	641.6
991.3985	2648.8398	1523.1	634.15
991.5225	2650.1009	1556.3	628.95
991.6464	2651.3613	1526.05	637.55
991.7703	2652.6211	1521.15	632.65
991.8942	2653.8801	1520.4	632.4
992.018	2655.1385	1513.4	622.85
992.1418	2656.3961	1519.05	631.05
992.2655	2657.6531	1515.95	625.9
992.3892	2658.9094	1524.7	638.8
992.5129	2660.1651	1512.05	624.95
992.6366	2661.42	1514.55	623.85
992.7602	2662.6743	1519.35	627.45
992.8837	2663.9279	1517	627.15
993.0073	2665.1808	1519.25	629.5
993.1307	2666.433	1520.75	631.8
993.2542	2667.6846	1525.8	639.4
993.3776	2668.9354	1536.05	642.7
993.501	2670.1856	1531.2	640.9
993.6244	2671.4351	1527.75	637.75
993.7477	2672.6839	1535.55	646.6
993.8709	2673.9321	1530.8	640.8
993.9942	2675.1795	1529.95	640.85
994.1174	2676.4263	1533.7	646.25
994.2405	2677.6724	1536.4	648.25
994.3637	2678.9179	1537.4	647.7
994.4868	2680.1626	1541.85	654.3
994.6098	2681.4067	1533.75	645.25
994.7328	2682.6501	1540.3	652.7
994.8558	2683.8928	1539.15	649.35
994.9788	2685.1348	1523.1	634.55
995.1017	2686.3761	1517.05	626.55
995.2245	2687.6168	1518	629.3
995.3474	2688.8568	1510.1	620.8
995.4702	2690.0961	1502.75	615.7
995.5929	2691.3348	1511.3	621.95
995.7156	2692.5727	1507.75	617.25
995.8383	2693.81	1498.55	611
995.961	2695.0466	1500.45	614
996.0836	2696.2826	1499.9	612.4
996.2062	2697.5178	1506.8	613.2
996.3287	2698.7524	1507.1	618.45
996.4512	2699.9863	1507.75	620.15
996.5737	2701.2195	1513.95	626.5
996.6961	2702.452	1515.25	625.25
996.8185	2703.6839	1510.2	621.45
996.9408	2704.9151	1518.05	631.5
997.0631	2706.1456	1516.8	629.55
997.1854	2707.3755	1529	639.7
997.3077	2708.6046	1535.4	643.75
997.4299	2709.8331	1541.75	651.9
997.552	2711.0609	1551.1	662.6
997.6742	2712.2881	1543.05	655.45
997.7963	2713.5145	1558.95	667.95
997.9183	2714.7403	1565.6	677.45
998.0403	2715.9654	1567.95	679.75
998.1623	2717.1899	1600.35	699.25
998.2842	2718.4136	1587.9	701.4
998.4062	2719.6367	1600.2	711.5
998.528	2720.8591	1626.35	731.7
998.6498	2722.0809	1631.85	743.5
998.7716	2723.3019	1644.8	753.75
998.8934	2724.5223	1643.6	753.9
999.0151	2725.7421	1653.5	764.5
999.1368	2726.9611	1652.7	763.75
999.2584	2728.1795	1647.3	756.9
999.38	2729.3972	1644.55	758.35
999.5016	2730.6142	1641.3	737.6
999.6231	2731.8306	1623	732.5
999.7446	2733.0462	1607.9	719.9
999.8661	2734.2612	1586.4	693.7
999.9875	2735.4756	1570.85	682.15
1000.1089	2736.6892	1551.25	663.7
1000.2302	2737.9022	1535.85	650.8
1000.3515	2739.1145	1527.85	640.1
1000.4728	2740.3262	1523.5	627.3
1000.594	2741.5372	1500.35	614.85
1000.7152	2742.7475	1491.9	603.8
1000.8363	2743.9571	1493.7	604.4
1000.9575	2745.1661	1485.35	593.4
1001.0785	2746.3744	1472.95	585
1001.1996	2747.582	1459.65	572
1001.3206	2748.7889	1453.15	562.3
1001.4415	2749.9952	1443.8	557.8
1001.5625	2751.2008	1443.2	555.4
1001.6833	2752.4057	1433.45	540.7
1001.8042	2753.61	1428.85	538.25
1001.925	2754.8136	1430.05	540.5
1002.0458	2756.0165	1426.35	541.25
1002.1665	2757.2188	1431.8	548.85
1002.2872	2758.4204	1424.45	537.65
1002.4078	2759.6213	1432	542.85
1002.5285	2760.8215	1430.25	540.3
1002.649	2762.0211	1418.3	529.95
1002.7696	2763.22	1426.55	538.75
1002.8901	2764.4182	1416.5	528
1003.0106	2765.6158	1415.2	529.85
1003.131	2766.8127	1408.2	523.75
1003.2514	2768.009	1412.05	525.35
1003.3717	2769.2045	1408.25	521.75
1003.492	2770.3994	1411.25	521.5
1003.6123	2771.5936	1402.25	512.95
1003.7325	2772.7872	1399.6	513.1
1003.8527	2773.9801	1399.9	511.75
1003.9729	2775.1723	1409.2	506.6
1004.093	2776.3639	1391.2	506.25
1004.2131	2777.5548	1396.15	509.95
1004.3331	2778.745	1394.35	509.25
1004.4531	2779.9346	1393.5	509.4
1004.5731	2781.1235	1394.95	508.65
1004.693	2782.3117	1396.45	510.9
1004.8129	2783.4992	1399.75	513.55
1004.9328	2784.6861	1399.85	513.8
1005.0526	2785.8723	1408.35	521.6
1005.1723	2787.0579	1414.15	527.3
1005.2921	2788.2428	1408.45	524.15
1005.4118	2789.427	1413.6	529.25
1005.5314	2790.6106	1420.65	534.35
1005.651	2791.7935	1423.3	537.3
1005.7706	2792.9757	1435.85	549.85
1005.8902	2794.1573	1449.4	562.05
1006.0097	2795.3382	1449.95	565.25
1006.1291	2796.5184	1456.5	573
1006.2485	2797.698	1474.7	586.05
1006.3679	2798.8769	1481.45	597.6
1006.4873	2800.0551	1496.4	610.25
1006.6066	2801.2327	1510.65	621.9
1006.7258	2802.4096	1516.25	632.55
1006.8451	2803.5859	1535.3	649.2
1006.9642	2804.7615	1556.5	670.5
1007.0834	2805.9364	1575.2	690.7
1007.2025	2807.1106	1590.7	707.05
1007.3216	2808.2842	1621.5	735.5
1007.4406	2809.4572	1648.85	766
1007.5596	2810.6294	1681.3	795.05
1007.6785	2811.801	1703.05	819.1
1007.7975	2812.972	1742.2	858.9
1007.9163	2814.1423	1778.55	895.7
1008.0352	2815.3119	1823.1	938.5
1008.154	2816.4808	1869.95	985.85
1008.2727	2817.6491	1913.55	1027.15
1008.3914	2818.8167	1967.5	1082.95
1008.5101	2819.9837	2022.4	1132.35
1008.6288	2821.15	2072.75	1187.6
1008.7474	2822.3157	2120.95	1236.7
1008.8659	2823.4807	2172.8	1285.45
1008.9844	2824.645	2239	1353.6
1009.1029	2825.8086	2297.55	1413.1
1009.2214	2826.9716	2356.3	1472.9
1009.3398	2828.134	2397.5	1512.3
1009.4581	2829.2957	2436.9	1551.7
1009.5764	2830.4567	2473.15	1589.35
1009.6947	2831.617	2509.2	1625.2
1009.813	2832.7767	2502.95	1620
1009.9312	2833.9358	2517.15	1636.6
1010.0493	2835.0941	2511.85	1625.35
1010.1675	2836.2519	2482.05	1597.85
1010.2855	2837.4089	2473.95	1589.5
1010.4036	2838.5653	2460.75	1576
1010.5216	2839.7211	2457.9	1575.65
1010.6396	2840.8761	2450	1563.95
1010.7575	2842.0306	2457.9	1573.8
1010.8754	2843.1843	2485.95	1601.4
1010.9932	2844.3374	2511.95	1629.1
1011.111	2845.4899	2558.9	1674.15
1011.2288	2846.6417	2603.05	1717.35
1011.3465	2847.7928	2665.4	1780.7
1011.4642	2848.9433	2739.45	1856.85
1011.5818	2850.0931	2795.4	1911.35
1011.6995	2851.2422	2862.2	1977.5
1011.817	2852.3907	2903.05	2016.2
1011.9345	2853.5385	2976.45	2090.3
1012.052	2854.6857	3039.35	2128.05
1012.1695	2855.8323	3066.1	2182.55
1012.2869	2856.9781	3103.35	2220.1
1012.4042	2858.1233	3160.45	2277.75
1012.5216	2859.2679	3219	2334.85
1012.6389	2860.4118	3256.45	2373.4
1012.7561	2861.555	3298.15	2410.4
1012.8733	2862.6976	3364	2477.7
1012.9905	2863.8395	3385.4	2502.85
1013.1076	2864.9808	3401.7	2517.5
1013.2247	2866.1214	3443.45	2559
1013.3417	2867.2614	3449.7	2565.7
1013.4587	2868.4007	3462.9	2577.15
1013.5757	2869.5393	3483.15	2598.15
1013.6926	2870.6773	3479.3	2592
1013.8095	2871.8146	3500.95	2612.5
1013.9263	2872.9513	3504.55	2616.65
1014.0431	2874.0874	3501.25	2616.15
1014.1599	2875.2227	3489.5	2603.6
1014.2766	2876.3574	3475.1	2591
1014.3933	2877.4915	3435.6	2552.4
1014.51	2878.6249	3416.4	2534.95
1014.6266	2879.7577	3399.45	2513.7
1014.7431	2880.8898	3384.75	2491.85
1014.8596	2882.0212	3358.9	2478.15
1014.9761	2883.152	3334.25	2450.5
1015.0925	2884.2821	3331	2449
1015.2089	2885.4116	3353.95	2472.25
1015.3253	2886.5405	3340.25	2457.35
1015.4416	2887.6686	3341.9	2456.35
1015.5579	2888.7962	3349.15	2465.05
1015.6741	2889.923	3359.35	2476.55
1015.7903	2891.0493	3363.75	2479.35
1015.9065	2892.1748	3380	2497.45
1016.0226	2893.2997	3385.55	2502
1016.1387	2894.424	3401.4	2520.5
1016.2547	2895.5476	3425.1	2542.35
1016.3707	2896.6706	3428.85	2547.85
1016.4866	2897.7929	3457.45	2573.15
1016.6025	2898.9145	3470.5	2589.3
1016.7184	2900.0355	3512.55	2629.3
1016.8342	2901.1559	3532.65	2648.95
1016.95	2902.2756	3585.3	2697.05
1017.0658	2903.3946	3603.85	2721.65
1017.1815	2904.513	3639.4	2754.25
1017.2971	2905.6308	3652.05	2771.15
1017.4127	2906.7479	3665.95	2784.35
1017.5283	2907.8643	3692.1	2810.05
1017.6439	2908.9801	3712.35	2830.1
1017.7594	2910.0953	3706.2	2823.5
1017.8748	2911.2098	3721.5	2835.45
1017.9902	2912.3236	3723.7	2832.95
1018.1056	2913.4368	3698.35	2813.05
1018.2209	2914.5494	3674.85	2792.05
1018.3362	2915.6613	3661.3	2773.05
1018.4515	2916.7725	3611.9	2725.85
1018.5667	2917.8831	3590.25	2707
1018.6819	2918.9931	3570.25	2684.9
1018.797	2920.1024	3540.6	2656.65
1018.9121	2921.211	3525.65	2644.5
1019.0271	2922.319	3493.55	2611.15
1019.1421	2923.4264	3484.25	2604.5
1019.2571	2924.5331	3475.85	2595.8
1019.372	2925.6391	3460.4	2579.45
1019.4869	2926.7445	3464	2584.05
1019.6017	2927.8493	3460.7	2577.25
1019.7165	2928.9534	3472.85	2591.45
1019.8313	2930.0569	3454.9	2568.75
1019.946	2931.1597	3482.3	2598.4
1020.0606	2932.2619	3486.4	2604.5
1020.1753	2933.3634	3474.65	2593.75
1020.2899	2934.4643	3480.1	2592.1
1020.4044	2935.5645	3475.7	2588.2
1020.5189	2936.6641	3443	2556.75
1020.6334	2937.763	3413.65	2532.5
1020.7478	2938.8613	3382.65	2499.85
1020.8622	2939.959	3345.5	2458.45
1020.9765	2941.056	3273.5	2390.45
1021.0908	2942.1523	3194.8	2311.8
1021.2051	2943.248	3123.55	2242.5
1021.3193	2944.3431	3044.3	2163.55
1021.4334	2945.4375	2932.65	2053.75
1021.5476	2946.5313	2845.15	1963.85
1021.6617	2947.6244	2741.95	1859.95
1021.7757	2948.7169	2638.9	1753.95
1021.8897	2949.8087	2559.15	1675.9
1022.0037	2950.8999	2485.8	1604.65
1022.1176	2951.9904	2394.85	1512.3
1022.2315	2953.0803	2333	1450.55
1022.3453	2954.1696	2269.75	1387.9
1022.4591	2955.2582	2216.3	1332.3
1022.5728	2956.3462	2171.55	1289.55
1022.6865	2957.4335	2126.55	1242.6
1022.8002	2958.5202	2103.1	1220.25
1022.9138	2959.6062	2070.65	1188.65
1023.0274	2960.6916	2049.4	1168.4
1023.141	2961.7764	2035.1	1151.6
1023.2545	2962.8605	2022.9	1142.7
1023.3679	2963.9439	1995.9	1114.5
1023.4813	2965.0267	1995	1111.95
1023.5947	2966.1089	2010.7	1107.4
1023.708	2967.1905	1980.7	1100.4
1023.8213	2968.2714	1976	1096.45
1023.9346	2969.3516	1964.5	1083.3
1024.0478	2970.4312	1974.9	1085.55
1024.1609	2971.5102	1968.35	1088.2
1024.274	2972.5885	1977.9	1095.6
1024.3871	2973.6662	1989.2	1102.6
1024.5002	2974.7432	1982.5	1100.35
1024.6132	2975.8196	1978.7	1098.35
1024.7261	2976.8954	1968.6	1086.65
1024.839	2977.9705	1961.35	1081.75
1024.9519	2979.045	1953.15	1072.2
1025.0647	2980.1188	1929.8	1047.4
1025.1775	2981.192	1922.9	1044.55
1025.2902	2982.2645	1911.85	1030
1025.4029	2983.3364	1884.35	1004.55
1025.5156	2984.4077	1853.35	972.95
1025.6282	2985.4783	1835.35	949.15
1025.7407	2986.5483	1795.75	915.55
1025.8532	2987.6177	1768.8	891
1025.9657	2988.6864	1734.8	854
1026.0782	2989.7545	1705.25	822.4
1026.1906	2990.8219	1665.95	786.1
1026.3029	2991.8887	1644.05	761.75
1026.4152	2992.9548	1617.75	736.15
1026.5275	2994.0204	1577.05	696.3
1026.6397	2995.0852	1545.95	666
1026.7519	2996.1495	1525.1	643.75
1026.864	2997.2131	1495.7	614.95
1026.9761	2998.276	1483.65	604.3
1027.0882	2999.3383	1454.85	574.7
1027.2002	3000.4	1431.9	550.25
1027.3122	3001.4611	1415.95	536.35
1027.4241	3002.5215	1398.2	518.15
1027.536	3003.5812	1384.65	504.35
1027.6478	3004.6404	1369.15	486.75
1027.7596	3005.6989	1360.3	478.65
1027.8714	3006.7567	1347.1	467
1027.9831	3007.8139	1366.45	453.9
1028.0947	3008.8705	1329.85	447.75
1028.2064	3009.9264	1328.8	445.1
1028.3179	3010.9818	1315.4	436.1
1028.4295	3012.0364	1309.85	428.25
1028.541	3013.0905	1304.5	424.85
1028.6524	3014.1439	1301.45	421.1
1028.7638	3015.1966	1292.2	410.05
1028.8752	3016.2487	1287.05	407.5
1028.9865	3017.3002	1291.85	403.9
1029.0978	3018.3511	1276.55	395.3
1029.209	3019.4013	1284.05	404.5
1029.3202	3020.4509	1281.1	401.7
1029.4314	3021.4998	1281.7	401.85
1029.5425	3022.5481	1279.75	400.15
1029.6535	3023.5958	1273.75	393.85
1029.7645	3024.6428	1271.9	390.3
1029.8755	3025.6892	1274.5	395.05
1029.9864	3026.735	1275.55	396.95
1030.0973	3027.7802	1277	395.45
1030.2082	3028.8247	1270.4	392.05
1030.319	3029.8685	1272.2	392
1030.4297	3030.9118	1270.65	389.6
1030.5404	3031.9544	1271.9	393.8
1030.6511	3032.9963	1284.1	405.3
1030.7617	3034.0376	1284	403.35
1030.8723	3035.0783	1287.2	403.7
1030.9829	3036.1184	1281.85	400.45
1031.0934	3037.1578	1284.6	406.5
1031.2038	3038.1966	1287.25	406.45
1031.3142	3039.2348	1280.7	402.5
1031.4246	3040.2723	1298.95	408.8
1031.5349	3041.3092	1288.65	411.75
1031.6452	3042.3455	1295.05	417.6
1031.7554	3043.3811	1283.5	402.6
1031.8656	3044.4161	1284.45	405.45
1031.9758	3045.4505	1285.25	404.15
1032.0859	3046.4842	1282.2	400.55
1032.1959	3047.5173	1277.65	400
1032.3059	3048.5498	1279.15	400.95
1032.4159	3049.5816	1271.7	389.75
1032.5258	3050.6128	1268.5	387.6
1032.6357	3051.6434	1268.6	386.3
1032.7455	3052.6734	1264.9	386
1032.8553	3053.7027	1257.25	378.95
1032.9651	3054.7314	1254.25	374.7
1033.0748	3055.7594	1250.15	372.7
1033.1845	3056.7868	1246.9	367.6
1033.2941	3057.8136	1253.3	375.5
1033.4037	3058.8398	1236.75	356.3
1033.5132	3059.8653	1242.4	363.65
1033.6227	3060.8902	1234.7	355.9
1033.7321	3061.9145	1239.95	358.6
1033.8415	3062.9381	1232.75	354.2
1033.9509	3063.9612	1248.9	351.55
1034.0602	3064.9835	1226.55	346.7
1034.1694	3066.0053	1225.35	344.6
1034.2787	3067.0264	1215	336.1
1034.3878	3068.0469	1214.9	334.2
1034.497	3069.0668	1210.45	328.85
1034.6061	3070.086	1206.25	327.15
1034.7151	3071.1046	1200.6	322.35
1034.8241	3072.1226	1198.45	317.75
1034.9331	3073.1399	1184.65	304.5
1035.042	3074.1567	1181.15	302.95
1035.1508	3075.1727	1174.2	293.7
1035.2597	3076.1882	1163.65	285.5
1035.3684	3077.203	1155.05	274.9
1035.4772	3078.2173	1153.6	273.2
1035.5859	3079.2308	1147.75	266.25
1035.6945	3080.2438	1141.9	260.1
1035.8031	3081.2561	1135.95	257.85
1035.9117	3082.2678	1130.35	252.25
1036.0202	3083.2789	1122.25	243.55
1036.1286	3084.2893	1122.6	244.35
1036.2371	3085.2991	1112	231.85
1036.3454	3086.3083	1113.85	231.1
1036.4538	3087.3169	1107.5	226.6
1036.562	3088.3248	1098.9	218.9
1036.6703	3089.3321	1096.9	216.7
1036.7785	3090.3388	1086.15	208.1
1036.8866	3091.3449	1084.3	204.4
1036.9948	3092.3503	1083.15	201.5
1037.1028	3093.3551	1079.3	201.25
1037.2108	3094.3593	1082.2	205.8
1037.3188	3095.3629	1076	197.5
1037.4267	3096.3658	1072.05	193.05
1037.5346	3097.3681	1065.45	187.15
1037.6425	3098.3698	1065.75	183.7
1037.7503	3099.3708	1071.85	188
1037.858	3100.3713	1062.35	184.85
1037.9657	3101.3711	1054.55	175.05
1038.0734	3102.3702	1170.5	177.75
1038.181	3103.3688	1051	169.9
1038.2886	3104.3667	1053.9	173.85
1038.3961	3105.364	1050	170.5
1038.5036	3106.3607	1047	168.05
1038.611	3107.3568	1043.4	163.05
1038.7184	3108.3522	1042.9	163.65
1038.8257	3109.347	1042.75	164.05
1038.933	3110.3412	1041.1	158.9
1039.0403	3111.3348	1037.15	158.35
1039.1475	3112.3277	1036.25	156.95
1039.2547	3113.32	1030.75	151.65
1039.3618	3114.3117	1030.7	150.55
1039.4689	3115.3028	1031.1	151.75
1039.5759	3116.2932	1031.85	152.25
1039.6829	3117.2831	1034.6	151.4
1039.7898	3118.2723	1028.2	151.85
1039.8967	3119.2608	1030.4	153.65
1040.0035	3120.2488	1027.05	147.4
1040.1103	3121.2361	1019.75	141.95
1040.2171	3122.2229	1024.35	144.5
1040.3238	3123.209	1020.4	143.3
1040.4305	3124.1944	1014.95	137.7
1040.5371	3125.1793	1015.35	134.8
1040.6437	3126.1635	1012.65	136.45
1040.7502	3127.1471	1011.05	133.45
1040.8567	3128.1301	1010.35	132.45
1040.9631	3129.1125	1008.65	129.25
1041.0695	3130.0942	1011.65	132.65
1041.1759	3131.0753	1017.75	130.85
1041.2822	3132.0558	1009	128.1
1041.3884	3133.0357	1004.95	124.35
1041.4946	3134.015	1001.15	120.55
1041.6008	3134.9936	1001.4	121.6
1041.7069	3135.9716	1022.35	121.8
1041.813	3136.949	1004.4	127.65
1041.919	3137.9258	1020	122.05
1042.025	3138.902	1006.1	121.65
1042.1309	3139.8775	998.85	120.9
1042.2368	3140.8524	995.1	115.65
1042.3427	3141.8267	999.2	118.7
1042.4485	3142.8004	998.65	119.85
1042.5542	3143.7735	1002.25	117.3
1042.6599	3144.7459	998.8	118.7
1042.7656	3145.7178	993.35	114.15
1042.8712	3146.689	991.9	116.5
1042.9768	3147.6596	991.05	109.7
1043.0823	3148.6295	991.7	113.25
1043.1878	3149.5989	990.7	112.6
1043.2932	3150.5676	986.5	107.1
1043.3986	3151.5357	985.3	108.7
1043.5039	3152.5032	987.35	110.05
1043.6092	3153.4701	990.4	113.35
1043.7145	3154.4364	984.05	102.85
1043.8197	3155.402	984.4	106.65
1043.9248	3156.367	988.55	108.7
1044.03	3157.3315	1016.7	102
1044.135	3158.2952	977.35	100.4
1044.24	3159.2584	981	104.2
1044.345	3160.221	980.65	101.05
1044.4499	3161.1829	977.9	99.5
1044.5548	3162.1442	974.9	98.05
1044.6596	3163.105	979.65	101.55
1044.7644	3164.065	976.9	98.4
1044.8692	3165.0245	983.4	103.9
1044.9739	3165.9834	975.35	100.3
1045.0785	3166.9416	975.2	97.9
1045.1831	3167.8993	975.25	96.55
1045.2877	3168.8563	972.95	94.4
1045.3922	3169.8127	973.3	97.5
1045.4966	3170.7684	975.15	98.4
1045.6011	3171.7236	974.55	95.55
1045.7054	3172.6782	971.35	94.65
1045.8098	3173.6321	970.35	92.55
1045.914	3174.5854	974.3	92.7
1046.0183	3175.5381	969.4	90.9
1046.1224	3176.4902	971.3	94.65
1046.2266	3177.4417	968.35	90.55
1046.3307	3178.3926	968.65	91.4
1046.4347	3179.3428	964.25	86.85
1046.5387	3180.2924	969.2	91.55
1046.6427	3181.2415	965.8	88.2
1046.7466	3182.1899	970	89.95
1046.8504	3183.1377	968.55	91.1
1046.9542	3184.0848	967.65	89.2
1047.058	3185.0314	961.25	84
1047.1617	3185.9773	963.2	85.7
1047.2654	3186.9227	964.9	86.55
1047.369	3187.8674	965.55	88.2
1047.4726	3188.8115	964.8	82.45
1047.5761	3189.755	965.75	88.35
1047.6796	3190.6979	961.7	85.35
1047.783	3191.6402	959.75	82.8
1047.8864	3192.5818	961.25	83.25
1047.9898	3193.5229	966.25	82.3
1048.0931	3194.4633	961.05	85.35
1048.1963	3195.4031	956.95	80.05
1048.2995	3196.3423	957.05	77.75
1048.4027	3197.2809	959.15	81.7
1048.5058	3198.2189	958.35	81.05
1048.6089	3199.1563	976.95	82.85
1048.7119	3200.0931	954.4	76.3
1048.8148	3201.0292	954.25	77.85
1048.9178	3201.9648	955.05	77.3
1049.0206	3202.8997	955.95	76.4
1049.1235	3203.834	957.75	81.85
1049.2262	3204.7677	957.85	82.65
1049.329	3205.7008	955.15	74.25
1049.4317	3206.6333	950.45	74.8
1049.5343	3207.5652	955.25	76
1049.6369	3208.4964	952.6	75.75
1049.7394	3209.4271	950.4	74.65
1049.8419	3210.3571	950.1	71.6
1049.9444	3211.2865	951.5	73.05
1050.0468	3212.2154	951.15	72.15
1050.1491	3213.1436	952.95	74.5
1050.2514	3214.0712	954.1	71.25
1050.3537	3214.9982	953	74.4
1050.4559	3215.9246	947	69.25
1050.5581	3216.8503	945.7	69.6
1050.6602	3217.7755	950.4	74.55
1050.7623	3218.7001	946.75	71.4
1050.8643	3219.624	949.1	72.25
1050.9663	3220.5473	947.1	70.05
1051.0682	3221.4701	947.65	71.9
1051.1701	3222.3922	948.65	70.35
1051.2719	3223.3137	945.1	68.75
1051.3737	3224.2346	943.25	66.15
1051.4754	3225.1549	944.25	66.85
1051.5771	3226.0746	940.7	64.05
1051.6788	3226.9937	943.45	65.2
1051.7804	3227.9121	941.45	66.15
1051.8819	3228.83	944.3	70.6
1051.9834	3229.7473	944.7	66.5
1052.0849	3230.6639	940.4	63.75
1052.1863	3231.5799	940.6	63.9
1052.2876	3232.4954	943.55	65.9
1052.3889	3233.4102	939.75	63
1052.4902	3234.3244	940.15	62.5
1052.5914	3235.238	939.45	63.1
1052.6926	3236.151	964.65	63.4
1052.7937	3237.0634	937.75	62.65
1052.8948	3237.9752	937.65	59.75
1052.9958	3238.8864	937.55	58.15
1053.0968	3239.797	935.85	59.15
1053.1977	3240.7069	937.8	59.2
1053.2986	3241.6163	939.05	62.15
1053.3994	3242.5251	936	60
1053.5002	3243.4332	936.75	61.05
1053.6009	3244.3408	934.95	59.15
1053.7016	3245.2477	934.35	57.3
1053.8022	3246.154	934.5	56.8
1053.9028	3247.0598	935.8	59.6
1054.0034	3247.9649	929.45	52.55
1054.1039	3248.8694	933.55	60.4
1054.2043	3249.7733	935.85	58.85
1054.3047	3250.6766	935.1	57.95
1054.4051	3251.5793	930.9	53.75
1054.5054	3252.4814	934.5	57.55
1054.6056	3253.3829	930.2	54.9
1054.7058	3254.2838	932.85	54.85
1054.806	3255.1841	928.8	54.6
1054.9061	3256.0838	927.95	52.3
1055.0061	3256.9829	926.95	50.85
1055.1062	3257.8814	928	50.3
1055.2061	3258.7792	930.45	51.3
1055.306	3259.6765	930.5	54.4
1055.4059	3260.5731	926.45	50.95
1055.5057	3261.4692	927	50.35
1055.6055	3262.3647	925.6	51.15
1055.7052	3263.2595	922.65	44.7
1055.8049	3264.1538	922.1	48.05
1055.9045	3265.0474	924.35	46.1
1056.0041	3265.9404	919.95	45.4
1056.1036	3266.8329	918.7	44.85
1056.2031	3267.7247	929.6	44.2
1056.3025	3268.616	921.1	47.4
1056.4019	3269.5066	918.15	42.2
1056.5013	3270.3966	917.5	38.7
1056.6005	3271.286	914.75	40.4
