Software Version:	3.9.2.0
Unit SN:	10000200
Spectrometer SN:	6960
Date:	3/8/2024 12:25:04 PM
Data Line Index:	25
Spectral Points:	2048
Integration time (ms):	125
Averages:	20
Delay (ms):	30000
Sequence Number:	1
Processing:	dark subtract
Laser Power (mW):	300
Laser Current (mA):	822
Laser Diode Temp (C):	25
Laser Case Temp (C):	25.9
System Temp (C):	25.9
Spectrometer Temp (C):	23.7
CCD Temp (C):	0.008
Secondary Temp (C):	20.006
Heatsink Temp (C):	21.117
CCDPCB Temp (C):	35.784
SecondaryPCB Temp (C):	29.093

Wavelength	RamanShift	Raw Counts	Dark Subtracted
787.061	30.1047	417.5	7.2
787.2016	32.3739	416	6.65
787.3422	34.6426	417.9	8.9
787.4828	36.9109	419.95	10.65
787.6235	39.1787	424.75	10.8
787.7642	41.4461	430.15	9.55
787.9049	43.7131	434.75	13.55
788.0456	45.9796	437.35	12.5
788.1863	48.2456	442.8	13.8
788.3271	50.5112	446.9	13.95
788.4679	52.7764	450.8	14.5
788.6087	55.0411	457.1	16.1
788.7496	57.3054	464.45	15.85
788.8904	59.5692	466.65	19.05
789.0313	61.8326	471.8	22.7
789.1722	64.0955	475.75	23.35
789.3132	66.3579	482.65	24.65
789.4541	68.6199	490.5	29.8
789.5951	70.8815	504.75	39.1
789.7361	73.1426	527.55	58.3
789.8771	75.4032	579.85	105.7
790.0181	77.6634	692.15	213.6
790.1592	79.9231	962.55	474.8
790.3003	82.1824	1536.3	1036.05
790.4414	84.4412	2451.85	1925.05
790.5825	86.6995	3667.4	3112.9
790.7237	88.9574	4799.2	4214
790.8648	91.2148	5590.55	4990.65
791.006	93.4717	5922	5308.2
791.1472	95.7282	5940.7	5319.2
791.2885	97.9842	5874.15	5254.7
791.4297	100.2398	5723.35	5098.75
791.571	102.4949	5556.05	4925.9
791.7123	104.7495	5395.4	4766.95
791.8536	107.0036	5193.7	4560.9
791.9949	109.2573	5027.75	4390.1
792.1363	111.5105	4868.2	4234.75
792.2777	113.7632	4696.6	4058.2
792.4191	116.0154	4541.8	3893.7
792.5605	118.2672	4395.85	3754.15
792.7019	120.5185	4285.5	3641.6
792.8434	122.7693	4180.1	3533.95
792.9849	125.0197	4093.1	3445.5
793.1264	127.2696	4016.75	3362.75
793.2679	129.519	3963.65	3305.55
793.4094	131.7679	3906.15	3244.25
793.551	134.0163	3842.1	3178.75
793.6926	136.2642	3773.1	3105.85
793.8342	138.5117	3706.95	3032.2
793.9758	140.7587	3631.55	2961.15
794.1175	143.0052	3543.4	2868.8
794.2591	145.2512	3461.45	2789.05
794.4008	147.4967	3392	2721.05
794.5425	149.7417	3336.3	2662.65
794.6842	151.9863	3305.8	2629.05
794.826	154.2304	3286.3	2601.5
794.9677	156.4739	3253.9	2563.95
795.1095	158.717	3259.65	2568.7
795.2513	160.9596	3244.95	2549.65
795.3931	163.2017	3221.3	2522.75
795.535	165.4433	3174.75	2472.85
795.6768	167.6844	3117.8	2419.45
795.8187	169.925	3069.55	2368.8
795.9606	172.1651	2975.1	2271.25
796.1025	174.4047	2910.5	2199.3
796.2445	176.6439	2863.45	2154.4
796.3864	178.8825	2821.45	2107.15
796.5284	181.1206	2792.5	2073.6
796.6704	183.3582	2779.1	2054.7
796.8124	185.5954	2761.05	2037
796.9544	187.832	2745.55	2018.75
797.0965	190.0681	2752.5	2021.55
797.2386	192.3037	2755.45	2020.95
797.3806	194.5388	2758.05	2019.6
797.5228	196.7734	2773.8	2035.7
797.6649	199.0075	2792.35	2053.75
797.807	201.2411	2821.55	2080
797.9492	203.4742	2849.45	2108.75
798.0914	205.7068	2887.25	2135.75
798.2336	207.9389	2905.6	2155
798.3758	210.1704	2930.95	2184.6
798.518	212.4015	2936.7	2198.65
798.6603	214.632	2956.95	2226.1
798.8025	216.862	2980.15	2256.3
798.9448	219.0915	2992.95	2263.6
799.0871	221.3205	3004.75	2273.55
799.2294	223.549	3004.95	2278.5
799.3718	225.777	3014.4	2292.4
799.5141	228.0044	3022.05	2288.9
799.6565	230.2314	3029.3	2298.4
799.7989	232.4578	3008.95	2271.7
799.9413	234.6837	3003.45	2258.75
800.0837	236.909	3013.7	2263.55
800.2262	239.1339	3002.1	2225.9
800.3687	241.3582	2990.45	2232.1
800.5111	243.582	2997.85	2208.9
800.6536	245.8053	2992.05	2219.95
800.7961	248.0281	3002	2227.25
800.9387	250.2503	3017.2	2240.1
801.0812	252.472	3024.45	2245.55
801.2238	254.6932	3060.65	2286.75
801.3664	256.9139	3080.25	2303.1
801.509	259.134	3143.65	2363.05
801.6516	261.3536	3199.85	2421.7
801.7942	263.5727	3280.4	2498
801.9369	265.7912	3350.45	2568.05
802.0795	268.0092	3440.7	2656.35
802.2222	270.2267	3508.65	2727.35
802.3649	272.4436	3573.9	2794.9
802.5076	274.6601	3592.6	2799.2
802.6504	276.8759	3600.45	2814
802.7931	279.0913	3610.65	2821.3
802.9359	281.3061	3598.5	2804.7
803.0787	283.5204	3617.35	2820.9
803.2215	285.7341	3639.1	2840.3
803.3643	287.9473	3658.7	2860.55
803.5071	290.16	3639.4	2840.45
803.6499	292.3721	3610	2811.9
803.7928	294.5837	3625.45	2827.6
803.9357	296.7947	3637.15	2842.1
804.0786	299.0052	3645.85	2849.65
804.2215	301.2152	3655.55	2854.4
804.3644	303.4246	3629.45	2833.65
804.5074	305.6334	3577.65	2783.65
804.6503	307.8418	3510.05	2711.55
804.7933	310.0495	3441.35	2639.75
804.9363	312.2568	3344.15	2542.7
805.0793	314.4635	3260.85	2455.2
805.2223	316.6696	3167.25	2358.1
805.3653	318.8752	3115.75	2300.8
805.5084	321.0802	3074.35	2267.4
805.6514	323.2847	3055.6	2245.2
805.7945	325.4887	3067.65	2257.5
805.9376	327.692	3072.05	2258.5
806.0807	329.8949	3106.55	2294.15
806.2238	332.0972	3113.75	2298.9
806.367	334.2989	3094.85	2272.95
806.5101	336.5001	3052.35	2235.75
806.6533	338.7007	3009.2	2189.8
806.7965	340.9008	2946.6	2131.4
806.9397	343.1003	2900.35	2080.7
807.0829	345.2992	2845.7	2021.5
807.2261	347.4976	2814.05	1984.85
807.3693	349.6955	2779.7	1949.5
807.5126	351.8927	2769.85	1938.5
807.6559	354.0895	2742.4	1898.2
807.7991	356.2856	2721.15	1890.85
807.9424	358.4812	2706.9	1880.75
808.0857	360.6763	2712.6	1879.1
808.2291	362.8707	2708.75	1873.75
808.3724	365.0646	2710.4	1868.3
808.5158	367.258	2737.05	1899
808.6591	369.4508	2760.1	1918.25
808.8025	371.643	2805.9	1962.2
808.9459	373.8346	2826.25	1983.1
809.0893	376.0257	2875.8	2029.8
809.2327	378.2162	2897.9	2054.6
809.3762	380.4062	2898.95	2053
809.5196	382.5956	2878.6	2034.05
809.6631	384.7844	2813.95	1976.25
809.8066	386.9726	2770.75	1935.85
809.9501	389.1603	2754.6	1918
810.0936	391.3474	2766.4	1896.25
810.2371	393.5339	2742.15	1904.25
810.3806	395.7199	2742.65	1904.7
810.5241	397.9052	2775.55	1937.3
810.6677	400.09	2817.3	1981.85
810.8113	402.2743	2866.4	2032.3
810.9548	404.4579	2920.5	2080.55
811.0984	406.641	2973.45	2130.8
811.2421	408.8235	3031.2	2190
811.3857	411.0054	3083.25	2235.8
811.5293	413.1868	3147.3	2299.85
811.673	415.3675	3171.8	2322.45
811.8166	417.5477	3136.55	2283.7
811.9603	419.7273	3067.2	2210.6
812.104	421.9064	3024.1	2165.2
812.2477	424.0848	2979.1	2126.05
812.3914	426.2627	2923.5	2066.95
812.5351	428.4399	2869.25	2015.2
812.6788	430.6166	2771.3	1912.55
812.8226	432.7928	2707.7	1846.25
812.9663	434.9683	2658.85	1801.35
813.1101	437.1432	2612.5	1751.6
813.2539	439.3176	2568.2	1715.7
813.3977	441.4914	2542.8	1687.4
813.5415	443.6645	2540.6	1683.45
813.6853	445.8371	2539.55	1678.05
813.8291	448.0091	2540.05	1686.4
813.973	450.1806	2538.6	1682.3
814.1168	452.3514	2540.3	1680.35
814.2607	454.5216	2541.85	1678.65
814.4046	456.6913	2535.55	1677.4
814.5485	458.8603	2540.2	1683.45
814.6924	461.0288	2550.7	1692.45
814.8363	463.1967	2549.65	1695.25
814.9802	465.3639	2551.85	1692.75
815.1241	467.5306	2539.8	1680.3
815.2681	469.6967	2537.8	1679.3
815.412	471.8622	2531	1673.95
815.556	474.0271	2532.5	1673.1
815.7	476.1914	2530.35	1670.55
815.844	478.3551	2538.15	1676.5
815.988	480.5182	2548.15	1685.1
816.132	482.6807	2560.2	1705.7
816.276	484.8426	2589.2	1741.9
816.4201	487.0039	2661.8	1809.7
816.5641	489.1647	2750.75	1885.45
816.7082	491.3248	2820.95	1957.9
816.8522	493.4843	2820.15	1962.75
816.9963	495.6432	2816.95	1956.4
817.1404	497.8015	2778.45	1910.4
817.2845	499.9592	2733	1861.05
817.4286	502.1163	2674.85	1804.7
817.5727	504.2728	2606.9	1740.9
817.7168	506.4287	2544.1	1683.65
817.861	508.5839	2507.55	1647.6
818.0051	510.7386	2485	1620.05
818.1493	512.8927	2480.9	1612.65
818.2935	515.0461	2491.75	1623.25
818.4377	517.199	2525	1657.15
818.5818	519.3512	2588.5	1712.4
818.726	521.5029	2677.25	1800.8
818.8703	523.6539	2718.45	1846.05
819.0145	525.8043	2754.8	1878.05
819.1587	527.9541	2698	1819.2
819.303	530.1033	2642	1766.7
819.4472	532.2519	2589.25	1712.9
819.5915	534.3999	2562.65	1684.65
819.7357	536.5472	2552.9	1678.95
819.88	538.694	2572.05	1698.15
820.0243	540.8401	2598.5	1722
820.1686	542.9856	2648.1	1764.15
820.3129	545.1305	2643.8	1753.9
820.4572	547.2748	2645.05	1755.95
820.6016	549.4185	2642	1752
820.7459	551.5615	2633	1745.9
820.8902	553.704	2657.3	1776
821.0346	555.8458	2676.3	1794.2
821.1789	557.987	2730.7	1855.5
821.3233	560.1276	2778.5	1895.7
821.4677	562.2675	2875.15	1992
821.6121	564.4069	2987.2	2105.6
821.7565	566.5456	3078.05	2195.65
821.9009	568.6837	3115.5	2236.4
822.0453	570.8212	3014.3	2133
822.1897	572.958	2881.7	1999.45
822.3342	575.0942	2732.9	1852.4
822.4786	577.2299	2645.2	1765.25
822.6231	579.3648	2607.15	1737.2
822.7675	581.4992	2580	1714.05
822.912	583.6329	2597.45	1731.35
823.0565	585.766	2644.55	1777.3
823.201	587.8985	2697.6	1824.75
823.3454	590.0304	2762.35	1858.75
823.4899	592.1616	2766.8	1878.25
823.6345	594.2922	2739.45	1849.6
823.779	596.4222	2688.9	1799.35
823.9235	598.5515	2622.2	1729.6
824.068	600.6802	2569.95	1676.75
824.2126	602.8083	2526.45	1638.35
824.3571	604.9358	2517	1628.2
824.5017	607.0626	2527.3	1636.85
824.6462	609.1888	2561.85	1665.7
824.7908	611.3144	2606.55	1711.75
824.9354	613.4393	2667.25	1769.2
825.08	615.5636	2714.85	1817.1
825.2246	617.6873	2744	1850.3
825.3692	619.8103	2766.5	1868.3
825.5138	621.9327	2732.15	1836.55
825.6584	624.0544	2673.25	1783.65
825.803	626.1756	2608.3	1716.95
825.9477	628.2961	2557.8	1664.25
826.0923	630.4159	2535.9	1639.55
826.237	632.5351	2531.55	1634.45
826.3816	634.6537	2513.05	1613.1
826.5263	636.7716	2512.2	1609.95
826.6709	638.8889	2511.45	1610.25
826.8156	641.0056	2514.9	1613
826.9603	643.1216	2511.5	1610.25
827.105	645.237	2508.3	1609.5
827.2497	647.3518	2479.95	1584.05
827.3944	649.4659	2456.85	1568.05
827.5391	651.5793	2431.3	1539.4
827.6838	653.6922	2416.2	1522.8
827.8285	655.8043	2403	1507.8
827.9733	657.9159	2400.7	1501.45
828.118	660.0268	2402.45	1505.7
828.2627	662.137	2409.55	1511.7
828.4075	664.2466	2423.9	1520.35
828.5522	666.3556	2409.25	1505.1
828.697	668.4639	2390	1487.3
828.8418	670.5716	2388.35	1492.9
828.9865	672.6786	2379.9	1481.65
829.1313	674.785	2372.85	1473.15
829.2761	676.8907	2348.2	1446.45
829.4209	678.9958	2357.3	1462.05
829.5657	681.1002	2346.9	1443.05
829.7105	683.204	2351.9	1444.45
829.8553	685.3072	2352.7	1445.9
830.0001	687.4097	2349.75	1444.75
830.1449	689.5115	2355.65	1448.35
830.2898	691.6127	2341.55	1440.05
830.4346	693.7132	2342.2	1442.3
830.5794	695.8131	2371.7	1445.55
830.7243	697.9123	2367.95	1461.05
830.8691	700.0109	2373.5	1463.2
831.014	702.1089	2383.15	1475.15
831.1588	704.2061	2404.85	1499.15
831.3037	706.3028	2437.7	1530.15
831.4486	708.3987	2450.9	1544.45
831.5935	710.4941	2451.55	1543.25
831.7383	712.5887	2458.45	1554.55
831.8832	714.6827	2474.7	1563.85
832.0281	716.7761	2467.3	1567.45
832.173	718.8688	2484.5	1576.7
832.3179	720.9608	2520.15	1610.55
832.4628	723.0522	2539.55	1619.25
832.6077	725.1429	2585.4	1672.5
832.7527	727.233	2637.1	1726.45
832.8976	729.3224	2716.2	1805.25
833.0425	731.4112	2733.85	1822.4
833.1874	733.4993	2700.15	1790.4
833.3324	735.5867	2631.55	1718.9
833.4773	737.6735	2561.85	1650.45
833.6222	739.7596	2501.75	1589.2
833.7672	741.845	2464.8	1554.4
833.9122	743.9298	2446.2	1533.2
834.0571	746.014	2451.45	1537.3
834.2021	748.0974	2446.5	1532.6
834.347	750.1802	2448.3	1532.1
834.492	752.2624	2436.95	1521.65
834.637	754.3439	2438.35	1522.15
834.782	756.4247	2472.05	1547.15
834.9269	758.5048	2489.65	1574.15
835.0719	760.5843	2542.75	1629.35
835.2169	762.6631	2620.3	1704.4
835.3619	764.7413	2742.4	1826.3
835.5069	766.8188	2893.15	1977.8
835.6519	768.8956	3028.45	2113.5
835.7969	770.9718	3118.9	2204.4
835.9419	773.0473	3106.7	2192.35
836.0869	775.1221	3077.35	2161.35
836.232	777.1962	3052.15	2137.6
836.377	779.2697	3082.55	2162.85
836.522	781.3426	3163.35	2234.1
836.667	783.4147	3186.4	2268.1
836.8121	785.4862	3173.05	2258.8
836.9571	787.557	3059.35	2138.7
837.1021	789.6271	2911.95	1994.4
837.2472	791.6966	2755.85	1835.05
837.3922	793.7654	2611.7	1692.4
837.5373	795.8335	2527.85	1611.75
837.6823	797.901	2472.35	1556.85
837.8274	799.9678	2449.95	1530.65
837.9724	802.0339	2424.7	1506
838.1175	804.0993	2420.65	1490.65
838.2626	806.1641	2393.2	1472.55
838.4076	808.2282	2370.7	1451.05
838.5527	810.2916	2354.1	1435.45
838.6978	812.3544	2343.5	1424.5
838.8428	814.4164	2337.3	1421.25
838.9879	816.4778	2352	1429.2
839.133	818.5385	2364.2	1441.35
839.2781	820.5986	2401.9	1478.25
839.4232	822.658	2487.4	1564.05
839.5682	824.7166	2580.9	1661.65
839.7133	826.7747	2730.25	1806.65
839.8584	828.832	2873.4	1952.1
840.0035	830.8886	2987.65	2062.2
840.1486	832.9446	2993.85	2070.25
840.2937	834.9999	2956.7	2034.9
840.4388	837.0545	2839.3	1913.45
840.5839	839.1085	2721.95	1797.6
840.729	841.1618	2624.85	1698.75
840.8741	843.2143	2553.75	1631.3
841.0192	845.2662	2500.25	1577.4
841.1643	847.3175	2475.15	1549.05
841.3095	849.368	2450.85	1526.8
841.4546	851.4179	2432.1	1507.65
841.5997	853.467	2418.2	1492
841.7448	855.5155	2423.95	1497.85
841.8899	857.5633	2403.15	1477.4
842.0351	859.6105	2397.85	1473.25
842.1802	861.6569	2376	1448.7
842.3253	863.7027	2358.2	1432.2
842.4704	865.7478	2358.75	1432.8
842.6156	867.7922	2341.65	1417.75
842.7607	869.8359	2332.85	1408.2
842.9058	871.8789	2335.8	1410.05
843.0509	873.9212	2367.4	1408.3
843.1961	875.9629	2349.5	1423.75
843.3412	878.0039	2357.6	1430.65
843.4863	880.0441	2392.6	1467.5
843.6315	882.0837	2415	1489.05
843.7766	884.1226	2447.95	1520
843.9218	886.1609	2483.75	1557.65
844.0669	888.1984	2541.75	1616.85
844.212	890.2352	2581	1656.35
844.3572	892.2714	2591.25	1661.05
844.5023	894.3069	2570.45	1645.25
844.6475	896.3416	2501.5	1573.25
844.7926	898.3757	2452.05	1525.55
844.9377	900.4091	2438.7	1510.75
845.0829	902.4418	2443.15	1511.1
845.228	904.4739	2438.3	1509.2
845.3732	906.5052	2466.65	1538.45
845.5183	908.5358	2450.5	1519.3
845.6635	910.5658	2420.3	1492.15
845.8086	912.595	2371.65	1443.05
845.9538	914.6236	2328.75	1402.65
846.0989	916.6515	2282.2	1354.5
846.2441	918.6786	2258.45	1327.9
846.3892	920.7051	2245.45	1312.25
846.5344	922.7309	2254.15	1324.5
846.6795	924.756	2254.25	1326.3
846.8246	926.7804	2267.55	1336.2
846.9698	928.8041	2278.9	1350.05
847.1149	930.8272	2300.2	1371.65
847.2601	932.8495	2308.65	1377.05
847.4052	934.8711	2312.3	1379.8
847.5504	936.892	2318.7	1389.8
847.6955	938.9123	2334.95	1401.35
847.8407	940.9318	2356.4	1426.05
847.9858	942.9506	2372.05	1442.35
848.131	944.9688	2358	1430.2
848.2761	946.9862	2314.75	1385.3
848.4213	949.003	2275.8	1343.95
848.5664	951.019	2247.2	1319.05
848.7115	953.0344	2225.7	1293.15
848.8567	955.0491	2224.35	1290.65
849.0018	957.063	2223.45	1293.25
849.147	959.0763	2214.6	1285.65
849.2921	961.0888	2228.3	1296.55
849.4373	963.1007	2226.35	1295.95
849.5824	965.1119	2226.9	1306.05
849.7275	967.1223	2215.65	1298.35
849.8727	969.1321	2212.95	1294.55
850.0178	971.1412	2219.9	1296.55
850.1629	973.1495	2215	1290.45
850.3081	975.1572	2244.55	1286.45
850.4532	977.1641	2220.25	1289
850.5983	979.1704	2209.8	1278.65
850.7435	981.1759	2204.25	1271.2
850.8886	983.1808	2197.55	1267.1
851.0337	985.1849	2212.05	1271.05
851.1788	987.1884	2203.9	1269.4
851.324	989.1911	2211.45	1282.15
851.4691	991.1932	2230.9	1301.25
851.6142	993.1945	2217.65	1285.85
851.7593	995.1951	2223.45	1291
851.9045	997.1951	2227.95	1294
852.0496	999.1943	2215.15	1286.65
852.1947	1001.1928	2228.75	1295.15
852.3398	1003.1906	2235.3	1304.75
852.4849	1005.1877	2272.7	1341.25
852.63	1007.1841	2295.95	1362.9
852.7751	1009.1798	2310.55	1381.9
852.9202	1011.1748	2291.75	1360
853.0653	1013.1691	2263.75	1333.3
853.2104	1015.1627	2221.1	1291.05
853.3555	1017.1556	2176.5	1249
853.5006	1019.1477	2163.25	1236.55
853.6457	1021.1392	2124.55	1207.35
853.7908	1023.1299	2112.4	1193.6
853.9359	1025.12	2117.95	1200.3
854.081	1027.1093	2141.75	1231.65
854.2261	1029.0979	2155.25	1249.95
854.3712	1031.0859	2187.05	1273.75
854.5163	1033.0731	2207.8	1287.7
854.6613	1035.0596	2200.6	1277.55
854.8064	1037.0454	2188.2	1260.8
854.9515	1039.0304	2165.8	1236.75
855.0965	1041.0148	2143.5	1215.9
855.2416	1042.9985	2132.9	1204.6
855.3867	1044.9814	2122.35	1197.1
855.5317	1046.9636	2120	1190.35
855.6768	1048.9452	2118.3	1193.05
855.8219	1050.926	2131.1	1202.9
855.9669	1052.9061	2141.1	1214.3
856.112	1054.8855	2148.6	1220.6
856.257	1056.8642	2164	1233.2
856.4021	1058.8421	2152.5	1223.35
856.5471	1060.8194	2162.5	1232.3
856.6921	1062.7959	2178.7	1246.2
856.8372	1064.7717	2181.1	1250.4
856.9822	1066.7469	2192.65	1261
857.1272	1068.7213	2203.05	1273.75
857.2723	1070.695	2240.1	1311.95
857.4173	1072.6679	2255.9	1327.4
857.5623	1074.6402	2270.3	1342.85
857.7073	1076.6117	2274.7	1342.55
857.8523	1078.5826	2232.85	1300.9
857.9973	1080.5527	2203.7	1271.4
858.1423	1082.5221	2146.25	1216.65
858.2873	1084.4908	2137.05	1203.85
858.4323	1086.4587	2118.95	1186.7
858.5773	1088.426	2116.6	1189.4
858.7223	1090.3925	2123.35	1188.7
858.8673	1092.3584	2132.5	1203.95
859.0123	1094.3235	2146.05	1219.3
859.1573	1096.2879	2176.05	1243.7
859.3022	1098.2515	2222.05	1296.05
859.4472	1100.2145	2260.4	1332.1
859.5922	1102.1767	2310.7	1379.4
859.7371	1104.1382	2390.2	1463.4
859.8821	1106.099	2458.55	1529
860.027	1108.0591	2502.9	1575.35
860.172	1110.0185	2563.75	1631.6
860.3169	1111.9771	2605.15	1676.25
860.4619	1113.9351	2635.1	1705.05
860.6068	1115.8923	2658.85	1728.35
860.7517	1117.8488	2639.15	1708.8
860.8967	1119.8045	2572.65	1643.1
861.0416	1121.7596	2495.6	1563.95
861.1865	1123.7139	2422.05	1495.5
861.3314	1125.6675	2384.95	1460.1
861.4763	1127.6204	2387.5	1462.15
861.6212	1129.5726	2395.7	1464.25
861.7661	1131.524	2372.1	1447.1
861.911	1133.4748	2321.35	1392.2
862.0559	1135.4248	2255.25	1326.55
862.2008	1137.3741	2210.6	1282.35
862.3457	1139.3226	2172.55	1243.6
862.4905	1141.2705	2169.15	1242.45
862.6354	1143.2176	2178.95	1243.4
862.7803	1145.164	2172.85	1242.65
862.9251	1147.1097	2156.05	1229.8
863.07	1149.0546	2123.75	1192
863.2148	1150.9989	2086.05	1154.65
863.3597	1152.9424	2069.7	1140.35
863.5045	1154.8852	2047.25	1118.2
863.6493	1156.8272	2055.9	1129.3
863.7942	1158.7686	2065.15	1130.45
863.939	1160.7092	2069.55	1139.45
864.0838	1162.6491	2078.55	1147.7
864.2286	1164.5883	2104.8	1177.55
864.3734	1166.5267	2128.9	1200.55
864.5182	1168.4644	2180.75	1251.1
864.663	1170.4014	2234.25	1303.4
864.8078	1172.3377	2284.25	1358.25
864.9526	1174.2732	2377.65	1450.05
865.0974	1176.2081	2505.1	1577.25
865.2421	1178.1421	2673.9	1744.2
865.3869	1180.0755	2816.1	1891.45
865.5317	1182.0082	2881.15	1956.9
865.6764	1183.9401	2883.25	1955.25
865.8212	1185.8713	2776.8	1854.35
865.9659	1187.8017	2629.25	1714.2
866.1106	1189.7315	2512.05	1601.7
866.2554	1191.6605	2404.5	1492.45
866.4001	1193.5888	2335.8	1419.5
866.5448	1195.5163	2305.8	1385.35
866.6895	1197.4432	2270.85	1345.75
866.8342	1199.3693	2262.45	1339.1
866.9789	1201.2947	2258.15	1328.55
867.1236	1203.2193	2250.85	1324.95
867.2683	1205.1432	2238.3	1311.5
867.413	1207.0664	2232.25	1307.35
867.5576	1208.9889	2234.8	1305.25
867.7023	1210.9106	2239.9	1314.65
867.847	1212.8316	2233.85	1311.6
867.9916	1214.7519	2260.45	1326.05
868.1363	1216.6715	2258.7	1334.75
868.2809	1218.5903	2288.5	1366.2
868.4255	1220.5084	2317.2	1392.3
868.5701	1222.4257	2346	1419.45
868.7148	1224.3424	2370	1449.8
868.8594	1226.2583	2419.2	1489.9
869.004	1228.1735	2464.15	1539.7
869.1486	1230.0879	2514.6	1590.15
869.2932	1232.0016	2575.95	1650.45
869.4377	1233.9146	2630.55	1702.55
869.5823	1235.8269	2661.7	1735.7
869.7269	1237.7384	2678.2	1755.1
869.8715	1239.6492	2655.65	1731.4
870.016	1241.5592	2690.55	1763.5
870.1606	1243.4686	2736.05	1814.95
870.3051	1245.3772	2837.45	1914.35
870.4496	1247.285	2940	2016.95
870.5941	1249.1922	3047.85	2123.8
870.7387	1251.0986	3132.05	2208.8
870.8832	1253.0042	3231.45	2307.1
871.0277	1254.9092	3293.4	2369.35
871.1722	1256.8134	3349.7	2429.65
871.3167	1258.7169	3390.15	2465.5
871.4611	1260.6196	3396.2	2474.75
871.6056	1262.5216	3430.55	2507.55
871.7501	1264.4229	3410.5	2488.05
871.8945	1266.3234	3427.15	2505.05
872.039	1268.2232	3404.05	2480.4
872.1834	1270.1223	3410.45	2485
872.3278	1272.0207	3384.65	2461
872.4723	1273.9183	3379.15	2449.85
872.6167	1275.8151	3393.25	2470.35
872.7611	1277.7113	3445.25	2521.6
872.9055	1279.6067	3519.4	2596.65
873.0499	1281.5014	3684.2	2760.15
873.1943	1283.3953	3872.1	2947.1
873.3386	1285.2885	4059.7	3135.65
873.483	1287.181	4215.55	3293.5
873.6274	1289.0727	4340.3	3420.4
873.7717	1290.9637	4358.3	3433.55
873.9161	1292.854	4357.6	3435.35
874.0604	1294.7435	4297.2	3372.6
874.2047	1296.6323	4214.05	3289.8
874.349	1298.5204	4121.8	3194.1
874.4933	1300.4077	4017.75	3092.85
874.6376	1302.2943	3924.35	3000.65
874.7819	1304.1802	3842.05	2922.5
874.9262	1306.0653	3730.5	2806.95
875.0705	1307.9497	3603.4	2680.6
875.2147	1309.8333	3511.95	2589.95
875.359	1311.7162	3421.05	2497.65
875.5032	1313.5984	3355.05	2430.25
875.6475	1315.4798	3307.05	2380.9
875.7917	1317.3605	3291.8	2353.25
875.9359	1319.2405	3234.4	2309.45
876.0801	1321.1197	3153.45	2227.9
876.2243	1322.9982	3070	2144.3
876.3685	1324.876	2949.6	2023.4
876.5127	1326.753	2842.1	1918
876.6569	1328.6293	2745.8	1820.45
876.801	1330.5048	2676.15	1748.75
876.9452	1332.3796	2587.95	1665.75
877.0893	1334.2537	2578.05	1628.4
877.2335	1336.127	2488.45	1567.1
877.3776	1337.9996	2489.6	1566.15
877.5217	1339.8714	2459.75	1539.4
877.6658	1341.7426	2489.7	1518.05
877.8099	1343.6129	2451.7	1525.55
877.954	1345.4826	2442.8	1515.3
878.0981	1347.3515	2428.6	1503.45
878.2422	1349.2196	2411.25	1487.5
878.3862	1351.087	2420.25	1497.2
878.5303	1352.9537	2426.65	1503.05
878.6743	1354.8197	2449.45	1524.65
878.8184	1356.6849	2472.6	1549.55
878.9624	1358.5493	2501.85	1579.8
879.1064	1360.4131	2560.25	1636.6
879.2504	1362.276	2610.55	1686.05
879.3944	1364.1383	2644.4	1719.9
879.5384	1365.9998	2638.55	1709.05
879.6823	1367.8606	2582	1655.45
879.8263	1369.7206	2531	1608.5
879.9702	1371.5799	2476.8	1551
880.1142	1373.4384	2442.15	1517.25
880.2581	1375.2962	2382.35	1455.9
880.402	1377.1533	2292.55	1370.65
880.5459	1379.0096	2220.3	1301.2
880.6898	1380.8652	2153.9	1232.55
880.8337	1382.7201	2103.1	1184.45
880.9776	1384.5742	2048.5	1124.95
881.1215	1386.4275	2030.6	1106.25
881.2653	1388.2802	1996.4	1076.25
881.4092	1390.132	1969.1	1044.6
881.553	1391.9832	1953.9	1031.2
881.6968	1393.8336	1944.65	1024.55
881.8406	1395.6832	1942.2	1017.95
881.9844	1397.5322	1925.25	1002.75
882.1282	1399.3803	1916.3	990.35
882.272	1401.2278	1907.6	985.05
882.4158	1403.0745	1886.7	964.25
882.5595	1404.9204	1880.65	961.5
882.7033	1406.7656	1884.85	964.6
882.847	1408.6101	1877.1	954.3
882.9908	1410.4538	1887.05	964.05
883.1345	1412.2968	1891	969.3
883.2782	1414.139	1896	974.6
883.4219	1415.9805	1924.4	1004
883.5656	1417.8213	1926.85	998.5
883.7092	1419.6613	1956.25	1034.8
883.8529	1421.5006	1989.3	1064.95
883.9965	1423.3391	2048.8	1128.7
884.1402	1425.1769	2112.9	1191.1
884.2838	1427.0139	2206.1	1284.4
884.4274	1428.8502	2327.55	1405.15
884.571	1430.6858	2424.2	1503.45
884.7146	1432.5206	2495.2	1576.15
884.8582	1434.3547	2511	1588.25
885.0018	1436.188	2499.9	1580.7
885.1453	1438.0206	2476.4	1554.7
885.2889	1439.8524	2454.3	1533.75
885.4324	1441.6835	2434.45	1516
885.5759	1443.5139	2428.65	1502.9
885.7194	1445.3435	2430.8	1510.7
885.8629	1447.1724	2421.6	1503.3
886.0064	1449.0005	2418	1496.7
886.1499	1450.8279	2407.1	1487.85
886.2933	1452.6545	2404.8	1486.9
886.4368	1454.4804	2407	1491.5
886.5802	1456.3056	2409.55	1486.3
886.7237	1458.13	2397.65	1477.5
886.8671	1459.9536	2357.55	1438.55
887.0105	1461.7766	2302.3	1383.2
887.1539	1463.5987	2243.45	1323.05
887.2972	1465.4202	2167.05	1247.2
887.4406	1467.2409	2116.75	1195.95
887.584	1469.0608	2063.5	1146.9
887.7273	1470.88	2018.95	1099.95
887.8706	1472.6984	1970.45	1051.5
888.0139	1474.5161	1943.35	1019.65
888.1572	1476.3331	1904.55	985.2
888.3005	1478.1493	1890.65	969.5
888.4438	1479.9648	1874.5	956.95
888.5871	1481.7795	1870.35	954.25
888.7303	1483.5935	1862.25	943.5
888.8736	1485.4067	1851.5	934.55
889.0168	1487.2192	1864.8	948.45
889.16	1489.031	1860.65	940.45
889.3032	1490.842	1852.65	933.5
889.4464	1492.6522	1859.45	941.45
889.5896	1494.4618	1838.65	920.7
889.7327	1496.2705	1830.35	912.9
889.8759	1498.0785	1818.75	899.65
890.019	1499.8858	1818.5	899.05
890.1622	1501.6924	1806.05	891.25
890.3053	1503.4981	1788.35	871.1
890.4484	1505.3032	1784.75	864.15
890.5914	1507.1075	1775.65	857.3
890.7345	1508.911	1767.6	851.35
890.8776	1510.7138	1759.7	841.2
891.0206	1512.5159	1746.75	832.55
891.1637	1514.3172	1736.25	821.3
891.3067	1516.1178	1726	809.2
891.4497	1517.9176	1717.4	799.9
891.5927	1519.7166	1721.7	806.45
891.7357	1521.515	1705.95	783.7
891.8786	1523.3126	1704.55	787.75
892.0216	1525.1094	1710.55	793.4
892.1645	1526.9055	1701.6	786.7
892.3074	1528.7008	1692.25	775.9
892.4503	1530.4954	1685.7	768.25
892.5932	1532.2893	1684.5	769.7
892.7361	1534.0824	1683.4	767.55
892.879	1535.8747	1676	764.1
893.0218	1537.6663	1674.55	763.45
893.1647	1539.4572	1681.2	764.1
893.3075	1541.2473	1688.2	773.75
893.4503	1543.0367	1688.25	778.3
893.5931	1544.8253	1699.9	785.85
893.7359	1546.6132	1707.7	791.1
893.8787	1548.4003	1714.95	792.5
894.0214	1550.1867	1731.25	810.75
894.1642	1551.9723	1756.5	843.15
894.3069	1553.7572	1773.75	863.9
894.4496	1555.5414	1820.55	911
894.5923	1557.3247	1861.65	953.45
894.735	1559.1074	1912.85	1006.4
894.8777	1560.8893	1971.1	1061.8
895.0204	1562.6705	2014.15	1106.15
895.163	1564.4509	2043.25	1135.7
895.3056	1566.2305	2062.45	1157.55
895.4482	1568.0094	2068.8	1161.65
895.5908	1569.7876	2079.3	1172.35
895.7334	1571.565	2068.55	1160.35
895.876	1573.3417	2077.05	1168.3
896.0186	1575.1176	2079.2	1171.8
896.1611	1576.8928	2108.65	1203.3
896.3036	1578.6672	2128.9	1226.95
896.4461	1580.4409	2163.75	1264.65
896.5886	1582.2138	2198	1294.5
896.7311	1583.986	2245.55	1339.95
896.8736	1585.7575	2303.95	1398.4
897.0161	1587.5282	2336.1	1434.2
897.1585	1589.2981	2365.95	1465.15
897.3009	1591.0673	2408.9	1509.3
897.4433	1592.8358	2445.2	1541.55
897.5857	1594.6035	2466.7	1560.2
897.7281	1596.3704	2470.55	1564.75
897.8705	1598.1366	2482	1580.65
898.0128	1599.9021	2481.15	1578.25
898.1551	1601.6668	2482.2	1579.05
898.2975	1603.4308	2494.85	1589.65
898.4398	1605.194	2530.45	1624.2
898.5821	1606.9564	2578.85	1680.8
898.7243	1608.7182	2667.2	1765.65
898.8666	1610.4791	2769.45	1875.7
899.0088	1612.2394	2881.95	1988.95
899.1511	1613.9988	2989.5	2094
899.2933	1615.7576	3061.8	2164.1
899.4355	1617.5156	3105.1	2194.95
899.5776	1619.2728	3064.9	2161.25
899.7198	1621.0293	2971.4	2068.65
899.862	1622.785	2849.35	1944.5
900.0041	1624.54	2691.4	1790.5
900.1462	1626.2942	2549.85	1651.5
900.2883	1628.0477	2407	1507.3
900.4304	1629.8005	2296.15	1392.7
900.5725	1631.5525	2201.85	1303.05
900.7145	1633.3037	2099.5	1201.35
900.8566	1635.0542	2041.9	1143.6
900.9986	1636.804	1998.3	1101.9
901.1406	1638.553	2017.8	1055.6
901.2826	1640.3013	1926.3	1027.35
901.4245	1642.0488	1891.2	992.7
901.5665	1643.7955	1888.5	993.6
901.7085	1645.5416	1880.95	985.35
901.8504	1647.2868	1880.1	983.45
901.9923	1649.0313	1891.95	994.05
902.1342	1650.7751	1904.4	1002.3
902.2761	1652.5181	1930.2	1033.35
902.4179	1654.2604	1949.75	1054.7
902.5598	1656.0019	1976.45	1080.95
902.7016	1657.7427	2022.1	1122.8
902.8434	1659.4828	2085.3	1186.75
902.9852	1661.222	2120.7	1219.25
903.127	1662.9606	2156.85	1258.95
903.2687	1664.6984	2135.6	1234.1
903.4105	1666.4354	2078.35	1175.55
903.5522	1668.1717	1980.75	1079.7
903.6939	1669.9072	1880.65	980.45
903.8356	1671.642	1785.8	883.6
903.9773	1673.3761	1713.45	815.15
904.119	1675.1094	1654.4	754.15
904.2606	1676.8419	1608.1	709.2
904.4022	1678.5737	1588.25	690.25
904.5439	1680.3048	1555.05	654.8
904.6855	1682.0351	1542.6	644.4
904.827	1683.7646	1516.25	611.75
904.9686	1685.4934	1507.1	611.65
905.1101	1687.2215	1492.85	592.55
905.2517	1688.9488	1479.55	583.85
905.3932	1690.6754	1471.35	577.95
905.5347	1692.4012	1467.15	569.75
905.6761	1694.1263	1461.75	562.6
905.8176	1695.8506	1444.5	546.4
905.9591	1697.5742	1440.55	544.4
906.1005	1699.297	1437.3	542.05
906.2419	1701.0191	1426.15	533.5
906.3833	1702.7404	1423.9	529.3
906.5246	1704.461	1418.5	519.7
906.666	1706.1808	1413.25	515.55
906.8073	1707.8999	1405.1	506.65
906.9487	1709.6182	1400.3	506.1
907.09	1711.3358	1394.15	501.5
907.2313	1713.0527	1393.45	504.55
907.3725	1714.7688	1391.4	493.75
907.5138	1716.4841	1386	489.5
907.655	1718.1987	1389.5	490.95
907.7962	1719.9126	1378.9	486.25
907.9374	1721.6257	1385.55	492
908.0786	1723.338	1368.35	475.8
908.2198	1725.0496	1372.15	477.6
908.3609	1726.7605	1370.2	471.6
908.502	1728.4706	1374.9	480.85
908.6431	1730.18	1368.6	473.9
908.7842	1731.8886	1363.85	471.05
908.9253	1733.5964	1375.35	460.55
909.0664	1735.3036	1358.05	463.8
909.2074	1737.0099	1359	466.15
909.3484	1738.7156	1351.75	460.35
909.4894	1740.4204	1359.55	464.7
909.6304	1742.1246	1348.55	455.15
909.7714	1743.8279	1341.7	447.5
909.9123	1745.5306	1350.1	456.55
910.0532	1747.2325	1338.1	444.95
910.1941	1748.9336	1337.9	444.85
910.335	1750.634	1337.75	442.4
910.4759	1752.3336	1334.75	442.25
910.6168	1754.0325	1325.45	435.8
910.7576	1755.7307	1329.75	438.75
910.8984	1757.4281	1328.35	435.7
911.0392	1759.1247	1338	435.05
911.18	1760.8206	1327.15	427.65
911.3208	1762.5158	1326.5	430.1
911.4615	1764.2102	1321.55	430.3
911.6022	1765.9039	1317.35	423
911.7429	1767.5968	1318.05	429.05
911.8836	1769.289	1317.7	425.95
912.0243	1770.9804	1316.05	422.55
912.1649	1772.6711	1321.45	426.9
912.3056	1774.361	1319.95	424.5
912.4462	1776.0502	1320.95	427.15
912.5868	1777.7386	1317.9	420.8
912.7274	1779.4263	1313.5	419.35
912.8679	1781.1132	1312.4	420.2
913.0084	1782.7994	1309.05	416.9
913.149	1784.4849	1301.8	410.2
913.2895	1786.1696	1320.55	412.45
913.4299	1787.8535	1304.9	414.45
913.5704	1789.5367	1307.55	417.3
913.7108	1791.2192	1302.15	412.45
913.8513	1792.9009	1322.55	406.05
913.9917	1794.5818	1306.65	411.85
914.132	1796.2621	1302.1	411.55
914.2724	1797.9415	1296.35	403.15
914.4128	1799.6202	1301.2	408.75
914.5531	1801.2982	1300	406.25
914.6934	1802.9755	1292.85	399.8
914.8337	1804.6519	1291.9	399.75
914.9739	1806.3277	1290.9	400.05
915.1142	1808.0027	1282.6	391.4
915.2544	1809.6769	1284.7	396.35
915.3946	1811.3504	1282.7	393.25
915.5348	1813.0231	1284.45	392.1
915.675	1814.6951	1283.85	396
915.8151	1816.3664	1286.55	393.9
915.9553	1818.0369	1288.15	396.6
916.0954	1819.7067	1278.5	388.35
916.2355	1821.3757	1279.25	383.7
916.3755	1823.044	1282.6	389.4
916.5156	1824.7115	1278.85	384.75
916.6556	1826.3783	1273.25	381.5
916.7956	1828.0443	1282.1	392.2
916.9356	1829.7096	1278.85	385.95
917.0756	1831.3741	1281.8	386.1
917.2155	1833.0379	1271.3	380.15
917.3555	1834.701	1281.1	391.6
917.4954	1836.3633	1271.85	381.6
917.6353	1838.0248	1274.55	383.1
917.7751	1839.6856	1268.25	376.1
917.915	1841.3457	1273.75	381.5
918.0548	1843.005	1268.65	376.65
918.1946	1844.6636	1273.1	381.65
918.3344	1846.3214	1265.45	374.65
918.4742	1847.9785	1261.9	372.3
918.6139	1849.6349	1274.2	383.65
918.7537	1851.2904	1274.95	374.05
918.8934	1852.9453	1268.75	375.1
919.0331	1854.5994	1267.5	371.35
919.1727	1856.2528	1273.85	376.85
919.3124	1857.9054	1261.35	365.95
919.452	1859.5572	1263.6	373.15
919.5916	1861.2083	1262.4	369.9
919.7312	1862.8587	1264.95	373.4
919.8708	1864.5084	1261.55	368.55
920.0103	1866.1572	1265.95	371.95
920.1498	1867.8054	1263.95	369.65
920.2893	1869.4528	1252.85	359.35
920.4288	1871.0994	1258.8	364.5
920.5683	1872.7453	1257.95	363.4
920.7077	1874.3905	1265.55	368.7
920.8471	1876.0349	1252.05	358.65
920.9865	1877.6786	1257	361.6
921.1259	1879.3215	1247.1	355.05
921.2653	1880.9637	1253.55	360.9
921.4046	1882.6051	1258.6	368.3
921.5439	1884.2458	1242.75	349.2
921.6832	1885.8858	1249.55	357.5
921.8225	1887.525	1248.9	357.65
921.9617	1889.1634	1243.75	351.1
922.101	1890.8011	1241.75	347.7
922.2402	1892.4381	1240.25	348.2
922.3794	1894.0743	1243.95	351.65
922.5185	1895.7098	1239.7	347.8
922.6577	1897.3446	1239.6	346.85
922.7968	1898.9786	1245.05	350.35
922.9359	1900.6118	1241	348.15
923.075	1902.2443	1237.4	343.3
923.214	1903.8761	1235.2	343
923.3531	1905.5071	1233.75	342.2
923.4921	1907.1374	1238.7	344.8
923.6311	1908.7669	1230.1	340.1
923.77	1910.3957	1229.15	338.95
923.909	1912.0237	1227.7	336.7
924.0479	1913.651	1232.8	339.9
924.1868	1915.2776	1224.45	334.25
924.3257	1916.9034	1224	332.4
924.4646	1918.5285	1224.65	333.9
924.6034	1920.1528	1221.4	329.95
924.7422	1921.7764	1225.3	335.05
924.881	1923.3992	1222.3	332.8
925.0198	1925.0213	1225.85	335.65
925.1586	1926.6427	1219.7	330.55
925.2973	1928.2633	1300.2	324.25
925.436	1929.8832	1220.3	326.9
925.5747	1931.5023	1213.85	325.25
925.7134	1933.1207	1210.45	318.65
925.852	1934.7383	1210.55	320.65
925.9906	1936.3552	1208.4	318.5
926.1292	1937.9714	1210.05	318.7
926.2678	1939.5868	1215.5	323
926.4064	1941.2015	1212.85	322.4
926.5449	1942.8154	1204.85	313.7
926.6834	1944.4286	1204.9	314.95
926.8219	1946.041	1222.7	311.1
926.9604	1947.6528	1209.35	313.1
927.0988	1949.2637	1209.35	317.3
927.2372	1950.8739	1202.75	310.55
927.3756	1952.4834	1199.75	309.25
927.514	1954.0921	1202.85	310.85
927.6523	1955.7001	1201.4	306.15
927.7907	1957.3074	1196.3	309.95
927.929	1958.9139	1195.9	307.65
928.0673	1960.5197	1192.6	301.05
928.2055	1962.1247	1189.3	300.5
928.3438	1963.729	1193.5	306.4
928.482	1965.3325	1195.5	299.85
928.6202	1966.9353	1189.8	303.2
928.7584	1968.5374	1189.5	301.8
928.8965	1970.1387	1192.65	305.75
929.0346	1971.7393	1189.75	301.35
929.1727	1973.3392	1187	300.15
929.3108	1974.9383	1183.05	295.5
929.4489	1976.5366	1179.65	292.7
929.5869	1978.1342	1178.35	289.45
929.7249	1979.7311	1178.65	290.45
929.8629	1981.3273	1177.4	291.6
930.0009	1982.9227	1176.15	287.3
930.1388	1984.5173	1174.95	287.65
930.2767	1986.1112	1172.65	286.25
930.4146	1987.7044	1176.8	291.55
930.5525	1989.2968	1176.9	289.2
930.6904	1990.8885	1168.95	279.9
930.8282	1992.4795	1178.55	291.95
930.966	1994.0697	1167.85	281.2
931.1038	1995.6592	1174.55	288.2
931.2415	1997.2479	1170.6	284.85
931.3793	1998.8359	1172.4	287.15
931.517	2000.4232	1163.55	280.4
931.6547	2002.0097	1157.2	276.7
931.7923	2003.5955	1164.45	279.6
931.93	2005.1805	1165.95	281.05
932.0676	2006.7648	1162.3	278.8
932.2052	2008.3484	1158.55	273.25
932.3427	2009.9312	1164.85	279.65
932.4803	2011.5133	1157.45	275.05
932.6178	2013.0946	1156.7	273.5
932.7553	2014.6752	1166	282.05
932.8928	2016.2551	1160.45	275.25
933.0302	2017.8342	1156.35	269.75
933.1676	2019.4126	1155.2	272.2
933.305	2020.9902	1150.1	267.9
933.4424	2022.5672	1149.75	264.7
933.5798	2024.1433	1157.85	270.1
933.7171	2025.7188	1153	273.05
933.8544	2027.2935	1155.95	273.55
933.9917	2028.8674	1152.5	270.3
934.129	2030.4406	1142.25	262.3
934.2662	2032.0131	1145.55	262.35
934.4034	2033.5849	1150.55	264.15
934.5406	2035.1559	1145.2	261.05
934.6778	2036.7261	1148.6	266.55
934.8149	2038.2957	1148.5	263
934.952	2039.8645	1147.25	261
935.0891	2041.4325	1145.4	257.45
935.2262	2042.9998	1146.05	261.85
935.3632	2044.5664	1146.2	262.5
935.5002	2046.1323	1140.85	257.05
935.6372	2047.6974	1138.4	256.6
935.7742	2049.2617	1143.05	260.4
935.9111	2050.8254	1146.15	255.7
936.048	2052.3883	1142.25	258
936.1849	2053.9504	1143.25	255.2
936.3218	2055.5118	1138	253.35
936.4586	2057.0725	1139.2	252.3
936.5955	2058.6325	1138.3	251.8
936.7323	2060.1917	1135.05	252.45
936.869	2061.7502	1131.1	244.55
937.0058	2063.3079	1131.6	250.8
937.1425	2064.8649	1136.5	250.5
937.2792	2066.4212	1139.2	254.6
937.4159	2067.9767	1139.85	255.6
937.5525	2069.5315	1129.95	245.05
937.6891	2071.0856	1134.95	250.25
937.8257	2072.6389	1127.3	245.85
937.9623	2074.1915	1127.15	245.25
938.0989	2075.7433	1128.15	243.2
938.2354	2077.2945	1129.25	245.85
938.3719	2078.8448	1130.85	244.95
938.5084	2080.3945	1124.45	239.3
938.6448	2081.9434	1127.2	241
938.7812	2083.4916	1133.55	247.75
938.9176	2085.039	1127.1	237.75
939.054	2086.5857	1130.85	241.85
939.1903	2088.1317	1130.5	240.4
939.3267	2089.677	1129.8	240.3
939.463	2091.2215	1125.75	235.45
939.5992	2092.7652	1131.2	239.05
939.7355	2094.3083	1125.3	233.65
939.8717	2095.8506	1123.45	236.45
940.0079	2097.3921	1120.75	235.15
940.1441	2098.933	1123.15	237.9
940.2802	2100.4731	1121.2	232.9
940.4163	2102.0124	1143	238.55
940.5524	2103.5511	1121.5	233.05
940.6885	2105.089	1119.05	231.65
940.8245	2106.6261	1126.95	238.15
940.9606	2108.1626	1123.8	237.05
941.0965	2109.6983	1146	233.3
941.2325	2111.2332	1122.45	233.75
941.3684	2112.7675	1120.7	233.25
941.5044	2114.301	1121.05	230.25
941.6403	2115.8337	1119.3	231.25
941.7761	2117.3657	1114.1	226.45
941.912	2118.897	1114.55	225.9
942.0478	2120.4276	1123.8	228.7
942.1835	2121.9575	1115	227.2
942.3193	2123.4866	1116.85	225.25
942.455	2125.0149	1124.5	232.9
942.5907	2126.5426	1112.7	227.95
942.7264	2128.0695	1111.85	225.4
942.8621	2129.5956	1107.5	224.9
942.9977	2131.1211	1114.05	226.2
943.1333	2132.6458	1111.6	225.6
943.2689	2134.1698	1109.9	220.8
943.4044	2135.693	1116.4	224.35
943.54	2137.2155	1116.05	225.45
943.6755	2138.7373	1106.95	221.05
943.8109	2140.2584	1101.55	217.15
943.9464	2141.7787	1105.95	218.35
944.0818	2143.2983	1102.35	220.55
944.2172	2144.8171	1100.4	218.95
944.3526	2146.3353	1109.35	222.95
944.4879	2147.8527	1102.9	215.95
944.6232	2149.3693	1100.9	214.95
944.7585	2150.8853	1100.8	211.8
944.8938	2152.4005	1104.1	215.15
945.029	2153.9149	1104.9	216.4
945.1642	2155.4287	1101.2	210.5
945.2994	2156.9417	1099.3	209.2
945.4346	2158.454	1099.95	212.85
945.5697	2159.9655	1097.35	211
945.7048	2161.4764	1095	210.3
945.8399	2162.9865	1098.85	213.7
945.9749	2164.4958	1100.1	212.75
946.1099	2166.0045	1101.3	213.55
946.2449	2167.5124	1096.55	211.6
946.3799	2169.0195	1097	210.4
946.5148	2170.526	1097	210.1
946.6498	2172.0317	1095.7	208.4
946.7846	2173.5367	1094.3	205.95
946.9195	2175.0409	1096.15	209.6
947.0543	2176.5445	1094.75	205.8
947.1891	2178.0473	1096.5	207.6
947.3239	2179.5494	1098.8	203.7
947.4587	2181.0507	1092.1	203.75
947.5934	2182.5513	1093.1	207.15
947.7281	2184.0512	1093	205.05
947.8628	2185.5504	1093.2	207.9
947.9974	2187.0488	1089.3	203
948.132	2188.5465	1088.1	205.3
948.2666	2190.0435	1083.65	195.65
948.4012	2191.5397	1093.85	205.85
948.5357	2193.0353	1096.25	207.05
948.6702	2194.5301	1087.3	196.4
948.8047	2196.0241	1092.2	202.5
948.9392	2197.5175	1090.8	201.3
949.0736	2199.0101	1089.6	193.65
949.208	2200.502	1088.95	201.65
949.3424	2201.9931	1089.4	202.25
949.4767	2203.4835	1085.6	199.35
949.611	2204.9733	1100.55	196.4
949.7453	2206.4622	1083.55	197.85
949.8796	2207.9505	1081.05	192.2
950.0138	2209.438	1074.95	191.95
950.148	2210.9248	1081.3	194.7
950.2822	2212.4109	1082.2	194.8
950.4164	2213.8962	1084.05	192.15
950.5505	2215.3809	1086.95	195.25
950.6846	2216.8648	1079.95	189.6
950.8186	2218.3479	1084.45	189.55
950.9527	2219.8304	1082.65	187.25
951.0867	2221.3121	1077.95	184.1
951.2207	2222.7931	1084.6	194.25
951.3546	2224.2733	1076.05	186.85
951.4886	2225.7529	1078.2	189.35
951.6225	2227.2317	1079.25	191
951.7563	2228.7098	1070.4	184.8
951.8902	2230.1872	1074.05	188.95
952.024	2231.6638	1068.65	182.2
952.1578	2233.1397	1075.05	185.45
952.2916	2234.6149	1074.95	188.55
952.4253	2236.0894	1071.2	185
952.559	2237.5632	1085.75	190.45
952.6927	2239.0362	1073.55	188.4
952.8263	2240.5085	1070.1	184.35
952.9599	2241.9801	1070.1	182.65
953.0935	2243.4509	1069.65	180.55
953.2271	2244.921	1069.9	180.6
953.3606	2246.3904	1072.05	180.8
953.4941	2247.8591	1064.3	175.85
953.6276	2249.3271	1065.4	177.4
953.7611	2250.7943	1063.2	174.35
953.8945	2252.2608	1065.3	178
954.0279	2253.7266	1064.6	175.7
954.1612	2255.1917	1062.2	172.8
954.2946	2256.656	1062.4	174.95
954.4279	2258.1197	1059.25	173.2
954.5612	2259.5826	1062.5	173.15
954.6944	2261.0447	1064.1	176.75
954.8276	2262.5062	1067.25	178.65
954.9608	2263.9669	1065.4	173.2
955.094	2265.4269	1060.75	171.7
955.2271	2266.8862	1062.4	176.4
955.3602	2268.3448	1058.3	169.55
955.4933	2269.8026	1061.6	174.7
955.6264	2271.2598	1059.9	172.45
955.7594	2272.7162	1057.05	171.1
955.8924	2274.1719	1056.25	166.35
956.0253	2275.6268	1062	171.7
956.1583	2277.0811	1059.4	171.4
956.2912	2278.5346	1057.15	170.6
956.4241	2279.9874	1052.75	165.95
956.5569	2281.4395	1052.4	166.7
956.6897	2282.8908	1059.5	168.95
956.8225	2284.3414	1061.95	172.75
956.9553	2285.7914	1054.2	165.5
957.088	2287.2406	1059.9	169.9
957.2207	2288.689	1055.45	165.6
957.3534	2290.1368	1062.55	169.5
957.486	2291.5838	1061.25	167.3
957.6186	2293.0302	1057.7	166.05
957.7512	2294.4758	1057.35	168.8
957.8838	2295.9206	1054.7	163.9
958.0163	2297.3648	1050.8	165.3
958.1488	2298.8082	1054.1	164.1
958.2813	2300.251	1054.15	165.65
958.4137	2301.693	1059.15	167.45
958.5461	2303.1343	1050.35	161.75
958.6785	2304.5748	1055.1	164.6
958.8108	2306.0147	1052.4	164.95
958.9432	2307.4538	1046.55	156.9
959.0754	2308.8922	1053.3	169.85
959.2077	2310.3299	1048.25	161.7
959.3399	2311.7669	1046.4	160.3
959.4721	2313.2031	1048.4	160.5
959.6043	2314.6387	1051.95	164
959.7365	2316.0735	1053.4	163.6
959.8686	2317.5076	1050.1	162.25
960.0006	2318.941	1051.85	160.9
960.1327	2320.3737	1051.1	160.85
960.2647	2321.8056	1054.45	162.65
960.3967	2323.2369	1047.1	157.75
960.5287	2324.6674	1050.8	159.85
960.6606	2326.0972	1049.9	159.5
960.7925	2327.5263	1049.8	161
960.9244	2328.9547	1053.25	162.85
961.0562	2330.3823	1053.65	162.1
961.1881	2331.8092	1052.95	159.55
961.3198	2333.2355	1050.15	159.5
961.4516	2334.661	1046.7	154.35
961.5833	2336.0858	1041.2	148.95
961.715	2337.5098	1044.35	153.7
961.8467	2338.9332	1046.15	155.75
961.9783	2340.3558	1043.2	150.75
962.1099	2341.7778	1040.9	151.85
962.2415	2343.199	1042.95	153.6
962.373	2344.6195	1041.3	151.65
962.5045	2346.0393	1039.45	150.7
962.636	2347.4583	1035.8	144.85
962.7675	2348.8767	1041.25	149.75
962.8989	2350.2943	1039.75	147.45
963.0303	2351.7113	1045.7	154.3
963.1617	2353.1275	1041.45	149.35
963.293	2354.543	1048	150
963.4243	2355.9578	1041.4	148.9
963.5556	2357.3718	1036.1	145.05
963.6868	2358.7852	1039.2	149.2
963.818	2360.1978	1037.65	148.7
963.9492	2361.6098	1035.3	147.4
964.0803	2363.021	1040.3	147.6
964.2114	2364.4315	1036.15	146.5
964.3425	2365.8413	1038.2	147.05
964.4736	2367.2504	1034.5	146.8
964.6046	2368.6587	1034.6	146.5
964.7356	2370.0664	1035.2	145.55
964.8666	2371.4733	1034.35	144.55
964.9975	2372.8795	1041.55	152.35
965.1284	2374.285	1034.35	144.2
965.2593	2375.6899	1029.2	141.65
965.3901	2377.0939	1036.55	148.55
965.5209	2378.4973	1030.9	141.6
965.6517	2379.9	1031.45	143.75
965.7825	2381.3019	1032.1	142.85
965.9132	2382.7032	1029.1	142.7
966.0439	2384.1037	1029.45	142.7
966.1745	2385.5035	1028.6	140.4
966.3051	2386.9027	1026.5	140.8
966.4357	2388.3011	1034.3	141.05
966.5663	2389.6987	1027.95	140.85
966.6968	2391.0957	1029	143.1
966.8273	2392.492	1031.45	144.2
966.9578	2393.8876	1024.9	136.45
967.0882	2395.2824	1024.9	136.3
967.2186	2396.6765	1024.85	137.3
967.349	2398.07	1023.5	136.7
967.4793	2399.4627	1030.05	139.2
967.6097	2400.8547	1024.5	133.9
967.7399	2402.246	1031.75	136.35
967.8702	2403.6366	1024.85	135.45
968.0004	2405.0265	1023.75	135.2
968.1306	2406.4156	1031.15	138.6
968.2607	2407.8041	1025.35	133.35
968.3909	2409.1918	1026.75	133.4
968.521	2410.5789	1022.75	133.5
968.651	2411.9652	1024.75	133.45
968.781	2413.3508	1021.75	131.1
968.911	2414.7358	1019.6	129.8
969.041	2416.12	1018.5	128.45
969.1709	2417.5035	1020.45	131.2
969.3008	2418.8863	1022.6	130.85
969.4307	2420.2684	1021.1	131.55
969.5606	2421.6497	1023.7	134.1
969.6904	2423.0304	1018.05	127.3
969.8201	2424.4104	1020	128.9
969.9499	2425.7896	1024.3	130.9
970.0796	2427.1682	1016.55	128.2
970.2093	2428.546	1017.7	128.6
970.3389	2429.9232	1017.75	127.2
970.4685	2431.2996	1017	126
970.5981	2432.6753	1019.75	132.1
970.7277	2434.0503	1018.45	126.4
970.8572	2435.4246	1019.3	130.2
970.9867	2436.7982	1021	128.4
971.1161	2438.1711	1018.05	128.65
971.2456	2439.5433	1019.9	127.95
971.375	2440.9148	1022.1	124.85
971.5043	2442.2856	1013.3	124.55
971.6336	2443.6557	1018	127.05
971.7629	2445.025	1015.25	125.65
971.8922	2446.3937	1014.2	123.25
972.0214	2447.7617	1013.65	123.2
972.1506	2449.1289	1010.8	122.2
972.2798	2450.4955	1018.95	128.5
972.4089	2451.8613	1010.85	122.15
972.538	2453.2265	1014.2	127.9
972.6671	2454.5909	1018.95	126.9
972.7961	2455.9546	1011.4	121.2
972.9251	2457.3177	1014.7	123.5
973.0541	2458.68	1013.7	122.3
973.1831	2460.0416	1006.55	119.1
973.312	2461.4025	1013.35	122.1
973.4408	2462.7627	1023.5	125.65
973.5697	2464.1222	1006.3	118.3
973.6985	2465.4811	1007.6	117.65
973.8273	2466.8392	1006.8	118.6
973.956	2468.1966	1012.35	121.55
974.0847	2469.5533	1013.4	120.6
974.2134	2470.9093	1009.4	118.65
974.3421	2472.2645	1008.2	116.85
974.4707	2473.6191	1011	120.7
974.5993	2474.973	1010.05	121.65
974.7278	2476.3262	1009.5	119.55
974.8563	2477.6787	1008.15	121.3
974.9848	2479.0305	1007.7	119.1
975.1132	2480.3816	1008.95	119.9
975.2417	2481.7319	1007.35	117.6
975.37	2483.0816	1010.3	120.15
975.4984	2484.4306	1007.95	119.55
975.6267	2485.7789	1002.65	113.45
975.755	2487.1264	1007.25	117.9
975.8833	2488.4733	1008.55	121.05
976.0115	2489.8195	1025.3	121.15
976.1397	2491.165	1010.55	119.3
976.2678	2492.5097	1007.9	116.55
976.3959	2493.8538	1005.7	117.6
976.524	2495.1972	1004.15	114.05
976.6521	2496.5398	1006.1	115.45
976.7801	2497.8818	1007.9	117.05
976.9081	2499.2231	1008.1	118.9
977.036	2500.5637	1007.15	115.7
977.164	2501.9035	1006.85	116.1
977.2918	2503.2427	1008.8	115.05
977.4197	2504.5812	1002.05	113.65
977.5475	2505.919	1008.6	117.45
977.6753	2507.256	1003.65	115.2
977.8031	2508.5924	1002.85	112.75
977.9308	2509.9281	1006.3	110.75
978.0585	2511.2631	1001.25	111.4
978.1861	2512.5974	998.35	109.7
978.3137	2513.9309	1000.6	111.95
978.4413	2515.2638	1028.65	111.65
978.5689	2516.596	1000.8	111.3
978.6964	2517.9275	999.25	109.1
978.8239	2519.2583	997.55	108.15
978.9513	2520.5884	998.15	106.35
979.0788	2521.9178	998.15	108.25
979.2062	2523.2465	999.9	112.25
979.3335	2524.5745	1000.75	112.85
979.4608	2525.9018	998.65	109.55
979.5881	2527.2284	996.05	109.5
979.7154	2528.5543	997.05	109.35
979.8426	2529.8796	999	110.1
979.9698	2531.2041	1000.95	112.2
980.0969	2532.5279	997.45	111.05
980.224	2533.851	997.7	109.2
980.3511	2535.1735	996.2	107.95
980.4781	2536.4952	996.85	105.95
980.6052	2537.8163	998.2	108.95
980.7321	2539.1366	995.05	106.3
980.8591	2540.4562	997.25	105.7
980.986	2541.7752	992.55	105.75
981.1129	2543.0935	995.8	105
981.2397	2544.411	996.95	108.9
981.3665	2545.7279	997.15	107.55
981.4933	2547.0441	996.7	107
981.62	2548.3596	999.5	108.45
981.7467	2549.6744	994.5	105.7
981.8734	2550.9885	1002.25	103.85
982.0001	2552.3019	993.5	105.7
982.1267	2553.6146	995.95	106.85
982.2532	2554.9266	994.45	103.9
982.3798	2556.2379	994.3	103.1
982.5063	2557.5485	992	105
982.6327	2558.8585	1003.9	108.55
982.7592	2560.1677	995.4	101.35
982.8856	2561.4762	994.3	105.6
983.0119	2562.7841	992.8	100.75
983.1383	2564.0913	990.7	102.45
983.2646	2565.3977	994.6	105.85
983.3908	2566.7035	995.25	104
983.517	2568.0086	994.45	102.95
983.6432	2569.313	994.15	103.35
983.7694	2570.6167	994.65	101.95
983.8955	2571.9197	994.65	106.95
984.0216	2573.222	996.65	105.45
984.1476	2574.5236	995.7	104.65
984.2737	2575.8246	991.5	101.15
984.3996	2577.1248	997.3	105.4
984.5256	2578.4244	993.6	104.65
984.6515	2579.7232	990.1	100.7
984.7774	2581.0214	1019.15	105.7
984.9032	2582.3189	989.75	103.4
985.029	2583.6157	998.1	105.85
985.1548	2584.9118	990.55	102.35
985.2806	2586.2072	989.15	101.55
985.4063	2587.5019	990.1	101.55
985.5319	2588.7959	991.35	101.25
985.6576	2590.0893	991.6	101.75
985.7832	2591.3819	990.6	101.45
985.9087	2592.6739	995.35	108.4
986.0343	2593.9652	993.1	105.1
986.1597	2595.2557	990	103.1
986.2852	2596.5456	994.9	106.4
986.4106	2597.8348	991.75	104.85
986.536	2599.1234	993.5	110.1
986.6614	2600.4112	992.95	104.9
986.7867	2601.6983	996.2	104.95
986.912	2602.9848	992.95	103.95
987.0372	2604.2705	997.6	103.2
987.1624	2605.5556	992.15	106.75
987.2876	2606.84	992.4	105.65
987.4128	2608.1237	991.45	104.9
987.5379	2609.4067	991.9	103.4
987.6629	2610.689	1001.15	105.25
987.788	2611.9707	991.4	100.25
987.913	2613.2516	993.4	102.4
988.0379	2614.5319	984.8	100.3
988.1629	2615.8115	989.1	100.9
988.2878	2617.0903	989.7	102.2
988.4126	2618.3685	986.9	99.9
988.5375	2619.6461	986.7	99.25
988.6622	2620.9229	987.85	102.6
988.787	2622.199	983.9	96.3
988.9117	2623.4745	986.7	98.8
989.0364	2624.7493	988.1	101.9
989.161	2626.0234	983.2	95.3
989.2857	2627.2968	982.15	95.7
989.4102	2628.5695	984.25	95.4
989.5348	2629.8415	985.3	99.7
989.6593	2631.1128	983.9	95.1
989.7837	2632.3835	983.45	97.3
989.9082	2633.6535	984.75	99.7
990.0326	2634.9228	983.65	96.7
990.1569	2636.1914	981.45	96.25
990.2812	2637.4593	984.55	97.7
990.4055	2638.7265	981.8	97
990.5298	2639.9931	981.25	94.25
990.654	2641.259	980.65	91.5
990.7782	2642.5242	981.7	95.05
990.9023	2643.7887	981.05	95.75
991.0264	2645.0525	982.35	96.4
991.1505	2646.3156	978.15	91.2
991.2745	2647.5781	978.15	91.8
991.3985	2648.8398	979.85	94.8
991.5225	2650.1009	1018.95	96.25
991.6464	2651.3613	981.65	94.65
991.7703	2652.6211	980.55	94.4
991.8942	2653.8801	981.55	96.05
992.018	2655.1385	982.3	92.55
992.1418	2656.3961	980.45	96.4
992.2655	2657.6531	976.25	89.4
992.3892	2658.9094	978	91.3
992.5129	2660.1651	978.1	92.35
992.6366	2661.42	975.95	91.4
992.7602	2662.6743	978.15	91.65
992.8837	2663.9279	980.2	94.1
993.0073	2665.1808	982.75	95.6
993.1307	2666.433	981.9	92.9
993.2542	2667.6846	985.2	100.45
993.3776	2668.9354	983.95	94.55
993.501	2670.1856	980.95	92.25
993.6244	2671.4351	977.85	92.4
993.7477	2672.6839	989.75	102.25
993.8709	2673.9321	982.95	97.4
993.9942	2675.1795	984.15	97.65
994.1174	2676.4263	981.55	94.6
994.2405	2677.6724	981.55	98.3
994.3637	2678.9179	983.45	96.5
994.4868	2680.1626	984.5	100.55
994.6098	2681.4067	981.6	93.7
994.7328	2682.6501	980.85	94.55
994.8558	2683.8928	982.45	97.05
994.9788	2685.1348	978.4	94.8
995.1017	2686.3761	979.45	93.2
995.2245	2687.6168	976.6	91.3
995.3474	2688.8568	978.35	93.6
995.4702	2690.0961	978.35	93.05
995.5929	2691.3348	977.65	90.3
995.7156	2692.5727	979.65	92.4
995.8383	2693.81	977.55	93.5
995.961	2695.0466	976.5	91.2
996.0836	2696.2826	976.75	89.6
996.2062	2697.5178	984.95	92.75
996.3287	2698.7524	979.4	92.95
996.4512	2699.9863	979.1	92.9
996.5737	2701.2195	977.65	91.4
996.6961	2702.452	981.8	95.55
996.8185	2703.6839	980.9	94.25
996.9408	2704.9151	981.5	94.95
997.0631	2706.1456	982.6	95
997.1854	2707.3755	981.75	95.7
997.3077	2708.6046	983.6	95.1
997.4299	2709.8331	984	96.2
997.552	2711.0609	986.25	100.1
997.6742	2712.2881	986.65	101.35
997.7963	2713.5145	987.95	99.25
997.9183	2714.7403	989.4	104.45
998.0403	2715.9654	992.2	107.65
998.1623	2717.1899	1005.4	104.8
998.2842	2718.4136	997.4	113
998.4062	2719.6367	996.35	109.55
998.528	2720.8591	1004.45	112.9
998.6498	2722.0809	1003.7	118.85
998.7716	2723.3019	1007.05	116.5
998.8934	2724.5223	1004.7	117.8
999.0151	2725.7421	1006.9	119.05
999.1368	2726.9611	1007.7	120.5
999.2584	2728.1795	1006.7	116.4
999.38	2729.3972	998.75	116.2
999.5016	2730.6142	1005	113.25
999.6231	2731.8306	1001.45	113.75
999.7446	2733.0462	999.1	110.85
999.8661	2734.2612	991.85	103.75
999.9875	2735.4756	989.15	102.75
1000.1089	2736.6892	987.55	100.85
1000.2302	2737.9022	983.95	98.95
1000.3515	2739.1145	983.1	96.2
1000.4728	2740.3262	987.6	94.55
1000.594	2741.5372	979.1	92.95
1000.7152	2742.7475	978.65	91.5
1000.8363	2743.9571	977.9	92.2
1000.9575	2745.1661	980	89.5
1001.0785	2746.3744	972.75	87.45
1001.1996	2747.582	972.5	84.8
1001.3206	2748.7889	973.3	88.4
1001.4415	2749.9952	969.9	84.4
1001.5625	2751.2008	969.95	83.85
1001.6833	2752.4057	968.45	81.55
1001.8042	2753.61	969.7	82.25
1001.925	2754.8136	968.9	83.1
1002.0458	2756.0165	968	84.1
1002.1665	2757.2188	968.35	82.4
1002.2872	2758.4204	969.4	84.1
1002.4078	2759.6213	966.9	77.7
1002.5285	2760.8215	968	78.9
1002.649	2762.0211	969.65	83.85
1002.7696	2763.22	966.2	77.15
1002.8901	2764.4182	967.65	82.95
1003.0106	2765.6158	963.45	77.35
1003.131	2766.8127	965.8	79.55
1003.2514	2768.009	963.6	80.2
1003.3717	2769.2045	969.95	82.2
1003.492	2770.3994	962.8	76
1003.6123	2771.5936	966.3	79.9
1003.7325	2772.7872	964.05	80.8
1003.8527	2773.9801	961.6	74.55
1003.9729	2775.1723	974.75	72.1
1004.093	2776.3639	961.4	77.65
1004.2131	2777.5548	963.7	75.35
1004.3331	2778.745	963.4	76.95
1004.4531	2779.9346	962.45	78.3
1004.5731	2781.1235	962.85	76.8
1004.693	2782.3117	960.65	77.3
1004.8129	2783.4992	960.3	74.35
1004.9328	2784.6861	959.2	75.15
1005.0526	2785.8723	964.55	79
1005.1723	2787.0579	964.15	78.4
1005.2921	2788.2428	964.8	77.85
1005.4118	2789.427	967.75	83.35
1005.5314	2790.6106	966.7	82.75
1005.651	2791.7935	963.85	78.7
1005.7706	2792.9757	964.15	79.6
1005.8902	2794.1573	969.2	82.8
1006.0097	2795.3382	968.25	82.75
1006.1291	2796.5184	969.45	87.7
1006.2485	2797.698	970.6	86.3
1006.3679	2798.8769	972.6	88.25
1006.4873	2800.0551	972.8	87.4
1006.6066	2801.2327	973.45	86.3
1006.7258	2802.4096	977	92.75
1006.8451	2803.5859	976.85	93.5
1006.9642	2804.7615	983.8	99.4
1007.0834	2805.9364	979.6	96.35
1007.2025	2807.1106	984.75	101.2
1007.3216	2808.2842	990.9	105.35
1007.4406	2809.4572	994.2	109.4
1007.5596	2810.6294	1000.1	114.25
1007.6785	2811.801	1001	119.15
1007.7975	2812.972	1004.6	119.25
1007.9163	2814.1423	1016	133.3
1008.0352	2815.3119	1021.05	137.6
1008.154	2816.4808	1029.95	149
1008.2727	2817.6491	1038.5	153.8
1008.3914	2818.8167	1046.75	165
1008.5101	2819.9837	1057.25	169.15
1008.6288	2821.15	1064.8	181.25
1008.7474	2822.3157	1077.2	194.8
1008.8659	2823.4807	1094.45	209.15
1008.9844	2824.645	1104.6	221.8
1009.1029	2825.8086	1115.15	233.55
1009.2214	2826.9716	1129.5	246.35
1009.3398	2828.134	1138.8	256.25
1009.4581	2829.2957	1148.7	264.9
1009.5764	2830.4567	1160.8	279.85
1009.6947	2831.617	1172.4	288
1009.813	2832.7767	1169.05	287.25
1009.9312	2833.9358	1175.7	292.75
1010.0493	2835.0941	1178.6	294.05
1010.1675	2836.2519	1168.05	283.4
1010.2855	2837.4089	1160.2	277.25
1010.4036	2838.5653	1152.3	268.45
1010.5216	2839.7211	1152.85	269.05
1010.6396	2840.8761	1150.05	263.65
1010.7575	2842.0306	1140.95	257.5
1010.8754	2843.1843	1145.25	261.15
1010.9932	2844.3374	1152.45	268.15
1011.111	2845.4899	1158.1	274.9
1011.2288	2846.6417	1166.6	283.25
1011.3465	2847.7928	1169	284.55
1011.4642	2848.9433	1188.3	303.7
1011.5818	2850.0931	1193.6	311.65
1011.6995	2851.2422	1202.9	317.8
1011.817	2852.3907	1207.15	321.7
1011.9345	2853.5385	1209.75	325.4
1012.052	2854.6857	1247.1	338.3
1012.1695	2855.8323	1225.15	342.2
1012.2869	2856.9781	1233.85	351.8
1012.4042	2858.1233	1243.05	360.6
1012.5216	2859.2679	1251.4	369.05
1012.6389	2860.4118	1261.9	379.1
1012.7561	2861.555	1270.15	383
1012.8733	2862.6976	1281.85	397.75
1012.9905	2863.8395	1283.4	398.5
1013.1076	2864.9808	1286.25	402.1
1013.2247	2866.1214	1288.05	407.2
1013.3417	2867.2614	1289.75	405.9
1013.4587	2868.4007	1292.05	408.6
1013.5757	2869.5393	1298.85	412.7
1013.6926	2870.6773	1309.6	425.65
1013.8095	2871.8146	1309.3	422.3
1013.9263	2872.9513	1306	420.7
1014.0431	2874.0874	1308.8	424.2
1014.1599	2875.2227	1307.35	424.25
1014.2766	2876.3574	1311.2	427.1
1014.3933	2877.4915	1304.4	422.85
1014.51	2878.6249	1297.3	414.55
1014.6266	2879.7577	1299.8	413.55
1014.7431	2880.8898	1308.25	413.8
1014.8596	2882.0212	1303.35	422.5
1014.9761	2883.152	1300.2	417.45
1015.0925	2884.2821	1302.95	420.2
1015.2089	2885.4116	1298.95	418.35
1015.3253	2886.5405	1301.35	418.15
1015.4416	2887.6686	1309.55	424.7
1015.5579	2888.7962	1304.1	423.05
1015.6741	2889.923	1304.2	424.55
1015.7903	2891.0493	1306.3	425.1
1015.9065	2892.1748	1307.5	425.35
1016.0226	2893.2997	1313.5	429.25
1016.1387	2894.424	1311.9	429.45
1016.2547	2895.5476	1311.4	430.1
1016.3707	2896.6706	1316.35	435.85
1016.4866	2897.7929	1320.1	436.75
1016.6025	2898.9145	1322.95	441
1016.7184	2900.0355	1325.3	440.4
1016.8342	2901.1559	1322.1	439.3
1016.95	2902.2756	1332.9	445.4
1017.0658	2903.3946	1328.25	446.65
1017.1815	2904.513	1342.1	456.7
1017.2971	2905.6308	1333.35	451.2
1017.4127	2906.7479	1345.15	460.45
1017.5283	2907.8643	1346.1	463.5
1017.6439	2908.9801	1349.1	466.3
1017.7594	2910.0953	1351.95	470.75
1017.8748	2911.2098	1353.2	467.25
1017.9902	2912.3236	1355.35	466.65
1018.1056	2913.4368	1349.9	463.5
1018.2209	2914.5494	1343.25	460.6
1018.3362	2915.6613	1342.1	453.4
1018.4515	2916.7725	1329.8	443.5
1018.5667	2917.8831	1326.85	443.75
1018.6819	2918.9931	1320.8	435.9
1018.797	2920.1024	1317.8	431.8
1018.9121	2921.211	1314.75	431.1
1019.0271	2922.319	1311.85	428.3
1019.1421	2923.4264	1301.45	421.1
1019.2571	2924.5331	1301.4	421
1019.372	2925.6391	1302.4	423
1019.4869	2926.7445	1302.85	422.7
1019.6017	2927.8493	1305.8	424.9
1019.7165	2928.9534	1308.4	426
1019.8313	2930.0569	1300.3	416.25
1019.946	2931.1597	1310.5	426.75
1020.0606	2932.2619	1311.35	428.6
1020.1753	2933.3634	1313.05	430.65
1020.2899	2934.4643	1321.15	433.1
1020.4044	2935.5645	1314	424.85
1020.5189	2936.6641	1315.05	428.3
1020.6334	2937.763	1310.1	428
1020.7478	2938.8613	1307.7	424.5
1020.8622	2939.959	1301.25	415.65
1020.9765	2941.056	1293.3	413.05
1021.0908	2942.1523	1276.2	392.9
1021.2051	2943.248	1262.8	381.4
1021.3193	2944.3431	1240.7	359.75
1021.4334	2945.4375	1226.85	346.2
1021.5476	2946.5313	1205.05	325.75
1021.6617	2947.6244	1189	307.2
1021.7757	2948.7169	1176.8	294.45
1021.8897	2949.8087	1157.9	276.25
1022.0037	2950.8999	1145.75	264.1
1022.1176	2951.9904	1132.15	251.5
1022.2315	2953.0803	1119.55	234.9
1022.3453	2954.1696	1110.25	229.55
1022.4591	2955.2582	1100.1	219.5
1022.5728	2956.3462	1091.1	208.5
1022.6865	2957.4335	1088.6	204.7
1022.8002	2958.5202	1081.1	195.7
1022.9138	2959.6062	1078.2	196.2
1023.0274	2960.6916	1074.45	190.1
1023.141	2961.7764	1074.8	191.4
1023.2545	2962.8605	1074.05	191.05
1023.3679	2963.9439	1071.8	188.95
1023.4813	2965.0267	1073.1	188.35
1023.5947	2966.1089	1093.75	189.05
1023.708	2967.1905	1069	185.55
1023.8213	2968.2714	1063.45	183.45
1023.9346	2969.3516	1062.05	178.5
1024.0478	2970.4312	1072.65	183.45
1024.1609	2971.5102	1065.25	183.25
1024.274	2972.5885	1063.5	182
1024.3871	2973.6662	1073.8	187.55
1024.5002	2974.7432	1067.75	187.75
1024.6132	2975.8196	1066.45	182.65
1024.7261	2976.8954	1066.6	187.5
1024.839	2977.9705	1066.3	184.2
1024.9519	2979.045	1064.15	183.75
1025.0647	2980.1188	1062.9	181.65
1025.1775	2981.192	1063.7	182.35
1025.2902	2982.2645	1051.95	169.25
1025.4029	2983.3364	1050.4	168.1
1025.5156	2984.4077	1046.3	165.85
1025.6282	2985.4783	1051.5	164.3
1025.7407	2986.5483	1041.75	161.9
1025.8532	2987.6177	1030.25	150.75
1025.9657	2988.6864	1024.65	141.35
1026.0782	2989.7545	1028.55	145.9
1026.1906	2990.8219	1018.2	138.05
1026.3029	2991.8887	1012	129.4
1026.4152	2992.9548	1009	127.45
1026.5275	2994.0204	1000.65	119.75
1026.6397	2995.0852	994.2	111.75
1026.7519	2996.1495	987.9	105.8
1026.864	2997.2131	981.8	98.7
1026.9761	2998.276	977.95	97.15
1027.0882	2999.3383	975.5	92.7
1027.2002	3000.4	972.9	91.05
1027.3122	3001.4611	970.2	89.65
1027.4241	3002.5215	967.9	85.55
1027.536	3003.5812	960.2	79.1
1027.6478	3004.6404	959.15	78.9
1027.7596	3005.6989	958.8	74.35
1027.8714	3006.7567	956	73.15
1027.9831	3007.8139	985.5	71.25
1028.0947	3008.8705	950.95	69.1
1028.2064	3009.9264	954.45	70.2
1028.3179	3010.9818	949.25	67.95
1028.4295	3012.0364	948.2	64.2
1028.541	3013.0905	948.5	64.95
1028.6524	3014.1439	946.35	64.2
1028.7638	3015.1966	944.75	64
1028.8752	3016.2487	943.25	61.15
1028.9865	3017.3002	949.45	65.95
1029.0978	3018.3511	939.65	59.9
1029.209	3019.4013	942.5	59.8
1029.3202	3020.4509	941.1	59.55
1029.4314	3021.4998	940.95	60.45
1029.5425	3022.5481	941.05	59.75
1029.6535	3023.5958	942.7	61.35
1029.7645	3024.6428	941.85	60
1029.8755	3025.6892	939.45	58.8
1029.9864	3026.735	940.45	60.5
1030.0973	3027.7802	939	57.8
1030.2082	3028.8247	938.35	55.7
1030.319	3029.8685	940.55	59
1030.4297	3030.9118	937.05	55.8
1030.5404	3031.9544	938.7	58.5
1030.6511	3032.9963	940.5	59.75
1030.7617	3034.0376	937.35	55.7
1030.8723	3035.0783	945.3	62.2
1030.9829	3036.1184	940.7	57.15
1031.0934	3037.1578	938.1	56.55
1031.2038	3038.1966	942.25	59.4
1031.3142	3039.2348	939.35	58.75
1031.4246	3040.2723	948.05	57.8
1031.5349	3041.3092	940.55	59.95
1031.6452	3042.3455	938.9	58.25
1031.7554	3043.3811	940.2	57.7
1031.8656	3044.4161	942.25	60.65
1031.9758	3045.4505	941.2	62.9
1032.0859	3046.4842	942.35	60.85
1032.1959	3047.5173	941.55	62.6
1032.3059	3048.5498	937.7	57.45
1032.4159	3049.5816	938.9	57.65
1032.5258	3050.6128	941.9	60.85
1032.6357	3051.6434	940.75	58.9
1032.7455	3052.6734	942.5	60.45
1032.8553	3053.7027	940.5	58.25
1032.9651	3054.7314	942.7	62
1033.0748	3055.7594	936.3	55
1033.1845	3056.7868	938.6	57.2
1033.2941	3057.8136	938.75	57.55
1033.4037	3058.8398	938.9	59.05
1033.5132	3059.8653	938.7	60.2
1033.6227	3060.8902	939	59.55
1033.7321	3061.9145	940.8	60.15
1033.8415	3062.9381	938.35	56.1
1033.9509	3063.9612	954.6	58.95
1034.0602	3064.9835	940.2	57.05
1034.1694	3066.0053	942.55	59.5
1034.2787	3067.0264	939.35	57.9
1034.3878	3068.0469	936.45	54.65
1034.497	3069.0668	940.15	54.8
1034.6061	3070.086	937.5	56.8
1034.7151	3071.1046	936.15	56
1034.8241	3072.1226	937.35	54.6
1034.9331	3073.1399	933.9	52.7
1035.042	3074.1567	935.4	54.1
1035.1508	3075.1727	934.45	50.7
1035.2597	3076.1882	930.35	50.6
1035.3684	3077.203	929.35	50.7
1035.4772	3078.2173	929.1	46.35
1035.5859	3079.2308	930	47.55
1035.6945	3080.2438	927	44
1035.8031	3081.2561	924.7	43.85
1035.9117	3082.2678	925.65	44.5
1036.0202	3083.2789	922.85	41.2
1036.1286	3084.2893	925.4	46.15
1036.2371	3085.2991	921.95	40.05
1036.3454	3086.3083	928	43.8
1036.4538	3087.3169	924.3	42.7
1036.562	3088.3248	923.8	41.55
1036.6703	3089.3321	921.05	37.45
1036.7785	3090.3388	919.45	38.7
1036.8866	3091.3449	915.9	34.45
1036.9948	3092.3503	919.6	37.2
1037.1028	3093.3551	915.95	36.85
1037.2108	3094.3593	914.25	34.05
1037.3188	3095.3629	915.3	35.6
1037.4267	3096.3658	918.1	36.45
1037.5346	3097.3681	914.9	35.65
1037.6425	3098.3698	916	34.6
1037.7503	3099.3708	920.25	34.05
1037.858	3100.3713	912.95	32.35
1037.9657	3101.3711	911.9	28.55
1038.0734	3102.3702	1028.4	31.3
1038.181	3103.3688	912.55	30.6
1038.2886	3104.3667	911.3	32.15
1038.3961	3105.364	908.5	26.85
1038.5036	3106.3607	913.3	30.65
1038.611	3107.3568	910.95	28.65
1038.7184	3108.3522	907.9	29.05
1038.8257	3109.347	909.85	27.8
1038.933	3110.3412	912.65	29.05
1039.0403	3111.3348	908.45	28.45
1039.1475	3112.3277	910.4	30.25
1039.2547	3113.32	907.15	26.5
1039.3618	3114.3117	907.25	25.85
1039.4689	3115.3028	908.45	27.45
1039.5759	3116.2932	909.7	25.6
1039.6829	3117.2831	912.75	28
1039.7898	3118.2723	905.35	25.05
1039.8967	3119.2608	905.05	24.4
1040.0035	3120.2488	906.65	27.65
1040.1103	3121.2361	905.9	24.05
1040.2171	3122.2229	902.2	23.9
1040.3238	3123.209	906.15	21.75
1040.4305	3124.1944	904.4	23
1040.5371	3125.1793	906.95	26.3
1040.6437	3126.1635	903.3	22.9
1040.7502	3127.1471	903	23.1
1040.8567	3128.1301	904.15	24.1
1040.9631	3129.1125	902.8	21.85
1041.0695	3130.0942	904.2	24.55
1041.1759	3131.0753	912.45	24.85
1041.2822	3132.0558	907.5	24.7
1041.3884	3133.0357	901.5	23.75
1041.4946	3134.015	904.3	22.8
1041.6008	3134.9936	904.45	24.75
1041.7069	3135.9716	925.25	23
1041.813	3136.949	904.8	26.1
1041.919	3137.9258	919.1	20.65
1042.025	3138.902	905.7	19.9
1042.1309	3139.8775	899.8	19.1
1042.2368	3140.8524	899.55	17.7
1042.3427	3141.8267	903.6	21.65
1042.4485	3142.8004	901.65	21.35
1042.5542	3143.7735	908.15	20.85
1042.6599	3144.7459	903.25	22.05
1042.7656	3145.7178	900.5	18.9
1042.8712	3146.689	898.2	18.6
1042.9768	3147.6596	898.25	16.85
1043.0823	3148.6295	899.25	18.4
1043.1878	3149.5989	901.05	20.55
1043.2932	3150.5676	898.85	19.5
1043.3986	3151.5357	897.1	17.8
1043.5039	3152.5032	900.35	22.15
1043.6092	3153.4701	897.6	18.35
1043.7145	3154.4364	901.7	20.45
1043.8197	3155.402	898.8	20.65
1043.9248	3156.367	900.25	17.9
1044.03	3157.3315	935.75	19.25
1044.135	3158.2952	897.95	18.7
1044.24	3159.2584	895.75	16.2
1044.345	3160.221	896.05	15.15
1044.4499	3161.1829	898	17.8
1044.5548	3162.1442	897.65	17.7
1044.6596	3163.105	897.75	17.05
1044.7644	3164.065	897.85	18.95
1044.8692	3165.0245	899.75	15.55
1044.9739	3165.9834	897	18.85
1045.0785	3166.9416	894.7	15.55
1045.1831	3167.8993	898.4	18.15
1045.2877	3168.8563	897.2	16.85
1045.3922	3169.8127	896.15	16.8
1045.4966	3170.7684	896.55	17.15
1045.6011	3171.7236	897.85	17.6
1045.7054	3172.6782	896.8	15.8
1045.8098	3173.6321	897.15	18.15
1045.914	3174.5854	902.4	17.2
1046.0183	3175.5381	895.1	13.05
1046.1224	3176.4902	892.1	12.8
1046.2266	3177.4417	892.7	12.2
1046.3307	3178.3926	893.85	14.85
1046.4347	3179.3428	893.55	16.35
1046.5387	3180.2924	896.9	16.4
1046.6427	3181.2415	896.8	19.05
1046.7466	3182.1899	899.6	18.1
1046.8504	3183.1377	894.5	15.15
1046.9542	3184.0848	899.25	15.2
1047.058	3185.0314	896.25	18.25
1047.1617	3185.9773	897.05	17.15
1047.2654	3186.9227	894.1	13.8
1047.369	3187.8674	893.7	13.45
1047.4726	3188.8115	897.6	15.5
1047.5761	3189.755	895	16.55
1047.6796	3190.6979	895.75	15.95
1047.783	3191.6402	890.4	13.1
1047.8864	3192.5818	891.1	11.05
1047.9898	3193.5229	900.9	14.75
1048.0931	3194.4633	894.65	14.65
1048.1963	3195.4031	894.65	14.05
1048.2995	3196.3423	891.05	9
1048.4027	3197.2809	893.25	13.3
1048.5058	3198.2189	894.3	15.55
1048.6089	3199.1563	909.2	12.65
1048.7119	3200.0931	892.35	14.25
1048.8148	3201.0292	891.8	11.4
1048.9178	3201.9648	892.95	14.15
1049.0206	3202.8997	895.5	12.9
1049.1235	3203.834	890.2	9.65
1049.2262	3204.7677	892.9	13.15
1049.329	3205.7008	894.35	11.5
1049.4317	3206.6333	891.2	12.2
1049.5343	3207.5652	894.55	13.15
1049.6369	3208.4964	892.9	10.65
1049.7394	3209.4271	892.15	13.75
1049.8419	3210.3571	891.95	13.55
1049.9444	3211.2865	893.8	12.45
1050.0468	3212.2154	895.2	15.55
1050.1491	3213.1436	895.55	11.2
1050.2514	3214.0712	896.85	9.55
1050.3537	3214.9982	892.25	12.8
1050.4559	3215.9246	892.7	12.15
1050.5581	3216.8503	890.05	11.4
1050.6602	3217.7755	891.05	10.75
1050.7623	3218.7001	890.25	10.85
1050.8643	3219.624	890.8	11
1050.9663	3220.5473	893.35	12.5
1051.0682	3221.4701	892.65	13.05
1051.1701	3222.3922	894.55	12.25
1051.2719	3223.3137	891.3	13.05
1051.3737	3224.2346	893.9	14.4
1051.4754	3225.1549	888.25	11.05
1051.5771	3226.0746	889.15	11.65
1051.6788	3226.9937	891.9	10.45
1051.7804	3227.9121	891	12.9
1051.8819	3228.83	893.35	14.5
1051.9834	3229.7473	889.15	8.5
1052.0849	3230.6639	891.65	12.6
1052.1863	3231.5799	888.75	10.5
1052.2876	3232.4954	892.9	13.55
1052.3889	3233.4102	890.75	11.75
1052.4902	3234.3244	889.5	8.35
1052.5914	3235.238	890.45	10.35
1052.6926	3236.151	915.15	12.05
1052.7937	3237.0634	889.1	9.8
1052.8948	3237.9752	889.5	10.4
1052.9958	3238.8864	889.5	8.3
1053.0968	3239.797	889.3	9.7
1053.1977	3240.7069	890.95	10.7
1053.2986	3241.6163	891.1	11.05
1053.3994	3242.5251	888	7.35
1053.5002	3243.4332	888.95	10.85
1053.6009	3244.3408	891.35	11.95
1053.7016	3245.2477	888.75	7.4
1053.8022	3246.154	890.25	8.95
1053.9028	3247.0598	889.4	8.5
1054.0034	3247.9649	889.4	8.65
1054.1039	3248.8694	889.85	11.2
1054.2043	3249.7733	889.1	11
1054.3047	3250.6766	890.65	11.35
1054.4051	3251.5793	888.85	9.6
1054.5054	3252.4814	890.2	9.95
1054.6056	3253.3829	886.85	6.4
1054.7058	3254.2838	889.05	9.75
1054.806	3255.1841	886.3	6.8
1054.9061	3256.0838	888.3	9.4
1055.0061	3256.9829	886.55	9.05
1055.1062	3257.8814	889.8	6.65
1055.2061	3258.7792	890	10.5
1055.306	3259.6765	890.4	10.3
1055.4059	3260.5731	888.5	11.45
1055.5057	3261.4692	888.5	7.3
1055.6055	3262.3647	888.7	8.9
1055.7052	3263.2595	889.45	10.45
1055.8049	3264.1538	886.6	6.5
1055.9045	3265.0474	889.25	10.3
1056.0041	3265.9404	886.3	7.95
1056.1036	3266.8329	885.4	5.4
1056.2031	3267.7247	896.2	7.95
1056.3025	3268.616	886.65	7.85
1056.4019	3269.5066	889.15	9.1
1056.5013	3270.3966	889.6	7.9
1056.6005	3271.286	885.6	7
