Software Version:	3.9.2.0
Unit SN:	10000200
Spectrometer SN:	6960
Date:	3/8/2024 2:00:24 PM
Data Line Index:	25
Spectral Points:	2048
Integration time (ms):	125
Averages:	20
Delay (ms):	30000
Sequence Number:	1
Processing:	dark subtract
Laser Power (mW):	295
Laser Current (mA):	823
Laser Diode Temp (C):	25
Laser Case Temp (C):	26.2
System Temp (C):	26.2
Spectrometer Temp (C):	24.1
CCD Temp (C):	0.008
Secondary Temp (C):	20.007
Heatsink Temp (C):	20.282
CCDPCB Temp (C):	35.896
SecondaryPCB Temp (C):	29.526

Wavelength	RamanShift	Raw Counts	Dark Subtracted
787.061	30.1047	467.55	60.25
787.2016	32.3739	467.3	63.3
787.3422	34.6426	472.7	65.55
787.4828	36.9109	479.15	71.45
787.6235	39.1787	489.45	78.8
787.7642	41.4461	495.35	78.15
787.9049	43.7131	507.45	88
788.0456	45.9796	517.5	94.35
788.1863	48.2456	523.8	95.05
788.3271	50.5112	530.65	100.4
788.4679	52.7764	542.75	107.95
788.6087	55.0411	553.6	113.6
788.7496	57.3054	566.75	121.7
788.8904	59.5692	577.2	132
789.0313	61.8326	589	142.05
789.1722	64.0955	601.85	151.15
789.3132	66.3579	619.7	162.1
789.4541	68.6199	643.45	181.1
789.5951	70.8815	676.4	211.6
789.7361	73.1426	759.65	290.55
789.8771	75.4032	979.35	507.05
790.0181	77.6634	1516	1039.1
790.1592	79.9231	2759.4	2274.5
790.3003	82.1824	5480.5	4976.45
790.4414	84.4412	10406.15	9876.45
790.5825	86.6995	17153.2	16581.7
790.7237	88.9574	23762.95	23163.9
790.8648	91.2148	28312.15	27690.3
791.006	93.4717	30437.35	29802.05
791.1472	95.7282	30956.95	30312.1
791.2885	97.9842	30927.85	30279.25
791.4297	100.2398	30451.4	29802.8
791.571	102.4949	29877.3	29225.25
791.7123	104.7495	29141.1	28487.65
791.8536	107.0036	28336.6	27680.75
791.9949	109.2573	27604.85	26948.9
792.1363	111.5105	26900.65	26241.5
792.2777	113.7632	26173.3	25513.8
792.4191	116.0154	25598.1	24928.2
792.5605	118.2672	25184.95	24513.45
792.7019	120.5185	24723.55	24055.25
792.8434	122.7693	24337.85	23665.95
792.9849	125.0197	24039.8	23367.45
793.1264	127.2696	23780.25	23102
793.2679	129.519	23667.6	22984.1
793.4094	131.7679	23481.05	22792.05
793.551	134.0163	23374.6	22685.2
793.6926	136.2642	23172.3	22480.4
793.8342	138.5117	22968.75	22273
793.9758	140.7587	22747.95	22053.65
794.1175	143.0052	22560.3	21858.65
794.2591	145.2512	22341.3	21644.5
794.4008	147.4967	22123.7	21426.85
794.5425	149.7417	21974.95	21270.55
794.6842	151.9863	21877.55	21172.45
794.826	154.2304	21823.55	21110.2
794.9677	156.4739	21663.2	20949.4
795.1095	158.717	21612.2	20892.35
795.2513	160.9596	21497.6	20780
795.3931	163.2017	21268.7	20546.85
795.535	165.4433	20997.45	20273.4
795.6768	167.6844	20675.9	19948.6
795.8187	169.925	20350.15	19623.05
795.9606	172.1651	19991.35	19261.35
796.1025	174.4047	19717.05	18985.65
796.2445	176.6439	19503.55	18766
796.3864	178.8825	19247.4	18506.2
796.5284	181.1206	19127.3	18381.35
796.6704	183.3582	18969.6	18217.65
796.8124	185.5954	18887.6	18139.55
796.9544	187.832	18789.3	18037.05
797.0965	190.0681	18763.25	18004.35
797.2386	192.3037	18801.8	18042.05
797.3806	194.5388	18801.5	18038.7
797.5228	196.7734	18842.75	18078.55
797.6649	199.0075	18950.7	18185.95
797.807	201.2411	19130	18360.75
797.9492	203.4742	19221.9	18454
798.0914	205.7068	19364.05	18587.65
798.2336	207.9389	19504.75	18728.55
798.3758	210.1704	19665.35	18901.65
798.518	212.4015	19788.4	19034.95
798.6603	214.632	19955.15	19204
798.8025	216.862	20153.25	19405.1
798.9448	219.0915	20332.85	19581.3
799.0871	221.3205	20567.2	19811.2
799.2294	223.549	20848.2	20098.2
799.3718	225.777	21183.2	20430.25
799.5141	228.0044	21541.95	20779.55
799.6565	230.2314	22029.3	21268.55
799.7989	232.4578	22484.9	21718.65
799.9413	234.6837	22866	22095.5
800.0837	236.909	23093.4	22319.55
800.2262	239.1339	23070.95	22270.45
800.3687	241.3582	22887.8	22103.7
800.5111	243.582	22549.95	21732.4
800.6536	245.8053	22247.65	21446.8
800.7961	248.0281	21925.4	21126.55
800.9387	250.2503	21700.05	20900.75
801.0812	252.472	21515.3	20715
801.2238	254.6932	21538.15	20739.05
801.3664	256.9139	21441.65	20641.05
801.509	259.134	21465.85	20661.75
801.6516	261.3536	21480.45	20674.7
801.7942	263.5727	21518.65	20707.65
801.9369	265.7912	21499.8	20699.35
802.0795	268.0092	21543.35	20739.45
802.2222	270.2267	21479.05	20669.85
802.3649	272.4436	21461.7	20654.45
802.5076	274.6601	21419.75	20604.9
802.6504	276.8759	21335.7	20525.55
802.7931	279.0913	21332.3	20516.85
802.9359	281.3061	21377.4	20562.15
803.0787	283.5204	21435.75	20614.35
803.2215	285.7341	21535.1	20712.4
803.3643	287.9473	21695.15	20863.65
803.5071	290.16	21924.9	21100.95
803.6499	292.3721	22250.55	21434.75
803.7928	294.5837	22668	21847.7
803.9357	296.7947	23021.75	22199.8
804.0786	299.0052	23270.1	22449.6
804.2215	301.2152	23118.85	22297.25
804.3644	303.4246	22835.3	22017.45
804.5074	305.6334	22285.1	21464.3
804.6503	307.8418	21820.2	20996.55
804.7933	310.0495	21394.35	20568.55
804.9363	312.2568	21093.9	20269.7
805.0793	314.4635	20850.55	20021.8
805.2223	316.6696	20772.3	19942
805.3653	318.8752	20732.8	19892.25
805.5084	321.0802	20811.7	19978.85
805.6514	323.2847	20922.55	20086.45
805.7945	325.4887	20978.15	20146.05
805.9376	327.692	20950.95	20113.75
806.0807	329.8949	20869.35	20032.7
806.2238	332.0972	20579.85	19739.95
806.367	334.2989	20348.8	19504.3
806.5101	336.5001	20050	19207.55
806.6533	338.7007	19871.3	19028.65
806.7965	340.9008	19823.95	18978.3
806.9397	343.1003	19688.8	18842
807.0829	345.2992	19665.3	18819.5
807.2261	347.4976	19628.4	18783.6
807.3693	349.6955	19648	18795.15
807.5126	351.8927	19714.3	18861.65
807.6559	354.0895	19692.4	18828.05
807.7991	356.2856	19799.05	18943.45
807.9424	358.4812	19800.5	18941.7
808.0857	360.6763	19831.65	18973.95
808.2291	362.8707	19841	18979.45
808.3724	365.0646	19862.7	18997.9
808.5158	367.258	19888.3	19024.95
808.6591	369.4508	19925.5	19064
808.8025	371.643	20036.9	19170.45
808.9459	373.8346	20014.85	19147.5
809.0893	376.0257	20009.3	19142.55
809.2327	378.2162	19954.5	19087
809.3762	380.4062	19850.5	18985.6
809.5196	382.5956	19724.95	18863.95
809.6631	384.7844	19634.4	18779.65
809.8066	386.9726	19519.15	18661.4
809.9501	389.1603	19494.05	18637.4
810.0936	391.3474	19471.85	18578.85
810.2371	393.5339	19470.25	18611.05
810.3806	395.7199	19401.95	18544.4
810.5241	397.9052	19476.8	18620.1
810.6677	400.09	19480.7	18620.55
810.8113	402.2743	19563.7	18704.5
810.9548	404.4579	19647.65	18787.85
811.0984	406.641	19840.1	18977.7
811.2421	408.8235	20061.05	19196.15
811.3857	411.0054	20379.4	19515.2
811.5293	413.1868	20820.4	19946.15
811.673	415.3675	21167.8	20291.2
811.8166	417.5477	21397.5	20526.05
811.9603	419.7273	21433.55	20559.4
812.104	421.9064	21350.8	20475.95
812.2477	424.0848	21222.5	20350.9
812.3914	426.2627	20995.1	20122.95
812.5351	428.4399	20735.95	19860.5
812.6788	430.6166	20408.3	19528.8
812.8226	432.7928	20053.25	19173
812.9663	434.9683	19765.25	18887.45
813.1101	437.1432	19533.65	18662.05
813.2539	439.3176	19364.75	18491.8
813.3977	441.4914	19251.4	18388.4
813.5415	443.6645	19251.25	18380.85
813.6853	445.8371	19161.75	18286.6
813.8291	448.0091	19128.25	18251.35
813.973	450.1806	19072.15	18197
814.1168	452.3514	19025.55	18153.55
814.2607	454.5216	19070.05	18181.55
814.4046	456.6913	18980.45	18102.1
814.5485	458.8603	19029.05	18154.85
814.6924	461.0288	19115.2	18245
814.8363	463.1967	19142.8	18273.55
814.9802	465.3639	19275.75	18404.1
815.1241	467.5306	19374.2	18501.1
815.2681	469.6967	19514.05	18644.5
815.412	471.8622	19651.8	18782.15
815.556	474.0271	19844.35	18970.2
815.7	476.1914	19911.85	19033.9
815.844	478.3551	19951.35	19076.35
815.988	480.5182	19936.55	19062.2
816.132	482.6807	19928.35	19060.4
816.276	484.8426	20057.4	19195.5
816.4201	487.0039	20386.05	19515.75
816.5641	489.1647	20766.05	19889.75
816.7082	491.3248	21207.8	20331
816.8522	493.4843	21427.85	20555.5
816.9963	495.6432	21425.15	20552.45
817.1404	497.8015	21354.35	20469.15
817.2845	499.9592	21398.55	20508.75
817.4286	502.1163	21345.65	20455.2
817.5727	504.2728	21068.35	20186.65
817.7168	506.4287	20836.25	19968.8
817.861	508.5839	20393.4	19523.35
818.0051	510.7386	20074.65	19196.1
818.1493	512.8927	19924.95	19041.55
818.2935	515.0461	19809.75	18924.6
818.4377	517.199	19791.3	18899.95
818.5818	519.3512	19814.65	18925.55
818.726	521.5029	19895.85	19005.5
818.8703	523.6539	19961.1	19071.9
819.0145	525.8043	20018.8	19128.1
819.1587	527.9541	20063.1	19170.8
819.303	530.1033	20027.9	19138.2
819.4472	532.2519	20087.4	19197.05
819.5915	534.3999	20197.05	19306.05
819.7357	536.5472	20498.35	19606.9
819.88	538.694	20975.2	20088.4
820.0243	540.8401	21560.55	20666.05
820.1686	542.9856	22106.8	21205.25
820.3129	545.1305	22283.6	21375.3
820.4572	547.2748	22171.35	21261.35
820.6016	549.4185	21826	20915.4
820.7459	551.5615	21501.6	20595.7
820.8902	553.704	21377.5	20473.6
821.0346	555.8458	21286.3	20383.75
821.1789	557.987	21333.5	20439.9
821.3233	560.1276	21327.8	20427.1
821.4677	562.2675	21347.45	20444.4
821.6121	564.4069	21407.85	20506.3
821.7565	566.5456	21430.2	20535.3
821.9009	568.6837	21329.55	20432.2
822.0453	570.8212	21081.3	20185.65
822.1897	572.958	20744.85	19846.95
822.3342	575.0942	20486.35	19591.2
822.4786	577.2299	20291.95	19398
822.6231	579.3648	20258.75	19379.9
822.7675	581.4992	20333.5	19462.2
822.912	583.6329	20550.75	19678.2
823.0565	585.766	20779.3	19899.15
823.201	587.8985	20909.8	20023.65
823.3454	590.0304	20916.7	20009.25
823.4899	592.1616	20893.7	19988.4
823.6345	594.2922	20786.85	19885.85
823.779	596.4222	20635.15	19727.95
823.9235	598.5515	20485.2	19579.2
824.068	600.6802	20331.4	19424.3
824.2126	602.8083	20125.8	19226.1
824.3571	604.9358	20098.6	19193.3
824.5017	607.0626	20006.9	19099.5
824.6462	609.1888	20016.65	19108.4
824.7908	611.3144	20002.6	19086.8
824.9354	613.4393	19906.7	18997.75
825.08	615.5636	19820	18907.7
825.2246	617.6873	19735.15	18822.35
825.3692	619.8103	19699.45	18790.7
825.5138	621.9327	19624.6	18715.35
825.6584	624.0544	19589.35	18684.45
825.803	626.1756	19597.2	18688.9
825.9477	628.2961	19527.85	18613.6
826.0923	630.4159	19496.4	18584.45
826.237	632.5351	19484.7	18571.5
826.3816	634.6537	19431.6	18521.25
826.5263	636.7716	19422.15	18504.3
826.6709	638.8889	19458.95	18538.45
826.8156	641.0056	19500.95	18582.45
826.9603	643.1216	19489.6	18574.3
827.105	645.237	19563.25	18649.05
827.2497	647.3518	19539.3	18633.25
827.3944	649.4659	19610.45	18705.75
827.5391	651.5793	19606.45	18702.95
827.6838	653.6922	19567.15	18660.6
827.8285	655.8043	19567.5	18661.5
827.9733	657.9159	19576.3	18664.25
828.118	660.0268	19511.2	18600.25
828.2627	662.137	19472.2	18558.55
828.4075	664.2466	19495.45	18575.25
828.5522	666.3556	19498	18582.85
828.697	668.4639	19474.3	18560.75
828.8418	670.5716	19558.2	18652.2
828.9865	672.6786	19589.65	18675.2
829.1313	674.785	19646.95	18729.6
829.2761	676.8907	19774.35	18861.85
829.4209	678.9958	19827.6	18917.1
829.5657	681.1002	19785.85	18868.4
829.7105	683.204	19786.55	18862.15
829.8553	685.3072	19762.75	18842.6
830.0001	687.4097	19695.15	18779.55
830.1449	689.5115	19713.4	18795.1
830.2898	691.6127	19669.25	18752.7
830.4346	693.7132	19562.3	18651.1
830.5794	695.8131	19583.85	18648.45
830.7243	697.9123	19564.85	18642.95
830.8691	700.0109	19586.15	18660.75
831.014	702.1089	19573.15	18653.25
831.1588	704.2061	19594.95	18676.55
831.3037	706.3028	19620.75	18698.35
831.4486	708.3987	19724.1	18803.55
831.5935	710.4941	19784.25	18866.25
831.7383	712.5887	20016.85	19096.5
831.8832	714.6827	20293.95	19371.45
832.0281	716.7761	20607.15	19690.25
832.173	718.8688	20996.15	20075.25
832.3179	720.9608	21201.8	20273.2
832.4628	723.0522	21317.3	20385.6
832.6077	725.1429	21092.55	20166.2
832.7527	727.233	20871.1	19945.9
832.8976	729.3224	20648	19724.4
833.0425	731.4112	20364.85	19441.3
833.1874	733.4993	20206.05	19279.55
833.3324	735.5867	20007.1	19084.8
833.4773	737.6735	19928.8	19006.6
833.6222	739.7596	19879.45	18954.25
833.7672	741.845	19838.2	18915.3
833.9122	743.9298	19793.8	18867.8
834.0571	746.014	19840	18912.55
834.2021	748.0974	19851.6	18920.85
834.347	750.1802	19836.5	18902.4
834.492	752.2624	19824.45	18895.5
834.637	754.3439	19862.3	18929.65
834.782	756.4247	19972.35	19034.1
834.9269	758.5048	20056.8	19123.95
835.0719	760.5843	20308.05	19376.45
835.2169	762.6631	20607.4	19673.95
835.3619	764.7413	21085.2	20160.5
835.5069	766.8188	21676.3	20744.7
835.6519	768.8956	22075.2	21142.75
835.7969	770.9718	22426.55	21495.8
835.9419	773.0473	22324	21391.65
836.0869	775.1221	22021.85	21089.85
836.232	777.1962	21628.65	20699.3
836.377	779.2697	21450.85	20518.2
836.522	781.3426	21510.3	20560.95
836.667	783.4147	21738.6	20805.4
836.8121	785.4862	22052.85	21124.4
836.9571	787.557	22103.75	21169.6
837.1021	789.6271	21779.7	20845.15
837.2472	791.6966	21228.7	20294.15
837.3922	793.7654	20710.4	19779.8
837.5373	795.8335	20420.2	19486.8
837.6823	797.901	20210.7	19278.8
837.8274	799.9678	20163.3	19225.4
837.9724	802.0339	20189	19255.45
838.1175	804.0993	20281.2	19337.1
838.2626	806.1641	20254.8	19317.75
838.4076	808.2282	20213.7	19279.15
838.5527	810.2916	20106.25	19171.5
838.6978	812.3544	20025.05	19096.35
838.8428	814.4164	19952.65	19022.55
838.9879	816.4778	19992.55	19055.3
839.133	818.5385	20003.4	19068.15
839.2781	820.5986	20075.8	19139.6
839.4232	822.658	20178.85	19241.45
839.5682	824.7166	20261.15	19329.1
839.7133	826.7747	20557.55	19621.4
839.8584	828.832	20772.85	19835.35
840.0035	830.8886	20923.2	19982.55
840.1486	832.9446	21039.8	20100.15
840.2937	834.9999	21099.8	20163.5
840.4388	837.0545	21134.95	20194.8
840.5839	839.1085	21142.6	20203.8
840.729	841.1618	21088.1	20145.85
840.8741	843.2143	21061.7	20130.05
841.0192	845.2662	20953.3	20017
841.1643	847.3175	20931.85	19992.45
841.3095	849.368	20811.15	19871.35
841.4546	851.4179	20692.9	19754.55
841.5997	853.467	20591.75	19655.95
841.7448	855.5155	20488.15	19552.75
841.8899	857.5633	20403.5	19467.1
842.0351	859.6105	20287.85	19345.95
842.1802	861.6569	20217.15	19278.1
842.3253	863.7027	20189	19246
842.4704	865.7478	20224.5	19285.6
842.6156	867.7922	20218.35	19276.5
842.7607	869.8359	20268.4	19330.35
842.9058	871.8789	20399.2	19458.25
843.0509	873.9212	20634.55	19662.35
843.1961	875.9629	20713.9	19769.55
843.3412	878.0039	20938.95	19998.45
843.4863	880.0441	21053.35	20113.95
843.6315	882.0837	21081.4	20142.65
843.7766	884.1226	20990.95	20050.9
843.9218	886.1609	20913.95	19975.65
844.0669	888.1984	20803.05	19859.7
844.212	890.2352	20897.25	19956.25
844.3572	892.2714	20870.05	19921.6
844.5023	894.3069	20854.75	19911.6
844.6475	896.3416	20765.05	19822.55
844.7926	898.3757	20725.2	19782.95
844.9377	900.4091	20731.7	19785.1
845.0829	902.4418	20792.6	19849.8
845.228	904.4739	20772.2	19826
845.3732	906.5052	20806.1	19862.1
845.5183	908.5358	20724.65	19780.15
845.6635	910.5658	20579.8	19637.15
845.8086	912.595	20433.5	19486.1
845.9538	914.6236	20267.8	19325.15
846.0989	916.6515	20205.1	19262.4
846.2441	918.6786	20196.25	19250.6
846.3892	920.7051	20301.95	19354.5
846.5344	922.7309	20414.75	19470.75
846.6795	924.756	20474.1	19530.7
846.8246	926.7804	20591.75	19651.2
846.9698	928.8041	20527.45	19582.85
847.1149	930.8272	20592.25	19650.2
847.2601	932.8495	20500.85	19556.1
847.4052	934.8711	20470.65	19522.75
847.5504	936.892	20308.3	19368.25
847.6955	938.9123	20164.95	19220.1
847.8407	940.9318	20121	19175.15
847.9858	942.9506	19966.8	19022.75
848.131	944.9688	19876.7	18930.95
848.2761	946.9862	19818.45	18873.4
848.4213	949.003	19693.1	18749.4
848.5664	951.019	19747.95	18804
848.7115	953.0344	19762.8	18819.05
848.8567	955.0491	19780.5	18837.5
849.0018	957.063	19894.2	18947.85
849.147	959.0763	20030.35	19087.6
849.2921	961.0888	20063.05	19115.45
849.4373	963.1007	20176.55	19234.45
849.5824	965.1119	20196.45	19263.75
849.7275	967.1223	20196.85	19265.65
849.8727	969.1321	20300.95	19368.95
850.0178	971.1412	20332.3	19394.9
850.1629	973.1495	20361.5	19425.25
850.3081	975.1572	20417.9	19429.4
850.4532	977.1641	20476.2	19530.35
850.5983	979.1704	20446.25	19501.55
850.7435	981.1759	20401.3	19451.6
850.8886	983.1808	20492.35	19548.9
851.0337	985.1849	20567	19610.75
851.1788	987.1884	20702.3	19754
851.324	989.1911	20867.15	19920.1
851.4691	991.1932	21014.95	20072.65
851.6142	993.1945	21026.6	20086.1
851.7593	995.1951	20952.3	20008.45
851.9045	997.1951	20975.1	20022.5
852.0496	999.1943	20845.65	19900.35
852.1947	1001.1928	20829.65	19886.35
852.3398	1003.1906	20793.75	19850.3
852.4849	1005.1877	20863.15	19915.3
852.63	1007.1841	20842.2	19898.05
852.7751	1009.1798	20763.75	19822.9
852.9202	1011.1748	20598.55	19651.45
853.0653	1013.1691	20400.65	19456.9
853.2104	1015.1627	20173.55	19230.85
853.3555	1017.1556	19932.5	18992.85
853.5006	1019.1477	19831.25	18891.5
853.6457	1021.1392	19746.35	18811.35
853.7908	1023.1299	19702.8	18770.75
853.9359	1025.12	19721.95	18797.1
854.081	1027.1093	19758.35	18843.4
854.2261	1029.0979	19816.5	18904.15
854.3712	1031.0859	19906.4	18986.15
854.5163	1033.0731	19916.35	18984.65
854.6613	1035.0596	19820.95	18889
854.8064	1037.0454	19654.85	18718.4
854.9515	1039.0304	19553	18607.45
855.0965	1041.0148	19414.25	18472.45
855.2416	1042.9985	19326.75	18382.4
855.3867	1044.9814	19324.55	18385.5
855.5317	1046.9636	19231	18290.05
855.6768	1048.9452	19228.8	18289.25
855.8219	1050.926	19261	18323.35
855.9669	1052.9061	19231.2	18288.55
856.112	1054.8855	19241.2	18300.95
856.257	1056.8642	19257.25	18313.15
856.4021	1058.8421	19352.6	18404.55
856.5471	1060.8194	19369.15	18424.7
856.6921	1062.7959	19381	18440.25
856.8372	1064.7717	19417.55	18476.4
856.9822	1066.7469	19433.5	18490.3
857.1272	1068.7213	19408.7	18465.3
857.2723	1070.695	19455.9	18514.65
857.4173	1072.6679	19369.3	18427.9
857.5623	1074.6402	19345.8	18404.4
857.7073	1076.6117	19316.85	18366.65
857.8523	1078.5826	19316.75	18375.85
857.9973	1080.5527	19345.15	18398.3
858.1423	1082.5221	19426.35	18483.5
858.2873	1084.4908	19578.3	18638.5
858.4323	1086.4587	19749.95	18807.35
858.5773	1088.426	19913.6	18970.45
858.7223	1090.3925	19902.3	18952.55
858.8673	1092.3584	19856.65	18914.4
859.0123	1094.3235	19688.75	18746
859.1573	1096.2879	19642.5	18702.45
859.3022	1098.2515	19646.55	18703.95
859.4472	1100.2145	19677.6	18739.5
859.5922	1102.1767	19752.1	18809.25
859.7371	1104.1382	19926.55	18985.7
859.8821	1106.099	20169.45	19226.15
860.027	1108.0591	20354.6	19414.1
860.172	1110.0185	20478.45	19534.35
860.3169	1111.9771	20531.55	19589.85
860.4619	1113.9351	20326.35	19388.15
860.6068	1115.8923	20011.6	19069.65
860.7517	1117.8488	19709.85	18770.8
860.8967	1119.8045	19422.8	18485.6
861.0416	1121.7596	19342.9	18403.95
861.1865	1123.7139	19224.4	18283.25
861.3314	1125.6675	19250.8	18310
861.4763	1127.6204	19342.7	18402.9
861.6212	1129.5726	19305.05	18361.3
861.7661	1131.524	19289.95	18350.7
861.911	1133.4748	19277.95	18333.85
862.0559	1135.4248	19256.8	18316.7
862.2008	1137.3741	19251.8	18310.75
862.3457	1139.3226	19177	18237.9
862.4905	1141.2705	19194.55	18253.35
862.6354	1143.2176	19058.65	18110.85
862.7803	1145.164	19038.75	18094.15
862.9251	1147.1097	19058.5	18117.9
863.07	1149.0546	19090.2	18148.5
863.2148	1150.9989	18986.95	18045.1
863.3597	1152.9424	18847.85	17908.5
863.5045	1154.8852	18719.25	17776.65
863.6493	1156.8272	18598.05	17657.8
863.7942	1158.7686	18540.5	17593.8
863.939	1160.7092	18474.25	17532.35
864.0838	1162.6491	18464.35	17522.65
864.2286	1164.5883	18547.65	17604.3
864.3734	1166.5267	18649.95	17706.6
864.5182	1168.4644	18793.55	17855.5
864.663	1170.4014	18981.3	18040.25
864.8078	1172.3377	19253.2	18316.9
864.9526	1174.2732	19409.2	18471.65
865.0974	1176.2081	19679.7	18741
865.2421	1178.1421	19940.15	18996.8
865.3869	1180.0755	20138.05	19198.5
865.5317	1182.0082	20233.6	19295.55
865.6764	1183.9401	20259.1	19324.05
865.8212	1185.8713	20068.1	19135.65
865.9659	1187.8017	19869.35	18942.6
866.1106	1189.7315	19623.9	18705.85
866.2554	1191.6605	19331.6	18414.45
866.4001	1193.5888	19081.95	18156.65
866.5448	1195.5163	18982.45	18054.95
866.6895	1197.4432	18853.25	17916.75
866.8342	1199.3693	18827.85	17892.75
866.9789	1201.2947	18772.35	17828.9
867.1236	1203.2193	18710.3	17773.4
867.2683	1205.1432	18759.15	17820.65
867.413	1207.0664	18731.95	17797.2
867.5576	1208.9889	18776.25	17835.55
867.7023	1210.9106	18797.6	17862.15
867.847	1212.8316	18823.4	17888.4
867.9916	1214.7519	18880.4	17936.25
868.1363	1216.6715	18905.5	17967.8
868.2809	1218.5903	18940.05	18003.3
868.4255	1220.5084	18893.05	17955.45
868.5701	1222.4257	18894	17959.75
868.7148	1224.3424	18803.4	17869.2
868.8594	1226.2583	18840.95	17901.45
869.004	1228.1735	18937.9	18003.65
869.1486	1230.0879	18998.25	18059.3
869.2932	1232.0016	19138.85	18205.8
869.4377	1233.9146	19193.8	18257.3
869.5823	1235.8269	19075.6	18139.5
869.7269	1237.7384	18982.45	18045.75
869.8715	1239.6492	18746.05	17813.45
870.016	1241.5592	18632.6	17696.1
870.1606	1243.4686	18564.35	17630
870.3051	1245.3772	18539.95	17603
870.4496	1247.285	18522.45	17584.55
870.5941	1249.1922	18439.55	17500.75
870.7387	1251.0986	18476.8	17540
870.8832	1253.0042	18467	17533.55
871.0277	1254.9092	18485.8	17555.1
871.1722	1256.8134	18557.45	17623.85
871.3167	1258.7169	18674.8	17738.85
871.4611	1260.6196	18830.7	17897.65
871.6056	1262.5216	19025.15	18090.5
871.7501	1264.4229	19174.75	18242.9
871.8945	1266.3234	19317.95	18384.3
872.039	1268.2232	19399.15	18464.5
872.1834	1270.1223	19422.55	18485.05
872.3278	1272.0207	19401.1	18465.55
872.4723	1273.9183	19384.05	18443.8
872.6167	1275.8151	19271.8	18339
872.7611	1277.7113	19192.75	18258.15
872.9055	1279.6067	19071.3	18139.55
873.0499	1281.5014	18968.4	18031.2
873.1943	1283.3953	18926.2	17991.65
873.3386	1285.2885	18928.65	17993.15
873.483	1287.181	18963.35	18030.1
873.6274	1289.0727	19107.65	18174.35
873.7717	1290.9637	19163.1	18229.45
873.9161	1292.854	19290.5	18356.4
874.0604	1294.7435	19382.7	18451.35
874.2047	1296.6323	19551.45	18618.45
874.349	1298.5204	19809.4	18873.15
874.4933	1300.4077	19996.05	19058.1
874.6376	1302.2943	20148.25	19217.6
874.7819	1304.1802	20193.95	19256.35
874.9262	1306.0653	20039.25	19104.8
875.0705	1307.9497	19839.3	18906
875.2147	1309.8333	19668.95	18736.3
875.359	1311.7162	19585.95	18653
875.5032	1313.5984	19581.95	18646.8
875.6475	1315.4798	19619.4	18677.25
875.7917	1317.3605	19661.7	18711.85
875.9359	1319.2405	19729.4	18794.55
876.0801	1321.1197	19661.3	18724.65
876.2243	1322.9982	19517.9	18581.45
876.3685	1324.876	19436.15	18499.85
876.5127	1326.753	19331.75	18400.9
876.6569	1328.6293	19320.55	18385.65
876.801	1330.5048	19289.55	18355.55
876.9452	1332.3796	19201.9	18269.9
877.0893	1334.2537	19231.65	18276.65
877.2335	1336.127	19148.5	18214.7
877.3776	1337.9996	19090.25	18156
877.5217	1339.8714	19059.6	18129.1
877.6658	1341.7426	19042.25	18066.45
877.8099	1343.6129	19010.05	18074.8
877.954	1345.4826	18922.65	17988.5
878.0981	1347.3515	18904.75	17966.8
878.2422	1349.2196	18811.25	17876.1
878.3862	1351.087	18822.45	17888.9
878.5303	1352.9537	18866.35	17930.2
878.6743	1354.8197	18997.1	18064.7
878.8184	1356.6849	19175.3	18236.65
878.9624	1358.5493	19241.2	18308.45
879.1064	1360.4131	19265.6	18333.05
879.2504	1362.276	19218.35	18286.3
879.3944	1364.1383	19063.9	18127.1
879.5384	1365.9998	18821.15	17884.25
879.6823	1367.8606	18494.15	17559.05
879.8263	1369.7206	18183.75	17248.25
879.9702	1371.5799	18004.5	17070.9
880.1142	1373.4384	17789.5	16855.5
880.2581	1375.2962	17608.9	16675.6
880.402	1377.1533	17309.7	16379.75
880.5459	1379.0096	16953.45	16023.45
880.6898	1380.8652	16675	15748.6
880.8337	1382.7201	16437.8	15507.6
880.9776	1384.5742	16218.6	15285.25
881.1215	1386.4275	16004.25	15071.95
881.2653	1388.2802	15834.45	14903
881.4092	1390.132	15724	14789.85
881.553	1391.9832	15668.1	14732.75
881.6968	1393.8336	15558.65	14626.7
881.8406	1395.6832	15489.65	14554.25
881.9844	1397.5322	15435.9	14503.65
882.1282	1399.3803	15413.35	14474.8
882.272	1401.2278	15365.45	14434.85
882.4158	1403.0745	15307.75	14374.7
882.5595	1404.9204	15278.4	14346.1
882.7033	1406.7656	15267.55	14335.95
882.847	1408.6101	15269	14338.4
882.9908	1410.4538	15260.25	14328.25
883.1345	1412.2968	15282.7	14351.45
883.2782	1414.139	15294.65	14363.25
883.4219	1415.9805	15386.85	14459.15
883.5656	1417.8213	15392.15	14454.2
883.7092	1419.6613	15514.2	14584.85
883.8529	1421.5006	15677.9	14749.05
883.9965	1423.3391	15901.65	14969.7
884.1402	1425.1769	16210.3	15279.65
884.2838	1427.0139	16700	15769.15
884.4274	1428.8502	17254.25	16321.2
884.571	1430.6858	17813	16881.6
884.7146	1432.5206	18180.9	17251.6
884.8582	1434.3547	18424.3	17491.7
885.0018	1436.188	18486.55	17555.2
885.1453	1438.0206	18385.5	17452.95
885.2889	1439.8524	18182.25	17252.75
885.4324	1441.6835	18065.85	17134.55
885.5759	1443.5139	17966.85	17035.45
885.7194	1445.3435	17848.55	16918.9
885.8629	1447.1724	17844.3	16916
886.0064	1449.0005	17750.2	16824.5
886.1499	1450.8279	17678.9	16752.8
886.2933	1452.6545	17633.6	16706.8
886.4368	1454.4804	17626.05	16697.95
886.5802	1456.3056	17575.15	16641.75
886.7237	1458.13	17491	16567.75
886.8671	1459.9536	17276.8	16347.9
887.0105	1461.7766	16953.95	16027.4
887.1539	1463.5987	16526.15	15596.5
887.2972	1465.4202	16155.5	15230.2
887.4406	1467.2409	15753	14823.4
887.584	1469.0608	15494.4	14565.2
887.7273	1470.88	15204.2	14274.15
887.8706	1472.6984	14962.95	14038.55
888.0139	1474.5161	14730.55	13798.75
888.1572	1476.3331	14545.5	13617.85
888.3005	1478.1493	14442.1	13512.95
888.4438	1479.9648	14325.25	13397.6
888.5871	1481.7795	14224.65	13297.55
888.7303	1483.5935	14154.6	13225.75
888.8736	1485.4067	14073.6	13143.95
889.0168	1487.2192	14012.5	13083.35
889.16	1489.031	13975.95	13048.75
889.3032	1490.842	13907.55	12978.25
889.4464	1492.6522	13864.85	12937.1
889.5896	1494.4618	13818.05	12890.2
889.7327	1496.2705	13780.65	12852.85
889.8759	1498.0785	13737.35	12809
890.019	1499.8858	13671.15	12743.3
890.1622	1501.6924	13637.2	12714.6
890.3053	1503.4981	13629.2	12700.55
890.4484	1505.3032	13582.25	12653.65
890.5914	1507.1075	13575.05	12646.85
890.7345	1508.911	13482.7	12554.75
890.8776	1510.7138	13451.7	12519.75
891.0206	1512.5159	13384	12458.35
891.1637	1514.3172	13338.9	12411.2
891.3067	1516.1178	13276.4	12350.65
891.4497	1517.9176	13249.5	12322.05
891.5927	1519.7166	13147.5	12224.5
891.7357	1521.515	13132.9	12201.05
891.8786	1523.3126	13111.15	12186.05
892.0216	1525.1094	13071.65	12146
892.1645	1526.9055	13007.4	12086.35
892.3074	1528.7008	12959.9	12035.95
892.4503	1530.4954	12874.65	11950.4
892.5932	1532.2893	12835.85	11915
892.7361	1534.0824	12798.45	11872.35
892.879	1535.8747	12811.1	11891.1
893.0218	1537.6663	12748.2	11828.2
893.1647	1539.4572	12723.6	11801.25
893.3075	1541.2473	12704.3	11783.6
893.4503	1543.0367	12680.3	11758.45
893.5931	1544.8253	12625.45	11699.45
893.7359	1546.6132	12658.95	11735.65
893.8787	1548.4003	12618.7	11690.35
894.0214	1550.1867	12628.8	11699.45
894.1642	1551.9723	12634.95	11713.65
894.3069	1553.7572	12693.45	11773.35
894.4496	1555.5414	12663.9	11747.5
894.5923	1557.3247	12716.4	11801
894.735	1559.1074	12759.4	11847.7
894.8777	1560.8893	12864.85	11949.95
895.0204	1562.6705	12886.6	11971.2
895.163	1564.4509	12969.5	12056.9
895.3056	1566.2305	12969	12058.4
895.4482	1568.0094	13037.55	12126.3
895.5908	1569.7876	13063	12150.85
895.7334	1571.565	13097.2	12182.3
895.876	1573.3417	13080.35	12166.15
896.0186	1575.1176	13092.1	12178.8
896.1611	1576.8928	13019.5	12108.3
896.3036	1578.6672	12909.9	12004.5
896.4461	1580.4409	12814.7	11909.45
896.5886	1582.2138	12689.15	11780.6
896.7311	1583.986	12588.4	11678
896.8736	1585.7575	12510.35	11600.55
897.0161	1587.5282	12434.75	11529.2
897.1585	1589.2981	12407.65	11501.4
897.3009	1591.0673	12349.3	11444.6
897.4433	1592.8358	12353.5	11447.6
897.5857	1594.6035	12358.4	11447.85
897.7281	1596.3704	12332.5	11418.8
897.8705	1598.1366	12340.9	11429.4
898.0128	1599.9021	12384.2	11479.4
898.1551	1601.6668	12416.6	11506.45
898.2975	1603.4308	12475.9	11565.9
898.4398	1605.194	12596.45	11682.4
898.5821	1606.9564	12651.8	11751.9
898.7243	1608.7182	12782.35	11885.9
898.8666	1610.4791	12933.9	12040.5
899.0088	1612.2394	13073.8	12180.2
899.1511	1613.9988	13276	12377.15
899.2933	1615.7576	13450.6	12547.15
899.4355	1617.5156	13661.75	12749.15
899.5776	1619.2728	13852.25	12941.55
899.7198	1621.0293	13957.7	13049.2
899.862	1622.785	13994.25	13084.9
900.0041	1624.54	13869.65	12965.5
900.1462	1626.2942	13704.05	12803.1
900.2883	1628.0477	13398.45	12492.6
900.4304	1629.8005	13182.15	12275.05
900.5725	1631.5525	12944.75	12042.9
900.7145	1633.3037	12721.8	11820.8
900.8566	1635.0542	12612.55	11714.15
900.9986	1636.804	12475.15	11576
901.1406	1638.553	12462.9	11502.45
901.2826	1640.3013	12383.8	11484.6
901.4245	1642.0488	12299.75	11397.15
901.5665	1643.7955	12314.55	11418.25
901.7085	1645.5416	12363.4	11462.7
901.8504	1647.2868	12436.3	11533.05
901.9923	1649.0313	12514.15	11611.4
902.1342	1650.7751	12663	11758.6
902.2761	1652.5181	12779	11879.2
902.4179	1654.2604	12965.95	12066.75
902.5598	1656.0019	13238.15	12340.5
902.7016	1657.7427	13511.65	12612.95
902.8434	1659.4828	13832.35	12927.95
902.9852	1661.222	13984.45	13078.6
903.127	1662.9606	13997.75	13094.8
903.2687	1664.6984	13763.75	12859.55
903.4105	1666.4354	13382.2	12474.6
903.5522	1668.1717	12859.4	11952.9
903.6939	1669.9072	12337.75	11433.1
903.8356	1671.642	11917.5	11010.3
903.9773	1673.3761	11560.8	10658.25
904.119	1675.1094	11237	10332.65
904.2606	1676.8419	11017.4	10117.6
904.4022	1678.5737	10826.85	9925.45
904.5439	1680.3048	10685.55	9781.9
904.6855	1682.0351	10546.7	9644.15
904.827	1683.7646	10418.75	9513.5
904.9686	1685.4934	10362.3	9460.85
905.1101	1687.2215	10279.75	9377.35
905.2517	1688.9488	10202.25	9301.1
905.3932	1690.6754	10143.95	9244.4
905.5347	1692.4012	10105.75	9205.8
905.6761	1694.1263	10031.05	9129.4
905.8176	1695.8506	10005.15	9106.2
905.9591	1697.5742	9965	9067.25
906.1005	1699.297	9888.7	8991.8
906.2419	1701.0191	9833.35	8939.5
906.3833	1702.7404	9788.35	8894.2
906.5246	1704.461	9741.5	8843.35
906.666	1706.1808	9690.75	8790.1
906.8073	1707.8999	9699.55	8800
906.9487	1709.6182	9604.75	8711.35
907.09	1711.3358	9583.25	8689.2
907.2313	1713.0527	9541.1	8649.55
907.3725	1714.7688	9517.25	8618.3
907.5138	1716.4841	9475.7	8576.75
907.655	1718.1987	9455.85	8555.85
907.7962	1719.9126	9421.2	8529.3
907.9374	1721.6257	9390.05	8496.85
908.0786	1723.338	9336	8443.95
908.2198	1725.0496	9313	8419.15
908.3609	1726.7605	9294.3	8399.45
908.502	1728.4706	9257.4	8363.25
908.6431	1730.18	9197.95	8302.55
908.7842	1731.8886	9177.4	8287.7
908.9253	1733.5964	9180.45	8265.85
909.0664	1735.3036	9133.9	8238.75
909.2074	1737.0099	9088.15	8193.7
909.3484	1738.7156	9088.8	8198.1
909.4894	1740.4204	9043.6	8150.9
909.6304	1742.1246	9015.25	8118.95
909.7714	1743.8279	9006.4	8111.2
909.9123	1745.5306	8999.8	8106.3
910.0532	1747.2325	8932.75	8040.75
910.1941	1748.9336	8887.2	7994.3
910.335	1750.634	8865.2	7970.15
910.4759	1752.3336	8838.9	7944.45
910.6168	1754.0325	8820.55	7931.4
910.7576	1755.7307	8779.7	7890.4
910.8984	1757.4281	8779.3	7887.1
911.0392	1759.1247	8788.4	7885.7
911.18	1760.8206	8753	7850.15
911.3208	1762.5158	8728.95	7829.3
911.4615	1764.2102	8685.25	7791.55
911.6022	1765.9039	8663.3	7772.75
911.7429	1767.5968	8638.55	7749.65
911.8836	1769.289	8616	7726.05
912.0243	1770.9804	8599.35	7705.35
912.1649	1772.6711	8572.15	7675.8
912.3056	1774.361	8555.45	7658.15
912.4462	1776.0502	8530.45	7634.25
912.5868	1777.7386	8498.2	7600.6
912.7274	1779.4263	8478.05	7582.95
912.8679	1781.1132	8472.85	7584.4
913.0084	1782.7994	8448.05	7557.7
913.149	1784.4849	8447.75	7557.5
913.2895	1786.1696	8423.05	7528.1
913.4299	1787.8535	8382.95	7496.55
913.5704	1789.5367	8347.85	7460.9
913.7108	1791.2192	8359.95	7472.85
913.8513	1792.9009	8316.25	7399.85
913.9917	1794.5818	8298.7	7404.7
914.132	1796.2621	8273.65	7381.45
914.2724	1797.9415	8268.55	7374.55
914.4128	1799.6202	8230.3	7338.2
914.5531	1801.2982	8212.05	7319.35
914.6934	1802.9755	8215.8	7321.75
914.8337	1804.6519	8183.4	7290.45
914.9739	1806.3277	8153.25	7262.65
915.1142	1808.0027	8092.95	7206.5
915.2544	1809.6769	8095.55	7209.2
915.3946	1811.3504	8076.4	7187.95
915.5348	1813.0231	8076.65	7189.1
915.675	1814.6951	8059.95	7170.25
915.8151	1816.3664	8056.2	7163.9
915.9553	1818.0369	8030.8	7139
916.0954	1819.7067	7986.9	7096.55
916.2355	1821.3757	7983.95	7089.9
916.3755	1823.044	7968.05	7073.45
916.5156	1824.7115	7925.7	7032.75
916.6556	1826.3783	7904	7015.15
916.7956	1828.0443	7882.25	6990.75
916.9356	1829.7096	7877.45	6985.2
917.0756	1831.3741	7862.55	6968.2
917.2155	1833.0379	7857.15	6968.95
917.3555	1834.701	7833.85	6944.25
917.4954	1836.3633	7808.65	6921.5
917.6353	1838.0248	7790.35	6900.1
917.7751	1839.6856	7761	6870.7
917.915	1841.3457	7758.8	6869.5
918.0548	1843.005	7757.5	6863.6
918.1946	1844.6636	7751.6	6861.95
918.3344	1846.3214	7703.8	6815.05
918.4742	1847.9785	7722.35	6831.45
918.6139	1849.6349	7685.3	6790.35
918.7537	1851.2904	7677.25	6775
918.8934	1852.9453	7648	6754.95
919.0331	1854.5994	7631.45	6736.3
919.1727	1856.2528	7657.8	6761.05
919.3124	1857.9054	7602.85	6708.9
919.452	1859.5572	7601.15	6712.5
919.5916	1861.2083	7604.55	6711.6
919.7312	1862.8587	7582.2	6690.4
919.8708	1864.5084	7573.85	6680.05
920.0103	1866.1572	7542.75	6649.2
920.1498	1867.8054	7481.85	6587.75
920.2893	1869.4528	7500.05	6605.5
920.4288	1871.0994	7480.15	6587
920.5683	1872.7453	7454.4	6562.15
920.7077	1874.3905	7433.5	6522.5
920.8471	1876.0349	7407.35	6513.55
920.9865	1877.6786	7416.3	6521.7
921.1259	1879.3215	7412.6	6520.4
921.2653	1880.9637	7376.4	6485.1
921.4046	1882.6051	7354.25	6465.3
921.5439	1884.2458	7337.35	6444.8
921.6832	1885.8858	7318.05	6427.9
921.8225	1887.525	7300.65	6407.35
921.9617	1889.1634	7289.25	6397.9
922.101	1890.8011	7249.35	6357.8
922.2402	1892.4381	7226.05	6335.2
922.3794	1894.0743	7222.35	6332.25
922.5185	1895.7098	7203.1	6312.3
922.6577	1897.3446	7177.95	6288.35
922.7968	1898.9786	7167.6	6272
922.9359	1900.6118	7159.4	6271.65
923.075	1902.2443	7108.75	6219.2
923.214	1903.8761	7117.05	6225.85
923.3531	1905.5071	7071.05	6179.7
923.4921	1907.1374	7058.3	6167.9
923.6311	1908.7669	7034.3	6144.45
923.77	1910.3957	7018.45	6129.95
923.909	1912.0237	6967.95	6076.5
924.0479	1913.651	6977.7	6087.65
924.1868	1915.2776	6956.3	6068.45
924.3257	1916.9034	6927.8	6039.05
924.4646	1918.5285	6897.6	6010.2
924.6034	1920.1528	6861.55	5971.15
924.7422	1921.7764	6855.85	5966.35
924.881	1923.3992	6839.1	5949.1
925.0198	1925.0213	6799.4	5909.4
925.1586	1926.6427	6774.5	5883.15
925.2973	1928.2633	6844.15	5855.75
925.436	1929.8832	6758.6	5865.85
925.5747	1931.5023	6725.7	5834.45
925.7134	1933.1207	6708.7	5819.2
925.852	1934.7383	6667.6	5777.3
925.9906	1936.3552	6656	5767.75
926.1292	1937.9714	6645	5754.45
926.2678	1939.5868	6621.4	5729.85
926.4064	1941.2015	6593.75	5704.25
926.5449	1942.8154	6562.25	5672.1
926.6834	1944.4286	6548.5	5659.4
926.8219	1946.041	6538.95	5624.55
926.9604	1947.6528	6499.75	5604.75
927.0988	1949.2637	6479.95	5591.75
927.2372	1950.8739	6456.3	5565.35
927.3756	1952.4834	6464.65	5575.7
927.514	1954.0921	6457.25	5570.65
927.6523	1955.7001	6419.25	5527.25
927.7907	1957.3074	6401.6	5517.6
927.929	1958.9139	6356.6	5468.9
928.0673	1960.5197	6360	5472.45
928.2055	1962.1247	6332.35	5446.9
928.3438	1963.729	6296.65	5410
928.482	1965.3325	6279.45	5387.3
928.6202	1966.9353	6248.4	5362.3
928.7584	1968.5374	6232.2	5344.2
928.8965	1970.1387	6221.35	5337.5
929.0346	1971.7393	6176.4	5288.4
929.1727	1973.3392	6182.25	5296.05
929.3108	1974.9383	6148.9	5265.05
929.4489	1976.5366	6126.75	5240.9
929.5869	1978.1342	6132.4	5248.65
929.7249	1979.7311	6125.75	5242.05
929.8629	1981.3273	6114.6	5228.7
930.0009	1982.9227	6075.65	5191.4
930.1388	1984.5173	6050.95	5167.8
930.2767	1986.1112	6033.7	5151.5
930.4146	1987.7044	6026.1	5142.65
930.5525	1989.2968	6010.65	5124.5
930.6904	1990.8885	6003.35	5116.9
930.8282	1992.4795	5965.85	5084.5
930.966	1994.0697	5948.35	5068.05
931.1038	1995.6592	5935.45	5055.35
931.2415	1997.2479	5912.1	5029.25
931.3793	1998.8359	5895.7	5013.25
931.517	2000.4232	5876.9	4997.45
931.6547	2002.0097	5861.65	4983.9
931.7923	2003.5955	5825.1	4946.1
931.93	2005.1805	5835.8	4954.15
932.0676	2006.7648	5849.7	4969.1
932.2052	2008.3484	5819	4938.25
932.3427	2009.9312	5810.45	4930.3
932.4803	2011.5133	5794.55	4920.35
932.6178	2013.0946	5764.65	4886.15
932.7553	2014.6752	5753.2	4874.45
932.8928	2016.2551	5739.6	4858.85
933.0302	2017.8342	5704.05	4823.05
933.1676	2019.4126	5679.7	4802.45
933.305	2020.9902	5667.7	4790.6
933.4424	2022.5672	5646.4	4767
933.5798	2024.1433	5650.95	4769.4
933.7171	2025.7188	5628.5	4754.45
933.8544	2027.2935	5617.6	4741.35
933.9917	2028.8674	5589.25	4712.1
934.129	2030.4406	5566.5	4690.75
934.2662	2032.0131	5560.5	4685.95
934.4034	2033.5849	5550.7	4668.45
934.5406	2035.1559	5541.7	4666.6
934.6778	2036.7261	5534.5	4654.85
934.8149	2038.2957	5488.6	4606.45
934.952	2039.8645	5495.6	4613.9
935.0891	2041.4325	5507	4623.2
935.2262	2042.9998	5471.65	4591.9
935.3632	2044.5664	5481.4	4598.45
935.5002	2046.1323	5464.1	4587.75
935.6372	2047.6974	5417.4	4538.85
935.7742	2049.2617	5409.6	4533.9
935.9111	2050.8254	5404.1	4520.6
936.048	2052.3883	5403.4	4521.25
936.1849	2053.9504	5386.3	4506.2
936.3218	2055.5118	5366.9	4483.85
936.4586	2057.0725	5353.4	4470.5
936.5955	2058.6325	5349.85	4469.3
936.7323	2060.1917	5324.85	4447.5
936.869	2061.7502	5311.3	4430.95
937.0058	2063.3079	5285.25	4407
937.1425	2064.8649	5280.1	4395.9
937.2792	2066.4212	5268.55	4391
937.4159	2067.9767	5260.3	4381.25
937.5525	2069.5315	5241.35	4361.9
937.6891	2071.0856	5229.95	4352.95
937.8257	2072.6389	5201.65	4322.8
937.9623	2074.1915	5177.65	4302.5
938.0989	2075.7433	5151.45	4272.6
938.2354	2077.2945	5141.2	4264.1
938.3719	2078.8448	5136.1	4252.05
938.5084	2080.3945	5120.3	4236.6
938.6448	2081.9434	5116.25	4235.4
938.7812	2083.4916	5078.65	4196.25
938.9176	2085.039	5072.95	4186.2
939.054	2086.5857	5078	4188.9
939.1903	2088.1317	5053.4	4165.6
939.3267	2089.677	5037	4148.8
939.463	2091.2215	5049.2	4162.9
939.5992	2092.7652	5038.15	4149.55
939.7355	2094.3083	5015.45	4127.3
939.8717	2095.8506	5012.7	4128
940.0079	2097.3921	4994.25	4112.1
940.1441	2098.933	4967.85	4084.85
940.2802	2100.4731	4977.2	4093.25
940.4163	2102.0124	4977.75	4077.75
940.5524	2103.5511	4956.65	4075.15
940.6885	2105.089	4943	4057.5
940.8245	2106.6261	4940.6	4058.7
940.9606	2108.1626	4920.5	4036.05
941.0965	2109.6983	4918.5	4005.3
941.2325	2111.2332	4904.15	4020.1
941.3684	2112.7675	4884.25	3999.9
941.5044	2114.301	4880.55	3994.25
941.6403	2115.8337	4864.85	3981.05
941.7761	2117.3657	4853.8	3968.55
941.912	2118.897	4846	3958.45
942.0478	2120.4276	4827.35	3937.1
942.1835	2121.9575	4793.7	3909.3
942.3193	2123.4866	4801.35	3900.55
942.455	2125.0149	4807.75	3919.6
942.5907	2126.5426	4765.6	3884.3
942.7264	2128.0695	4753.2	3871
942.8621	2129.5956	4732.15	3854.7
942.9977	2131.1211	4745.85	3858.8
943.1333	2132.6458	4744.25	3862.35
943.2689	2134.1698	4713.45	3826.3
943.4044	2135.693	4715.75	3825
943.54	2137.2155	4721.25	3832.75
943.6755	2138.7373	4683.2	3799.65
943.8109	2140.2584	4676.1	3796.95
943.9464	2141.7787	4669.6	3784.55
944.0818	2143.2983	4634.1	3758.3
944.2172	2144.8171	4616.6	3739.55
944.3526	2146.3353	4604.2	3721.35
944.4879	2147.8527	4595.55	3714.2
944.6232	2149.3693	4601	3715.9
944.7585	2150.8853	4594.1	3708.45
944.8938	2152.4005	4567	3680.3
945.029	2153.9149	4584.05	3697.1
945.1642	2155.4287	4565.4	3679.8
945.2994	2156.9417	4560.7	3673.8
945.4346	2158.454	4539.9	3654.35
945.5697	2159.9655	4545.45	3666.95
945.7048	2161.4764	4518.1	3635.85
945.8399	2162.9865	4503.05	3621.45
945.9749	2164.4958	4498.65	3616.05
946.1099	2166.0045	4480.55	3594.3
946.2449	2167.5124	4463.1	3581.2
946.3799	2169.0195	4470	3584.3
946.5148	2170.526	4454.05	3568.95
946.6498	2172.0317	4441.75	3558.3
946.7846	2173.5367	4441.3	3556.65
946.9195	2175.0409	4405.45	3521.8
947.0543	2176.5445	4422.05	3537.05
947.1891	2178.0473	4410.65	3522.95
947.3239	2179.5494	4403.45	3515.8
947.4587	2181.0507	4382.7	3498.85
947.5934	2182.5513	4361.6	3478.2
947.7281	2184.0512	4367.8	3482.35
947.8628	2185.5504	4335	3451.2
947.9974	2187.0488	4317.75	3438.3
948.132	2188.5465	4312.4	3432.55
948.2666	2190.0435	4290.1	3407.7
948.4012	2191.5397	4287	3400.9
948.5357	2193.0353	4278.2	3391.6
948.6702	2194.5301	4273.05	3385.85
948.8047	2196.0241	4252.05	3364.85
948.9392	2197.5175	4248.5	3360.05
949.0736	2199.0101	4240.85	3348.75
949.208	2200.502	4211.55	3326.9
949.3424	2201.9931	4206.15	3326
949.4767	2203.4835	4192.8	3309.2
949.611	2204.9733	4173	3287.4
949.7453	2206.4622	4177.65	3298
949.8796	2207.9505	4162.65	3279.1
950.0138	2209.438	4134.1	3256.9
950.148	2210.9248	4119.1	3234.2
950.2822	2212.4109	4110.35	3227.95
950.4164	2213.8962	4114.1	3225.85
950.5505	2215.3809	4094.05	3203.6
950.6846	2216.8648	4104.95	3213.35
950.8186	2218.3479	4085.9	3189.15
950.9527	2219.8304	4077.3	3184.35
951.0867	2221.3121	4060.05	3167.6
951.2207	2222.7931	4051.65	3160.7
951.3546	2224.2733	4035.75	3148.9
951.4886	2225.7529	4011.2	3126.5
951.6225	2227.2317	4000.4	3114.1
951.7563	2228.7098	4015.2	3133.9
951.8902	2230.1872	3975.1	3094.95
952.024	2231.6638	3978.7	3097.05
952.1578	2233.1397	3963.6	3078.55
952.2916	2234.6149	3962.2	3080.3
952.4253	2236.0894	3945.15	3061.5
952.559	2237.5632	3958.35	3063.15
952.6927	2239.0362	3915.25	3033.85
952.8263	2240.5085	3918.45	3033.6
952.9599	2241.9801	3910.5	3027.7
953.0935	2243.4509	3901.05	3014.2
953.2271	2244.921	3872.95	2985.9
953.3606	2246.3904	3870.45	2979.2
953.4941	2247.8591	3861	2975.4
953.6276	2249.3271	3845.1	2958.4
953.7611	2250.7943	3847.55	2960.1
953.8945	2252.2608	3829.3	2940.1
954.0279	2253.7266	3828.25	2942.95
954.1612	2255.1917	3798.75	2913.35
954.2946	2256.656	3797.9	2911.3
954.4279	2258.1197	3791.05	2911.55
954.5612	2259.5826	3779.85	2894.65
954.6944	2261.0447	3782.45	2897.85
954.8276	2262.5062	3759.25	2868.6
954.9608	2263.9669	3765.15	2876.75
955.094	2265.4269	3765.65	2881.4
955.2271	2266.8862	3744.45	2857.3
955.3602	2268.3448	3723.2	2840.45
955.4933	2269.8026	3728.8	2846.5
955.6264	2271.2598	3710	2826.6
955.7594	2272.7162	3710.2	2828.55
955.8924	2274.1719	3710.85	2823.3
956.0253	2275.6268	3699.35	2811.2
956.1583	2277.0811	3697.2	2809
956.2912	2278.5346	3687.1	2802.3
956.4241	2279.9874	3663.25	2782.6
956.5569	2281.4395	3667.95	2787.15
956.6897	2282.8908	3646.05	2757.3
956.8225	2284.3414	3643.85	2758.8
956.9553	2285.7914	3637.05	2752.85
957.088	2287.2406	3629.4	2742.25
957.2207	2288.689	3631.4	2743.4
957.3534	2290.1368	3621.3	2731.35
957.486	2291.5838	3608.4	2717.45
957.6186	2293.0302	3597.9	2704.75
957.7512	2294.4758	3582.55	2693.25
957.8838	2295.9206	3581.4	2691.15
958.0163	2297.3648	3562.35	2677.5
958.1488	2298.8082	3565.05	2680.95
958.2813	2300.251	3553.25	2665.6
958.4137	2301.693	3547.75	2657.3
958.5461	2303.1343	3541.45	2652.75
958.6785	2304.5748	3539.85	2653.15
958.8108	2306.0147	3532.1	2649.35
958.9432	2307.4538	3511.4	2625.25
959.0754	2308.8922	3507.1	2628.25
959.2077	2310.3299	3506.75	2622.2
959.3399	2311.7669	3487.2	2603.6
959.4721	2313.2031	3478.6	2591.7
959.6043	2314.6387	3468.7	2582.55
959.7365	2316.0735	3457.8	2571.4
959.8686	2317.5076	3453.55	2567.15
960.0006	2318.941	3446.45	2559.25
960.1327	2320.3737	3440.2	2552.05
960.2647	2321.8056	3424.8	2533.5
960.3967	2323.2369	3421.2	2535.5
960.5287	2324.6674	3413.9	2523.15
960.6606	2326.0972	3411.9	2524.35
960.7925	2327.5263	3387.15	2501.7
960.9244	2328.9547	3393.2	2504.25
961.0562	2330.3823	3388.2	2499
961.1881	2331.8092	3377.45	2484.65
961.3198	2333.2355	3363	2476.3
961.4516	2334.661	3362.45	2474.8
961.5833	2336.0858	3370	2480.8
961.715	2337.5098	3352.65	2464.95
961.8467	2338.9332	3336	2447.5
961.9783	2340.3558	3341.5	2450.1
962.1099	2341.7778	3309.75	2426.3
962.2415	2343.199	3291.55	2405.1
962.373	2344.6195	3302.65	2418.85
962.5045	2346.0393	3311.55	2430.35
962.636	2347.4583	3296.8	2410.5
962.7675	2348.8767	3296.15	2409.3
962.8989	2350.2943	3286.8	2399.85
963.0303	2351.7113	3287.2	2396.65
963.1617	2353.1275	3272.55	2383.25
963.293	2354.543	3271.35	2373.85
963.4243	2355.9578	3261.65	2373.5
963.5556	2357.3718	3238.6	2354.85
963.6868	2358.7852	3219.4	2333.4
963.818	2360.1978	3226.75	2343.15
963.9492	2361.6098	3231.7	2348.75
964.0803	2363.021	3216.65	2328.8
964.2114	2364.4315	3200.55	2315.65
964.3425	2365.8413	3196.45	2308.25
964.4736	2367.2504	3188.2	2306.75
964.6046	2368.6587	3164.65	2282.3
964.7356	2370.0664	3167.45	2284.4
964.8666	2371.4733	3150.25	2267.55
964.9975	2372.8795	3143.25	2258.2
965.1284	2374.285	3149.1	2266.75
965.2593	2375.6899	3135.95	2250.85
965.3901	2377.0939	3129.2	2249.75
965.5209	2378.4973	3117	2234.45
965.6517	2379.9	3110	2227.6
965.7825	2381.3019	3095.4	2214.2
965.9132	2382.7032	3087.2	2203.95
966.0439	2384.1037	3092.4	2212.5
966.1745	2385.5035	3073.1	2192.9
966.3051	2386.9027	3065.35	2187.3
966.4357	2388.3011	3064.7	2183.45
966.5663	2389.6987	3050.45	2169.85
966.6968	2391.0957	3039.95	2160.35
966.8273	2392.492	3026.4	2146.9
966.9578	2393.8876	3026.1	2144.5
967.0882	2395.2824	2996.45	2116.15
967.2186	2396.6765	3003.9	2122.1
967.349	2398.07	3000.35	2119.4
967.4793	2399.4627	2983.85	2101.3
967.6097	2400.8547	2999.75	2118.65
967.7399	2402.246	2978.15	2090.55
967.8702	2403.6366	2970.25	2088
968.0004	2405.0265	2959.65	2078.05
968.1306	2406.4156	2958	2073.15
968.2607	2407.8041	2947.65	2061.6
968.3909	2409.1918	2951	2064.85
968.521	2410.5789	2922.9	2038.75
968.651	2411.9652	2915.4	2029.85
968.781	2413.3508	2921.05	2038.2
968.911	2414.7358	2896.1	2013.3
969.041	2416.12	2893.2	2016.4
969.1709	2417.5035	2889.15	2007.15
969.3008	2418.8863	2899.35	2018.15
969.4307	2420.2684	2883.35	2000.9
969.5606	2421.6497	2871.2	1986.95
969.6904	2423.0304	2869.45	1989.1
969.8201	2424.4104	2854.2	1969.25
969.9499	2425.7896	2855.35	1972.9
970.0796	2427.1682	2836.5	1953.45
970.2093	2428.546	2840.75	1956.9
970.3389	2429.9232	2842.95	1960.4
970.4685	2431.2996	2825.15	1942.45
970.5981	2432.6753	2820.5	1938.2
970.7277	2434.0503	2810.3	1929.05
970.8572	2435.4246	2803.25	1919.7
970.9867	2436.7982	2799.85	1916.25
971.1161	2438.1711	2797.55	1916.3
971.2456	2439.5433	2780.85	1895.25
971.375	2440.9148	2771.65	1884.4
971.5043	2442.2856	2758.15	1876.15
971.6336	2443.6557	2765.4	1879.8
971.7629	2445.025	2744.5	1862.15
971.8922	2446.3937	2757.9	1873.85
972.0214	2447.7617	2751.8	1869.1
972.1506	2449.1289	2749.45	1865.85
972.2798	2450.4955	2744.5	1859.95
972.4089	2451.8613	2730.95	1849.65
972.538	2453.2265	2724.55	1842.45
972.6671	2454.5909	2723.35	1838.85
972.7961	2455.9546	2720.2	1839.5
972.9251	2457.3177	2709.9	1825.7
973.0541	2458.68	2702.9	1820.05
973.1831	2460.0416	2712.65	1828.55
973.312	2461.4025	2700.65	1817.8
973.4408	2462.7627	2704.55	1810.7
973.5697	2464.1222	2692.65	1812.65
973.6985	2465.4811	2687.1	1804.7
973.8273	2466.8392	2675.55	1791.6
973.956	2468.1966	2663.4	1778.35
974.0847	2469.5533	2670.9	1785.9
974.2134	2470.9093	2674.2	1791.3
974.3421	2472.2645	2655.2	1771.75
974.4707	2473.6191	2641.05	1758.15
974.5993	2474.973	2653.9	1768.75
974.7278	2476.3262	2642.3	1757.15
974.8563	2477.6787	2637.2	1756.55
974.9848	2479.0305	2625.6	1743.8
975.1132	2480.3816	2631.85	1746.35
975.2417	2481.7319	2609.8	1729.3
975.37	2483.0816	2606.7	1722.1
975.4984	2484.4306	2600	1718.25
975.6267	2485.7789	2586.45	1705.05
975.755	2487.1264	2580	1697.3
975.8833	2488.4733	2578.4	1696.1
976.0115	2489.8195	2573.75	1683.85
976.1397	2491.165	2565.15	1678.75
976.2678	2492.5097	2563.65	1681.2
976.3959	2493.8538	2552.5	1672.05
976.524	2495.1972	2543.5	1660.2
976.6521	2496.5398	2543.35	1660.4
976.7801	2497.8818	2537.75	1654
976.9081	2499.2231	2531.4	1647.35
977.036	2500.5637	2512.15	1625.45
977.164	2501.9035	2514	1630.1
977.2918	2503.2427	2508.35	1620.1
977.4197	2504.5812	2500.7	1617.15
977.5475	2505.919	2497.25	1612.85
977.6753	2507.256	2520.5	1637.75
977.8031	2508.5924	2496.1	1612.25
977.9308	2509.9281	2493.4	1605.55
978.0585	2511.2631	2471.2	1590.7
978.1861	2512.5974	2471.05	1588.6
978.3137	2513.9309	2472	1588.8
978.4413	2515.2638	2488.95	1579.55
978.5689	2516.596	2463.75	1581.05
978.6964	2517.9275	2450.05	1563.6
978.8239	2519.2583	2445.15	1562.1
978.9513	2520.5884	2444.1	1559.4
979.0788	2521.9178	2425.5	1541.15
979.2062	2523.2465	2428.5	1547.45
979.3335	2524.5745	2426.95	1545.1
979.4608	2525.9018	2419	1535.6
979.5881	2527.2284	2422.25	1543.2
979.7154	2528.5543	2412.5	1528.55
979.8426	2529.8796	2411.9	1529.8
979.9698	2531.2041	2408.9	1524.85
980.0969	2532.5279	2396.95	1516.8
980.224	2533.851	2394.95	1511.15
980.3511	2535.1735	2396.3	1513.65
980.4781	2536.4952	2388.35	1504
980.6052	2537.8163	2383.1	1498.1
980.7321	2539.1366	2380.95	1497.8
980.8591	2540.4562	2385	1500.65
980.986	2541.7752	2369.95	1483.8
981.1129	2543.0935	2376.55	1494.25
981.2397	2544.411	2361.15	1476.95
981.3665	2545.7279	2359.8	1476.5
981.4933	2547.0441	2356.3	1472.25
981.62	2548.3596	2346.15	1458
981.7467	2549.6744	2350.75	1467.7
981.8734	2550.9885	2349.35	1456.9
982.0001	2552.3019	2336.55	1451.8
982.1267	2553.6146	2341.55	1458.75
982.2532	2554.9266	2331.6	1447.1
982.3798	2556.2379	2328.4	1444.65
982.5063	2557.5485	2322.25	1438.75
982.6327	2558.8585	2322.15	1430.35
982.7592	2560.1677	2317.05	1429.4
982.8856	2561.4762	2311.6	1427.65
983.0119	2562.7841	2313.65	1428.8
983.1383	2564.0913	2314.85	1430.65
983.2646	2565.3977	2306.25	1421.65
983.3908	2566.7035	2302.3	1417.7
983.517	2568.0086	2294.55	1410.4
983.6432	2569.313	2291.7	1408.45
983.7694	2570.6167	2301.3	1413.25
983.8955	2571.9197	2295.3	1409
984.0216	2573.222	2284.8	1396.65
984.1476	2574.5236	2282.2	1396.65
984.2737	2575.8246	2278.5	1392.7
984.3996	2577.1248	2267.5	1383.4
984.5256	2578.4244	2283.35	1396.8
984.6515	2579.7232	2273.1	1390.05
984.7774	2581.0214	2300.85	1384.4
984.9032	2582.3189	2280.1	1398.5
985.029	2583.6157	2266.35	1377.25
985.1548	2584.9118	2265.05	1379.45
985.2806	2586.2072	2261.15	1378.5
985.4063	2587.5019	2255.2	1367.25
985.5319	2588.7959	2247.9	1363.35
985.6576	2590.0893	2260.95	1373.35
985.7832	2591.3819	2242.8	1359.7
985.9087	2592.6739	2250.8	1366.3
986.0343	2593.9652	2255.4	1369.65
986.1597	2595.2557	2241.85	1357.85
986.2852	2596.5456	2248.4	1360.5
986.4106	2597.8348	2233.05	1349.15
986.536	2599.1234	2231.7	1348.4
986.6614	2600.4112	2239.2	1355.5
986.7867	2601.6983	2227.55	1342.05
986.912	2602.9848	2229.85	1345.05
987.0372	2604.2705	2223.95	1333
987.1624	2605.5556	2210.1	1326.6
987.2876	2606.84	2219.5	1334.5
987.4128	2608.1237	2201.15	1315.65
987.5379	2609.4067	2200.9	1317.65
987.6629	2610.689	2223.1	1330
987.788	2611.9707	2218.9	1332
987.913	2613.2516	2191.4	1302.65
988.0379	2614.5319	2177.5	1292.25
988.1629	2615.8115	2177.4	1294.25
988.2878	2617.0903	2165.7	1280.25
988.4126	2618.3685	2171.25	1287.55
988.5375	2619.6461	2156	1271.8
988.6622	2620.9229	2160.95	1275.85
988.787	2622.199	2154.25	1271.45
988.9117	2623.4745	2150.3	1266.95
989.0364	2624.7493	2155.3	1269.8
989.161	2626.0234	2154.8	1272.25
989.2857	2627.2968	2143.25	1258.2
989.4102	2628.5695	2140.25	1256.05
989.5348	2629.8415	2129.9	1247.5
989.6593	2631.1128	2130.45	1243
989.7837	2632.3835	2120.95	1239.3
989.9082	2633.6535	2117.6	1232.95
990.0326	2634.9228	2118.25	1236.9
990.1569	2636.1914	2121	1236.05
990.2812	2637.4593	2114.6	1229.8
990.4055	2638.7265	2102.65	1217.8
990.5298	2639.9931	2101.8	1216.15
990.654	2641.259	2107.25	1222.7
990.7782	2642.5242	2093.15	1207.25
990.9023	2643.7887	2092.8	1207.9
991.0264	2645.0525	2084	1200.7
991.1505	2646.3156	2081.6	1196.95
991.2745	2647.5781	2077.35	1195.85
991.3985	2648.8398	2071.8	1187.5
991.5225	2650.1009	2081.85	1191.65
991.6464	2651.3613	2072.4	1191.05
991.7703	2652.6211	2056.4	1171.5
991.8942	2653.8801	2061.4	1178.8
992.018	2655.1385	2061.7	1174.1
992.1418	2656.3961	2053.3	1169.2
992.2655	2657.6531	2053.4	1169.4
992.3892	2658.9094	2051.4	1167.4
992.5129	2660.1651	2048.75	1163.55
992.6366	2661.42	2057.3	1175.1
992.7602	2662.6743	2051.35	1167.2
992.8837	2663.9279	2049	1167.2
993.0073	2665.1808	2046.65	1162.4
993.1307	2666.433	2043.25	1159.2
993.2542	2667.6846	2038.05	1155.55
993.3776	2668.9354	2044.65	1157.55
993.501	2670.1856	2037.7	1153.9
993.6244	2671.4351	2046.95	1163.15
993.7477	2672.6839	2046.55	1161.5
993.8709	2673.9321	2048.1	1164.3
993.9942	2675.1795	2044.6	1160.35
994.1174	2676.4263	2045.5	1165.4
994.2405	2677.6724	2041.9	1158.6
994.3637	2678.9179	2035.75	1154.05
994.4868	2680.1626	2032.75	1150.2
994.6098	2681.4067	2041.05	1157.15
994.7328	2682.6501	2047.1	1166.35
994.8558	2683.8928	2026.25	1143.55
994.9788	2685.1348	2011.1	1127.95
995.1017	2686.3761	2008.55	1124.75
995.2245	2687.6168	2013.75	1128.15
995.3474	2688.8568	2009.75	1127.6
995.4702	2690.0961	2000	1116
995.5929	2691.3348	1987	1104.15
995.7156	2692.5727	1991.25	1107.2
995.8383	2693.81	1982.7	1099.6
995.961	2695.0466	1987.9	1107.1
996.0836	2696.2826	1980.15	1097.35
996.2062	2697.5178	1976.6	1090.95
996.3287	2698.7524	1974.4	1092.25
996.4512	2699.9863	1979.3	1092.95
996.5737	2701.2195	1974.05	1092.65
996.6961	2702.452	1984.85	1098.6
996.8185	2703.6839	1978.4	1093.6
996.9408	2704.9151	1988.5	1107.95
997.0631	2706.1456	1979.85	1095.55
997.1854	2707.3755	1986.1	1102.55
997.3077	2708.6046	1983.6	1100.45
997.4299	2709.8331	1986.6	1102
997.552	2711.0609	1996.25	1114.2
997.6742	2712.2881	2005.45	1122.85
997.7963	2713.5145	2016.4	1134.25
997.9183	2714.7403	2018.5	1136.6
998.0403	2715.9654	2017.8	1131.75
998.1623	2717.1899	2046.45	1150.65
998.2842	2718.4136	2039.4	1155.5
998.4062	2719.6367	2045.9	1164.85
998.528	2720.8591	2068.3	1178.45
998.6498	2722.0809	2055.6	1173.2
998.7716	2723.3019	2072.25	1184.85
998.8934	2724.5223	2079.6	1195.55
999.0151	2725.7421	2081.5	1198.35
999.1368	2726.9611	2091.6	1207.55
999.2584	2728.1795	2077	1190.9
999.38	2729.3972	2067.75	1187.45
999.5016	2730.6142	2078.75	1183.1
999.6231	2731.8306	2049.15	1165.15
999.7446	2733.0462	2030.95	1147.05
999.8661	2734.2612	2007.05	1119.2
999.9875	2735.4756	1995.4	1109.8
1000.1089	2736.6892	1966.9	1083.45
1000.2302	2737.9022	1948.05	1068.4
1000.3515	2739.1145	1941.3	1058.45
1000.4728	2740.3262	1920.8	1029.65
1000.594	2741.5372	1909.8	1028.6
1000.7152	2742.7475	1896	1012.1
1000.8363	2743.9571	1885.7	1002.2
1000.9575	2745.1661	1878.15	990.95
1001.0785	2746.3744	1859.45	977.85
1001.1996	2747.582	1842.8	960.8
1001.3206	2748.7889	1844.1	961.35
1001.4415	2749.9952	1836.8	954.9
1001.5625	2751.2008	1834.65	952.5
1001.6833	2752.4057	1830.1	944.25
1001.8042	2753.61	1820.3	939.75
1001.925	2754.8136	1814.75	929.65
1002.0458	2756.0165	1812.4	930.25
1002.1665	2757.2188	1805.85	923.9
1002.2872	2758.4204	1799.2	917.45
1002.4078	2759.6213	1810.6	927.5
1002.5285	2760.8215	1804.5	918.25
1002.649	2762.0211	1800.65	916.5
1002.7696	2763.22	1794.75	912.3
1002.8901	2764.4182	1787.6	905.65
1003.0106	2765.6158	1791.85	908.6
1003.131	2766.8127	1786.2	904.75
1003.2514	2768.009	1778.1	898.55
1003.3717	2769.2045	1782.8	898.5
1003.492	2770.3994	1773.15	889.35
1003.6123	2771.5936	1765.5	884.55
1003.7325	2772.7872	1758.3	877.15
1003.8527	2773.9801	1750.85	868.5
1003.9729	2775.1723	1765.4	865.7
1004.093	2776.3639	1750.3	868.85
1004.2131	2777.5548	1747.05	863.1
1004.3331	2778.745	1749.6	866.35
1004.4531	2779.9346	1758	879.9
1004.5731	2781.1235	1754.9	871.45
1004.693	2782.3117	1754.3	872.05
1004.8129	2783.4992	1756.75	876.25
1004.9328	2784.6861	1764.6	883
1005.0526	2785.8723	1772.95	889
1005.1723	2787.0579	1768.05	887.35
1005.2921	2788.2428	1772.3	892.8
1005.4118	2789.427	1771.05	890.2
1005.5314	2790.6106	1778.3	897.1
1005.651	2791.7935	1797.35	916.95
1005.7706	2792.9757	1794.05	916.4
1005.8902	2794.1573	1803.2	920.25
1006.0097	2795.3382	1827.2	948.6
1006.1291	2796.5184	1830.6	952.2
1006.2485	2797.698	1835.95	953.8
1006.3679	2798.8769	1862.85	981.5
1006.4873	2800.0551	1879.45	996.75
1006.6066	2801.2327	1881.7	996.75
1006.7258	2802.4096	1904.4	1025.1
1006.8451	2803.5859	1913.1	1029.8
1006.9642	2804.7615	1932.65	1050
1007.0834	2805.9364	1961.45	1081.2
1007.2025	2807.1106	1982.2	1102
1007.3216	2808.2842	2015.95	1135.65
1007.4406	2809.4572	2038.45	1156.95
1007.5596	2810.6294	2087.15	1206.55
1007.6785	2811.801	2109.8	1232.2
1007.7975	2812.972	2145.8	1265.15
1007.9163	2814.1423	2192.3	1311.25
1008.0352	2815.3119	2227.7	1343.75
1008.154	2816.4808	2286.2	1405.95
1008.2727	2817.6491	2336.55	1454.45
1008.3914	2818.8167	2377.85	1499.3
1008.5101	2819.9837	2423.35	1538.3
1008.6288	2821.15	2474	1595.15
1008.7474	2822.3157	2510	1631
1008.8659	2823.4807	2571.55	1689.9
1008.9844	2824.645	2621.8	1739.65
1009.1029	2825.8086	2654.65	1775.85
1009.2214	2826.9716	2707.25	1827.5
1009.3398	2828.134	2748.8	1869.1
1009.4581	2829.2957	2787.3	1906.25
1009.5764	2830.4567	2800.1	1922.95
1009.6947	2831.617	2821.65	1939.95
1009.813	2832.7767	2826.9	1946.65
1009.9312	2833.9358	2838	1958.75
1010.0493	2835.0941	2848.7	1965.95
1010.1675	2836.2519	2824.7	1944.65
1010.2855	2837.4089	2810.55	1928.3
1010.4036	2838.5653	2803.8	1923.8
1010.5216	2839.7211	2801.5	1924.15
1010.6396	2840.8761	2813.85	1930.75
1010.7575	2842.0306	2813.65	1933.7
1010.8754	2843.1843	2870.65	1992.15
1010.9932	2844.3374	2914.1	2034.75
1011.111	2845.4899	2972.1	2091
1011.2288	2846.6417	3030.15	2152.45
1011.3465	2847.7928	3108.85	2230
1011.4642	2848.9433	3184.3	2305.45
1011.5818	2850.0931	3265.55	2386.15
1011.6995	2851.2422	3339.5	2459.45
1011.817	2852.3907	3389.55	2508.75
1011.9345	2853.5385	3468.45	2585.3
1012.052	2854.6857	3539.6	2634.9
1012.1695	2855.8323	3565.3	2685.6
1012.2869	2856.9781	3618.5	2738.65
1012.4042	2858.1233	3662.95	2783.45
1012.5216	2859.2679	3707.9	2828.6
1012.6389	2860.4118	3757.45	2877.3
1012.7561	2861.555	3787.6	2902.95
1012.8733	2862.6976	3824.5	2944.9
1012.9905	2863.8395	3849.85	2971.4
1013.1076	2864.9808	3883.55	3003.1
1013.2247	2866.1214	3897	3020.85
1013.3417	2867.2614	3914.15	3035.2
1013.4587	2868.4007	3931.35	3052.3
1013.5757	2869.5393	3933.65	3054.25
1013.6926	2870.6773	3952.6	3070.55
1013.8095	2871.8146	3959.35	3078.55
1013.9263	2872.9513	3966.7	3083.75
1014.0431	2874.0874	3956.5	3076.2
1014.1599	2875.2227	3933.4	3054.8
1014.2766	2876.3574	3931.35	3050.7
1014.3933	2877.4915	3893.7	3016.25
1014.51	2878.6249	3884.55	3005.7
1014.6266	2879.7577	3854.35	2975.35
1014.7431	2880.8898	3838.5	2950.85
1014.8596	2882.0212	3803.7	2925.8
1014.9761	2883.152	3798.25	2918.9
1015.0925	2884.2821	3783	2906.2
1015.2089	2885.4116	3770.6	2891.35
1015.3253	2886.5405	3761.15	2882.55
1015.4416	2887.6686	3768.3	2885.15
1015.5579	2888.7962	3782.85	2908.1
1015.6741	2889.923	3785.9	2908.05
1015.7903	2891.0493	3799.3	2919.5
1015.9065	2892.1748	3802.85	2925.4
1016.0226	2893.2997	3829.15	2949.15
1016.1387	2894.424	3840.9	2962.25
1016.2547	2895.5476	3857.75	2978.8
1016.3707	2896.6706	3882.75	3002.6
1016.4866	2897.7929	3896.25	3016.2
1016.6025	2898.9145	3942.25	3063.7
1016.7184	2900.0355	3955.7	3074.7
1016.8342	2901.1559	3986.5	3106.45
1016.95	2902.2756	4016.85	3138.65
1017.0658	2903.3946	4058.85	3182.3
1017.1815	2904.513	4086.6	3204.35
1017.2971	2905.6308	4103	3225.65
1017.4127	2906.7479	4134.4	3255.25
1017.5283	2907.8643	4155.25	3275
1017.6439	2908.9801	4164.95	3287.05
1017.7594	2910.0953	4159.3	3283.5
1017.8748	2911.2098	4167.65	3286.65
1017.9902	2912.3236	4168.75	3282.6
1018.1056	2913.4368	4146.25	3265.15
1018.2209	2914.5494	4118.8	3239.3
1018.3362	2915.6613	4108.55	3226.05
1018.4515	2916.7725	4071.25	3191.35
1018.5667	2917.8831	4045.9	3165.5
1018.6819	2918.9931	4014.65	3132.6
1018.797	2920.1024	3980.2	3101.7
1018.9121	2921.211	3959.45	3082.6
1019.0271	2922.319	3936.75	3057.55
1019.1421	2923.4264	3938.7	3060.3
1019.2571	2924.5331	3897.65	3018.8
1019.372	2925.6391	3894.15	3018.75
1019.4869	2926.7445	3892.5	3015
1019.6017	2927.8493	3879.65	3000.55
1019.7165	2928.9534	3879.25	2999.6
1019.8313	2930.0569	3861.1	2979.55
1019.946	2931.1597	3867.15	2986.75
1020.0606	2932.2619	3848.9	2970.85
1020.1753	2933.3634	3854	2974
1020.2899	2934.4643	3849.55	2965.3
1020.4044	2935.5645	3840.5	2956.05
1020.5189	2936.6641	3791.95	2910.05
1020.6334	2937.763	3739.7	2864.7
1020.7478	2938.8613	3690.15	2811.35
1020.8622	2939.959	3630.65	2746.55
1020.9765	2941.056	3558.85	2681.85
1021.0908	2942.1523	3484.8	2605
1021.2051	2943.248	3393.9	2516.9
1021.3193	2944.3431	3310.85	2432.7
1021.4334	2945.4375	3198.3	2318.85
1021.5476	2946.5313	3101.3	2224.85
1021.6617	2947.6244	2987.25	2109.25
1021.7757	2948.7169	2886.45	2008.85
1021.8897	2949.8087	2797.5	1920
1022.0037	2950.8999	2702.35	1824.2
1022.1176	2951.9904	2622.7	1745.3
1022.2315	2953.0803	2558.5	1677.9
1022.3453	2954.1696	2484.85	1605.95
1022.4591	2955.2582	2434.2	1557.4
1022.5728	2956.3462	2394.4	1514.35
1022.6865	2957.4335	2351.4	1474.15
1022.8002	2958.5202	2322.45	1444.75
1022.9138	2959.6062	2287	1411.65
1023.0274	2960.6916	2253.7	1376.25
1023.141	2961.7764	2241.25	1362.35
1023.2545	2962.8605	2222.05	1345.5
1023.3679	2963.9439	2217.15	1338.85
1023.4813	2965.0267	2195.5	1319.1
1023.5947	2966.1089	2219.6	1320.15
1023.708	2967.1905	2178.7	1302.85
1023.8213	2968.2714	2159.5	1282.6
1023.9346	2969.3516	2173.8	1294.75
1024.0478	2970.4312	2184.05	1299.45
1024.1609	2971.5102	2178	1300.25
1024.274	2972.5885	2170.7	1291.6
1024.3871	2973.6662	2170.8	1289.9
1024.5002	2974.7432	2172.65	1296.6
1024.6132	2975.8196	2165.7	1287.3
1024.7261	2976.8954	2146.2	1268.7
1024.839	2977.9705	2133.65	1255.1
1024.9519	2979.045	2128.95	1251.95
1025.0647	2980.1188	2105.15	1226.8
1025.1775	2981.192	2090.95	1213.8
1025.2902	2982.2645	2071.95	1193.7
1025.4029	2983.3364	2040.05	1163.1
1025.5156	2984.4077	2008.1	1131.2
1025.6282	2985.4783	1981.05	1096.05
1025.7407	2986.5483	1949.2	1072.9
1025.8532	2987.6177	1914.9	1038.05
1025.9657	2988.6864	1882.85	1005.65
1026.0782	2989.7545	1848.5	969.5
1026.1906	2990.8219	1822.25	943.65
1026.3029	2991.8887	1779.75	900.15
1026.4152	2992.9548	1749.9	871.9
1026.5275	2994.0204	1717.55	841.55
1026.6397	2995.0852	1698.05	822.75
1026.7519	2996.1495	1662.6	783.85
1026.864	2997.2131	1639.8	762.95
1026.9761	2998.276	1614.95	738.25
1027.0882	2999.3383	1598.65	721.75
1027.2002	3000.4	1575.85	699.05
1027.3122	3001.4611	1568.65	690.15
1027.4241	3002.5215	1543.15	667.4
1027.536	3003.5812	1522.5	648
1027.6478	3004.6404	1508.95	631.4
1027.7596	3005.6989	1503.75	624.2
1027.8714	3006.7567	1498.55	621.1
1027.9831	3007.8139	1511.05	601.35
1028.0947	3008.8705	1477.85	601.4
1028.2064	3009.9264	1477.55	596.4
1028.3179	3010.9818	1467.35	591.3
1028.4295	3012.0364	1457.95	581.65
1028.541	3013.0905	1457.8	581
1028.6524	3014.1439	1452	573.55
1028.7638	3015.1966	1446.8	568.9
1028.8752	3016.2487	1446.1	569.15
1028.9865	3017.3002	1444.4	562.75
1029.0978	3018.3511	1441.05	565.7
1029.209	3019.4013	1434	558
1029.3202	3020.4509	1435.35	559.25
1029.4314	3021.4998	1437.9	561.9
1029.5425	3022.5481	1441.5	565.35
1029.6535	3023.5958	1440.7	563.6
1029.7645	3024.6428	1435.55	558.4
1029.8755	3025.6892	1438.8	561.6
1029.9864	3026.735	1440.65	565.65
1030.0973	3027.7802	1437.4	561.6
1030.2082	3028.8247	1442.55	568.35
1030.319	3029.8685	1445.1	569.3
1030.4297	3030.9118	1446.05	569.2
1030.5404	3031.9544	1452.05	575.05
1030.6511	3032.9963	1449.6	573.55
1030.7617	3034.0376	1455.4	576.8
1030.8723	3035.0783	1457.35	576.15
1030.9829	3036.1184	1470.75	593.45
1031.0934	3037.1578	1463.35	588.8
1031.2038	3038.1966	1466.45	589.8
1031.3142	3039.2348	1462.45	584.3
1031.4246	3040.2723	1471.4	588.95
1031.5349	3041.3092	1463.1	585.5
1031.6452	3042.3455	1466.25	588.4
1031.7554	3043.3811	1461.8	584.4
1031.8656	3044.4161	1455.9	578.05
1031.9758	3045.4505	1444.05	569.55
1032.0859	3046.4842	1452.15	575.25
1032.1959	3047.5173	1438.95	563
1032.3059	3048.5498	1432.55	555.45
1032.4159	3049.5816	1430.55	554.3
1032.5258	3050.6128	1422	546.1
1032.6357	3051.6434	1420.95	544.55
1032.7455	3052.6734	1419.2	542.2
1032.8553	3053.7027	1402.4	524.8
1032.9651	3054.7314	1400.8	523.8
1033.0748	3055.7594	1391.9	516.4
1033.1845	3056.7868	1382.25	504.05
1033.2941	3057.8136	1383.05	508.2
1033.4037	3058.8398	1378.55	502.65
1033.5132	3059.8653	1375.15	497.45
1033.6227	3060.8902	1359.75	484.2
1033.7321	3061.9145	1353.35	475.75
1033.8415	3062.9381	1350.95	473.75
1033.9509	3063.9612	1369.6	479.05
1034.0602	3064.9835	1346.5	470.65
1034.1694	3066.0053	1336.1	458.5
1034.2787	3067.0264	1331.2	456.7
1034.3878	3068.0469	1326.25	449.6
1034.497	3069.0668	1322.55	443.65
1034.6061	3070.086	1308.3	432.75
1034.7151	3071.1046	1303	427.3
1034.8241	3072.1226	1292.65	416.35
1034.9331	3073.1399	1283.5	408.15
1035.042	3074.1567	1277.7	400.1
1035.1508	3075.1727	1265.6	387.5
1035.2597	3076.1882	1255.2	378.6
1035.3684	3077.203	1252.1	376.35
1035.4772	3078.2173	1237.65	359.35
1035.5859	3079.2308	1233.55	352.4
1035.6945	3080.2438	1231.15	353.8
1035.8031	3081.2561	1216.7	341.15
1035.9117	3082.2678	1212.6	337.15
1036.0202	3083.2789	1204.5	328
1036.1286	3084.2893	1198.05	323.05
1036.2371	3085.2991	1188.1	311.85
1036.3454	3086.3083	1184.75	304.55
1036.4538	3087.3169	1179.1	303.8
1036.562	3088.3248	1174.4	297.35
1036.6703	3089.3321	1169.25	293.05
1036.7785	3090.3388	1167	291.8
1036.8866	3091.3449	1161.85	284.9
1036.9948	3092.3503	1160.65	283.05
1037.1028	3093.3551	1153.35	279.7
1037.2108	3094.3593	1145.5	270.7
1037.3188	3095.3629	1143.05	270
1037.4267	3096.3658	1144.7	267.75
1037.5346	3097.3681	1141	267
1037.6425	3098.3698	1135.7	257.1
1037.7503	3099.3708	1140.3	258.45
1037.858	3100.3713	1129.9	255.1
1037.9657	3101.3711	1127.05	249.9
1038.0734	3102.3702	1262	243.55
1038.181	3103.3688	1125.75	249.6
1038.2886	3104.3667	1117.75	242.2
1038.3961	3105.364	1116.8	242.6
1038.5036	3106.3607	1116.15	240.05
1038.611	3107.3568	1111.55	235
1038.7184	3108.3522	1110.15	234.1
1038.8257	3109.347	1109.1	230.95
1038.933	3110.3412	1109	229.25
1039.0403	3111.3348	1103.35	227.2
1039.1475	3112.3277	1099.05	224.15
1039.2547	3113.32	1096.5	220.65
1039.3618	3114.3117	1094.8	218.85
1039.4689	3115.3028	1093.25	217.2
1039.5759	3116.2932	1096.7	219.7
1039.6829	3117.2831	1101.15	219.7
1039.7898	3118.2723	1095.05	219.65
1039.8967	3119.2608	1084.85	210.55
1040.0035	3120.2488	1082.4	206.7
1040.1103	3121.2361	1078.6	202.35
1040.2171	3122.2229	1080.15	206.95
1040.3238	3123.209	1082.1	206
1040.4305	3124.1944	1077.3	201.5
1040.5371	3125.1793	1081.75	205.6
1040.6437	3126.1635	1078.3	204
1040.7502	3127.1471	1074.4	200.25
1040.8567	3128.1301	1074.2	200.25
1040.9631	3129.1125	1071.2	195.25
1041.0695	3130.0942	1070.15	195.25
1041.1759	3131.0753	1075.05	192
1041.2822	3132.0558	1071.4	193.55
1041.3884	3133.0357	1073.35	196.45
1041.4946	3134.015	1062.45	186.65
1041.6008	3134.9936	1066	189.8
1041.7069	3135.9716	1081.25	185.5
1041.813	3136.949	1060.6	186.35
1041.919	3137.9258	1078.5	184.8
1042.025	3138.902	1065.5	186.85
1042.1309	3139.8775	1056.5	181.85
1042.2368	3140.8524	1053.6	179.45
1042.3427	3141.8267	1059.55	181.7
1042.4485	3142.8004	1053.9	176.75
1042.5542	3143.7735	1061.35	179.4
1042.6599	3144.7459	1052.1	176.05
1042.7656	3145.7178	1049.85	173.3
1042.8712	3146.689	1051.2	177.2
1042.9768	3147.6596	1048.75	172.05
1043.0823	3148.6295	1047.55	171.95
1043.1878	3149.5989	1044.5	169.85
1043.2932	3150.5676	1043.8	169.3
1043.3986	3151.5357	1038.5	164.75
1043.5039	3152.5032	1038.65	163.8
1043.6092	3153.4701	1038.9	164.3
1043.7145	3154.4364	1040.85	164.1
1043.8197	3155.402	1035	160.2
1043.9248	3156.367	1035.75	160.45
1044.03	3157.3315	1061.25	158.85
1044.135	3158.2952	1030.8	157.2
1044.24	3159.2584	1034.3	159.85
1044.345	3160.221	1028.75	151.15
1044.4499	3161.1829	1027.3	152.7
1044.5548	3162.1442	1028.4	153.15
1044.6596	3163.105	1025.85	151.95
1044.7644	3164.065	1028.7	154.65
1044.8692	3165.0245	1027.65	150.15
1044.9739	3165.9834	1023.95	151.9
1045.0785	3166.9416	1027.85	155.6
1045.1831	3167.8993	1020.1	144.95
1045.2877	3168.8563	1023.45	148.45
1045.3922	3169.8127	1019.45	143.75
1045.4966	3170.7684	1018.15	143.4
1045.6011	3171.7236	1020.55	144.95
1045.7054	3172.6782	1018.3	145
1045.8098	3173.6321	1020.85	145.65
1045.914	3174.5854	1021.7	142.85
1046.0183	3175.5381	1010.9	135.6
1046.1224	3176.4902	1016.15	140.85
1046.2266	3177.4417	1014.25	139.2
1046.3307	3178.3926	1014.3	139.75
1046.4347	3179.3428	1014.55	142.9
1046.5387	3180.2924	1011.8	140.95
1046.6427	3181.2415	1009.95	135.75
1046.7466	3182.1899	1013.05	137.65
1046.8504	3183.1377	1009.45	134.5
1046.9542	3184.0848	1008.8	131.3
1047.058	3185.0314	1008.8	132.9
1047.1617	3185.9773	1006	129.3
1047.2654	3186.9227	1006.45	130.45
1047.369	3187.8674	1002.2	128.15
1047.4726	3188.8115	1006.65	125.95
1047.5761	3189.755	1003.85	129.55
1047.6796	3190.6979	998.1	124.1
1047.783	3191.6402	1004.5	130.95
1047.8864	3192.5818	998.85	125.2
1047.9898	3193.5229	1005.7	126.45
1048.0931	3194.4633	997.95	124.55
1048.1963	3195.4031	1001.25	126.55
1048.2995	3196.3423	998.75	123.05
1048.4027	3197.2809	996.95	121.5
1048.5058	3198.2189	997.05	120.95
1048.6089	3199.1563	1010.75	122.3
1048.7119	3200.0931	994.55	123.3
1048.8148	3201.0292	993.6	120.6
1048.9178	3201.9648	991.75	117.9
1049.0206	3202.8997	996.6	118.25
1049.1235	3203.834	994.45	119.8
1049.2262	3204.7677	986.95	112.1
1049.329	3205.7008	991.8	114.2
1049.4317	3206.6333	991	120.05
1049.5343	3207.5652	991.4	116.55
1049.6369	3208.4964	989.6	116.35
1049.7394	3209.4271	987.1	113.3
1049.8419	3210.3571	985.65	110.85
1049.9444	3211.2865	989.2	113.45
1050.0468	3212.2154	988.8	114
1050.1491	3213.1436	989.4	112.6
1050.2514	3214.0712	991.25	111.05
1050.3537	3214.9982	985.4	111.15
1050.4559	3215.9246	983.15	109.2
1050.5581	3216.8503	981.05	107.85
1050.6602	3217.7755	984.95	110.9
1050.7623	3218.7001	982.85	108.55
1050.8643	3219.624	985.15	112.3
1050.9663	3220.5473	980.5	105.9
1051.0682	3221.4701	980.35	106.75
1051.1701	3222.3922	984.1	108.9
1051.2719	3223.3137	979	104.05
1051.3737	3224.2346	979.55	103.8
1051.4754	3225.1549	978.65	104.85
1051.5771	3226.0746	975.75	101.8
1051.6788	3226.9937	974.1	99.35
1051.7804	3227.9121	977.35	105.1
1051.8819	3228.83	975.6	101.95
1051.9834	3229.7473	980.35	105.75
1052.0849	3230.6639	974.35	101.15
1052.1863	3231.5799	972.05	98.3
1052.2876	3232.4954	977.2	102.5
1052.3889	3233.4102	976.65	102.75
1052.4902	3234.3244	974.85	101.6
1052.5914	3235.238	976.95	102.95
1052.6926	3236.151	993.8	93.5
1052.7937	3237.0634	967.9	96.25
1052.8948	3237.9752	968.45	94.4
1052.9958	3238.8864	967.75	93.35
1053.0968	3239.797	970	97.35
1053.1977	3240.7069	968.9	94.4
1053.2986	3241.6163	970	93.1
1053.3994	3242.5251	967.05	96.2
1053.5002	3243.4332	964.35	91.95
1053.6009	3244.3408	966.8	93.1
1053.7016	3245.2477	963.65	90.6
1053.8022	3246.154	966.1	91.55
1053.9028	3247.0598	963.45	88.95
1054.0034	3247.9649	964.15	89.95
1054.1039	3248.8694	958.9	85.9
1054.2043	3249.7733	963.15	90.6
1054.3047	3250.6766	960.9	87
1054.4051	3251.5793	961.9	87.3
1054.5054	3252.4814	956.65	82
1054.6056	3253.3829	963.25	90.3
1054.7058	3254.2838	957.55	84.4
1054.806	3255.1841	955.85	82.45
1054.9061	3256.0838	956.6	81.3
1055.0061	3256.9829	952.75	79.35
1055.1062	3257.8814	957.85	82.7
1055.2061	3258.7792	955.25	80.85
1055.306	3259.6765	955.7	80.8
1055.4059	3260.5731	951.35	77.2
1055.5057	3261.4692	951.3	75.85
1055.6055	3262.3647	947.35	73.95
1055.7052	3263.2595	947.65	75.8
1055.8049	3264.1538	949.15	75.3
1055.9045	3265.0474	947.35	71.95
1056.0041	3265.9404	942.65	71.2
1056.1036	3266.8329	943.9	69.4
1056.2031	3267.7247	955	72.75
1056.3025	3268.616	938.3	66.8
1056.4019	3269.5066	941.65	67.65
1056.5013	3270.3966	939.85	62.65
1056.6005	3271.286	931.45	59.8
