Software Version:	3.9.2.0
Unit SN:	10000200
Spectrometer SN:	6960
Date:	3/8/2024 2:01:59 PM
Data Line Index:	25
Spectral Points:	2048
Integration time (ms):	125
Averages:	20
Delay (ms):	30000
Sequence Number:	1
Processing:	dark subtract
Laser Power (mW):	300
Laser Current (mA):	825
Laser Diode Temp (C):	25
Laser Case Temp (C):	26.2
System Temp (C):	26.2
Spectrometer Temp (C):	24.2
CCD Temp (C):	0.004
Secondary Temp (C):	20.01
Heatsink Temp (C):	20.428
CCDPCB Temp (C):	36.029
SecondaryPCB Temp (C):	30.26

Wavelength	RamanShift	Raw Counts	Dark Subtracted
787.061	30.1047	461.5	55.95
787.2016	32.3739	463.9	60.5
787.3422	34.6426	466.85	61.65
787.4828	36.9109	477.35	71.15
787.6235	39.1787	484.7	72.15
787.7642	41.4461	492.6	77.45
787.9049	43.7131	504.95	85.85
788.0456	45.9796	511.9	89.85
788.1863	48.2456	525.1	99.1
788.3271	50.5112	532.45	100.4
788.4679	52.7764	544.35	109.2
788.6087	55.0411	552.75	115.1
788.7496	57.3054	569	123.35
788.8904	59.5692	575.7	129.75
789.0313	61.8326	588.15	140.4
789.1722	64.0955	597.9	146.45
789.3132	66.3579	617.45	162.1
789.4541	68.6199	641.8	180.95
789.5951	70.8815	674.5	209.65
789.7361	73.1426	761.25	293.35
789.8771	75.4032	978.05	504.7
790.0181	77.6634	1505.9	1027.85
790.1592	79.9231	2743.05	2257.6
790.3003	82.1824	5452.85	4950.7
790.4414	84.4412	10326.9	9794.4
790.5825	86.6995	16994.75	16426.15
790.7237	88.9574	23525.9	22922.05
790.8648	91.2148	28034.7	27409.8
791.006	93.4717	30154.25	29516.9
791.1472	95.7282	30649.25	30007.65
791.2885	97.9842	30587.7	29940.6
791.4297	100.2398	30090.4	29437.9
791.571	102.4949	29520.75	28863.45
791.7123	104.7495	28778.25	28122.8
791.8536	107.0036	28008	27353.3
791.9949	109.2573	27231.2	26573.5
792.1363	111.5105	26541.4	25879.6
792.2777	113.7632	25805.45	25146.15
792.4191	116.0154	25224.8	24551.4
792.5605	118.2672	24780.7	24113.7
792.7019	120.5185	24331.35	23659.85
792.8434	122.7693	23963.75	23290.1
792.9849	125.0197	23656.85	22980.2
793.1264	127.2696	23390.4	22710.55
793.2679	129.519	23274.75	22588.55
793.4094	131.7679	23076	22386.35
793.551	134.0163	22944.5	22254.35
793.6926	136.2642	22726.65	22030.85
793.8342	138.5117	22558.95	21863.9
793.9758	140.7587	22364.2	21669.75
794.1175	143.0052	22148.3	21443.25
794.2591	145.2512	21923.05	21223.5
794.4008	147.4967	21691.4	20989.4
794.5425	149.7417	21561.15	20858.25
794.6842	151.9863	21442.5	20734.35
794.826	154.2304	21386.7	20676.5
794.9677	156.4739	21256.25	20535.45
795.1095	158.717	21220.85	20500.15
795.2513	160.9596	21078.3	20354.75
795.3931	163.2017	20849.4	20126
795.535	165.4433	20586.05	19856.15
795.6768	167.6844	20248.8	19523.95
795.8187	169.925	19970.95	19241.8
795.9606	172.1651	19584.65	18854.9
796.1025	174.4047	19320.85	18588.05
796.2445	176.6439	19068.3	18332.8
796.3864	178.8825	18850.85	18109.15
796.5284	181.1206	18705	17959.05
796.6704	183.3582	18539.6	17789.45
796.8124	185.5954	18446.75	17699.25
796.9544	187.832	18379.45	17624.3
797.0965	190.0681	18333.95	17576.25
797.2386	192.3037	18341.15	17577.45
797.3806	194.5388	18355.85	17591.4
797.5228	196.7734	18425.75	17662.3
797.6649	199.0075	18507.85	17739.8
797.807	201.2411	18675.75	17905.55
797.9492	203.4742	18735.55	17964.6
798.0914	205.7068	18923.75	18149.3
798.2336	207.9389	19037.3	18259.05
798.3758	210.1704	19180.85	18415.3
798.518	212.4015	19311.3	18553.15
798.6603	214.632	19488.85	18734.9
798.8025	216.862	19691.45	18937.35
798.9448	219.0915	19879.65	19127.15
799.0871	221.3205	20119.65	19359.3
799.2294	223.549	20394.7	19640.1
799.3718	225.777	20705.1	19952.15
799.5141	228.0044	21103.7	20343.2
799.6565	230.2314	21574.55	20813.55
799.7989	232.4578	21987.65	21222
799.9413	234.6837	22318.1	21544.85
800.0837	236.909	22626.65	21852.3
800.2262	239.1339	22626.6	21826.05
800.3687	241.3582	22434.3	21647.45
800.5111	243.582	22132.25	21317.7
800.6536	245.8053	21783.1	20982.05
800.7961	248.0281	21465	20667.4
800.9387	250.2503	21195.8	20396.2
801.0812	252.472	21073.25	20269.05
801.2238	254.6932	20998.3	20196.2
801.3664	256.9139	20965.5	20161.9
801.509	259.134	20945.85	20137.75
801.6516	261.3536	20944.95	20137.95
801.7942	263.5727	21024.25	20216.1
801.9369	265.7912	20971.65	20164.45
802.0795	268.0092	21041.95	20236.65
802.2222	270.2267	21004.45	20195.95
802.3649	272.4436	20973.95	20165.95
802.5076	274.6601	20915.75	20094.85
802.6504	276.8759	20842.65	20029.4
802.7931	279.0913	20863.1	20051.65
802.9359	281.3061	20846.8	20032.5
803.0787	283.5204	20919.9	20096.1
803.2215	285.7341	21030.6	20203.75
803.3643	287.9473	21166.75	20330.15
803.5071	290.16	21430.5	20602.7
803.6499	292.3721	21734.65	20913.1
803.7928	294.5837	22159.4	21338.5
803.9357	296.7947	22512.1	21691.55
804.0786	299.0052	22732.45	21909.25
804.2215	301.2152	22621.45	21794.75
804.3644	303.4246	22274.1	21456.3
804.5074	305.6334	21782.55	20961.75
804.6503	307.8418	21266.4	20440.9
804.7933	310.0495	20882.1	20057.3
804.9363	312.2568	20561.3	19733.55
805.0793	314.4635	20330.35	19501.55
805.2223	316.6696	20239.55	19408.25
805.3653	318.8752	20225.9	19387.25
805.5084	321.0802	20285.2	19448.85
805.6514	323.2847	20399.85	19563.8
805.7945	325.4887	20458.45	19621.45
805.9376	327.692	20420.3	19581.2
806.0807	329.8949	20364.1	19523.7
806.2238	332.0972	20099.1	19262.6
806.367	334.2989	19810.95	18968.85
806.5101	336.5001	19547.75	18706.6
806.6533	338.7007	19361.95	18520.4
806.7965	340.9008	19269	18423.55
806.9397	343.1003	19110.4	18264.7
807.0829	345.2992	19092.55	18241.85
807.2261	347.4976	19096.45	18246.65
807.3693	349.6955	19069.45	18216.2
807.5126	351.8927	19161.45	18302.9
807.6559	354.0895	19182.05	18320.1
807.7991	356.2856	19212.6	18352.7
807.9424	358.4812	19242.3	18385.75
808.0857	360.6763	19287.9	18429
808.2291	362.8707	19290.2	18430.45
808.3724	365.0646	19335.2	18472.85
808.5158	367.258	19312.9	18448.4
808.6591	369.4508	19400.05	18532.85
808.8025	371.643	19450.75	18585.25
808.9459	373.8346	19451.65	18582
809.0893	376.0257	19457.3	18582.25
809.2327	378.2162	19367.95	18498.55
809.3762	380.4062	19298.8	18428.6
809.5196	382.5956	19171.85	18307.1
809.6631	384.7844	19075.45	18215.95
809.8066	386.9726	18968.65	18113.4
809.9501	389.1603	18955.2	18099.95
810.0936	391.3474	18951.05	18057.15
810.2371	393.5339	18904.55	18041.45
810.3806	395.7199	18851.7	17991
810.5241	397.9052	18913.6	18055.45
810.6677	400.09	18920.5	18058.55
810.8113	402.2743	18993.5	18132.7
810.9548	404.4579	19046	18185.05
811.0984	406.641	19280.75	18411.65
811.2421	408.8235	19478.05	18615.15
811.3857	411.0054	19826.2	18956.3
811.5293	413.1868	20262.25	19389.25
811.673	415.3675	20572.6	19694.15
811.8166	417.5477	20794.4	19918.95
811.9603	419.7273	20854.8	19975.1
812.104	421.9064	20791.55	19908.4
812.2477	424.0848	20658.1	19783.4
812.3914	426.2627	20456.75	19580.2
812.5351	428.4399	20159.95	19282.45
812.6788	430.6166	19816.3	18936.15
812.8226	432.7928	19473.25	18591.95
812.9663	434.9683	19164.85	18286.6
813.1101	437.1432	18919.4	18041.4
813.2539	439.3176	18775.15	17902.2
813.3977	441.4914	18652.5	17788.05
813.5415	443.6645	18637.2	17765.5
813.6853	445.8371	18562	17685.15
813.8291	448.0091	18519.3	17643.45
813.973	450.1806	18510.7	17637.95
814.1168	452.3514	18406.55	17528.25
814.2607	454.5216	18471.85	17584.2
814.4046	456.6913	18387.5	17510.8
814.5485	458.8603	18443.8	17569.25
814.6924	461.0288	18501.4	17629.5
814.8363	463.1967	18544	17676.65
814.9802	465.3639	18681.6	17809.05
815.1241	467.5306	18785.3	17912.4
815.2681	469.6967	18942.4	18066.7
815.412	471.8622	19071.05	18201.7
815.556	474.0271	19264.1	18393.75
815.7	476.1914	19341.85	18464.95
815.844	478.3551	19336.25	18460.4
815.988	480.5182	19352.15	18478.65
816.132	482.6807	19319.85	18449.05
816.276	484.8426	19438.4	18575.4
816.4201	487.0039	19722.45	18855.15
816.5641	489.1647	20136.5	19254.35
816.7082	491.3248	20596.75	19716.4
816.8522	493.4843	20801.25	19928.45
816.9963	495.6432	20813.9	19940.4
817.1404	497.8015	20727.4	19845.15
817.2845	499.9592	20761.4	19873.55
817.4286	502.1163	20719.1	19827.3
817.5727	504.2728	20533	19648.8
817.7168	506.4287	20240.4	19366.3
817.861	508.5839	19794.55	18919.4
818.0051	510.7386	19458	18579.65
818.1493	512.8927	19285.5	18399.65
818.2935	515.0461	19197.95	18312.75
818.4377	517.199	19184.95	18293.5
818.5818	519.3512	19147.5	18257.85
818.726	521.5029	19257.9	18363.25
818.8703	523.6539	19340.95	18452.65
819.0145	525.8043	19408.35	18517.4
819.1587	527.9541	19441.9	18552.15
819.303	530.1033	19438.65	18546.6
819.4472	532.2519	19468.4	18577.35
819.5915	534.3999	19604.25	18710.3
819.7357	536.5472	19860.25	18970.5
819.88	538.694	20373.7	19489.25
820.0243	540.8401	20918.8	20027.6
820.1686	542.9856	21474.95	20575.95
820.3129	545.1305	21627	20721.3
820.4572	547.2748	21549.45	20637.25
820.6016	549.4185	21220.75	20312.85
820.7459	551.5615	20869	19963.95
820.8902	553.704	20711.55	19807.15
821.0346	555.8458	20682.7	19785.35
821.1789	557.987	20712.65	19813.3
821.3233	560.1276	20644.85	19745.75
821.4677	562.2675	20724	19822.05
821.6121	564.4069	20739.6	19836.95
821.7565	566.5456	20763.1	19861.2
821.9009	568.6837	20693.45	19796
822.0453	570.8212	20433.6	19534.25
822.1897	572.958	20096	19194.9
822.3342	575.0942	19847.6	18949.3
822.4786	577.2299	19656.4	18764.15
822.6231	579.3648	19633.45	18752.3
822.7675	581.4992	19666.3	18791.5
822.912	583.6329	19859.35	18987
823.0565	585.766	20097.4	19221.05
823.201	587.8985	20253.95	19371.4
823.3454	590.0304	20317.55	19413.5
823.4899	592.1616	20229.9	19330.9
823.6345	594.2922	20149.8	19244.95
823.779	596.4222	19992.45	19085.45
823.9235	598.5515	19857.8	18949.85
824.068	600.6802	19703.85	18798.85
824.2126	602.8083	19499.95	18596.55
824.3571	604.9358	19464.9	18559.45
824.5017	607.0626	19389.6	18482.6
824.6462	609.1888	19375.7	18460.5
824.7908	611.3144	19359.85	18444.5
824.9354	613.4393	19281.2	18370.4
825.08	615.5636	19186.7	18272.65
825.2246	617.6873	19092.95	18181.45
825.3692	619.8103	19053.2	18141.65
825.5138	621.9327	18959.7	18051
825.6584	624.0544	18937.25	18034.65
825.803	626.1756	18905.2	18002.7
825.9477	628.2961	18921.1	18011.35
826.0923	630.4159	18866.25	17956.3
826.237	632.5351	18826.1	17912.55
826.3816	634.6537	18754.05	17840.2
826.5263	636.7716	18789.25	17872.75
826.6709	638.8889	18780.65	17859.6
826.8156	641.0056	18857.05	17935.15
826.9603	643.1216	18803.55	17881.2
827.105	645.237	18890.35	17968.35
827.2497	647.3518	18908.85	18000.15
827.3944	649.4659	18903.85	17998.45
827.5391	651.5793	18921.75	18017.15
827.6838	653.6922	18900.7	17997.9
827.8285	655.8043	18889.45	17980.2
827.9733	657.9159	18892.5	17982.15
828.118	660.0268	18843.1	17932.95
828.2627	662.137	18825.15	17911.05
828.4075	664.2466	18787.35	17868.9
828.5522	666.3556	18785.3	17866.1
828.697	668.4639	18781.75	17868.4
828.8418	670.5716	18850.3	17942.55
828.9865	672.6786	18947.65	18032.95
829.1313	674.785	18966.1	18043.1
829.2761	676.8907	19049.35	18136.1
829.4209	678.9958	19150.9	18238.5
829.5657	681.1002	19126.85	18211.75
829.7105	683.204	19149.1	18226.25
829.8553	685.3072	19092.95	18172.1
830.0001	687.4097	19030.6	18109.95
830.1449	689.5115	19003.1	18078.35
830.2898	691.6127	19002.85	18088.15
830.4346	693.7132	18907.8	17994.55
830.5794	695.8131	18896.85	17960
830.7243	697.9123	18876.35	17953.2
830.8691	700.0109	18880.8	17959.85
831.014	702.1089	18870.25	17946.45
831.1588	704.2061	18881.6	17960.35
831.3037	706.3028	18933.35	18010.55
831.4486	708.3987	19013.6	18090.05
831.5935	710.4941	19081.5	18157.25
831.7383	712.5887	19273.5	18356.7
831.8832	714.6827	19558.25	18634.85
832.0281	716.7761	19905.3	18989.75
832.173	718.8688	20264.05	19342.9
832.3179	720.9608	20513.85	19582.7
832.4628	723.0522	20616.3	19679.7
832.6077	725.1429	20479.55	19549.6
832.7527	727.233	20200.25	19271.65
832.8976	729.3224	19994.4	19070.35
833.0425	731.4112	19714.25	18786.8
833.1874	733.4993	19465.4	18541.15
833.3324	735.5867	19299.55	18378.1
833.4773	737.6735	19259.5	18331.65
833.6222	739.7596	19177.4	18246.6
833.7672	741.845	19121.4	18197.1
833.9122	743.9298	19123.9	18199.55
834.0571	746.014	19135.65	18210.3
834.2021	748.0974	19163.85	18230.85
834.347	750.1802	19122.1	18192.75
834.492	752.2624	19138.9	18208.8
834.637	754.3439	19187.7	18252.25
834.782	756.4247	19274.4	18333.25
834.9269	758.5048	19379.2	18444.35
835.0719	760.5843	19616.7	18683.5
835.2169	762.6631	19903.1	18967.5
835.3619	764.7413	20367.5	19437.45
835.5069	766.8188	20939.8	20007.75
835.6519	768.8956	21429.05	20496.8
835.7969	770.9718	21749.6	20818.5
835.9419	773.0473	21589.15	20658.75
836.0869	775.1221	21340.65	20412.7
836.232	777.1962	20958.85	20026.05
836.377	779.2697	20733.6	19801.05
836.522	781.3426	20822.25	19871.75
836.667	783.4147	21052.45	20116.85
836.8121	785.4862	21390.5	20459.2
836.9571	787.557	21423.45	20485.35
837.1021	789.6271	21087.95	20151.75
837.2472	791.6966	20555.4	19622.1
837.3922	793.7654	20027.65	19094.1
837.5373	795.8335	19737.15	18804.55
837.6823	797.901	19536.3	18604
837.8274	799.9678	19476.5	18535.95
837.9724	802.0339	19479.2	18539.5
838.1175	804.0993	19535.35	18589.5
838.2626	806.1641	19535	18595.15
838.4076	808.2282	19489.25	18555.35
838.5527	810.2916	19398.7	18465.1
838.6978	812.3544	19323.55	18387.25
838.8428	814.4164	19252.3	18318
838.9879	816.4778	19310.9	18375.95
839.133	818.5385	19281.2	18341.5
839.2781	820.5986	19370.85	18432.2
839.4232	822.658	19476.1	18539.45
839.5682	824.7166	19564.4	18629.55
839.7133	826.7747	19852.45	18914.15
839.8584	828.832	20034.1	19095.95
840.0035	830.8886	20157.45	19215.25
840.1486	832.9446	20314.95	19373.25
840.2937	834.9999	20361.55	19425.85
840.4388	837.0545	20391.05	19450.2
840.5839	839.1085	20431.7	19490.95
840.729	841.1618	20405	19462.2
840.8741	843.2143	20314.45	19373.95
841.0192	845.2662	20257.4	19316.35
841.1643	847.3175	20185.9	19245.6
841.3095	849.368	20135.5	19195.3
841.4546	851.4179	20005.9	19064.8
841.5997	853.467	19848.35	18909.3
841.7448	855.5155	19786.2	18846.75
841.8899	857.5633	19693.75	18753.4
842.0351	859.6105	19607.9	18668.65
842.1802	861.6569	19542.35	18600.75
842.3253	863.7027	19488.1	18545.6
842.4704	865.7478	19470.7	18524.8
842.6156	867.7922	19491.1	18549.45
842.7607	869.8359	19566.65	18625.3
842.9058	871.8789	19684.4	18742.25
843.0509	873.9212	19896.95	18920.1
843.1961	875.9629	19980.6	19036.85
843.3412	878.0039	20223.9	19282.3
843.4863	880.0441	20320.75	19381.9
843.6315	882.0837	20359.7	19417.7
843.7766	884.1226	20305.75	19366.05
843.9218	886.1609	20183.45	19239.5
844.0669	888.1984	20145	19202.7
844.212	890.2352	20219.85	19281.5
844.3572	892.2714	20110.35	19162.2
844.5023	894.3069	20120.3	19176.55
844.6475	896.3416	20032.9	19090.3
844.7926	898.3757	20010.65	19071.7
844.9377	900.4091	20015.85	19069.35
845.0829	902.4418	20029.3	19082.65
845.228	904.4739	20032.8	19083.05
845.3732	906.5052	20039.8	19091.15
845.5183	908.5358	19946.55	18998.05
845.6635	910.5658	19804.95	18857.5
845.8086	912.595	19673.7	18727.5
845.9538	914.6236	19555.15	18610.6
846.0989	916.6515	19495.45	18550.35
846.2441	918.6786	19487.35	18537.95
846.3892	920.7051	19541.15	18588.3
846.5344	922.7309	19726.85	18778.85
846.6795	924.756	19748.15	18805.15
846.8246	926.7804	19867.05	18921.15
846.9698	928.8041	19768.35	18823.2
847.1149	930.8272	19828.3	18882.1
847.2601	932.8495	19777.2	18831.8
847.4052	934.8711	19738	18792.25
847.5504	936.892	19590.5	18643.35
847.6955	938.9123	19443.65	18494.95
847.8407	940.9318	19338.35	18396.85
847.9858	942.9506	19229.4	18286.4
848.131	944.9688	19155.95	18214.3
848.2761	946.9862	19083.3	18135.15
848.4213	949.003	19007.85	18061.45
848.5664	951.019	19009.45	18062
848.7115	953.0344	19011.9	18064.4
848.8567	955.0491	19052	18104.05
849.0018	957.063	19130.8	18187.3
849.147	959.0763	19291.55	18346.75
849.2921	961.0888	19366.45	18423.65
849.4373	963.1007	19428.25	18485.55
849.5824	965.1119	19456.05	18523.45
849.7275	967.1223	19489.75	18559.4
849.8727	969.1321	19543.2	18612.45
850.0178	971.1412	19578.2	18641.25
850.1629	973.1495	19632.65	18691.05
850.3081	975.1572	19686.1	18685.8
850.4532	977.1641	19719.6	18777.2
850.5983	979.1704	19683.4	18736.25
850.7435	981.1759	19691.7	18739.2
850.8886	983.1808	19737.15	18788.95
851.0337	985.1849	19833.7	18875.6
851.1788	987.1884	19979.55	19032.75
851.324	989.1911	20155.15	19211
851.4691	991.1932	20242.65	19296.55
851.6142	993.1945	20308.1	19366.75
851.7593	995.1951	20249.05	19304.3
851.9045	997.1951	20241.6	19285.7
852.0496	999.1943	20098.85	19149.9
852.1947	1001.1928	20101.35	19155.3
852.3398	1003.1906	20105.45	19161.35
852.4849	1005.1877	20168	19222.5
852.63	1007.1841	20123.4	19177.65
852.7751	1009.1798	20062.05	19120.25
852.9202	1011.1748	19873.5	18928.4
853.0653	1013.1691	19668.1	18721.4
853.2104	1015.1627	19453.95	18509
853.3555	1017.1556	19227.8	18288.65
853.5006	1019.1477	19144.7	18203.95
853.6457	1021.1392	18995.2	18059.05
853.7908	1023.1299	19002.25	18068.4
853.9359	1025.12	19022.85	18094.35
854.081	1027.1093	19060.2	18144.7
854.2261	1029.0979	19121.75	18206.95
854.3712	1031.0859	19206.9	18286.55
854.5163	1033.0731	19178.4	18244.8
854.6613	1035.0596	19125.1	18190.95
854.8064	1037.0454	18966.7	18023
854.9515	1039.0304	18863.3	17917.8
855.0965	1041.0148	18707.05	17762.55
855.2416	1042.9985	18620.25	17676.3
855.3867	1044.9814	18603.8	17659.85
855.5317	1046.9636	18543.8	17602.05
855.6768	1048.9452	18524.8	17583.4
855.8219	1050.926	18534.15	17592.6
855.9669	1052.9061	18547.4	17604
856.112	1054.8855	18521.4	17575.65
856.257	1056.8642	18575.5	17631.65
856.4021	1058.8421	18654.65	17705.3
856.5471	1060.8194	18641.85	17697.35
856.6921	1062.7959	18695.9	17753
856.8372	1064.7717	18704.4	17756.65
856.9822	1066.7469	18750.6	17805.2
857.1272	1068.7213	18732.2	17785.55
857.2723	1070.695	18746.25	17802.4
857.4173	1072.6679	18679.25	17735.65
857.5623	1074.6402	18654.05	17711
857.7073	1076.6117	18645.5	17695.5
857.8523	1078.5826	18620.35	17674.9
857.9973	1080.5527	18633.35	17686.2
858.1423	1082.5221	18698.5	17752.9
858.2873	1084.4908	18860.8	17912.6
858.4323	1086.4587	19065.7	18123.2
858.5773	1088.426	19193.35	18250.35
858.7223	1090.3925	19189.6	18239.75
858.8673	1092.3584	19181.75	18239.15
859.0123	1094.3235	18984.45	18041.3
859.1573	1096.2879	18977.15	18033.7
859.3022	1098.2515	18951.4	18005.65
859.4472	1100.2145	18972.95	18027.05
859.5922	1102.1767	19075.7	18125.85
859.7371	1104.1382	19251.7	18309.15
859.8821	1106.099	19484.05	18539.65
860.027	1108.0591	19675.65	18729.85
860.172	1110.0185	19807.65	18864.35
860.3169	1111.9771	19841.35	18898.75
860.4619	1113.9351	19612.8	18665.85
860.6068	1115.8923	19347.3	18406.45
860.7517	1117.8488	19048.75	18100.85
860.8967	1119.8045	18766.05	17821.8
861.0416	1121.7596	18645.7	17700.1
861.1865	1123.7139	18528.65	17589.45
861.3314	1125.6675	18542.7	17602.45
861.4763	1127.6204	18632.95	17692.1
861.6212	1129.5726	18616.5	17669.55
861.7661	1131.524	18629.5	17691.95
861.911	1133.4748	18581.75	17636.45
862.0559	1135.4248	18557.85	17614.8
862.2008	1137.3741	18531.05	17590.7
862.3457	1139.3226	18480.25	17535.4
862.4905	1141.2705	18516.25	17575.4
862.6354	1143.2176	18400.25	17449.8
862.7803	1145.164	18386.15	17439.05
862.9251	1147.1097	18373.95	17428.35
863.07	1149.0546	18408.6	17465.75
863.2148	1150.9989	18318.55	17377.4
863.3597	1152.9424	18210	17266.95
863.5045	1154.8852	18004.4	17059.85
863.6493	1156.8272	17886.3	16948.05
863.7942	1158.7686	17866.2	16917.6
863.939	1160.7092	17829.55	16888.8
864.0838	1162.6491	17790.45	16847.7
864.2286	1164.5883	17854.4	16915.7
864.3734	1166.5267	17936.65	16993.4
864.5182	1168.4644	18103.65	17161.3
864.663	1170.4014	18255.8	17314
864.8078	1172.3377	18515.25	17575.35
864.9526	1174.2732	18741	17802.8
865.0974	1176.2081	19008.65	18066.35
865.2421	1178.1421	19249.65	18300.05
865.3869	1180.0755	19471.1	18530.85
865.5317	1182.0082	19534.3	18596.2
865.6764	1183.9401	19559.3	18622.4
865.8212	1185.8713	19410.15	18477.55
865.9659	1187.8017	19165	18237.9
866.1106	1189.7315	18926.6	18007
866.2554	1191.6605	18603.5	17684.75
866.4001	1193.5888	18380.95	17453.9
866.5448	1195.5163	18311	17381.1
866.6895	1197.4432	18202.1	17267.95
866.8342	1199.3693	18154.25	17216.45
866.9789	1201.2947	18049.9	17104.85
867.1236	1203.2193	18046.45	17103.5
867.2683	1205.1432	18094.95	17155.6
867.413	1207.0664	18072.45	17130.45
867.5576	1208.9889	18078.2	17136.45
867.7023	1210.9106	18094.55	17157.5
867.847	1212.8316	18152	17217.2
867.9916	1214.7519	18195.55	17246.35
868.1363	1216.6715	18214.65	17274.3
868.2809	1218.5903	18217.4	17276.6
868.4255	1220.5084	18229.4	17293.4
868.5701	1222.4257	18188.7	17250.9
868.7148	1224.3424	18108.8	17173.4
868.8594	1226.2583	18162	17220.3
869.004	1228.1735	18241.15	17304.75
869.1486	1230.0879	18299.9	17362.7
869.2932	1232.0016	18441.65	17504.65
869.4377	1233.9146	18453.75	17515.35
869.5823	1235.8269	18392.55	17457.35
869.7269	1237.7384	18300.25	17363.1
869.8715	1239.6492	18083.5	17148.75
870.016	1241.5592	17974.45	17039.25
870.1606	1243.4686	17878.9	16942.65
870.3051	1245.3772	17860.4	16923.6
870.4496	1247.285	17819	16882.35
870.5941	1249.1922	17813.85	16877.85
870.7387	1251.0986	17774.8	16840.45
870.8832	1253.0042	17764.75	16828.8
871.0277	1254.9092	17817.7	16882.9
871.1722	1256.8134	17909.45	16975.1
871.3167	1258.7169	18010.45	17074.55
871.4611	1260.6196	18153.1	17219.5
871.6056	1262.5216	18348.8	17411.55
871.7501	1264.4229	18525.3	17592.05
871.8945	1266.3234	18664	17727.15
872.039	1268.2232	18710.45	17773.3
872.1834	1270.1223	18758.7	17823.05
872.3278	1272.0207	18729.4	17791.65
872.4723	1273.9183	18683.85	17741.65
872.6167	1275.8151	18607.5	17672.6
872.7611	1277.7113	18521.4	17589.15
872.9055	1279.6067	18429.3	17494.4
873.0499	1281.5014	18302.55	17363.55
873.1943	1283.3953	18292.5	17355.75
873.3386	1285.2885	18275.3	17341.45
873.483	1287.181	18297.05	17360
873.6274	1289.0727	18436.95	17504.5
873.7717	1290.9637	18493.9	17559.65
873.9161	1292.854	18610.1	17677.25
874.0604	1294.7435	18719.65	17788.35
874.2047	1296.6323	18866.1	17928.9
874.349	1298.5204	19099.8	18162.3
874.4933	1300.4077	19324.75	18386.6
874.6376	1302.2943	19462.25	18526.85
874.7819	1304.1802	19532	18599.75
874.9262	1306.0653	19385.15	18446.95
875.0705	1307.9497	19153.6	18220
875.2147	1309.8333	19020	18088.1
875.359	1311.7162	18942.05	18005.35
875.5032	1313.5984	18942.45	18008.4
875.6475	1315.4798	18971.2	18026.5
875.7917	1317.3605	19039.55	18088.8
875.9359	1319.2405	19052.8	18114.15
876.0801	1321.1197	19024.6	18086.15
876.2243	1322.9982	18875.1	17936.5
876.3685	1324.876	18804.25	17870.55
876.5127	1326.753	18692	17754.7
876.6569	1328.6293	18690.25	17753.9
876.801	1330.5048	18664.45	17726.15
876.9452	1332.3796	18601.35	17665.65
877.0893	1334.2537	18610.95	17653.55
877.2335	1336.127	18510.4	17574.6
877.3776	1337.9996	18448.6	17513.75
877.5217	1339.8714	18456.65	17519.45
877.6658	1341.7426	18426.9	17449.9
877.8099	1343.6129	18353.25	17419.25
877.954	1345.4826	18302.15	17367.4
878.0981	1347.3515	18269.95	17335.1
878.2422	1349.2196	18237.25	17302
878.3862	1351.087	18216.5	17282
878.5303	1352.9537	18252.2	17314.2
878.6743	1354.8197	18401.95	17467.3
878.8184	1356.6849	18531.65	17594
878.9624	1358.5493	18601.2	17666.35
879.1064	1360.4131	18631.6	17695.8
879.2504	1362.276	18574.4	17641.05
879.3944	1364.1383	18441.25	17510.55
879.5384	1365.9998	18205.95	17265.5
879.6823	1367.8606	17883.5	16948
879.8263	1369.7206	17579.85	16642.7
879.9702	1371.5799	17376.8	16437.45
880.1142	1373.4384	17201.05	16265.45
880.2581	1375.2962	17040.3	16104.75
880.402	1377.1533	16733.05	15801.05
880.5459	1379.0096	16398.3	15466.55
880.6898	1380.8652	16084.45	15157.25
880.8337	1382.7201	15851.45	14921.6
880.9776	1384.5742	15555.4	14622.25
881.1215	1386.4275	15412.4	14478.25
881.2653	1388.2802	15259.55	14325.8
881.4092	1390.132	15130.1	14198.65
881.553	1391.9832	15066.75	14132.35
881.6968	1393.8336	14968.9	14034
881.8406	1395.6832	14938.95	14005
881.9844	1397.5322	14861.5	13927.55
882.1282	1399.3803	14830.3	13892
882.272	1401.2278	14756.2	13824.35
882.4158	1403.0745	14775.2	13844.7
882.5595	1404.9204	14700.55	13769.2
882.7033	1406.7656	14703.35	13768.1
882.847	1408.6101	14682.45	13747.75
882.9908	1410.4538	14680.2	13747.95
883.1345	1412.2968	14730.45	13794.7
883.2782	1414.139	14712.4	13779
883.4219	1415.9805	14783.35	13853.4
883.5656	1417.8213	14862.6	13926.6
883.7092	1419.6613	14926.3	13994.3
883.8529	1421.5006	15110.55	14181.8
883.9965	1423.3391	15327.95	14393.9
884.1402	1425.1769	15660.6	14729.15
884.2838	1427.0139	16115.7	15185.75
884.4274	1428.8502	16692.55	15757.25
884.571	1430.6858	17217.05	16282.85
884.7146	1432.5206	17594.05	16663.55
884.8582	1434.3547	17874.95	16943.75
885.0018	1436.188	17902.55	16970.3
885.1453	1438.0206	17839.4	16909.25
885.2889	1439.8524	17683.45	16748.65
885.4324	1441.6835	17551.9	16619.45
885.5759	1443.5139	17455.55	16521.75
885.7194	1445.3435	17341.15	16411.7
885.8629	1447.1724	17311.7	16381.3
886.0064	1449.0005	17238.15	16310.95
886.1499	1450.8279	17111.4	16181.6
886.2933	1452.6545	17075.7	16145.95
886.4368	1454.4804	17084.45	16154.55
886.5802	1456.3056	17077.4	16142.85
886.7237	1458.13	16981	16053
886.8671	1459.9536	16744.3	15816.65
887.0105	1461.7766	16429.95	15499.75
887.1539	1463.5987	15984.3	15051.05
887.2972	1465.4202	15617.6	14686.6
887.4406	1467.2409	15218.55	14289.4
887.584	1469.0608	14965.95	14038.3
887.7273	1470.88	14716.55	13786.25
887.8706	1472.6984	14487.9	13559.3
888.0139	1474.5161	14216.65	13284.6
888.1572	1476.3331	14030.75	13101.6
888.3005	1478.1493	13905.4	12975.9
888.4438	1479.9648	13816.75	12890.1
888.5871	1481.7795	13711.9	12783.7
888.7303	1483.5935	13643.3	12712.7
888.8736	1485.4067	13567.95	12634.7
889.0168	1487.2192	13489.55	12557.9
889.16	1489.031	13455.85	12523.4
889.3032	1490.842	13379.8	12452.05
889.4464	1492.6522	13367.3	12438.35
889.5896	1494.4618	13294.25	12363.9
889.7327	1496.2705	13248.85	12319.35
889.8759	1498.0785	13215.1	12286.75
890.019	1499.8858	13148.9	12218.65
890.1622	1501.6924	13132.5	12203.85
890.3053	1503.4981	13086.85	12159.7
890.4484	1505.3032	13064.9	12135.95
890.5914	1507.1075	13021.85	12094.55
890.7345	1508.911	12976.7	12050.65
890.8776	1510.7138	12945.2	12016.6
891.0206	1512.5159	12855.95	11928.65
891.1637	1514.3172	12784.05	11856.2
891.3067	1516.1178	12745.05	11821
891.4497	1517.9176	12695.75	11765.9
891.5927	1519.7166	12672.95	11747
891.7357	1521.515	12611.95	11677.85
891.8786	1523.3126	12584.05	11658.45
892.0216	1525.1094	12557.95	11629.25
892.1645	1526.9055	12522.4	11595.55
892.3074	1528.7008	12471.3	11546.9
892.4503	1530.4954	12396.75	11475.05
892.5932	1532.2893	12363.45	11442.45
892.7361	1534.0824	12274.4	11348.3
892.879	1535.8747	12284.05	11360.75
893.0218	1537.6663	12280.9	11359.25
893.1647	1539.4572	12213.85	11293.25
893.3075	1541.2473	12204.65	11282.8
893.4503	1543.0367	12198.75	11275.7
893.5931	1544.8253	12173.2	11246.2
893.7359	1546.6132	12182.35	11258.55
893.8787	1548.4003	12102.75	11173.45
894.0214	1550.1867	12144.05	11215
894.1642	1551.9723	12158.8	11233.85
894.3069	1553.7572	12186.15	11264.4
894.4496	1555.5414	12215	11295.85
894.5923	1557.3247	12244.3	11326.85
894.735	1559.1074	12294.05	11376.6
894.8777	1560.8893	12340.75	11425.7
895.0204	1562.6705	12376	11457.25
895.163	1564.4509	12459.9	11548.25
895.3056	1566.2305	12528.65	11618.35
895.4482	1568.0094	12586.3	11673.35
895.5908	1569.7876	12628.25	11715.05
895.7334	1571.565	12629.3	11715.3
895.876	1573.3417	12660	11745.3
896.0186	1575.1176	12593.05	11679.85
896.1611	1576.8928	12553.05	11642.5
896.3036	1578.6672	12454.15	11548.35
896.4461	1580.4409	12335.3	11431.2
896.5886	1582.2138	12252.4	11343.55
896.7311	1583.986	12135.9	11225.25
896.8736	1585.7575	12046.1	11134
897.0161	1587.5282	11954.85	11047.15
897.1585	1589.2981	11933.75	11030.4
897.3009	1591.0673	11890.4	10986.2
897.4433	1592.8358	11848.4	10940.95
897.5857	1594.6035	11855.45	10941.1
897.7281	1596.3704	11859.45	10944.85
897.8705	1598.1366	11894.5	10986.8
898.0128	1599.9021	11923.95	11019.25
898.1551	1601.6668	11984.85	11076.85
898.2975	1603.4308	12003.9	11092.65
898.4398	1605.194	12112.05	11198.05
898.5821	1606.9564	12223.9	11321.1
898.7243	1608.7182	12337.4	11440.1
898.8666	1610.4791	12461.2	11567.85
899.0088	1612.2394	12604.15	11711.65
899.1511	1613.9988	12799.55	11903.4
899.2933	1615.7576	12997.15	12096.7
899.4355	1617.5156	13188.75	12274.2
899.5776	1619.2728	13392.45	12484.9
899.7198	1621.0293	13492.9	12583.5
899.862	1622.785	13501.8	12591.85
900.0041	1624.54	13404.7	12499.7
900.1462	1626.2942	13243.2	12342.95
900.2883	1628.0477	12992.9	12090.1
900.4304	1629.8005	12749	11843.8
900.5725	1631.5525	12508.25	11608.6
900.7145	1633.3037	12304.7	11404.3
900.8566	1635.0542	12197.9	11297.9
900.9986	1636.804	12058.35	11157.3
901.1406	1638.553	12032.95	11071.45
901.2826	1640.3013	11900	10999.25
901.4245	1642.0488	11880.9	10977.4
901.5665	1643.7955	11923.1	11024.4
901.7085	1645.5416	11932.6	11035
901.8504	1647.2868	11996.85	11097.2
901.9923	1649.0313	12097.75	11195.2
902.1342	1650.7751	12232.65	11325.45
902.2761	1652.5181	12374.4	11474.2
902.4179	1654.2604	12550	11651.45
902.5598	1656.0019	12810.3	11910.85
902.7016	1657.7427	13096	12195.65
902.8434	1659.4828	13379.55	12477.45
902.9852	1661.222	13516.3	12608.7
903.127	1662.9606	13534.95	12631.55
903.2687	1664.6984	13346.5	12441.35
903.4105	1666.4354	12982.85	12079.1
903.5522	1668.1717	12470.45	11567.35
903.6939	1669.9072	11956.45	11049.5
903.8356	1671.642	11538	10630.55
903.9773	1673.3761	11177.05	10271.95
904.119	1675.1094	10867.7	9966.45
904.2606	1676.8419	10617.45	9715.15
904.4022	1678.5737	10439	9534.7
904.5439	1680.3048	10289.2	9383.35
904.6855	1682.0351	10148.9	9245.35
904.827	1683.7646	10036.75	9128.95
904.9686	1685.4934	9953.05	9051.5
905.1101	1687.2215	9921.55	9021.5
905.2517	1688.9488	9838.5	8939.15
905.3932	1690.6754	9770.6	8869.9
905.5347	1692.4012	9723.3	8819.2
905.6761	1694.1263	9657.85	8756.8
905.8176	1695.8506	9636.7	8735.2
905.9591	1697.5742	9584.05	8686.25
906.1005	1699.297	9530	8633.1
906.2419	1701.0191	9461.15	8567.15
906.3833	1702.7404	9438.6	8541.6
906.5246	1704.461	9390.55	8492.75
906.666	1706.1808	9334.95	8434.5
906.8073	1707.8999	9294.8	8394.85
906.9487	1709.6182	9255.7	8359.75
907.09	1711.3358	9223.25	8332.2
907.2313	1713.0527	9176.25	8285.05
907.3725	1714.7688	9148.25	8245.85
907.5138	1716.4841	9099.85	8202
907.655	1718.1987	9081.2	8179.85
907.7962	1719.9126	9047.1	8152.55
907.9374	1721.6257	9017.85	8123.8
908.0786	1723.338	8992.8	8101.3
908.2198	1725.0496	8936.95	8041.85
908.3609	1726.7605	8914.1	8019.4
908.502	1728.4706	8885.55	7990.7
908.6431	1730.18	8826.45	7930.2
908.7842	1731.8886	8806.3	7914.25
908.9253	1733.5964	8820.05	7907.45
909.0664	1735.3036	8780.65	7884.95
909.2074	1737.0099	8755.45	7863.3
909.3484	1738.7156	8727.55	7838.15
909.4894	1740.4204	8681.85	7785.55
909.6304	1742.1246	8664.3	7769.9
909.7714	1743.8279	8630.6	7737.85
909.9123	1745.5306	8610.3	7719.55
910.0532	1747.2325	8584.8	7694.5
910.1941	1748.9336	8558.6	7665
910.335	1750.634	8516.6	7623.4
910.4759	1752.3336	8516.8	7625.45
910.6168	1754.0325	8500.65	7612.05
910.7576	1755.7307	8444.45	7549.9
910.8984	1757.4281	8447.7	7554
911.0392	1759.1247	8460.75	7558.5
911.18	1760.8206	8410.6	7510.5
911.3208	1762.5158	8400.1	7501.1
911.4615	1764.2102	8356.5	7461.9
911.6022	1765.9039	8323.35	7432.9
911.7429	1767.5968	8300.4	7410.75
911.8836	1769.289	8290.75	7400.6
912.0243	1770.9804	8273.15	7379.15
912.1649	1772.6711	8259.45	7361.9
912.3056	1774.361	8226.4	7329.65
912.4462	1776.0502	8208.7	7311.65
912.5868	1777.7386	8204.2	7308.35
912.7274	1779.4263	8153	7259.65
912.8679	1781.1132	8157.55	7269.1
913.0084	1782.7994	8105.7	7216.55
913.149	1784.4849	8128.2	7240.15
913.2895	1786.1696	8087.2	7190.75
913.4299	1787.8535	8074.05	7186.6
913.5704	1789.5367	8054.15	7164.7
913.7108	1791.2192	8029.5	7142.45
913.8513	1792.9009	8007.45	7091.95
913.9917	1794.5818	7991.15	7095.05
914.132	1796.2621	7967.15	7074.95
914.2724	1797.9415	7948.65	7052.75
914.4128	1799.6202	7918.9	7025.8
914.5531	1801.2982	7896.25	7001.75
914.6934	1802.9755	7903.15	7008.6
914.8337	1804.6519	7879.9	6988.15
914.9739	1806.3277	7826.65	6934
915.1142	1808.0027	7800.65	6913.65
915.2544	1809.6769	7802.3	6914.75
915.3946	1811.3504	7767.65	6881.05
915.5348	1813.0231	7757.25	6869.75
915.675	1814.6951	7752.1	6862.85
915.8151	1816.3664	7728.95	6836.4
915.9553	1818.0369	7736.75	6845.45
916.0954	1819.7067	7693.3	6801.3
916.2355	1821.3757	7681.95	6788.9
916.3755	1823.044	7659.75	6765.55
916.5156	1824.7115	7660.9	6766.75
916.6556	1826.3783	7624.1	6733.1
916.7956	1828.0443	7585.05	6694.05
916.9356	1829.7096	7584.95	6692.7
917.0756	1831.3741	7556.65	6661.4
917.2155	1833.0379	7557.6	6668.4
917.3555	1834.701	7514.3	6626.45
917.4954	1836.3633	7503.45	6615.25
917.6353	1838.0248	7505.75	6614.2
917.7751	1839.6856	7476.7	6585.65
917.915	1841.3457	7464.95	6574.2
918.0548	1843.005	7459	6568
918.1946	1844.6636	7456.45	6565.05
918.3344	1846.3214	7408.5	6519.25
918.4742	1847.9785	7418.1	6529.55
918.6139	1849.6349	7401.9	6510.1
918.7537	1851.2904	7368.15	6465.1
918.8934	1852.9453	7370.15	6474.5
919.0331	1854.5994	7335.8	6440.15
919.1727	1856.2528	7348.7	6451.3
919.3124	1857.9054	7300.95	6409
919.452	1859.5572	7295.95	6408.75
919.5916	1861.2083	7287.95	6397.4
919.7312	1862.8587	7274.7	6383.1
919.8708	1864.5084	7263.2	6368.4
920.0103	1866.1572	7249.65	6356.05
920.1498	1867.8054	7207.85	6312.9
920.2893	1869.4528	7191.4	6298.2
920.4288	1871.0994	7182.8	6289.15
920.5683	1872.7453	7162.65	6271.8
920.7077	1874.3905	7172.1	6262.25
920.8471	1876.0349	7137.9	6243.8
920.9865	1877.6786	7119.55	6226.25
921.1259	1879.3215	7119.3	6228.45
921.2653	1880.9637	7109	6216.25
921.4046	1882.6051	7080.7	6190.05
921.5439	1884.2458	7069.5	6178.9
921.6832	1885.8858	7038.8	6148.05
921.8225	1887.525	7024.5	6132.25
921.9617	1889.1634	6988.95	6096.85
922.101	1890.8011	6968.7	6075.1
922.2402	1892.4381	6963.4	6072.2
922.3794	1894.0743	6943.25	6050.9
922.5185	1895.7098	6930.5	6039.75
922.6577	1897.3446	6919.1	6027.45
922.7968	1898.9786	6907.55	6012.25
922.9359	1900.6118	6887.55	5996.8
923.075	1902.2443	6845.95	5954.95
923.214	1903.8761	6845.15	5953.3
923.3531	1905.5071	6816.15	5925.55
923.4921	1907.1374	6813.55	5923.45
923.6311	1908.7669	6764.5	5873.85
923.77	1910.3957	6760.3	5870.05
923.909	1912.0237	6712.1	5821.65
924.0479	1913.651	6706.45	5814.8
924.1868	1915.2776	6689.45	5801.5
924.3257	1916.9034	6668.45	5782.4
924.4646	1918.5285	6639.5	5752.7
924.6034	1920.1528	6614.2	5723.15
924.7422	1921.7764	6634	5742.8
924.881	1923.3992	6598.35	5708.85
925.0198	1925.0213	6556.1	5663.7
925.1586	1926.6427	6542.9	5653.9
925.2973	1928.2633	6604.6	5617.1
925.436	1929.8832	6513.35	5620.25
925.5747	1931.5023	6489.25	5600.65
925.7134	1933.1207	6456.65	5567.05
925.852	1934.7383	6436.1	5547.1
925.9906	1936.3552	6421.65	5534
926.1292	1937.9714	6425.2	5536.95
926.2678	1939.5868	6382.9	5490.05
926.4064	1941.2015	6360.9	5470.9
926.5449	1942.8154	6344.15	5452.95
926.6834	1944.4286	6316.45	5422.05
926.8219	1946.041	6324.75	5409.4
926.9604	1947.6528	6264.2	5366.65
927.0988	1949.2637	6242.65	5354.35
927.2372	1950.8739	6220.15	5330.8
927.3756	1952.4834	6207.65	5316.5
927.514	1954.0921	6201.45	5312.65
927.6523	1955.7001	6183.05	5289.5
927.7907	1957.3074	6150.55	5265.25
927.929	1958.9139	6138.3	5252.95
928.0673	1960.5197	6124.1	5236.3
928.2055	1962.1247	6071.9	5185.15
928.3438	1963.729	6061.6	5175.8
928.482	1965.3325	6056.6	5167.3
928.6202	1966.9353	6014.9	5130.45
928.7584	1968.5374	6007.6	5118.75
928.8965	1970.1387	6011.95	5126.45
929.0346	1971.7393	5973.7	5088
929.1727	1973.3392	5961.05	5076.95
929.3108	1974.9383	5930.85	5048.65
929.4489	1976.5366	5916.65	5031.45
929.5869	1978.1342	5896.3	5013.6
929.7249	1979.7311	5898.95	5012.25
929.8629	1981.3273	5872.75	4991.55
930.0009	1982.9227	5848.5	4964.6
930.1388	1984.5173	5831.6	4949.55
930.2767	1986.1112	5809.3	4925
930.4146	1987.7044	5790.6	4905.9
930.5525	1989.2968	5793.4	4907.8
930.6904	1990.8885	5758.75	4871.8
930.8282	1992.4795	5759.05	4875.3
930.966	1994.0697	5735.65	4854.3
931.1038	1995.6592	5704.8	4821.4
931.2415	1997.2479	5732.7	4848.3
931.3793	1998.8359	5681.3	4797.7
931.517	2000.4232	5673.3	4793.75
931.6547	2002.0097	5649.45	4772.35
931.7923	2003.5955	5617.45	4740.3
931.93	2005.1805	5619.85	4739.35
932.0676	2006.7648	5598.8	4720.95
932.2052	2008.3484	5582.4	4702.95
932.3427	2009.9312	5589.55	4708.9
932.4803	2011.5133	5576.95	4700.6
932.6178	2013.0946	5555.4	4677.95
932.7553	2014.6752	5542.05	4663.2
932.8928	2016.2551	5540.45	4660.05
933.0302	2017.8342	5515.6	4633.2
933.1676	2019.4126	5492.6	4614.7
933.305	2020.9902	5459.15	4581.5
933.4424	2022.5672	5457.5	4579.75
933.5798	2024.1433	5446.4	4563.1
933.7171	2025.7188	5421.85	4547.9
933.8544	2027.2935	5402.4	4525.1
933.9917	2028.8674	5381.95	4504.05
934.129	2030.4406	5383.2	4507.65
934.2662	2032.0131	5351.1	4475.8
934.4034	2033.5849	5344	4459.55
934.5406	2035.1559	5345.4	4468.75
934.6778	2036.7261	5355.95	4475.5
934.8149	2038.2957	5321.85	4442.25
934.952	2039.8645	5313.15	4431
935.0891	2041.4325	5317.95	4433.8
935.2262	2042.9998	5298	4419.7
935.3632	2044.5664	5287.35	4406.95
935.5002	2046.1323	5245.5	4367.95
935.6372	2047.6974	5237.25	4360.9
935.7742	2049.2617	5220.65	4342.1
935.9111	2050.8254	5224.2	4341.55
936.048	2052.3883	5218.5	4337.35
936.1849	2053.9504	5200.25	4318.15
936.3218	2055.5118	5181.2	4296.55
936.4586	2057.0725	5173.75	4290.9
936.5955	2058.6325	5153.15	4275.35
936.7323	2060.1917	5146.85	4268.05
936.869	2061.7502	5139.1	4259.6
937.0058	2063.3079	5115.5	4240.85
937.1425	2064.8649	5094.55	4214.45
937.2792	2066.4212	5078	4197.5
937.4159	2067.9767	5070.55	4190.05
937.5525	2069.5315	5055.25	4175.15
937.6891	2071.0856	5028.4	4147.75
937.8257	2072.6389	5009.9	4130.9
937.9623	2074.1915	5009.7	4133.95
938.0989	2075.7433	4972.2	4090.75
938.2354	2077.2945	4977.4	4100.25
938.3719	2078.8448	4959.95	4077.9
938.5084	2080.3945	4951.2	4066.2
938.6448	2081.9434	4941.4	4061.8
938.7812	2083.4916	4925.65	4042.55
938.9176	2085.039	4893.05	4006.75
939.054	2086.5857	4892.5	4005.8
939.1903	2088.1317	4888.65	4000.25
939.3267	2089.677	4871.55	3984.4
939.463	2091.2215	4853.7	3965.2
939.5992	2092.7652	4857	3967.7
939.7355	2094.3083	4846.6	3958.95
939.8717	2095.8506	4808.2	3924.45
940.0079	2097.3921	4816.15	3934.55
940.1441	2098.933	4803.85	3921.95
940.2802	2100.4731	4801.1	3919
940.4163	2102.0124	4805.7	3903.9
940.5524	2103.5511	4794.95	3908.65
940.6885	2105.089	4777.3	3892.3
940.8245	2106.6261	4756.9	3874.75
940.9606	2108.1626	4736.95	3852.15
941.0965	2109.6983	4760.6	3850.05
941.2325	2111.2332	4733.8	3849.05
941.3684	2112.7675	4729.55	3843.7
941.5044	2114.301	4710.7	3824.5
941.6403	2115.8337	4711.95	3827.25
941.7761	2117.3657	4696.05	3812.2
941.912	2118.897	4681.15	3794.15
942.0478	2120.4276	4655.95	3764.55
942.1835	2121.9575	4644.85	3758.25
942.3193	2123.4866	4650.75	3752.6
942.455	2125.0149	4641.1	3754.3
942.5907	2126.5426	4609.6	3728.05
942.7264	2128.0695	4596.5	3713.25
942.8621	2129.5956	4585.05	3706.95
942.9977	2131.1211	4595.5	3709.65
943.1333	2132.6458	4580.5	3697.55
943.2689	2134.1698	4571.8	3685.2
943.4044	2135.693	4548.3	3658.15
943.54	2137.2155	4556.3	3669
943.6755	2138.7373	4537.2	3651.2
943.8109	2140.2584	4522.1	3642.5
943.9464	2141.7787	4499.6	3615.75
944.0818	2143.2983	4474.55	3597.35
944.2172	2144.8171	4467.95	3588.95
944.3526	2146.3353	4476.55	3594.95
944.4879	2147.8527	4444.45	3563.25
944.6232	2149.3693	4450.85	3567.45
944.7585	2150.8853	4434.55	3547.55
944.8938	2152.4005	4410.45	3525.05
945.029	2153.9149	4406.95	3519.45
945.1642	2155.4287	4409.5	3524.15
945.2994	2156.9417	4401.6	3514.75
945.4346	2158.454	4373.1	3489.05
945.5697	2159.9655	4361.35	3482.1
945.7048	2161.4764	4356.45	3473.45
945.8399	2162.9865	4347.8	3466.7
945.9749	2164.4958	4344.9	3462.8
946.1099	2166.0045	4328.8	3444.15
946.2449	2167.5124	4324.7	3442.7
946.3799	2169.0195	4327.3	3442.4
946.5148	2170.526	4321.75	3437.05
946.6498	2172.0317	4290.3	3405.55
946.7846	2173.5367	4278.05	3394.3
946.9195	2175.0409	4261.15	3379.7
947.0543	2176.5445	4267.35	3382.4
947.1891	2178.0473	4270.75	3384
947.3239	2179.5494	4244.7	3354.8
947.4587	2181.0507	4220.6	3337.5
947.5934	2182.5513	4201.8	3317.05
947.7281	2184.0512	4203.2	3318.9
947.8628	2185.5504	4201	3315.75
947.9974	2187.0488	4183.15	3300.1
948.132	2188.5465	4169.95	3288.55
948.2666	2190.0435	4152.75	3271.35
948.4012	2191.5397	4151.55	3266.35
948.5357	2193.0353	4164.75	3280.35
948.6702	2194.5301	4135.75	3246.25
948.8047	2196.0241	4115.8	3225.1
948.9392	2197.5175	4113.8	3224.35
949.0736	2199.0101	4103.55	3212.6
949.208	2200.502	4078.4	3192.65
949.3424	2201.9931	4049.05	3166.45
949.4767	2203.4835	4040.25	3154.3
949.611	2204.9733	4039.1	3151.85
949.7453	2206.4622	4034.95	3156.95
949.8796	2207.9505	4018.55	3136.8
950.0138	2209.438	4005.9	3128.65
950.148	2210.9248	4008	3125.5
950.2822	2212.4109	3981.95	3101.45
950.4164	2213.8962	3974.3	3087.3
950.5505	2215.3809	3961.2	3072.9
950.6846	2216.8648	3955.6	3067.05
950.8186	2218.3479	3966.15	3070.65
950.9527	2219.8304	3948.15	3052.05
951.0867	2221.3121	3918.55	3025.85
951.2207	2222.7931	3915.75	3028.25
951.3546	2224.2733	3900.8	3011.2
951.4886	2225.7529	3904.55	3018.2
951.6225	2227.2317	3874.65	2989.35
951.7563	2228.7098	3875.2	2994.05
951.8902	2230.1872	3858.6	2978.15
952.024	2231.6638	3852.2	2973.55
952.1578	2233.1397	3837.85	2954.5
952.2916	2234.6149	3841.35	2959.25
952.4253	2236.0894	3814.95	2931.3
952.559	2237.5632	3820.85	2925.9
952.6927	2239.0362	3801.65	2919.35
952.8263	2240.5085	3794	2911.35
952.9599	2241.9801	3785.7	2898
953.0935	2243.4509	3765	2880.1
953.2271	2244.921	3774.65	2886.15
953.3606	2246.3904	3754.15	2862.5
953.4941	2247.8591	3730.9	2844.6
953.6276	2249.3271	3742.7	2857.85
953.7611	2250.7943	3716.15	2829.8
953.8945	2252.2608	3716.35	2829.1
954.0279	2253.7266	3701.3	2813.45
954.1612	2255.1917	3692.45	2807.7
954.2946	2256.656	3672.4	2787.45
954.4279	2258.1197	3660.45	2780.6
954.5612	2259.5826	3660.65	2776.25
954.6944	2261.0447	3657.1	2771.1
954.8276	2262.5062	3649.2	2761.45
954.9608	2263.9669	3649.4	2759.9
955.094	2265.4269	3654.7	2767.4
955.2271	2266.8862	3615.5	2729.1
955.3602	2268.3448	3627	2743.6
955.4933	2269.8026	3616.35	2733.75
955.6264	2271.2598	3606.25	2723.35
955.7594	2272.7162	3583.4	2698.15
955.8924	2274.1719	3585.6	2698.9
956.0253	2275.6268	3583.85	2698.2
956.1583	2277.0811	3581.5	2692.7
956.2912	2278.5346	3576.25	2693.8
956.4241	2279.9874	3553.8	2670.7
956.5569	2281.4395	3555.55	2673.4
956.6897	2282.8908	3535.1	2646.65
956.8225	2284.3414	3542.75	2655.65
956.9553	2285.7914	3532.55	2647.6
957.088	2287.2406	3534.45	2646.5
957.2207	2288.689	3508.8	2620.95
957.3534	2290.1368	3510.3	2618.85
957.486	2291.5838	3518.35	2624.05
957.6186	2293.0302	3490.75	2597.05
957.7512	2294.4758	3473.75	2585.75
957.8838	2295.9206	3466.15	2576.45
958.0163	2297.3648	3454.6	2569.8
958.1488	2298.8082	3465.45	2580.05
958.2813	2300.251	3440.85	2553.8
958.4137	2301.693	3431.35	2539.15
958.5461	2303.1343	3433.8	2545.8
958.6785	2304.5748	3427	2542.85
958.8108	2306.0147	3409.6	2526.35
958.9432	2307.4538	3403.55	2519.7
959.0754	2308.8922	3388.15	2508.5
959.2077	2310.3299	3386.3	2504.05
959.3399	2311.7669	3388.65	2506.65
959.4721	2313.2031	3363.75	2477.95
959.6043	2314.6387	3370.95	2484.15
959.7365	2316.0735	3359.4	2475.1
959.8686	2317.5076	3351.4	2464.6
960.0006	2318.941	3349.7	2462
960.1327	2320.3737	3345.3	2456.25
960.2647	2321.8056	3329.7	2439.25
960.3967	2323.2369	3311.9	2426.2
960.5287	2324.6674	3309.1	2422.8
960.6606	2326.0972	3297.35	2409.4
960.7925	2327.5263	3282.85	2395.9
960.9244	2328.9547	3290.5	2401.8
961.0562	2330.3823	3282.8	2396.6
961.1881	2331.8092	3285.35	2393.8
961.3198	2333.2355	3268.1	2378.8
961.4516	2334.661	3262.9	2375.4
961.5833	2336.0858	3254.35	2364.9
961.715	2337.5098	3245.4	2358.1
961.8467	2338.9332	3244.2	2357.8
961.9783	2340.3558	3233.4	2346.2
962.1099	2341.7778	3209	2325.55
962.2415	2343.199	3210.8	2324.65
962.373	2344.6195	3205.7	2321.35
962.5045	2346.0393	3203.7	2319.35
962.636	2347.4583	3190.6	2302.55
962.7675	2348.8767	3176.9	2290.35
962.8989	2350.2943	3185.05	2294.25
963.0303	2351.7113	3188	2298.05
963.1617	2353.1275	3179.8	2291.3
963.293	2354.543	3173.35	2275.3
963.4243	2355.9578	3159.25	2273.35
963.5556	2357.3718	3143.6	2260
963.6868	2358.7852	3142.25	2256.2
963.818	2360.1978	3125.9	2242.55
963.9492	2361.6098	3130.2	2246.65
964.0803	2363.021	3128.7	2240.2
964.2114	2364.4315	3113.5	2227.35
964.3425	2365.8413	3107.9	2220.35
964.4736	2367.2504	3088.15	2205.05
964.6046	2368.6587	3076	2192.35
964.7356	2370.0664	3080.15	2197.95
964.8666	2371.4733	3058.55	2175
964.9975	2372.8795	3067.5	2184.9
965.1284	2374.285	3043.55	2159.35
965.2593	2375.6899	3050.15	2168
965.3901	2377.0939	3045.4	2163.1
965.5209	2378.4973	3026.45	2143.2
965.6517	2379.9	3020.6	2138.1
965.7825	2381.3019	3013.4	2130.25
965.9132	2382.7032	3005.65	2125.45
966.0439	2384.1037	2998.55	2118.6
966.1745	2385.5035	2994.05	2113.85
966.3051	2386.9027	2974.35	2095.95
966.4357	2388.3011	2968.5	2081.8
966.5663	2389.6987	2974.05	2094.25
966.6968	2391.0957	2958.65	2078.4
966.8273	2392.492	2941.2	2060.25
966.9578	2393.8876	2922.8	2040.8
967.0882	2395.2824	2915.3	2035.8
967.2186	2396.6765	2900.55	2020
967.349	2398.07	2902.75	2021.4
967.4793	2399.4627	2898.15	2013.35
967.6097	2400.8547	2905.75	2021.95
967.7399	2402.246	2880.35	1992.45
967.8702	2403.6366	2873.2	1992.45
968.0004	2405.0265	2864.9	1985.8
968.1306	2406.4156	2858.2	1971.65
968.2607	2407.8041	2850.85	1966.2
968.3909	2409.1918	2840.7	1956.6
968.521	2410.5789	2851.75	1969.8
968.651	2411.9652	2837.8	1953.8
968.781	2413.3508	2828.85	1947.05
968.911	2414.7358	2824.2	1939.25
969.041	2416.12	2813.15	1931.5
969.1709	2417.5035	2807.9	1928.35
969.3008	2418.8863	2791	1908.2
969.4307	2420.2684	2802.2	1920.95
969.5606	2421.6497	2796.85	1915.05
969.6904	2423.0304	2787.25	1906.9
969.8201	2424.4104	2778.1	1894.85
969.9499	2425.7896	2760.85	1878.75
970.0796	2427.1682	2760.65	1878.85
970.2093	2428.546	2762.95	1879.3
970.3389	2429.9232	2746.3	1861.3
970.4685	2431.2996	2755.05	1872.65
970.5981	2432.6753	2739.45	1857.6
970.7277	2434.0503	2732.55	1851.85
970.8572	2435.4246	2719.95	1839.15
970.9867	2436.7982	2732.9	1847.85
971.1161	2438.1711	2716.35	1835.25
971.2456	2439.5433	2712.65	1829.15
971.375	2440.9148	2705.9	1817.25
971.5043	2442.2856	2707.2	1823.75
971.6336	2443.6557	2678.25	1795.4
971.7629	2445.025	2686.45	1803.6
971.8922	2446.3937	2667.4	1783.1
972.0214	2447.7617	2668.35	1783.85
972.1506	2449.1289	2667.05	1782.55
972.2798	2450.4955	2662.6	1777.45
972.4089	2451.8613	2659.45	1777.15
972.538	2453.2265	2654.7	1773.9
972.6671	2454.5909	2650.85	1769
972.7961	2455.9546	2641.4	1758.65
972.9251	2457.3177	2637.1	1755.4
973.0541	2458.68	2631.9	1747
973.1831	2460.0416	2627.95	1746.7
973.312	2461.4025	2630.05	1743.7
973.4408	2462.7627	2624.65	1733.1
973.5697	2464.1222	2614.25	1734.5
973.6985	2465.4811	2605.75	1725.4
973.8273	2466.8392	2610.35	1727.45
973.956	2468.1966	2597.3	1714.85
974.0847	2469.5533	2600.55	1716.4
974.2134	2470.9093	2586.2	1703.2
974.3421	2472.2645	2581.8	1698.1
974.4707	2473.6191	2583.2	1700.15
974.5993	2474.973	2568.4	1684.25
974.7278	2476.3262	2572.45	1688
974.8563	2477.6787	2562.6	1679.5
974.9848	2479.0305	2563.65	1681.45
975.1132	2480.3816	2552.95	1667.65
975.2417	2481.7319	2552.5	1670.05
975.37	2483.0816	2535.1	1651.6
975.4984	2484.4306	2533.1	1650.05
975.6267	2485.7789	2517.35	1634.6
975.755	2487.1264	2519.1	1636.5
975.8833	2488.4733	2518	1638.1
976.0115	2489.8195	2516.05	1625.7
976.1397	2491.165	2500	1615
976.2678	2492.5097	2483.35	1597.95
976.3959	2493.8538	2486	1604.35
976.524	2495.1972	2469.5	1585.85
976.6521	2496.5398	2469.05	1583
976.7801	2497.8818	2467.75	1579.95
976.9081	2499.2231	2459.8	1575.3
977.036	2500.5637	2459.4	1573.55
977.164	2501.9035	2447.45	1562.95
977.2918	2503.2427	2451	1564.85
977.4197	2504.5812	2435.15	1552.8
977.5475	2505.919	2434	1549
977.6753	2507.256	2449.75	1565.9
977.8031	2508.5924	2424.4	1540
977.9308	2509.9281	2418.7	1529.1
978.0585	2511.2631	2420.6	1539.35
978.1861	2512.5974	2413.55	1531.95
978.3137	2513.9309	2397.35	1511.35
978.4413	2515.2638	2420.8	1509.75
978.5689	2516.596	2398.05	1512
978.6964	2517.9275	2392	1505.25
978.8239	2519.2583	2384.05	1500.15
978.9513	2520.5884	2382.1	1495.65
979.0788	2521.9178	2371	1487.45
979.2062	2523.2465	2367.4	1485.5
979.3335	2524.5745	2363	1481.45
979.4608	2525.9018	2347.1	1463.4
979.5881	2527.2284	2356.45	1476.3
979.7154	2528.5543	2361.4	1478.85
979.8426	2529.8796	2352.9	1469.55
979.9698	2531.2041	2340.25	1457.7
980.0969	2532.5279	2344.95	1462.35
980.224	2533.851	2337.85	1454
980.3511	2535.1735	2337.4	1454.8
980.4781	2536.4952	2328.95	1444.95
980.6052	2537.8163	2327.15	1442.7
980.7321	2539.1366	2316.85	1432.5
980.8591	2540.4562	2325.3	1442.95
980.986	2541.7752	2316.15	1433.2
981.1129	2543.0935	2321.1	1435.95
981.2397	2544.411	2308	1421
981.3665	2545.7279	2304	1421.85
981.4933	2547.0441	2297.35	1411.85
981.62	2548.3596	2296.45	1407.45
981.7467	2549.6744	2302.05	1416.45
981.8734	2550.9885	2293.8	1402.7
982.0001	2552.3019	2286.55	1402.55
982.1267	2553.6146	2280.95	1399.15
982.2532	2554.9266	2274.5	1390.3
982.3798	2556.2379	2267.45	1383
982.5063	2557.5485	2262.15	1380.3
982.6327	2558.8585	2264.65	1375.2
982.7592	2560.1677	2264.6	1375.7
982.8856	2561.4762	2259.3	1372.3
983.0119	2562.7841	2259.55	1371.5
983.1383	2564.0913	2249.95	1365
983.2646	2565.3977	2252.05	1368.45
983.3908	2566.7035	2239.05	1353.4
983.517	2568.0086	2241.85	1355.8
983.6432	2569.313	2241.45	1355.75
983.7694	2570.6167	2243.45	1355.3
983.8955	2571.9197	2235.15	1352.45
984.0216	2573.222	2234	1345.1
984.1476	2574.5236	2230.75	1345.6
984.2737	2575.8246	2229.7	1344.35
984.3996	2577.1248	2226.8	1341.8
984.5256	2578.4244	2220.75	1336.9
984.6515	2579.7232	2209.4	1324.7
984.7774	2581.0214	2238.2	1326.25
984.9032	2582.3189	2216.7	1333.25
985.029	2583.6157	2215.95	1325.75
985.1548	2584.9118	2214.45	1329.4
985.2806	2586.2072	2200.9	1317.15
985.4063	2587.5019	2208.7	1323.8
985.5319	2588.7959	2207.2	1322.8
985.6576	2590.0893	2216.25	1327.75
985.7832	2591.3819	2207.25	1323.8
985.9087	2592.6739	2197.05	1311.15
986.0343	2593.9652	2197.75	1310.7
986.1597	2595.2557	2191.05	1307.4
986.2852	2596.5456	2196.55	1310.25
986.4106	2597.8348	2186.65	1303.7
986.536	2599.1234	2182.1	1298.8
986.6614	2600.4112	2179.75	1297
986.7867	2601.6983	2185.55	1297.25
986.912	2602.9848	2171.55	1285.7
987.0372	2604.2705	2181.85	1290.6
987.1624	2605.5556	2162.05	1276.45
987.2876	2606.84	2157.1	1272.4
987.4128	2608.1237	2169	1284.7
987.5379	2609.4067	2157.9	1273.7
987.6629	2610.689	2151.05	1260.75
987.788	2611.9707	2161.2	1274.15
987.913	2613.2516	2142	1253.05
988.0379	2614.5319	2132.6	1248.05
988.1629	2615.8115	2127.45	1241.35
988.2878	2617.0903	2124.1	1239.45
988.4126	2618.3685	2120.55	1235.85
988.5375	2619.6461	2113.55	1228.9
988.6622	2620.9229	2108.2	1224.45
988.787	2622.199	2102.05	1214.5
988.9117	2623.4745	2120.2	1236.95
989.0364	2624.7493	2093.9	1208.9
989.161	2626.0234	2094.35	1212.45
989.2857	2627.2968	2088.8	1205.5
989.4102	2628.5695	2096.9	1215.3
989.5348	2629.8415	2081.4	1197.05
989.6593	2631.1128	2092.1	1207.5
989.7837	2632.3835	2080.9	1197.8
989.9082	2633.6535	2068.25	1186.6
990.0326	2634.9228	2077.7	1195.85
990.1569	2636.1914	2066.85	1182.15
990.2812	2637.4593	2076.8	1190.75
990.4055	2638.7265	2071.75	1187.7
990.5298	2639.9931	2063.15	1177.25
990.654	2641.259	2053.95	1169.8
990.7782	2642.5242	2053.6	1168.85
990.9023	2643.7887	2047.6	1162.4
991.0264	2645.0525	2044.75	1161.75
991.1505	2646.3156	2046.1	1160.35
991.2745	2647.5781	2036.45	1154.6
991.3985	2648.8398	2034.3	1150.65
991.5225	2650.1009	2026.65	1135.3
991.6464	2651.3613	2020.95	1138.15
991.7703	2652.6211	2022.55	1138.9
991.8942	2653.8801	2015.4	1133.3
992.018	2655.1385	2010.75	1123.35
992.1418	2656.3961	2015.55	1133
992.2655	2657.6531	2011	1126.6
992.3892	2658.9094	2011.65	1127.25
992.5129	2660.1651	2015.15	1133.05
992.6366	2661.42	2013.75	1128.7
992.7602	2662.6743	2009.05	1124.35
992.8837	2663.9279	2012.85	1130.6
993.0073	2665.1808	2003.2	1118.9
993.1307	2666.433	1999.75	1117.75
993.2542	2667.6846	2003.1	1121.1
993.3776	2668.9354	2005.45	1119.15
993.501	2670.1856	1994.1	1108.9
993.6244	2671.4351	2015.4	1132.35
993.7477	2672.6839	2012.2	1128.1
993.8709	2673.9321	1996.3	1113.15
993.9942	2675.1795	2008.1	1124.55
994.1174	2676.4263	2003.65	1118
994.2405	2677.6724	1998.7	1116.55
994.3637	2678.9179	2005.1	1119.8
994.4868	2680.1626	2007.6	1126.05
994.6098	2681.4067	1996.35	1114.5
994.7328	2682.6501	1996.45	1112
994.8558	2683.8928	1977.15	1094.9
994.9788	2685.1348	1977.75	1096.8
995.1017	2686.3761	1968.45	1085.4
995.2245	2687.6168	1977.9	1095.2
995.3474	2688.8568	1973.65	1089.55
995.4702	2690.0961	1956.2	1074.55
995.5929	2691.3348	1953.05	1068.5
995.7156	2692.5727	1944.9	1062.25
995.8383	2693.81	1939.75	1056.05
995.961	2695.0466	1944.3	1062.15
996.0836	2696.2826	1943.85	1059.75
996.2062	2697.5178	1949.9	1063.5
996.3287	2698.7524	1938.1	1056.4
996.4512	2699.9863	1940.4	1055.25
996.5737	2701.2195	1928.55	1046.95
996.6961	2702.452	1937.6	1054.35
996.8185	2703.6839	1937.4	1055.3
996.9408	2704.9151	1939.95	1059.5
997.0631	2706.1456	1941.55	1059.6
997.1854	2707.3755	1942.7	1060.3
997.3077	2708.6046	1945.3	1059.9
997.4299	2709.8331	1952.85	1069
997.552	2711.0609	1947.9	1065.2
997.6742	2712.2881	1962.45	1081.55
997.7963	2713.5145	1976.75	1093.15
997.9183	2714.7403	1985.8	1104.35
998.0403	2715.9654	1979.5	1094.4
998.1623	2717.1899	2010.5	1115.4
998.2842	2718.4136	2008.9	1128.75
998.4062	2719.6367	2010.8	1127.75
998.528	2720.8591	2026.5	1135.4
998.6498	2722.0809	2039.55	1156.95
998.7716	2723.3019	2045.55	1159.1
998.8934	2724.5223	2049.65	1163.95
999.0151	2725.7421	2051.1	1166.1
999.1368	2726.9611	2046.1	1163.7
999.2584	2728.1795	2050.5	1163.05
999.38	2729.3972	2037.75	1154.25
999.5016	2730.6142	2045	1147.5
999.6231	2731.8306	2004.3	1120.1
999.7446	2733.0462	1992.05	1108.9
999.8661	2734.2612	1973.4	1086.4
999.9875	2735.4756	1953.15	1069.85
1000.1089	2736.6892	1934.25	1049.8
1000.2302	2737.9022	1912.7	1032.15
1000.3515	2739.1145	1905.5	1021.35
1000.4728	2740.3262	1902.9	1013.1
1000.594	2741.5372	1881.45	1000.5
1000.7152	2742.7475	1867.75	983.5
1000.8363	2743.9571	1857.55	974.45
1000.9575	2745.1661	1840.95	954.9
1001.0785	2746.3744	1835.15	953.6
1001.1996	2747.582	1828	945.2
1001.3206	2748.7889	1821.7	938.3
1001.4415	2749.9952	1802.4	922.15
1001.5625	2751.2008	1797.1	913.95
1001.6833	2752.4057	1790.95	904.35
1001.8042	2753.61	1787.95	904.5
1001.925	2754.8136	1783.05	900.2
1002.0458	2756.0165	1785.55	905.7
1002.1665	2757.2188	1789.15	908
1002.2872	2758.4204	1773.15	891.7
1002.4078	2759.6213	1777.15	892.25
1002.5285	2760.8215	1777.2	893.8
1002.649	2762.0211	1768.5	884.55
1002.7696	2763.22	1765.45	878.8
1002.8901	2764.4182	1765.55	883.1
1003.0106	2765.6158	1757.9	875.15
1003.131	2766.8127	1746	864.95
1003.2514	2768.009	1744.35	860.8
1003.3717	2769.2045	1749.8	869.1
1003.492	2770.3994	1742	859.2
1003.6123	2771.5936	1743.45	861.2
1003.7325	2772.7872	1733.3	853.15
1003.8527	2773.9801	1726.75	842.7
1003.9729	2775.1723	1738.85	839.6
1004.093	2776.3639	1725.15	845.3
1004.2131	2777.5548	1722.9	839.15
1004.3331	2778.745	1713.25	831.3
1004.4531	2779.9346	1723.95	843.95
1004.5731	2781.1235	1730.65	849.3
1004.693	2782.3117	1726.7	846
1004.8129	2783.4992	1725.65	845.2
1004.9328	2784.6861	1730.35	848.8
1005.0526	2785.8723	1725.85	844.65
1005.1723	2787.0579	1720.35	838.7
1005.2921	2788.2428	1737.1	855.8
1005.4118	2789.427	1742.8	863.55
1005.5314	2790.6106	1744.9	865.85
1005.651	2791.7935	1767	884.2
1005.7706	2792.9757	1772.65	893.55
1005.8902	2794.1573	1791.3	909.2
1006.0097	2795.3382	1788.7	906.45
1006.1291	2796.5184	1801.05	923.8
1006.2485	2797.698	1826.3	942.3
1006.3679	2798.8769	1824.2	944
1006.4873	2800.0551	1847.6	965.9
1006.6066	2801.2327	1859.4	975.9
1006.7258	2802.4096	1863.85	986.25
1006.8451	2803.5859	1891	1009.05
1006.9642	2804.7615	1913.45	1031.8
1007.0834	2805.9364	1922.95	1040.75
1007.2025	2807.1106	1951.45	1069.3
1007.3216	2808.2842	1987.7	1106.65
1007.4406	2809.4572	2012.7	1131.1
1007.5596	2810.6294	2036.85	1156.25
1007.6785	2811.801	2078.65	1198.7
1007.7975	2812.972	2129.55	1248.65
1007.9163	2814.1423	2163.8	1283.5
1008.0352	2815.3119	2204.35	1323.35
1008.154	2816.4808	2254.9	1374.5
1008.2727	2817.6491	2301.15	1420.45
1008.3914	2818.8167	2358.8	1478.95
1008.5101	2819.9837	2400.85	1514.85
1008.6288	2821.15	2434.55	1555.25
1008.7474	2822.3157	2485.55	1606.7
1008.8659	2823.4807	2541.75	1663.1
1008.9844	2824.645	2597.6	1716.3
1009.1029	2825.8086	2619.35	1738.95
1009.2214	2826.9716	2668.55	1789.55
1009.3398	2828.134	2701.85	1821.95
1009.4581	2829.2957	2741.35	1859.6
1009.5764	2830.4567	2773.9	1896.4
1009.6947	2831.617	2793.75	1913.6
1009.813	2832.7767	2815.55	1936.7
1009.9312	2833.9358	2823.85	1944.25
1010.0493	2835.0941	2812.7	1928.3
1010.1675	2836.2519	2800.65	1920.75
1010.2855	2837.4089	2798.7	1918.55
1010.4036	2838.5653	2778.95	1900.5
1010.5216	2839.7211	2774.35	1895.25
1010.6396	2840.8761	2783.2	1900
1010.7575	2842.0306	2814.1	1936.55
1010.8754	2843.1843	2832.35	1952.5
1010.9932	2844.3374	2885.45	2005.65
1011.111	2845.4899	2932.85	2051.35
1011.2288	2846.6417	3008.55	2127.45
1011.3465	2847.7928	3074.1	2196.35
1011.4642	2848.9433	3155.25	2274.2
1011.5818	2850.0931	3220.3	2341.25
1011.6995	2851.2422	3292.5	2411.35
1011.817	2852.3907	3364.15	2484.1
1011.9345	2853.5385	3433.65	2552.5
1012.052	2854.6857	3517.9	2612.4
1012.1695	2855.8323	3535.15	2655.8
1012.2869	2856.9781	3574.65	2696.2
1012.4042	2858.1233	3633.6	2752.75
1012.5216	2859.2679	3669.95	2791.65
1012.6389	2860.4118	3717	2836.95
1012.7561	2861.555	3770	2883.8
1012.8733	2862.6976	3802	2919.05
1012.9905	2863.8395	3832.55	2951.55
1013.1076	2864.9808	3861.75	2983.95
1013.2247	2866.1214	3875.2	2995.85
1013.3417	2867.2614	3877.85	2997.25
1013.4587	2868.4007	3889.95	3008.55
1013.5757	2869.5393	3906.05	3024.35
1013.6926	2870.6773	3935	3053.7
1013.8095	2871.8146	3943.35	3060.1
1013.9263	2872.9513	3934.7	3051.4
1014.0431	2874.0874	3928.2	3049.35
1014.1599	2875.2227	3935.4	3054.05
1014.2766	2876.3574	3904.55	3027
1014.3933	2877.4915	3888	3009.6
1014.51	2878.6249	3861.9	2984.35
1014.6266	2879.7577	3830.25	2951.85
1014.7431	2880.8898	3813.65	2922.6
1014.8596	2882.0212	3795.1	2916
1014.9761	2883.152	3776.9	2898.2
1015.0925	2884.2821	3754.55	2875.5
1015.2089	2885.4116	3757.65	2877.35
1015.3253	2886.5405	3746.2	2865.8
1015.4416	2887.6686	3758.3	2874.35
1015.5579	2888.7962	3755.4	2879
1015.6741	2889.923	3773.1	2894.25
1015.7903	2891.0493	3771.9	2892.95
1015.9065	2892.1748	3792.7	2913.65
1016.0226	2893.2997	3794.8	2915.55
1016.1387	2894.424	3824	2945.3
1016.2547	2895.5476	3844.35	2964.45
1016.3707	2896.6706	3864.8	2986.3
1016.4866	2897.7929	3894.65	3014.7
1016.6025	2898.9145	3917	3039.4
1016.7184	2900.0355	3946.85	3066.65
1016.8342	2901.1559	3961.5	3081.8
1016.95	2902.2756	3994.65	3116.3
1017.0658	2903.3946	4030.4	3154.4
1017.1815	2904.513	4070.15	3186.85
1017.2971	2905.6308	4096.7	3218.75
1017.4127	2906.7479	4107.45	3227.2
1017.5283	2907.8643	4131.45	3252.4
1017.6439	2908.9801	4131.65	3251.05
1017.7594	2910.0953	4159.85	3280.15
1017.8748	2911.2098	4172.6	3290.7
1017.9902	2912.3236	4151.45	3267
1018.1056	2913.4368	4133.1	3253.2
1018.2209	2914.5494	4121.55	3243.7
1018.3362	2915.6613	4098.55	3213.4
1018.4515	2916.7725	4052.85	3171.65
1018.5667	2917.8831	4042	3162.4
1018.6819	2918.9931	4014.75	3133.3
1018.797	2920.1024	3968.3	3088.95
1018.9121	2921.211	3948.25	3070.5
1019.0271	2922.319	3917.75	3040.9
1019.1421	2923.4264	3901.8	3024.9
1019.2571	2924.5331	3894.25	3016.5
1019.372	2925.6391	3869.75	2993.2
1019.4869	2926.7445	3869.05	2992.05
1019.6017	2927.8493	3856.95	2976.85
1019.7165	2928.9534	3853.85	2974.75
1019.8313	2930.0569	3852.75	2973.55
1019.946	2931.1597	3847.05	2965.7
1020.0606	2932.2619	3852.2	2973.6
1020.1753	2933.3634	3834	2955
1020.2899	2934.4643	3820.25	2934.75
1020.4044	2935.5645	3804.85	2921.3
1020.5189	2936.6641	3785.7	2903.1
1020.6334	2937.763	3708.4	2831.8
1020.7478	2938.8613	3670.7	2792.3
1020.8622	2939.959	3637.8	2752.7
1020.9765	2941.056	3545.35	2669.25
1021.0908	2942.1523	3479.95	2599.95
1021.2051	2943.248	3385.3	2508.15
1021.3193	2944.3431	3270.35	2392.4
1021.4334	2945.4375	3182.65	2305.85
1021.5476	2946.5313	3096.95	2221.4
1021.6617	2947.6244	2989.85	2113
1021.7757	2948.7169	2889.1	2008.9
1021.8897	2949.8087	2788.2	1908.95
1022.0037	2950.8999	2694.85	1815.85
1022.1176	2951.9904	2612.2	1736.35
1022.2315	2953.0803	2533.9	1654.4
1022.3453	2954.1696	2475.3	1598.75
1022.4591	2955.2582	2423.5	1545.4
1022.5728	2956.3462	2371.85	1497.65
1022.6865	2957.4335	2328.3	1450.2
1022.8002	2958.5202	2307.1	1429.15
1022.9138	2959.6062	2259.5	1380.85
1023.0274	2960.6916	2246	1369.1
1023.141	2961.7764	2222.95	1344.1
1023.2545	2962.8605	2201.7	1323.6
1023.3679	2963.9439	2198.9	1321.6
1023.4813	2965.0267	2181.7	1302.7
1023.5947	2966.1089	2199.1	1298.5
1023.708	2967.1905	2168.5	1289.9
1023.8213	2968.2714	2166.35	1290.3
1023.9346	2969.3516	2165.4	1286.9
1024.0478	2970.4312	2168.85	1282.3
1024.1609	2971.5102	2165.05	1287.5
1024.274	2972.5885	2166.35	1289.75
1024.3871	2973.6662	2165.85	1284
1024.5002	2974.7432	2157	1280.1
1024.6132	2975.8196	2145.6	1266.7
1024.7261	2976.8954	2135.1	1258.55
1024.839	2977.9705	2119.95	1242.3
1024.9519	2979.045	2108.95	1230
1025.0647	2980.1188	2099.6	1222.95
1025.1775	2981.192	2068.3	1192.35
1025.2902	2982.2645	2050.8	1170.65
1025.4029	2983.3364	2027.4	1150.6
1025.5156	2984.4077	1995.6	1118
1025.6282	2985.4783	1980.45	1098.2
1025.7407	2986.5483	1938.7	1061.5
1025.8532	2987.6177	1910.8	1035.45
1025.9657	2988.6864	1870.25	991.65
1026.0782	2989.7545	1841.55	964.65
1026.1906	2990.8219	1805.7	928.85
1026.3029	2991.8887	1767.95	888.3
1026.4152	2992.9548	1732	855.4
1026.5275	2994.0204	1704.8	828.75
1026.6397	2995.0852	1675	799.4
1026.7519	2996.1495	1659	779.7
1026.864	2997.2131	1626.95	750.1
1026.9761	2998.276	1603.85	726.55
1027.0882	2999.3383	1586.3	709.9
1027.2002	3000.4	1566.1	686.9
1027.3122	3001.4611	1546.2	668.4
1027.4241	3002.5215	1519	641.2
1027.536	3003.5812	1514	637.25
1027.6478	3004.6404	1505.35	628.55
1027.7596	3005.6989	1488.05	609.2
1027.8714	3006.7567	1481	603.4
1027.9831	3007.8139	1504.6	596
1028.0947	3008.8705	1467.1	588.35
1028.2064	3009.9264	1464.35	583.85
1028.3179	3010.9818	1449.95	573.1
1028.4295	3012.0364	1446.85	569.4
1028.541	3013.0905	1441.7	563.8
1028.6524	3014.1439	1440.75	564.95
1028.7638	3015.1966	1438.4	562.15
1028.8752	3016.2487	1431.35	555.1
1028.9865	3017.3002	1439.1	555.95
1029.0978	3018.3511	1439.05	561.9
1029.209	3019.4013	1428.95	549.45
1029.3202	3020.4509	1427.7	549.55
1029.4314	3021.4998	1435.15	559.65
1029.5425	3022.5481	1421.55	544.45
1029.6535	3023.5958	1428.4	553
1029.7645	3024.6428	1430.65	552.35
1029.8755	3025.6892	1428.95	553.7
1029.9864	3026.735	1429.9	552.65
1030.0973	3027.7802	1427.1	550.8
1030.2082	3028.8247	1425.65	551.05
1030.319	3029.8685	1433.8	555.95
1030.4297	3030.9118	1436.9	559.35
1030.5404	3031.9544	1438	560.15
1030.6511	3032.9963	1446.85	571.15
1030.7617	3034.0376	1445	568.3
1030.8723	3035.0783	1450.1	570.45
1030.9829	3036.1184	1452.95	577.25
1031.0934	3037.1578	1449.45	574.4
1031.2038	3038.1966	1458.35	580.1
1031.3142	3039.2348	1464.2	588.2
1031.4246	3040.2723	1461.5	577.5
1031.5349	3041.3092	1453.95	578.95
1031.6452	3042.3455	1452.15	575.15
1031.7554	3043.3811	1453.25	575.75
1031.8656	3044.4161	1443.35	564.75
1031.9758	3045.4505	1437.15	560
1032.0859	3046.4842	1438.8	562.45
1032.1959	3047.5173	1434.35	559
1032.3059	3048.5498	1423.9	548.55
1032.4159	3049.5816	1414.55	538.45
1032.5258	3050.6128	1417.95	540.7
1032.6357	3051.6434	1413.1	534.5
1032.7455	3052.6734	1402.75	525.65
1032.8553	3053.7027	1395.5	518.8
1032.9651	3054.7314	1392.45	517.95
1033.0748	3055.7594	1384.35	508.55
1033.1845	3056.7868	1374.75	496.15
1033.2941	3057.8136	1376.7	501.7
1033.4037	3058.8398	1367.85	492.35
1033.5132	3059.8653	1362.3	486.45
1033.6227	3060.8902	1359.6	482.4
1033.7321	3061.9145	1343.9	467.6
1033.8415	3062.9381	1346.75	469.75
1033.9509	3063.9612	1355.4	463.15
1034.0602	3064.9835	1337	462.15
1034.1694	3066.0053	1331.55	450.15
1034.2787	3067.0264	1319.85	445.5
1034.3878	3068.0469	1311.05	434.25
1034.497	3069.0668	1308.5	429.15
1034.6061	3070.086	1293.45	417.95
1034.7151	3071.1046	1285.25	408.5
1034.8241	3072.1226	1281.7	404.85
1034.9331	3073.1399	1275.45	399.7
1035.042	3074.1567	1269.2	391.85
1035.1508	3075.1727	1256.5	380.6
1035.2597	3076.1882	1249.55	371.9
1035.3684	3077.203	1236.6	360.5
1035.4772	3078.2173	1232.95	354
1035.5859	3079.2308	1227.55	349.15
1035.6945	3080.2438	1215.8	338
1035.8031	3081.2561	1210.8	335.2
1035.9117	3082.2678	1204.9	329.6
1036.0202	3083.2789	1193.75	318.95
1036.1286	3084.2893	1187.4	311.75
1036.2371	3085.2991	1184.5	308.95
1036.3454	3086.3083	1180.25	298.85
1036.4538	3087.3169	1175.6	297.45
1036.562	3088.3248	1167.85	290.35
1036.6703	3089.3321	1165.85	287.85
1036.7785	3090.3388	1158.45	282.2
1036.8866	3091.3449	1153.45	278.15
1036.9948	3092.3503	1150.6	272.85
1037.1028	3093.3551	1142.7	266.9
1037.2108	3094.3593	1132.65	260.7
1037.3188	3095.3629	1142.3	267.9
1037.4267	3096.3658	1137.25	259.9
1037.5346	3097.3681	1135.85	259.6
1037.6425	3098.3698	1130.4	252.9
1037.7503	3099.3708	1132.75	251
1037.858	3100.3713	1122.05	248.15
1037.9657	3101.3711	1125.8	250.2
1038.0734	3102.3702	1251.2	237.3
1038.181	3103.3688	1117.95	239.05
1038.2886	3104.3667	1108.35	234.75
1038.3961	3105.364	1106.35	229.75
1038.5036	3106.3607	1113.4	236.45
1038.611	3107.3568	1099.25	222.6
1038.7184	3108.3522	1101.5	226.45
1038.8257	3109.347	1103.1	224.75
1038.933	3110.3412	1104.9	226.9
1039.0403	3111.3348	1094.3	220.45
1039.1475	3112.3277	1090.1	214.7
1039.2547	3113.32	1090.15	215.9
1039.3618	3114.3117	1089.5	214.4
1039.4689	3115.3028	1090.2	215.2
1039.5759	3116.2932	1086.9	209.65
1039.6829	3117.2831	1085.2	205.7
1039.7898	3118.2723	1082.35	205
1039.8967	3119.2608	1080.4	205.95
1040.0035	3120.2488	1080.95	204.65
1040.1103	3121.2361	1077.9	201.75
1040.2171	3122.2229	1078.4	203.25
1040.3238	3123.209	1077.15	202.4
1040.4305	3124.1944	1072.2	197.95
1040.5371	3125.1793	1076	201.25
1040.6437	3126.1635	1068.15	193.8
1040.7502	3127.1471	1065.25	192.2
1040.8567	3128.1301	1062.4	187.25
1040.9631	3129.1125	1063.45	187.5
1041.0695	3130.0942	1068.65	193.1
1041.1759	3131.0753	1078.8	195.15
1041.2822	3132.0558	1062.3	187.8
1041.3884	3133.0357	1062.55	187.25
1041.4946	3134.015	1055.1	178.6
1041.6008	3134.9936	1062.2	185.05
1041.7069	3135.9716	1076.2	177.85
1041.813	3136.949	1052.35	177.65
1041.919	3137.9258	1069.8	176.3
1042.025	3138.902	1063.35	183.6
1042.1309	3139.8775	1048.95	172.9
1042.2368	3140.8524	1049.4	173.8
1042.3427	3141.8267	1050.9	173.5
1042.4485	3142.8004	1047.7	171.6
1042.5542	3143.7735	1050	170.55
1042.6599	3144.7459	1047.6	170.9
1042.7656	3145.7178	1046.35	169.75
1042.8712	3146.689	1038.85	163.3
1042.9768	3147.6596	1041.95	164.15
1043.0823	3148.6295	1041.65	165.8
1043.1878	3149.5989	1036.4	160.25
1043.2932	3150.5676	1038.2	164.2
1043.3986	3151.5357	1034.8	161.5
1043.5039	3152.5032	1030.15	157.1
1043.6092	3153.4701	1037.4	162.9
1043.7145	3154.4364	1035.9	157.95
1043.8197	3155.402	1030	157.1
1043.9248	3156.367	1031.7	154.15
1044.03	3157.3315	1057.4	154.75
1044.135	3158.2952	1030.15	155.4
1044.24	3159.2584	1023.7	148.3
1044.345	3160.221	1028.45	153.1
1044.4499	3161.1829	1020.5	146.2
1044.5548	3162.1442	1022.9	146.6
1044.6596	3163.105	1018.65	142.9
1044.7644	3164.065	1021.95	146.95
1044.8692	3165.0245	1021.5	146.3
1044.9739	3165.9834	1019.8	146.5
1045.0785	3166.9416	1014.75	141
1045.1831	3167.8993	1021.35	144.75
1045.2877	3168.8563	1016.95	140.65
1045.3922	3169.8127	1019.1	142.8
1045.4966	3170.7684	1012.6	138.15
1045.6011	3171.7236	1012.6	136.25
1045.7054	3172.6782	1012.45	138.85
1045.8098	3173.6321	1013.25	138.05
1045.914	3174.5854	1012.35	135.45
1046.0183	3175.5381	1014.5	139.45
1046.1224	3176.4902	1007.85	132.6
1046.2266	3177.4417	1007.2	132.35
1046.3307	3178.3926	1007.8	132.9
1046.4347	3179.3428	1003.55	129.75
1046.5387	3180.2924	1004.15	129.3
1046.6427	3181.2415	1003.45	127.45
1046.7466	3182.1899	1007.85	131.1
1046.8504	3183.1377	1003.6	131.05
1046.9542	3184.0848	1004.7	128
1047.058	3185.0314	999.6	125.3
1047.1617	3185.9773	1004.15	130.3
1047.2654	3186.9227	1001.05	127
1047.369	3187.8674	1001.45	125.6
1047.4726	3188.8115	1002.15	123.2
1047.5761	3189.755	1001.55	129.3
1047.6796	3190.6979	999.45	126.8
1047.783	3191.6402	996.25	122.55
1047.8864	3192.5818	997.5	122.8
1047.9898	3193.5229	999.15	118.35
1048.0931	3194.4633	996.4	122.3
1048.1963	3195.4031	992.6	117.2
1048.2995	3196.3423	997.75	122.8
1048.4027	3197.2809	992.45	119.3
1048.5058	3198.2189	991.8	116.3
1048.6089	3199.1563	1008.15	120.65
1048.7119	3200.0931	988.75	116.45
1048.8148	3201.0292	984.75	112.15
1048.9178	3201.9648	988.9	113.3
1049.0206	3202.8997	990.95	113.25
1049.1235	3203.834	991.7	117.4
1049.2262	3204.7677	984.05	108.65
1049.329	3205.7008	987.85	113.05
1049.4317	3206.6333	982.65	109.3
1049.5343	3207.5652	985.8	109.7
1049.6369	3208.4964	986.95	111.5
1049.7394	3209.4271	981.85	108.15
1049.8419	3210.3571	981.5	108.65
1049.9444	3211.2865	988.5	112.7
1050.0468	3212.2154	981.2	107
1050.1491	3213.1436	985.8	108.3
1050.2514	3214.0712	984.35	103.6
1050.3537	3214.9982	983.2	109.5
1050.4559	3215.9246	975.5	101.5
1050.5581	3216.8503	978.15	106.65
1050.6602	3217.7755	979.85	104.55
1050.7623	3218.7001	976.7	103.4
1050.8643	3219.624	978.9	104.35
1050.9663	3220.5473	975.15	100.25
1051.0682	3221.4701	977.9	100.8
1051.1701	3222.3922	977.15	101.95
1051.2719	3223.3137	973.05	99.35
1051.3737	3224.2346	975.3	100.85
1051.4754	3225.1549	971.3	97.8
1051.5771	3226.0746	974.8	102.15
1051.6788	3226.9937	974.35	100.45
1051.7804	3227.9121	971.15	98.75
1051.8819	3228.83	972.25	99.9
1051.9834	3229.7473	978	103.9
1052.0849	3230.6639	972.05	98.6
1052.1863	3231.5799	973.5	100.35
1052.2876	3232.4954	974.95	101.2
1052.3889	3233.4102	966.6	93.55
1052.4902	3234.3244	963.65	90.7
1052.5914	3235.238	967.6	94.1
1052.6926	3236.151	990.55	92.7
1052.7937	3237.0634	966.55	94.3
1052.8948	3237.9752	966.75	94.75
1052.9958	3238.8864	964	90.3
1053.0968	3239.797	966.65	92.3
1053.1977	3240.7069	967.3	94.05
1053.2986	3241.6163	965.9	89.35
1053.3994	3242.5251	960.35	88.1
1053.5002	3243.4332	960.55	88.6
1053.6009	3244.3408	963.85	90.55
1053.7016	3245.2477	961.2	89.3
1053.8022	3246.154	961.95	86.65
1053.9028	3247.0598	961.85	86.25
1054.0034	3247.9649	959.6	86.6
1054.1039	3248.8694	955.05	80.9
1054.2043	3249.7733	956.6	83.5
1054.3047	3250.6766	961.05	86.9
1054.4051	3251.5793	956.8	84.2
1054.5054	3252.4814	954.15	82.5
1054.6056	3253.3829	956.05	82.35
1054.7058	3254.2838	953.8	79.75
1054.806	3255.1841	953.3	79.65
1054.9061	3256.0838	954.15	79.55
1055.0061	3256.9829	952.1	79.85
1055.1062	3257.8814	953.25	78.55
1055.2061	3258.7792	953.25	76.2
1055.306	3259.6765	954.55	79.2
1055.4059	3260.5731	947.75	75.3
1055.5057	3261.4692	949.2	76.15
1055.6055	3262.3647	945.1	72.7
1055.7052	3263.2595	946	70.95
1055.8049	3264.1538	944	71.95
1055.9045	3265.0474	940.1	65.05
1056.0041	3265.9404	943.2	71.75
1056.1036	3266.8329	942.5	71.4
1056.2031	3267.7247	952.15	66.9
1056.3025	3268.616	936.6	64.5
1056.4019	3269.5066	934.7	62.1
1056.5013	3270.3966	936.7	62.25
1056.6005	3271.286	932.35	59.1
