Software Version:	3.9.2.0
Unit SN:	10000200
Spectrometer SN:	6960
Date:	3/8/2024 1:03:39 PM
Data Line Index:	25
Spectral Points:	2048
Integration time (ms):	125
Averages:	20
Delay (ms):	30000
Sequence Number:	1
Processing:	dark subtract
Laser Power (mW):	300
Laser Current (mA):	822
Laser Diode Temp (C):	25
Laser Case Temp (C):	26.1
System Temp (C):	26.1
Spectrometer Temp (C):	23.9
CCD Temp (C):	-0.005
Secondary Temp (C):	20.007
Heatsink Temp (C):	21.057
CCDPCB Temp (C):	35.884
SecondaryPCB Temp (C):	29.971

Wavelength	RamanShift	Raw Counts	Dark Subtracted
787.061	30.1047	456	48.9
787.2016	32.3739	455.95	50.05
787.3422	34.6426	460.6	53.2
787.4828	36.9109	467.05	58.8
787.6235	39.1787	476.15	62.95
787.7642	41.4461	484.9	66.8
787.9049	43.7131	494.55	73.75
788.0456	45.9796	502.9	78.85
788.1863	48.2456	510.15	82.65
788.3271	50.5112	523.65	92.95
788.4679	52.7764	529.95	94.1
788.6087	55.0411	539	99.4
788.7496	57.3054	555.65	109.4
788.8904	59.5692	561.45	113.5
789.0313	61.8326	570.8	121.25
789.1722	64.0955	583.2	131.75
789.3132	66.3579	603	145.05
789.4541	68.6199	619.7	158.1
789.5951	70.8815	651.65	184.95
789.7361	73.1426	738.05	267.75
789.8771	75.4032	950.45	476.3
790.0181	77.6634	1462.95	984.5
790.1592	79.9231	2672	2182.75
790.3003	82.1824	5289.6	4781.3
790.4414	84.4412	9928.55	9386.65
790.5825	86.6995	16367.45	15781.45
790.7237	88.9574	22556	21933.05
790.8648	91.2148	26757.45	26111.65
791.006	93.4717	28676.4	28014.55
791.1472	95.7282	29009.05	28337
791.2885	97.9842	28743.75	28068.4
791.4297	100.2398	28033.25	27362.35
791.571	102.4949	27319.65	26642.2
791.7123	104.7495	26461	25781.4
791.8536	107.0036	25528.4	24849.15
791.9949	109.2573	24723.55	24039.95
792.1363	111.5105	23985.85	23306.15
792.2777	113.7632	23278.75	22591.55
792.4191	116.0154	22707.65	22011.95
792.5605	118.2672	22278.8	21589.45
792.7019	120.5185	21804.05	21111.25
792.8434	122.7693	21508.25	20813.35
792.9849	125.0197	21216.1	20518.45
793.1264	127.2696	20981.2	20278.5
793.2679	129.519	20784.55	20078.65
793.4094	131.7679	20510.65	19798.8
793.551	134.0163	20292.25	19579.7
793.6926	136.2642	19946.3	19228.15
793.8342	138.5117	19679.05	18950.3
793.9758	140.7587	19346.55	18626.7
794.1175	143.0052	19038.15	18316.15
794.2591	145.2512	18749.3	18026.15
794.4008	147.4967	18472.45	17751.2
794.5425	149.7417	18258.75	17528.7
794.6842	151.9863	18144.4	17418.8
794.826	154.2304	18010.85	17274.1
794.9677	156.4739	17856.25	17120.9
795.1095	158.717	17770.3	17028.8
795.2513	160.9596	17600.55	16854.85
795.3931	163.2017	17342.35	16596.3
795.535	165.4433	17017.7	16268.25
795.6768	167.6844	16744.1	15993.4
795.8187	169.925	16406.4	15653.8
795.9606	172.1651	16033.05	15284.65
796.1025	174.4047	15753.65	14996.45
796.2445	176.6439	15512.6	14758.45
796.3864	178.8825	15299.7	14538.15
796.5284	181.1206	15162.5	14396.75
796.6704	183.3582	15007.85	14234.95
796.8124	185.5954	14922.75	14144.45
796.9544	187.832	14832.2	14054.35
797.0965	190.0681	14803.95	14022.3
797.2386	192.3037	14794.9	14013.7
797.3806	194.5388	14793.95	14007.15
797.5228	196.7734	14831.4	14042.85
797.6649	199.0075	14900.85	14107.75
797.807	201.2411	15055.9	14265.55
797.9492	203.4742	15101.8	14308.65
798.0914	205.7068	15306.9	14509.9
798.2336	207.9389	15362.1	14567.95
798.3758	210.1704	15560.8	14767.4
798.518	212.4015	15641.7	14859.4
798.6603	214.632	15812.85	15033.4
798.8025	216.862	15984.05	15208.5
798.9448	219.0915	16113.3	15336.25
799.0871	221.3205	16281.8	15500.65
799.2294	223.549	16408.35	15632.6
799.3718	225.777	16578.15	15804.4
799.5141	228.0044	16829.75	16043.7
799.6565	230.2314	17089.25	16303.5
799.7989	232.4578	17328.2	16545.55
799.9413	234.6837	17569.05	16774.1
800.0837	236.909	17762.9	16967.2
800.2262	239.1339	17733.4	16912.2
800.3687	241.3582	17625.85	16820.15
800.5111	243.582	17414.35	16579.1
800.6536	245.8053	17242.15	16419.95
800.7961	248.0281	17042.15	16222.05
800.9387	250.2503	16951.55	16127.55
801.0812	252.472	16930.65	16106.6
801.2238	254.6932	17000.95	16174.25
801.3664	256.9139	17036.25	16214.8
801.509	259.134	17171.4	16342.05
801.6516	261.3536	17319.5	16484.7
801.7942	263.5727	17511.3	16675.2
801.9369	265.7912	17687.35	16858.2
802.0795	268.0092	17864.55	17033.4
802.2222	270.2267	17956.2	17132.05
802.3649	272.4436	18013.7	17185.5
802.5076	274.6601	18016.5	17178.95
802.6504	276.8759	17890.95	17056
802.7931	279.0913	17811.8	16977.4
802.9359	281.3061	17732.35	16895.95
803.0787	283.5204	17702.5	16862.5
803.2215	285.7341	17693.55	16846.4
803.3643	287.9473	17799	16941.65
803.5071	290.16	17932.65	17089.5
803.6499	292.3721	18122.65	17281.35
803.7928	294.5837	18450.45	17607.2
803.9357	296.7947	18700.65	17857.3
804.0786	299.0052	18886.45	18041
804.2215	301.2152	18798.2	17952.9
804.3644	303.4246	18565.6	17725.4
804.5074	305.6334	18087.55	17245.2
804.6503	307.8418	17648.6	16802.85
804.7933	310.0495	17264.9	16415.05
804.9363	312.2568	16879.35	16030.7
805.0793	314.4635	16554.3	15705.7
805.2223	316.6696	16359.45	15508.35
805.3653	318.8752	16224.55	15366.35
805.5084	321.0802	16169.2	15311.4
805.6514	323.2847	16246.1	15386
805.7945	325.4887	16312.05	15453.65
805.9376	327.692	16274.05	15414.35
806.0807	329.8949	16189.25	15326.05
806.2238	332.0972	15965.35	15104.2
806.367	334.2989	15740.8	14875.05
806.5101	336.5001	15450.6	14585.9
806.6533	338.7007	15244.2	14378.95
806.7965	340.9008	15141.4	14274.35
806.9397	343.1003	15000.85	14137.3
807.0829	345.2992	14896.85	14028.1
807.2261	347.4976	14851.5	13982.7
807.3693	349.6955	14796.7	13921.8
807.5126	351.8927	14824.2	13945.1
807.6559	354.0895	14791.1	13905.55
807.7991	356.2856	14795.85	13921.55
807.9424	358.4812	14763.15	13886.25
808.0857	360.6763	14793.95	13915.45
808.2291	362.8707	14750.35	13868.9
808.3724	365.0646	14799.8	13918.35
808.5158	367.258	14854.3	13974.1
808.6591	369.4508	14909.2	14022.95
808.8025	371.643	15008.35	14119.95
808.9459	373.8346	15092.45	14200.95
809.0893	376.0257	15148.7	14258.1
809.2327	378.2162	15102.6	14213.1
809.3762	380.4062	15072.55	14182.45
809.5196	382.5956	14922.2	14034.75
809.6631	384.7844	14794.8	13913.05
809.8066	386.9726	14663.1	13784.5
809.9501	389.1603	14635.1	13756.2
810.0936	391.3474	14611.5	13704.8
810.2371	393.5339	14558.05	13671.65
810.3806	395.7199	14514.85	13634.85
810.5241	397.9052	14537.8	13659.25
810.6677	400.09	14583.1	13703.3
810.8113	402.2743	14728.55	13851.45
810.9548	404.4579	14838.05	13958.75
811.0984	406.641	15029.9	14142.85
811.2421	408.8235	15257	14374
811.3857	411.0054	15507.35	14620.65
811.5293	413.1868	15796.3	14907.5
811.673	415.3675	15954.65	15060.6
811.8166	417.5477	16053.65	15157.2
811.9603	419.7273	16022.7	15128.55
812.104	421.9064	15983.3	15085.4
812.2477	424.0848	15864.8	14967.7
812.3914	426.2627	15647.15	14752
812.5351	428.4399	15445.4	14548.25
812.6788	430.6166	15100.1	14197.6
812.8226	432.7928	14751.6	13849.45
812.9663	434.9683	14427.65	13531.95
813.1101	437.1432	14239.05	13343.15
813.2539	439.3176	14048.7	13159.35
813.3977	441.4914	13921.1	13035.6
813.5415	443.6645	13875.9	12982.55
813.6853	445.8371	13846.05	12952.4
813.8291	448.0091	13811.6	12917.4
813.973	450.1806	13803.8	12907.65
814.1168	452.3514	13748.45	12859.05
814.2607	454.5216	13804.85	12905.8
814.4046	456.6913	13770.7	12871.35
814.5485	458.8603	13802.6	12907.75
814.6924	461.0288	13862.85	12971.9
814.8363	463.1967	13850.8	12964.55
814.9802	465.3639	13922.1	13027.95
815.1241	467.5306	13975.75	13082.2
815.2681	469.6967	14025.8	13133.8
815.412	471.8622	14110.75	13224
815.556	474.0271	14196.35	13305.95
815.7	476.1914	14249.1	13355.6
815.844	478.3551	14242.25	13346.6
815.988	480.5182	14276.45	13387.45
816.132	482.6807	14330.2	13444.75
816.276	484.8426	14501.3	13623.05
816.4201	487.0039	14827.85	13943.6
816.5641	489.1647	15186.45	14291.5
816.7082	491.3248	15549.1	14657.4
816.8522	493.4843	15706.65	14815.7
816.9963	495.6432	15714.2	14822.6
817.1404	497.8015	15587.3	14684.85
817.2845	499.9592	15543.25	14632.9
817.4286	502.1163	15404.4	14497.05
817.5727	504.2728	15111.4	14209.1
817.7168	506.4287	14808.65	13920.95
817.861	508.5839	14436.15	13548.55
818.0051	510.7386	14178.75	13280.55
818.1493	512.8927	14081.8	13171.95
818.2935	515.0461	14035.1	13130.15
818.4377	517.199	14057.7	13152.1
818.5818	519.3512	14164.55	13255.9
818.726	521.5029	14376.45	13468.1
818.8703	523.6539	14538.95	13631.95
819.0145	525.8043	14626.15	13718.1
819.1587	527.9541	14580.4	13668.3
819.303	530.1033	14459.9	13551.7
819.4472	532.2519	14394.1	13489.55
819.5915	534.3999	14408.1	13498.7
819.7357	536.5472	14560.8	13653.55
819.88	538.694	14866.75	13962.95
820.0243	540.8401	15301.65	14391.9
820.1686	542.9856	15635.5	14717.5
820.3129	545.1305	15708.8	14782.35
820.4572	547.2748	15610.65	14685.6
820.6016	549.4185	15379.15	14451.65
820.7459	551.5615	15129.3	14202.55
820.8902	553.704	15099.25	14168.95
821.0346	555.8458	15122.5	14201.35
821.1789	557.987	15235.1	14318.65
821.3233	560.1276	15376.95	14459.9
821.4677	562.2675	15651.15	14731.15
821.6121	564.4069	15950.75	15028.5
821.7565	566.5456	16241.6	15324.65
821.9009	568.6837	16271.2	15360.05
822.0453	570.8212	15903.45	14987.35
822.1897	572.958	15382.95	14467.95
822.3342	575.0942	14887.45	13974.85
822.4786	577.2299	14502.95	13592.45
822.6231	579.3648	14404.8	13507.65
822.7675	581.4992	14400.2	13513.75
822.912	583.6329	14531.25	13645.8
823.0565	585.766	14732.1	13839.4
823.201	587.8985	14858.8	13959.1
823.3454	590.0304	14898.3	13967.65
823.4899	592.1616	14843.7	13922.15
823.6345	594.2922	14734.1	13811.25
823.779	596.4222	14541.05	13612.6
823.9235	598.5515	14360.05	13436.65
824.068	600.6802	14198.55	13275
824.2126	602.8083	14014.3	13093.65
824.3571	604.9358	14017.25	13097.7
824.5017	607.0626	14011.7	13088
824.6462	609.1888	14043.55	13112.6
824.7908	611.3144	14111.9	13182.7
824.9354	613.4393	14166.9	13234.8
825.08	615.5636	14185.4	13258.1
825.2246	617.6873	14148.15	13221.9
825.3692	619.8103	14082.7	13152.8
825.5138	621.9327	13929.35	13002.8
825.6584	624.0544	13774.1	12853.6
825.803	626.1756	13684.25	12762.1
825.9477	628.2961	13565	12638.8
826.0923	630.4159	13500.35	12573.1
826.237	632.5351	13487.45	12557.9
826.3816	634.6537	13459.25	12529.5
826.5263	636.7716	13449.35	12513.75
826.6709	638.8889	13476.3	12540.7
826.8156	641.0056	13500.1	12562
826.9603	643.1216	13465.4	12529.8
827.105	645.237	13487.25	12556.5
827.2497	647.3518	13434.2	12508.8
827.3944	649.4659	13412.95	12492.65
827.5391	651.5793	13365.8	12445.8
827.6838	653.6922	13335.35	12411.95
827.8285	655.8043	13333.7	12408.75
827.9733	657.9159	13310.55	12383.15
828.118	660.0268	13279.55	12357.7
828.2627	662.137	13249.3	12318.65
828.4075	664.2466	13246.65	12313.6
828.5522	666.3556	13241.15	12308.65
828.697	668.4639	13199.7	12269.8
828.8418	670.5716	13226.75	12304.8
828.9865	672.6786	13215.05	12283.85
829.1313	674.785	13215.3	12282.15
829.2761	676.8907	13237.1	12308.9
829.4209	678.9958	13290.35	12362.7
829.5657	681.1002	13246.15	12315
829.7105	683.204	13226.65	12281.95
829.8553	685.3072	13207.1	12269.45
830.0001	687.4097	13176	12240.9
830.1449	689.5115	13178.3	12239.1
830.2898	691.6127	13155.6	12224
830.4346	693.7132	13117.35	12187.05
830.5794	695.8131	13123.6	12177.7
830.7243	697.9123	13123.2	12185.25
830.8691	700.0109	13122.8	12185.7
831.014	702.1089	13123.2	12182.55
831.1588	704.2061	13168.5	12231.6
831.3037	706.3028	13223.45	12284.55
831.4486	708.3987	13251.45	12310.6
831.5935	710.4941	13301.2	12361.5
831.7383	712.5887	13404.9	12466.65
831.8832	714.6827	13580.1	12641.6
832.0281	716.7761	13809.4	12878.4
832.173	718.8688	14056.35	13120.3
832.3179	720.9608	14239.2	13293.15
832.4628	723.0522	14348.1	13400.25
832.6077	725.1429	14308.2	13361.95
832.7527	727.233	14227.9	13286.8
832.8976	729.3224	14163.3	13222
833.0425	731.4112	14000.9	13059.9
833.1874	733.4993	13853.25	12913.05
833.3324	735.5867	13647.75	12707.55
833.4773	737.6735	13499.7	12558
833.6222	739.7596	13329.8	12384.4
833.7672	741.845	13245.4	12308.75
833.9122	743.9298	13195.1	12253.3
834.0571	746.014	13163.25	12221.05
834.2021	748.0974	13189.05	12238.9
834.347	750.1802	13183.35	12236.85
834.492	752.2624	13195.1	12247.2
834.637	754.3439	13227.8	12279.3
834.782	756.4247	13310.4	12353.1
834.9269	758.5048	13478.5	12530.2
835.0719	760.5843	13766.8	12818.4
835.2169	762.6631	14147.35	13199.45
835.3619	764.7413	14698.4	13752.9
835.5069	766.8188	15400.7	14452.05
835.6519	768.8956	15858.05	14910.85
835.7969	770.9718	16204.95	15260.5
835.9419	773.0473	16122.55	15174.25
836.0869	775.1221	15826.4	14880.25
836.232	777.1962	15507	14562.8
836.377	779.2697	15338.75	14390.5
836.522	781.3426	15430.1	14475
836.667	783.4147	15558.7	14610.15
836.8121	785.4862	15730.65	14784.5
836.9571	787.557	15644.2	14696.55
837.1021	789.6271	15220.45	14270.25
837.2472	791.6966	14634.25	13686.4
837.3922	793.7654	14056.7	13104.2
837.5373	795.8335	13697.7	12752.65
837.6823	797.901	13429.2	12483.15
837.8274	799.9678	13323.3	12374.4
837.9724	802.0339	13277.7	12327.65
838.1175	804.0993	13263.85	12303.3
838.2626	806.1641	13226.75	12277.25
838.4076	808.2282	13141.75	12194.8
838.5527	810.2916	13061.85	12114.35
838.6978	812.3544	12999.4	12055.75
838.8428	814.4164	12925.7	11977.9
838.9879	816.4778	12963.9	12014.05
839.133	818.5385	12983.2	12028.2
839.2781	820.5986	13098.3	12146.1
839.4232	822.658	13310.85	12358.95
839.5682	824.7166	13541.85	12589.2
839.7133	826.7747	13997.4	13045.75
839.8584	828.832	14378.55	13427.05
840.0035	830.8886	14635.55	13681.65
840.1486	832.9446	14832.85	13875.95
840.2937	834.9999	14750.1	13800
840.4388	837.0545	14562.55	13606.95
840.5839	839.1085	14323.95	13368.9
840.729	841.1618	14132.1	13174.25
840.8741	843.2143	13972	13018.9
841.0192	845.2662	13813.6	12858.3
841.1643	847.3175	13688.25	12737.7
841.3095	849.368	13593.75	12639.05
841.4546	851.4179	13472.5	12518.25
841.5997	853.467	13371.1	12418.5
841.7448	855.5155	13291.65	12339
841.8899	857.5633	13201.1	12249.75
842.0351	859.6105	13116.55	12162.55
842.1802	861.6569	13068.15	12112.65
842.3253	863.7027	12998.95	12045.95
842.4704	865.7478	12958.55	12001.8
842.6156	867.7922	12940.65	11987.7
842.7607	869.8359	12948.2	11992.65
842.9058	871.8789	13011.4	12055.85
843.0509	873.9212	13152.2	12164.15
843.1961	875.9629	13241	12279.4
843.3412	878.0039	13387.3	12434.8
843.4863	880.0441	13476.5	12522.1
843.6315	882.0837	13540.1	12588.45
843.7766	884.1226	13534.55	12578.7
843.9218	886.1609	13526.6	12573.5
844.0669	888.1984	13530.4	12572.7
844.212	890.2352	13627.65	12673.85
844.3572	892.2714	13626.1	12667.5
844.5023	894.3069	13566.15	12611.95
844.6475	896.3416	13429.2	12472.8
844.7926	898.3757	13361.2	12404.1
844.9377	900.4091	13284.55	12324.85
845.0829	902.4418	13288.65	12324.65
845.228	904.4739	13305.4	12347.3
845.3732	906.5052	13345.05	12387.8
845.5183	908.5358	13301.25	12340.9
845.6635	910.5658	13162.85	12200.35
845.8086	912.595	12950.25	11991.25
845.9538	914.6236	12774.5	11814
846.0989	916.6515	12703.7	11747.25
846.2441	918.6786	12630.3	11668.2
846.3892	920.7051	12664.65	11701.75
846.5344	922.7309	12733.95	11776.8
846.6795	924.756	12735.8	11777.65
846.8246	926.7804	12838.15	11884
846.9698	928.8041	12837.4	11876.65
847.1149	930.8272	12858.3	11896.8
847.2601	932.8495	12826.35	11865.9
847.4052	934.8711	12812.65	11850.25
847.5504	936.892	12707.1	11749.95
847.6955	938.9123	12644.4	11684.3
847.8407	940.9318	12638.85	11678.5
847.9858	942.9506	12586.3	11628.2
848.131	944.9688	12500.5	11544.1
848.2761	946.9862	12441.25	11482.75
848.4213	949.003	12318.15	11360.9
848.5664	951.019	12266.15	11308.45
848.7115	953.0344	12231.25	11275.25
848.8567	955.0491	12248.15	11289.35
849.0018	957.063	12296.6	11338.8
849.147	959.0763	12397.05	11439.95
849.2921	961.0888	12419.9	11463
849.4373	963.1007	12496.8	11541.6
849.5824	965.1119	12543.95	11597.2
849.7275	967.1223	12529.5	11593.25
849.8727	969.1321	12516.55	11574.95
850.0178	971.1412	12541	11594
850.1629	973.1495	12553.55	11601.05
850.3081	975.1572	12605.3	11599.95
850.4532	977.1641	12581.25	11625
850.5983	979.1704	12549.15	11590.1
850.7435	981.1759	12512.55	11551.25
850.8886	983.1808	12593.85	11636.55
851.0337	985.1849	12638.55	11669.25
851.1788	987.1884	12724.6	11768.1
851.324	989.1911	12839.05	11879.35
851.4691	991.1932	12939.15	11981.75
851.6142	993.1945	12971.95	12016.9
851.7593	995.1951	12921.15	11961.9
851.9045	997.1951	12925.15	11960.75
852.0496	999.1943	12836.65	11877.1
852.1947	1001.1928	12813.15	11853.75
852.3398	1003.1906	12872.2	11913
852.4849	1005.1877	12950.65	11989.2
852.63	1007.1841	12996.85	12040.75
852.7751	1009.1798	12983.05	12029.1
852.9202	1011.1748	12863.85	11911.8
853.0653	1013.1691	12687.65	11727.85
853.2104	1015.1627	12453.45	11498.75
853.3555	1017.1556	12263.9	11309.7
853.5006	1019.1477	12156.3	11201.55
853.6457	1021.1392	12033.25	11087.2
853.7908	1023.1299	11995.2	11049.25
853.9359	1025.12	12024.15	11086.8
854.081	1027.1093	12076.6	11153.85
854.2261	1029.0979	12177.95	11255.15
854.3712	1031.0859	12239.3	11310.55
854.5163	1033.0731	12296.5	11358.2
854.6613	1035.0596	12248.9	11301.25
854.8064	1037.0454	12116.5	11167.25
854.9515	1039.0304	12032.4	11080.3
855.0965	1041.0148	11887.85	10932.75
855.2416	1042.9985	11789.2	10838.3
855.3867	1044.9814	11740.4	10791.05
855.5317	1046.9636	11701.9	10748.5
855.6768	1048.9452	11670.55	10722.85
855.8219	1050.926	11712.75	10757.3
855.9669	1052.9061	11721.15	10770.3
856.112	1054.8855	11742.3	10783.9
856.257	1056.8642	11777.8	10820.85
856.4021	1058.8421	11860.35	10901.55
856.5471	1060.8194	11859.35	10903
856.6921	1062.7959	11939.05	10986
856.8372	1064.7717	11962.85	11009.6
856.9822	1066.7469	12012.55	11056.05
857.1272	1068.7213	12060.25	11104.5
857.2723	1070.695	12107.2	11154.7
857.4173	1072.6679	12071.35	11118.4
857.5623	1074.6402	12070.45	11114.2
857.7073	1076.6117	12044.6	11083.25
857.8523	1078.5826	11984.1	11029.9
857.9973	1080.5527	11899.15	10942.5
858.1423	1082.5221	11895.55	10939.6
858.2873	1084.4908	11936.65	10983.6
858.4323	1086.4587	12027.3	11072
858.5773	1088.426	12104.25	11148.75
858.7223	1090.3925	12109.25	11150.3
858.8673	1092.3584	12119.65	11164.25
859.0123	1094.3235	12086.85	11132.5
859.1573	1096.2879	12100.15	11140.65
859.3022	1098.2515	12151.25	11196.25
859.4472	1100.2145	12306.25	11353.65
859.5922	1102.1767	12460.55	11505.75
859.7371	1104.1382	12652.1	11698.55
859.8821	1106.099	12877.35	11921.65
860.027	1108.0591	13073.2	12118.15
860.172	1110.0185	13239.5	12284.25
860.3169	1111.9771	13322.5	12367.1
860.4619	1113.9351	13172.7	12219.2
860.6068	1115.8923	12996.05	12042.05
860.7517	1117.8488	12797.8	11843.15
860.8967	1119.8045	12530.9	11578.05
861.0416	1121.7596	12404.45	11449.45
861.1865	1123.7139	12299.9	11349.85
861.3314	1125.6675	12302.75	11351.65
861.4763	1127.6204	12353.65	11405.75
861.6212	1129.5726	12304.15	11349.4
861.7661	1131.524	12251.3	11298.7
861.911	1133.4748	12140.85	11188.2
862.0559	1135.4248	12018.7	11064.75
862.2008	1137.3741	11897.15	10946.35
862.3457	1139.3226	11844.15	10891.6
862.4905	1141.2705	11789.2	10836.4
862.6354	1143.2176	11695.95	10737.75
862.7803	1145.164	11669.35	10713.65
862.9251	1147.1097	11598.45	10645
863.07	1149.0546	11559.65	10606.95
863.2148	1150.9989	11485.9	10531.3
863.3597	1152.9424	11364.05	10411.55
863.5045	1154.8852	11272.8	10319.85
863.6493	1156.8272	11191.95	10238.45
863.7942	1158.7686	11188.35	10227.2
863.939	1160.7092	11169.95	10213.35
864.0838	1162.6491	11214.35	10255.45
864.2286	1164.5883	11318.85	10363.8
864.3734	1166.5267	11386.2	10433.15
864.5182	1168.4644	11552.7	10600.4
864.663	1170.4014	11764.7	10813.1
864.8078	1172.3377	12021.8	11075.4
864.9526	1174.2732	12269.1	11320.65
865.0974	1176.2081	12653.55	11699.55
865.2421	1178.1421	13040.45	12085.2
865.3869	1180.0755	13467.5	12516.15
865.5317	1182.0082	13737.75	12790.25
865.6764	1183.9401	13849.5	12898.4
865.8212	1185.8713	13689.5	12747.35
865.9659	1187.8017	13400.55	12462.75
866.1106	1189.7315	13080.8	12155.1
866.2554	1191.6605	12722.85	11794.3
866.4001	1193.5888	12476.15	11540.65
866.5448	1195.5163	12321.95	11380.8
866.6895	1197.4432	12242.6	11296.4
866.8342	1199.3693	12196.9	11249.6
866.9789	1201.2947	12159.95	11201.8
867.1236	1203.2193	12142.6	11191.95
867.2683	1205.1432	12182.25	11237.7
867.413	1207.0664	12136.45	11189.1
867.5576	1208.9889	12103.6	11151.75
867.7023	1210.9106	12130.15	11183.3
867.847	1212.8316	12140.8	11192.95
867.9916	1214.7519	12204.4	11246.7
868.1363	1216.6715	12188.1	11242
868.2809	1218.5903	12241	11294.75
868.4255	1220.5084	12292.15	11345.25
868.5701	1222.4257	12358.65	11410.4
868.7148	1224.3424	12347.7	11401.4
868.8594	1226.2583	12473.6	11525.2
869.004	1228.1735	12581.3	11634.8
869.1486	1230.0879	12696.65	11749.8
869.2932	1232.0016	12825.15	11878.35
869.4377	1233.9146	12934.5	11986.05
869.5823	1235.8269	12896	11947.55
869.7269	1237.7384	12799.45	11849.95
869.8715	1239.6492	12673.2	11725.6
870.016	1241.5592	12626.4	11676.1
870.1606	1243.4686	12564.75	11617.1
870.3051	1245.3772	12674.25	11726.3
870.4496	1247.285	12803	11856.55
870.5941	1249.1922	12877.6	11929.9
870.7387	1251.0986	12960.25	12014.95
870.8832	1253.0042	13016.05	12070.2
871.0277	1254.9092	13070.5	12128.45
871.1722	1256.8134	13152.9	12208.1
871.3167	1258.7169	13330.7	12384.65
871.4611	1260.6196	13465.35	12522.8
871.6056	1262.5216	13686	12738.9
871.7501	1264.4229	13896.75	12953.85
871.8945	1266.3234	14062.15	13115.8
872.039	1268.2232	14189.85	13243.15
872.1834	1270.1223	14209.6	13259.75
872.3278	1272.0207	14249.85	13298.75
872.4723	1273.9183	14227.3	13275.95
872.6167	1275.8151	14156.6	13212.75
872.7611	1277.7113	14134.8	13191.35
872.9055	1279.6067	14116.65	13175.65
873.0499	1281.5014	14215.35	13272.05
873.1943	1283.3953	14439.25	13490.45
873.3386	1285.2885	14740.7	13794.25
873.483	1287.181	15086.95	14143.65
873.6274	1289.0727	15414.15	14473.3
873.7717	1290.9637	15607.8	14664.9
873.9161	1292.854	15803.5	14858.95
874.0604	1294.7435	15843.9	14896.4
874.2047	1296.6323	15847.8	14905.3
874.349	1298.5204	15839.3	14890.4
874.4933	1300.4077	15816.2	14868.75
874.6376	1302.2943	15714.6	14770.85
874.7819	1304.1802	15511.15	14565.55
874.9262	1306.0653	15184.5	14237.95
875.0705	1307.9497	14821.9	13878
875.2147	1309.8333	14497.65	13553.1
875.359	1311.7162	14293.45	13349.9
875.5032	1313.5984	14159.05	13212.6
875.6475	1315.4798	14093.55	13136.05
875.7917	1317.3605	14071.4	13112.45
875.9359	1319.2405	14008.25	13061.8
876.0801	1321.1197	13817.05	12868.8
876.2243	1322.9982	13614.4	12664
876.3685	1324.876	13411.1	12467.9
876.5127	1326.753	13168.95	12225.9
876.6569	1328.6293	13035.75	12088.3
876.801	1330.5048	12960.7	12013.15
876.9452	1332.3796	12829.1	11882.45
877.0893	1334.2537	12784.05	11812.75
877.2335	1336.127	12695.75	11751.15
877.3776	1337.9996	12660.15	11719.4
877.5217	1339.8714	12691.25	11750.7
877.6658	1341.7426	12712.75	11720.75
877.8099	1343.6129	12671.6	11724.1
877.954	1345.4826	12640	11693.3
878.0981	1347.3515	12656.9	11706.2
878.2422	1349.2196	12625.45	11678.3
878.3862	1351.087	12665.65	11718.85
878.5303	1352.9537	12705.55	11758.7
878.6743	1354.8197	12811.5	11865.1
878.8184	1356.6849	12968.4	12023.65
878.9624	1358.5493	13132.25	12185.4
879.1064	1360.4131	13288.4	12345.85
879.2504	1362.276	13316.95	12375.55
879.3944	1364.1383	13259.55	12313.75
879.5384	1365.9998	13057.7	12110.15
879.6823	1367.8606	12688.9	11742.35
879.8263	1369.7206	12343.75	11399.45
879.9702	1371.5799	12047.35	11098.4
880.1142	1373.4384	11820.2	10875.5
880.2581	1375.2962	11584.2	10637.6
880.402	1377.1533	11271.7	10331.4
880.5459	1379.0096	10951.25	10014.2
880.6898	1380.8652	10612.65	9674.15
880.8337	1382.7201	10311.7	9372.55
880.9776	1384.5742	10070.25	9128.55
881.1215	1386.4275	9883.7	8941.05
881.2653	1388.2802	9739.65	8794.8
881.4092	1390.132	9647.25	8702.35
881.553	1391.9832	9566.4	8623.05
881.6968	1393.8336	9486.65	8543.95
881.8406	1395.6832	9436.8	8491
881.9844	1397.5322	9385.35	8442.85
882.1282	1399.3803	9372.35	8423.75
882.272	1401.2278	9327.7	8386.2
882.4158	1403.0745	9333.7	8393.55
882.5595	1404.9204	9301.3	8361
882.7033	1406.7656	9332.25	8393.9
882.847	1408.6101	9353.8	8409.15
882.9908	1410.4538	9353.6	8413.55
883.1345	1412.2968	9401.75	8461.95
883.2782	1414.139	9443.9	8498.85
883.4219	1415.9805	9511.4	8570.55
883.5656	1417.8213	9611.6	8665.75
883.7092	1419.6613	9695.05	8757.05
883.8529	1421.5006	9839.7	8899.2
883.9965	1423.3391	10092.55	9150.1
884.1402	1425.1769	10352.15	9407.8
884.2838	1427.0139	10821.8	9876.25
884.4274	1428.8502	11386.35	10444.05
884.571	1430.6858	11922.8	10981.75
884.7146	1432.5206	12272.25	11333.2
884.8582	1434.3547	12519.55	11578.65
885.0018	1436.188	12539.55	11597.25
885.1453	1438.0206	12442.7	11505.1
885.2889	1439.8524	12270.1	11333.15
885.4324	1441.6835	12185.85	11243.4
885.5759	1443.5139	12048.25	11104.85
885.7194	1445.3435	11987.15	11049.3
885.8629	1447.1724	11951.55	11011.25
886.0064	1449.0005	11890.45	10953.6
886.1499	1450.8279	11824.85	10887.6
886.2933	1452.6545	11818.6	10881.65
886.4368	1454.4804	11829.6	10892.75
886.5802	1456.3056	11802.55	10858.25
886.7237	1458.13	11733.6	10799.8
886.8671	1459.9536	11536.95	10597.5
887.0105	1461.7766	11245.55	10309.9
887.1539	1463.5987	10898.05	9958.85
887.2972	1465.4202	10541.15	9601.8
887.4406	1467.2409	10199.9	9258.55
887.584	1469.0608	9940.15	9002
887.7273	1470.88	9661.1	8720.55
887.8706	1472.6984	9425.65	8490.2
888.0139	1474.5161	9220.9	8284.75
888.1572	1476.3331	9057.15	8120.9
888.3005	1478.1493	8936.15	8000.05
888.4438	1479.9648	8840.05	7903.2
888.5871	1481.7795	8756.05	7815.7
888.7303	1483.5935	8704.35	7764.85
888.8736	1485.4067	8624.3	7683.9
889.0168	1487.2192	8602.7	7667.65
889.16	1489.031	8553.85	7614.55
889.3032	1490.842	8488.7	7550.6
889.4464	1492.6522	8462.15	7523.35
889.5896	1494.4618	8409.2	7471.4
889.7327	1496.2705	8391.05	7455.35
889.8759	1498.0785	8365.85	7428.4
890.019	1499.8858	8320.4	7385.05
890.1622	1501.6924	8273.1	7337.3
890.3053	1503.4981	8247.6	7310.95
890.4484	1505.3032	8200.65	7265.85
890.5914	1507.1075	8161.15	7225.45
890.7345	1508.911	8119.95	7184.5
890.8776	1510.7138	8093.35	7157.1
891.0206	1512.5159	8050.55	7111.55
891.1637	1514.3172	7977.5	7045.2
891.3067	1516.1178	7918.35	6983.45
891.4497	1517.9176	7896.2	6958.1
891.5927	1519.7166	7859.75	6925.5
891.7357	1521.515	7835.3	6894.25
891.8786	1523.3126	7818.3	6886.15
892.0216	1525.1094	7785	6848.45
892.1645	1526.9055	7751.6	6818.1
892.3074	1528.7008	7730.5	6799.65
892.4503	1530.4954	7680.2	6746.6
892.5932	1532.2893	7651.5	6724.55
892.7361	1534.0824	7628.2	6697.05
892.879	1535.8747	7643.45	6718.05
893.0218	1537.6663	7622.6	6696.2
893.1647	1539.4572	7599.6	6666.65
893.3075	1541.2473	7620.45	6690.1
893.4503	1543.0367	7607.7	6677.25
893.5931	1544.8253	7590.25	6657.6
893.7359	1546.6132	7635.55	6705
893.8787	1548.4003	7654	6715.45
894.0214	1550.1867	7672.5	6736.2
894.1642	1551.9723	7721.3	6790.7
894.3069	1553.7572	7785.1	6858.75
894.4496	1555.5414	7868	6940.5
894.5923	1557.3247	8003.5	7079.4
894.735	1559.1074	8122.5	7202.15
894.8777	1560.8893	8247.9	7323.4
895.0204	1562.6705	8356.3	7433.5
895.163	1564.4509	8484.65	7565
895.3056	1566.2305	8529.6	7610.65
895.4482	1568.0094	8588.25	7669.45
895.5908	1569.7876	8594.4	7672
895.7334	1571.565	8571.45	7647.1
895.876	1573.3417	8559	7637.05
896.0186	1575.1176	8529.8	7609.1
896.1611	1576.8928	8511	7592.6
896.3036	1578.6672	8461	7550.6
896.4461	1580.4409	8438.25	7526.05
896.5886	1582.2138	8422.4	7504.7
896.7311	1583.986	8410.1	7492.15
896.8736	1585.7575	8446.05	7527.3
897.0161	1587.5282	8442.3	7527.5
897.1585	1589.2981	8501	7589.85
897.3009	1591.0673	8552.3	7639.8
897.4433	1592.8358	8630.7	7719.9
897.5857	1594.6035	8693.3	7774.7
897.7281	1596.3704	8752.5	7835.75
897.8705	1598.1366	8830.3	7913
898.0128	1599.9021	8891.2	7977.6
898.1551	1601.6668	8998	8078.7
898.2975	1603.4308	9128.15	8209.8
898.4398	1605.194	9270.85	8354
898.5821	1606.9564	9430.75	8525
898.7243	1608.7182	9652.1	8746.2
898.8666	1610.4791	9887.35	8985.35
899.0088	1612.2394	10132.8	9233.9
899.1511	1613.9988	10402.35	9501.25
899.2933	1615.7576	10672.6	9764.95
899.4355	1617.5156	10852.95	9933.1
899.5776	1619.2728	10976.65	10058
899.7198	1621.0293	10941.8	10027.45
899.862	1622.785	10822.75	9906.15
900.0041	1624.54	10584.15	9675.8
900.1462	1626.2942	10323.65	9417.3
900.2883	1628.0477	9953.05	9041.9
900.4304	1629.8005	9655.65	8745.7
900.5725	1631.5525	9398.45	8493.1
900.7145	1633.3037	9181.9	8275.2
900.8566	1635.0542	8964.15	8054.4
900.9986	1636.804	8833.85	7924.2
901.1406	1638.553	8823.8	7825.45
901.2826	1640.3013	8689.55	7781.45
901.4245	1642.0488	8666.1	7756.7
901.5665	1643.7955	8695.1	7792.15
901.7085	1645.5416	8766.35	7861.15
901.8504	1647.2868	8875	7966.35
901.9923	1649.0313	8961.7	8054.1
902.1342	1650.7751	9100.15	8188.5
902.2761	1652.5181	9248.75	8343.85
902.4179	1654.2604	9465.4	8562.85
902.5598	1656.0019	9660.15	8756.05
902.7016	1657.7427	9939.6	9033.45
902.8434	1659.4828	10236.25	9328.25
902.9852	1661.222	10374.5	9463.1
903.127	1662.9606	10348.85	9438.5
903.2687	1664.6984	10092.9	9181.6
903.4105	1666.4354	9675.2	8762.55
903.5522	1668.1717	9155.4	8242.5
903.6939	1669.9072	8551.75	7638.15
903.8356	1671.642	8085.05	7171.15
903.9773	1673.3761	7701.75	6791.45
904.119	1675.1094	7389.6	6481.7
904.2606	1676.8419	7150.35	6242.05
904.4022	1678.5737	6950.85	6040.1
904.5439	1680.3048	6793.35	5882.2
904.6855	1682.0351	6667.4	5760.7
904.827	1683.7646	6578.5	5668.2
904.9686	1685.4934	6474.1	5568.25
905.1101	1687.2215	6384.75	5476.3
905.2517	1688.9488	6329.8	5425.25
905.3932	1690.6754	6247.25	5342.9
905.5347	1692.4012	6215.5	5308.5
905.6761	1694.1263	6146.25	5239
905.8176	1695.8506	6145.3	5236.45
905.9591	1697.5742	6071.3	5167.35
906.1005	1699.297	6057.2	5155.9
906.2419	1701.0191	5986.4	5085.5
906.3833	1702.7404	5969.6	5068.1
906.5246	1704.461	5912	5006.65
906.666	1706.1808	5891.55	4985.15
906.8073	1707.8999	5857.8	4953.2
906.9487	1709.6182	5836.4	4937.35
907.09	1711.3358	5816.95	4917.95
907.2313	1713.0527	5791.25	4896.15
907.3725	1714.7688	5754.95	4849.45
907.5138	1716.4841	5712.25	4810.8
907.655	1718.1987	5726.2	4817.4
907.7962	1719.9126	5675.5	4776.6
907.9374	1721.6257	5651.4	4754.75
908.0786	1723.338	5645.85	4748
908.2198	1725.0496	5608.55	4708.8
908.3609	1726.7605	5599.95	4696.6
908.502	1728.4706	5588.05	4688.55
908.6431	1730.18	5556.25	4657
908.7842	1731.8886	5524.5	4627.6
908.9253	1733.5964	5534.2	4614.8
909.0664	1735.3036	5514.95	4612.2
909.2074	1737.0099	5478.9	4578.65
909.3484	1738.7156	5457.25	4560.25
909.4894	1740.4204	5426.3	4523.7
909.6304	1742.1246	5414.35	4510.35
909.7714	1743.8279	5387.9	4489.7
909.9123	1745.5306	5366.45	4468.8
910.0532	1747.2325	5342.15	4447.2
910.1941	1748.9336	5316.8	4417.9
910.335	1750.634	5302.6	4400.85
910.4759	1752.3336	5297.25	4399.1
910.6168	1754.0325	5281.9	4387.5
910.7576	1755.7307	5247.65	4351.5
910.8984	1757.4281	5250.3	4352
911.0392	1759.1247	5253.4	4343.5
911.18	1760.8206	5224.05	4320.1
911.3208	1762.5158	5219.9	4314.8
911.4615	1764.2102	5196.3	4295.9
911.6022	1765.9039	5175.7	4278.1
911.7429	1767.5968	5159	4266.3
911.8836	1769.289	5146.3	4250
912.0243	1770.9804	5140.55	4242.65
912.1649	1772.6711	5148.65	4244.8
912.3056	1774.361	5137.6	4237.1
912.4462	1776.0502	5118.05	4216
912.5868	1777.7386	5091.75	4188.6
912.7274	1779.4263	5079.9	4182.25
912.8679	1781.1132	5060.95	4166.15
913.0084	1782.7994	5066.4	4170.95
913.149	1784.4849	5036.05	4140.7
913.2895	1786.1696	5035.95	4125.35
913.4299	1787.8535	5014.65	4121.5
913.5704	1789.5367	5020.8	4128.25
913.7108	1791.2192	5004.75	4111.85
913.8513	1792.9009	5017	4093.95
913.9917	1794.5818	4980.75	4080.55
914.132	1796.2621	4984.75	4086.7
914.2724	1797.9415	4965.25	4068.35
914.4128	1799.6202	4933.1	4033.75
914.5531	1801.2982	4954.1	4054.3
914.6934	1802.9755	4932.65	4030.65
914.8337	1804.6519	4920.5	4019.8
914.9739	1806.3277	4900.5	4003.4
915.1142	1808.0027	4881.6	3988.5
915.2544	1809.6769	4884.1	3992.7
915.3946	1811.3504	4870.2	3974.85
915.5348	1813.0231	4852.25	3962.85
915.675	1814.6951	4857.05	3963.1
915.8151	1816.3664	4842.05	3945.1
915.9553	1818.0369	4828	3929.45
916.0954	1819.7067	4816.6	3919.45
916.2355	1821.3757	4812.5	3911.9
916.3755	1823.044	4820.25	3922.65
916.5156	1824.7115	4810.8	3909.25
916.6556	1826.3783	4795.9	3898.7
916.7956	1828.0443	4768.45	3871.8
916.9356	1829.7096	4749.05	3853.15
917.0756	1831.3741	4769.95	3869.85
917.2155	1833.0379	4737.25	3845.05
917.3555	1834.701	4722.2	3829.5
917.4954	1836.3633	4740.85	3849.55
917.6353	1838.0248	4710.85	3817.4
917.7751	1839.6856	4699.15	3805.5
917.915	1841.3457	4697.2	3800.85
918.0548	1843.005	4693.5	3797.5
918.1946	1844.6636	4692.15	3796.55
918.3344	1846.3214	4681.75	3787.5
918.4742	1847.9785	4678.25	3784.4
918.6139	1849.6349	4662.1	3763.65
918.7537	1851.2904	4662.45	3754.85
918.8934	1852.9453	4635.4	3734.9
919.0331	1854.5994	4636.55	3738.2
919.1727	1856.2528	4638.75	3736.15
919.3124	1857.9054	4629.25	3731.45
919.452	1859.5572	4617.25	3723.1
919.5916	1861.2083	4601.35	3704.4
919.7312	1862.8587	4609.35	3711.35
919.8708	1864.5084	4596.7	3696.55
920.0103	1866.1572	4591.75	3693.1
920.1498	1867.8054	4573.85	3675.8
920.2893	1869.4528	4552.95	3654.05
920.4288	1871.0994	4555.2	3654.05
920.5683	1872.7453	4532.4	3634.05
920.7077	1874.3905	4522.95	3619.5
920.8471	1876.0349	4530.7	3631.6
920.9865	1877.6786	4524.35	3627.3
921.1259	1879.3215	4500.05	3604.5
921.2653	1880.9637	4490.7	3595.7
921.4046	1882.6051	4480.85	3586.45
921.5439	1884.2458	4488.9	3591.05
921.6832	1885.8858	4458.95	3565.55
921.8225	1887.525	4450.75	3553.95
921.9617	1889.1634	4440.9	3543.2
922.101	1890.8011	4438.3	3539.6
922.2402	1892.4381	4413.7	3516.8
922.3794	1894.0743	4416.1	3519.9
922.5185	1895.7098	4410.4	3511.7
922.6577	1897.3446	4402.5	3503.15
922.7968	1898.9786	4391.85	3489.25
922.9359	1900.6118	4368.15	3474.7
923.075	1902.2443	4353.25	3457.55
923.214	1903.8761	4366.05	3472.4
923.3531	1905.5071	4329.55	3433.95
923.4921	1907.1374	4311.8	3416.25
923.6311	1908.7669	4313.35	3416.3
923.77	1910.3957	4313.6	3418.4
923.909	1912.0237	4296.6	3400.15
924.0479	1913.651	4287	3388.85
924.1868	1915.2776	4288.85	3395.75
924.3257	1916.9034	4261.3	3367.6
924.4646	1918.5285	4242.55	3350.35
924.6034	1920.1528	4234.05	3337.25
924.7422	1921.7764	4221.3	3327.65
924.881	1923.3992	4195.9	3302.2
925.0198	1925.0213	4198.8	3303.9
925.1586	1926.6427	4180.75	3288.1
925.2973	1928.2633	4247.8	3273.6
925.436	1929.8832	4169.95	3274.25
925.5747	1931.5023	4151.45	3255.95
925.7134	1933.1207	4140	3243.7
925.852	1934.7383	4147.95	3253.65
925.9906	1936.3552	4110.4	3217.45
926.1292	1937.9714	4099.55	3206.6
926.2678	1939.5868	4088.5	3190.75
926.4064	1941.2015	4095.9	3197.95
926.5449	1942.8154	4072.4	3176.5
926.6834	1944.4286	4070.9	3175.75
926.8219	1946.041	4057.3	3146.1
926.9604	1947.6528	4025.35	3125.1
927.0988	1949.2637	4015.3	3122.95
927.2372	1950.8739	4003	3107.7
927.3756	1952.4834	4001.15	3108.25
927.514	1954.0921	4002.85	3109.35
927.6523	1955.7001	3984.55	3085.05
927.7907	1957.3074	3975.9	3086.5
927.929	1958.9139	3976.9	3086.45
928.0673	1960.5197	3961.5	3067.85
928.2055	1962.1247	3950.85	3059.15
928.3438	1963.729	3926.25	3035.55
928.482	1965.3325	3908.9	3013.9
928.6202	1966.9353	3892.5	3003.6
928.7584	1968.5374	3890.45	3000.4
928.8965	1970.1387	3874.25	2982.4
929.0346	1971.7393	3862.85	2972.35
929.1727	1973.3392	3852	2962.8
929.3108	1974.9383	3839.3	2951.3
929.4489	1976.5366	3830.95	2944.1
929.5869	1978.1342	3829	2942.15
929.7249	1979.7311	3836	2948.1
929.8629	1981.3273	3813.35	2924.35
930.0009	1982.9227	3807.25	2920.3
930.1388	1984.5173	3788	2901.5
930.2767	1986.1112	3773.1	2886.9
930.4146	1987.7044	3785.4	2900.75
930.5525	1989.2968	3756.8	2867.15
930.6904	1990.8885	3753.35	2862.45
930.8282	1992.4795	3744	2856.4
930.966	1994.0697	3730.9	2844.6
931.1038	1995.6592	3731.8	2845.9
931.2415	1997.2479	3719	2829.7
931.3793	1998.8359	3719.95	2834.5
931.517	2000.4232	3700.05	2819.65
931.6547	2002.0097	3688.5	2808.2
931.7923	2003.5955	3671.45	2788.1
931.93	2005.1805	3671.3	2787.2
932.0676	2006.7648	3657.35	2774.65
932.2052	2008.3484	3644.3	2761.15
932.3427	2009.9312	3654.95	2772.95
932.4803	2011.5133	3637.6	2757.05
932.6178	2013.0946	3622.25	2741.4
932.7553	2014.6752	3618.75	2735.85
932.8928	2016.2551	3615.75	2731.1
933.0302	2017.8342	3613.8	2728.95
933.1676	2019.4126	3601.95	2719.8
933.305	2020.9902	3579.3	2699.9
933.4424	2022.5672	3586.6	2703.8
933.5798	2024.1433	3585.75	2703.35
933.7171	2025.7188	3567.6	2688.6
933.8544	2027.2935	3571.3	2692.9
933.9917	2028.8674	3546.85	2668.05
934.129	2030.4406	3527.65	2649.95
934.2662	2032.0131	3520.25	2643.25
934.4034	2033.5849	3527.45	2640.95
934.5406	2035.1559	3495.7	2617.35
934.6778	2036.7261	3511.75	2631
934.8149	2038.2957	3504.55	2618.6
934.952	2039.8645	3503.15	2615.45
935.0891	2041.4325	3495.4	2607
935.2262	2042.9998	3481.95	2601.65
935.3632	2044.5664	3468	2583.8
935.5002	2046.1323	3461.9	2581
935.6372	2047.6974	3459.65	2579.7
935.7742	2049.2617	3443.6	2564.4
935.9111	2050.8254	3449.8	2545.65
936.048	2052.3883	3433.65	2547.95
936.1849	2053.9504	3418	2531
936.3218	2055.5118	3423.85	2537.1
936.4586	2057.0725	3421.15	2533.9
936.5955	2058.6325	3408.05	2526.45
936.7323	2060.1917	3396.25	2516.1
936.869	2061.7502	3405.85	2522.9
937.0058	2063.3079	3382	2504.5
937.1425	2064.8649	3382.9	2498.75
937.2792	2066.4212	3372.8	2489.9
937.4159	2067.9767	3368.1	2486
937.5525	2069.5315	3361.35	2476.9
937.6891	2071.0856	3347.15	2465.05
937.8257	2072.6389	3332.5	2453.45
937.9623	2074.1915	3319.2	2440
938.0989	2075.7433	3312.5	2428.55
938.2354	2077.2945	3316.45	2436.65
938.3719	2078.8448	3308	2424.1
938.5084	2080.3945	3296.35	2411.05
938.6448	2081.9434	3298.9	2412.6
938.7812	2083.4916	3294.3	2405.7
938.9176	2085.039	3288.2	2395.65
939.054	2086.5857	3276.55	2381.25
939.1903	2088.1317	3273.25	2380.2
939.3267	2089.677	3269.95	2377.7
939.463	2091.2215	3262.2	2370.05
939.5992	2092.7652	3267.2	2371.3
939.7355	2094.3083	3238.4	2347.3
939.8717	2095.8506	3239.15	2351.85
940.0079	2097.3921	3251.9	2363
940.1441	2098.933	3227.35	2339.85
940.2802	2100.4731	3219.8	2331.8
940.4163	2102.0124	3231.7	2333.5
940.5524	2103.5511	3224.7	2334.35
940.6885	2105.089	3193.6	2304.4
940.8245	2106.6261	3200.45	2312.4
940.9606	2108.1626	3186.2	2295.95
941.0965	2109.6983	3205.7	2290.25
941.2325	2111.2332	3187.95	2300.55
941.3684	2112.7675	3171.75	2279.5
941.5044	2114.301	3156.9	2268.1
941.6403	2115.8337	3166.3	2277.5
941.7761	2117.3657	3158.85	2270.6
941.912	2118.897	3142.8	2253.25
942.0478	2120.4276	3148.55	2252.9
942.1835	2121.9575	3132.3	2243.75
942.3193	2123.4866	3133.7	2243.1
942.455	2125.0149	3129.2	2239.5
942.5907	2126.5426	3117.3	2234.4
942.7264	2128.0695	3100.85	2214.95
942.8621	2129.5956	3096.5	2217.95
942.9977	2131.1211	3093.85	2204.75
943.1333	2132.6458	3087.05	2200.6
943.2689	2134.1698	3075.75	2185.3
943.4044	2135.693	3082.35	2188.45
943.54	2137.2155	3083.5	2188.15
943.6755	2138.7373	3069.05	2181.15
943.8109	2140.2584	3073.25	2189.15
943.9464	2141.7787	3053.15	2166.65
944.0818	2143.2983	3045.65	2166.95
944.2172	2144.8171	3026.05	2145.15
944.3526	2146.3353	3023.65	2139.55
944.4879	2147.8527	3016.5	2132.2
944.6232	2149.3693	3023.35	2135.75
944.7585	2150.8853	3000.95	2111.1
944.8938	2152.4005	3000.85	2111.1
945.029	2153.9149	3005.1	2115.85
945.1642	2155.4287	2996.95	2106
945.2994	2156.9417	2984.65	2095.9
945.4346	2158.454	2983.95	2096.1
945.5697	2159.9655	2970.6	2086.5
945.7048	2161.4764	2974	2091.5
945.8399	2162.9865	2961.05	2074.6
945.9749	2164.4958	2952.5	2068.35
946.1099	2166.0045	2946.5	2060.5
946.2449	2167.5124	2948.5	2061.35
946.3799	2169.0195	2949.55	2060.4
946.5148	2170.526	2945.85	2056.95
946.6498	2172.0317	2937.1	2047.6
946.7846	2173.5367	2928.2	2039.5
946.9195	2175.0409	2919.7	2035.4
947.0543	2176.5445	2921.8	2035.15
947.1891	2178.0473	2929.65	2038.35
947.3239	2179.5494	2910.1	2017.1
947.4587	2181.0507	2901.4	2014
947.5934	2182.5513	2912.1	2024.2
947.7281	2184.0512	2892.85	2004.25
947.8628	2185.5504	2879.05	1992
947.9974	2187.0488	2868.8	1983.45
948.132	2188.5465	2866.25	1980.55
948.2666	2190.0435	2849.75	1963.25
948.4012	2191.5397	2853.35	1964.85
948.5357	2193.0353	2853	1962
948.6702	2194.5301	2847.85	1957.55
948.8047	2196.0241	2833.5	1940.15
948.9392	2197.5175	2828.8	1935
949.0736	2199.0101	2824.8	1927.6
949.208	2200.502	2816.5	1927.85
949.3424	2201.9931	2807.1	1920.8
949.4767	2203.4835	2798.85	1914.8
949.611	2204.9733	2797.65	1909.15
949.7453	2206.4622	2791.35	1909
949.8796	2207.9505	2777.35	1892.15
950.0138	2209.438	2765.1	1884.35
950.148	2210.9248	2757.55	1871.9
950.2822	2212.4109	2761.4	1873.4
950.4164	2213.8962	2759.2	1864.95
950.5505	2215.3809	2761.2	1866.9
950.6846	2216.8648	2748.2	1855.35
950.8186	2218.3479	2749.95	1850.8
950.9527	2219.8304	2741.65	1841.4
951.0867	2221.3121	2739.4	1844.05
951.2207	2222.7931	2740.4	1849.1
951.3546	2224.2733	2723.45	1830.9
951.4886	2225.7529	2702.6	1814.75
951.6225	2227.2317	2697.15	1807.55
951.7563	2228.7098	2692.95	1808.05
951.8902	2230.1872	2673.25	1789.4
952.024	2231.6638	2677.85	1794
952.1578	2233.1397	2669.4	1782.05
952.2916	2234.6149	2667.7	1780.8
952.4253	2236.0894	2666.55	1780.4
952.559	2237.5632	2681.7	1786.6
952.6927	2239.0362	2648.65	1762.7
952.8263	2240.5085	2641.95	1753.95
952.9599	2241.9801	2642.65	1754.1
953.0935	2243.4509	2642.25	1750.25
953.2271	2244.921	2643.3	1750.95
953.3606	2246.3904	2633.25	1738
953.4941	2247.8591	2619.65	1730
953.6276	2249.3271	2610.7	1721.2
953.7611	2250.7943	2609.05	1715.8
953.8945	2252.2608	2597.05	1705.35
954.0279	2253.7266	2610.75	1721.3
954.1612	2255.1917	2594	1703.9
954.2946	2256.656	2577.3	1690
954.4279	2258.1197	2576.4	1690.8
954.5612	2259.5826	2576.7	1688.9
954.6944	2261.0447	2576.15	1689.75
954.8276	2262.5062	2557.25	1666
954.9608	2263.9669	2561.75	1668.85
955.094	2265.4269	2562.25	1672.7
955.2271	2266.8862	2554.15	1665.5
955.3602	2268.3448	2559.15	1671.05
955.4933	2269.8026	2543.15	1656.85
955.6264	2271.2598	2533.5	1647.05
955.7594	2272.7162	2535.4	1649.05
955.8924	2274.1719	2527.15	1635.8
956.0253	2275.6268	2525.8	1632.15
956.1583	2277.0811	2538.2	1648.75
956.2912	2278.5346	2519.35	1631.1
956.4241	2279.9874	2508.25	1623.5
956.5569	2281.4395	2514.55	1632.55
956.6897	2282.8908	2519.4	1627.5
956.8225	2284.3414	2512.45	1619.55
956.9553	2285.7914	2497.25	1609.35
957.088	2287.2406	2499.85	1610.55
957.2207	2288.689	2494.2	1602.1
957.3534	2290.1368	2483	1588.05
957.486	2291.5838	2498.15	1603.3
957.6186	2293.0302	2485.8	1588.45
957.7512	2294.4758	2482.9	1590.35
957.8838	2295.9206	2466.65	1575.65
958.0163	2297.3648	2460.65	1570.75
958.1488	2298.8082	2460.15	1572.8
958.2813	2300.251	2456.85	1567.8
958.4137	2301.693	2439.8	1547.2
958.5461	2303.1343	2452.5	1560.8
958.6785	2304.5748	2433.4	1545.5
958.8108	2306.0147	2428.35	1542.7
958.9432	2307.4538	2434	1545.15
959.0754	2308.8922	2423.05	1538.35
959.2077	2310.3299	2423.9	1542.05
959.3399	2311.7669	2410.65	1524.6
959.4721	2313.2031	2405.1	1517.3
959.6043	2314.6387	2403.95	1517.1
959.7365	2316.0735	2396.05	1504.45
959.8686	2317.5076	2404.95	1513.35
960.0006	2318.941	2393.7	1501.9
960.1327	2320.3737	2384.2	1490.75
960.2647	2321.8056	2396.8	1503.2
960.3967	2323.2369	2383.7	1492.6
960.5287	2324.6674	2382.5	1490.05
960.6606	2326.0972	2381.6	1491.75
960.7925	2327.5263	2370.3	1481.95
960.9244	2328.9547	2368.45	1476.2
961.0562	2330.3823	2361.15	1467.1
961.1881	2331.8092	2360.7	1464.15
961.3198	2333.2355	2352.7	1459.55
961.4516	2334.661	2354.75	1462.5
961.5833	2336.0858	2350.85	1457.45
961.715	2337.5098	2342.8	1452.8
961.8467	2338.9332	2334.5	1446.25
961.9783	2340.3558	2326.35	1434.6
962.1099	2341.7778	2323.2	1436.35
962.2415	2343.199	2323.1	1431.45
962.373	2344.6195	2326.5	1437.85
962.5045	2346.0393	2306.8	1419
962.636	2347.4583	2318.8	1427.65
962.7675	2348.8767	2315.75	1424.55
962.8989	2350.2943	2314.85	1420.65
963.0303	2351.7113	2322.25	1425.8
963.1617	2353.1275	2309.65	1414.65
963.293	2354.543	2316.65	1415.6
963.4243	2355.9578	2289.3	1397.15
963.5556	2357.3718	2278.85	1389.2
963.6868	2358.7852	2278.5	1390
963.818	2360.1978	2278.3	1388.8
963.9492	2361.6098	2266.25	1379.95
964.0803	2363.021	2273.55	1379.15
964.2114	2364.4315	2272.85	1383.2
964.3425	2365.8413	2271.9	1381.35
964.4736	2367.2504	2255	1369.25
964.6046	2368.6587	2246.75	1357.55
964.7356	2370.0664	2257.05	1371.45
964.8666	2371.4733	2243.55	1355.5
964.9975	2372.8795	2230.95	1343.4
965.1284	2374.285	2233.8	1343.9
965.2593	2375.6899	2229.45	1342.85
965.3901	2377.0939	2220.3	1333
965.5209	2378.4973	2230.45	1341.9
965.6517	2379.9	2215.15	1327.05
965.7825	2381.3019	2208.9	1321.95
965.9132	2382.7032	2210.05	1325.15
966.0439	2384.1037	2205.85	1322.3
966.1745	2385.5035	2200.9	1317
966.3051	2386.9027	2177.9	1294.85
966.4357	2388.3011	2187.05	1298.7
966.5663	2389.6987	2183.05	1300.4
966.6968	2391.0957	2173.6	1287.75
966.8273	2392.492	2177.75	1293.5
966.9578	2393.8876	2170.7	1282.85
967.0882	2395.2824	2162.2	1277.35
967.2186	2396.6765	2159.85	1271.75
967.349	2398.07	2143.2	1254.7
967.4793	2399.4627	2158.95	1267.2
967.6097	2400.8547	2155.45	1266.55
967.7399	2402.246	2151.65	1257.85
967.8702	2403.6366	2138.95	1251.7
968.0004	2405.0265	2131.75	1246.15
968.1306	2406.4156	2131.35	1243.45
968.2607	2407.8041	2127.55	1235.95
968.3909	2409.1918	2131.05	1240.3
968.521	2410.5789	2106.3	1217.2
968.651	2411.9652	2107.75	1213.7
968.781	2413.3508	2111	1222.55
968.911	2414.7358	2099.95	1211.05
969.041	2416.12	2094.8	1210.3
969.1709	2417.5035	2100.1	1212.6
969.3008	2418.8863	2095.6	1207.4
969.4307	2420.2684	2090.6	1203.9
969.5606	2421.6497	2085.25	1194.65
969.6904	2423.0304	2079.35	1189.9
969.8201	2424.4104	2076.9	1187.9
969.9499	2425.7896	2073.25	1184.4
970.0796	2427.1682	2077	1190.25
970.2093	2428.546	2069	1178.75
970.3389	2429.9232	2071.3	1178.45
970.4685	2431.2996	2069.05	1179.75
970.5981	2432.6753	2059.75	1170.7
970.7277	2434.0503	2056.1	1168.15
970.8572	2435.4246	2052.8	1163.1
970.9867	2436.7982	2044.85	1152.6
971.1161	2438.1711	2050.3	1163.6
971.2456	2439.5433	2048.05	1159.6
971.375	2440.9148	2043.95	1148.1
971.5043	2442.2856	2034.4	1146
971.6336	2443.6557	2033.5	1143.5
971.7629	2445.025	2016.15	1127.15
971.8922	2446.3937	2029.65	1142.35
972.0214	2447.7617	2017.5	1127.25
972.1506	2449.1289	2017.05	1130.85
972.2798	2450.4955	2011.15	1117.8
972.4089	2451.8613	2004.4	1120.15
972.538	2453.2265	2008.3	1121.7
972.6671	2454.5909	1997.55	1107.9
972.7961	2455.9546	1994.3	1106.7
972.9251	2457.3177	1998.45	1111.65
973.0541	2458.68	1994.3	1104.65
973.1831	2460.0416	1995.3	1107
973.312	2461.4025	1984.75	1095.05
973.4408	2462.7627	1984	1088.15
973.5697	2464.1222	1976.85	1090.35
973.6985	2465.4811	1970.4	1082.5
973.8273	2466.8392	1968.55	1081.3
973.956	2468.1966	1979.35	1089.4
974.0847	2469.5533	1971.55	1081.2
974.2134	2470.9093	1974.85	1084.25
974.3421	2472.2645	1974.45	1084.8
974.4707	2473.6191	1966.9	1079.55
974.5993	2474.973	1958.9	1071.1
974.7278	2476.3262	1960.65	1072.75
974.8563	2477.6787	1949.9	1061.8
974.9848	2479.0305	1955.15	1068.65
975.1132	2480.3816	1962.05	1073.6
975.2417	2481.7319	1936.8	1050.8
975.37	2483.0816	1939.5	1049.45
975.4984	2484.4306	1933.85	1045.85
975.6267	2485.7789	1931.45	1044.95
975.755	2487.1264	1931.4	1042.85
975.8833	2488.4733	1920	1032.65
976.0115	2489.8195	1929	1036.15
976.1397	2491.165	1926.35	1036.35
976.2678	2492.5097	1914	1025.75
976.3959	2493.8538	1911.6	1024.6
976.524	2495.1972	1904.7	1015.5
976.6521	2496.5398	1902.85	1013.05
976.7801	2497.8818	1901.75	1010.6
976.9081	2499.2231	1891.75	1001.1
977.036	2500.5637	1900.65	1009.75
977.164	2501.9035	1890.7	1002.05
977.2918	2503.2427	1895.75	1005.3
977.4197	2504.5812	1876.55	987.65
977.5475	2505.919	1880.45	991.35
977.6753	2507.256	1875.05	988.1
977.8031	2508.5924	1863.05	974.9
977.9308	2509.9281	1877.25	982.7
978.0585	2511.2631	1868.95	981.25
978.1861	2512.5974	1860.35	975.5
978.3137	2513.9309	1869.8	981.65
978.4413	2515.2638	1877.3	961.85
978.5689	2516.596	1855.75	968.3
978.6964	2517.9275	1852.45	963
978.8239	2519.2583	1853.1	963.75
978.9513	2520.5884	1843.3	953.75
979.0788	2521.9178	1840.2	953.85
979.2062	2523.2465	1842.2	956.15
979.3335	2524.5745	1837.4	950.35
979.4608	2525.9018	1834.4	945.7
979.5881	2527.2284	1824.75	937.2
979.7154	2528.5543	1832.45	946.15
979.8426	2529.8796	1832.15	944.15
979.9698	2531.2041	1825	935.5
980.0969	2532.5279	1835.55	950.8
980.224	2533.851	1828.1	941.15
980.3511	2535.1735	1821.15	933.7
980.4781	2536.4952	1816.4	927.75
980.6052	2537.8163	1827.65	939.6
980.7321	2539.1366	1812.75	924.5
980.8591	2540.4562	1821.4	932.1
980.986	2541.7752	1808.2	920.3
981.1129	2543.0935	1810.9	920.8
981.2397	2544.411	1810.35	922.1
981.3665	2545.7279	1806.9	919.2
981.4933	2547.0441	1801.85	911.85
981.62	2548.3596	1806.6	913.2
981.7467	2549.6744	1797.2	908.8
981.8734	2550.9885	1804.4	913.5
982.0001	2552.3019	1800.95	911.05
982.1267	2553.6146	1796.75	907.05
982.2532	2554.9266	1790.05	900.85
982.3798	2556.2379	1783.1	894.75
982.5063	2557.5485	1781.65	895.2
982.6327	2558.8585	1785.45	890.05
982.7592	2560.1677	1789.75	897.5
982.8856	2561.4762	1781.45	893.15
983.0119	2562.7841	1789.1	897.9
983.1383	2564.0913	1778.65	892.4
983.2646	2565.3977	1780.25	892.05
983.3908	2566.7035	1772.6	886.35
983.517	2568.0086	1776.75	885.1
983.6432	2569.313	1775.85	885.6
983.7694	2570.6167	1775.25	882.45
983.8955	2571.9197	1767.9	881.65
984.0216	2573.222	1774.05	882.95
984.1476	2574.5236	1766.25	876.55
984.2737	2575.8246	1767.15	877.3
984.3996	2577.1248	1764.8	873.7
984.5256	2578.4244	1757.35	870.1
984.6515	2579.7232	1762.05	874.3
984.7774	2581.0214	1789.55	869.45
984.9032	2582.3189	1765.6	877.1
985.029	2583.6157	1766	873.5
985.1548	2584.9118	1756.35	868.5
985.2806	2586.2072	1750.35	863.5
985.4063	2587.5019	1748.35	858.9
985.5319	2588.7959	1755.75	868.65
985.6576	2590.0893	1749.8	859.35
985.7832	2591.3819	1760.45	872.75
985.9087	2592.6739	1754.25	864.8
986.0343	2593.9652	1752.2	864.75
986.1597	2595.2557	1743.4	852.55
986.2852	2596.5456	1751.85	861.25
986.4106	2597.8348	1753.95	866.05
986.536	2599.1234	1744.95	857.75
986.6614	2600.4112	1743.25	855.2
986.7867	2601.6983	1745.95	857.05
986.912	2602.9848	1738.25	848.95
987.0372	2604.2705	1752.6	859.05
987.1624	2605.5556	1746.75	857.9
987.2876	2606.84	1750.4	864.3
987.4128	2608.1237	1739.05	851.65
987.5379	2609.4067	1727.5	839.05
987.6629	2610.689	1718.75	820.95
987.788	2611.9707	1724.35	833.1
987.913	2613.2516	1727.65	835.2
988.0379	2614.5319	1708	820.5
988.1629	2615.8115	1714.3	825.6
988.2878	2617.0903	1708.8	821.05
988.4126	2618.3685	1708.55	817.4
988.5375	2619.6461	1704.95	816.05
988.6622	2620.9229	1700.85	814.4
988.787	2622.199	1705.4	816.15
988.9117	2623.4745	1692.2	805.8
989.0364	2624.7493	1701.25	812.05
989.161	2626.0234	1690.75	806.15
989.2857	2627.2968	1693.9	807.6
989.4102	2628.5695	1689	801.95
989.5348	2629.8415	1685.05	798.1
989.6593	2631.1128	1686.4	799.2
989.7837	2632.3835	1683.5	796.5
989.9082	2633.6535	1680.8	795.25
990.0326	2634.9228	1676.1	788
990.1569	2636.1914	1681.7	795.8
990.2812	2637.4593	1676.5	789.05
990.4055	2638.7265	1672.3	783.4
990.5298	2639.9931	1666.25	780.55
990.654	2641.259	1675.75	788.7
990.7782	2642.5242	1666.05	778.95
990.9023	2643.7887	1662.25	776.15
991.0264	2645.0525	1665.15	778.4
991.1505	2646.3156	1660.05	774.2
991.2745	2647.5781	1662.55	774.25
991.3985	2648.8398	1657.1	772.05
991.5225	2650.1009	1688.85	762.75
991.6464	2651.3613	1654.5	767.35
991.7703	2652.6211	1650.7	764.75
991.8942	2653.8801	1642.15	756.35
992.018	2655.1385	1646.4	758
992.1418	2656.3961	1645.55	759.05
992.2655	2657.6531	1647.45	760.5
992.3892	2658.9094	1641.05	753.9
992.5129	2660.1651	1635.8	752.05
992.6366	2661.42	1642.35	757.7
992.7602	2662.6743	1651.05	764.2
992.8837	2663.9279	1644.85	761.55
993.0073	2665.1808	1637.9	750.2
993.1307	2666.433	1649.1	762.35
993.2542	2667.6846	1650.35	763.85
993.3776	2668.9354	1652.4	763.3
993.501	2670.1856	1653.65	765.75
993.6244	2671.4351	1646.1	761.4
993.7477	2672.6839	1660.6	772.85
993.8709	2673.9321	1646.2	759.75
993.9942	2675.1795	1650.75	763.55
994.1174	2676.4263	1652.75	767.9
994.2405	2677.6724	1649.8	765.8
994.3637	2678.9179	1649.2	762.5
994.4868	2680.1626	1649.2	761.3
994.6098	2681.4067	1651.1	766.35
994.7328	2682.6501	1648.85	762.7
994.8558	2683.8928	1644.7	758.6
994.9788	2685.1348	1639.4	752.7
995.1017	2686.3761	1635.75	751.45
995.2245	2687.6168	1632.85	747.15
995.3474	2688.8568	1634	748.3
995.4702	2690.0961	1625.9	742
995.5929	2691.3348	1622.6	735.8
995.7156	2692.5727	1617.8	731.5
995.8383	2693.81	1619.05	734.55
995.961	2695.0466	1615.3	732.2
996.0836	2696.2826	1618.15	730.6
996.2062	2697.5178	1640.25	736.2
996.3287	2698.7524	1619.65	732.65
996.4512	2699.9863	1612.95	726.45
996.5737	2701.2195	1612.1	728.25
996.6961	2702.452	1617.75	731.3
996.8185	2703.6839	1624.55	738.15
996.9408	2704.9151	1634.95	750.45
997.0631	2706.1456	1627	741.85
997.1854	2707.3755	1629.95	745.05
997.3077	2708.6046	1641.55	753.3
997.4299	2709.8331	1645.35	761.2
997.552	2711.0609	1658.6	773.15
997.6742	2712.2881	1661.7	775.75
997.7963	2713.5145	1666.7	779.65
997.9183	2714.7403	1668.6	782.85
998.0403	2715.9654	1682.3	795.15
998.1623	2717.1899	1701.55	802.65
998.2842	2718.4136	1694.35	809.4
998.4062	2719.6367	1706.4	821.1
998.528	2720.8591	1719.7	828.35
998.6498	2722.0809	1717.85	832.2
998.7716	2723.3019	1740.45	850.95
998.8934	2724.5223	1741.9	855.35
999.0151	2725.7421	1749.7	861.2
999.1368	2726.9611	1755.9	869.75
999.2584	2728.1795	1750.7	859.45
999.38	2729.3972	1741.55	854.85
999.5016	2730.6142	1743	843.05
999.6231	2731.8306	1724.1	837.2
999.7446	2733.0462	1701.75	815.95
999.8661	2734.2612	1693.75	804.3
999.9875	2735.4756	1664.7	777
1000.1089	2736.6892	1656.2	771.75
1000.2302	2737.9022	1634.7	750.85
1000.3515	2739.1145	1625.2	740.4
1000.4728	2740.3262	1622	729
1000.594	2741.5372	1601.5	717.7
1000.7152	2742.7475	1580.05	696.05
1000.8363	2743.9571	1574.4	686.1
1000.9575	2745.1661	1574.05	685.6
1001.0785	2746.3744	1559.25	674.15
1001.1996	2747.582	1545.5	662.05
1001.3206	2748.7889	1544.6	656.9
1001.4415	2749.9952	1541.6	655.55
1001.5625	2751.2008	1525.85	638.6
1001.6833	2752.4057	1527.5	640.1
1001.8042	2753.61	1526	640.1
1001.925	2754.8136	1526.25	641.75
1002.0458	2756.0165	1516	633.25
1002.1665	2757.2188	1520.15	636.55
1002.2872	2758.4204	1518.8	634.6
1002.4078	2759.6213	1505.65	617.15
1002.5285	2760.8215	1520.3	630.45
1002.649	2762.0211	1517.4	629.75
1002.7696	2763.22	1512.35	625.25
1002.8901	2764.4182	1507.65	623.05
1003.0106	2765.6158	1511.6	626.8
1003.131	2766.8127	1504.75	622.7
1003.2514	2768.009	1495.7	610.9
1003.3717	2769.2045	1494.1	612.35
1003.492	2770.3994	1493.95	608.1
1003.6123	2771.5936	1487.5	602.25
1003.7325	2772.7872	1481.95	597.85
1003.8527	2773.9801	1486.65	601.3
1003.9729	2775.1723	1502.6	601.2
1004.093	2776.3639	1471.65	586.65
1004.2131	2777.5548	1485.2	599.4
1004.3331	2778.745	1480	595.1
1004.4531	2779.9346	1480.6	598.55
1004.5731	2781.1235	1473.55	590.05
1004.693	2782.3117	1481.55	600.8
1004.8129	2783.4992	1477.85	595
1004.9328	2784.6861	1477.6	596.6
1005.0526	2785.8723	1489.3	605.3
1005.1723	2787.0579	1495.4	612.2
1005.2921	2788.2428	1494.25	609.95
1005.4118	2789.427	1506.25	623.55
1005.5314	2790.6106	1510.7	630.25
1005.651	2791.7935	1520.8	636.4
1005.7706	2792.9757	1524.8	642.25
1005.8902	2794.1573	1533.6	649.85
1006.0097	2795.3382	1538.75	654.95
1006.1291	2796.5184	1549.6	668.65
1006.2485	2797.698	1563.6	680.6
1006.3679	2798.8769	1578.9	695.25
1006.4873	2800.0551	1588.55	704.25
1006.6066	2801.2327	1597.8	712.95
1006.7258	2802.4096	1604.6	720.1
1006.8451	2803.5859	1630.55	746.85
1006.9642	2804.7615	1646.1	762.75
1007.0834	2805.9364	1654.75	773.9
1007.2025	2807.1106	1691.65	809.05
1007.3216	2808.2842	1710.45	825.5
1007.4406	2809.4572	1736.8	855.35
1007.5596	2810.6294	1780.75	895.95
1007.6785	2811.801	1810.55	930.8
1007.7975	2812.972	1842.4	958.85
1007.9163	2814.1423	1883.85	1001.9
1008.0352	2815.3119	1924.6	1043.3
1008.154	2816.4808	1967.9	1085.35
1008.2727	2817.6491	2019.7	1136.75
1008.3914	2818.8167	2071.5	1190.5
1008.5101	2819.9837	2127.5	1243.45
1008.6288	2821.15	2169.2	1287.2
1008.7474	2822.3157	2225.4	1343.65
1008.8659	2823.4807	2282.45	1400.55
1008.9844	2824.645	2337.65	1453
1009.1029	2825.8086	2391.8	1510.4
1009.2214	2826.9716	2424.2	1543.7
1009.3398	2828.134	2476.4	1594.95
1009.4581	2829.2957	2523.05	1642.25
1009.5764	2830.4567	2558.15	1677.85
1009.6947	2831.617	2594.05	1710
1009.813	2832.7767	2590.5	1710.6
1009.9312	2833.9358	2590.1	1708.7
1010.0493	2835.0941	2587.25	1702.15
1010.1675	2836.2519	2566.95	1685.05
1010.2855	2837.4089	2560.55	1677.9
1010.4036	2838.5653	2539.9	1657.25
1010.5216	2839.7211	2536.6	1654.75
1010.6396	2840.8761	2541.75	1658.8
1010.7575	2842.0306	2554	1672.35
1010.8754	2843.1843	2575.3	1697.05
1010.9932	2844.3374	2609.75	1727.45
1011.111	2845.4899	2648.3	1766.4
1011.2288	2846.6417	2712.85	1833.6
1011.3465	2847.7928	2782.9	1901.7
1011.4642	2848.9433	2836.2	1956.2
1011.5818	2850.0931	2900.7	2017.45
1011.6995	2851.2422	2984.2	2100.25
1011.817	2852.3907	3038.45	2154.55
1011.9345	2853.5385	3102.85	2218.4
1012.052	2854.6857	3155.1	2260.45
1012.1695	2855.8323	3186.6	2304.7
1012.2869	2856.9781	3241.7	2359.1
1012.4042	2858.1233	3281.5	2399.7
1012.5216	2859.2679	3337.85	2458.5
1012.6389	2860.4118	3388.4	2506.45
1012.7561	2861.555	3430.95	2542.15
1012.8733	2862.6976	3482.75	2599.45
1012.9905	2863.8395	3510.9	2628.4
1013.1076	2864.9808	3510.2	2628.4
1013.2247	2866.1214	3552.9	2673.75
1013.3417	2867.2614	3566.15	2683.7
1013.4587	2868.4007	3576.75	2692.75
1013.5757	2869.5393	3592.7	2709.95
1013.6926	2870.6773	3607.8	2720.1
1013.8095	2871.8146	3623.45	2737.15
1013.9263	2872.9513	3619.7	2735.3
1014.0431	2874.0874	3613.3	2730.9
1014.1599	2875.2227	3610.3	2727
1014.2766	2876.3574	3588.7	2708.1
1014.3933	2877.4915	3567.8	2685.55
1014.51	2878.6249	3540.6	2660.4
1014.6266	2879.7577	3508.1	2625.95
1014.7431	2880.8898	3492.65	2600.55
1014.8596	2882.0212	3475.9	2594.3
1014.9761	2883.152	3454.25	2574.3
1015.0925	2884.2821	3440.2	2561.1
1015.2089	2885.4116	3447.55	2565.9
1015.3253	2886.5405	3443.25	2563.05
1015.4416	2887.6686	3459.45	2576.65
1015.5579	2888.7962	3467.35	2588.35
1015.6741	2889.923	3457.85	2577.55
1015.7903	2891.0493	3466.8	2586.8
1015.9065	2892.1748	3483.7	2602
1016.0226	2893.2997	3500.75	2619.2
1016.1387	2894.424	3509.75	2629.75
1016.2547	2895.5476	3517.8	2638.65
1016.3707	2896.6706	3550	2670.9
1016.4866	2897.7929	3576.15	2694.5
1016.6025	2898.9145	3580.35	2699.9
1016.7184	2900.0355	3622.2	2740.7
1016.8342	2901.1559	3658.95	2777.65
1016.95	2902.2756	3676.6	2792.35
1017.0658	2903.3946	3710.8	2831.05
1017.1815	2904.513	3752.9	2871.2
1017.2971	2905.6308	3784.95	2904.65
1017.4127	2906.7479	3789.75	2909.1
1017.5283	2907.8643	3831.35	2950.7
1017.6439	2908.9801	3833.3	2954
1017.7594	2910.0953	3851.1	2971.25
1017.8748	2911.2098	3838.15	2954.65
1017.9902	2912.3236	3843.15	2955.3
1018.1056	2913.4368	3813.85	2929.6
1018.2209	2914.5494	3794.3	2915.05
1018.3362	2915.6613	3768.5	2881.3
1018.4515	2916.7725	3746.4	2860.5
1018.5667	2917.8831	3719.2	2838.15
1018.6819	2918.9931	3678.1	2793.9
1018.797	2920.1024	3649.75	2767.2
1018.9121	2921.211	3638.6	2758.6
1019.0271	2922.319	3607.45	2725.95
1019.1421	2923.4264	3601.65	2724.05
1019.2571	2924.5331	3576.4	2697.6
1019.372	2925.6391	3572.9	2695.1
1019.4869	2926.7445	3573.75	2697.1
1019.6017	2927.8493	3578.7	2697.35
1019.7165	2928.9534	3576.6	2697.5
1019.8313	2930.0569	3572.45	2688.5
1019.946	2931.1597	3582.35	2703
1020.0606	2932.2619	3572.95	2694.2
1020.1753	2933.3634	3577.15	2697.1
1020.2899	2934.4643	3589.8	2702.55
1020.4044	2935.5645	3576.75	2690.6
1020.5189	2936.6641	3548.15	2665.3
1020.6334	2937.763	3501.85	2621.3
1020.7478	2938.8613	3466.2	2585.1
1020.8622	2939.959	3413.15	2528.4
1020.9765	2941.056	3352.95	2474.15
1021.0908	2942.1523	3274.75	2392.25
1021.2051	2943.248	3190.4	2310.4
1021.3193	2944.3431	3099.65	2218.95
1021.4334	2945.4375	2992.1	2111.3
1021.5476	2946.5313	2904.25	2025.9
1021.6617	2947.6244	2803.05	1922.05
1021.7757	2948.7169	2708.2	1829.5
1021.8897	2949.8087	2610.65	1731.5
1022.0037	2950.8999	2532.7	1654.1
1022.1176	2951.9904	2452.75	1575
1022.2315	2953.0803	2388.95	1508.1
1022.3453	2954.1696	2317.7	1438.05
1022.4591	2955.2582	2269.75	1392.2
1022.5728	2956.3462	2218.7	1338.45
1022.6865	2957.4335	2184.2	1305.65
1022.8002	2958.5202	2147.3	1265.5
1022.9138	2959.6062	2126.25	1248.05
1023.0274	2960.6916	2096.95	1218.25
1023.141	2961.7764	2083.45	1201.1
1023.2545	2962.8605	2068.3	1188.1
1023.3679	2963.9439	2048	1170.05
1023.4813	2965.0267	2035.45	1154.9
1023.5947	2966.1089	2053.6	1153.3
1023.708	2967.1905	2023.65	1146.35
1023.8213	2968.2714	2018.05	1140.2
1023.9346	2969.3516	2022.05	1144.5
1024.0478	2970.4312	2035.55	1149.75
1024.1609	2971.5102	2021	1142.9
1024.274	2972.5885	2028.3	1148.75
1024.3871	2973.6662	2029.2	1144.3
1024.5002	2974.7432	2030.65	1151.5
1024.6132	2975.8196	2027.55	1148.95
1024.7261	2976.8954	2011.35	1132.8
1024.839	2977.9705	2003.25	1126.45
1024.9519	2979.045	1995.9	1117.15
1025.0647	2980.1188	1981.9	1106.4
1025.1775	2981.192	1967.15	1090.8
1025.2902	2982.2645	1937.9	1056
1025.4029	2983.3364	1908.7	1029.1
1025.5156	2984.4077	1894.1	1013.65
1025.6282	2985.4783	1868.6	984.9
1025.7407	2986.5483	1829.7	950.75
1025.8532	2987.6177	1799.1	920.05
1025.9657	2988.6864	1760.25	881.2
1026.0782	2989.7545	1736	855.7
1026.1906	2990.8219	1710.2	831.9
1026.3029	2991.8887	1671.8	791
1026.4152	2992.9548	1643.15	762.25
1026.5275	2994.0204	1600.1	721.4
1026.6397	2995.0852	1575.55	697.4
1026.7519	2996.1495	1553.2	674.7
1026.864	2997.2131	1532.5	655.2
1026.9761	2998.276	1512.5	633.15
1027.0882	2999.3383	1481.1	601.1
1027.2002	3000.4	1468.2	590.25
1027.3122	3001.4611	1448.5	568.5
1027.4241	3002.5215	1429.5	551.85
1027.536	3003.5812	1412.6	534.15
1027.6478	3004.6404	1400.15	521.9
1027.7596	3005.6989	1396.6	517.15
1027.8714	3006.7567	1380.35	500.15
1027.9831	3007.8139	1395.9	489.4
1028.0947	3008.8705	1366.65	490.1
1028.2064	3009.9264	1355.15	471.5
1028.3179	3010.9818	1352.85	474.9
1028.4295	3012.0364	1339.5	458.7
1028.541	3013.0905	1339.1	461.4
1028.6524	3014.1439	1337.25	460.8
1028.7638	3015.1966	1327.95	451.85
1028.8752	3016.2487	1333.55	455.9
1028.9865	3017.3002	1326.4	441.5
1029.0978	3018.3511	1320.05	441.55
1029.209	3019.4013	1320.4	442.45
1029.3202	3020.4509	1313.05	434.95
1029.4314	3021.4998	1309.05	430.3
1029.5425	3022.5481	1316.65	437.5
1029.6535	3023.5958	1311.9	432.1
1029.7645	3024.6428	1316.1	436.25
1029.8755	3025.6892	1314.25	436.1
1029.9864	3026.735	1314.6	437.15
1030.0973	3027.7802	1308.85	431.25
1030.2082	3028.8247	1313.25	435.1
1030.319	3029.8685	1311	433.2
1030.4297	3030.9118	1313.55	433.25
1030.5404	3031.9544	1315.8	438.7
1030.6511	3032.9963	1310.2	430.4
1030.7617	3034.0376	1318.9	440.35
1030.8723	3035.0783	1324.2	443.5
1030.9829	3036.1184	1327.95	448.05
1031.0934	3037.1578	1332.45	456.2
1031.2038	3038.1966	1333.7	456.75
1031.3142	3039.2348	1331.65	454.45
1031.4246	3040.2723	1342.05	454.7
1031.5349	3041.3092	1328.4	450.1
1031.6452	3042.3455	1326.05	449.55
1031.7554	3043.3811	1332.65	453.9
1031.8656	3044.4161	1323.55	445.55
1031.9758	3045.4505	1323.95	446.9
1032.0859	3046.4842	1324.45	446.4
1032.1959	3047.5173	1317.6	442
1032.3059	3048.5498	1316.85	438.6
1032.4159	3049.5816	1309	430.4
1032.5258	3050.6128	1307.85	429.7
1032.6357	3051.6434	1295.75	415.05
1032.7455	3052.6734	1293.05	413.9
1032.8553	3053.7027	1292.65	413.15
1032.9651	3054.7314	1289.7	411.7
1033.0748	3055.7594	1288.1	411.3
1033.1845	3056.7868	1281.8	404
1033.2941	3057.8136	1281.3	403.5
1033.4037	3058.8398	1272.25	395.5
1033.5132	3059.8653	1269.8	392.55
1033.6227	3060.8902	1260.6	383.45
1033.7321	3061.9145	1266.3	387.3
1033.8415	3062.9381	1261.45	383.5
1033.9509	3063.9612	1270.5	377.4
1034.0602	3064.9835	1254.1	377.15
1034.1694	3066.0053	1252.2	372.8
1034.2787	3067.0264	1237.75	360.15
1034.3878	3068.0469	1241.1	362.25
1034.497	3069.0668	1238.7	357.1
1034.6061	3070.086	1228	348.45
1034.7151	3071.1046	1221.55	344.25
1034.8241	3072.1226	1214.15	335.6
1034.9331	3073.1399	1201.9	324.3
1035.042	3074.1567	1195	316.45
1035.1508	3075.1727	1194.85	315.2
1035.2597	3076.1882	1184.6	308.3
1035.3684	3077.203	1183.9	307.2
1035.4772	3078.2173	1173.6	294.75
1035.5859	3079.2308	1163.15	282.5
1035.6945	3080.2438	1158.1	278.45
1035.8031	3081.2561	1157.05	278.4
1035.9117	3082.2678	1141.35	263.8
1036.0202	3083.2789	1136.65	259.25
1036.1286	3084.2893	1131.35	253.2
1036.2371	3085.2991	1128.5	250.8
1036.3454	3086.3083	1124.25	242.25
1036.4538	3087.3169	1127.1	247.7
1036.562	3088.3248	1113	235.95
1036.6703	3089.3321	1109.5	231
1036.7785	3090.3388	1108	231.2
1036.8866	3091.3449	1099.75	223.2
1036.9948	3092.3503	1104.65	224.15
1037.1028	3093.3551	1095.05	218.6
1037.2108	3094.3593	1092.45	219.05
1037.3188	3095.3629	1091.8	216.1
1037.4267	3096.3658	1089.65	213.8
1037.5346	3097.3681	1085.4	207.5
1037.6425	3098.3698	1083.45	203.8
1037.7503	3099.3708	1082.55	199
1037.858	3100.3713	1072.25	195.4
1037.9657	3101.3711	1073.5	196.15
1038.0734	3102.3702	1206.7	197.5
1038.181	3103.3688	1070.75	192.5
1038.2886	3104.3667	1060.85	183.5
1038.3961	3105.364	1060.25	182.85
1038.5036	3106.3607	1062.65	183.75
1038.611	3107.3568	1056.15	179.85
1038.7184	3108.3522	1052.95	177.5
1038.8257	3109.347	1058.1	181.65
1038.933	3110.3412	1059.05	179.3
1039.0403	3111.3348	1046.7	171.05
1039.1475	3112.3277	1047.45	170.25
1039.2547	3113.32	1045.45	170
1039.3618	3114.3117	1042.45	165.4
1039.4689	3115.3028	1047.35	168.65
1039.5759	3116.2932	1044.3	166.25
1039.6829	3117.2831	1049.1	167.25
1039.7898	3118.2723	1039.2	162.35
1039.8967	3119.2608	1036.2	159.85
1040.0035	3120.2488	1036.35	160.35
1040.1103	3121.2361	1032.05	155.2
1040.2171	3122.2229	1033.5	157.1
1040.3238	3123.209	1031.7	153.4
1040.4305	3124.1944	1029.4	153.35
1040.5371	3125.1793	1030.35	150
1040.6437	3126.1635	1028.55	151.7
1040.7502	3127.1471	1022.9	145.55
1040.8567	3128.1301	1019.9	142.8
1040.9631	3129.1125	1023.55	146.95
1041.0695	3130.0942	1024.05	147.2
1041.1759	3131.0753	1031.2	144.35
1041.2822	3132.0558	1021.8	142.35
1041.3884	3133.0357	1021.1	144.65
1041.4946	3134.015	1019.2	141.05
1041.6008	3134.9936	1022.2	145.1
1041.7069	3135.9716	1033.2	135.9
1041.813	3136.949	1013.75	138
1041.919	3137.9258	1029.7	132.65
1042.025	3138.902	1018	136.45
1042.1309	3139.8775	1010.75	133.7
1042.2368	3140.8524	1008.4	132.95
1042.3427	3141.8267	1014.4	135.75
1042.4485	3142.8004	1011.75	134.5
1042.5542	3143.7735	1012.7	130.25
1042.6599	3144.7459	1008.15	130.65
1042.7656	3145.7178	1004.3	127.55
1042.8712	3146.689	1002.6	127.3
1042.9768	3147.6596	1002.5	126
1043.0823	3148.6295	1001.2	122.15
1043.1878	3149.5989	1000.9	125.1
1043.2932	3150.5676	997.5	123.2
1043.3986	3151.5357	1000.4	129.2
1043.5039	3152.5032	995.85	121.05
1043.6092	3153.4701	995.25	121.8
1043.7145	3154.4364	999.1	119.3
1043.8197	3155.402	993.25	117.95
1043.9248	3156.367	995.2	114.95
1044.03	3157.3315	1024.4	114.45
1044.135	3158.2952	992.3	116.6
1044.24	3159.2584	992.45	116.5
1044.345	3160.221	990.1	113.55
1044.4499	3161.1829	991.25	115
1044.5548	3162.1442	987.85	111.25
1044.6596	3163.105	986.4	109.45
1044.7644	3164.065	986.9	111.1
1044.8692	3165.0245	990.1	110.35
1044.9739	3165.9834	982.95	108.45
1045.0785	3166.9416	985.4	110.6
1045.1831	3167.8993	982.8	106.35
1045.2877	3168.8563	984.3	107.7
1045.3922	3169.8127	977.75	99.75
1045.4966	3170.7684	980.85	105.55
1045.6011	3171.7236	979.05	101.6
1045.7054	3172.6782	982.6	106.75
1045.8098	3173.6321	978.4	101.65
1045.914	3174.5854	982.05	101.3
1046.0183	3175.5381	980.75	105.25
1046.1224	3176.4902	979.65	105.8
1046.2266	3177.4417	976.6	97.35
1046.3307	3178.3926	977.65	103.1
1046.4347	3179.3428	976.6	100.55
1046.5387	3180.2924	973	96.65
1046.6427	3181.2415	972.35	94.5
1046.7466	3182.1899	975.3	99.35
1046.8504	3183.1377	977	101.25
1046.9542	3184.0848	974.55	95.05
1047.058	3185.0314	968.8	92.95
1047.1617	3185.9773	973.5	97.35
1047.2654	3186.9227	971.5	94.1
1047.369	3187.8674	968.85	94.45
1047.4726	3188.8115	974.15	92.5
1047.5761	3189.755	966.8	90.05
1047.6796	3190.6979	970.75	96.4
1047.783	3191.6402	965	90.35
1047.8864	3192.5818	968.35	93.15
1047.9898	3193.5229	971.75	91.35
1048.0931	3194.4633	968.7	93.15
1048.1963	3195.4031	964.5	88.7
1048.2995	3196.3423	961.35	86.45
1048.4027	3197.2809	964.45	88.1
1048.5058	3198.2189	965.75	90.35
1048.6089	3199.1563	968.85	86.7
1048.7119	3200.0931	961.5	87.8
1048.8148	3201.0292	963.05	88.4
1048.9178	3201.9648	962.8	86.85
1049.0206	3202.8997	963.8	85.95
1049.1235	3203.834	962.4	87
1049.2262	3204.7677	958.65	83.05
1049.329	3205.7008	963.55	86.4
1049.4317	3206.6333	960.2	84.5
1049.5343	3207.5652	963.2	86.3
1049.6369	3208.4964	958	80.1
1049.7394	3209.4271	958.8	84.8
1049.8419	3210.3571	960.15	84.1
1049.9444	3211.2865	958.4	81.95
1050.0468	3212.2154	957	80.45
1050.1491	3213.1436	955.35	76.6
1050.2514	3214.0712	965.05	82.25
1050.3537	3214.9982	957.05	81.45
1050.4559	3215.9246	957.65	81.55
1050.5581	3216.8503	952.95	76.75
1050.6602	3217.7755	950.2	74.65
1050.7623	3218.7001	955.35	80.85
1050.8643	3219.624	954.85	80.1
1050.9663	3220.5473	954.5	79.4
1051.0682	3221.4701	956.1	80.3
1051.1701	3222.3922	953.8	76.25
1051.2719	3223.3137	951.1	76.65
1051.3737	3224.2346	949.05	71.55
1051.4754	3225.1549	949.1	74.15
1051.5771	3226.0746	952.95	78.5
1051.6788	3226.9937	946.95	70.9
1051.7804	3227.9121	950.85	77.15
1051.8819	3228.83	946	71.2
1051.9834	3229.7473	949.25	73.8
1052.0849	3230.6639	946.95	71
1052.1863	3231.5799	948.6	74.65
1052.2876	3232.4954	952.5	75.5
1052.3889	3233.4102	946.45	71.1
1052.4902	3234.3244	944.2	67.45
1052.5914	3235.238	944.25	68.75
1052.6926	3236.151	969.15	68.65
1052.7937	3237.0634	947.15	72.2
1052.8948	3237.9752	943.6	68.6
1052.9958	3238.8864	945.9	69.4
1053.0968	3239.797	943.5	69
1053.1977	3240.7069	943.95	67.4
1053.2986	3241.6163	945.2	69.85
1053.3994	3242.5251	941.05	64.6
1053.5002	3243.4332	937	63.85
1053.6009	3244.3408	940.25	63.35
1053.7016	3245.2477	943.1	68.25
1053.8022	3246.154	941.7	64.45
1053.9028	3247.0598	938.75	64.15
1054.0034	3247.9649	939.2	63.1
1054.1039	3248.8694	940.25	66.55
1054.2043	3249.7733	938.2	62.05
1054.3047	3250.6766	940	65.2
1054.4051	3251.5793	937.7	62.45
1054.5054	3252.4814	936.8	62.95
1054.6056	3253.3829	935.2	61.85
1054.7058	3254.2838	935	61.4
1054.806	3255.1841	934.35	59.15
1054.9061	3256.0838	932.45	57.3
1055.0061	3256.9829	931	57.45
1055.1062	3257.8814	934.7	58.95
1055.2061	3258.7792	937.8	59.85
1055.306	3259.6765	933.85	58.05
1055.4059	3260.5731	929.95	56.1
1055.5057	3261.4692	929.65	54.6
1055.6055	3262.3647	930.8	57.5
1055.7052	3263.2595	928.05	55.5
1055.8049	3264.1538	926.6	51.85
1055.9045	3265.0474	926.95	51
1056.0041	3265.9404	924.45	50.3
1056.1036	3266.8329	923.9	49.25
1056.2031	3267.7247	936.8	51.5
1056.3025	3268.616	923.3	50.5
1056.4019	3269.5066	923.25	49.8
1056.5013	3270.3966	921.1	44.15
1056.6005	3271.286	917.1	42.05
