Software Version:	3.9.2.0
Unit SN:	10000200
Spectrometer SN:	6960
Date:	3/8/2024 1:08:22 PM
Data Line Index:	25
Spectral Points:	2048
Integration time (ms):	125
Averages:	20
Delay (ms):	30000
Sequence Number:	1
Processing:	dark subtract
Laser Power (mW):	305
Laser Current (mA):	822
Laser Diode Temp (C):	25
Laser Case Temp (C):	26.2
System Temp (C):	26.1
Spectrometer Temp (C):	24
CCD Temp (C):	0.007
Secondary Temp (C):	20.003
Heatsink Temp (C):	20.966
CCDPCB Temp (C):	36.073
SecondaryPCB Temp (C):	30.171

Wavelength	RamanShift	Raw Counts	Dark Subtracted
787.061	30.1047	456.05	47.25
787.2016	32.3739	458.2	51.25
787.3422	34.6426	464.1	54.7
787.4828	36.9109	471.8	60.35
787.6235	39.1787	476.55	62.55
787.7642	41.4461	485.65	66.2
787.9049	43.7131	493.3	72.8
788.0456	45.9796	501.15	77.45
788.1863	48.2456	513.3	85.95
788.3271	50.5112	521.4	89
788.4679	52.7764	531.6	97.5
788.6087	55.0411	543.7	104.15
788.7496	57.3054	555.05	109.5
788.8904	59.5692	560.6	113.65
789.0313	61.8326	571.85	121.75
789.1722	64.0955	584.2	128.95
789.3132	66.3579	600.7	141.25
789.4541	68.6199	621.45	159.25
789.5951	70.8815	656.65	188.7
789.7361	73.1426	734.45	265.3
789.8771	75.4032	951.85	478.3
790.0181	77.6634	1450.8	971.25
790.1592	79.9231	2656.55	2170.85
790.3003	82.1824	5246.65	4744.95
790.4414	84.4412	9912.5	9380.7
790.5825	86.6995	16286.6	15719.9
790.7237	88.9574	22540.15	21946.95
790.8648	91.2148	26850.25	26234.05
791.006	93.4717	28806.8	28178.7
791.1472	95.7282	29120.25	28484.25
791.2885	97.9842	28897.9	28259.65
791.4297	100.2398	28268.7	27625.15
791.571	102.4949	27530.85	26883.25
791.7123	104.7495	26697.3	26048.95
791.8536	107.0036	25845.2	25192.35
791.9949	109.2573	25063.25	24416.15
792.1363	111.5105	24253.05	23603.7
792.2777	113.7632	23548.65	22895.75
792.4191	116.0154	22971.5	22309
792.5605	118.2672	22530.2	21873.4
792.7019	120.5185	22108.85	21446.65
792.8434	122.7693	21788.55	21123.95
792.9849	125.0197	21482.8	20810.8
793.1264	127.2696	21212.15	20539.6
793.2679	129.519	21034.6	20356.1
793.4094	131.7679	20786.4	20107.7
793.551	134.0163	20591.5	19910.3
793.6926	136.2642	20279.95	19595.4
793.8342	138.5117	20022.4	19326
793.9758	140.7587	19659.05	18972.65
794.1175	143.0052	19377.45	18687.6
794.2591	145.2512	19091.35	18396
794.4008	147.4967	18842.6	18147.95
794.5425	149.7417	18633.4	17940.15
794.6842	151.9863	18464.9	17766.95
794.826	154.2304	18397.15	17689.9
794.9677	156.4739	18222.7	17513.25
795.1095	158.717	18148.2	17433.85
795.2513	160.9596	18001.9	17284.9
795.3931	163.2017	17752.9	17033.15
795.535	165.4433	17454.3	16736.35
795.6768	167.6844	17105	16383.35
795.8187	169.925	16835.05	16114.4
795.9606	172.1651	16439.35	15716.9
796.1025	174.4047	16184.4	15454.1
796.2445	176.6439	15937.05	15206.4
796.3864	178.8825	15704.65	14971.45
796.5284	181.1206	15563.3	14823.25
796.6704	183.3582	15401.5	14654.95
796.8124	185.5954	15308.35	14562.45
796.9544	187.832	15240.25	14490.6
797.0965	190.0681	15211.9	14459.5
797.2386	192.3037	15228.6	14475.65
797.3806	194.5388	15209.2	14450.6
797.5228	196.7734	15254.6	14492.1
797.6649	199.0075	15311.7	14551.5
797.807	201.2411	15483.45	14723.3
797.9492	203.4742	15514.2	14753.35
798.0914	205.7068	15701.1	14932.15
798.2336	207.9389	15818.3	15049.55
798.3758	210.1704	15974.4	15212.05
798.518	212.4015	16094.4	15342.2
798.6603	214.632	16214.35	15469.1
798.8025	216.862	16395.45	15649.8
798.9448	219.0915	16527.3	15783.3
799.0871	221.3205	16714.05	15967.15
799.2294	223.549	16890.45	16146.2
799.3718	225.777	17088.75	16343.5
799.5141	228.0044	17320.85	16565.3
799.6565	230.2314	17604.5	16855.8
799.7989	232.4578	17919	17162.35
799.9413	234.6837	18149.15	17384.9
800.0837	236.909	18302.45	17535.7
800.2262	239.1339	18306.2	17515.2
800.3687	241.3582	18152.1	17373.5
800.5111	243.582	17968.9	17159.25
800.6536	245.8053	17734.95	16943.9
800.7961	248.0281	17556.9	16769.05
800.9387	250.2503	17442.05	16645.4
801.0812	252.472	17421.85	16624.25
801.2238	254.6932	17468.1	16675.25
801.3664	256.9139	17458.25	16663.15
801.509	259.134	17580.25	16778.4
801.6516	261.3536	17704.1	16906.15
801.7942	263.5727	17904	17105.9
801.9369	265.7912	18021.5	17222.1
802.0795	268.0092	18230.05	17429.9
802.2222	270.2267	18300.05	17498.8
802.3649	272.4436	18322.85	17521.5
802.5076	274.6601	18299.55	17488
802.6504	276.8759	18208.25	17404.4
802.7931	279.0913	18159.1	17350.95
802.9359	281.3061	18045.25	17236.9
803.0787	283.5204	18048.1	17234.65
803.2215	285.7341	18073.2	17254.8
803.3643	287.9473	18153.1	17328.55
803.5071	290.16	18291.55	17472.25
803.6499	292.3721	18516.35	17710.8
803.7928	294.5837	18842.55	18027.2
803.9357	296.7947	19149.9	18335.2
804.0786	299.0052	19364.25	18547
804.2215	301.2152	19243.75	18424.2
804.3644	303.4246	18959.4	18145.35
804.5074	305.6334	18507.6	17692.6
804.6503	307.8418	18088.35	17270.1
804.7933	310.0495	17659.45	16839.85
804.9363	312.2568	17292.4	16474.6
805.0793	314.4635	16971.25	16148.2
805.2223	316.6696	16803.05	15976.65
805.3653	318.8752	16650.1	15817.05
805.5084	321.0802	16654.1	15826.1
805.6514	323.2847	16719.25	15887.85
805.7945	325.4887	16762.7	15928.5
805.9376	327.692	16712.6	15879.4
806.0807	329.8949	16654	15823.4
806.2238	332.0972	16416.2	15581.55
806.367	334.2989	16191.7	15352.75
806.5101	336.5001	15905.7	15069.55
806.6533	338.7007	15729	14888.8
806.7965	340.9008	15622.15	14784.95
806.9397	343.1003	15482.3	14646.65
807.0829	345.2992	15399.5	14556.95
807.2261	347.4976	15317.25	14477.55
807.3693	349.6955	15320.7	14471.7
807.5126	351.8927	15326.25	14483
807.6559	354.0895	15301.6	14443.4
807.7991	356.2856	15287.95	14438.9
807.9424	358.4812	15300.95	14452.3
808.0857	360.6763	15347.55	14496.5
808.2291	362.8707	15295.65	14440.5
808.3724	365.0646	15353.5	14496.4
808.5158	367.258	15373.35	14515.45
808.6591	369.4508	15406.55	14544.25
808.8025	371.643	15560.9	14702.05
808.9459	373.8346	15601.6	14739.05
809.0893	376.0257	15621.45	14754.95
809.2327	378.2162	15591.65	14726.8
809.3762	380.4062	15553.6	14693.4
809.5196	382.5956	15424.1	14564.45
809.6631	384.7844	15292.65	14438.3
809.8066	386.9726	15200	14348.35
809.9501	389.1603	15101.7	14249.3
810.0936	391.3474	15086.9	14197.8
810.2371	393.5339	15043.05	14181.8
810.3806	395.7199	14988.75	14133.3
810.5241	397.9052	15034.35	14179.8
810.6677	400.09	15105.25	14251.7
810.8113	402.2743	15228.55	14373.95
810.9548	404.4579	15356.45	14497.3
811.0984	406.641	15518.9	14661.3
811.2421	408.8235	15731.3	14871.85
811.3857	411.0054	15963.9	15098.35
811.5293	413.1868	16291.2	15421.2
811.673	415.3675	16502.4	15630.1
811.8166	417.5477	16618.25	15749.2
811.9603	419.7273	16636.15	15763.55
812.104	421.9064	16538.45	15664.4
812.2477	424.0848	16442.7	15575.7
812.3914	426.2627	16238.95	15370
812.5351	428.4399	15978.8	15105.4
812.6788	430.6166	15622.8	14751.6
812.8226	432.7928	15288.45	14411.9
812.9663	434.9683	14990.7	14117.7
813.1101	437.1432	14765.85	13896.6
813.2539	439.3176	14606.15	13739.7
813.3977	441.4914	14452.25	13587.3
813.5415	443.6645	14432.95	13563.1
813.6853	445.8371	14390.65	13520.75
813.8291	448.0091	14350.4	13478.85
813.973	450.1806	14345.25	13472.85
814.1168	452.3514	14309	13439.45
814.2607	454.5216	14344.25	13466.6
814.4046	456.6913	14306.35	13428.85
814.5485	458.8603	14331.25	13457.85
814.6924	461.0288	14383	13516.75
814.8363	463.1967	14389.45	13527.85
814.9802	465.3639	14472.45	13605.15
815.1241	467.5306	14527.3	13657.7
815.2681	469.6967	14603.9	13734.75
815.412	471.8622	14685.4	13819.05
815.556	474.0271	14790.75	13918.6
815.7	476.1914	14851.65	13975.95
815.844	478.3551	14868.55	13993.65
815.988	480.5182	14892.85	14019.95
816.132	482.6807	14958.1	14088.35
816.276	484.8426	15081.1	14222.25
816.4201	487.0039	15380.7	14515.4
816.5641	489.1647	15802.1	14928.6
816.7082	491.3248	16175.1	15298.2
816.8522	493.4843	16332.55	15463.35
816.9963	495.6432	16326.45	15455.85
817.1404	497.8015	16167.85	15285.3
817.2845	499.9592	16134.9	15244.9
817.4286	502.1163	16007.45	15121.7
817.5727	504.2728	15726.05	14847.45
817.7168	506.4287	15481.3	14612.9
817.861	508.5839	15089.75	14216.8
818.0051	510.7386	14822.65	13941.4
818.1493	512.8927	14708.15	13819.3
818.2935	515.0461	14601.75	13719.9
818.4377	517.199	14662.45	13772.6
818.5818	519.3512	14760.85	13874.05
818.726	521.5029	14930.7	14040.65
818.8703	523.6539	15116.4	14231.25
819.0145	525.8043	15184.4	14299.1
819.1587	527.9541	15171.55	14279.7
819.303	530.1033	15063.7	14177.8
819.4472	532.2519	14989	14105.65
819.5915	534.3999	15027.75	14141.7
819.7357	536.5472	15216.9	14329.5
819.88	538.694	15566.3	14683.35
820.0243	540.8401	16009.35	15123.2
820.1686	542.9856	16350.85	15453.4
820.3129	545.1305	16477.2	15572.3
820.4572	547.2748	16412.1	15504.2
820.6016	549.4185	16070.6	15164.85
820.7459	551.5615	15846.95	14944.65
820.8902	553.704	15794.45	14893.75
821.0346	555.8458	15780.35	14881.9
821.1789	557.987	15897	15000
821.3233	560.1276	16003.5	15103.85
821.4677	562.2675	16237.8	15340.15
821.6121	564.4069	16537.5	15638.45
821.7565	566.5456	16748.5	15852.5
821.9009	568.6837	16803.65	15910.85
822.0453	570.8212	16437.8	15544.2
822.1897	572.958	15909.45	15014.05
822.3342	575.0942	15466.8	14574.9
822.4786	577.2299	15159.9	14269
822.6231	579.3648	15005.25	14126.2
822.7675	581.4992	15020.6	14150.65
822.912	583.6329	15165.1	14295.65
823.0565	585.766	15392	14517.4
823.201	587.8985	15529.75	14648.25
823.3454	590.0304	15572.3	14657.4
823.4899	592.1616	15511.2	14614.35
823.6345	594.2922	15407.85	14507.9
823.779	596.4222	15238.85	14335.45
823.9235	598.5515	15038.1	14132.8
824.068	600.6802	14870.3	13964.95
824.2126	602.8083	14685.55	13789.3
824.3571	604.9358	14678.85	13774.95
824.5017	607.0626	14643.55	13738.6
824.6462	609.1888	14686.95	13776.25
824.7908	611.3144	14745.25	13837.15
824.9354	613.4393	14779.8	13870.75
825.08	615.5636	14809.3	13901.5
825.2246	617.6873	14756.6	13849.5
825.3692	619.8103	14717.55	13810.7
825.5138	621.9327	14531.55	13622.6
825.6584	624.0544	14418.55	13515.05
825.803	626.1756	14305.55	13404.1
825.9477	628.2961	14234.85	13325.6
826.0923	630.4159	14170.3	13261.5
826.237	632.5351	14130	13220.5
826.3816	634.6537	14111.25	13199.05
826.5263	636.7716	14105.9	13191.4
826.6709	638.8889	14122.2	13204.75
826.8156	641.0056	14168.85	13252.75
826.9603	643.1216	14149.7	13232.9
827.105	645.237	14110.85	13198.65
827.2497	647.3518	14047.75	13143.75
827.3944	649.4659	14071.2	13169.85
827.5391	651.5793	14020.4	13114.4
827.6838	653.6922	13992.95	13088.7
827.8285	655.8043	14019.25	13111.5
827.9733	657.9159	13989.1	13082.25
828.118	660.0268	13956.5	13051.25
828.2627	662.137	13953.7	13044.9
828.4075	664.2466	13956.55	13039.85
828.5522	666.3556	13943.45	13029.8
828.697	668.4639	13873.8	12960.3
828.8418	670.5716	13906.05	13001.65
828.9865	672.6786	13906.15	12994.75
829.1313	674.785	13914.45	12998.75
829.2761	676.8907	13942.05	13027.95
829.4209	678.9958	14027.2	13117.2
829.5657	681.1002	14001.75	13089.15
829.7105	683.204	13981.75	13060.55
829.8553	685.3072	13936.9	13021.35
830.0001	687.4097	13876.6	12957.9
830.1449	689.5115	13892.6	12972.75
830.2898	691.6127	13841.65	12929.55
830.4346	693.7132	13809.6	12896.15
830.5794	695.8131	13823.45	12896.85
830.7243	697.9123	13815.45	12894.75
830.8691	700.0109	13818.3	12892.8
831.014	702.1089	13858.4	12938.05
831.1588	704.2061	13898.2	12979.2
831.3037	706.3028	13916.8	12997.85
831.4486	708.3987	13983.65	13061.9
831.5935	710.4941	14039.35	13120.6
831.7383	712.5887	14145.7	13227.5
831.8832	714.6827	14302.9	13379.8
832.0281	716.7761	14550.3	13635.4
832.173	718.8688	14829.25	13913.45
832.3179	720.9608	15000.65	14074.45
832.4628	723.0522	15118.7	14188.85
832.6077	725.1429	15035	14110.25
832.7527	727.233	14955.5	14035.4
832.8976	729.3224	14894.45	13974.75
833.0425	731.4112	14706.6	13782.95
833.1874	733.4993	14514.75	13593.6
833.3324	735.5867	14370.55	13446.85
833.4773	737.6735	14197.3	13272.5
833.6222	739.7596	14081.45	13155.8
833.7672	741.845	13982.55	13061.35
833.9122	743.9298	13916.75	12994.3
834.0571	746.014	13915.95	12992.45
834.2021	748.0974	13914.7	12984.8
834.347	750.1802	13892.85	12964.95
834.492	752.2624	13900.4	12971.4
834.637	754.3439	13955.7	13024.25
834.782	756.4247	14078	13142.35
834.9269	758.5048	14224.4	13294.7
835.0719	760.5843	14488.3	13560
835.2169	762.6631	14855.6	13929.2
835.3619	764.7413	15376.6	14451.5
835.5069	766.8188	16023.65	15091.75
835.6519	768.8956	16553.1	15623.9
835.7969	770.9718	16887.25	15962.4
835.9419	773.0473	16751.75	15827.25
836.0869	775.1221	16430	15503.7
836.232	777.1962	16116.95	15187.85
836.377	779.2697	15987.95	15057.9
836.522	781.3426	16025	15086.9
836.667	783.4147	16212.05	15284.25
836.8121	785.4862	16406.55	15478.75
836.9571	787.557	16344.25	15412.45
837.1021	789.6271	15893.55	14957
837.2472	791.6966	15375.8	14443.1
837.3922	793.7654	14766.65	13835.35
837.5373	795.8335	14446.1	13517.55
837.6823	797.901	14188.15	13254.8
837.8274	799.9678	14056.55	13120.6
837.9724	802.0339	14007.25	13075.4
838.1175	804.0993	14007.05	13061.4
838.2626	806.1641	13965.75	13031
838.4076	808.2282	13904.65	12974.65
838.5527	810.2916	13843.2	12911.15
838.6978	812.3544	13771.15	12845.25
838.8428	814.4164	13695	12763.8
838.9879	816.4778	13725.75	12789.95
839.133	818.5385	13765.8	12828.85
839.2781	820.5986	13901.9	12966.9
839.4232	822.658	14049.65	13115.9
839.5682	824.7166	14290.15	13359.05
839.7133	826.7747	14682.65	13751
839.8584	828.832	15042.65	14107.55
840.0035	830.8886	15317.4	14379.45
840.1486	832.9446	15495.3	14558.9
840.2937	834.9999	15408.7	14475.15
840.4388	837.0545	15241.5	14305.7
840.5839	839.1085	15052.35	14114.85
840.729	841.1618	14877.1	13937.2
840.8741	843.2143	14756.05	13818.35
841.0192	845.2662	14600.3	13664.85
841.1643	847.3175	14501.15	13565.55
841.3095	849.368	14391.7	13455.05
841.4546	851.4179	14298.3	13359.65
841.5997	853.467	14166.15	13231.2
841.7448	855.5155	14058.85	13122.85
841.8899	857.5633	13994.55	13057.65
842.0351	859.6105	13896.55	12960.45
842.1802	861.6569	13845.5	12905.65
842.3253	863.7027	13784.95	12844.15
842.4704	865.7478	13763.55	12825.35
842.6156	867.7922	13746.45	12808.7
842.7607	869.8359	13735.5	12799.9
842.9058	871.8789	13817.05	12878.6
843.0509	873.9212	13972.15	12999.75
843.1961	875.9629	14069.15	13128.25
843.3412	878.0039	14230.45	13288.6
843.4863	880.0441	14340.2	13404.05
843.6315	882.0837	14376.45	13438.2
843.7766	884.1226	14354.65	13414.65
843.9218	886.1609	14302.55	13365.15
844.0669	888.1984	14340	13403.25
844.212	890.2352	14416.1	13479.1
844.3572	892.2714	14392.25	13448.4
844.5023	894.3069	14344.25	13403.65
844.6475	896.3416	14248.95	13310.25
844.7926	898.3757	14158.45	13216.7
844.9377	900.4091	14110.55	13167.35
845.0829	902.4418	14129.4	13185.35
845.228	904.4739	14173.85	13229.55
845.3732	906.5052	14201.7	13259.45
845.5183	908.5358	14094.9	13153.25
845.6635	910.5658	13969.6	13024.9
845.8086	912.595	13770.5	12830.2
845.9538	914.6236	13569.8	12632.15
846.0989	916.6515	13475.8	12534.5
846.2441	918.6786	13445.3	12500.05
846.3892	920.7051	13479.9	12533.9
846.5344	922.7309	13575.35	12636.4
846.6795	924.756	13626.2	12682.4
846.8246	926.7804	13706.95	12765.55
846.9698	928.8041	13649.15	12705.9
847.1149	930.8272	13706.55	12765.65
847.2601	932.8495	13695.95	12750
847.4052	934.8711	13691.65	12744.15
847.5504	936.892	13582.35	12639.4
847.6955	938.9123	13517.45	12574.15
847.8407	940.9318	13457.55	12516.35
847.9858	942.9506	13424.25	12481.3
848.131	944.9688	13327.4	12386.05
848.2761	946.9862	13248.9	12309.05
848.4213	949.003	13099.05	12154.35
848.5664	951.019	13083.85	12141.35
848.7115	953.0344	13037.8	12095.15
848.8567	955.0491	13077.1	12132.6
849.0018	957.063	13137.5	12197.55
849.147	959.0763	13247.85	12307.65
849.2921	961.0888	13285.85	12343.75
849.4373	963.1007	13340.2	12400.05
849.5824	965.1119	13358	12424.45
849.7275	967.1223	13375.25	12446.7
849.8727	969.1321	13362.75	12436.4
850.0178	971.1412	13411.7	12478.7
850.1629	973.1495	13399.15	12463.8
850.3081	975.1572	13448.1	12461.95
850.4532	977.1641	13475.9	12534.9
850.5983	979.1704	13440	12493.55
850.7435	981.1759	13412.45	12466.95
850.8886	983.1808	13467.8	12522.55
851.0337	985.1849	13516	12559.35
851.1788	987.1884	13624.9	12681
851.324	989.1911	13733.4	12789.85
851.4691	991.1932	13845.7	12902.85
851.6142	993.1945	13875	12933.55
851.7593	995.1951	13809.9	12869.15
851.9045	997.1951	13820.2	12872.1
852.0496	999.1943	13769.3	12826.7
852.1947	1001.1928	13730.4	12787.3
852.3398	1003.1906	13745.8	12803.9
852.4849	1005.1877	13835.8	12892.45
852.63	1007.1841	13870.15	12929.65
852.7751	1009.1798	13828.15	12884.55
852.9202	1011.1748	13718.1	12776.2
853.0653	1013.1691	13551.35	12610.4
853.2104	1015.1627	13344.5	12403.15
853.3555	1017.1556	13105.5	12167.35
853.5006	1019.1477	12996.25	12055.6
853.6457	1021.1392	12879.25	11943.15
853.7908	1023.1299	12868.8	11937.25
853.9359	1025.12	12875.05	11948.05
854.081	1027.1093	12932.45	12018.4
854.2261	1029.0979	13043.65	12133.1
854.3712	1031.0859	13097.1	12177
854.5163	1033.0731	13122.9	12191.35
854.6613	1035.0596	13103.85	12170.7
854.8064	1037.0454	12936.1	12001.7
854.9515	1039.0304	12855.25	11911.55
855.0965	1041.0148	12724.55	11785.85
855.2416	1042.9985	12598.8	11653.65
855.3867	1044.9814	12594.6	11656.2
855.5317	1046.9636	12511.5	11574.25
855.6768	1048.9452	12518.5	11578
855.8219	1050.926	12540.55	11601.55
855.9669	1052.9061	12523.55	11584.5
856.112	1054.8855	12546.15	11604.25
856.257	1056.8642	12598.15	11658.85
856.4021	1058.8421	12661.75	11714.95
856.5471	1060.8194	12697.9	11753.35
856.6921	1062.7959	12724.25	11782.55
856.8372	1064.7717	12771	11828.25
856.9822	1066.7469	12827.4	11884.7
857.1272	1068.7213	12864.4	11922.7
857.2723	1070.695	12901.3	11960.15
857.4173	1072.6679	12903	11962.9
857.5623	1074.6402	12903.6	11963.7
857.7073	1076.6117	12868.8	11925
857.8523	1078.5826	12806.2	11865.3
857.9973	1080.5527	12721.3	11778.8
858.1423	1082.5221	12718.6	11777.65
858.2873	1084.4908	12802.85	11865
858.4323	1086.4587	12898.5	11957.05
858.5773	1088.426	12967.5	12027.5
858.7223	1090.3925	12968.7	12020.65
858.8673	1092.3584	12990.65	12051.2
859.0123	1094.3235	12962.1	12024.65
859.1573	1096.2879	12925.9	11988.05
859.3022	1098.2515	13004.65	12067.3
859.4472	1100.2145	13134.75	12195.1
859.5922	1102.1767	13254.1	12313.2
859.7371	1104.1382	13468.05	12528.55
859.8821	1106.099	13671.75	12728.45
860.027	1108.0591	13913	12970.15
860.172	1110.0185	14034.85	13094
860.3169	1111.9771	14075.1	13134.4
860.4619	1113.9351	13965.35	13022.3
860.6068	1115.8923	13770.05	12832.05
860.7517	1117.8488	13528.75	12586.9
860.8967	1119.8045	13304.5	12366.4
861.0416	1121.7596	13189.75	12250.75
861.1865	1123.7139	13090.65	12153.3
861.3314	1125.6675	13053.85	12113.75
861.4763	1127.6204	13132.7	12191.85
861.6212	1129.5726	13072.1	12129.45
861.7661	1131.524	13026.7	12086.55
861.911	1133.4748	12948.35	12008.15
862.0559	1135.4248	12837.2	11899.25
862.2008	1137.3741	12730.8	11795.4
862.3457	1139.3226	12659.3	11719.4
862.4905	1141.2705	12613.6	11671.9
862.6354	1143.2176	12512.7	11568.7
862.7803	1145.164	12492.35	11552
862.9251	1147.1097	12437.45	11498.95
863.07	1149.0546	12412.35	11472.7
863.2148	1150.9989	12347.7	11409.3
863.3597	1152.9424	12218	11275.7
863.5045	1154.8852	12079.9	11139.2
863.6493	1156.8272	12008.9	11069.35
863.7942	1158.7686	11993.4	11047.05
863.939	1160.7092	11988.55	11047.7
864.0838	1162.6491	12013.2	11068.1
864.2286	1164.5883	12104.1	11161.95
864.3734	1166.5267	12206.75	11263.6
864.5182	1168.4644	12358.05	11420.4
864.663	1170.4014	12533.75	11595.4
864.8078	1172.3377	12789	11852.35
864.9526	1174.2732	13070.9	12132.3
865.0974	1176.2081	13453.85	12516.5
865.2421	1178.1421	13788.1	12846.55
865.3869	1180.0755	14200.25	13267.1
865.5317	1182.0082	14431.95	13495.05
865.6764	1183.9401	14522.3	13585.15
865.8212	1185.8713	14380.4	13447.65
865.9659	1187.8017	14138	13215.2
866.1106	1189.7315	13819.05	12900.55
866.2554	1191.6605	13454.4	12536.45
866.4001	1193.5888	13180.15	12257.5
866.5448	1195.5163	13066.1	12138.15
866.6895	1197.4432	12982.65	12044
866.8342	1199.3693	12943.4	12006.55
866.9789	1201.2947	12908.85	11970.25
867.1236	1203.2193	12883.9	11949.3
867.2683	1205.1432	12892.85	11959.05
867.413	1207.0664	12888.75	11956.1
867.5576	1208.9889	12885.3	11947.15
867.7023	1210.9106	12845.25	11908.3
867.847	1212.8316	12875.75	11938.15
867.9916	1214.7519	12938.25	11991.4
868.1363	1216.6715	12960.15	12023.55
868.2809	1218.5903	12983.65	12047.15
868.4255	1220.5084	13023.2	12086.9
868.5701	1222.4257	13064.2	12129.95
868.7148	1224.3424	13081	12148.55
868.8594	1226.2583	13171.35	12238.6
869.004	1228.1735	13269.45	12331.85
869.1486	1230.0879	13367.85	12430.5
869.2932	1232.0016	13499	12562.35
869.4377	1233.9146	13603.05	12667.7
869.5823	1235.8269	13570.3	12631.6
869.7269	1237.7384	13457.2	12521.25
869.8715	1239.6492	13308.35	12377.65
870.016	1241.5592	13216.15	12282.5
870.1606	1243.4686	13209.05	12271.9
870.3051	1245.3772	13272.7	12337
870.4496	1247.285	13388.85	12454.9
870.5941	1249.1922	13464.25	12528.7
870.7387	1251.0986	13519.2	12584.5
870.8832	1253.0042	13548.55	12614.45
871.0277	1254.9092	13608.8	12674.15
871.1722	1256.8134	13668.85	12738.7
871.3167	1258.7169	13862.7	12927
871.4611	1260.6196	13990.6	13057.5
871.6056	1262.5216	14244.15	13306.95
871.7501	1264.4229	14431.3	13499.3
871.8945	1266.3234	14636.9	13703.65
872.039	1268.2232	14734.55	13800.15
872.1834	1270.1223	14738.4	13803.55
872.3278	1272.0207	14762.55	13828.35
872.4723	1273.9183	14733.35	13791.1
872.6167	1275.8151	14662.05	13729.8
872.7611	1277.7113	14609.85	13676.65
872.9055	1279.6067	14584.45	13654.1
873.0499	1281.5014	14638.15	13700.4
873.1943	1283.3953	14826.35	13888.65
873.3386	1285.2885	15112.2	14181.75
873.483	1287.181	15392.45	14459.55
873.6274	1289.0727	15711.2	14782.65
873.7717	1290.9637	15909.05	14976.6
873.9161	1292.854	16047.35	15113.25
874.0604	1294.7435	16082.55	15151.15
874.2047	1296.6323	16122.6	15187.65
874.349	1298.5204	16110.45	15174.4
874.4933	1300.4077	16160.45	15224.35
874.6376	1302.2943	16116.4	15182.6
874.7819	1304.1802	15994.7	15064.3
874.9262	1306.0653	15664.2	14730.55
875.0705	1307.9497	15295.3	14361.95
875.2147	1309.8333	14984.75	14055.95
875.359	1311.7162	14764.5	13832.7
875.5032	1313.5984	14682.9	13746.95
875.6475	1315.4798	14670.85	13728.75
875.7917	1317.3605	14648.7	13698.95
875.9359	1319.2405	14613	13675.5
876.0801	1321.1197	14445.2	13507.7
876.2243	1322.9982	14229.55	13291.95
876.3685	1324.876	14026.55	13091.85
876.5127	1326.753	13821.75	12889.7
876.6569	1328.6293	13758.9	12823.65
876.801	1330.5048	13648.7	12710.75
876.9452	1332.3796	13511.3	12578.05
877.0893	1334.2537	13465.9	12506.8
877.2335	1336.127	13414.5	12480.95
877.3776	1337.9996	13390.15	12456
877.5217	1339.8714	13374	12440.95
877.6658	1341.7426	13403.8	12425.9
877.8099	1343.6129	13390.55	12455.3
877.954	1345.4826	13368.85	12437.05
878.0981	1347.3515	13333.85	12399.6
878.2422	1349.2196	13297.65	12362.65
878.3862	1351.087	13355.65	12420.75
878.5303	1352.9537	13375.55	12438.25
878.6743	1354.8197	13482	12545.45
878.8184	1356.6849	13660.15	12724.15
878.9624	1358.5493	13793.85	12859.25
879.1064	1360.4131	13928.25	12995.45
879.2504	1362.276	13924.2	12992.05
879.3944	1364.1383	13874.85	12941.85
879.5384	1365.9998	13683.55	12743.3
879.6823	1367.8606	13326.55	12389.7
879.8263	1369.7206	12992.2	12056.3
879.9702	1371.5799	12693.05	11754.7
880.1142	1373.4384	12482.35	11547.55
880.2581	1375.2962	12257.9	11322.7
880.402	1377.1533	11939.6	11009.15
880.5459	1379.0096	11596.1	10666.55
880.6898	1380.8652	11285.7	10361.7
880.8337	1382.7201	11003.2	10073.65
880.9776	1384.5742	10743.8	9812.85
881.1215	1386.4275	10562.5	9627.85
881.2653	1388.2802	10428.55	9493.95
881.4092	1390.132	10322.4	9388.8
881.553	1391.9832	10242.35	9306.3
881.6968	1393.8336	10133.45	9200.5
881.8406	1395.6832	10108.85	9174.8
881.9844	1397.5322	10048.45	9115.55
882.1282	1399.3803	10039.25	9099.85
882.272	1401.2278	9959.9	9026.2
882.4158	1403.0745	9982.05	9050.35
882.5595	1404.9204	9956	9026.4
882.7033	1406.7656	9975.6	9043.45
882.847	1408.6101	10011.5	9082.5
882.9908	1410.4538	10012.5	9078.85
883.1345	1412.2968	10075.9	9143.9
883.2782	1414.139	10117.85	9188.35
883.4219	1415.9805	10184.5	9252.3
883.5656	1417.8213	10245.35	9308.6
883.7092	1419.6613	10357.85	9428.45
883.8529	1421.5006	10513.9	9586.45
883.9965	1423.3391	10712.85	9781.4
884.1402	1425.1769	11014.45	10080.45
884.2838	1427.0139	11470.75	10540.75
884.4274	1428.8502	12010.6	11077
884.571	1430.6858	12567.9	11636.5
884.7146	1432.5206	12938.7	12010.8
884.8582	1434.3547	13175.45	12243.1
885.0018	1436.188	13188.3	12261.35
885.1453	1438.0206	13120.05	12188.05
885.2889	1439.8524	12947.15	12016.6
885.4324	1441.6835	12816.15	11887.45
885.5759	1443.5139	12734.15	11802
885.7194	1445.3435	12626.7	11697.6
885.8629	1447.1724	12575.95	11651.15
886.0064	1449.0005	12538.5	11610.1
886.1499	1450.8279	12464	11534.95
886.2933	1452.6545	12442.95	11512.8
886.4368	1454.4804	12465.05	11536.9
886.5802	1456.3056	12482.95	11548.4
886.7237	1458.13	12362.8	11437.4
886.8671	1459.9536	12181	11254.55
887.0105	1461.7766	11871.5	10943.4
887.1539	1463.5987	11527.65	10600.05
887.2972	1465.4202	11169	10238.9
887.4406	1467.2409	10797.35	9868.05
887.584	1469.0608	10530	9602.2
887.7273	1470.88	10263.1	9335.5
887.8706	1472.6984	10027.35	9099
888.0139	1474.5161	9823.05	8894.75
888.1572	1476.3331	9662.45	8736.2
888.3005	1478.1493	9547.6	8620
888.4438	1479.9648	9473.15	8542.85
888.5871	1481.7795	9393.3	8466.85
888.7303	1483.5935	9317.8	8390.05
888.8736	1485.4067	9234.65	8307.5
889.0168	1487.2192	9198.4	8269.55
889.16	1489.031	9158	8229.1
889.3032	1490.842	9099.35	8168.9
889.4464	1492.6522	9064.55	8135.2
889.5896	1494.4618	9016.65	8087.5
889.7327	1496.2705	8973.95	8048.15
889.8759	1498.0785	8951.25	8025.7
890.019	1499.8858	8916	7987.15
890.1622	1501.6924	8873.45	7948.05
890.3053	1503.4981	8825.55	7897.6
890.4484	1505.3032	8784.4	7857.85
890.5914	1507.1075	8743.55	7813.8
890.7345	1508.911	8710.9	7781.15
890.8776	1510.7138	8685.4	7759.6
891.0206	1512.5159	8618.35	7691.7
891.1637	1514.3172	8532.05	7607.6
891.3067	1516.1178	8513.35	7589.55
891.4497	1517.9176	8508.6	7580.8
891.5927	1519.7166	8431.35	7508.5
891.7357	1521.515	8422.7	7490.45
891.8786	1523.3126	8390.75	7466
892.0216	1525.1094	8353.1	7425.7
892.1645	1526.9055	8333.15	7407.95
892.3074	1528.7008	8294.45	7368.55
892.4503	1530.4954	8268.7	7345.1
892.5932	1532.2893	8227.15	7306.25
892.7361	1534.0824	8219	7294.3
892.879	1535.8747	8197.75	7277.7
893.0218	1537.6663	8183.2	7264.4
893.1647	1539.4572	8158.85	7238.05
893.3075	1541.2473	8155	7231.35
893.4503	1543.0367	8161.65	7241.75
893.5931	1544.8253	8150.6	7224.95
893.7359	1546.6132	8182.1	7255.95
893.8787	1548.4003	8167.45	7237.35
894.0214	1550.1867	8205.75	7278.1
894.1642	1551.9723	8254.8	7332.55
894.3069	1553.7572	8332.55	7414
894.4496	1555.5414	8417.2	7500.2
894.5923	1557.3247	8494.15	7577.65
894.735	1559.1074	8621.7	7705.55
894.8777	1560.8893	8737.7	7821.5
895.0204	1562.6705	8858.05	7942.85
895.163	1564.4509	8961.05	8044.05
895.3056	1566.2305	8993.6	8080.55
895.4482	1568.0094	9062.35	8152.45
895.5908	1569.7876	9092.1	8178.65
895.7334	1571.565	9063.15	8147.8
895.876	1573.3417	9029.95	8113.15
896.0186	1575.1176	9007.6	8094.05
896.1611	1576.8928	8976.8	8065.85
896.3036	1578.6672	8951.25	8044.4
896.4461	1580.4409	8884.15	7981.05
896.5886	1582.2138	8868.7	7956.9
896.7311	1583.986	8824.8	7914.85
896.8736	1585.7575	8832.25	7920.9
897.0161	1587.5282	8832.75	7922.6
897.1585	1589.2981	8865.35	7960.1
897.3009	1591.0673	8892.05	7985.6
897.4433	1592.8358	8987.8	8081.1
897.5857	1594.6035	9057.45	8145.45
897.7281	1596.3704	9085.45	8174.15
897.8705	1598.1366	9161.25	8252.4
898.0128	1599.9021	9234.45	8326.25
898.1551	1601.6668	9298.45	8390.1
898.2975	1603.4308	9414.35	8502.3
898.4398	1605.194	9580.2	8665.65
898.5821	1606.9564	9745.35	8843.55
898.7243	1608.7182	9954	9052.9
898.8666	1610.4791	10168.8	9271.9
899.0088	1612.2394	10415.8	9521.1
899.1511	1613.9988	10637.05	9738.4
899.2933	1615.7576	10889.35	9986.55
899.4355	1617.5156	11106.35	10192.45
899.5776	1619.2728	11212.95	10302.95
899.7198	1621.0293	11205.5	10297.45
899.862	1622.785	11098.85	10188.05
900.0041	1624.54	10895.7	9990.25
900.1462	1626.2942	10637.3	9735.35
900.2883	1628.0477	10340.3	9433.5
900.4304	1629.8005	10066.2	9157.85
900.5725	1631.5525	9762.05	8859.65
900.7145	1633.3037	9524.35	8620
900.8566	1635.0542	9380.9	8480.05
900.9986	1636.804	9220.1	8317.3
901.1406	1638.553	9216.7	8223.05
901.2826	1640.3013	9130.65	8226.3
901.4245	1642.0488	9084.9	8179.55
901.5665	1643.7955	9126.8	8226.1
901.7085	1645.5416	9195.4	8295.35
901.8504	1647.2868	9270.1	8370.1
901.9923	1649.0313	9364	8460.05
902.1342	1650.7751	9516.6	8610.3
902.2761	1652.5181	9666.15	8765.55
902.4179	1654.2604	9861.35	8960.35
902.5598	1656.0019	10083.05	9184
902.7016	1657.7427	10345.85	9445.8
902.8434	1659.4828	10630.65	9724.05
902.9852	1661.222	10773.85	9866.55
903.127	1662.9606	10742.1	9837.8
903.2687	1664.6984	10497.1	9589.05
903.4105	1666.4354	10080.85	9175.5
903.5522	1668.1717	9518.55	8610.55
903.6939	1669.9072	8984.7	8076.85
903.8356	1671.642	8521.3	7613.3
903.9773	1673.3761	8129.45	7224.95
904.119	1675.1094	7831.6	6926.7
904.2606	1676.8419	7557.85	6654.3
904.4022	1678.5737	7362.8	6459.15
904.5439	1680.3048	7224.15	6319
904.6855	1682.0351	7079.85	6172.3
904.827	1683.7646	6971.15	6062.7
904.9686	1685.4934	6909.95	6006.1
905.1101	1687.2215	6822.35	5924.2
905.2517	1688.9488	6750.45	5851.55
905.3932	1690.6754	6683.55	5780.7
905.5347	1692.4012	6665.15	5762.65
905.6761	1694.1263	6608.15	5702.85
905.8176	1695.8506	6563.2	5660.25
905.9591	1697.5742	6512.7	5613.65
906.1005	1699.297	6461.6	5564.85
906.2419	1701.0191	6412.8	5517.1
906.3833	1702.7404	6382.35	5484.5
906.5246	1704.461	6336.9	5437
906.666	1706.1808	6299.95	5399.9
906.8073	1707.8999	6283.55	5383.35
906.9487	1709.6182	6247.7	5351.15
907.09	1711.3358	6226.05	5329.75
907.2313	1713.0527	6193.25	5298.9
907.3725	1714.7688	6148.1	5246.8
907.5138	1716.4841	6120.3	5217.4
907.655	1718.1987	6141.3	5238.5
907.7962	1719.9126	6078.15	5183.1
907.9374	1721.6257	6075.35	5179.8
908.0786	1723.338	6043.25	5150.15
908.2198	1725.0496	6020.85	5123.7
908.3609	1726.7605	6026.95	5128.7
908.502	1728.4706	6006.95	5108.1
908.6431	1730.18	5956.1	5058.05
908.7842	1731.8886	5935.35	5044.15
908.9253	1733.5964	5946.45	5029.7
909.0664	1735.3036	5907.05	5009
909.2074	1737.0099	5878.85	4982.25
909.3484	1738.7156	5871.55	4977.35
909.4894	1740.4204	5833.8	4934.95
909.6304	1742.1246	5809.1	4912.55
909.7714	1743.8279	5790.1	4893.15
909.9123	1745.5306	5775.45	4882.55
910.0532	1747.2325	5743.15	4849.45
910.1941	1748.9336	5722.5	4827.05
910.335	1750.634	5680.65	4781.05
910.4759	1752.3336	5667.9	4771.05
910.6168	1754.0325	5644.8	4753.7
910.7576	1755.7307	5647.15	4754.7
910.8984	1757.4281	5649.1	4756.1
911.0392	1759.1247	5641.6	4735
911.18	1760.8206	5619.4	4716.95
911.3208	1762.5158	5623.6	4722.7
911.4615	1764.2102	5581.65	4686.25
911.6022	1765.9039	5581.05	4685.95
911.7429	1767.5968	5551.25	4660.85
911.8836	1769.289	5529.35	4635.2
912.0243	1770.9804	5524.4	4630.25
912.1649	1772.6711	5515.5	4618.5
912.3056	1774.361	5498.25	4599.2
912.4462	1776.0502	5480	4581.8
912.5868	1777.7386	5484.45	4584.25
912.7274	1779.4263	5456.1	4561.7
912.8679	1781.1132	5443.15	4552.35
913.0084	1782.7994	5432.25	4539.25
913.149	1784.4849	5428.5	4538.2
913.2895	1786.1696	5420.2	4522.2
913.4299	1787.8535	5399.3	4511.45
913.5704	1789.5367	5392.45	4501.85
913.7108	1791.2192	5373.6	4482.25
913.8513	1792.9009	5368.7	4451.3
913.9917	1794.5818	5344.5	4445.7
914.132	1796.2621	5325.8	4431.55
914.2724	1797.9415	5310.3	4412.75
914.4128	1799.6202	5301.25	4407.1
914.5531	1801.2982	5318.9	4422.25
914.6934	1802.9755	5279.5	4381.55
914.8337	1804.6519	5264.8	4369.2
914.9739	1806.3277	5260.3	4368.55
915.1142	1808.0027	5241.2	4352.6
915.2544	1809.6769	5220.4	4330.35
915.3946	1811.3504	5228.25	4338.15
915.5348	1813.0231	5211.8	4322.15
915.675	1814.6951	5205.35	4316.55
915.8151	1816.3664	5197.6	4300.1
915.9553	1818.0369	5206.1	4312.35
916.0954	1819.7067	5179.1	4285.5
916.2355	1821.3757	5171.65	4276.85
916.3755	1823.044	5175.65	4281.85
916.5156	1824.7115	5161.65	4266.05
916.6556	1826.3783	5120.95	4228.3
916.7956	1828.0443	5115.7	4223.75
916.9356	1829.7096	5104.5	4208.25
917.0756	1831.3741	5113	4218.05
917.2155	1833.0379	5103.9	4211.85
917.3555	1834.701	5089.1	4196.9
917.4954	1836.3633	5065.45	4175.95
917.6353	1838.0248	5046.35	4154.95
917.7751	1839.6856	5050	4157.35
917.915	1841.3457	5054.45	4161.65
918.0548	1843.005	5045.75	4151.4
918.1946	1844.6636	5039.4	4146.4
918.3344	1846.3214	5012.35	4117.1
918.4742	1847.9785	5015.9	4123.6
918.6139	1849.6349	4997.3	4102.1
918.7537	1851.2904	4987.05	4084.3
918.8934	1852.9453	4980	4084.2
919.0331	1854.5994	4963.35	4064.95
919.1727	1856.2528	4978.2	4077.75
919.3124	1857.9054	4956.15	4061.7
919.452	1859.5572	4939.9	4048.6
919.5916	1861.2083	4926.1	4034.9
919.7312	1862.8587	4931.05	4034.8
919.8708	1864.5084	4925.75	4028.6
920.0103	1866.1572	4892.5	3999.1
920.1498	1867.8054	4884.55	3988.05
920.2893	1869.4528	4883.1	3985.85
920.4288	1871.0994	4868.15	3970.95
920.5683	1872.7453	4868.15	3971.85
920.7077	1874.3905	4860.05	3946.5
920.8471	1876.0349	4840.35	3945.55
920.9865	1877.6786	4823.1	3928.05
921.1259	1879.3215	4830.05	3935.4
921.2653	1880.9637	4823.1	3928.15
921.4046	1882.6051	4811.65	3917.8
921.5439	1884.2458	4803.35	3908.25
921.6832	1885.8858	4787.2	3894.05
921.8225	1887.525	4774.5	3882.55
921.9617	1889.1634	4741.65	3845.9
922.101	1890.8011	4732	3836.65
922.2402	1892.4381	4744.15	3851.55
922.3794	1894.0743	4727.65	3833.85
922.5185	1895.7098	4696.55	3802.9
922.6577	1897.3446	4711.3	3815.4
922.7968	1898.9786	4697.35	3800.3
922.9359	1900.6118	4695.4	3801.55
923.075	1902.2443	4657.7	3765.95
923.214	1903.8761	4671.25	3778.6
923.3531	1905.5071	4650.4	3757.25
923.4921	1907.1374	4620.9	3728.7
923.6311	1908.7669	4635.55	3744.15
923.77	1910.3957	4619.95	3727.15
923.909	1912.0237	4588.75	3697.5
924.0479	1913.651	4574.35	3681.7
924.1868	1915.2776	4571.05	3677.35
924.3257	1916.9034	4560.2	3670.7
924.4646	1918.5285	4546.4	3655.05
924.6034	1920.1528	4521.75	3628.05
924.7422	1921.7764	4526.65	3630.45
924.881	1923.3992	4516.3	3623.65
925.0198	1925.0213	4485.8	3593.15
925.1586	1926.6427	4473.45	3583.15
925.2973	1928.2633	4623.6	3526
925.436	1929.8832	4491.5	3597.8
925.5747	1931.5023	4439.4	3547.15
925.7134	1933.1207	4424.3	3532.5
925.852	1934.7383	4429.15	3535.75
925.9906	1936.3552	4404.75	3513.2
926.1292	1937.9714	4381	3489.6
926.2678	1939.5868	4386.3	3492.3
926.4064	1941.2015	4358.9	3463.3
926.5449	1942.8154	4358.7	3465.7
926.6834	1944.4286	4327.6	3433.8
926.8219	1946.041	4331.95	3422.45
926.9604	1947.6528	4321.95	3423.6
927.0988	1949.2637	4294	3401.7
927.2372	1950.8739	4281.6	3390.25
927.3756	1952.4834	4270.25	3378.55
927.514	1954.0921	4278.55	3387.2
927.6523	1955.7001	4253.45	3358.6
927.7907	1957.3074	4245.1	3355.75
927.929	1958.9139	4225.85	3338.2
928.0673	1960.5197	4214.9	3325
928.2055	1962.1247	4194.95	3306.1
928.3438	1963.729	4191.95	3302.65
928.482	1965.3325	4187.85	3291.85
928.6202	1966.9353	4153.45	3267.7
928.7584	1968.5374	4153.7	3266.7
928.8965	1970.1387	4134.15	3246.35
929.0346	1971.7393	4128.15	3238.7
929.1727	1973.3392	4114.9	3226.15
929.3108	1974.9383	4103.25	3216.2
929.4489	1976.5366	4085.7	3196.3
929.5869	1978.1342	4084.1	3197.65
929.7249	1979.7311	4075.8	3186.95
929.8629	1981.3273	4065.1	3177.9
930.0009	1982.9227	4055.05	3166.35
930.1388	1984.5173	4037.2	3151.7
930.2767	1986.1112	4021.05	3135.05
930.4146	1987.7044	4027.05	3140.6
930.5525	1989.2968	4023.55	3135.7
930.6904	1990.8885	4017.75	3128.5
930.8282	1992.4795	4005.8	3120.1
930.966	1994.0697	3970.45	3087.25
931.1038	1995.6592	3972.4	3088.4
931.2415	1997.2479	3966.85	3080.2
931.3793	1998.8359	3961.85	3076.3
931.517	2000.4232	3941.75	3058.95
931.6547	2002.0097	3916.1	3037.65
931.7923	2003.5955	3917.9	3038.4
931.93	2005.1805	3920.95	3034.8
932.0676	2006.7648	3905.85	3024.3
932.2052	2008.3484	3902.1	3018.05
932.3427	2009.9312	3915.45	3033.6
932.4803	2011.5133	3871.95	2992.9
932.6178	2013.0946	3870.8	2990.85
932.7553	2014.6752	3866	2984.15
932.8928	2016.2551	3868.7	2982.25
933.0302	2017.8342	3842.75	2961.9
933.1676	2019.4126	3832.05	2950.2
933.305	2020.9902	3810.7	2930.2
933.4424	2022.5672	3801.35	2921.55
933.5798	2024.1433	3810.95	2927.95
933.7171	2025.7188	3790.2	2913.2
933.8544	2027.2935	3783.65	2902.55
933.9917	2028.8674	3771.65	2891.65
934.129	2030.4406	3773.15	2894.15
934.2662	2032.0131	3747.25	2869.9
934.4034	2033.5849	3731.3	2850.55
934.5406	2035.1559	3738.15	2861.95
934.6778	2036.7261	3739.9	2853.5
934.8149	2038.2957	3731.35	2847.95
934.952	2039.8645	3727.95	2843.75
935.0891	2041.4325	3740.15	2853.25
935.2262	2042.9998	3707.75	2825.6
935.3632	2044.5664	3699.8	2818.55
935.5002	2046.1323	3695.25	2815.95
935.6372	2047.6974	3682.45	2801.15
935.7742	2049.2617	3679.6	2799.4
935.9111	2050.8254	3683.25	2779.55
936.048	2052.3883	3680.6	2795.75
936.1849	2053.9504	3668.95	2783.3
936.3218	2055.5118	3648.1	2761.5
936.4586	2057.0725	3636.75	2750.35
936.5955	2058.6325	3626.35	2745.95
936.7323	2060.1917	3633.1	2753.15
936.869	2061.7502	3608.4	2723.2
937.0058	2063.3079	3608.5	2729.95
937.1425	2064.8649	3606.15	2723.05
937.2792	2066.4212	3601.4	2720.85
937.4159	2067.9767	3584.15	2698.4
937.5525	2069.5315	3586.95	2703.55
937.6891	2071.0856	3548.6	2668.6
937.8257	2072.6389	3551.85	2669.55
937.9623	2074.1915	3530.6	2651.85
938.0989	2075.7433	3531.25	2648.15
938.2354	2077.2945	3517.75	2638.45
938.3719	2078.8448	3516.3	2635.85
938.5084	2080.3945	3505.85	2621.2
938.6448	2081.9434	3496.75	2613.55
938.7812	2083.4916	3491.65	2605.7
938.9176	2085.039	3484.1	2593
939.054	2086.5857	3462.55	2572.55
939.1903	2088.1317	3468.05	2577.75
939.3267	2089.677	3471.4	2581.95
939.463	2091.2215	3458.9	2566
939.5992	2092.7652	3443.25	2549.2
939.7355	2094.3083	3439.2	2549.15
939.8717	2095.8506	3428.8	2542.35
940.0079	2097.3921	3414.2	2529.85
940.1441	2098.933	3413.8	2528.65
940.2802	2100.4731	3415.25	2529.35
940.4163	2102.0124	3420.1	2526.25
940.5524	2103.5511	3416.95	2528.1
940.6885	2105.089	3410.4	2521.15
940.8245	2106.6261	3386	2500
940.9606	2108.1626	3375.35	2487.6
941.0965	2109.6983	3404.55	2492
941.2325	2111.2332	3363.05	2476.65
941.3684	2112.7675	3363.25	2475.3
941.5044	2114.301	3363.35	2475.45
941.6403	2115.8337	3366.85	2477.6
941.7761	2117.3657	3338.45	2451.95
941.912	2118.897	3343.6	2455.4
942.0478	2120.4276	3348.35	2454.55
942.1835	2121.9575	3326.1	2437.3
942.3193	2123.4866	3310.75	2421.6
942.455	2125.0149	3317.2	2427.65
942.5907	2126.5426	3303	2418.85
942.7264	2128.0695	3292.4	2406.1
942.8621	2129.5956	3280.65	2396.85
942.9977	2131.1211	3272.55	2383.9
943.1333	2132.6458	3276.05	2391.45
943.2689	2134.1698	3277.75	2390.55
943.4044	2135.693	3272.25	2380.4
943.54	2137.2155	3277.25	2385.2
943.6755	2138.7373	3260.2	2374.3
943.8109	2140.2584	3231.25	2348.8
943.9464	2141.7787	3245.35	2357.55
944.0818	2143.2983	3221.5	2340.9
944.2172	2144.8171	3197.9	2320.25
944.3526	2146.3353	3198.65	2314.6
944.4879	2147.8527	3188.15	2305.25
944.6232	2149.3693	3188.45	2302.75
944.7585	2150.8853	3190.5	2298.4
944.8938	2152.4005	3194.3	2305.25
945.029	2153.9149	3170.65	2281.85
945.1642	2155.4287	3166.25	2279.2
945.2994	2156.9417	3175.65	2287.7
945.4346	2158.454	3169.6	2283.05
945.5697	2159.9655	3150.4	2267.7
945.7048	2161.4764	3150.35	2267.65
945.8399	2162.9865	3143.1	2257
945.9749	2164.4958	3123.8	2239.85
946.1099	2166.0045	3118	2231.2
946.2449	2167.5124	3117.05	2233.55
946.3799	2169.0195	3116.4	2230.5
946.5148	2170.526	3105.6	2219.05
946.6498	2172.0317	3097.15	2210.75
946.7846	2173.5367	3089.6	2204.05
946.9195	2175.0409	3094.15	2208.8
947.0543	2176.5445	3088.4	2201.55
947.1891	2178.0473	3090.6	2202.25
947.3239	2179.5494	3084.15	2195.3
947.4587	2181.0507	3076.4	2188.9
947.5934	2182.5513	3056.75	2172.2
947.7281	2184.0512	3059.15	2172.1
947.8628	2185.5504	3052.85	2167.75
947.9974	2187.0488	3030	2146.55
948.132	2188.5465	3026.15	2142.75
948.2666	2190.0435	3027.15	2141.35
948.4012	2191.5397	3022.95	2134.45
948.5357	2193.0353	3012.15	2123.75
948.6702	2194.5301	2994.3	2103.05
948.8047	2196.0241	2998.05	2106.75
948.9392	2197.5175	2992.6	2099.7
949.0736	2199.0101	2996.2	2102.2
949.208	2200.502	2968.3	2080.8
949.3424	2201.9931	2959	2073.6
949.4767	2203.4835	2951.8	2067.15
949.611	2204.9733	2960.7	2069.65
949.7453	2206.4622	2940.15	2059.7
949.8796	2207.9505	2924.5	2040.2
950.0138	2209.438	2915.65	2034
950.148	2210.9248	2923.8	2039.35
950.2822	2212.4109	2914.35	2030.4
950.4164	2213.8962	2908.25	2017.95
950.5505	2215.3809	2917	2024.6
950.6846	2216.8648	2914.25	2021.45
950.8186	2218.3479	2915.75	2020.15
950.9527	2219.8304	2888.75	1992.75
951.0867	2221.3121	2900.55	2007.45
951.2207	2222.7931	2875.5	1987.1
951.3546	2224.2733	2870.4	1980.25
951.4886	2225.7529	2844.65	1958.5
951.6225	2227.2317	2840.1	1951.6
951.7563	2228.7098	2842.05	1959.15
951.8902	2230.1872	2823.05	1938.3
952.024	2231.6638	2828.1	1942.1
952.1578	2233.1397	2828.5	1941.7
952.2916	2234.6149	2819.5	1933.75
952.4253	2236.0894	2810.55	1925.3
952.559	2237.5632	2811.7	1915.15
952.6927	2239.0362	2796	1910.7
952.8263	2240.5085	2785.1	1896.85
952.9599	2241.9801	2799.7	1914.5
953.0935	2243.4509	2784.7	1895.6
953.2271	2244.921	2777.4	1886.65
953.3606	2246.3904	2772.5	1878.5
953.4941	2247.8591	2760.85	1872.6
953.6276	2249.3271	2756.5	1868.35
953.7611	2250.7943	2751	1862.4
953.8945	2252.2608	2736.05	1848.65
954.0279	2253.7266	2742.2	1853.65
954.1612	2255.1917	2726.55	1841.2
954.2946	2256.656	2718.9	1830.85
954.4279	2258.1197	2717.35	1833
954.5612	2259.5826	2718.2	1829.7
954.6944	2261.0447	2709	1818.9
954.8276	2262.5062	2702.25	1812.15
954.9608	2263.9669	2699.65	1809.1
955.094	2265.4269	2701.3	1812.05
955.2271	2266.8862	2689.4	1803.15
955.3602	2268.3448	2680.75	1793.55
955.4933	2269.8026	2683.1	1801.15
955.6264	2271.2598	2669.75	1784.65
955.7594	2272.7162	2670.25	1785.6
955.8924	2274.1719	2682.35	1793.95
956.0253	2275.6268	2661.95	1771.45
956.1583	2277.0811	2679.75	1788.85
956.2912	2278.5346	2656	1770.95
956.4241	2279.9874	2640.65	1757.35
956.5569	2281.4395	2644.05	1761.6
956.6897	2282.8908	2628.05	1739.1
956.8225	2284.3414	2634	1746.25
956.9553	2285.7914	2623	1736.2
957.088	2287.2406	2624.95	1736.25
957.2207	2288.689	2626.3	1736.5
957.3534	2290.1368	2623.55	1730.5
957.486	2291.5838	2615.4	1720.4
957.6186	2293.0302	2618.9	1723.15
957.7512	2294.4758	2606.75	1716.9
957.8838	2295.9206	2603.1	1712.4
958.0163	2297.3648	2586.2	1698.95
958.1488	2298.8082	2588.75	1701.2
958.2813	2300.251	2566.65	1678
958.4137	2301.693	2571.65	1679.6
958.5461	2303.1343	2565	1674.2
958.6785	2304.5748	2570.95	1683.65
958.8108	2306.0147	2555.45	1669.85
958.9432	2307.4538	2559.65	1670.95
959.0754	2308.8922	2545.9	1662.35
959.2077	2310.3299	2541.45	1655.65
959.3399	2311.7669	2532.15	1648.2
959.4721	2313.2031	2543.45	1656.1
959.6043	2314.6387	2524.3	1635.65
959.7365	2316.0735	2527.1	1640.3
959.8686	2317.5076	2532.85	1644.15
960.0006	2318.941	2516.05	1626.5
960.1327	2320.3737	2512.2	1623.05
960.2647	2321.8056	2499.2	1609.25
960.3967	2323.2369	2496.55	1608.2
960.5287	2324.6674	2502.6	1613.15
960.6606	2326.0972	2493.9	1605.45
960.7925	2327.5263	2484.25	1596.3
960.9244	2328.9547	2492.4	1604.5
961.0562	2330.3823	2477.95	1584.3
961.1881	2331.8092	2485.4	1588.35
961.3198	2333.2355	2478.9	1587.6
961.4516	2334.661	2476.55	1587.6
961.5833	2336.0858	2459.55	1566.2
961.715	2337.5098	2447.45	1557.1
961.8467	2338.9332	2456.8	1568.35
961.9783	2340.3558	2443.75	1553.1
962.1099	2341.7778	2447.2	1559.05
962.2415	2343.199	2434.3	1544.9
962.373	2344.6195	2434.9	1548.2
962.5045	2346.0393	2421.7	1534.45
962.636	2347.4583	2443.6	1556.15
962.7675	2348.8767	2418.35	1528.05
962.8989	2350.2943	2424.15	1532.95
963.0303	2351.7113	2423.9	1531.3
963.1617	2353.1275	2417	1524.45
963.293	2354.543	2419.55	1520.25
963.4243	2355.9578	2406.05	1516.55
963.5556	2357.3718	2401.25	1515.35
963.6868	2358.7852	2384	1494.9
963.818	2360.1978	2389.4	1501.7
963.9492	2361.6098	2384.3	1497.3
964.0803	2363.021	2380.85	1487.15
964.2114	2364.4315	2379.4	1492.4
964.3425	2365.8413	2371.95	1481.3
964.4736	2367.2504	2365.45	1481.05
964.6046	2368.6587	2355.1	1467.8
964.7356	2370.0664	2352.05	1467.35
964.8666	2371.4733	2355.45	1466.15
964.9975	2372.8795	2341.85	1454.65
965.1284	2374.285	2341.4	1454.3
965.2593	2375.6899	2340.25	1452.9
965.3901	2377.0939	2325.15	1439
965.5209	2378.4973	2321.05	1437.6
965.6517	2379.9	2313.75	1426.85
965.7825	2381.3019	2310.55	1427.2
965.9132	2382.7032	2309.2	1422
966.0439	2384.1037	2297.4	1414.85
966.1745	2385.5035	2286.05	1401.15
966.3051	2386.9027	2300.35	1416.15
966.4357	2388.3011	2293.85	1408.1
966.5663	2389.6987	2289.7	1405.2
966.6968	2391.0957	2283.5	1398.15
966.8273	2392.492	2269.8	1385.85
966.9578	2393.8876	2266.3	1380.85
967.0882	2395.2824	2250.3	1366.1
967.2186	2396.6765	2253.95	1371.5
967.349	2398.07	2253.45	1368.4
967.4793	2399.4627	2241.9	1353.9
967.6097	2400.8547	2233	1345.8
967.7399	2402.246	2242.75	1350.65
967.8702	2403.6366	2233.65	1346.65
968.0004	2405.0265	2219.9	1335.4
968.1306	2406.4156	2223.8	1333.2
968.2607	2407.8041	2219.65	1329.3
968.3909	2409.1918	2220.4	1331.1
968.521	2410.5789	2204.65	1317.45
968.651	2411.9652	2209.75	1321.1
968.781	2413.3508	2203.6	1316
968.911	2414.7358	2194.6	1307.8
969.041	2416.12	2194.7	1309.7
969.1709	2417.5035	2193.15	1307.9
969.3008	2418.8863	2181.35	1293.45
969.4307	2420.2684	2183.9	1296.05
969.5606	2421.6497	2184.1	1297.5
969.6904	2423.0304	2160.5	1275.1
969.8201	2424.4104	2164.9	1279.15
969.9499	2425.7896	2170.1	1283.1
970.0796	2427.1682	2163.25	1279.85
970.2093	2428.546	2146.85	1261.65
970.3389	2429.9232	2154.5	1266.6
970.4685	2431.2996	2149.45	1264.2
970.5981	2432.6753	2153.65	1265.4
970.7277	2434.0503	2151.55	1266.7
970.8572	2435.4246	2142.15	1255.95
970.9867	2436.7982	2134.75	1246.15
971.1161	2438.1711	2131.85	1244.9
971.2456	2439.5433	2123.05	1234.4
971.375	2440.9148	2129.35	1236.15
971.5043	2442.2856	2107.95	1219.95
971.6336	2443.6557	2109.3	1220.8
971.7629	2445.025	2112.3	1225.75
971.8922	2446.3937	2109.35	1222.65
972.0214	2447.7617	2100.75	1214.2
972.1506	2449.1289	2106.65	1222.35
972.2798	2450.4955	2094.35	1206.45
972.4089	2451.8613	2086.1	1201.4
972.538	2453.2265	2088.7	1201.2
972.6671	2454.5909	2080.05	1194.4
972.7961	2455.9546	2077.4	1190.25
972.9251	2457.3177	2080.6	1194.8
973.0541	2458.68	2083.1	1194.4
973.1831	2460.0416	2075.95	1189.45
973.312	2461.4025	2072.3	1185.3
973.4408	2462.7627	2072.35	1175.6
973.5697	2464.1222	2056.3	1173.1
973.6985	2465.4811	2049.7	1163.95
973.8273	2466.8392	2060.15	1175.25
973.956	2468.1966	2064.4	1175.35
974.0847	2469.5533	2058.7	1170.15
974.2134	2470.9093	2051.7	1163.2
974.3421	2472.2645	2050.3	1161.9
974.4707	2473.6191	2045.45	1158.9
974.5993	2474.973	2039.7	1153.5
974.7278	2476.3262	2036.95	1149.1
974.8563	2477.6787	2036.15	1149.4
974.9848	2479.0305	2033.85	1146.6
975.1132	2480.3816	2018.75	1131.2
975.2417	2481.7319	2013.95	1129.05
975.37	2483.0816	2011.9	1124.65
975.4984	2484.4306	2013.85	1127.2
975.6267	2485.7789	2004.9	1120.7
975.755	2487.1264	2002	1113.95
975.8833	2488.4733	1993.55	1110.4
976.0115	2489.8195	1996.9	1104.7
976.1397	2491.165	1995.35	1105.5
976.2678	2492.5097	1992.5	1106.35
976.3959	2493.8538	1982.5	1097.2
976.524	2495.1972	1981.7	1094.25
976.6521	2496.5398	1967.7	1080.45
976.7801	2497.8818	1973.25	1083.35
976.9081	2499.2231	1979.6	1091.3
977.036	2500.5637	1971.25	1081.95
977.164	2501.9035	1971.3	1082.75
977.2918	2503.2427	1972	1080.55
977.4197	2504.5812	1954.15	1067.5
977.5475	2505.919	1947.35	1059.45
977.6753	2507.256	1948.8	1063.6
977.8031	2508.5924	1946.1	1060.6
977.9308	2509.9281	1951.95	1059.45
978.0585	2511.2631	1934.8	1049
978.1861	2512.5974	1938.9	1054.25
978.3137	2513.9309	1936.15	1049.6
978.4413	2515.2638	1957.95	1043.7
978.5689	2516.596	1929.25	1043.75
978.6964	2517.9275	1925.7	1038.15
978.8239	2519.2583	1921.95	1033.45
978.9513	2520.5884	1914.65	1028.3
979.0788	2521.9178	1908.3	1020.65
979.2062	2523.2465	1909.1	1024.35
979.3335	2524.5745	1909.1	1023.75
979.4608	2525.9018	1900.2	1014.3
979.5881	2527.2284	1908.25	1021.25
979.7154	2528.5543	1908.45	1022.25
979.8426	2529.8796	1905.2	1020
979.9698	2531.2041	1905.15	1019.55
980.0969	2532.5279	1894.65	1011.4
980.224	2533.851	1893.95	1005.8
980.3511	2535.1735	1894.3	1009.35
980.4781	2536.4952	1894.5	1007.65
980.6052	2537.8163	1881.8	994.5
980.7321	2539.1366	1878.4	991.25
980.8591	2540.4562	1876.4	988.15
980.986	2541.7752	1869.85	982.7
981.1129	2543.0935	1878.85	991.25
981.2397	2544.411	1885.4	996.25
981.3665	2545.7279	1865.95	978.05
981.4933	2547.0441	1867.95	981.05
981.62	2548.3596	1875.8	984.45
981.7467	2549.6744	1861.7	974.65
981.8734	2550.9885	1868.5	980.35
982.0001	2552.3019	1862.85	975.05
982.1267	2553.6146	1857.55	971.5
982.2532	2554.9266	1856.9	969.6
982.3798	2556.2379	1861.6	974.65
982.5063	2557.5485	1848.75	965.3
982.6327	2558.8585	1859.45	964.8
982.7592	2560.1677	1852.8	961.25
982.8856	2561.4762	1845.5	955.6
983.0119	2562.7841	1846.25	956.1
983.1383	2564.0913	1837.95	952.35
983.2646	2565.3977	1832.1	945.45
983.3908	2566.7035	1837.25	948.25
983.517	2568.0086	1836.95	948.05
983.6432	2569.313	1841.55	953.85
983.7694	2570.6167	1832.45	938.95
983.8955	2571.9197	1837.95	951.25
984.0216	2573.222	1831.9	940.6
984.1476	2574.5236	1828.95	940.95
984.2737	2575.8246	1816.6	928.35
984.3996	2577.1248	1835.7	944.45
984.5256	2578.4244	1815.45	929
984.6515	2579.7232	1814.25	926.8
984.7774	2581.0214	1841.85	930
984.9032	2582.3189	1820.3	934.35
985.029	2583.6157	1819.85	926.6
985.1548	2584.9118	1822.55	934.35
985.2806	2586.2072	1811.8	925.7
985.4063	2587.5019	1809.75	922.85
985.5319	2588.7959	1809.85	924.75
985.6576	2590.0893	1809.35	920.65
985.7832	2591.3819	1809.65	924.6
985.9087	2592.6739	1808.15	923.6
986.0343	2593.9652	1804.55	914.75
986.1597	2595.2557	1810.15	921.7
986.2852	2596.5456	1807.85	918.35
986.4106	2597.8348	1807.4	918.8
986.536	2599.1234	1803.95	918.8
986.6614	2600.4112	1812.6	925.35
986.7867	2601.6983	1807.25	917.65
986.912	2602.9848	1798.25	910.9
987.0372	2604.2705	1799.1	905
987.1624	2605.5556	1795.35	908.2
987.2876	2606.84	1783.7	898.35
987.4128	2608.1237	1787.75	901.3
987.5379	2609.4067	1778.9	891.75
987.6629	2610.689	1790.1	895.1
987.788	2611.9707	1774.4	886.7
987.913	2613.2516	1775.5	884.35
988.0379	2614.5319	1769.85	885.05
988.1629	2615.8115	1769.15	882.05
988.2878	2617.0903	1762.45	873.8
988.4126	2618.3685	1759.85	873.5
988.5375	2619.6461	1754.25	868.95
988.6622	2620.9229	1761.1	873.9
988.787	2622.199	1759.9	872.15
988.9117	2623.4745	1742.9	857.05
989.0364	2624.7493	1748.5	861.55
989.161	2626.0234	1739.05	854.35
989.2857	2627.2968	1747.1	863
989.4102	2628.5695	1744.6	857.4
989.5348	2629.8415	1744.25	859.05
989.6593	2631.1128	1735.35	849.05
989.7837	2632.3835	1738.5	854
989.9082	2633.6535	1730.55	846.15
990.0326	2634.9228	1736.1	851.7
990.1569	2636.1914	1731.35	846.4
990.2812	2637.4593	1728.75	839.8
990.4055	2638.7265	1727.45	839.2
990.5298	2639.9931	1717.6	830.75
990.654	2641.259	1719.25	832.05
990.7782	2642.5242	1714.85	830.5
990.9023	2643.7887	1715.05	829.05
991.0264	2645.0525	1714.15	828.2
991.1505	2646.3156	1711.3	824.05
991.2745	2647.5781	1702.7	817.25
991.3985	2648.8398	1699.65	815.75
991.5225	2650.1009	1739.2	815.6
991.6464	2651.3613	1704.9	820
991.7703	2652.6211	1701.7	817.95
991.8942	2653.8801	1688.2	801.95
992.018	2655.1385	1691.55	805.2
992.1418	2656.3961	1697.35	811.2
992.2655	2657.6531	1692.9	807.1
992.3892	2658.9094	1690.7	803.3
992.5129	2660.1651	1692.95	808.2
992.6366	2661.42	1696.15	810.25
992.7602	2662.6743	1684.85	798.05
992.8837	2663.9279	1696.5	810.65
993.0073	2665.1808	1694.8	808.55
993.1307	2666.433	1703.6	816.85
993.2542	2667.6846	1697.05	811.85
993.3776	2668.9354	1698.15	810.6
993.501	2670.1856	1692.15	805.7
993.6244	2671.4351	1693.3	808.45
993.7477	2672.6839	1697.75	812
993.8709	2673.9321	1695.65	811
993.9942	2675.1795	1700.2	814.7
994.1174	2676.4263	1693.8	806.9
994.2405	2677.6724	1698.95	815.05
994.3637	2678.9179	1702.7	819.1
994.4868	2680.1626	1695.25	811.2
994.6098	2681.4067	1691.8	807.75
994.7328	2682.6501	1699.45	814.95
994.8558	2683.8928	1687.15	803.15
994.9788	2685.1348	1689.5	804.55
995.1017	2686.3761	1680.75	796.8
995.2245	2687.6168	1682.15	799.75
995.3474	2688.8568	1672.85	787.4
995.4702	2690.0961	1670.7	787.35
995.5929	2691.3348	1668.95	783.4
995.7156	2692.5727	1663.25	776.8
995.8383	2693.81	1657.15	773.6
995.961	2695.0466	1663.55	781.85
996.0836	2696.2826	1651.55	765.55
996.2062	2697.5178	1671.55	767.25
996.3287	2698.7524	1663.65	777.45
996.4512	2699.9863	1657.3	769.65
996.5737	2701.2195	1670.6	785.35
996.6961	2702.452	1663.2	774.9
996.8185	2703.6839	1666.5	781.15
996.9408	2704.9151	1666	781.75
997.0631	2706.1456	1663.7	779.1
997.1854	2707.3755	1672.45	786.95
997.3077	2708.6046	1679.95	792.85
997.4299	2709.8331	1696.15	809.45
997.552	2711.0609	1685.45	800.8
997.6742	2712.2881	1702.05	820.3
997.7963	2713.5145	1707.55	819.15
997.9183	2714.7403	1714.15	832.15
998.0403	2715.9654	1718.3	834
998.1623	2717.1899	1733.45	834.25
998.2842	2718.4136	1740.85	856.45
998.4062	2719.6367	1750.85	865.8
998.528	2720.8591	1758.6	866.45
998.6498	2722.0809	1766.15	883
998.7716	2723.3019	1785.55	895.05
998.8934	2724.5223	1784.05	897.4
999.0151	2725.7421	1789.2	901.4
999.1368	2726.9611	1802.4	916.55
999.2584	2728.1795	1798.4	910.55
999.38	2729.3972	1782.05	898.45
999.5016	2730.6142	1788.65	889.05
999.6231	2731.8306	1756.15	871.7
999.7446	2733.0462	1750.6	866.6
999.8661	2734.2612	1725.6	834.8
999.9875	2735.4756	1702.05	816.4
1000.1089	2736.6892	1692.35	808.65
1000.2302	2737.9022	1673.7	792.2
1000.3515	2739.1145	1650.55	766.15
1000.4728	2740.3262	1654	761.25
1000.594	2741.5372	1639.3	757.75
1000.7152	2742.7475	1631.2	745.6
1000.8363	2743.9571	1609.8	725.3
1000.9575	2745.1661	1609.55	721.2
1001.0785	2746.3744	1596.6	713.35
1001.1996	2747.582	1590	706.25
1001.3206	2748.7889	1586.8	701.5
1001.4415	2749.9952	1564.5	681.35
1001.5625	2751.2008	1562.25	676.75
1001.6833	2752.4057	1562.2	676.1
1001.8042	2753.61	1552.75	668.8
1001.925	2754.8136	1555	666.95
1002.0458	2756.0165	1549.25	665.6
1002.1665	2757.2188	1552.4	668.45
1002.2872	2758.4204	1546.7	663.45
1002.4078	2759.6213	1543.85	658.15
1002.5285	2760.8215	1553.15	663.35
1002.649	2762.0211	1551.75	666.1
1002.7696	2763.22	1543.3	657.85
1002.8901	2764.4182	1547.65	662.65
1003.0106	2765.6158	1535.55	652.15
1003.131	2766.8127	1541.5	659.9
1003.2514	2768.009	1530.1	646.2
1003.3717	2769.2045	1527.8	646.15
1003.492	2770.3994	1529.35	644.25
1003.6123	2771.5936	1526.35	643.5
1003.7325	2772.7872	1516.75	633.4
1003.8527	2773.9801	1512.2	624.2
1003.9729	2775.1723	1526.2	627.15
1004.093	2776.3639	1511.6	629.7
1004.2131	2777.5548	1511.5	628
1004.3331	2778.745	1503.6	618.4
1004.4531	2779.9346	1510.95	625.95
1004.5731	2781.1235	1519.45	637.1
1004.693	2782.3117	1504.2	621.3
1004.8129	2783.4992	1511.55	629
1004.9328	2784.6861	1519.95	635.25
1005.0526	2785.8723	1523.7	640.8
1005.1723	2787.0579	1525.75	644.1
1005.2921	2788.2428	1529.95	647.2
1005.4118	2789.427	1532.55	650.4
1005.5314	2790.6106	1538.2	655.45
1005.651	2791.7935	1552.95	668.95
1005.7706	2792.9757	1556.5	674.85
1005.8902	2794.1573	1565.3	681.2
1006.0097	2795.3382	1577.75	696.65
1006.1291	2796.5184	1587.3	706.75
1006.2485	2797.698	1593.9	709.7
1006.3679	2798.8769	1618.45	735.5
1006.4873	2800.0551	1613.75	731.3
1006.6066	2801.2327	1636.45	753.35
1006.7258	2802.4096	1653.9	771.75
1006.8451	2803.5859	1667.3	783.35
1006.9642	2804.7615	1685.4	804
1007.0834	2805.9364	1706.85	824.65
1007.2025	2807.1106	1726	842.7
1007.3216	2808.2842	1753.75	870.1
1007.4406	2809.4572	1772.3	891.55
1007.5596	2810.6294	1810.8	927.6
1007.6785	2811.801	1835.65	955
1007.7975	2812.972	1881.8	1000.5
1007.9163	2814.1423	1924.5	1041.85
1008.0352	2815.3119	1974.2	1091.15
1008.154	2816.4808	2001.2	1119.6
1008.2727	2817.6491	2058.65	1175.95
1008.3914	2818.8167	2114.15	1234.95
1008.5101	2819.9837	2162	1275.35
1008.6288	2821.15	2210.1	1329.45
1008.7474	2822.3157	2259.15	1377.65
1008.8659	2823.4807	2319	1439.4
1008.9844	2824.645	2372.35	1488.45
1009.1029	2825.8086	2417.15	1537.45
1009.2214	2826.9716	2456.85	1574.6
1009.3398	2828.134	2513.75	1634.4
1009.4581	2829.2957	2561.65	1677.75
1009.5764	2830.4567	2605.75	1723.8
1009.6947	2831.617	2617.85	1734.25
1009.813	2832.7767	2617.7	1737.25
1009.9312	2833.9358	2627.25	1746.85
1010.0493	2835.0941	2632.35	1748.65
1010.1675	2836.2519	2607.55	1726.25
1010.2855	2837.4089	2600.05	1716.15
1010.4036	2838.5653	2575.75	1694.9
1010.5216	2839.7211	2565	1685.3
1010.6396	2840.8761	2571.8	1690.1
1010.7575	2842.0306	2592.05	1712.5
1010.8754	2843.1843	2602.5	1722.2
1010.9932	2844.3374	2654.85	1774.6
1011.111	2845.4899	2708.15	1827.25
1011.2288	2846.6417	2756.7	1874.1
1011.3465	2847.7928	2818.45	1938.7
1011.4642	2848.9433	2890.5	2009.15
1011.5818	2850.0931	2964.4	2082.65
1011.6995	2851.2422	3023.25	2141.25
1011.817	2852.3907	3091.9	2210.05
1011.9345	2853.5385	3150.3	2267.05
1012.052	2854.6857	3205	2313.35
1012.1695	2855.8323	3239.65	2360.25
1012.2869	2856.9781	3291.9	2411.35
1012.4042	2858.1233	3346.1	2462.8
1012.5216	2859.2679	3400.35	2518.75
1012.6389	2860.4118	3438.1	2556.5
1012.7561	2861.555	3480.65	2595.6
1012.8733	2862.6976	3521.75	2640.65
1012.9905	2863.8395	3550.7	2671.2
1013.1076	2864.9808	3588.45	2706.85
1013.2247	2866.1214	3588.05	2707.5
1013.3417	2867.2614	3607.9	2727
1013.4587	2868.4007	3634.05	2750.45
1013.5757	2869.5393	3643.25	2761.7
1013.6926	2870.6773	3655.9	2769.5
1013.8095	2871.8146	3666.85	2782.4
1013.9263	2872.9513	3671.35	2785.25
1014.0431	2874.0874	3660.8	2779.05
1014.1599	2875.2227	3646.25	2764.15
1014.2766	2876.3574	3626.6	2743.95
1014.3933	2877.4915	3607.95	2726.65
1014.51	2878.6249	3586.8	2706.45
1014.6266	2879.7577	3555.9	2673.15
1014.7431	2880.8898	3549.25	2661.2
1014.8596	2882.0212	3526.85	2647.05
1014.9761	2883.152	3518.1	2637.15
1015.0925	2884.2821	3501.4	2622.2
1015.2089	2885.4116	3494.55	2612.25
1015.3253	2886.5405	3488.05	2605.6
1015.4416	2887.6686	3496.65	2613.8
1015.5579	2888.7962	3488.7	2608.7
1015.6741	2889.923	3498.75	2620
1015.7903	2891.0493	3521.65	2641.15
1015.9065	2892.1748	3525.05	2645.75
1016.0226	2893.2997	3534.95	2654.3
1016.1387	2894.424	3551.8	2672.6
1016.2547	2895.5476	3572.1	2691.95
1016.3707	2896.6706	3597.45	2715.85
1016.4866	2897.7929	3622.65	2741.9
1016.6025	2898.9145	3650.9	2769.7
1016.7184	2900.0355	3667.35	2785.5
1016.8342	2901.1559	3712.7	2829.95
1016.95	2902.2756	3739.65	2858.8
1017.0658	2903.3946	3750.5	2870.6
1017.1815	2904.513	3778.5	2895.95
1017.2971	2905.6308	3805.55	2925.7
1017.4127	2906.7479	3842.35	2959.8
1017.5283	2907.8643	3865.65	2986.1
1017.6439	2908.9801	3879.25	2999.7
1017.7594	2910.0953	3880.9	3000.7
1017.8748	2911.2098	3861	2974.65
1017.9902	2912.3236	3875.25	2987.95
1018.1056	2913.4368	3875.7	2991.5
1018.2209	2914.5494	3842.2	2960.3
1018.3362	2915.6613	3822.25	2936.2
1018.4515	2916.7725	3798.25	2914.15
1018.5667	2917.8831	3758.95	2877.3
1018.6819	2918.9931	3740.9	2857.45
1018.797	2920.1024	3696.25	2813.75
1018.9121	2921.211	3678.95	2797.4
1019.0271	2922.319	3669.15	2787.85
1019.1421	2923.4264	3649.9	2771.2
1019.2571	2924.5331	3640.65	2762.1
1019.372	2925.6391	3635.2	2756.2
1019.4869	2926.7445	3626.25	2747.9
1019.6017	2927.8493	3605.75	2726
1019.7165	2928.9534	3614.55	2735.35
1019.8313	2930.0569	3630.7	2747.9
1019.946	2931.1597	3610.95	2728.65
1020.0606	2932.2619	3618.9	2737.95
1020.1753	2933.3634	3607.15	2727.3
1020.2899	2934.4643	3615.45	2727.05
1020.4044	2935.5645	3605.95	2718.95
1020.5189	2936.6641	3574	2691.1
1020.6334	2937.763	3528.55	2648.65
1020.7478	2938.8613	3490.7	2611.4
1020.8622	2939.959	3448.05	2564.1
1020.9765	2941.056	3363.85	2485.6
1021.0908	2942.1523	3297.35	2417.1
1021.2051	2943.248	3233.75	2353.7
1021.3193	2944.3431	3124.75	2245.75
1021.4334	2945.4375	3035.25	2154.1
1021.5476	2946.5313	2926.15	2050.05
1021.6617	2947.6244	2835.4	1955.65
1021.7757	2948.7169	2746.35	1864.45
1021.8897	2949.8087	2640.85	1761.2
1022.0037	2950.8999	2550.4	1671.15
1022.1176	2951.9904	2476.65	1597.95
1022.2315	2953.0803	2397.8	1517.6
1022.3453	2954.1696	2345.45	1465.35
1022.4591	2955.2582	2280.8	1402.5
1022.5728	2956.3462	2247.5	1368.95
1022.6865	2957.4335	2203.35	1322.9
1022.8002	2958.5202	2174.05	1291.25
1022.9138	2959.6062	2136	1256.2
1023.0274	2960.6916	2124.95	1243.35
1023.141	2961.7764	2111.05	1230.75
1023.2545	2962.8605	2091.85	1210.65
1023.3679	2963.9439	2070.8	1192.2
1023.4813	2965.0267	2057.8	1178.15
1023.5947	2966.1089	2071.6	1171.65
1023.708	2967.1905	2042.4	1165.2
1023.8213	2968.2714	2049.8	1172.25
1023.9346	2969.3516	2040.7	1161.45
1024.0478	2970.4312	2050.3	1160.8
1024.1609	2971.5102	2049.3	1170.2
1024.274	2972.5885	2046.5	1167.35
1024.3871	2973.6662	2051.8	1167.45
1024.5002	2974.7432	2037.15	1160.9
1024.6132	2975.8196	2033.9	1154.5
1024.7261	2976.8954	2032.95	1154.2
1024.839	2977.9705	2027.55	1148.9
1024.9519	2979.045	2016.55	1136.9
1025.0647	2980.1188	1993.6	1115.8
1025.1775	2981.192	1975.05	1097.9
1025.2902	2982.2645	1961.5	1081.95
1025.4029	2983.3364	1935.5	1058.15
1025.5156	2984.4077	1903.25	1025.95
1025.6282	2985.4783	1883.25	1000.05
1025.7407	2986.5483	1848.95	971.1
1025.8532	2987.6177	1817.15	937.5
1025.9657	2988.6864	1778.1	898.1
1026.0782	2989.7545	1750.55	872.6
1026.1906	2990.8219	1711	833.8
1026.3029	2991.8887	1683.25	800.75
1026.4152	2992.9548	1654.3	773.05
1026.5275	2994.0204	1618	742.35
1026.6397	2995.0852	1592.35	713.7
1026.7519	2996.1495	1568.7	686.8
1026.864	2997.2131	1549.45	670.75
1026.9761	2998.276	1524	642.7
1027.0882	2999.3383	1499.9	622.75
1027.2002	3000.4	1481.5	601.15
1027.3122	3001.4611	1462.4	582.2
1027.4241	3002.5215	1446.7	569.4
1027.536	3003.5812	1429.05	549.7
1027.6478	3004.6404	1416.7	537.15
1027.7596	3005.6989	1406.55	527.05
1027.8714	3006.7567	1396.15	518.2
1027.9831	3007.8139	1416.6	510
1028.0947	3008.8705	1378.95	500.25
1028.2064	3009.9264	1373.4	491
1028.3179	3010.9818	1363.1	486.55
1028.4295	3012.0364	1362.4	482.45
1028.541	3013.0905	1358.05	479.2
1028.6524	3014.1439	1346.7	469.4
1028.7638	3015.1966	1343.9	464.2
1028.8752	3016.2487	1339.1	461.35
1028.9865	3017.3002	1346.3	460.05
1029.0978	3018.3511	1333.55	457.9
1029.209	3019.4013	1340.5	461.35
1029.3202	3020.4509	1324.75	447.1
1029.4314	3021.4998	1332.75	452.55
1029.5425	3022.5481	1332.3	453.45
1029.6535	3023.5958	1327.45	448.3
1029.7645	3024.6428	1330	449.35
1029.8755	3025.6892	1322.55	445.15
1029.9864	3026.735	1334.75	457.55
1030.0973	3027.7802	1333.8	456.1
1030.2082	3028.8247	1325.4	448.75
1030.319	3029.8685	1334.15	455.05
1030.4297	3030.9118	1333.65	453.75
1030.5404	3031.9544	1333.1	454.35
1030.6511	3032.9963	1341	460.8
1030.7617	3034.0376	1334.1	457.65
1030.8723	3035.0783	1346.45	466.3
1030.9829	3036.1184	1349.3	470.7
1031.0934	3037.1578	1346.2	469.7
1031.2038	3038.1966	1350.6	471.2
1031.3142	3039.2348	1347.45	471.1
1031.4246	3040.2723	1352.3	467.65
1031.5349	3041.3092	1353.3	476.2
1031.6452	3042.3455	1344	464.25
1031.7554	3043.3811	1341.05	460.5
1031.8656	3044.4161	1334.8	455.85
1031.9758	3045.4505	1334.2	456.55
1032.0859	3046.4842	1337.1	459.75
1032.1959	3047.5173	1331	455.35
1032.3059	3048.5498	1325.6	445.5
1032.4159	3049.5816	1321.65	442.8
1032.5258	3050.6128	1324.1	445.15
1032.6357	3051.6434	1320.75	440.4
1032.7455	3052.6734	1312.1	433.55
1032.8553	3053.7027	1311.7	434.25
1032.9651	3054.7314	1298.65	422.25
1033.0748	3055.7594	1290.2	412.05
1033.1845	3056.7868	1294.25	416.75
1033.2941	3057.8136	1294.6	417.3
1033.4037	3058.8398	1284.7	407.8
1033.5132	3059.8653	1283.4	407
1033.6227	3060.8902	1282.45	405.9
1033.7321	3061.9145	1276.05	397.35
1033.8415	3062.9381	1272	394.85
1033.9509	3063.9612	1288.35	395.1
1034.0602	3064.9835	1264.4	386.25
1034.1694	3066.0053	1263.55	382.2
1034.2787	3067.0264	1255.15	376.95
1034.3878	3068.0469	1250.45	371.85
1034.497	3069.0668	1248.1	366.55
1034.6061	3070.086	1233.9	357.75
1034.7151	3071.1046	1231.05	354.75
1034.8241	3072.1226	1227.7	347.15
1034.9331	3073.1399	1216.95	338.3
1035.042	3074.1567	1215.85	339.9
1035.1508	3075.1727	1203.5	322.65
1035.2597	3076.1882	1195.7	318.85
1035.3684	3077.203	1188.2	311.45
1035.4772	3078.2173	1180.3	300.9
1035.5859	3079.2308	1181.45	298.65
1035.6945	3080.2438	1173.25	294.3
1035.8031	3081.2561	1163.25	286.65
1035.9117	3082.2678	1151.9	275.15
1036.0202	3083.2789	1143.35	265.45
1036.1286	3084.2893	1139.75	263.35
1036.2371	3085.2991	1142.85	264.7
1036.3454	3086.3083	1133.1	250.35
1036.4538	3087.3169	1129.4	249.7
1036.562	3088.3248	1125.2	246.05
1036.6703	3089.3321	1115.65	233.65
1036.7785	3090.3388	1111.9	232.75
1036.8866	3091.3449	1114.9	238
1036.9948	3092.3503	1107.75	227.95
1037.1028	3093.3551	1101.15	223.65
1037.2108	3094.3593	1102.55	224.5
1037.3188	3095.3629	1096	219.45
1037.4267	3096.3658	1094.85	215.45
1037.5346	3097.3681	1088.2	212.6
1037.6425	3098.3698	1087.15	208.75
1037.7503	3099.3708	1088.2	205.5
1037.858	3100.3713	1080.35	203.5
1037.9657	3101.3711	1082.95	205.95
1038.0734	3102.3702	1211.5	194.75
1038.181	3103.3688	1070	191.55
1038.2886	3104.3667	1069.9	192
1038.3961	3105.364	1067.1	190.85
1038.5036	3106.3607	1068.3	189.25
1038.611	3107.3568	1064.65	184.7
1038.7184	3108.3522	1065.05	189.2
1038.8257	3109.347	1064.9	188.7
1038.933	3110.3412	1062.95	181.5
1039.0403	3111.3348	1055.2	178.7
1039.1475	3112.3277	1055.65	177.6
1039.2547	3113.32	1053.5	178.45
1039.3618	3114.3117	1053.5	175.75
1039.4689	3115.3028	1053.4	177.15
1039.5759	3116.2932	1050.7	169.55
1039.6829	3117.2831	1052.65	171.2
1039.7898	3118.2723	1046.5	169.3
1039.8967	3119.2608	1050.05	172.45
1040.0035	3120.2488	1047.15	169.5
1040.1103	3121.2361	1039.9	161.95
1040.2171	3122.2229	1041.05	165
1040.3238	3123.209	1038.05	159.8
1040.4305	3124.1944	1038.35	163.9
1040.5371	3125.1793	1036	158.2
1040.6437	3126.1635	1033.4	155.8
1040.7502	3127.1471	1034.85	160.25
1040.8567	3128.1301	1028.6	153.1
1040.9631	3129.1125	1028.4	150.9
1041.0695	3130.0942	1031.9	154.75
1041.1759	3131.0753	1040.5	155.65
1041.2822	3132.0558	1031	152.05
1041.3884	3133.0357	1027.85	151.25
1041.4946	3134.015	1028.7	150.85
1041.6008	3134.9936	1026.95	147.65
1041.7069	3135.9716	1041.2	143.2
1041.813	3136.949	1018.5	143.05
1041.919	3137.9258	1037.05	142.6
1042.025	3138.902	1022.8	139.55
1042.1309	3139.8775	1020.15	143.75
1042.2368	3140.8524	1014.4	138.15
1042.3427	3141.8267	1016.85	135.95
1042.4485	3142.8004	1017.45	142.35
1042.5542	3143.7735	1021.9	137.9
1042.6599	3144.7459	1013.4	133.55
1042.7656	3145.7178	1013.35	135.7
1042.8712	3146.689	1008.7	132.3
1042.9768	3147.6596	1010.1	132.25
1043.0823	3148.6295	1007.2	128.05
1043.1878	3149.5989	1008.55	131.85
1043.2932	3150.5676	1002.95	127.05
1043.3986	3151.5357	1003.3	126
1043.5039	3152.5032	1003.7	128.55
1043.6092	3153.4701	1003.95	126.7
1043.7145	3154.4364	1007.65	128.55
1043.8197	3155.402	1000.8	125.55
1043.9248	3156.367	1000.45	121.25
1044.03	3157.3315	1032.5	123.3
1044.135	3158.2952	1000.2	123.2
1044.24	3159.2584	999.9	123.5
1044.345	3160.221	995.8	116.3
1044.4499	3161.1829	995.55	118.3
1044.5548	3162.1442	997.3	121.2
1044.6596	3163.105	993	116
1044.7644	3164.065	992.95	116.75
1044.8692	3165.0245	993.85	114.7
1044.9739	3165.9834	990.1	115.75
1045.0785	3166.9416	991.35	113.45
1045.1831	3167.8993	989.6	113.05
1045.2877	3168.8563	989.15	112.55
1045.3922	3169.8127	986.5	111.35
1045.4966	3170.7684	986.75	108.95
1045.6011	3171.7236	992.1	112.65
1045.7054	3172.6782	986.4	110.05
1045.8098	3173.6321	986.75	109.9
1045.914	3174.5854	989.3	107.1
1046.0183	3175.5381	985.8	110.15
1046.1224	3176.4902	984.25	106.4
1046.2266	3177.4417	979.8	104.95
1046.3307	3178.3926	979.55	104.8
1046.4347	3179.3428	981.35	105.8
1046.5387	3180.2924	982.4	105.45
1046.6427	3181.2415	979.5	104.45
1046.7466	3182.1899	979.75	102.45
1046.8504	3183.1377	979.95	104.45
1046.9542	3184.0848	982	102.65
1047.058	3185.0314	976.8	100.8
1047.1617	3185.9773	980.95	102.6
1047.2654	3186.9227	972.45	96.95
1047.369	3187.8674	978.3	102.05
1047.4726	3188.8115	978.75	96.6
1047.5761	3189.755	974.75	99.25
1047.6796	3190.6979	976.7	102.45
1047.783	3191.6402	974.35	98.15
1047.8864	3192.5818	972.3	95.2
1047.9898	3193.5229	990.4	97.15
1048.0931	3194.4633	973.5	97.55
1048.1963	3195.4031	975.8	97.3
1048.2995	3196.3423	969.7	93.75
1048.4027	3197.2809	969.6	95.3
1048.5058	3198.2189	969.9	95.05
1048.6089	3199.1563	973.4	91.4
1048.7119	3200.0931	966.2	89.55
1048.8148	3201.0292	965.1	89.15
1048.9178	3201.9648	962.1	84.85
1049.0206	3202.8997	970.45	92.4
1049.1235	3203.834	963.15	84.6
1049.2262	3204.7677	964.65	86.85
1049.329	3205.7008	966.95	86.95
1049.4317	3206.6333	961.25	87.35
1049.5343	3207.5652	964.75	85.55
1049.6369	3208.4964	960.6	82.3
1049.7394	3209.4271	963.55	88.2
1049.8419	3210.3571	963.55	84.2
1049.9444	3211.2865	962.95	87.5
1050.0468	3212.2154	964.85	86.15
1050.1491	3213.1436	961.4	83.8
1050.2514	3214.0712	965.05	83.3
1050.3537	3214.9982	962.25	85.7
1050.4559	3215.9246	958.1	80.8
1050.5581	3216.8503	959.2	85.75
1050.6602	3217.7755	957	80.55
1050.7623	3218.7001	956.85	79.85
1050.8643	3219.624	958.1	80.35
1050.9663	3220.5473	957	81.75
1051.0682	3221.4701	955.65	79.05
1051.1701	3222.3922	958.95	81.25
1051.2719	3223.3137	956.1	80.15
1051.3737	3224.2346	954.7	77.75
1051.4754	3225.1549	952.15	76.65
1051.5771	3226.0746	952	78.45
1051.6788	3226.9937	954.25	78.65
1051.7804	3227.9121	951.7	76.65
1051.8819	3228.83	952.55	77.55
1051.9834	3229.7473	952.85	77.1
1052.0849	3230.6639	952.6	74.5
1052.1863	3231.5799	950.65	76.55
1052.2876	3232.4954	953.7	77.6
1052.3889	3233.4102	950.15	75
1052.4902	3234.3244	953.95	78.05
1052.5914	3235.238	951.1	74.25
1052.6926	3236.151	965.25	74.85
1052.7937	3237.0634	948.95	74.1
1052.8948	3237.9752	951.35	74.8
1052.9958	3238.8864	945.65	68.35
1053.0968	3239.797	947.25	72.8
1053.1977	3240.7069	946.7	72.65
1053.2986	3241.6163	947.65	70.5
1053.3994	3242.5251	947.15	73.85
1053.5002	3243.4332	942.65	67.9
1053.6009	3244.3408	947.05	68.8
1053.7016	3245.2477	946.25	71.05
1053.8022	3246.154	948.45	70.05
1053.9028	3247.0598	942.5	66.2
1054.0034	3247.9649	939.3	62.7
1054.1039	3248.8694	941.15	65.55
1054.2043	3249.7733	942.25	67.15
1054.3047	3250.6766	943.1	68.2
1054.4051	3251.5793	944	65.75
1054.5054	3252.4814	938.3	61.6
1054.6056	3253.3829	937.2	61.85
1054.7058	3254.2838	943.2	66
1054.806	3255.1841	937.85	64.45
1054.9061	3256.0838	934.25	59.05
1055.0061	3256.9829	939.4	66.45
1055.1062	3257.8814	940.3	61.15
1055.2061	3258.7792	937.2	60.3
1055.306	3259.6765	941	64.85
1055.4059	3260.5731	934.85	60.6
1055.5057	3261.4692	931.8	57.45
1055.6055	3262.3647	934.45	57.1
1055.7052	3263.2595	930.95	54.55
1055.8049	3264.1538	932.4	57.75
1055.9045	3265.0474	932.7	57.7
1056.0041	3265.9404	929.9	55.45
1056.1036	3266.8329	927.5	54.8
1056.2031	3267.7247	938.05	52.25
1056.3025	3268.616	926.35	52.75
1056.4019	3269.5066	924	47.2
1056.5013	3270.3966	926.45	49.35
1056.6005	3271.286	920.45	46.9
