Software Version:	3.9.2.0
Unit SN:	10000200
Spectrometer SN:	6960
Date:	3/8/2024 1:59:37 PM
Data Line Index:	25
Spectral Points:	2048
Integration time (ms):	125
Averages:	20
Delay (ms):	30000
Sequence Number:	1
Processing:	dark subtract
Laser Power (mW):	300
Laser Current (mA):	825
Laser Diode Temp (C):	25
Laser Case Temp (C):	26.2
System Temp (C):	26.2
Spectrometer Temp (C):	24.1
CCD Temp (C):	0.008
Secondary Temp (C):	20.001
Heatsink Temp (C):	20.383
CCDPCB Temp (C):	36.274
SecondaryPCB Temp (C):	30.716

Wavelength	RamanShift	Raw Counts	Dark Subtracted
787.061	30.1047	471.4	64.4
787.2016	32.3739	473.15	69.1
787.3422	34.6426	478.6	72.65
787.4828	36.9109	481.2	73.05
787.6235	39.1787	492.35	78.55
787.7642	41.4461	501.75	86.25
787.9049	43.7131	512.1	92.5
788.0456	45.9796	522.35	100.55
788.1863	48.2456	531.05	103.75
788.3271	50.5112	542.35	108.55
788.4679	52.7764	554.15	119
788.6087	55.0411	563.2	124.3
788.7496	57.3054	575.7	130.35
788.8904	59.5692	586.6	140.5
789.0313	61.8326	597.8	149.1
789.1722	64.0955	613	160.95
789.3132	66.3579	630.45	172.55
789.4541	68.6199	655.65	195.1
789.5951	70.8815	695.95	230.5
789.7361	73.1426	786.6	317.7
789.8771	75.4032	1006.6	534.35
790.0181	77.6634	1561.05	1084.05
790.1592	79.9231	2869.25	2383.95
790.3003	82.1824	5751.05	5248.75
790.4414	84.4412	10892.1	10356.75
790.5825	86.6995	18056.6	17479.6
790.7237	88.9574	25007.65	24395.6
790.8648	91.2148	29793.95	29159.85
791.006	93.4717	32043.25	31394.35
791.1472	95.7282	32533.55	31876.85
791.2885	97.9842	32560.5	31901.15
791.4297	100.2398	32020.7	31351.4
791.571	102.4949	31486.85	30820.35
791.7123	104.7495	30739.3	30067
791.8536	107.0036	29954.5	29285.8
791.9949	109.2573	29237.25	28568.35
792.1363	111.5105	28564.4	27889.6
792.2777	113.7632	27895.2	27221.75
792.4191	116.0154	27292.5	26604.75
792.5605	118.2672	26877.7	26197.65
792.7019	120.5185	26436.15	25755.8
792.8434	122.7693	26068.15	25384.3
792.9849	125.0197	25769.6	25082.3
793.1264	127.2696	25555.1	24866.55
793.2679	129.519	25414.45	24720.15
793.4094	131.7679	25260.95	24561.9
793.551	134.0163	25031.85	24332.1
793.6926	136.2642	24929.4	24221.2
793.8342	138.5117	24786.1	24074.75
793.9758	140.7587	24532.45	23822.4
794.1175	143.0052	24351.1	23640.35
794.2591	145.2512	24108.65	23395.7
794.4008	147.4967	23936.75	23222.75
794.5425	149.7417	23810.65	23096.7
794.6842	151.9863	23714	22996.05
794.826	154.2304	23631.2	22905.55
794.9677	156.4739	23524.65	22797.2
795.1095	158.717	23480.6	22750.85
795.2513	160.9596	23331.5	22596.6
795.3931	163.2017	23054.7	22320.8
795.535	165.4433	22806.7	22061.5
795.6768	167.6844	22502.7	21760.1
795.8187	169.925	22250.35	21508.75
795.9606	172.1651	21866.7	21121.8
796.1025	174.4047	21562.6	20814.6
796.2445	176.6439	21361.9	20613.55
796.3864	178.8825	21160.4	20408.6
796.5284	181.1206	21034.9	20279.05
796.6704	183.3582	20896.1	20132.9
796.8124	185.5954	20773.3	20013.9
796.9544	187.832	20670.1	19899.75
797.0965	190.0681	20640.05	19868.7
797.2386	192.3037	20687.2	19910.8
797.3806	194.5388	20757	19979.5
797.5228	196.7734	20729.7	19952.5
797.6649	199.0075	20879.2	20099.35
797.807	201.2411	21063.95	20279.35
797.9492	203.4742	21146.2	20363.45
798.0914	205.7068	21334.85	20548.85
798.2336	207.9389	21420.35	20631.55
798.3758	210.1704	21577.95	20796.1
798.518	212.4015	21739.85	20968.3
798.6603	214.632	21895.5	21133
798.8025	216.862	22146.2	21380.65
798.9448	219.0915	22273	21503.15
799.0871	221.3205	22506.05	21736.2
799.2294	223.549	22803.1	22039.15
799.3718	225.777	23167.55	22398.3
799.5141	228.0044	23564.8	22787.3
799.6565	230.2314	23984.3	23211.1
799.7989	232.4578	24398.3	23621
799.9413	234.6837	24805.8	24022.15
800.0837	236.909	25133.45	24344.95
800.2262	239.1339	24989.3	24173.7
800.3687	241.3582	24884.55	24083.75
800.5111	243.582	24582.75	23750.95
800.6536	245.8053	24259.15	23443.6
800.7961	248.0281	23926.3	23114.7
800.9387	250.2503	23769.85	22956.5
801.0812	252.472	23588.25	22774.1
801.2238	254.6932	23559.55	22749.05
801.3664	256.9139	23480.2	22663.15
801.509	259.134	23561.6	22736.35
801.6516	261.3536	23458.6	22636.1
801.7942	263.5727	23604.65	22780.45
801.9369	265.7912	23542.55	22719.9
802.0795	268.0092	23592.35	22772.25
802.2222	270.2267	23586.65	22767.3
802.3649	272.4436	23554	22732.45
802.5076	274.6601	23509.1	22676.15
802.6504	276.8759	23468.15	22641.4
802.7931	279.0913	23445.8	22619.3
802.9359	281.3061	23442.4	22617.2
803.0787	283.5204	23523.8	22690.3
803.2215	285.7341	23644	22804.15
803.3643	287.9473	23845.75	23000.2
803.5071	290.16	24047.25	23208.45
803.6499	292.3721	24376.25	23542.3
803.7928	294.5837	24774.7	23939.1
803.9357	296.7947	25070.8	24237.7
804.0786	299.0052	25353.45	24517.9
804.2215	301.2152	25234	24396
804.3644	303.4246	24921.35	24088.85
804.5074	305.6334	24447.35	23615.75
804.6503	307.8418	23890.7	23051.6
804.7933	310.0495	23535.9	22696.85
804.9363	312.2568	23243.75	22405.65
805.0793	314.4635	23014.35	22170
805.2223	316.6696	22933.7	22089.75
805.3653	318.8752	22881.2	22029.05
805.5084	321.0802	22905.4	22058.3
805.6514	323.2847	23012	22162.9
805.7945	325.4887	23069.45	22219.2
805.9376	327.692	23049.25	22199
806.0807	329.8949	22999.55	22147.4
806.2238	332.0972	22709.3	21853.95
806.367	334.2989	22498.1	21639.45
806.5101	336.5001	22266.9	21409.35
806.6533	338.7007	21994.05	21136.15
806.7965	340.9008	21925.65	21060.9
806.9397	343.1003	21800.05	20940.85
807.0829	345.2992	21856.7	20992.05
807.2261	347.4976	21791.65	20925.9
807.3693	349.6955	21763.9	20895.2
807.5126	351.8927	21885.25	21015.5
807.6559	354.0895	21907.4	21027.6
807.7991	356.2856	21925.9	21055.85
807.9424	358.4812	21984.45	21114.15
808.0857	360.6763	22016.9	21147.6
808.2291	362.8707	21985.4	21106.55
808.3724	365.0646	22018.25	21144.2
808.5158	367.258	22081.85	21204.45
808.6591	369.4508	22111.8	21233.2
808.8025	371.643	22244.55	21365.3
808.9459	373.8346	22194.05	21310.4
809.0893	376.0257	22175.45	21286.25
809.2327	378.2162	22119.55	21239.25
809.3762	380.4062	22016.35	21136.7
809.5196	382.5956	21866.35	20986.2
809.6631	384.7844	21840.25	20971.9
809.8066	386.9726	21714.05	20843.2
809.9501	389.1603	21662.35	20791.35
810.0936	391.3474	21642.8	20736.85
810.2371	393.5339	21684	20808.9
810.3806	395.7199	21594.2	20718.5
810.5241	397.9052	21602.8	20732.6
810.6677	400.09	21639.05	20764.25
810.8113	402.2743	21764.1	20889.6
810.9548	404.4579	21837.35	20959.2
811.0984	406.641	22021.3	21145.5
811.2421	408.8235	22272.75	21396.85
811.3857	411.0054	22586.5	21701.3
811.5293	413.1868	23031.9	22143.4
811.673	415.3675	23342.75	22449.9
811.8166	417.5477	23545.55	22654.15
811.9603	419.7273	23611.5	22724.05
812.104	421.9064	23498.15	22609.45
812.2477	424.0848	23385.3	22495.55
812.3914	426.2627	23251.05	22365.35
812.5351	428.4399	22891.75	22002.1
812.6788	430.6166	22536.45	21638.15
812.8226	432.7928	22254.55	21358.9
812.9663	434.9683	21918.2	21028.55
813.1101	437.1432	21714.4	20823.2
813.2539	439.3176	21535.4	20651.9
813.3977	441.4914	21344.85	20463.45
813.5415	443.6645	21388.65	20507.15
813.6853	445.8371	21317.7	20428.1
813.8291	448.0091	21251.05	20358.65
813.973	450.1806	21193.95	20305.55
814.1168	452.3514	21157.2	20273.75
814.2607	454.5216	21194.75	20295.8
814.4046	456.6913	21116.8	20225.3
814.5485	458.8603	21176.85	20288.3
814.6924	461.0288	21230.3	20346.8
814.8363	463.1967	21281.7	20403.75
814.9802	465.3639	21452	20567.5
815.1241	467.5306	21466.2	20581.35
815.2681	469.6967	21626.55	20744.4
815.412	471.8622	21833.7	20949.85
815.556	474.0271	21975.85	21093.1
815.7	476.1914	22095.35	21203.65
815.844	478.3551	22071.7	21183.3
815.988	480.5182	22112.7	21222.1
816.132	482.6807	22034.3	21158.75
816.276	484.8426	22178	21307.55
816.4201	487.0039	22532.25	21654.4
816.5641	489.1647	22917.9	22026.7
816.7082	491.3248	23345.8	22455.9
816.8522	493.4843	23608.5	22724.5
816.9963	495.6432	23582.5	22696.25
817.1404	497.8015	23505.45	22609.45
817.2845	499.9592	23567.05	22665.2
817.4286	502.1163	23484.45	22580.5
817.5727	504.2728	23267.8	22375.1
817.7168	506.4287	22956.35	22074.95
817.861	508.5839	22530.2	21647.85
818.0051	510.7386	22230.55	21340.75
818.1493	512.8927	22106.4	21206.25
818.2935	515.0461	21991.7	21094
818.4377	517.199	21976.45	21072.8
818.5818	519.3512	21954.1	21051.5
818.726	521.5029	22064.75	21160.4
818.8703	523.6539	22130.45	21233.8
819.0145	525.8043	22145.8	21241.6
819.1587	527.9541	22212.05	21309.55
819.303	530.1033	22188.8	21283.5
819.4472	532.2519	22217.75	21319.05
819.5915	534.3999	22373.15	21469.25
819.7357	536.5472	22649.8	21749.65
819.88	538.694	23052.1	22157.4
820.0243	540.8401	23730.75	22826.85
820.1686	542.9856	24213.35	23302.35
820.3129	545.1305	24445.25	23526.55
820.4572	547.2748	24327.55	23404.55
820.6016	549.4185	23949.75	23028.6
820.7459	551.5615	23646.45	22726.75
820.8902	553.704	23515.4	22595.6
821.0346	555.8458	23462.75	22548.95
821.1789	557.987	23506.2	22593.95
821.3233	560.1276	23467.75	22556
821.4677	562.2675	23535.15	22618.85
821.6121	564.4069	23549.15	22631.6
821.7565	566.5456	23597	22685.65
821.9009	568.6837	23482.3	22573.65
822.0453	570.8212	23255.45	22343.15
822.1897	572.958	22909.3	21997.4
822.3342	575.0942	22700.45	21789.9
822.4786	577.2299	22435.85	21530.8
822.6231	579.3648	22443.55	21553.15
822.7675	581.4992	22434	21554.8
822.912	583.6329	22647.6	21771.45
823.0565	585.766	22888	22000.95
823.201	587.8985	23046.05	22153.25
823.3454	590.0304	23042.8	22124.75
823.4899	592.1616	23025.75	22109.8
823.6345	594.2922	22906.7	21987.55
823.779	596.4222	22743.75	21825.15
823.9235	598.5515	22612.2	21692.55
824.068	600.6802	22453.45	21536.95
824.2126	602.8083	22260.15	21344.35
824.3571	604.9358	22236.2	21319.6
824.5017	607.0626	22157.4	21240.35
824.6462	609.1888	22120.1	21191.2
824.7908	611.3144	22124.05	21198.85
824.9354	613.4393	21994.65	21070.05
825.08	615.5636	21921.95	20995.25
825.2246	617.6873	21842.7	20917.45
825.3692	619.8103	21776.95	20846.85
825.5138	621.9327	21715.4	20793
825.6584	624.0544	21733.95	20814.7
825.803	626.1756	21677.5	20761.85
825.9477	628.2961	21622.15	20700.75
826.0923	630.4159	21562.2	20639.7
826.237	632.5351	21615.9	20693.6
826.3816	634.6537	21566.7	20643.1
826.5263	636.7716	21522.55	20591.25
826.6709	638.8889	21557.05	20622.9
826.8156	641.0056	21632.3	20701.7
826.9603	643.1216	21615.4	20684
827.105	645.237	21644.75	20718.35
827.2497	647.3518	21598.3	20679.6
827.3944	649.4659	21700.65	20787.8
827.5391	651.5793	21657.4	20740.1
827.6838	653.6922	21691.55	20771.8
827.8285	655.8043	21668.65	20750.3
827.9733	657.9159	21742.95	20822.2
828.118	660.0268	21592.4	20672.6
828.2627	662.137	21582.15	20654.9
828.4075	664.2466	21581.3	20646.85
828.5522	666.3556	21600.4	20669.2
828.697	668.4639	21563.4	20638.25
828.8418	670.5716	21593	20669.4
828.9865	672.6786	21675.8	20751.85
829.1313	674.785	21688.65	20756.35
829.2761	676.8907	21813.8	20887.05
829.4209	678.9958	21916.45	20994.1
829.5657	681.1002	21912.55	20987
829.7105	683.204	21862.85	20924.7
829.8553	685.3072	21824.7	20890.9
830.0001	687.4097	21777.15	20843.05
830.1449	689.5115	21757.1	20824.55
830.2898	691.6127	21748.35	20820.25
830.4346	693.7132	21689.05	20765.3
830.5794	695.8131	21696.7	20745.1
830.7243	697.9123	21658.55	20726.6
830.8691	700.0109	21663.25	20723.1
831.014	702.1089	21630.25	20697.85
831.1588	704.2061	21704.85	20770.9
831.3037	706.3028	21703.9	20767.15
831.4486	708.3987	21773.35	20835.55
831.5935	710.4941	21819.75	20885.45
831.7383	712.5887	22049.6	21113.95
831.8832	714.6827	22334.8	21398.6
832.0281	716.7761	22694.15	21764.45
832.173	718.8688	23056.75	22123.05
832.3179	720.9608	23242.5	22301.1
832.4628	723.0522	23365.05	22415.95
832.6077	725.1429	23181.15	22243.5
832.7527	727.233	22976.85	22040.3
832.8976	729.3224	22691.45	21754.2
833.0425	731.4112	22407.95	21471.25
833.1874	733.4993	22246.05	21308.65
833.3324	735.5867	22114.8	21179.5
833.4773	737.6735	22001.75	21062.75
833.6222	739.7596	21914.95	20973.05
833.7672	741.845	21907	20968.8
833.9122	743.9298	21895.05	20953.15
834.0571	746.014	21867.15	20931.5
834.2021	748.0974	21858	20912.4
834.347	750.1802	21900.5	20956.75
834.492	752.2624	21880.7	20937.7
834.637	754.3439	21907.4	20958.8
834.782	756.4247	22025.6	21073.35
834.9269	758.5048	22111.25	21167.7
835.0719	760.5843	22370.55	21425.15
835.2169	762.6631	22620.6	21676.15
835.3619	764.7413	23075.75	22133.35
835.5069	766.8188	23667.25	22722.7
835.6519	768.8956	24115.7	23170.2
835.7969	770.9718	24447.55	23505.35
835.9419	773.0473	24309.15	23368.3
836.0869	775.1221	23998.6	23054.45
836.232	777.1962	23689.7	22746.85
836.377	779.2697	23469.15	22523.4
836.522	781.3426	23507.05	22541.9
836.667	783.4147	23739.85	22794
836.8121	785.4862	24010.65	23068.8
836.9571	787.557	24125.85	23174.25
837.1021	789.6271	23781.85	22833.8
837.2472	791.6966	23244.85	22299.05
837.3922	793.7654	22711	21766.1
837.5373	795.8335	22414.9	21474.65
837.6823	797.901	22249.75	21302.45
837.8274	799.9678	22143.1	21192.55
837.9724	802.0339	22154.25	21205.05
838.1175	804.0993	22218.25	21257.35
838.2626	806.1641	22165.6	21215.55
838.4076	808.2282	22143.85	21196.8
838.5527	810.2916	22093.75	21144.8
838.6978	812.3544	21998.5	21054
838.8428	814.4164	21926.4	20980.35
838.9879	816.4778	21973.3	21018
839.133	818.5385	21962.9	21014.25
839.2781	820.5986	22045.85	21093.4
839.4232	822.658	22130.45	21177.3
839.5682	824.7166	22244.25	21297.15
839.7133	826.7747	22508.65	21553.7
839.8584	828.832	22693.15	21741.05
840.0035	830.8886	22823.35	21870.2
840.1486	832.9446	22990.35	22038.5
840.2937	834.9999	23026	22075.45
840.4388	837.0545	23062.5	22106.35
840.5839	839.1085	23048.4	22094.4
840.729	841.1618	23041.85	22086.4
840.8741	843.2143	23004.45	22056.3
841.0192	845.2662	22910.15	21961.95
841.1643	847.3175	22878.25	21922.9
841.3095	849.368	22748.35	21796.4
841.4546	851.4179	22649.9	21699
841.5997	853.467	22498.55	21548.9
841.7448	855.5155	22431.85	21479.3
841.8899	857.5633	22346.65	21396.6
842.0351	859.6105	22228.45	21277.85
842.1802	861.6569	22184.65	21228.8
842.3253	863.7027	22122.35	21167.8
842.4704	865.7478	22145.85	21190.3
842.6156	867.7922	22130	21175.5
842.7607	869.8359	22162.55	21204.3
842.9058	871.8789	22301.3	21344
843.0509	873.9212	22513.25	21524
843.1961	875.9629	22649.6	21697.55
843.3412	878.0039	22872.65	21917.8
843.4863	880.0441	22943.8	21990.65
843.6315	882.0837	23016.4	22062.5
843.7766	884.1226	22937.7	21981.35
843.9218	886.1609	22853.45	21902.1
844.0669	888.1984	22738.2	21783.65
844.212	890.2352	22812.65	21858.25
844.3572	892.2714	22737.5	21777.05
844.5023	894.3069	22744.15	21787.35
844.6475	896.3416	22689.45	21736.2
844.7926	898.3757	22627.4	21671
844.9377	900.4091	22669.55	21707.8
845.0829	902.4418	22668.1	21706.7
845.228	904.4739	22658.25	21696.8
845.3732	906.5052	22716.15	21755.5
845.5183	908.5358	22604.8	21643.65
845.6635	910.5658	22467.7	21503.5
845.8086	912.595	22321.5	21358.6
845.9538	914.6236	22189.2	21230.45
846.0989	916.6515	22166.8	21206.05
846.2441	918.6786	22129.5	21169.7
846.3892	920.7051	22199.75	21236.25
846.5344	922.7309	22316.85	21357.7
846.6795	924.756	22385.8	21431.9
846.8246	926.7804	22493.05	21535.5
846.9698	928.8041	22421.6	21460.95
847.1149	930.8272	22442.65	21485.25
847.2601	932.8495	22375.45	21417.55
847.4052	934.8711	22350.2	21389
847.5504	936.892	22144.25	21183.75
847.6955	938.9123	22029.15	21069.4
847.8407	940.9318	21953	20993.65
847.9858	942.9506	21825.65	20869.7
848.131	944.9688	21727.95	20768.35
848.2761	946.9862	21664.5	20705.45
848.4213	949.003	21593.75	20635.95
848.5664	951.019	21543.9	20584.05
848.7115	953.0344	21613.35	20653
848.8567	955.0491	21629.8	20670.3
849.0018	957.063	21721.8	20762.85
849.147	959.0763	21867.8	20912.85
849.2921	961.0888	21878.65	20920.85
849.4373	963.1007	22021.85	21065.9
849.5824	965.1119	22065.4	21117.85
849.7275	967.1223	22084.3	21141.45
849.8727	969.1321	22100.8	21161.65
850.0178	971.1412	22156.9	21211.05
850.1629	973.1495	22171.65	21218.8
850.3081	975.1572	22248.15	21246.25
850.4532	977.1641	22273.85	21312.35
850.5983	979.1704	22237.4	21277.3
850.7435	981.1759	22251.5	21287.05
850.8886	983.1808	22313.35	21351.7
851.0337	985.1849	22360.3	21394.45
851.1788	987.1884	22504.15	21547.45
851.324	989.1911	22686.35	21728.25
851.4691	991.1932	22794.85	21840.5
851.6142	993.1945	22838.2	21877.8
851.7593	995.1951	22773.35	21814.8
851.9045	997.1951	22775.6	21808
852.0496	999.1943	22662.4	21699.45
852.1947	1001.1928	22612.15	21651.2
852.3398	1003.1906	22580.1	21623.85
852.4849	1005.1877	22661.3	21705.05
852.63	1007.1841	22609.1	21653.35
852.7751	1009.1798	22539.25	21581
852.9202	1011.1748	22358.5	21404.55
853.0653	1013.1691	22166.2	21208.95
853.2104	1015.1627	21942.25	20982.7
853.3555	1017.1556	21668.5	20711.7
853.5006	1019.1477	21602.55	20647.5
853.6457	1021.1392	21520.65	20571.2
853.7908	1023.1299	21431.45	20487.5
853.9359	1025.12	21451.35	20514.5
854.081	1027.1093	21480	20556.7
854.2261	1029.0979	21565.1	20644.6
854.3712	1031.0859	21613.45	20683.05
854.5163	1033.0731	21585.4	20643.45
854.6613	1035.0596	21522.65	20579.85
854.8064	1037.0454	21342.6	20387.5
854.9515	1039.0304	21305.5	20352.4
855.0965	1041.0148	21105.45	20150.15
855.2416	1042.9985	21028.9	20076.7
855.3867	1044.9814	21041	20086.15
855.5317	1046.9636	20967.15	20011.15
855.6768	1048.9452	20905.75	19952.6
855.8219	1050.926	20944.1	19989.8
855.9669	1052.9061	20919.5	19965.2
856.112	1054.8855	20942.6	19986.15
856.257	1056.8642	20987	20033.1
856.4021	1058.8421	21016.2	20053.05
856.5471	1060.8194	21008.2	20047.9
856.6921	1062.7959	21074.45	20120.25
856.8372	1064.7717	21083.65	20126.95
856.9822	1066.7469	21072.75	20115.2
857.1272	1068.7213	21106.9	20150.75
857.2723	1070.695	21092.65	20142.4
857.4173	1072.6679	21032.25	20077.15
857.5623	1074.6402	21016.7	20059.5
857.7073	1076.6117	21014.1	20055.55
857.8523	1078.5826	21010.25	20053.2
857.9973	1080.5527	20981.65	20018.55
858.1423	1082.5221	21060.65	20102.2
858.2873	1084.4908	21226.1	20270.2
858.4323	1086.4587	21394.25	20437.2
858.5773	1088.426	21553.2	20595.65
858.7223	1090.3925	21520.7	20561.3
858.8673	1092.3584	21497.55	20542.15
859.0123	1094.3235	21378.1	20424.5
859.1573	1096.2879	21281.05	20327.2
859.3022	1098.2515	21275.25	20318.65
859.4472	1100.2145	21320.25	20365.2
859.5922	1102.1767	21405.8	20448.8
859.7371	1104.1382	21552.65	20599.8
859.8821	1106.099	21786	20831.5
860.027	1108.0591	21936.6	20983.65
860.172	1110.0185	22086.8	21135.65
860.3169	1111.9771	22164.4	21211.6
860.4619	1113.9351	21903.05	20947.8
860.6068	1115.8923	21648.55	20695.1
860.7517	1117.8488	21346.35	20389.1
860.8967	1119.8045	21037.05	20081.95
861.0416	1121.7596	20905.2	19951.05
861.1865	1123.7139	20825	19871.95
861.3314	1125.6675	20855.2	19903.95
861.4763	1127.6204	20917.3	19966.95
861.6212	1129.5726	20895.3	19941.9
861.7661	1131.524	20877.35	19925.95
861.911	1133.4748	20898.6	19944.1
862.0559	1135.4248	20803.9	19847.85
862.2008	1137.3741	20812.7	19858
862.3457	1139.3226	20759.05	19800.7
862.4905	1141.2705	20752.2	19798.2
862.6354	1143.2176	20660.95	19701.85
862.7803	1145.164	20634.5	19676.15
862.9251	1147.1097	20621.4	19663.85
863.07	1149.0546	20654.25	19699.6
863.2148	1150.9989	20562.65	19609.65
863.3597	1152.9424	20437.75	19482.85
863.5045	1154.8852	20270.1	19315.7
863.6493	1156.8272	20164.2	19210.85
863.7942	1158.7686	20134.05	19173.85
863.939	1160.7092	20104.95	19147.85
864.0838	1162.6491	20005.45	19046.85
864.2286	1164.5883	20123.95	19170.65
864.3734	1166.5267	20174.45	19219
864.5182	1168.4644	20347.55	19395.6
864.663	1170.4014	20512.1	19555.45
864.8078	1172.3377	20771.6	19823.35
864.9526	1174.2732	20972.15	20021.95
865.0974	1176.2081	21255.6	20304
865.2421	1178.1421	21485.65	20529.9
865.3869	1180.0755	21699.95	20749.7
865.5317	1182.0082	21779.75	20828.65
865.6764	1183.9401	21807.05	20860.75
865.8212	1185.8713	21661.2	20717.5
865.9659	1187.8017	21435.1	20499.4
866.1106	1189.7315	21147.5	20220.75
866.2554	1191.6605	20860.45	19930.65
866.4001	1193.5888	20659.7	19726.75
866.5448	1195.5163	20528.7	19590.1
866.6895	1197.4432	20421.25	19472.7
866.8342	1199.3693	20324.45	19376.8
866.9789	1201.2947	20296.9	19341.25
867.1236	1203.2193	20245.45	19292.9
867.2683	1205.1432	20255.25	19306.5
867.413	1207.0664	20284.35	19336.25
867.5576	1208.9889	20287.15	19336.1
867.7023	1210.9106	20342.45	19393.85
867.847	1212.8316	20343.45	19395.9
867.9916	1214.7519	20371.25	19412.25
868.1363	1216.6715	20414.75	19465.65
868.2809	1218.5903	20401.25	19456.9
868.4255	1220.5084	20371.15	19420
868.5701	1222.4257	20342	19392
868.7148	1224.3424	20279.75	19336.45
868.8594	1226.2583	20317.8	19372.15
869.004	1228.1735	20400.6	19455
869.1486	1230.0879	20473.05	19522.95
869.2932	1232.0016	20558.1	19610.65
869.4377	1233.9146	20595.45	19646.95
869.5823	1235.8269	20529.8	19581.25
869.7269	1237.7384	20398.1	19452.3
869.8715	1239.6492	20195.45	19252.35
870.016	1241.5592	20090.55	19144.4
870.1606	1243.4686	19974.75	19028.5
870.3051	1245.3772	19970.55	19021.4
870.4496	1247.285	19938.9	18992.15
870.5941	1249.1922	19885.35	18937.25
870.7387	1251.0986	19897.7	18948.3
870.8832	1253.0042	19857	18916.85
871.0277	1254.9092	19886.65	18943.3
871.1722	1256.8134	19966.75	19023.8
871.3167	1258.7169	20126.15	19178.9
871.4611	1260.6196	20236.95	19291.05
871.6056	1262.5216	20450.85	19507.7
871.7501	1264.4229	20589.8	19645.65
871.8945	1266.3234	20761.75	19815.8
872.039	1268.2232	20785.65	19839.1
872.1834	1270.1223	20830.35	19881.85
872.3278	1272.0207	20803.5	19858.5
872.4723	1273.9183	20777.9	19821.75
872.6167	1275.8151	20641.9	19697.25
872.7611	1277.7113	20596.3	19650.95
872.9055	1279.6067	20502.1	19556.2
873.0499	1281.5014	20376.7	19427.95
873.1943	1283.3953	20327	19383.8
873.3386	1285.2885	20352.6	19408.7
873.483	1287.181	20353.85	19409.75
873.6274	1289.0727	20505	19565.1
873.7717	1290.9637	20547.45	19604.8
873.9161	1292.854	20695.35	19748.55
874.0604	1294.7435	20763.3	19818.3
874.2047	1296.6323	20958.15	20012.65
874.349	1298.5204	21197.3	20249.6
874.4933	1300.4077	21388	20441.7
874.6376	1302.2943	21587.85	20643.8
874.7819	1304.1802	21571	20626.85
874.9262	1306.0653	21410.15	20466.65
875.0705	1307.9497	21217.15	20272.55
875.2147	1309.8333	21068.1	20125.1
875.359	1311.7162	20950.2	20003.5
875.5032	1313.5984	20928.75	19982.9
875.6475	1315.4798	20951.65	19991.15
875.7917	1317.3605	21021.3	20063.95
875.9359	1319.2405	21069.2	20121.9
876.0801	1321.1197	21053.4	20107.55
876.2243	1322.9982	20885	19937.85
876.3685	1324.876	20854.9	19911.4
876.5127	1326.753	20723.65	19779.05
876.6569	1328.6293	20673.1	19727.3
876.801	1330.5048	20688.5	19739.6
876.9452	1332.3796	20592.25	19646.85
877.0893	1334.2537	20572.85	19600.1
877.2335	1336.127	20465.6	19522.8
877.3776	1337.9996	20442.2	19494.95
877.5217	1339.8714	20389.6	19445.6
877.6658	1341.7426	20391	19401.25
877.8099	1343.6129	20364.85	19418.75
877.954	1345.4826	20256.1	19309.3
878.0981	1347.3515	20258.9	19311.5
878.2422	1349.2196	20170.15	19225.35
878.3862	1351.087	20185.8	19240.95
878.5303	1352.9537	20232.85	19285.6
878.6743	1354.8197	20358.05	19412.45
878.8184	1356.6849	20511.35	19563.75
878.9624	1358.5493	20563	19618.15
879.1064	1360.4131	20589.5	19644.7
879.2504	1362.276	20518.75	19575.05
879.3944	1364.1383	20391.95	19446.2
879.5384	1365.9998	20155.95	19205.3
879.6823	1367.8606	19813.95	18867.8
879.8263	1369.7206	19528.3	18580.7
879.9702	1371.5799	19308.95	18358.75
880.1142	1373.4384	19102.7	18158.4
880.2581	1375.2962	18942.05	17995.35
880.402	1377.1533	18635.8	17696.05
880.5459	1379.0096	18289.8	17353.95
880.6898	1380.8652	17993.95	17055.8
880.8337	1382.7201	17737	16795.6
880.9776	1384.5742	17454.55	16514.75
881.1215	1386.4275	17285.6	16340.9
881.2653	1388.2802	17130.65	16188.8
881.4092	1390.132	16966.1	16022.35
881.553	1391.9832	16922	15980.3
881.6968	1393.8336	16827.7	15882.75
881.8406	1395.6832	16725.2	15778.25
881.9844	1397.5322	16669.95	15726.85
882.1282	1399.3803	16644.9	15695.2
882.272	1401.2278	16583.5	15639.2
882.4158	1403.0745	16583.75	15643.6
882.5595	1404.9204	16490.5	15549.8
882.7033	1406.7656	16524	15580.4
882.847	1408.6101	16504.25	15559.7
882.9908	1410.4538	16471.7	15531.5
883.1345	1412.2968	16503.95	15561.55
883.2782	1414.139	16506.55	15564.3
883.4219	1415.9805	16575.8	15634.4
883.5656	1417.8213	16649.05	15699.65
883.7092	1419.6613	16712.9	15771.8
883.8529	1421.5006	16874.45	15935.65
883.9965	1423.3391	17095.75	16154.15
884.1402	1425.1769	17379.25	16438.45
884.2838	1427.0139	17853.2	16911.8
884.4274	1428.8502	18423.8	17483.3
884.571	1430.6858	18966.15	18025.2
884.7146	1432.5206	19370.05	18431.9
884.8582	1434.3547	19615.8	18677
885.0018	1436.188	19647.05	18706.6
885.1453	1438.0206	19554.8	18614.2
885.2889	1439.8524	19364.8	18422.6
885.4324	1441.6835	19262.95	18319.9
885.5759	1443.5139	19149.35	18209.05
885.7194	1445.3435	19051.75	18111.55
885.8629	1447.1724	18987.2	18045.95
886.0064	1449.0005	18936.3	17997.85
886.1499	1450.8279	18840.55	17905.1
886.2933	1452.6545	18792.05	17858.55
886.4368	1454.4804	18807.85	17871.1
886.5802	1456.3056	18781.45	17842.2
886.7237	1458.13	18701.4	17765.5
886.8671	1459.9536	18455.8	17514.65
887.0105	1461.7766	18129.25	17189.75
887.1539	1463.5987	17692.65	16750.75
887.2972	1465.4202	17338.85	16397.9
887.4406	1467.2409	16913.8	15972.45
887.584	1469.0608	16634.45	15695.35
887.7273	1470.88	16362.35	15423.05
887.8706	1472.6984	16153.6	15217.4
888.0139	1474.5161	15910.1	14965.15
888.1572	1476.3331	15717.75	14780.6
888.3005	1478.1493	15596.4	14658.6
888.4438	1479.9648	15496.3	14555.85
888.5871	1481.7795	15386	14446.3
888.7303	1483.5935	15299.15	14362.5
888.8736	1485.4067	15213.4	14274.8
889.0168	1487.2192	15179.3	14238.9
889.16	1489.031	15117.8	14175.25
889.3032	1490.842	15066.2	14132.65
889.4464	1492.6522	15007.3	14070.8
889.5896	1494.4618	14947.35	14008.45
889.7327	1496.2705	14910.55	13971.8
889.8759	1498.0785	14889.1	13952.55
890.019	1499.8858	14816.75	13877.2
890.1622	1501.6924	14742.8	13805.9
890.3053	1503.4981	14753.4	13817.75
890.4484	1505.3032	14710.4	13773.35
890.5914	1507.1075	14659.75	13721.7
890.7345	1508.911	14602.1	13663.05
890.8776	1510.7138	14551.75	13616.25
891.0206	1512.5159	14474.7	13538.1
891.1637	1514.3172	14437.65	13504.2
891.3067	1516.1178	14351.75	13417.5
891.4497	1517.9176	14323	13385.4
891.5927	1519.7166	14269	13333.45
891.7357	1521.515	14213.35	13270.45
891.8786	1523.3126	14176.7	13242.45
892.0216	1525.1094	14140.2	13204.3
892.1645	1526.9055	14102.65	13170.3
892.3074	1528.7008	14030.8	13098.65
892.4503	1530.4954	13940.95	13008.9
892.5932	1532.2893	13953.45	13023.55
892.7361	1534.0824	13870.75	12937.75
892.879	1535.8747	13878.85	12950.45
893.0218	1537.6663	13837.4	12908.7
893.1647	1539.4572	13749.95	12818.8
893.3075	1541.2473	13777.4	12845.85
893.4503	1543.0367	13733.1	12802.35
893.5931	1544.8253	13698.8	12764.7
893.7359	1546.6132	13695.55	12763.4
893.8787	1548.4003	13662.35	12724.35
894.0214	1550.1867	13676.05	12738.2
894.1642	1551.9723	13684.35	12752
894.3069	1553.7572	13731.75	12803.9
894.4496	1555.5414	13728.35	12804.2
894.5923	1557.3247	13776.35	12853.85
894.735	1559.1074	13836.35	12914.4
894.8777	1560.8893	13838.15	12914.65
895.0204	1562.6705	13879	12956.85
895.163	1564.4509	13971.35	13051.15
895.3056	1566.2305	13996	13079.9
895.4482	1568.0094	14070.75	13151.1
895.5908	1569.7876	14114.25	13193.2
895.7334	1571.565	14139.95	13216.4
895.876	1573.3417	14120.1	13195.9
896.0186	1575.1176	14086.75	13165.5
896.1611	1576.8928	13999.25	13080.95
896.3036	1578.6672	13923.8	13011.15
896.4461	1580.4409	13815.6	12905
896.5886	1582.2138	13709.95	12796.05
896.7311	1583.986	13629.05	12715
896.8736	1585.7575	13509.5	12591.55
897.0161	1587.5282	13424.7	12508
897.1585	1589.2981	13426.45	12515.3
897.3009	1591.0673	13351.3	12438.95
897.4433	1592.8358	13339.6	12430.35
897.5857	1594.6035	13359.25	12443.05
897.7281	1596.3704	13341.65	12422.55
897.8705	1598.1366	13345.65	12429.7
898.0128	1599.9021	13395.7	12480.95
898.1551	1601.6668	13400.45	12484.45
898.2975	1603.4308	13480.7	12561.1
898.4398	1605.194	13569.6	12651.95
898.5821	1606.9564	13628.6	12720.95
898.7243	1608.7182	13786.7	12880.05
898.8666	1610.4791	13908.9	13011.95
899.0088	1612.2394	14066.15	13169.05
899.1511	1613.9988	14226.65	13326.45
899.2933	1615.7576	14420.65	13513.55
899.4355	1617.5156	14618.75	13697.65
899.5776	1619.2728	14815.95	13900.55
899.7198	1621.0293	14915.8	14002.9
899.862	1622.785	14922.7	14008.35
900.0041	1624.54	14787.8	13878.45
900.1462	1626.2942	14643.05	13735.95
900.2883	1628.0477	14354.15	13443.75
900.4304	1629.8005	14126.45	13216.15
900.5725	1631.5525	13884.75	12977.55
900.7145	1633.3037	13681.9	12776.3
900.8566	1635.0542	13530.1	12624.2
900.9986	1636.804	13389.55	12481.95
901.1406	1638.553	13391	12421.35
901.2826	1640.3013	13292.6	12382.05
901.4245	1642.0488	13245.75	12338.65
901.5665	1643.7955	13285.75	12381.25
901.7085	1645.5416	13294.5	12392.35
901.8504	1647.2868	13337.45	12431.85
901.9923	1649.0313	13440.85	12533.5
902.1342	1650.7751	13574.35	12663.35
902.2761	1652.5181	13737.75	12835.3
902.4179	1654.2604	13885.65	12981.85
902.5598	1656.0019	14145.4	13240.75
902.7016	1657.7427	14414.25	13509.1
902.8434	1659.4828	14713.05	13804.75
902.9852	1661.222	14894.5	13985.15
903.127	1662.9606	14853.5	13945
903.2687	1664.6984	14690.2	13779.4
903.4105	1666.4354	14310.3	13399.1
903.5522	1668.1717	13830.2	12917.75
903.6939	1669.9072	13256.9	12346.4
903.8356	1671.642	12831.95	11919.25
903.9773	1673.3761	12481.05	11570.7
904.119	1675.1094	12154.85	11249.2
904.2606	1676.8419	11892.1	10984.65
904.4022	1678.5737	11693.6	10783.25
904.5439	1680.3048	11550.3	10640
904.6855	1682.0351	11444.55	10536.65
904.827	1683.7646	11315.4	10403.9
904.9686	1685.4934	11250.4	10342.3
905.1101	1687.2215	11149.8	10243.75
905.2517	1688.9488	11049.25	10143.1
905.3932	1690.6754	10979.15	10076.5
905.5347	1692.4012	10953.55	10043.75
905.6761	1694.1263	10912.8	10005.25
905.8176	1695.8506	10862.3	9955.4
905.9591	1697.5742	10812.65	9906.8
906.1005	1699.297	10766.45	9865.9
906.2419	1701.0191	10683.1	9784.35
906.3833	1702.7404	10650.25	9749.25
906.5246	1704.461	10580.4	9675.9
906.666	1706.1808	10522.8	9619.5
906.8073	1707.8999	10516.45	9615.8
906.9487	1709.6182	10476.65	9577.7
907.09	1711.3358	10432.3	9532.8
907.2313	1713.0527	10378.8	9484.9
907.3725	1714.7688	10326.7	9422.3
907.5138	1716.4841	10292.8	9391.9
907.655	1718.1987	10261.2	9355.05
907.7962	1719.9126	10246.2	9351.1
907.9374	1721.6257	10190.25	9291.75
908.0786	1723.338	10160.6	9263.9
908.2198	1725.0496	10101.05	9202.2
908.3609	1726.7605	10091.8	9189.9
908.502	1728.4706	10033.8	9135.1
908.6431	1730.18	9986.2	9089.05
908.7842	1731.8886	9977.9	9081.15
908.9253	1733.5964	9976.9	9060.15
909.0664	1735.3036	9924.2	9023.35
909.2074	1737.0099	9908.1	9009.15
909.3484	1738.7156	9857.95	8963.65
909.4894	1740.4204	9805.95	8906.45
909.6304	1742.1246	9782.9	8882.3
909.7714	1743.8279	9772.75	8875
909.9123	1745.5306	9733.5	8838.25
910.0532	1747.2325	9709.2	8815.15
910.1941	1748.9336	9677.8	8777.35
910.335	1750.634	9633.55	8731.2
910.4759	1752.3336	9606.7	8709.85
910.6168	1754.0325	9571.7	8680.15
910.7576	1755.7307	9555.8	8662.05
910.8984	1757.4281	9574.1	8677.55
911.0392	1759.1247	9548.9	8638.15
911.18	1760.8206	9529.15	8621.15
911.3208	1762.5158	9505.55	8604.2
911.4615	1764.2102	9439.05	8541.5
911.6022	1765.9039	9421.15	8525.55
911.7429	1767.5968	9396	8502.9
911.8836	1769.289	9369.65	8475.3
912.0243	1770.9804	9313.3	8415.95
912.1649	1772.6711	9337.05	8435.75
912.3056	1774.361	9303.5	8402
912.4462	1776.0502	9287.6	8385.15
912.5868	1777.7386	9281.7	8382.1
912.7274	1779.4263	9226.85	8331.8
912.8679	1781.1132	9215.8	8323.85
913.0084	1782.7994	9169.95	8277.65
913.149	1784.4849	9171.55	8280.3
913.2895	1786.1696	9153.9	8253.15
913.4299	1787.8535	9145.25	8255.05
913.5704	1789.5367	9092	8200.3
913.7108	1791.2192	9084.75	8191.65
913.8513	1792.9009	9060.85	8141.05
913.9917	1794.5818	9033.45	8135.45
914.132	1796.2621	9006.25	8109.8
914.2724	1797.9415	8987.8	8088.65
914.4128	1799.6202	8970.7	8073.45
914.5531	1801.2982	8963.35	8065.95
914.6934	1802.9755	8921	8020.9
914.8337	1804.6519	8905.4	8008.7
914.9739	1806.3277	8881.55	7986.75
915.1142	1808.0027	8817.75	7925.9
915.2544	1809.6769	8828.85	7938.75
915.3946	1811.3504	8805.7	7913.45
915.5348	1813.0231	8780.95	7888.25
915.675	1814.6951	8760.2	7867.35
915.8151	1816.3664	8741.75	7848.4
915.9553	1818.0369	8726.5	7829.85
916.0954	1819.7067	8725.9	7830.15
916.2355	1821.3757	8701.55	7804.95
916.3755	1823.044	8684.65	7787.35
916.5156	1824.7115	8671.95	7774.55
916.6556	1826.3783	8637.35	7740.75
916.7956	1828.0443	8594.15	7700.3
916.9356	1829.7096	8579.6	7682.45
917.0756	1831.3741	8577.9	7680.05
917.2155	1833.0379	8552.7	7658.5
917.3555	1834.701	8522.85	7629.8
917.4954	1836.3633	8507.7	7616.45
917.6353	1838.0248	8495.7	7604.05
917.7751	1839.6856	8469.85	7576.45
917.915	1841.3457	8457.35	7565.55
918.0548	1843.005	8434.3	7537.35
918.1946	1844.6636	8428.6	7534.25
918.3344	1846.3214	8409.3	7513.5
918.4742	1847.9785	8395.9	7503.85
918.6139	1849.6349	8392.15	7495.35
918.7537	1851.2904	8361.75	7451.6
918.8934	1852.9453	8332.15	7434.5
919.0331	1854.5994	8309.5	7409.6
919.1727	1856.2528	8299.85	7397.25
919.3124	1857.9054	8286.5	7391.9
919.452	1859.5572	8269.95	7376.75
919.5916	1861.2083	8260	7367.5
919.7312	1862.8587	8256.8	7361.25
919.8708	1864.5084	8228.7	7329.25
920.0103	1866.1572	8220.65	7324.65
920.1498	1867.8054	8149.25	7250.7
920.2893	1869.4528	8139.35	7240.05
920.4288	1871.0994	8127.2	7227.25
920.5683	1872.7453	8104.35	7206.85
920.7077	1874.3905	8090.1	7178.4
920.8471	1876.0349	8064.7	7167.15
920.9865	1877.6786	8093.8	7197.6
921.1259	1879.3215	8048.5	7152.05
921.2653	1880.9637	8030.35	7133.45
921.4046	1882.6051	8019.3	7125.25
921.5439	1884.2458	7976.05	7079.65
921.6832	1885.8858	7956.6	7063.1
921.8225	1887.525	7946.1	7051.3
921.9617	1889.1634	7916.5	7020.05
922.101	1890.8011	7904.35	7007.85
922.2402	1892.4381	7888.7	6995.35
922.3794	1894.0743	7870.45	6976.6
922.5185	1895.7098	7834.2	6938.7
922.6577	1897.3446	7832.2	6935.7
922.7968	1898.9786	7816.1	6919.75
922.9359	1900.6118	7774.9	6880.55
923.075	1902.2443	7743.75	6849.45
923.214	1903.8761	7741.3	6847.95
923.3531	1905.5071	7705.95	6808.65
923.4921	1907.1374	7687.5	6790.9
923.6311	1908.7669	7665.6	6772.25
923.77	1910.3957	7638.45	6746.3
923.909	1912.0237	7610.65	6717.85
924.0479	1913.651	7596.95	6702.85
924.1868	1915.2776	7599.2	6706.45
924.3257	1916.9034	7523.45	6629.75
924.4646	1918.5285	7511.55	6620
924.6034	1920.1528	7480.55	6586.8
924.7422	1921.7764	7495.5	6601.15
924.881	1923.3992	7462	6567.2
925.0198	1925.0213	7426.95	6535.4
925.1586	1926.6427	7407.1	6513.45
925.2973	1928.2633	7462.7	6472.35
925.436	1929.8832	7352.7	6454.85
925.5747	1931.5023	7302.5	6408.4
925.7134	1933.1207	7309.3	6415.1
925.852	1934.7383	7268.9	6372.75
925.9906	1936.3552	7255.35	6363.15
926.1292	1937.9714	7226.85	6334.55
926.2678	1939.5868	7208.7	6311.7
926.4064	1941.2015	7185.7	6290
926.5449	1942.8154	7165.75	6268.7
926.6834	1944.4286	7126.1	6230.6
926.8219	1946.041	7117.4	6199.8
926.9604	1947.6528	7074.2	6173.5
927.0988	1949.2637	7052.95	6158.5
927.2372	1950.8739	7036.15	6143.05
927.3756	1952.4834	7010.15	6118.8
927.514	1954.0921	7000	6107.4
927.6523	1955.7001	6967	6072.85
927.7907	1957.3074	6959.75	6070.95
927.929	1958.9139	6934.35	6047.45
928.0673	1960.5197	6918.95	6026.25
928.2055	1962.1247	6880.65	5991.4
928.3438	1963.729	6860.9	5971.15
928.482	1965.3325	6835.1	5940.2
928.6202	1966.9353	6812.4	5927.45
928.7584	1968.5374	6804	5914.4
928.8965	1970.1387	6770.85	5880.05
929.0346	1971.7393	6751	5860.45
929.1727	1973.3392	6742.75	5851.3
929.3108	1974.9383	6685.7	5798.35
929.4489	1976.5366	6681.8	5792.8
929.5869	1978.1342	6692.7	5808
929.7249	1979.7311	6652.95	5766.05
929.8629	1981.3273	6644.8	5758.35
930.0009	1982.9227	6629.1	5741.05
930.1388	1984.5173	6594.45	5708.45
930.2767	1986.1112	6555.95	5668.8
930.4146	1987.7044	6537.35	5652.45
930.5525	1989.2968	6516.75	5627.95
930.6904	1990.8885	6497.15	5608.5
930.8282	1992.4795	6504.1	5618.75
930.966	1994.0697	6464.55	5579.2
931.1038	1995.6592	6444.1	5559.6
931.2415	1997.2479	6442.4	5555.65
931.3793	1998.8359	6445.55	5562
931.517	2000.4232	6387.85	5505.45
931.6547	2002.0097	6385.4	5504.25
931.7923	2003.5955	6337.95	5456.6
931.93	2005.1805	6348	5463.6
932.0676	2006.7648	6342.25	5459.5
932.2052	2008.3484	6332.45	5449.6
932.3427	2009.9312	6321.25	5440.25
932.4803	2011.5133	6298.3	5420.2
932.6178	2013.0946	6272	5392.4
932.7553	2014.6752	6256.55	5376.75
932.8928	2016.2551	6245.7	5361.1
933.0302	2017.8342	6209.7	5327.95
933.1676	2019.4126	6199.4	5319.95
933.305	2020.9902	6161.9	5281.5
933.4424	2022.5672	6158.25	5280.05
933.5798	2024.1433	6152.7	5268.75
933.7171	2025.7188	6137.95	5261.8
933.8544	2027.2935	6131.35	5253.85
933.9917	2028.8674	6092.9	5214.1
934.129	2030.4406	6090.6	5214.5
934.2662	2032.0131	6056	5180.6
934.4034	2033.5849	6020.6	5135
934.5406	2035.1559	6015.8	5139.45
934.6778	2036.7261	6023.35	5141.25
934.8149	2038.2957	6018.05	5135.85
934.952	2039.8645	5981.15	5092.3
935.0891	2041.4325	5993.4	5105.2
935.2262	2042.9998	5964.25	5083.15
935.3632	2044.5664	5952.7	5070
935.5002	2046.1323	5924.5	5046.05
935.6372	2047.6974	5920.7	5042.65
935.7742	2049.2617	5905.9	5029.45
935.9111	2050.8254	5894.85	4991.5
936.048	2052.3883	5875.4	4991.4
936.1849	2053.9504	5852.1	4968.3
936.3218	2055.5118	5832.45	4948.75
936.4586	2057.0725	5809.15	4921.2
936.5955	2058.6325	5819.85	4939.1
936.7323	2060.1917	5790.7	4912.7
936.869	2061.7502	5796.1	4912.5
937.0058	2063.3079	5777.6	4898.85
937.1425	2064.8649	5742.6	4858.45
937.2792	2066.4212	5762.4	4882.35
937.4159	2067.9767	5733.2	4851.7
937.5525	2069.5315	5705.75	4822.75
937.6891	2071.0856	5679.35	4800.85
937.8257	2072.6389	5652.65	4772.55
937.9623	2074.1915	5629.95	4751.65
938.0989	2075.7433	5591.55	4709.15
938.2354	2077.2945	5601.05	4721.8
938.3719	2078.8448	5582.2	4696.8
938.5084	2080.3945	5566.8	4683.4
938.6448	2081.9434	5557.6	4674
938.7812	2083.4916	5545.1	4659.75
938.9176	2085.039	5518.75	4629.45
939.054	2086.5857	5534.65	4641.3
939.1903	2088.1317	5512.75	4620.8
939.3267	2089.677	5502.55	4609.8
939.463	2091.2215	5469.4	4577.3
939.5992	2092.7652	5468.85	4575.1
939.7355	2094.3083	5448.1	4555.9
939.8717	2095.8506	5434.55	4544.45
940.0079	2097.3921	5445.25	4557.55
940.1441	2098.933	5425.7	4540.45
940.2802	2100.4731	5398.6	4513.6
940.4163	2102.0124	5405.55	4509.5
940.5524	2103.5511	5381.05	4492.8
940.6885	2105.089	5384.4	4497.1
940.8245	2106.6261	5369.25	4483.4
940.9606	2108.1626	5361.75	4476.4
941.0965	2109.6983	5366.4	4451.8
941.2325	2111.2332	5326.6	4439.05
941.3684	2112.7675	5303.9	4413.75
941.5044	2114.301	5293.45	4402.1
941.6403	2115.8337	5308.95	4420.6
941.7761	2117.3657	5272.5	4387.05
941.912	2118.897	5269.15	4380.4
942.0478	2120.4276	5249.7	4356.55
942.1835	2121.9575	5241.8	4352.7
942.3193	2123.4866	5248.25	4348.1
942.455	2125.0149	5212.05	4321.15
942.5907	2126.5426	5184.45	4300.7
942.7264	2128.0695	5177	4290.4
942.8621	2129.5956	5154.1	4273.45
942.9977	2131.1211	5147.4	4260.2
943.1333	2132.6458	5148.05	4263.75
943.2689	2134.1698	5129.6	4240.35
943.4044	2135.693	5136.1	4241.55
943.54	2137.2155	5129.5	4236.5
943.6755	2138.7373	5106.45	4221.85
943.8109	2140.2584	5070.15	4187.7
943.9464	2141.7787	5070.45	4185.1
944.0818	2143.2983	5052.7	4174.75
944.2172	2144.8171	5029.4	4149.6
944.3526	2146.3353	5030	4144.4
944.4879	2147.8527	4996.55	4113.3
944.6232	2149.3693	5008.85	4120.65
944.7585	2150.8853	4989.1	4098.7
944.8938	2152.4005	4979.1	4089.95
945.029	2153.9149	4973.7	4083.3
945.1642	2155.4287	4962.05	4071.05
945.2994	2156.9417	4949.15	4058.1
945.4346	2158.454	4921.25	4032.8
945.5697	2159.9655	4901.25	4018.9
945.7048	2161.4764	4898.5	4014.1
945.8399	2162.9865	4896.15	4013
945.9749	2164.4958	4886.4	4002.6
946.1099	2166.0045	4862.5	3976.2
946.2449	2167.5124	4858.75	3973.7
946.3799	2169.0195	4836.4	3948.1
946.5148	2170.526	4838.6	3950.65
946.6498	2172.0317	4834.7	3946.8
946.7846	2173.5367	4809.25	3923.6
946.9195	2175.0409	4799.6	3916.7
947.0543	2176.5445	4794	3904.85
947.1891	2178.0473	4787.45	3897.2
947.3239	2179.5494	4775.4	3882.45
947.4587	2181.0507	4739.7	3854.3
947.5934	2182.5513	4729.2	3846.15
947.7281	2184.0512	4726.75	3838.1
947.8628	2185.5504	4715.15	3830.5
947.9974	2187.0488	4687.6	3802.1
948.132	2188.5465	4688.6	3806.2
948.2666	2190.0435	4657.1	3773.2
948.4012	2191.5397	4653.15	3764
948.5357	2193.0353	4631.45	3745.15
948.6702	2194.5301	4641.95	3748.3
948.8047	2196.0241	4609.9	3716.95
948.9392	2197.5175	4609.55	3717.1
949.0736	2199.0101	4590.8	3694.2
949.208	2200.502	4585	3697.5
949.3424	2201.9931	4555.95	3671.2
949.4767	2203.4835	4547.25	3660.35
949.611	2204.9733	4540.75	3652.85
949.7453	2206.4622	4534.35	3651.9
949.8796	2207.9505	4508.7	3625.35
950.0138	2209.438	4483.2	3603.15
950.148	2210.9248	4495.35	3610.5
950.2822	2212.4109	4458.35	3573.35
950.4164	2213.8962	4454.4	3559.8
950.5505	2215.3809	4453.75	3560.45
950.6846	2216.8648	4437.35	3544.7
950.8186	2218.3479	4430	3530.95
950.9527	2219.8304	4416.75	3518.95
951.0867	2221.3121	4406.2	3507.45
951.2207	2222.7931	4417.95	3525.3
951.3546	2224.2733	4364.4	3473.3
951.4886	2225.7529	4355.3	3465.3
951.6225	2227.2317	4347.25	3458.6
951.7563	2228.7098	4352.2	3467.75
951.8902	2230.1872	4324.65	3440.25
952.024	2231.6638	4326.65	3444.3
952.1578	2233.1397	4305.75	3420.65
952.2916	2234.6149	4287.8	3405.4
952.4253	2236.0894	4274.9	3386.8
952.559	2237.5632	4268.65	3372.5
952.6927	2239.0362	4267.05	3380.25
952.8263	2240.5085	4238	3352.95
952.9599	2241.9801	4244.15	3354.45
953.0935	2243.4509	4224.5	3334.65
953.2271	2244.921	4200.95	3311.65
953.3606	2246.3904	4191.65	3297.1
953.4941	2247.8591	4189.45	3300.85
953.6276	2249.3271	4179.7	3291.95
953.7611	2250.7943	4160.3	3268
953.8945	2252.2608	4151.5	3262.45
954.0279	2253.7266	4149.6	3259.95
954.1612	2255.1917	4130.75	3242.2
954.2946	2256.656	4106.15	3220.6
954.4279	2258.1197	4101.1	3216.25
954.5612	2259.5826	4097.5	3209.85
954.6944	2261.0447	4076.8	3186.3
954.8276	2262.5062	4079.15	3186.95
954.9608	2263.9669	4071.7	3179.1
955.094	2265.4269	4068.5	3179.65
955.2271	2266.8862	4056.15	3167.9
955.3602	2268.3448	4049.6	3164.05
955.4933	2269.8026	4042.3	3157.75
955.6264	2271.2598	4022.1	3136.3
955.7594	2272.7162	4018.85	3132.25
955.8924	2274.1719	4018.4	3128.6
956.0253	2275.6268	4007.2	3114.05
956.1583	2277.0811	3978.35	3086.8
956.2912	2278.5346	3983	3093.9
956.4241	2279.9874	3985.15	3100.35
956.5569	2281.4395	3985.15	3100.3
956.6897	2282.8908	3951	3059.5
956.8225	2284.3414	3954.55	3063.85
956.9553	2285.7914	3943.75	3053.75
957.088	2287.2406	3927.05	3036.15
957.2207	2288.689	3917.2	3025.75
957.3534	2290.1368	3908.8	3013.75
957.486	2291.5838	3909.7	3010.55
957.6186	2293.0302	3890.1	2994.7
957.7512	2294.4758	3882.6	2990.95
957.8838	2295.9206	3866.8	2975.2
958.0163	2297.3648	3858.65	2971.1
958.1488	2298.8082	3856.65	2968.6
958.2813	2300.251	3852	2961.7
958.4137	2301.693	3837.85	2943.6
958.5461	2303.1343	3833.75	2940.35
958.6785	2304.5748	3834.35	2944.85
958.8108	2306.0147	3808.8	2923.85
958.9432	2307.4538	3797.95	2909.95
959.0754	2308.8922	3798.2	2916.1
959.2077	2310.3299	3780.2	2893.35
959.3399	2311.7669	3777.3	2891.5
959.4721	2313.2031	3758.05	2871.15
959.6043	2314.6387	3757.75	2867.9
959.7365	2316.0735	3746.2	2856.45
959.8686	2317.5076	3747.7	2859.4
960.0006	2318.941	3723.9	2831.25
960.1327	2320.3737	3717.3	2826.35
960.2647	2321.8056	3706.75	2811.1
960.3967	2323.2369	3682.05	2792.55
960.5287	2324.6674	3682.7	2790.9
960.6606	2326.0972	3674.15	2783.2
960.7925	2327.5263	3659.25	2770.45
960.9244	2328.9547	3664.75	2773.35
961.0562	2330.3823	3654.65	2762.9
961.1881	2331.8092	3651.7	2755.1
961.3198	2333.2355	3625.75	2732.45
961.4516	2334.661	3627.45	2734.3
961.5833	2336.0858	3633.75	2740.4
961.715	2337.5098	3599.55	2708.5
961.8467	2338.9332	3607.05	2716.5
961.9783	2340.3558	3587.3	2695.4
962.1099	2341.7778	3577.05	2690.65
962.2415	2343.199	3582.05	2692.95
962.373	2344.6195	3574.15	2688.8
962.5045	2346.0393	3557.55	2671.35
962.636	2347.4583	3563.15	2673.7
962.7675	2348.8767	3547.9	2656.15
962.8989	2350.2943	3534.35	2643.65
963.0303	2351.7113	3552.75	2659.05
963.1617	2353.1275	3531.6	2639.45
963.293	2354.543	3532.45	2631.85
963.4243	2355.9578	3508.8	2617.55
963.5556	2357.3718	3491.4	2603.8
963.6868	2358.7852	3490.4	2604.55
963.818	2360.1978	3469.45	2581.8
963.9492	2361.6098	3477.8	2591.1
964.0803	2363.021	3471.9	2578.45
964.2114	2364.4315	3443.45	2554.25
964.3425	2365.8413	3434.9	2546.5
964.4736	2367.2504	3428.85	2540.4
964.6046	2368.6587	3405.85	2520.3
964.7356	2370.0664	3399.9	2516.55
964.8666	2371.4733	3405.2	2516.65
964.9975	2372.8795	3403.45	2515.6
965.1284	2374.285	3398.95	2513.8
965.2593	2375.6899	3375.35	2488.25
965.3901	2377.0939	3367.4	2481.5
965.5209	2378.4973	3345.1	2463
965.6517	2379.9	3345.25	2460.3
965.7825	2381.3019	3332.15	2448.15
965.9132	2382.7032	3325.5	2443.05
966.0439	2384.1037	3322.2	2442.2
966.1745	2385.5035	3316	2432.6
966.3051	2386.9027	3303.6	2422.45
966.4357	2388.3011	3297.45	2410.35
966.5663	2389.6987	3288.5	2408
966.6968	2391.0957	3281	2397.3
966.8273	2392.492	3257.65	2375
966.9578	2393.8876	3254.7	2371.7
967.0882	2395.2824	3237.3	2352.1
967.2186	2396.6765	3227	2341.9
967.349	2398.07	3216.2	2332.85
967.4793	2399.4627	3224.8	2337.65
967.6097	2400.8547	3211.4	2326.7
967.7399	2402.246	3198.2	2308.9
967.8702	2403.6366	3184.15	2299.2
968.0004	2405.0265	3175.9	2293.6
968.1306	2406.4156	3178.2	2289.9
968.2607	2407.8041	3164.95	2278.9
968.3909	2409.1918	3168.2	2281.75
968.521	2410.5789	3151.1	2265.55
968.651	2411.9652	3150.85	2263.3
968.781	2413.3508	3139.05	2254.35
968.911	2414.7358	3128.4	2241.4
969.041	2416.12	3118.35	2235.35
969.1709	2417.5035	3122.4	2238.65
969.3008	2418.8863	3106.6	2221.05
969.4307	2420.2684	3095.65	2212.25
969.5606	2421.6497	3082.7	2195.25
969.6904	2423.0304	3081.55	2197.35
969.8201	2424.4104	3077.85	2193.15
969.9499	2425.7896	3074.75	2188.85
970.0796	2427.1682	3065.1	2182.35
970.2093	2428.546	3048.4	2164.45
970.3389	2429.9232	3059.25	2173.35
970.4685	2431.2996	3041.6	2153.65
970.5981	2432.6753	3030.1	2144.6
970.7277	2434.0503	3022.15	2135.85
970.8572	2435.4246	3011.85	2126.65
970.9867	2436.7982	3004.9	2116.45
971.1161	2438.1711	3002.6	2117.4
971.2456	2439.5433	2988.9	2102.35
971.375	2440.9148	2989.95	2097.6
971.5043	2442.2856	2967.4	2081.65
971.6336	2443.6557	2962.15	2075.4
971.7629	2445.025	2963.25	2076.3
971.8922	2446.3937	2967.45	2080.95
972.0214	2447.7617	2951.05	2062.45
972.1506	2449.1289	2942.2	2056.5
972.2798	2450.4955	2932.8	2046
972.4089	2451.8613	2937.65	2056.3
972.538	2453.2265	2926.95	2041.05
972.6671	2454.5909	2913.7	2026.85
972.7961	2455.9546	2915.05	2030.6
972.9251	2457.3177	2908.1	2021.8
973.0541	2458.68	2895.1	2004.65
973.1831	2460.0416	2895.75	2010.65
973.312	2461.4025	2887.4	2001.3
973.4408	2462.7627	2906.25	2011.35
973.5697	2464.1222	2896.05	2015.9
973.6985	2465.4811	2876.4	1990.05
973.8273	2466.8392	2863.05	1978.45
973.956	2468.1966	2867.7	1979.65
974.0847	2469.5533	2871.15	1981.55
974.2134	2470.9093	2865.35	1978.95
974.3421	2472.2645	2858.4	1972.35
974.4707	2473.6191	2845.8	1960.7
974.5993	2474.973	2834.9	1948.15
974.7278	2476.3262	2821.35	1933.3
974.8563	2477.6787	2826.55	1945
974.9848	2479.0305	2812.05	1926.9
975.1132	2480.3816	2806.5	1919.6
975.2417	2481.7319	2791.65	1905.8
975.37	2483.0816	2796.6	1910.8
975.4984	2484.4306	2779.2	1892.75
975.6267	2485.7789	2774.45	1888.85
975.755	2487.1264	2774.9	1889.4
975.8833	2488.4733	2770.35	1888.15
976.0115	2489.8195	2757.8	1866.2
976.1397	2491.165	2752.25	1862.75
976.2678	2492.5097	2751.2	1863.15
976.3959	2493.8538	2730.6	1846.15
976.524	2495.1972	2719.3	1834.25
976.6521	2496.5398	2702	1815.35
976.7801	2497.8818	2703.4	1815.25
976.9081	2499.2231	2708.05	1819.7
977.036	2500.5637	2703.35	1813.95
977.164	2501.9035	2689.25	1801.5
977.2918	2503.2427	2687.7	1795.05
977.4197	2504.5812	2685.8	1799.05
977.5475	2505.919	2685.2	1796.65
977.6753	2507.256	2676.35	1789.55
977.8031	2508.5924	2661.1	1776.05
977.9308	2509.9281	2654.9	1763.95
978.0585	2511.2631	2650.95	1765.2
978.1861	2512.5974	2640.45	1755.85
978.3137	2513.9309	2638.65	1752.4
978.4413	2515.2638	2651.45	1738.7
978.5689	2516.596	2630.75	1746.25
978.6964	2517.9275	2616.4	1729.35
978.8239	2519.2583	2613.65	1728.7
978.9513	2520.5884	2611.3	1723.9
979.0788	2521.9178	2604.7	1719.75
979.2062	2523.2465	2586.85	1703.9
979.3335	2524.5745	2597.15	1710.1
979.4608	2525.9018	2580.65	1693.8
979.5881	2527.2284	2581.4	1696.35
979.7154	2528.5543	2575.95	1692.1
979.8426	2529.8796	2560.55	1673.75
979.9698	2531.2041	2568.8	1683.8
980.0969	2532.5279	2555.85	1673.3
980.224	2533.851	2566.65	1680.25
980.3511	2535.1735	2562.65	1677.55
980.4781	2536.4952	2551	1664.7
980.6052	2537.8163	2556.05	1669.55
980.7321	2539.1366	2546.35	1659.35
980.8591	2540.4562	2531.75	1642.7
980.986	2541.7752	2536.05	1648.1
981.1129	2543.0935	2532.15	1644.4
981.2397	2544.411	2529.7	1641
981.3665	2545.7279	2512.95	1626.3
981.4933	2547.0441	2511.75	1625.85
981.62	2548.3596	2518.4	1629
981.7467	2549.6744	2505.5	1619
981.8734	2550.9885	2505.15	1610.35
982.0001	2552.3019	2491.4	1605.05
982.1267	2553.6146	2492.05	1604.8
982.2532	2554.9266	2481.2	1594.45
982.3798	2556.2379	2469.25	1580.8
982.5063	2557.5485	2478.45	1594.55
982.6327	2558.8585	2476.05	1582.15
982.7592	2560.1677	2483	1594.25
982.8856	2561.4762	2459.45	1572
983.0119	2562.7841	2457.75	1568.15
983.1383	2564.0913	2454.45	1569
983.2646	2565.3977	2458.95	1572.9
983.3908	2566.7035	2443.95	1556.65
983.517	2568.0086	2440.55	1549
983.6432	2569.313	2433.55	1546.1
983.7694	2570.6167	2455.1	1563.6
983.8955	2571.9197	2430.75	1542.8
984.0216	2573.222	2432.7	1542
984.1476	2574.5236	2412.25	1523.15
984.2737	2575.8246	2430.25	1540.65
984.3996	2577.1248	2427	1537.1
984.5256	2578.4244	2420.75	1534.25
984.6515	2579.7232	2413.4	1526.95
984.7774	2581.0214	2430.15	1520.05
984.9032	2582.3189	2415.25	1531.4
985.029	2583.6157	2415.2	1524.45
985.1548	2584.9118	2409.35	1520.3
985.2806	2586.2072	2408.7	1524.05
985.4063	2587.5019	2407.05	1518.85
985.5319	2588.7959	2399.25	1511.2
985.6576	2590.0893	2399.3	1510.1
985.7832	2591.3819	2400.9	1513.9
985.9087	2592.6739	2389.25	1500.95
986.0343	2593.9652	2388.5	1499.75
986.1597	2595.2557	2388.45	1501.7
986.2852	2596.5456	2391.9	1503.6
986.4106	2597.8348	2384.7	1496.8
986.536	2599.1234	2368.65	1482.15
986.6614	2600.4112	2372.9	1486.25
986.7867	2601.6983	2370.5	1477
986.912	2602.9848	2359.25	1472.05
987.0372	2604.2705	2359.5	1466.55
987.1624	2605.5556	2353.9	1465.4
987.2876	2606.84	2347.45	1461.6
987.4128	2608.1237	2334.8	1446.9
987.5379	2609.4067	2336.95	1449.6
987.6629	2610.689	2343.5	1447.85
987.788	2611.9707	2325.8	1433.2
987.913	2613.2516	2325.1	1434.7
988.0379	2614.5319	2314.1	1426.1
988.1629	2615.8115	2296.45	1409.9
988.2878	2617.0903	2291.6	1403.1
988.4126	2618.3685	2300.85	1414.4
988.5375	2619.6461	2297.4	1411.15
988.6622	2620.9229	2288.25	1400.95
988.787	2622.199	2293.6	1406.35
988.9117	2623.4745	2281.65	1394.25
989.0364	2624.7493	2280.25	1393.35
989.161	2626.0234	2272.8	1387.9
989.2857	2627.2968	2271.85	1386.65
989.4102	2628.5695	2263.05	1373.45
989.5348	2629.8415	2250.2	1365.15
989.6593	2631.1128	2254.6	1364.85
989.7837	2632.3835	2242.65	1358.05
989.9082	2633.6535	2249.05	1362.85
990.0326	2634.9228	2250.9	1364.4
990.1569	2636.1914	2239.45	1353.25
990.2812	2637.4593	2246.3	1358.3
990.4055	2638.7265	2231.35	1344.1
990.5298	2639.9931	2231.8	1346.4
990.654	2641.259	2219	1332.25
990.7782	2642.5242	2222	1334
990.9023	2643.7887	2220.65	1334.6
991.0264	2645.0525	2217.15	1329.7
991.1505	2646.3156	2204.7	1318.2
991.2745	2647.5781	2197.75	1312.9
991.3985	2648.8398	2190.65	1306
991.5225	2650.1009	2199.85	1304.7
991.6464	2651.3613	2182.75	1296.15
991.7703	2652.6211	2189.35	1304.8
991.8942	2653.8801	2163.35	1278.8
992.018	2655.1385	2182.85	1294.95
992.1418	2656.3961	2173.1	1285.95
992.2655	2657.6531	2183.6	1296.15
992.3892	2658.9094	2167.35	1279.2
992.5129	2660.1651	2158.85	1271.35
992.6366	2661.42	2161.25	1274.85
992.7602	2662.6743	2161.2	1273.3
992.8837	2663.9279	2163.95	1277.7
993.0073	2665.1808	2159.45	1273.25
993.1307	2666.433	2168.8	1280.75
993.2542	2667.6846	2149.25	1264.05
993.3776	2668.9354	2154.45	1266.05
993.501	2670.1856	2162.6	1275.9
993.6244	2671.4351	2149.4	1263.55
993.7477	2672.6839	2159.05	1272.85
993.8709	2673.9321	2149.05	1263.1
993.9942	2675.1795	2159.6	1272.2
994.1174	2676.4263	2146.6	1260.35
994.2405	2677.6724	2156	1270.35
994.3637	2678.9179	2145.2	1258.2
994.4868	2680.1626	2153.7	1269.45
994.6098	2681.4067	2145.7	1261.55
994.7328	2682.6501	2139.55	1252
994.8558	2683.8928	2132.65	1246.25
994.9788	2685.1348	2122.45	1237.6
995.1017	2686.3761	2123.8	1239.35
995.2245	2687.6168	2116	1229.85
995.3474	2688.8568	2107.2	1218.45
995.4702	2690.0961	2103.55	1219.6
995.5929	2691.3348	2099.75	1213.6
995.7156	2692.5727	2094.1	1206.95
995.8383	2693.81	2097.2	1214.45
995.961	2695.0466	2095.1	1211.2
996.0836	2696.2826	2082.4	1193.85
996.2062	2697.5178	2087.45	1196.95
996.3287	2698.7524	2076	1190.65
996.4512	2699.9863	2084.95	1196.45
996.5737	2701.2195	2076.45	1194.85
996.6961	2702.452	2079.15	1193.75
996.8185	2703.6839	2079.05	1191.6
996.9408	2704.9151	2080.25	1197.65
997.0631	2706.1456	2088.15	1203.5
997.1854	2707.3755	2085.4	1197.4
997.3077	2708.6046	2091.6	1202.55
997.4299	2709.8331	2091.8	1204.75
997.552	2711.0609	2101.3	1215.45
997.6742	2712.2881	2097.55	1212
997.7963	2713.5145	2108.2	1221.4
997.9183	2714.7403	2115.85	1230.65
998.0403	2715.9654	2125.15	1239.85
998.1623	2717.1899	2137.95	1238.25
998.2842	2718.4136	2132.35	1246.3
998.4062	2719.6367	2143.05	1256.25
998.528	2720.8591	2160.15	1267.1
998.6498	2722.0809	2150.9	1266.4
998.7716	2723.3019	2175.15	1285.55
998.8934	2724.5223	2165.8	1279.6
999.0151	2725.7421	2183.7	1295.4
999.1368	2726.9611	2175.4	1288
999.2584	2728.1795	2174.15	1284.8
999.38	2729.3972	2165.35	1278.4
999.5016	2730.6142	2157.95	1262.55
999.6231	2731.8306	2132.55	1245.05
999.7446	2733.0462	2125.6	1238.9
999.8661	2734.2612	2109.25	1220.4
999.9875	2735.4756	2074.25	1187.05
1000.1089	2736.6892	2068.85	1181.45
1000.2302	2737.9022	2036.15	1151.8
1000.3515	2739.1145	2033.3	1149.25
1000.4728	2740.3262	2017.35	1125.2
1000.594	2741.5372	2006.3	1120.85
1000.7152	2742.7475	1993.9	1109.4
1000.8363	2743.9571	1975.2	1089.35
1000.9575	2745.1661	1971.6	1082.5
1001.0785	2746.3744	1948.95	1063.95
1001.1996	2747.582	1933.8	1048.15
1001.3206	2748.7889	1944.6	1056.55
1001.4415	2749.9952	1923.95	1041.3
1001.5625	2751.2008	1912.55	1026.2
1001.6833	2752.4057	1913.8	1026.3
1001.8042	2753.61	1902.8	1016.8
1001.925	2754.8136	1904.85	1018.05
1002.0458	2756.0165	1889	1005.45
1002.1665	2757.2188	1889.7	1007
1002.2872	2758.4204	1891.1	1006.1
1002.4078	2759.6213	1889.95	1002.2
1002.5285	2760.8215	1899.7	1012.95
1002.649	2762.0211	1886.85	998.45
1002.7696	2763.22	1876.45	989.5
1002.8901	2764.4182	1870.35	983.2
1003.0106	2765.6158	1861.15	977.4
1003.131	2766.8127	1869.55	982.9
1003.2514	2768.009	1862.4	978.7
1003.3717	2769.2045	1847.65	963.9
1003.492	2770.3994	1850.5	963.55
1003.6123	2771.5936	1848.4	963.3
1003.7325	2772.7872	1846	962.45
1003.8527	2773.9801	1839.75	952.9
1003.9729	2775.1723	1842.85	939.45
1004.093	2776.3639	1824.4	941.1
1004.2131	2777.5548	1825.1	939.3
1004.3331	2778.745	1827.35	942.05
1004.4531	2779.9346	1834.05	951.85
1004.5731	2781.1235	1832.5	948.1
1004.693	2782.3117	1833.35	951
1004.8129	2783.4992	1829.75	946.9
1004.9328	2784.6861	1827.8	943.95
1005.0526	2785.8723	1842.3	959.4
1005.1723	2787.0579	1840.9	956.55
1005.2921	2788.2428	1849.95	965.1
1005.4118	2789.427	1851.35	968.05
1005.5314	2790.6106	1859.1	975.55
1005.651	2791.7935	1854.25	973.5
1005.7706	2792.9757	1871.75	987.4
1005.8902	2794.1573	1894.45	1008.6
1006.0097	2795.3382	1888.4	1004.45
1006.1291	2796.5184	1901.9	1019.9
1006.2485	2797.698	1915.6	1033.25
1006.3679	2798.8769	1932.05	1049.35
1006.4873	2800.0551	1944.75	1060.95
1006.6066	2801.2327	1962.2	1077.05
1006.7258	2802.4096	1971.2	1087.45
1006.8451	2803.5859	1992.6	1109.2
1006.9642	2804.7615	2003.45	1119.4
1007.0834	2805.9364	2026.95	1143.05
1007.2025	2807.1106	2049.25	1167.2
1007.3216	2808.2842	2085.55	1201.45
1007.4406	2809.4572	2107.2	1224.05
1007.5596	2810.6294	2154.35	1270.1
1007.6785	2811.801	2184.55	1301.7
1007.7975	2812.972	2214.9	1330
1007.9163	2814.1423	2249.55	1365.75
1008.0352	2815.3119	2303.4	1419.75
1008.154	2816.4808	2351.45	1469.5
1008.2727	2817.6491	2394.65	1510.15
1008.3914	2818.8167	2436.4	1554.6
1008.5101	2819.9837	2491.95	1604.9
1008.6288	2821.15	2526.3	1644.45
1008.7474	2822.3157	2575.05	1694.4
1008.8659	2823.4807	2622	1737.8
1008.9844	2824.645	2678.3	1791.75
1009.1029	2825.8086	2728.85	1846
1009.2214	2826.9716	2759.1	1879.05
1009.3398	2828.134	2818.15	1935.15
1009.4581	2829.2957	2854.7	1972.25
1009.5764	2830.4567	2877.15	1994.95
1009.6947	2831.617	2891.85	2012
1009.813	2832.7767	2908.2	2027.75
1009.9312	2833.9358	2900.55	2018.65
1010.0493	2835.0941	2911.25	2026.1
1010.1675	2836.2519	2887.65	2004.85
1010.2855	2837.4089	2879.45	1996.1
1010.4036	2838.5653	2869.9	1987.6
1010.5216	2839.7211	2876.7	1996
1010.6396	2840.8761	2884.7	2001.65
1010.7575	2842.0306	2893.05	2012.7
1010.8754	2843.1843	2930.6	2047.2
1010.9932	2844.3374	2970.5	2087.5
1011.111	2845.4899	3043.95	2161.6
1011.2288	2846.6417	3098.45	2215.8
1011.3465	2847.7928	3170	2287.25
1011.4642	2848.9433	3239.75	2358.15
1011.5818	2850.0931	3325.4	2441.15
1011.6995	2851.2422	3392.75	2510.1
1011.817	2852.3907	3454.75	2571.75
1011.9345	2853.5385	3518.3	2633.75
1012.052	2854.6857	3577.55	2665.85
1012.1695	2855.8323	3623.95	2744.1
1012.2869	2856.9781	3671.6	2789.45
1012.4042	2858.1233	3719.95	2839
1012.5216	2859.2679	3752.3	2869.15
1012.6389	2860.4118	3816.65	2935.4
1012.7561	2861.555	3855.75	2969.9
1012.8733	2862.6976	3894.5	3011.15
1012.9905	2863.8395	3910.15	3030.1
1013.1076	2864.9808	3946.45	3063.45
1013.2247	2866.1214	3954.55	3075.75
1013.3417	2867.2614	3962.3	3080.6
1013.4587	2868.4007	3986.9	3101.4
1013.5757	2869.5393	3995.7	3111.95
1013.6926	2870.6773	4007.95	3123.6
1013.8095	2871.8146	4008.7	3123.4
1013.9263	2872.9513	4025	3137.6
1014.0431	2874.0874	4004.85	3122.65
1014.1599	2875.2227	4002.5	3120.2
1014.2766	2876.3574	3986.25	3103.15
1014.3933	2877.4915	3965.5	3083.85
1014.51	2878.6249	3936.5	3054.25
1014.6266	2879.7577	3912.1	3029.5
1014.7431	2880.8898	3902.4	3013.9
1014.8596	2882.0212	3866.95	2987.45
1014.9761	2883.152	3850	2969.5
1015.0925	2884.2821	3848.1	2965.95
1015.2089	2885.4116	3840.55	2958.75
1015.3253	2886.5405	3836.25	2956.8
1015.4416	2887.6686	3839.55	2954.45
1015.5579	2888.7962	3842.5	2964.15
1015.6741	2889.923	3852.4	2972.7
1015.7903	2891.0493	3851.65	2971.25
1015.9065	2892.1748	3865.15	2983.65
1016.0226	2893.2997	3876.95	2994
1016.1387	2894.424	3874.05	2992.75
1016.2547	2895.5476	3900.85	3020.95
1016.3707	2896.6706	3918.9	3038.15
1016.4866	2897.7929	3942.45	3061.65
1016.6025	2898.9145	3978.35	3095.5
1016.7184	2900.0355	4012.85	3130.5
1016.8342	2901.1559	4035.9	3152.75
1016.95	2902.2756	4071.75	3191.35
1017.0658	2903.3946	4099.95	3220.4
1017.1815	2904.513	4135.85	3252.95
1017.2971	2905.6308	4154.3	3272.55
1017.4127	2906.7479	4181.9	3301.9
1017.5283	2907.8643	4208.4	3327
1017.6439	2908.9801	4208.35	3326.35
1017.7594	2910.0953	4212.55	3332.45
1017.8748	2911.2098	4226.5	3343.15
1017.9902	2912.3236	4233.5	3347.2
1018.1056	2913.4368	4206	3320.6
1018.2209	2914.5494	4189.6	3308.05
1018.3362	2915.6613	4164	3274.2
1018.4515	2916.7725	4129.3	3245.35
1018.5667	2917.8831	4100.45	3220.6
1018.6819	2918.9931	4076.05	3194.45
1018.797	2920.1024	4034.55	3152.85
1018.9121	2921.211	4027.45	3146.1
1019.0271	2922.319	3982.95	3103.8
1019.1421	2923.4264	3970.2	3087.85
1019.2571	2924.5331	3949.95	3070.4
1019.372	2925.6391	3944.1	3063.85
1019.4869	2926.7445	3933.25	3053.2
1019.6017	2927.8493	3954.95	3075.85
1019.7165	2928.9534	3930.35	3051.55
1019.8313	2930.0569	3919.85	3038.35
1019.946	2931.1597	3920.95	3040.25
1020.0606	2932.2619	3912.65	3031.4
1020.1753	2933.3634	3883.6	3004.1
1020.2899	2934.4643	3902.6	3015.85
1020.4044	2935.5645	3887.8	3000.65
1020.5189	2936.6641	3846.15	2960.65
1020.6334	2937.763	3790.4	2910.5
1020.7478	2938.8613	3748.6	2868.55
1020.8622	2939.959	3684.85	2797.95
1020.9765	2941.056	3616.9	2738.4
1021.0908	2942.1523	3535.95	2653.6
1021.2051	2943.248	3456	2575.05
1021.3193	2944.3431	3350.9	2470.7
1021.4334	2945.4375	3257.95	2377
1021.5476	2946.5313	3146.05	2268.45
1021.6617	2947.6244	3041.75	2162.05
1021.7757	2948.7169	2930.45	2047.8
1021.8897	2949.8087	2842.75	1962.35
1022.0037	2950.8999	2750.25	1871
1022.1176	2951.9904	2682.2	1800.7
1022.2315	2953.0803	2607.55	1727.9
1022.3453	2954.1696	2535.65	1655.9
1022.4591	2955.2582	2489.05	1611.25
1022.5728	2956.3462	2422.8	1541.95
1022.6865	2957.4335	2395.1	1513.45
1022.8002	2958.5202	2356.2	1473.75
1022.9138	2959.6062	2323.3	1445.5
1023.0274	2960.6916	2295.8	1416.7
1023.141	2961.7764	2284.4	1400.95
1023.2545	2962.8605	2252.75	1372.4
1023.3679	2963.9439	2255.05	1377.15
1023.4813	2965.0267	2236.1	1356.05
1023.5947	2966.1089	2250.55	1349.05
1023.708	2967.1905	2223.1	1343.5
1023.8213	2968.2714	2215.9	1334.85
1023.9346	2969.3516	2204	1323.85
1024.0478	2970.4312	2212.2	1325.1
1024.1609	2971.5102	2204.75	1327.05
1024.274	2972.5885	2212.65	1334.55
1024.3871	2973.6662	2218.65	1333.3
1024.5002	2974.7432	2204.85	1326.9
1024.6132	2975.8196	2201.05	1323.85
1024.7261	2976.8954	2199.8	1320.65
1024.839	2977.9705	2181.2	1302
1024.9519	2979.045	2161.5	1282.8
1025.0647	2980.1188	2151.7	1272.7
1025.1775	2981.192	2131.5	1251.9
1025.2902	2982.2645	2108.8	1229.45
1025.4029	2983.3364	2088.85	1210.6
1025.5156	2984.4077	2060.9	1182
1025.6282	2985.4783	2024.5	1138.6
1025.7407	2986.5483	1989.55	1113.4
1025.8532	2987.6177	1954.45	1075.5
1025.9657	2988.6864	1915.5	1036.6
1026.0782	2989.7545	1880.3	1001.2
1026.1906	2990.8219	1839.35	962.7
1026.3029	2991.8887	1807.4	929.3
1026.4152	2992.9548	1789.2	907.35
1026.5275	2994.0204	1750.6	870.8
1026.6397	2995.0852	1720.9	842.95
1026.7519	2996.1495	1697.5	817
1026.864	2997.2131	1671.5	793.5
1026.9761	2998.276	1648.2	768.65
1027.0882	2999.3383	1627.4	747.65
1027.2002	3000.4	1607.5	730.95
1027.3122	3001.4611	1590.45	713.5
1027.4241	3002.5215	1574.4	695.55
1027.536	3003.5812	1554.45	673.65
1027.6478	3004.6404	1551.25	673.1
1027.7596	3005.6989	1538.15	656.75
1027.8714	3006.7567	1525.3	646.3
1027.9831	3007.8139	1540.45	630.2
1028.0947	3008.8705	1510.05	631.35
1028.2064	3009.9264	1503.15	620.7
1028.3179	3010.9818	1497.25	618.8
1028.4295	3012.0364	1491.25	609.9
1028.541	3013.0905	1488.7	609.7
1028.6524	3014.1439	1483.75	605.2
1028.7638	3015.1966	1479.5	602.55
1028.8752	3016.2487	1482.2	604.15
1028.9865	3017.3002	1481.75	599.85
1029.0978	3018.3511	1464.35	587.6
1029.209	3019.4013	1468.9	590.6
1029.3202	3020.4509	1470	593.35
1029.4314	3021.4998	1468.9	589
1029.5425	3022.5481	1468.75	592.95
1029.6535	3023.5958	1469.6	590.2
1029.7645	3024.6428	1470.05	589.65
1029.8755	3025.6892	1467.35	591.45
1029.9864	3026.735	1470.85	591.7
1030.0973	3027.7802	1468.95	588.7
1030.2082	3028.8247	1471.35	593.8
1030.319	3029.8685	1479.9	601.45
1030.4297	3030.9118	1474.9	595.8
1030.5404	3031.9544	1481.25	606.9
1030.6511	3032.9963	1478.2	601.1
1030.7617	3034.0376	1485.2	607.85
1030.8723	3035.0783	1486.9	605.4
1030.9829	3036.1184	1494.75	615.4
1031.0934	3037.1578	1491.85	616.8
1031.2038	3038.1966	1493.45	614.75
1031.3142	3039.2348	1493.3	616.7
1031.4246	3040.2723	1505.75	616.6
1031.5349	3041.3092	1492.65	615.1
1031.6452	3042.3455	1486.85	608.85
1031.7554	3043.3811	1483.65	604.3
1031.8656	3044.4161	1483.75	606.45
1031.9758	3045.4505	1473.7	596.2
1032.0859	3046.4842	1469.5	589.8
1032.1959	3047.5173	1474.6	598.3
1032.3059	3048.5498	1460.15	581.6
1032.4159	3049.5816	1453.4	577.45
1032.5258	3050.6128	1450	571.7
1032.6357	3051.6434	1449.75	571.75
1032.7455	3052.6734	1430.85	554.05
1032.8553	3053.7027	1430.85	551.05
1032.9651	3054.7314	1427.5	551.35
1033.0748	3055.7594	1412.15	535.75
1033.1845	3056.7868	1410.6	532.35
1033.2941	3057.8136	1403.85	524.85
1033.4037	3058.8398	1401.1	523.45
1033.5132	3059.8653	1400.2	522.85
1033.6227	3060.8902	1389	512.75
1033.7321	3061.9145	1387.3	510.4
1033.8415	3062.9381	1377.85	501.25
1033.9509	3063.9612	1390.75	493.65
1034.0602	3064.9835	1362.3	485.2
1034.1694	3066.0053	1364.85	485.45
1034.2787	3067.0264	1359.9	482.8
1034.3878	3068.0469	1341.45	465
1034.497	3069.0668	1349.95	470.25
1034.6061	3070.086	1331.75	455.8
1034.7151	3071.1046	1322.9	446.75
1034.8241	3072.1226	1317.65	438.8
1034.9331	3073.1399	1304.6	426.05
1035.042	3074.1567	1303.3	424.8
1035.1508	3075.1727	1292.85	411.75
1035.2597	3076.1882	1281.6	404.2
1035.3684	3077.203	1267.5	390.05
1035.4772	3078.2173	1262.35	383.55
1035.5859	3079.2308	1261.9	382.55
1035.6945	3080.2438	1248.8	367.9
1035.8031	3081.2561	1237.55	360.95
1035.9117	3082.2678	1229.95	353.1
1036.0202	3083.2789	1230.8	354
1036.1286	3084.2893	1219.1	342.9
1036.2371	3085.2991	1216.45	339.1
1036.3454	3086.3083	1208.1	326.8
1036.4538	3087.3169	1211	332.35
1036.562	3088.3248	1200.2	320.6
1036.6703	3089.3321	1195.8	315.85
1036.7785	3090.3388	1189	312.75
1036.8866	3091.3449	1178.45	300.7
1036.9948	3092.3503	1187.3	306.1
1037.1028	3093.3551	1176.95	302.05
1037.2108	3094.3593	1170.35	294.7
1037.3188	3095.3629	1164.25	287.05
1037.4267	3096.3658	1170.15	290.85
1037.5346	3097.3681	1156.1	278.3
1037.6425	3098.3698	1158	279
1037.7503	3099.3708	1163.55	281.15
1037.858	3100.3713	1152.25	274.9
1037.9657	3101.3711	1150.35	272.75
1038.0734	3102.3702	1279.45	262.65
1038.181	3103.3688	1143.75	265.65
1038.2886	3104.3667	1143.8	266.3
1038.3961	3105.364	1140.6	264.95
1038.5036	3106.3607	1137.35	257.9
1038.611	3107.3568	1130.7	252.9
1038.7184	3108.3522	1124.05	247.85
1038.8257	3109.347	1129.05	252.2
1038.933	3110.3412	1130.7	250.95
1039.0403	3111.3348	1125.5	249.2
1039.1475	3112.3277	1115.4	237.5
1039.2547	3113.32	1122.1	247.8
1039.3618	3114.3117	1119.1	241.35
1039.4689	3115.3028	1116.6	238.3
1039.5759	3116.2932	1114.25	234.45
1039.6829	3117.2831	1115.1	231.85
1039.7898	3118.2723	1108.9	231.95
1039.8967	3119.2608	1107	231.05
1040.0035	3120.2488	1104.65	228.55
1040.1103	3121.2361	1104.75	225.3
1040.2171	3122.2229	1099.25	226.25
1040.3238	3123.209	1099.65	222.65
1040.4305	3124.1944	1096.7	222.15
1040.5371	3125.1793	1099.9	222.3
1040.6437	3126.1635	1095.35	220.25
1040.7502	3127.1471	1094.45	218.6
1040.8567	3128.1301	1091.15	213.7
1040.9631	3129.1125	1086.2	211.3
1041.0695	3130.0942	1090.55	213.65
1041.1759	3131.0753	1095.25	210.65
1041.2822	3132.0558	1088.7	208.1
1041.3884	3133.0357	1087.3	210.05
1041.4946	3134.015	1083.75	206.35
1041.6008	3134.9936	1084.85	206.5
1041.7069	3135.9716	1099.5	199.75
1041.813	3136.949	1079.75	204.25
1041.919	3137.9258	1093	198.7
1042.025	3138.902	1082.85	201.1
1042.1309	3139.8775	1074.25	198.9
1042.2368	3140.8524	1070.3	195.55
1042.3427	3141.8267	1070.4	190.95
1042.4485	3142.8004	1071.95	194.55
1042.5542	3143.7735	1077	195
1042.6599	3144.7459	1073.5	197.25
1042.7656	3145.7178	1066.35	190.05
1042.8712	3146.689	1060.6	185.4
1042.9768	3147.6596	1065.9	187.8
1043.0823	3148.6295	1062.65	188.6
1043.1878	3149.5989	1064.2	187.9
1043.2932	3150.5676	1058.5	182.3
1043.3986	3151.5357	1056.35	182.05
1043.5039	3152.5032	1053.9	178.1
1043.6092	3153.4701	1052.2	176.95
1043.7145	3154.4364	1051.3	172.65
1043.8197	3155.402	1050.95	174
1043.9248	3156.367	1056.2	178.5
1044.03	3157.3315	1081.1	179.7
1044.135	3158.2952	1052.55	177.4
1044.24	3159.2584	1046.8	171.55
1044.345	3160.221	1049	171.75
1044.4499	3161.1829	1043.5	166.65
1044.5548	3162.1442	1044.75	169.35
1044.6596	3163.105	1042.3	165.9
1044.7644	3164.065	1042	166.7
1044.8692	3165.0245	1042.9	165.55
1044.9739	3165.9834	1039.65	167.5
1045.0785	3166.9416	1041.65	167.5
1045.1831	3167.8993	1033.85	157.55
1045.2877	3168.8563	1032	154.55
1045.3922	3169.8127	1035.2	158.2
1045.4966	3170.7684	1035.3	159.45
1045.6011	3171.7236	1034	158.6
1045.7054	3172.6782	1032.25	158.1
1045.8098	3173.6321	1030.85	153.65
1045.914	3174.5854	1036.9	157.5
1046.0183	3175.5381	1031.2	154.75
1046.1224	3176.4902	1030.1	152.8
1046.2266	3177.4417	1029.75	156.4
1046.3307	3178.3926	1023.1	148.4
1046.4347	3179.3428	1022.15	147.35
1046.5387	3180.2924	1022.85	146.45
1046.6427	3181.2415	1024.05	148.45
1046.7466	3182.1899	1024.1	146.5
1046.8504	3183.1377	1021.05	146.05
1046.9542	3184.0848	1025.7	145.3
1047.058	3185.0314	1019.5	143.9
1047.1617	3185.9773	1016.55	138
1047.2654	3186.9227	1017.9	143
1047.369	3187.8674	1020.4	143.8
1047.4726	3188.8115	1023.2	144.8
1047.5761	3189.755	1013.3	136.45
1047.6796	3190.6979	1014	138.25
1047.783	3191.6402	1010.7	135.75
1047.8864	3192.5818	1012	137.7
1047.9898	3193.5229	1019.95	138.95
1048.0931	3194.4633	1014.7	138.6
1048.1963	3195.4031	1009.7	135
1048.2995	3196.3423	1012.3	138.4
1048.4027	3197.2809	1007.8	130.25
1048.5058	3198.2189	1011.45	136.45
1048.6089	3199.1563	1023.4	133.05
1048.7119	3200.0931	1006.15	131.95
1048.8148	3201.0292	1006.65	129.05
1048.9178	3201.9648	1006.25	131.3
1049.0206	3202.8997	1007.55	127.45
1049.1235	3203.834	1002.5	127.2
1049.2262	3204.7677	1001.55	126.4
1049.329	3205.7008	1004.65	128.55
1049.4317	3206.6333	1001.6	127.75
1049.5343	3207.5652	1003.9	127.2
1049.6369	3208.4964	1001.65	125.5
1049.7394	3209.4271	1001.3	126.35
1049.8419	3210.3571	1000.15	124.45
1049.9444	3211.2865	999.6	123.1
1050.0468	3212.2154	999.05	120.6
1050.1491	3213.1436	998.35	119.9
1050.2514	3214.0712	1004.9	123.15
1050.3537	3214.9982	997.7	122.9
1050.4559	3215.9246	993.05	116.8
1050.5581	3216.8503	992.6	118.85
1050.6602	3217.7755	994.15	120
1050.7623	3218.7001	991.25	117.7
1050.8643	3219.624	994.2	119.6
1050.9663	3220.5473	989.75	115.3
1051.0682	3221.4701	990.25	114.4
1051.1701	3222.3922	993.65	116.05
1051.2719	3223.3137	989.6	113.85
1051.3737	3224.2346	988.9	111.8
1051.4754	3225.1549	988.6	113.5
1051.5771	3226.0746	989.8	115.75
1051.6788	3226.9937	987.35	114.65
1051.7804	3227.9121	985.9	111.8
1051.8819	3228.83	986.05	110.2
1051.9834	3229.7473	985.1	109.3
1052.0849	3230.6639	982.85	106.4
1052.1863	3231.5799	981.25	107.55
1052.2876	3232.4954	986.35	111
1052.3889	3233.4102	980.9	107.25
1052.4902	3234.3244	978.15	103.7
1052.5914	3235.238	984.15	110.75
1052.6926	3236.151	1003.75	106
1052.7937	3237.0634	979.35	104.7
1052.8948	3237.9752	980.1	105.9
1052.9958	3238.8864	977.8	102.55
1053.0968	3239.797	979.4	102.1
1053.1977	3240.7069	980.15	104.85
1053.2986	3241.6163	979.4	102.25
1053.3994	3242.5251	972.7	98.25
1053.5002	3243.4332	975.45	101.25
1053.6009	3244.3408	972.2	99.95
1053.7016	3245.2477	970.35	94.5
1053.8022	3246.154	973.45	98.6
1053.9028	3247.0598	972.7	97.7
1054.0034	3247.9649	971.45	95.5
1054.1039	3248.8694	973.35	99.6
1054.2043	3249.7733	971.45	94.75
1054.3047	3250.6766	970.2	96.45
1054.4051	3251.5793	967.3	92.15
1054.5054	3252.4814	968.15	98.25
1054.6056	3253.3829	965.9	90.9
1054.7058	3254.2838	965.45	90.95
1054.806	3255.1841	963.95	89.45
1054.9061	3256.0838	964.2	89.45
1055.0061	3256.9829	966.25	91.9
1055.1062	3257.8814	969.1	93.3
1055.2061	3258.7792	962.45	85.5
1055.306	3259.6765	959.25	84.25
1055.4059	3260.5731	960.55	86.2
1055.5057	3261.4692	959.55	83.5
1055.6055	3262.3647	957.4	82.3
1055.7052	3263.2595	953.05	79.3
1055.8049	3264.1538	953.45	79.5
1055.9045	3265.0474	953.1	79.65
1056.0041	3265.9404	948.8	76.85
1056.1036	3266.8329	949.8	76.15
1056.2031	3267.7247	964.4	79.8
1056.3025	3268.616	946.75	73.8
1056.4019	3269.5066	945.35	69.4
1056.5013	3270.3966	944.8	70.6
1056.6005	3271.286	939.6	66.45
