Software Version:	3.9.2.0
Unit SN:	10000200
Spectrometer SN:	6960
Date:	3/8/2024 11:55:38 AM
Data Line Index:	25
Spectral Points:	2048
Integration time (ms):	125
Averages:	20
Delay (ms):	30000
Sequence Number:	1
Processing:	dark subtract
Laser Power (mW):	305
Laser Current (mA):	822
Laser Diode Temp (C):	25.1
Laser Case Temp (C):	25.4
System Temp (C):	25.4
Spectrometer Temp (C):	23.3
CCD Temp (C):	0.009
Secondary Temp (C):	20.007
Heatsink Temp (C):	20.225
CCDPCB Temp (C):	35.462
SecondaryPCB Temp (C):	28.315

Wavelength	RamanShift	Raw Counts	Dark Subtracted
787.061	30.1047	415.85	8.3
787.2016	32.3739	412.75	5.95
787.3422	34.6426	415.3	7.3
787.4828	36.9109	417.15	5.65
787.6235	39.1787	421.35	8.8
787.7642	41.4461	426.1	7.9
787.9049	43.7131	430.2	6.8
788.0456	45.9796	433.55	8.65
788.1863	48.2456	437.8	13
788.3271	50.5112	442.8	10.55
788.4679	52.7764	445.35	12.05
788.6087	55.0411	451.2	11.1
788.7496	57.3054	457.1	10.75
788.8904	59.5692	460.05	12.85
789.0313	61.8326	462.2	13.25
789.1722	64.0955	465.1	14
789.3132	66.3579	472.75	13
789.4541	68.6199	479.9	19.1
789.5951	70.8815	489.45	25.6
789.7361	73.1426	507.4	35.5
789.8771	75.4032	541.7	66.45
790.0181	77.6634	612.25	135.15
790.1592	79.9231	781.9	299.45
790.3003	82.1824	1122.95	631.35
790.4414	84.4412	1688.85	1175.05
790.5825	86.6995	2400.35	1870
790.7237	88.9574	3052.85	2500.85
790.8648	91.2148	3503.4	2943
791.006	93.4717	3698.05	3127.35
791.1472	95.7282	3704.65	3130.35
791.2885	97.9842	3693.3	3116.25
791.4297	100.2398	3637.8	3059.3
791.571	102.4949	3598.6	3016.15
791.7123	104.7495	3553.3	2966.65
791.8536	107.0036	3499.75	2914.1
791.9949	109.2573	3412.35	2825.5
792.1363	111.5105	3334	2744.65
792.2777	113.7632	3232.2	2641
792.4191	116.0154	3137.3	2534.25
792.5605	118.2672	3030.7	2436
792.7019	120.5185	2929.3	2333.25
792.8434	122.7693	2834.35	2233.8
792.9849	125.0197	2770.4	2169.35
793.1264	127.2696	2686.55	2076.15
793.2679	129.519	2650	2037.05
793.4094	131.7679	2625.5	2011.55
793.551	134.0163	2600.3	1984.45
793.6926	136.2642	2593.5	1973.3
793.8342	138.5117	2589.5	1960.45
793.9758	140.7587	2545.65	1923.35
794.1175	143.0052	2507.85	1881.85
794.2591	145.2512	2464.2	1836.6
794.4008	147.4967	2408.1	1778.15
794.5425	149.7417	2370.1	1739.8
794.6842	151.9863	2343.95	1707.4
794.826	154.2304	2340.05	1700
794.9677	156.4739	2323.5	1678.3
795.1095	158.717	2333.8	1685.8
795.2513	160.9596	2352.6	1701.9
795.3931	163.2017	2386.6	1733.95
795.535	165.4433	2394.95	1740.7
795.6768	167.6844	2378.2	1721.75
795.8187	169.925	2350.8	1691.15
795.9606	172.1651	2286	1627.55
796.1025	174.4047	2243.45	1578.65
796.2445	176.6439	2207.85	1542.6
796.3864	178.8825	2190.35	1519.35
796.5284	181.1206	2171.3	1496.6
796.6704	183.3582	2165.35	1488.45
796.8124	185.5954	2152.55	1471.75
796.9544	187.832	2170.65	1487.7
797.0965	190.0681	2168.35	1482.5
797.2386	192.3037	2168.95	1480.45
797.3806	194.5388	2172.7	1481.2
797.5228	196.7734	2181.35	1485.45
797.6649	199.0075	2200.4	1502.25
797.807	201.2411	2221.6	1523.55
797.9492	203.4742	2240	1542.6
798.0914	205.7068	2267.05	1564.2
798.2336	207.9389	2277.7	1574.15
798.3758	210.1704	2288.55	1587.25
798.518	212.4015	2291.35	1603.3
798.6603	214.632	2294.3	1611.25
798.8025	216.862	2285.6	1608.55
798.9448	219.0915	2304.7	1623.75
799.0871	221.3205	2315.85	1628.25
799.2294	223.549	2308.9	1631.6
799.3718	225.777	2320.25	1639.25
799.5141	228.0044	2307.85	1620.2
799.6565	230.2314	2291.9	1604.95
799.7989	232.4578	2291.6	1605.65
799.9413	234.6837	2275.6	1576.3
800.0837	236.909	2273.95	1572.15
800.2262	239.1339	2283.75	1557.55
800.3687	241.3582	2266.8	1553
800.5111	243.582	2299.8	1558.05
800.6536	245.8053	2289.55	1559.35
800.7961	248.0281	2291.1	1565.75
800.9387	250.2503	2300.9	1567.7
801.0812	252.472	2310.95	1575.4
801.2238	254.6932	2313.3	1584.1
801.3664	256.9139	2319.75	1588.8
801.509	259.134	2340.75	1603.95
801.6516	261.3536	2362	1626.75
801.7942	263.5727	2395.8	1657.65
801.9369	265.7912	2452.3	1718.8
802.0795	268.0092	2510.5	1775.5
802.2222	270.2267	2566.25	1829.55
802.3649	272.4436	2606.6	1867.2
802.5076	274.6601	2647.7	1898.6
802.6504	276.8759	2658.2	1913.5
802.7931	279.0913	2682.35	1939.05
802.9359	281.3061	2683.4	1936.45
803.0787	283.5204	2705.35	1956.85
803.2215	285.7341	2736.35	1985.2
803.3643	287.9473	2741.95	1990.4
803.5071	290.16	2753.7	1998.2
803.6499	292.3721	2715.7	1962.15
803.7928	294.5837	2688.4	1934.3
803.9357	296.7947	2655.2	1905.15
804.0786	299.0052	2652.65	1902.1
804.2215	301.2152	2653	1899.1
804.3644	303.4246	2619.35	1868.2
804.5074	305.6334	2592.6	1840.45
804.6503	307.8418	2576.65	1818.25
804.7933	310.0495	2548.6	1787.85
804.9363	312.2568	2516.1	1758.55
805.0793	314.4635	2471.45	1707.55
805.2223	316.6696	2429.6	1668
805.3653	318.8752	2379.85	1606.25
805.5084	321.0802	2355.45	1589.6
805.6514	323.2847	2361.6	1594.1
805.7945	325.4887	2368.25	1599.5
805.9376	327.692	2384.5	1613.2
806.0807	329.8949	2415.25	1645.7
806.2238	332.0972	2444.6	1673.5
806.367	334.2989	2474.75	1699.7
806.5101	336.5001	2469.5	1690.65
806.6533	338.7007	2439.35	1662.35
806.7965	340.9008	2399.2	1622.8
806.9397	343.1003	2338.35	1561.8
807.0829	345.2992	2303.3	1524.55
807.2261	347.4976	2267.65	1488.55
807.3693	349.6955	2230.15	1448.3
807.5126	351.8927	2224.05	1438.65
807.6559	354.0895	2214.9	1419.5
807.7991	356.2856	2195.1	1407.55
807.9424	358.4812	2182.65	1398.9
808.0857	360.6763	2184.95	1391.8
808.2291	362.8707	2177.15	1386.75
808.3724	365.0646	2196.4	1400.25
808.5158	367.258	2189.9	1394.05
808.6591	369.4508	2213	1414.7
808.8025	371.643	2233	1431.65
808.9459	373.8346	2262.15	1461.35
809.0893	376.0257	2290.5	1485.95
809.2327	378.2162	2316.05	1515.2
809.3762	380.4062	2329.05	1527.4
809.5196	382.5956	2287.55	1490.75
809.6631	384.7844	2259.6	1468.3
809.8066	386.9726	2229.3	1435.5
809.9501	389.1603	2193	1402.8
810.0936	391.3474	2210.25	1381.9
810.2371	393.5339	2180.2	1382.1
810.3806	395.7199	2186.2	1391.9
810.5241	397.9052	2224.65	1426.2
810.6677	400.09	2263.8	1468.35
810.8113	402.2743	2299.55	1504.25
810.9548	404.4579	2336.65	1540.4
811.0984	406.641	2377.15	1574.4
811.2421	408.8235	2423.4	1628.05
811.3857	411.0054	2471.6	1668.5
811.5293	413.1868	2525.8	1718.7
811.673	415.3675	2589.05	1778.4
811.8166	417.5477	2584.55	1772.25
811.9603	419.7273	2519.8	1707.75
812.104	421.9064	2441.5	1620.55
812.2477	424.0848	2369.4	1554
812.3914	426.2627	2317	1501.35
812.5351	428.4399	2267.95	1451.15
812.6788	430.6166	2219.45	1397.55
812.8226	432.7928	2175.35	1351.7
812.9663	434.9683	2136.05	1319.4
813.1101	437.1432	2109.6	1292.8
813.2539	439.3176	2081.9	1266.45
813.3977	441.4914	2074.4	1259.3
813.5415	443.6645	2072.45	1252.95
813.6853	445.8371	2075.75	1256.05
813.8291	448.0091	2079	1260.65
813.973	450.1806	2068.55	1249
814.1168	452.3514	2065.55	1245.85
814.2607	454.5216	2068.95	1237.3
814.4046	456.6913	2064.8	1241.85
814.5485	458.8603	2075.8	1254.9
814.6924	461.0288	2076.55	1258.75
814.8363	463.1967	2066.4	1250.3
814.9802	465.3639	2064.4	1242.05
815.1241	467.5306	2061.65	1237.4
815.2681	469.6967	2066.95	1243.05
815.412	471.8622	2056.35	1233.65
815.556	474.0271	2046.9	1224.1
815.7	476.1914	2046.55	1220.4
815.844	478.3551	2048.65	1223.65
815.988	480.5182	2047.55	1224.3
816.132	482.6807	2056.35	1232.85
816.276	484.8426	2072.2	1250.3
816.4201	487.0039	2101	1278.15
816.5641	489.1647	2156.95	1331.9
816.7082	491.3248	2203	1375.6
816.8522	493.4843	2215.3	1388.1
816.9963	495.6432	2204.25	1379.15
817.1404	497.8015	2174.45	1340.35
817.2845	499.9592	2145.5	1313.15
817.4286	502.1163	2086	1251.25
817.5727	504.2728	2048.2	1215.1
817.7168	506.4287	2013.9	1186.3
817.861	508.5839	1999.85	1170.8
818.0051	510.7386	2003.3	1171.25
818.1493	512.8927	2007.7	1172.35
818.2935	515.0461	2022.1	1185.9
818.4377	517.199	2035.1	1201.45
818.5818	519.3512	2073.1	1233.95
818.726	521.5029	2144.45	1303.9
818.8703	523.6539	2190.6	1353.95
819.0145	525.8043	2198.5	1358.95
819.1587	527.9541	2142.25	1300.2
819.303	530.1033	2078.7	1239.2
819.4472	532.2519	2037.25	1197.45
819.5915	534.3999	2017.55	1176.45
819.7357	536.5472	2001.6	1159.15
819.88	538.694	2002.05	1161.95
820.0243	540.8401	2021	1179.35
820.1686	542.9856	2045.4	1201.65
820.3129	545.1305	2058	1209.5
820.4572	547.2748	2078.3	1229.05
820.6016	549.4185	2091.7	1242.2
820.7459	551.5615	2089.6	1243.35
820.8902	553.704	2102.9	1255.9
821.0346	555.8458	2126.6	1280.3
821.1789	557.987	2146.5	1302.6
821.3233	560.1276	2160.8	1316.8
821.4677	562.2675	2213.05	1364.55
821.6121	564.4069	2267.3	1419.3
821.7565	566.5456	2308.05	1461.75
821.9009	568.6837	2302.2	1453.75
822.0453	570.8212	2229.7	1381.3
822.1897	572.958	2165.85	1315.1
822.3342	575.0942	2098.7	1250.1
822.4786	577.2299	2065.4	1216.5
822.6231	579.3648	2046.8	1203.75
822.7675	581.4992	2022.3	1182.15
822.912	583.6329	2037.5	1198.7
823.0565	585.766	2071.75	1234.3
823.201	587.8985	2115.2	1272.35
823.3454	590.0304	2158.85	1299.85
823.4899	592.1616	2181.3	1326.75
823.6345	594.2922	2166.1	1314.35
823.779	596.4222	2133.35	1279.55
823.9235	598.5515	2075.65	1222.9
824.068	600.6802	2033.6	1177.95
824.2126	602.8083	1999.65	1145.3
824.3571	604.9358	1990.3	1136.1
824.5017	607.0626	1984.3	1131.15
824.6462	609.1888	2002.45	1141.95
824.7908	611.3144	2023	1161.8
824.9354	613.4393	2070.45	1211.25
825.08	615.5636	2112.85	1254
825.2246	617.6873	2151.8	1296.25
825.3692	619.8103	2191.15	1330.45
825.5138	621.9327	2168	1307.2
825.6584	624.0544	2135.5	1277.95
825.803	626.1756	2082.7	1228.15
825.9477	628.2961	2040.4	1181.5
826.0923	630.4159	2028.1	1169.15
826.237	632.5351	2015.35	1156.2
826.3816	634.6537	2012.15	1151.2
826.5263	636.7716	1996.5	1130.25
826.6709	638.8889	1990.3	1124.05
826.8156	641.0056	1989.5	1123.3
826.9603	643.1216	1999.45	1133.2
827.105	645.237	2002.3	1136.3
827.2497	647.3518	1980.3	1121.4
827.3944	649.4659	1964.6	1100.55
827.5391	651.5793	1950.65	1088.95
827.6838	653.6922	1932	1070.5
827.8285	655.8043	1928.95	1065.35
827.9733	657.9159	1913.05	1050.85
828.118	660.0268	1905.95	1039.4
828.2627	662.137	1897.85	1032.2
828.4075	664.2466	1902.95	1033.75
828.5522	666.3556	1900.85	1033.85
828.697	668.4639	1903.65	1034
828.8418	670.5716	1888.7	1024.3
828.9865	672.6786	1889.05	1020.9
829.1313	674.785	1885.2	1014.15
829.2761	676.8907	1884.15	1015.85
829.4209	678.9958	1871.7	1007
829.5657	681.1002	1871.75	1002.2
829.7105	683.204	1879.6	1006.25
829.8553	685.3072	1875.2	1003.35
830.0001	687.4097	1880.1	1009.7
830.1449	689.5115	1872.2	1000.4
830.2898	691.6127	1869.7	1001.55
830.4346	693.7132	1866.15	998.75
830.5794	695.8131	1893.35	1004.7
830.7243	697.9123	1883.45	1009.95
830.8691	700.0109	1885.25	1009.8
831.014	702.1089	1886.7	1013.55
831.1588	704.2061	1913.55	1041.5
831.3037	706.3028	1935	1055.95
831.4486	708.3987	1940.05	1067.45
831.5935	710.4941	1951	1079.85
831.7383	712.5887	1959.15	1085.15
831.8832	714.6827	1965.3	1088.9
832.0281	716.7761	1949.85	1078.75
832.173	718.8688	1947.05	1074.3
832.3179	720.9608	1957.05	1077.75
832.4628	723.0522	1970.1	1091.8
832.6077	725.1429	1997.55	1118.2
832.7527	727.233	2048.55	1172.2
832.8976	729.3224	2092.5	1214.8
833.0425	731.4112	2135.55	1254.2
833.1874	733.4993	2148.95	1270.4
833.3324	735.5867	2089.25	1213.95
833.4773	737.6735	2014.3	1136.75
833.6222	739.7596	1969.95	1093.1
833.7672	741.845	1952.75	1072.8
833.9122	743.9298	1946.45	1068.35
834.0571	746.014	1959.7	1083.1
834.2021	748.0974	1975.85	1094.1
834.347	750.1802	1957.65	1076.5
834.492	752.2624	1955.3	1075.65
834.637	754.3439	1933	1050.55
834.782	756.4247	1945.2	1055.5
834.9269	758.5048	1948.15	1067.05
835.0719	760.5843	1958.85	1077.65
835.2169	762.6631	1994.5	1113.35
835.3619	764.7413	2036.25	1154.9
835.5069	766.8188	2126.45	1244.3
835.6519	768.8956	2204.65	1320.65
835.7969	770.9718	2261.3	1382.3
835.9419	773.0473	2248.1	1366.1
836.0869	775.1221	2215.65	1331.9
836.232	777.1962	2208.7	1324.1
836.377	779.2697	2268.3	1386.7
836.522	781.3426	2370.8	1468.25
836.667	783.4147	2409.65	1523.8
836.8121	785.4862	2386.2	1504.95
836.9571	787.557	2295.45	1412
837.1021	789.6271	2179.1	1291.35
837.2472	791.6966	2078.75	1194.65
837.3922	793.7654	1989.7	1105.65
837.5373	795.8335	1936.4	1052.95
837.6823	797.901	1901.65	1018.6
837.8274	799.9678	1892.85	1006.2
837.9724	802.0339	1892.95	1007.85
838.1175	804.0993	1911.65	1014.1
838.2626	806.1641	1883.85	993.95
838.4076	808.2282	1862.15	977.1
838.5527	810.2916	1856.9	968.6
838.6978	812.3544	1834.05	948.8
838.8428	814.4164	1830.35	946.65
838.9879	816.4778	1843.55	953.35
839.133	818.5385	1862.85	975.05
839.2781	820.5986	1893.7	1005.4
839.4232	822.658	1942.7	1053.55
839.5682	824.7166	1994.75	1109.55
839.7133	826.7747	2084.65	1198.3
839.8584	828.832	2154.3	1267.15
840.0035	830.8886	2215.2	1324.1
840.1486	832.9446	2237.15	1347.75
840.2937	834.9999	2188.55	1303.8
840.4388	837.0545	2138.8	1248
840.5839	839.1085	2044.4	1156.2
840.729	841.1618	1988.8	1094.6
840.8741	843.2143	1930.85	1042.15
841.0192	845.2662	1897	1007.85
841.1643	847.3175	1886.15	995.15
841.3095	849.368	1876.95	987.35
841.4546	851.4179	1868.6	976.25
841.5997	853.467	1862.8	971.4
841.7448	855.5155	1871.35	979.25
841.8899	857.5633	1876.5	985.3
842.0351	859.6105	1870.55	978
842.1802	861.6569	1863	971
842.3253	863.7027	1853.75	961.9
842.4704	865.7478	1842.2	950.9
842.6156	867.7922	1832.15	938.55
842.7607	869.8359	1821.2	932.45
842.9058	871.8789	1822.95	929.6
843.0509	873.9212	1842.45	917.05
843.1961	875.9629	1822.3	927.95
843.3412	878.0039	1845.55	955.75
843.4863	880.0441	1858.95	969.75
843.6315	882.0837	1868.1	977.9
843.7766	884.1226	1891.35	1000.5
843.9218	886.1609	1923.85	1032.7
844.0669	888.1984	1971.15	1079.45
844.212	890.2352	2016.3	1123.7
844.3572	892.2714	2026.75	1130.05
844.5023	894.3069	1992.55	1098.6
844.6475	896.3416	1942.35	1046.5
844.7926	898.3757	1909.65	1016.8
844.9377	900.4091	1892.3	995.8
845.0829	902.4418	1897.4	995.45
845.228	904.4739	1906.65	1009
845.3732	906.5052	1917.75	1024.8
845.5183	908.5358	1906.65	1012.05
845.6635	910.5658	1883.45	986.2
845.8086	912.595	1856.95	962.85
845.9538	914.6236	1820.3	925.7
846.0989	916.6515	1797.85	902.8
846.2441	918.6786	1787.9	893.35
846.3892	920.7051	1771.8	871.85
846.5344	922.7309	1777.45	880.55
846.6795	924.756	1773.35	878.05
846.8246	926.7804	1771.75	872.5
846.9698	928.8041	1791.8	895.05
847.1149	930.8272	1812.6	918.3
847.2601	932.8495	1812.95	916.6
847.4052	934.8711	1822.25	922.85
847.5504	936.892	1831.35	935.15
847.6955	938.9123	1851.6	951.85
847.8407	940.9318	1865.4	969.5
847.9858	942.9506	1885.65	989.75
848.131	944.9688	1873.05	976.9
848.2761	946.9862	1839	944.85
848.4213	949.003	1811.25	914.35
848.5664	951.019	1788.8	893.05
848.7115	953.0344	1778.1	881.05
848.8567	955.0491	1761.05	863.9
849.0018	957.063	1755.35	858.6
849.147	959.0763	1749.15	851.05
849.2921	961.0888	1759.4	859.75
849.4373	963.1007	1748.75	851.45
849.5824	965.1119	1747.6	857.55
849.7275	967.1223	1739.85	849.35
849.8727	969.1321	1738.4	849.8
850.0178	971.1412	1736.65	845.1
850.1629	973.1495	1734.6	840.5
850.3081	975.1572	1756.5	827.8
850.4532	977.1641	1727	832.75
850.5983	979.1704	1732.55	832.55
850.7435	981.1759	1731.15	828.25
850.8886	983.1808	1721.75	821.15
851.0337	985.1849	1726.15	814.3
851.1788	987.1884	1724.65	824.4
851.324	989.1911	1727	825.6
851.4691	991.1932	1730.45	831.7
851.6142	993.1945	1723	821.95
851.7593	995.1951	1724.05	828.1
851.9045	997.1951	1737.1	833.85
852.0496	999.1943	1716.8	817.9
852.1947	1001.1928	1727.9	831.85
852.3398	1003.1906	1736.5	836.4
852.4849	1005.1877	1760.1	861.1
852.63	1007.1841	1782.7	883.15
852.7751	1009.1798	1781.95	881.5
852.9202	1011.1748	1778.55	880.15
853.0653	1013.1691	1757.6	855.9
853.2104	1015.1627	1736.5	838.4
853.3555	1017.1556	1697.1	798.05
853.5006	1019.1477	1683.75	783.7
853.6457	1021.1392	1667.05	774.05
853.7908	1023.1299	1663.05	770.3
853.9359	1025.12	1661.15	766.45
854.081	1027.1093	1665.5	778.35
854.2261	1029.0979	1673.5	787.1
854.3712	1031.0859	1700.3	812.45
854.5163	1033.0731	1707.15	814.2
854.6613	1035.0596	1712.35	816.5
854.8064	1037.0454	1702.35	807
854.9515	1039.0304	1693.9	795.75
855.0965	1041.0148	1673.3	776.7
855.2416	1042.9985	1651.55	750.4
855.3867	1044.9814	1640.05	741.85
855.5317	1046.9636	1645.65	746.15
855.6768	1048.9452	1653.35	755.55
855.8219	1050.926	1664.2	767.65
855.9669	1052.9061	1680.3	782.7
856.112	1054.8855	1679.95	780.1
856.257	1056.8642	1681.7	781.4
856.4021	1058.8421	1682.4	780.45
856.5471	1060.8194	1683.1	783.8
856.6921	1062.7959	1677.7	783
856.8372	1064.7717	1676.35	775.85
856.9822	1066.7469	1673.8	770.1
857.1272	1068.7213	1691.05	787.95
857.2723	1070.695	1691.7	793.3
857.4173	1072.6679	1717.8	818.6
857.5623	1074.6402	1727.95	826.15
857.7073	1076.6117	1744.15	841.4
857.8523	1078.5826	1717.45	815.75
857.9973	1080.5527	1681.9	780.25
858.1423	1082.5221	1658.55	757.8
858.2873	1084.4908	1631.75	732.45
858.4323	1086.4587	1616.9	715.1
858.5773	1088.426	1611.3	710.2
858.7223	1090.3925	1615.65	713.6
858.8673	1092.3584	1618.8	719.85
859.0123	1094.3235	1625.5	725.95
859.1573	1096.2879	1635.95	734.2
859.3022	1098.2515	1673.75	774.25
859.4472	1100.2145	1685.8	784.85
859.5922	1102.1767	1719.25	817.15
859.7371	1104.1382	1759.85	859.05
859.8821	1106.099	1817.55	915.8
860.027	1108.0591	1857.1	958.3
860.172	1110.0185	1892.55	989.4
860.3169	1111.9771	1925.25	1025
860.4619	1113.9351	1969.45	1071.25
860.6068	1115.8923	2029.95	1128.5
860.7517	1117.8488	2039.25	1136.35
860.8967	1119.8045	1979.45	1079.35
861.0416	1121.7596	1896.25	997.45
861.1865	1123.7139	1811.95	912.75
861.3314	1125.6675	1776.35	877.35
861.4763	1127.6204	1768	868.15
861.6212	1129.5726	1789.05	887.2
861.7661	1131.524	1783.55	883
861.911	1133.4748	1740.35	841.2
862.0559	1135.4248	1690.35	788.2
862.2008	1137.3741	1649.75	752.85
862.3457	1139.3226	1629.35	727.95
862.4905	1141.2705	1620.3	721.05
862.6354	1143.2176	1644.6	738.7
862.7803	1145.164	1647.4	743.45
862.9251	1147.1097	1640.6	740.25
863.07	1149.0546	1615.3	713.25
863.2148	1150.9989	1594.5	695.85
863.3597	1152.9424	1572.15	670.85
863.5045	1154.8852	1567.35	665.75
863.6493	1156.8272	1552.4	654.8
863.7942	1158.7686	1568.7	662.1
863.939	1160.7092	1557.65	654.6
864.0838	1162.6491	1567.25	663.6
864.2286	1164.5883	1585.9	685.15
864.3734	1166.5267	1601.8	701
864.5182	1168.4644	1620.4	720.7
864.663	1170.4014	1643.3	738.5
864.8078	1172.3377	1681	782.2
864.9526	1174.2732	1734.75	834.05
865.0974	1176.2081	1810.55	910.75
865.2421	1178.1421	1938.15	1032.3
865.3869	1180.0755	2038.75	1138.55
865.5317	1182.0082	2078.85	1180.8
865.6764	1183.9401	2037.55	1139.15
865.8212	1185.8713	1941.1	1045.45
865.9659	1187.8017	1835.8	939.9
866.1106	1189.7315	1748.8	855.85
866.2554	1191.6605	1697.25	778.25
866.4001	1193.5888	1644.15	749.35
866.5448	1195.5163	1622	722.85
866.6895	1197.4432	1606.4	706.8
866.8342	1199.3693	1585.15	686.7
866.9789	1201.2947	1577.7	673.75
867.1236	1203.2193	1564.75	664.35
867.2683	1205.1432	1567.2	667.05
867.413	1207.0664	1565.55	663.85
867.5576	1208.9889	1567.95	661.95
867.7023	1210.9106	1557	653.6
867.847	1212.8316	1567.55	666.75
867.9916	1214.7519	1589.65	681.55
868.1363	1216.6715	1592.2	692.9
868.2809	1218.5903	1610.95	712
868.4255	1220.5084	1618.15	717.55
868.5701	1222.4257	1636.55	734.85
868.7148	1224.3424	1630.25	731.85
868.8594	1226.2583	1665.85	760.65
869.004	1228.1735	1695.25	792.3
869.1486	1230.0879	1730.95	827.95
869.2932	1232.0016	1755.4	854.9
869.4377	1233.9146	1803.05	901.5
869.5823	1235.8269	1814.85	913.65
869.7269	1237.7384	1816.9	917.95
869.8715	1239.6492	1832.65	933.15
870.016	1241.5592	1849.1	947
870.1606	1243.4686	1892.8	992.45
870.3051	1245.3772	1958.5	1055.85
870.4496	1247.285	2033	1130.7
870.5941	1249.1922	2101.55	1199.95
870.7387	1251.0986	2179.8	1280.65
870.8832	1253.0042	2233	1333.6
871.0277	1254.9092	2307.9	1407.65
871.1722	1256.8134	2379.75	1481.95
871.3167	1258.7169	2448.05	1545.4
871.4611	1260.6196	2454.55	1556.6
871.6056	1262.5216	2453	1550.8
871.7501	1264.4229	2434.1	1534.1
871.8945	1266.3234	2415.75	1515.4
872.039	1268.2232	2381.75	1477.3
872.1834	1270.1223	2325.9	1423.9
872.3278	1272.0207	2289.35	1385.35
872.4723	1273.9183	2283.55	1375.9
872.6167	1275.8151	2285.4	1384.65
872.7611	1277.7113	2326.25	1424.45
872.9055	1279.6067	2402.4	1502.55
873.0499	1281.5014	2543.1	1638.65
873.1943	1283.3953	2697.6	1793.05
873.3386	1285.2885	2835.65	1933.25
873.483	1287.181	2949.9	2046.9
873.6274	1289.0727	2986.9	2086.85
873.7717	1290.9637	2941.1	2041.85
873.9161	1292.854	2877.4	1976.35
874.0604	1294.7435	2777.4	1877.2
874.2047	1296.6323	2706.15	1805.1
874.349	1298.5204	2618.7	1715.15
874.4933	1300.4077	2551.25	1650.65
874.6376	1302.2943	2511.15	1611.1
874.7819	1304.1802	2474.25	1573.7
874.9262	1306.0653	2445.15	1542.4
875.0705	1307.9497	2418.55	1518.7
875.2147	1309.8333	2381.8	1480.65
875.359	1311.7162	2347.25	1445.85
875.5032	1313.5984	2316.75	1411.4
875.6475	1315.4798	2294.85	1382
875.7917	1317.3605	2289.4	1383.6
875.9359	1319.2405	2278.9	1377.25
876.0801	1321.1197	2236.75	1332.35
876.2243	1322.9982	2178.95	1273.4
876.3685	1324.876	2103.45	1203.1
876.5127	1326.753	2032.25	1130.25
876.6569	1328.6293	1960.6	1058.75
876.801	1330.5048	1880.05	976.75
876.9452	1332.3796	1822.55	923.25
877.0893	1334.2537	1803.4	876.7
877.2335	1336.127	1738.45	837.95
877.3776	1337.9996	1731.55	833.95
877.5217	1339.8714	1709.7	807.55
877.6658	1341.7426	1740.65	796
877.8099	1343.6129	1695	795.1
877.954	1345.4826	1672.4	769.15
878.0981	1347.3515	1672.7	768.6
878.2422	1349.2196	1646.45	742.8
878.3862	1351.087	1641.75	739.8
878.5303	1352.9537	1641.85	738.05
878.6743	1354.8197	1642.7	739.6
878.8184	1356.6849	1653.95	754
878.9624	1358.5493	1667.05	764.15
879.1064	1360.4131	1693.05	793
879.2504	1362.276	1726.55	826.85
879.3944	1364.1383	1758.05	856.6
879.5384	1365.9998	1769.65	863.85
879.6823	1367.8606	1747.8	844.2
879.8263	1369.7206	1733.4	831.2
879.9702	1371.5799	1742.6	836.7
880.1142	1373.4384	1730.05	826.9
880.2581	1375.2962	1703.6	801.75
880.402	1377.1533	1649.4	750.55
880.5459	1379.0096	1608.9	709
880.6898	1380.8652	1573.85	674.95
880.8337	1382.7201	1557.1	656.75
880.9776	1384.5742	1536	634.15
881.1215	1386.4275	1518.65	613.9
881.2653	1388.2802	1508	608.15
881.4092	1390.132	1487	585.5
881.553	1391.9832	1490.6	583.7
881.6968	1393.8336	1473.25	569.8
881.8406	1395.6832	1476	572.75
881.9844	1397.5322	1461.95	559.25
882.1282	1399.3803	1454.4	550.45
882.272	1401.2278	1441.65	539.35
882.4158	1403.0745	1435.05	534.55
882.5595	1404.9204	1426.95	527.2
882.7033	1406.7656	1431	531.7
882.847	1408.6101	1422.75	522.75
882.9908	1410.4538	1423.5	522.05
883.1345	1412.2968	1429.2	529.05
883.2782	1414.139	1420.2	521.35
883.4219	1415.9805	1432.15	530.25
883.5656	1417.8213	1439.8	532.05
883.7092	1419.6613	1449.3	548.3
883.8529	1421.5006	1482.45	580.8
883.9965	1423.3391	1503.55	602.8
884.1402	1425.1769	1558.7	656.6
884.2838	1427.0139	1630.6	728.6
884.4274	1428.8502	1699.25	795.85
884.571	1430.6858	1753.35	851.9
884.7146	1432.5206	1779.65	879
884.8582	1434.3547	1776.1	876.4
885.0018	1436.188	1751.6	854.6
885.1453	1438.0206	1738.75	836.95
885.2889	1439.8524	1731.85	828.45
885.4324	1441.6835	1731.05	827.95
885.5759	1443.5139	1737.9	832.95
885.7194	1445.3435	1738.9	838.6
885.8629	1447.1724	1729.35	830.05
886.0064	1449.0005	1727.65	830.4
886.1499	1450.8279	1727.95	826.8
886.2933	1452.6545	1719.1	818.25
886.4368	1454.4804	1716.95	820.6
886.5802	1456.3056	1721.25	815.1
886.7237	1458.13	1697.85	797.95
886.8671	1459.9536	1679.2	776.45
887.0105	1461.7766	1637.15	737.1
887.1539	1463.5987	1608.7	708.4
887.2972	1465.4202	1567.85	667.7
887.4406	1467.2409	1539.4	637.8
887.584	1469.0608	1511.4	612
887.7273	1470.88	1487.8	586.25
887.8706	1472.6984	1466.35	564.55
888.0139	1474.5161	1453.3	551.7
888.1572	1476.3331	1432.75	532.75
888.3005	1478.1493	1414.85	511
888.4438	1479.9648	1417.7	518.7
888.5871	1481.7795	1411.75	512.35
888.7303	1483.5935	1416.9	519.55
888.8736	1485.4067	1418.55	518.25
889.0168	1487.2192	1423.2	522.95
889.16	1489.031	1428.65	528.25
889.3032	1490.842	1412.35	512.8
889.4464	1492.6522	1413.25	515.1
889.5896	1494.4618	1410	509.15
889.7327	1496.2705	1404.8	504.7
889.8759	1498.0785	1398.25	498
890.019	1499.8858	1397.4	497.25
890.1622	1501.6924	1386.4	487.35
890.3053	1503.4981	1384.05	484.65
890.4484	1505.3032	1377.6	477.15
890.5914	1507.1075	1379.3	479.75
890.7345	1508.911	1369.25	469.05
890.8776	1510.7138	1361.55	461.25
891.0206	1512.5159	1353.9	453.2
891.1637	1514.3172	1349.55	450.55
891.3067	1516.1178	1345.45	446.95
891.4497	1517.9176	1341.05	438.4
891.5927	1519.7166	1331.35	431.7
891.7357	1521.515	1327.35	420.4
891.8786	1523.3126	1326.3	425.95
892.0216	1525.1094	1330.85	429.8
892.1645	1526.9055	1319	419
892.3074	1528.7008	1308.55	412.15
892.4503	1530.4954	1323.9	417.2
892.5932	1532.2893	1307.25	410.5
892.7361	1534.0824	1311.1	408.45
892.879	1535.8747	1302.6	405.45
893.0218	1537.6663	1298.4	403.4
893.1647	1539.4572	1307.35	408.7
893.3075	1541.2473	1302.4	402.75
893.4503	1543.0367	1304.4	408.5
893.5931	1544.8253	1311.65	408.15
893.7359	1546.6132	1315.45	414.6
893.8787	1548.4003	1327.15	419.65
894.0214	1550.1867	1332.65	426.95
894.1642	1551.9723	1329.75	430.45
894.3069	1553.7572	1342.95	444.4
894.4496	1555.5414	1359.4	461.85
894.5923	1557.3247	1385.05	489.5
894.735	1559.1074	1412.7	519.75
894.8777	1560.8893	1446.55	551.85
895.0204	1562.6705	1476.8	582.85
895.163	1564.4509	1498.55	604.45
895.3056	1566.2305	1499.35	604.65
895.4482	1568.0094	1503.45	611
895.5908	1569.7876	1495	600.45
895.7334	1571.565	1492.15	596
895.876	1573.3417	1495.2	600.8
896.0186	1575.1176	1498.7	601.95
896.1611	1576.8928	1508.4	614.4
896.3036	1578.6672	1521.75	629.95
896.4461	1580.4409	1549.25	660
896.5886	1582.2138	1577.05	681.8
896.7311	1583.986	1606.2	712.2
896.8736	1585.7575	1649.55	756.9
897.0161	1587.5282	1656.05	765.9
897.1585	1589.2981	1672.55	780.9
897.3009	1591.0673	1694.85	804.2
897.4433	1592.8358	1705.85	813.7
897.5857	1594.6035	1712	817.75
897.7281	1596.3704	1696.1	801.35
897.8705	1598.1366	1685.55	791.75
898.0128	1599.9021	1673.45	782
898.1551	1601.6668	1652.25	757.2
898.2975	1603.4308	1647.9	753.95
898.4398	1605.194	1661.55	764.2
898.5821	1606.9564	1679.2	788.5
898.7243	1608.7182	1727.9	836.3
898.8666	1610.4791	1792.95	905.5
899.0088	1612.2394	1878.95	992.45
899.1511	1613.9988	1952.5	1064.5
899.2933	1615.7576	1996.3	1108.2
899.4355	1617.5156	2027.6	1130.85
899.5776	1619.2728	1982.4	1086.5
899.7198	1621.0293	1909.15	1016.7
899.862	1622.785	1810.85	915.8
900.0041	1624.54	1709.65	816.55
900.1462	1626.2942	1613.55	723.75
900.2883	1628.0477	1536	643.7
900.4304	1629.8005	1480.55	586.5
900.5725	1631.5525	1420.25	529.7
900.7145	1633.3037	1375.1	484.5
900.8566	1635.0542	1348.6	458.3
900.9986	1636.804	1323.6	433.05
901.1406	1638.553	1367.45	405.65
901.2826	1640.3013	1280.8	391.3
901.4245	1642.0488	1269.35	376.85
901.5665	1643.7955	1255.9	364.35
901.7085	1645.5416	1242.05	353.1
901.8504	1647.2868	1240.45	350.15
901.9923	1649.0313	1235.4	345.5
902.1342	1650.7751	1228.4	335.6
902.2761	1652.5181	1226.8	336.45
902.4179	1654.2604	1224.5	334.6
902.5598	1656.0019	1233.3	343.6
902.7016	1657.7427	1240.3	348.35
902.8434	1659.4828	1261.4	368.8
902.9852	1661.222	1293.2	400.5
903.127	1662.9606	1313.35	422.8
903.2687	1664.6984	1330.7	437.5
903.4105	1666.4354	1334.45	441.6
903.5522	1668.1717	1303.65	411.45
903.6939	1669.9072	1273	378.75
903.8356	1671.642	1245.75	348.75
903.9773	1673.3761	1208.3	317.5
904.119	1675.1094	1189.8	295.1
904.2606	1676.8419	1172.3	280.75
904.4022	1678.5737	1165.15	272.6
904.5439	1680.3048	1155.8	262.35
904.6855	1682.0351	1151.75	259
904.827	1683.7646	1144.45	250
904.9686	1685.4934	1130.6	238
905.1101	1687.2215	1133.1	240.75
905.2517	1688.9488	1129.6	237.6
905.3932	1690.6754	1125.5	234.35
905.5347	1692.4012	1127.5	234.55
905.6761	1694.1263	1123.3	230.95
905.8176	1695.8506	1127.1	234.45
905.9591	1697.5742	1117.1	226.1
906.1005	1699.297	1110.15	220.75
906.2419	1701.0191	1113.7	225.4
906.3833	1702.7404	1112.75	223.5
906.5246	1704.461	1109.9	216.4
906.666	1706.1808	1103.2	210.35
906.8073	1707.8999	1103.65	212.8
906.9487	1709.6182	1103.7	216.8
907.09	1711.3358	1099.35	212.2
907.2313	1713.0527	1092.75	205.65
907.3725	1714.7688	1106.4	212.75
907.5138	1716.4841	1096.9	206.8
907.655	1718.1987	1099.35	203.85
907.7962	1719.9126	1090.85	203.7
907.9374	1721.6257	1085.4	194.25
908.0786	1723.338	1089.8	204.3
908.2198	1725.0496	1092.2	202.85
908.3609	1726.7605	1096.9	207.4
908.502	1728.4706	1088.8	201.1
908.6431	1730.18	1087.1	195.5
908.7842	1731.8886	1087.7	199.75
908.9253	1733.5964	1110.7	201.95
909.0664	1735.3036	1091.7	197.25
909.2074	1737.0099	1085.05	195.9
909.3484	1738.7156	1084.1	199.25
909.4894	1740.4204	1082.75	191.65
909.6304	1742.1246	1083.25	192.15
909.7714	1743.8279	1086.45	198.15
909.9123	1745.5306	1081.95	192.7
910.0532	1747.2325	1079.5	190.9
910.1941	1748.9336	1084.1	194.85
910.335	1750.634	1087.5	196.75
910.4759	1752.3336	1076.7	188.5
910.6168	1754.0325	1076.35	190.7
910.7576	1755.7307	1080.6	189.9
910.8984	1757.4281	1080.6	191.1
911.0392	1759.1247	1093.4	196.8
911.18	1760.8206	1085.65	190.35
911.3208	1762.5158	1082.25	188.35
911.4615	1764.2102	1082.25	193.75
911.6022	1765.9039	1078	189.1
911.7429	1767.5968	1080.15	192.65
911.8836	1769.289	1071.3	183.65
912.0243	1770.9804	1076.3	186.15
912.1649	1772.6711	1074.85	183.15
912.3056	1774.361	1075.3	184.35
912.4462	1776.0502	1077.9	187.3
912.5868	1777.7386	1078.9	187.45
912.7274	1779.4263	1072.4	181.6
912.8679	1781.1132	1070.15	182.7
913.0084	1782.7994	1069.95	181
913.149	1784.4849	1072.7	184.6
913.2895	1786.1696	1082.8	175.05
913.4299	1787.8535	1070.55	181.8
913.5704	1789.5367	1067.25	180.5
913.7108	1791.2192	1071.7	184.6
913.8513	1792.9009	1090.15	175.15
913.9917	1794.5818	1069.2	178
914.132	1796.2621	1067.9	180.15
914.2724	1797.9415	1065.7	176.95
914.4128	1799.6202	1067.95	177.8
914.5531	1801.2982	1063.25	172.6
914.6934	1802.9755	1067.3	175.2
914.8337	1804.6519	1063.55	171.95
914.9739	1806.3277	1061.8	173.85
915.1142	1808.0027	1061.55	176.65
915.2544	1809.6769	1056	170.3
915.3946	1811.3504	1056.85	169.4
915.5348	1813.0231	1057.25	170.15
915.675	1814.6951	1056.75	170.8
915.8151	1816.3664	1062	175.15
915.9553	1818.0369	1061.3	173.05
916.0954	1819.7067	1060.85	173.05
916.2355	1821.3757	1067.25	175.65
916.3755	1823.044	1059.4	170.25
916.5156	1824.7115	1059.8	167.3
916.6556	1826.3783	1056.6	166.85
916.7956	1828.0443	1054.2	165.75
916.9356	1829.7096	1059.7	169.9
917.0756	1831.3741	1057.8	168
917.2155	1833.0379	1053.45	166.5
917.3555	1834.701	1051.8	163.85
917.4954	1836.3633	1051.2	164.75
917.6353	1838.0248	1053.15	163.05
917.7751	1839.6856	1054.2	166.3
917.915	1841.3457	1051.35	165.1
918.0548	1843.005	1052.15	163
918.1946	1844.6636	1052.25	164.5
918.3344	1846.3214	1056.55	167.7
918.4742	1847.9785	1053.1	165.15
918.6139	1849.6349	1051.55	159.7
918.7537	1851.2904	1063.05	164.1
918.8934	1852.9453	1052.25	161.8
919.0331	1854.5994	1055.5	163.45
919.1727	1856.2528	1058.9	164
919.3124	1857.9054	1049.1	159.4
919.452	1859.5572	1046.65	159.95
919.5916	1861.2083	1049.45	160.3
919.7312	1862.8587	1047.5	158.2
919.8708	1864.5084	1050.6	159.15
920.0103	1866.1572	1048.2	157.7
920.1498	1867.8054	1054.9	163.7
920.2893	1869.4528	1051.4	161.4
920.4288	1871.0994	1047.5	155.65
920.5683	1872.7453	1047.5	157.05
920.7077	1874.3905	1056.05	157.6
920.8471	1876.0349	1045.45	155.5
920.9865	1877.6786	1046.8	154.65
921.1259	1879.3215	1042.9	154.9
921.2653	1880.9637	1045.35	154.8
921.4046	1882.6051	1043.3	154.95
921.5439	1884.2458	1043.2	152.3
921.6832	1885.8858	1043.1	154.45
921.8225	1887.525	1039.95	151.35
921.9617	1889.1634	1046	156.7
922.101	1890.8011	1044.75	152.4
922.2402	1892.4381	1040.7	150.7
922.3794	1894.0743	1039.05	151
922.5185	1895.7098	1041.1	151.05
922.6577	1897.3446	1042.65	154.55
922.7968	1898.9786	1043.25	150.3
922.9359	1900.6118	1040.15	150.55
923.075	1902.2443	1042.2	150.4
923.214	1903.8761	1037.85	150.05
923.3531	1905.5071	1036.4	147.45
923.4921	1907.1374	1038.25	147.2
923.6311	1908.7669	1036.65	146.75
923.77	1910.3957	1034.05	144.4
923.909	1912.0237	1034.9	146.65
924.0479	1913.651	1037.75	147.7
924.1868	1915.2776	1031.6	143.7
924.3257	1916.9034	1035.6	149
924.4646	1918.5285	1031.1	143.15
924.6034	1920.1528	1031.9	141.1
924.7422	1921.7764	1031.9	145.05
924.881	1923.3992	1031.7	142.2
925.0198	1925.0213	1032.5	144.15
925.1586	1926.6427	1028.3	141
925.2973	1928.2633	1239.35	133.35
925.436	1929.8832	1036.45	144.2
925.5747	1931.5023	1031.35	141.95
925.7134	1933.1207	1029.4	141.6
925.852	1934.7383	1029.4	139.85
925.9906	1936.3552	1029.55	141.6
926.1292	1937.9714	1031.6	142.2
926.2678	1939.5868	1028.8	137.05
926.4064	1941.2015	1029.9	141.35
926.5449	1942.8154	1028.65	139.9
926.6834	1944.4286	1029.05	138.8
926.8219	1946.041	1049.9	136.6
926.9604	1947.6528	1030	136.35
927.0988	1949.2637	1024.5	137.8
927.2372	1950.8739	1025.9	135.8
927.3756	1952.4834	1020.25	131.7
927.514	1954.0921	1025.1	136.85
927.6523	1955.7001	1023.9	132.3
927.7907	1957.3074	1020.85	134.9
927.929	1958.9139	1019	133.15
928.0673	1960.5197	1022.95	135.5
928.2055	1962.1247	1018.1	131.45
928.3438	1963.729	1015.2	129.05
928.482	1965.3325	1023.65	132.25
928.6202	1966.9353	1022.15	139.55
928.7584	1968.5374	1015.35	126.6
928.8965	1970.1387	1024.2	141.15
929.0346	1971.7393	1019.75	132.5
929.1727	1973.3392	1017.2	131.85
929.3108	1974.9383	1013	127.5
929.4489	1976.5366	1015.2	132.55
929.5869	1978.1342	1016.85	130
929.7249	1979.7311	1016.9	131.9
929.8629	1981.3273	1014.35	130.05
930.0009	1982.9227	1013.6	127.45
930.1388	1984.5173	1008.95	126.5
930.2767	1986.1112	1014.55	129.4
930.4146	1987.7044	1013.3	129.35
930.5525	1989.2968	1011.15	126.45
930.6904	1990.8885	1015.8	129.95
930.8282	1992.4795	1014.25	130.1
930.966	1994.0697	1013.6	132.2
931.1038	1995.6592	1013.2	130.55
931.2415	1997.2479	1007.15	124.3
931.3793	1998.8359	1010.05	128.4
931.517	2000.4232	1007.75	125.35
931.6547	2002.0097	1005.45	126.75
931.7923	2003.5955	1004.65	120.95
931.93	2005.1805	1010.1	125.35
932.0676	2006.7648	1007.25	126
932.2052	2008.3484	1006.55	123
932.3427	2009.9312	1011	130.8
932.4803	2011.5133	1002.9	124.25
932.6178	2013.0946	1004.75	125.65
932.7553	2014.6752	1007.9	126.85
932.8928	2016.2551	1005.45	122.55
933.0302	2017.8342	1009.8	129.45
933.1676	2019.4126	1006.15	124.55
933.305	2020.9902	1000.3	119.75
933.4424	2022.5672	1004.7	121.5
933.5798	2024.1433	1006.55	123.65
933.7171	2025.7188	1001.1	122.4
933.8544	2027.2935	1002.75	122.85
933.9917	2028.8674	1004	124.15
934.129	2030.4406	1004.3	127
934.2662	2032.0131	1000.5	123.15
934.4034	2033.5849	1005.6	120.25
934.5406	2035.1559	1005.2	126
934.6778	2036.7261	998.95	119.15
934.8149	2038.2957	1005.75	124.1
934.952	2039.8645	1001.9	120.7
935.0891	2041.4325	1004.9	119.25
935.2262	2042.9998	999.95	121.15
935.3632	2044.5664	1002.25	122.2
935.5002	2046.1323	1001.25	123.2
935.6372	2047.6974	1003.25	124.65
935.7742	2049.2617	1001.3	121.8
935.9111	2050.8254	1005.8	119.25
936.048	2052.3883	1004.35	123.8
936.1849	2053.9504	1001.2	118.35
936.3218	2055.5118	1001.25	118.6
936.4586	2057.0725	1003.25	116.55
936.5955	2058.6325	1002.25	120.65
936.7323	2060.1917	1002.7	123.15
936.869	2061.7502	998.65	115.25
937.0058	2063.3079	996.35	118.15
937.1425	2064.8649	1003.35	119.05
937.2792	2066.4212	1002.9	123.45
937.4159	2067.9767	1001.85	119.95
937.5525	2069.5315	1001.35	118.7
937.6891	2071.0856	998.55	117.6
937.8257	2072.6389	999.85	119.25
937.9623	2074.1915	995.45	117.2
938.0989	2075.7433	997.8	116.1
938.2354	2077.2945	997.3	117.1
938.3719	2078.8448	1003.4	120
938.5084	2080.3945	1002.2	120.55
938.6448	2081.9434	1000.35	119.7
938.7812	2083.4916	999.65	116.4
938.9176	2085.039	1002.45	117.1
939.054	2086.5857	1004.55	118.2
939.1903	2088.1317	1004.2	120.05
939.3267	2089.677	1002.45	116.8
939.463	2091.2215	1001.7	117.7
939.5992	2092.7652	1001.7	112.6
939.7355	2094.3083	1000.9	116.4
939.8717	2095.8506	997.8	115.95
940.0079	2097.3921	1000.6	118.1
940.1441	2098.933	997.05	114
940.2802	2100.4731	998.85	117.35
940.4163	2102.0124	1019.05	118.3
940.5524	2103.5511	1000.9	117.85
940.6885	2105.089	1002.85	120.05
940.8245	2106.6261	1004.05	120.85
940.9606	2108.1626	998.75	114.1
941.0965	2109.6983	1028.25	115.95
941.2325	2111.2332	999.2	117.05
941.3684	2112.7675	1001.45	117.8
941.5044	2114.301	1000.9	117.3
941.6403	2115.8337	996.75	113.1
941.7761	2117.3657	1000.7	117.9
941.912	2118.897	999.5	115.8
942.0478	2120.4276	1004.95	115.65
942.1835	2121.9575	998.95	114.2
942.3193	2123.4866	1002.25	117
942.455	2125.0149	999.25	115.1
942.5907	2126.5426	997.15	116.2
942.7264	2128.0695	997.35	114.25
942.8621	2129.5956	991.95	114.5
942.9977	2131.1211	1001.75	116.9
943.1333	2132.6458	997.65	116.45
943.2689	2134.1698	994.1	110.6
943.4044	2135.693	1000.45	115.25
943.54	2137.2155	1000.25	112.2
943.6755	2138.7373	997.7	115.35
943.8109	2140.2584	991.65	110.75
943.9464	2141.7787	992.5	107.7
944.0818	2143.2983	993.05	116.25
944.2172	2144.8171	992.2	114.3
944.3526	2146.3353	997.8	116.25
944.4879	2147.8527	991.1	111.75
944.6232	2149.3693	992.6	109.35
944.7585	2150.8853	995.25	112.9
944.8938	2152.4005	998.6	115.45
945.029	2153.9149	996.85	112.6
945.1642	2155.4287	994.35	109.6
945.2994	2156.9417	990.7	106.75
945.4346	2158.454	995.4	110
945.5697	2159.9655	992.4	112.05
945.7048	2161.4764	991.7	111.85
945.8399	2162.9865	995	114.45
945.9749	2164.4958	991.7	110.65
946.1099	2166.0045	994.45	110.7
946.2449	2167.5124	990.85	109.65
946.3799	2169.0195	988.1	108.1
946.5148	2170.526	990.4	107.25
946.6498	2172.0317	992.4	110.45
946.7846	2173.5367	994.3	110.25
946.9195	2175.0409	991.6	108.95
947.0543	2176.5445	991.8	108.9
947.1891	2178.0473	993.25	109.8
947.3239	2179.5494	991.25	103.8
947.4587	2181.0507	991.95	109.25
947.5934	2182.5513	991.3	108.1
947.7281	2184.0512	991.2	108.5
947.8628	2185.5504	986.4	105.35
947.9974	2187.0488	990.05	109
948.132	2188.5465	983.75	103.05
948.2666	2190.0435	990.35	109.6
948.4012	2191.5397	988.45	105.35
948.5357	2193.0353	988	103.8
948.6702	2194.5301	994.55	110.85
948.8047	2196.0241	989.25	103.8
948.9392	2197.5175	993.35	109.7
949.0736	2199.0101	992.6	103.9
949.208	2200.502	988.6	106.1
949.3424	2201.9931	986.2	104.5
949.4767	2203.4835	988.4	105.1
949.611	2204.9733	1004.2	109.25
949.7453	2206.4622	985.05	104.9
949.8796	2207.9505	989.65	108.75
950.0138	2209.438	983.8	105.95
950.148	2210.9248	985	101.55
950.2822	2212.4109	985.9	105.6
950.4164	2213.8962	986.95	100.25
950.5505	2215.3809	987.65	102.65
950.6846	2216.8648	989.9	104.35
950.8186	2218.3479	991.95	102.5
950.9527	2219.8304	987.05	99.4
951.0867	2221.3121	991.9	104.3
951.2207	2222.7931	985.85	101.7
951.3546	2224.2733	984.1	100.15
951.4886	2225.7529	986.7	103.8
951.6225	2227.2317	987.35	102.1
951.7563	2228.7098	985.2	105.7
951.8902	2230.1872	981.45	99.5
952.024	2231.6638	981.65	99.65
952.1578	2233.1397	980.65	93.9
952.2916	2234.6149	980.8	101.05
952.4253	2236.0894	981.5	98
952.559	2237.5632	994.5	103.1
952.6927	2239.0362	982.6	100.5
952.8263	2240.5085	978.25	94.4
952.9599	2241.9801	984.5	103.75
953.0935	2243.4509	982.45	99.95
953.2271	2244.921	978.25	93.45
953.3606	2246.3904	982.25	96.95
953.4941	2247.8591	975.95	92.45
953.6276	2249.3271	980.1	98.5
953.7611	2250.7943	976.4	91.7
953.8945	2252.2608	982.5	99.8
954.0279	2253.7266	981.05	96.5
954.1612	2255.1917	976.9	97.35
954.2946	2256.656	975.2	91.1
954.4279	2258.1197	977.25	97.15
954.5612	2259.5826	977.85	95.75
954.6944	2261.0447	978	94.05
954.8276	2262.5062	979.55	95
954.9608	2263.9669	977.35	94.45
955.094	2265.4269	976.15	94.35
955.2271	2266.8862	974.65	93.3
955.3602	2268.3448	977.25	95.6
955.4933	2269.8026	975.65	92.3
955.6264	2271.2598	976.8	95.05
955.7594	2272.7162	974.45	91.95
955.8924	2274.1719	974.75	93.55
956.0253	2275.6268	980.05	96.55
956.1583	2277.0811	978.7	94.4
956.2912	2278.5346	975.45	96.55
956.4241	2279.9874	972.3	89.9
956.5569	2281.4395	975.7	94.65
956.6897	2282.8908	977.9	89.45
956.8225	2284.3414	976.7	94.75
956.9553	2285.7914	971.85	90.05
957.088	2287.2406	975.45	91.2
957.2207	2288.689	975.5	93
957.3534	2290.1368	975.2	90.1
957.486	2291.5838	975.2	87.9
957.6186	2293.0302	977.6	91.1
957.7512	2294.4758	976.5	91.7
957.8838	2295.9206	977.3	91.65
958.0163	2297.3648	975.4	91.75
958.1488	2298.8082	975.1	92.25
958.2813	2300.251	972.55	89
958.4137	2301.693	975.35	87.9
958.5461	2303.1343	974.35	89.95
958.6785	2304.5748	971.75	91.8
958.8108	2306.0147	975.6	94.15
958.9432	2307.4538	974.1	90.7
959.0754	2308.8922	967.3	87.4
959.2077	2310.3299	968.55	87.45
959.3399	2311.7669	973.35	91.95
959.4721	2313.2031	970.65	89
959.6043	2314.6387	972.6	90.8
959.7365	2316.0735	970.6	88.65
959.8686	2317.5076	972.15	88.15
960.0006	2318.941	972.85	91.1
960.1327	2320.3737	975.6	89.6
960.2647	2321.8056	973.45	86
960.3967	2323.2369	972.75	90.05
960.5287	2324.6674	974.7	90.45
960.6606	2326.0972	975.35	91.2
960.7925	2327.5263	984.7	102.05
960.9244	2328.9547	983	97.55
961.0562	2330.3823	978.7	93.15
961.1881	2331.8092	980.55	93.65
961.3198	2333.2355	972.7	90.05
961.4516	2334.661	973.15	90.05
961.5833	2336.0858	970.05	84.45
961.715	2337.5098	968.1	85
961.8467	2338.9332	969.85	85.8
961.9783	2340.3558	970.45	84.55
962.1099	2341.7778	966.7	84.15
962.2415	2343.199	967.45	82.1
962.373	2344.6195	966.25	83.3
962.5045	2346.0393	965.75	83.45
962.636	2347.4583	965.9	82.25
962.7675	2348.8767	972.3	88.8
962.8989	2350.2943	968.85	84.8
963.0303	2351.7113	970.2	82.8
963.1617	2353.1275	966.65	82.5
963.293	2354.543	989.35	79.25
963.4243	2355.9578	968.3	83.9
963.5556	2357.3718	963.3	81.2
963.6868	2358.7852	966.05	80.45
963.818	2360.1978	966.4	82.25
963.9492	2361.6098	964.1	80.3
964.0803	2363.021	969.3	79.85
964.2114	2364.4315	964.9	80.55
964.3425	2365.8413	972.25	83.15
964.4736	2367.2504	963.35	81.2
964.6046	2368.6587	959.3	76.55
964.7356	2370.0664	965.7	80.95
964.8666	2371.4733	964.35	80.1
964.9975	2372.8795	965.1	79.65
965.1284	2374.285	967.7	82.95
965.2593	2375.6899	961.2	77.05
965.3901	2377.0939	966.05	81.95
965.5209	2378.4973	961.8	79.55
965.6517	2379.9	962.35	78.4
965.7825	2381.3019	963.25	79.7
965.9132	2382.7032	958.75	76.1
966.0439	2384.1037	959.25	76.9
966.1745	2385.5035	957.25	75.35
966.3051	2386.9027	962.15	82.85
966.4357	2388.3011	965.45	80.95
966.5663	2389.6987	965.4	81.15
966.6968	2391.0957	960.7	75.3
966.8273	2392.492	957.05	74.85
966.9578	2393.8876	958.75	76.35
967.0882	2395.2824	959.35	72.2
967.2186	2396.6765	959.4	75.6
967.349	2398.07	959.25	74.6
967.4793	2399.4627	962.7	76.05
967.6097	2400.8547	963.6	79.3
967.7399	2402.246	967	74.6
967.8702	2403.6366	958.85	72.25
968.0004	2405.0265	958.3	73.6
968.1306	2406.4156	964.7	76.6
968.2607	2407.8041	961.5	73.8
968.3909	2409.1918	963	72.95
968.521	2410.5789	957.65	70.75
968.651	2411.9652	961.8	73.25
968.781	2413.3508	958.35	74.4
968.911	2414.7358	959.9	74.8
969.041	2416.12	956.7	72
969.1709	2417.5035	959.25	75.35
969.3008	2418.8863	959.3	71.5
969.4307	2420.2684	957.6	70.35
969.5606	2421.6497	959.35	72
969.6904	2423.0304	960.7	73.15
969.8201	2424.4104	960.3	74.7
969.9499	2425.7896	961	67.5
970.0796	2427.1682	957.9	74.35
970.2093	2428.546	957.75	71.85
970.3389	2429.9232	955.45	68
970.4685	2431.2996	953.95	67.05
970.5981	2432.6753	957.25	71.8
970.7277	2434.0503	957.55	73.05
970.8572	2435.4246	957.4	72.7
970.9867	2436.7982	961	72.7
971.1161	2438.1711	954.4	69.5
971.2456	2439.5433	958.65	72.6
971.375	2440.9148	955.75	69.45
971.5043	2442.2856	953.5	69.7
971.6336	2443.6557	953.4	67.5
971.7629	2445.025	954.05	70.45
971.8922	2446.3937	956.25	70.35
972.0214	2447.7617	953.65	69.4
972.1506	2449.1289	951.7	68.25
972.2798	2450.4955	953.4	66.35
972.4089	2451.8613	955.3	71.15
972.538	2453.2265	953.85	68.8
972.6671	2454.5909	950.45	64.95
972.7961	2455.9546	950.15	65.05
972.9251	2457.3177	949.95	65.5
973.0541	2458.68	951.9	65.95
973.1831	2460.0416	952.1	66.05
973.312	2461.4025	948.9	61.85
973.4408	2462.7627	959.45	63.45
973.5697	2464.1222	948.6	68.1
973.6985	2465.4811	950.5	65.6
973.8273	2466.8392	948.75	64.4
973.956	2468.1966	956.25	69.5
974.0847	2469.5533	955	69.1
974.2134	2470.9093	951.5	66.85
974.3421	2472.2645	949.1	64.1
974.4707	2473.6191	950.7	66.25
974.5993	2474.973	944.6	59.85
974.7278	2476.3262	949.35	60.2
974.8563	2477.6787	950	67.2
974.9848	2479.0305	948.55	65.85
975.1132	2480.3816	952.85	66.45
975.2417	2481.7319	949.5	66.45
975.37	2483.0816	948.45	62.65
975.4984	2484.4306	946.15	59.85
975.6267	2485.7789	945.05	64.75
975.755	2487.1264	947	61.55
975.8833	2488.4733	948.55	68.85
976.0115	2489.8195	965.15	65.85
976.1397	2491.165	951.35	66
976.2678	2492.5097	945.6	60.2
976.3959	2493.8538	945.65	62.35
976.524	2495.1972	945.95	62.15
976.6521	2496.5398	949.55	62.65
976.7801	2497.8818	947.7	62.65
976.9081	2499.2231	947.4	63.15
977.036	2500.5637	947.65	60.35
977.164	2501.9035	949.35	65.15
977.2918	2503.2427	951.45	59.75
977.4197	2504.5812	947.8	64
977.5475	2505.919	949.3	63.15
977.6753	2507.256	944.25	62.65
977.8031	2508.5924	946.2	62.45
977.9308	2509.9281	948.1	59.9
978.0585	2511.2631	943.75	60.35
978.1861	2512.5974	945.1	61.35
978.3137	2513.9309	943.15	59.05
978.4413	2515.2638	975	63.05
978.5689	2516.596	945.05	59.75
978.6964	2517.9275	943.25	58.45
978.8239	2519.2583	943.1	58.45
978.9513	2520.5884	944	60.15
979.0788	2521.9178	947	64.85
979.2062	2523.2465	942.6	59.7
979.3335	2524.5745	943.9	61.45
979.4608	2525.9018	943	58.3
979.5881	2527.2284	939.8	57.25
979.7154	2528.5543	940.2	57.25
979.8426	2529.8796	943.6	59.45
979.9698	2531.2041	941.3	56.8
980.0969	2532.5279	941.85	58.5
980.224	2533.851	940	56.75
980.3511	2535.1735	944.5	60.85
980.4781	2536.4952	941.5	54.6
980.6052	2537.8163	944.45	58.7
980.7321	2539.1366	942	57.55
980.8591	2540.4562	941.75	56.55
980.986	2541.7752	940	57.15
981.1129	2543.0935	946.25	62.65
981.2397	2544.411	942.05	57.3
981.3665	2545.7279	941.9	57.45
981.4933	2547.0441	940.85	55.7
981.62	2548.3596	944.8	59.2
981.7467	2549.6744	943.05	62.35
981.8734	2550.9885	950.65	59.55
982.0001	2552.3019	938.75	57.05
982.1267	2553.6146	939.5	54.3
982.2532	2554.9266	941.6	57
982.3798	2556.2379	938.9	51.35
982.5063	2557.5485	938.6	57.55
982.6327	2558.8585	948.25	56.95
982.7592	2560.1677	942.5	55.1
982.8856	2561.4762	939.7	54.1
983.0119	2562.7841	943	55.35
983.1383	2564.0913	938.4	56.9
983.2646	2565.3977	937.75	53.4
983.3908	2566.7035	937.7	53.1
983.517	2568.0086	941.9	57.85
983.6432	2569.313	941.15	56.8
983.7694	2570.6167	942.45	53.55
983.8955	2571.9197	940.3	55.55
984.0216	2573.222	943.6	55.45
984.1476	2574.5236	937.95	54.2
984.2737	2575.8246	944.4	57.85
984.3996	2577.1248	941.5	55.8
984.5256	2578.4244	937.55	53.35
984.6515	2579.7232	939.3	55.35
984.7774	2581.0214	964.95	55.05
984.9032	2582.3189	938.8	56.25
985.029	2583.6157	944.9	55.95
985.1548	2584.9118	942.9	58.35
985.2806	2586.2072	939.6	55.55
985.4063	2587.5019	941.8	56.65
985.5319	2588.7959	940.8	55
985.6576	2590.0893	940.8	55.35
985.7832	2591.3819	939.9	56.15
985.9087	2592.6739	937	56.35
986.0343	2593.9652	939.2	52.4
986.1597	2595.2557	936.8	52.6
986.2852	2596.5456	940.35	54.25
986.4106	2597.8348	936.7	55.25
986.536	2599.1234	936.45	54.6
986.6614	2600.4112	937.55	54.15
986.7867	2601.6983	941.15	53.95
986.912	2602.9848	936.2	51.45
987.0372	2604.2705	945	51.9
987.1624	2605.5556	938.1	52.1
987.2876	2606.84	936.35	51.5
987.4128	2608.1237	939.2	54.4
987.5379	2609.4067	937.7	54.8
987.6629	2610.689	944.4	51
987.788	2611.9707	938.85	51.35
987.913	2613.2516	941.05	53.2
988.0379	2614.5319	935.3	49.2
988.1629	2615.8115	937.8	54.75
988.2878	2617.0903	938.1	54.1
988.4126	2618.3685	935.35	51.65
988.5375	2619.6461	935.15	50.65
988.6622	2620.9229	932.85	48.45
988.787	2622.199	932.3	47.35
988.9117	2623.4745	932.45	49.25
989.0364	2624.7493	933.75	49.9
989.161	2626.0234	932.1	48.35
989.2857	2627.2968	935.75	52.35
989.4102	2628.5695	934.05	46.45
989.5348	2629.8415	934.05	51.05
989.6593	2631.1128	937.65	53.85
989.7837	2632.3835	931.5	46.15
989.9082	2633.6535	934.05	51.15
990.0326	2634.9228	932.85	48.65
990.1569	2636.1914	932.25	47.95
990.2812	2637.4593	937.7	48.25
990.4055	2638.7265	934.15	49.6
990.5298	2639.9931	932.6	50.85
990.654	2641.259	933.4	48.75
990.7782	2642.5242	931.6	47.6
990.9023	2643.7887	931.75	47.95
991.0264	2645.0525	929.2	44.7
991.1505	2646.3156	932.1	50.1
991.2745	2647.5781	931.35	48.25
991.3985	2648.8398	927.65	45.15
991.5225	2650.1009	940.4	47.85
991.6464	2651.3613	932.05	49.5
991.7703	2652.6211	930.8	48.05
991.8942	2653.8801	927.55	45.75
992.018	2655.1385	933.55	47.65
992.1418	2656.3961	928.15	45.5
992.2655	2657.6531	925.85	43.55
992.3892	2658.9094	931.45	47.95
992.5129	2660.1651	926.8	43.4
992.6366	2661.42	929.15	46.25
992.7602	2662.6743	928.2	43.5
992.8837	2663.9279	928.4	47.65
993.0073	2665.1808	930.15	47.25
993.1307	2666.433	929.8	45.2
993.2542	2667.6846	926.95	43.7
993.3776	2668.9354	934.5	47.4
993.501	2670.1856	928.75	44.7
993.6244	2671.4351	928.05	46.15
993.7477	2672.6839	933.95	50.6
993.8709	2673.9321	929.65	45.05
993.9942	2675.1795	930.5	47.1
994.1174	2676.4263	928.9	46.05
994.2405	2677.6724	929.3	47.2
994.3637	2678.9179	930	46.15
994.4868	2680.1626	928.5	47.35
994.6098	2681.4067	929.65	48.75
994.7328	2682.6501	928.7	44.6
994.8558	2683.8928	926.75	44.4
994.9788	2685.1348	926.8	46.05
995.1017	2686.3761	928.65	46.25
995.2245	2687.6168	928.25	46.6
995.3474	2688.8568	929.8	45.2
995.4702	2690.0961	926.75	45.4
995.5929	2691.3348	926.95	42.65
995.7156	2692.5727	925.25	42.4
995.8383	2693.81	925.85	44.1
995.961	2695.0466	924.8	43.6
996.0836	2696.2826	928.8	44.75
996.2062	2697.5178	929.45	46.2
996.3287	2698.7524	924.45	43.3
996.4512	2699.9863	928.6	43.75
996.5737	2701.2195	925.4	43.5
996.6961	2702.452	929.15	44.75
996.8185	2703.6839	930.8	47.5
996.9408	2704.9151	927.85	44.75
997.0631	2706.1456	928.55	45.85
997.1854	2707.3755	927.25	43.35
997.3077	2708.6046	929.65	44.8
997.4299	2709.8331	928.95	46.75
997.552	2711.0609	929.55	47.4
997.6742	2712.2881	930.55	48.5
997.7963	2713.5145	932.25	48.55
997.9183	2714.7403	928.15	47.3
998.0403	2715.9654	931.75	48.2
998.1623	2717.1899	943	42.15
998.2842	2718.4136	931.15	49.55
998.4062	2719.6367	930.8	47.25
998.528	2720.8591	938.05	48.3
998.6498	2722.0809	934.4	51.45
998.7716	2723.3019	938.95	51.65
998.8934	2724.5223	935.4	50.8
999.0151	2725.7421	934.4	49.9
999.1368	2726.9611	933.15	48.8
999.2584	2728.1795	934.75	50.05
999.38	2729.3972	931.55	50.85
999.5016	2730.6142	934.2	43.4
999.6231	2731.8306	932.05	49.8
999.7446	2733.0462	931.65	46.8
999.8661	2734.2612	933.05	46.9
999.9875	2735.4756	929.7	44.55
1000.1089	2736.6892	929.35	45.9
1000.2302	2737.9022	926.25	44.15
1000.3515	2739.1145	924.15	42.45
1000.4728	2740.3262	932.6	42.4
1000.594	2741.5372	924.4	44.05
1000.7152	2742.7475	922.2	40.3
1000.8363	2743.9571	926.3	41.55
1000.9575	2745.1661	927.6	40.95
1001.0785	2746.3744	921.45	39.05
1001.1996	2747.582	923	39.75
1001.3206	2748.7889	924.1	41.2
1001.4415	2749.9952	920.6	38.6
1001.5625	2751.2008	920.1	37.35
1001.6833	2752.4057	919.5	35.4
1001.8042	2753.61	922.3	41.2
1001.925	2754.8136	923.55	40.65
1002.0458	2756.0165	919.25	38.85
1002.1665	2757.2188	920.1	38.2
1002.2872	2758.4204	920.9	39.3
1002.4078	2759.6213	920.8	37.6
1002.5285	2760.8215	921.35	34.9
1002.649	2762.0211	917.7	35.75
1002.7696	2763.22	922.35	38.35
1002.8901	2764.4182	920.4	35.7
1003.0106	2765.6158	917.7	36.4
1003.131	2766.8127	919.4	38
1003.2514	2768.009	916.75	35.1
1003.3717	2769.2045	918.35	35.45
1003.492	2770.3994	920.05	36.5
1003.6123	2771.5936	920.2	37.8
1003.7325	2772.7872	915.25	33.2
1003.8527	2773.9801	918.35	35.35
1003.9729	2775.1723	932.1	32.25
1004.093	2776.3639	913.35	33.2
1004.2131	2777.5548	916.95	33.1
1004.3331	2778.745	917.15	35.4
1004.4531	2779.9346	914.65	35.8
1004.5731	2781.1235	916.3	33.55
1004.693	2782.3117	912.75	33.5
1004.8129	2783.4992	916.65	34.85
1004.9328	2784.6861	915.45	35.15
1005.0526	2785.8723	917.75	37
1005.1723	2787.0579	915.35	35
1005.2921	2788.2428	916.25	35.95
1005.4118	2789.427	916.5	37.4
1005.5314	2790.6106	913.75	34.75
1005.651	2791.7935	916	35.15
1005.7706	2792.9757	917.4	38
1005.8902	2794.1573	916.65	33.6
1006.0097	2795.3382	916.75	37.2
1006.1291	2796.5184	913	32.65
1006.2485	2797.698	918.8	36.6
1006.3679	2798.8769	914.75	36.4
1006.4873	2800.0551	915.15	32.75
1006.6066	2801.2327	917.45	34.25
1006.7258	2802.4096	914.5	33.55
1006.8451	2803.5859	917.6	34.8
1006.9642	2804.7615	918.95	37.55
1007.0834	2805.9364	917.25	35.55
1007.2025	2807.1106	917.9	36.6
1007.3216	2808.2842	923.7	42.4
1007.4406	2809.4572	920.7	39.9
1007.5596	2810.6294	921.65	41.85
1007.6785	2811.801	920.5	40.5
1007.7975	2812.972	922.95	42.85
1007.9163	2814.1423	925.25	43.35
1008.0352	2815.3119	928.9	48.05
1008.154	2816.4808	928.15	48.7
1008.2727	2817.6491	935.7	54.6
1008.3914	2818.8167	933.5	52.5
1008.5101	2819.9837	941.9	57.2
1008.6288	2821.15	942.5	62.5
1008.7474	2822.3157	945.4	65.85
1008.8659	2823.4807	952.8	71.9
1008.9844	2824.645	956.25	72.85
1009.1029	2825.8086	963.6	82.3
1009.2214	2826.9716	967.2	86.2
1009.3398	2828.134	977.25	96.55
1009.4581	2829.2957	980.95	99.7
1009.5764	2830.4567	986.2	107.1
1009.6947	2831.617	992.7	111.95
1009.813	2832.7767	995.35	115.05
1009.9312	2833.9358	993.6	117.05
1010.0493	2835.0941	996.25	113.85
1010.1675	2836.2519	987.8	107.65
1010.2855	2837.4089	989.25	107.65
1010.4036	2838.5653	982.65	103.05
1010.5216	2839.7211	974.8	95.15
1010.6396	2840.8761	977.7	93.75
1010.7575	2842.0306	974.55	97.75
1010.8754	2843.1843	974.05	95.05
1010.9932	2844.3374	975	94.3
1011.111	2845.4899	979.85	100.8
1011.2288	2846.6417	979.15	99.95
1011.3465	2847.7928	979.5	99.8
1011.4642	2848.9433	982.4	104.3
1011.5818	2850.0931	982.4	101.25
1011.6995	2851.2422	989.15	107.8
1011.817	2852.3907	987.5	105.75
1011.9345	2853.5385	990.6	108.55
1012.052	2854.6857	1016.25	110.05
1012.1695	2855.8323	992.3	111.85
1012.2869	2856.9781	993.2	113.55
1012.4042	2858.1233	991.25	111.05
1012.5216	2859.2679	1000.75	122.1
1012.6389	2860.4118	1004.3	121.9
1012.7561	2861.555	1005.35	122.75
1012.8733	2862.6976	1007.9	126.95
1012.9905	2863.8395	1008.9	127.65
1013.1076	2864.9808	1006.4	126.95
1013.2247	2866.1214	1008.8	128.45
1013.3417	2867.2614	1012.85	132
1013.4587	2868.4007	1011.5	128.65
1013.5757	2869.5393	1014.15	131.7
1013.6926	2870.6773	1018.5	135.5
1013.8095	2871.8146	1016.6	133.25
1013.9263	2872.9513	1021.55	139.1
1014.0431	2874.0874	1018.85	141.35
1014.1599	2875.2227	1026.55	144.8
1014.2766	2876.3574	1022.6	142.7
1014.3933	2877.4915	1027.95	145.9
1014.51	2878.6249	1022.5	143.85
1014.6266	2879.7577	1025.8	146.45
1014.7431	2880.8898	1040.9	149.85
1014.8596	2882.0212	1030.2	149.95
1014.9761	2883.152	1033.05	152.75
1015.0925	2884.2821	1029.65	149.7
1015.2089	2885.4116	1033.3	153.55
1015.3253	2886.5405	1035.65	158.6
1015.4416	2887.6686	1039.95	157.15
1015.5579	2888.7962	1036.9	158.7
1015.6741	2889.923	1036.9	157.55
1015.7903	2891.0493	1035.6	158.6
1015.9065	2892.1748	1038.15	157.35
1016.0226	2893.2997	1035.75	154.1
1016.1387	2894.424	1040.1	160.95
1016.2547	2895.5476	1037.8	157.7
1016.3707	2896.6706	1037.4	157.25
1016.4866	2897.7929	1040.8	158.15
1016.6025	2898.9145	1038.25	157.75
1016.7184	2900.0355	1041.75	160.5
1016.8342	2901.1559	1035.1	156.75
1016.95	2902.2756	1042.7	158.9
1017.0658	2903.3946	1035.85	156.6
1017.1815	2904.513	1036.55	153.2
1017.2971	2905.6308	1036.65	157.65
1017.4127	2906.7479	1036.15	154.25
1017.5283	2907.8643	1033.85	154.65
1017.6439	2908.9801	1036.8	157.2
1017.7594	2910.0953	1036.5	158.95
1017.8748	2911.2098	1038.8	154.5
1017.9902	2912.3236	1043	155.8
1018.1056	2913.4368	1036.2	154.45
1018.2209	2914.5494	1037.1	157.4
1018.3362	2915.6613	1035.7	151.15
1018.4515	2916.7725	1033.05	150.55
1018.5667	2917.8831	1029.25	149.05
1018.6819	2918.9931	1025.85	144.6
1018.797	2920.1024	1024.15	143.7
1018.9121	2921.211	1025.9	148.1
1019.0271	2922.319	1019.55	139.05
1019.1421	2923.4264	1016.1	137.25
1019.2571	2924.5331	1020.8	140.7
1019.372	2925.6391	1018.05	139.4
1019.4869	2926.7445	1015.85	137.15
1019.6017	2927.8493	1019.65	140.35
1019.7165	2928.9534	1014.4	133.95
1019.8313	2930.0569	1024.95	142.4
1019.946	2931.1597	1023.4	140.6
1020.0606	2932.2619	1018.65	139.75
1020.1753	2933.3634	1023.6	143.8
1020.2899	2934.4643	1028.55	143.75
1020.4044	2935.5645	1029.6	144.4
1020.5189	2936.6641	1028.2	146.75
1020.6334	2937.763	1027.55	150.05
1020.7478	2938.8613	1023.85	143.55
1020.8622	2939.959	1028.55	143.7
1020.9765	2941.056	1016.05	138.15
1021.0908	2942.1523	1014.8	132
1021.2051	2943.248	1009.4	130.3
1021.3193	2944.3431	1000.75	120.7
1021.4334	2945.4375	996.15	116.6
1021.5476	2946.5313	990.8	115.35
1021.6617	2947.6244	982.35	103.1
1021.7757	2948.7169	977.95	97.15
1021.8897	2949.8087	969.95	92.15
1022.0037	2950.8999	966.3	85.15
1022.1176	2951.9904	962.85	84.8
1022.2315	2953.0803	962.5	82.6
1022.3453	2954.1696	956.4	76.25
1022.4591	2955.2582	951.85	74.3
1022.5728	2956.3462	952.1	72.4
1022.6865	2957.4335	949.85	70.25
1022.8002	2958.5202	956.6	77.5
1022.9138	2959.6062	951.35	70.6
1023.0274	2960.6916	948.75	70.7
1023.141	2961.7764	951.05	72.1
1023.2545	2962.8605	950.15	72.35
1023.3679	2963.9439	951.95	73.2
1023.4813	2965.0267	951	71.85
1023.5947	2966.1089	969	68.6
1023.708	2967.1905	949.1	70.35
1023.8213	2968.2714	947.2	67.4
1023.9346	2969.3516	948.6	71.05
1024.0478	2970.4312	955.85	66.05
1024.1609	2971.5102	949.2	71.2
1024.274	2972.5885	945.65	65.6
1024.3871	2973.6662	950.75	67.25
1024.5002	2974.7432	945.6	66.4
1024.6132	2975.8196	951.2	72
1024.7261	2976.8954	943.7	65.6
1024.839	2977.9705	947.7	67.75
1024.9519	2979.045	945.6	67.1
1025.0647	2980.1188	944.45	65.3
1025.1775	2981.192	945.4	67.9
1025.2902	2982.2645	944.3	64.75
1025.4029	2983.3364	942.5	66.25
1025.5156	2984.4077	942.7	65.35
1025.6282	2985.4783	945.8	61.95
1025.7407	2986.5483	938.15	58.45
1025.8532	2987.6177	937.15	60.3
1025.9657	2988.6864	936.45	58.85
1026.0782	2989.7545	937.9	57.85
1026.1906	2990.8219	931.9	53.4
1026.3029	2991.8887	931.4	48.6
1026.4152	2992.9548	927.85	50.6
1026.5275	2994.0204	920	42.7
1026.6397	2995.0852	922.55	45.25
1026.7519	2996.1495	919.2	38.6
1026.864	2997.2131	917.7	39.25
1026.9761	2998.276	916.55	39.25
1027.0882	2999.3383	914.9	36.45
1027.2002	3000.4	913.5	33.8
1027.3122	3001.4611	911.9	31.7
1027.4241	3002.5215	913.5	35.3
1027.536	3003.5812	909.1	29.95
1027.6478	3004.6404	908.9	28.45
1027.7596	3005.6989	909.2	28.65
1027.8714	3006.7567	903.8	26.9
1027.9831	3007.8139	939.35	27.85
1028.0947	3008.8705	905.05	25.8
1028.2064	3009.9264	906.2	24.9
1028.3179	3010.9818	904.25	25.65
1028.4295	3012.0364	905.5	26.75
1028.541	3013.0905	903.85	27.45
1028.6524	3014.1439	904.15	23.9
1028.7638	3015.1966	903.05	25.5
1028.8752	3016.2487	903.65	24.5
1028.9865	3017.3002	906.95	23.75
1029.0978	3018.3511	900.45	24.15
1029.209	3019.4013	898.45	19.65
1029.3202	3020.4509	900.8	22.3
1029.4314	3021.4998	900.25	23.1
1029.5425	3022.5481	901.4	22.9
1029.6535	3023.5958	902.4	24.3
1029.7645	3024.6428	901.9	21.8
1029.8755	3025.6892	899.4	23.75
1029.9864	3026.735	901.75	21.65
1030.0973	3027.7802	901.1	23.25
1030.2082	3028.8247	900.45	23.9
1030.319	3029.8685	900.3	21.95
1030.4297	3030.9118	902.8	22
1030.5404	3031.9544	898.9	19.85
1030.6511	3032.9963	899.75	20.3
1030.7617	3034.0376	897.65	21.05
1030.8723	3035.0783	902.55	24.05
1030.9829	3036.1184	902.8	21.4
1031.0934	3037.1578	898.1	19.4
1031.2038	3038.1966	904.2	23.55
1031.3142	3039.2348	898.85	20
1031.4246	3040.2723	910.4	22.45
1031.5349	3041.3092	899.9	23.05
1031.6452	3042.3455	899.65	21.25
1031.7554	3043.3811	899.5	24.3
1031.8656	3044.4161	898.4	19.9
1031.9758	3045.4505	899.5	21.8
1032.0859	3046.4842	900.4	20
1032.1959	3047.5173	900.05	23.15
1032.3059	3048.5498	899.45	19.35
1032.4159	3049.5816	900.3	21.75
1032.5258	3050.6128	900.9	22
1032.6357	3051.6434	899	20.05
1032.7455	3052.6734	902.2	20.65
1032.8553	3053.7027	898.95	19.9
1032.9651	3054.7314	898.95	20.65
1033.0748	3055.7594	901.95	22.8
1033.1845	3056.7868	901.75	21.85
1033.2941	3057.8136	898.85	21.05
1033.4037	3058.8398	899.15	21.85
1033.5132	3059.8653	900.7	22.8
1033.6227	3060.8902	901.9	24.3
1033.7321	3061.9145	901.35	24.05
1033.8415	3062.9381	902.55	24.2
1033.9509	3063.9612	915.45	21.45
1034.0602	3064.9835	903.3	24.45
1034.1694	3066.0053	906.1	25.15
1034.2787	3067.0264	901.3	23.1
1034.3878	3068.0469	902.45	22.8
1034.497	3069.0668	904.5	24.65
1034.6061	3070.086	901.45	23.55
1034.7151	3071.1046	901.55	22.75
1034.8241	3072.1226	902.25	24.1
1034.9331	3073.1399	899.5	22.1
1035.042	3074.1567	902.15	22.85
1035.1508	3075.1727	903.4	24.55
1035.2597	3076.1882	900.5	23.05
1035.3684	3077.203	898.25	19.45
1035.4772	3078.2173	900.95	22.15
1035.5859	3079.2308	901.55	17.6
1035.6945	3080.2438	898.05	18.1
1035.8031	3081.2561	896.7	17.45
1035.9117	3082.2678	897.55	19.95
1036.0202	3083.2789	898.25	19.75
1036.1286	3084.2893	895.9	16.9
1036.2371	3085.2991	894.7	17.45
1036.3454	3086.3083	901	17.1
1036.4538	3087.3169	897.1	19.2
1036.562	3088.3248	895.85	17.6
1036.6703	3089.3321	895.8	16.05
1036.7785	3090.3388	894.45	16.7
1036.8866	3091.3449	894.05	14.7
1036.9948	3092.3503	897	16.9
1037.1028	3093.3551	894.25	19.6
1037.2108	3094.3593	892.55	15.95
1037.3188	3095.3629	893.8	17.25
1037.4267	3096.3658	895.7	17.2
1037.5346	3097.3681	893.6	17.85
1037.6425	3098.3698	896.25	17.2
1037.7503	3099.3708	894.9	14.95
1037.858	3100.3713	891.7	15.1
1037.9657	3101.3711	897.25	18.55
1038.0734	3102.3702	1032.15	18.75
1038.181	3103.3688	894.45	14.8
1038.2886	3104.3667	892.2	14.65
1038.3961	3105.364	890.7	13.6
1038.5036	3106.3607	890.6	11.3
1038.611	3107.3568	893.6	15.5
1038.7184	3108.3522	892.3	16.75
1038.8257	3109.347	891.35	11.5
1038.933	3110.3412	895.3	12.75
1039.0403	3111.3348	889.45	10.2
1039.1475	3112.3277	890.5	11.8
1039.2547	3113.32	889.5	12.7
1039.3618	3114.3117	891.35	13.8
1039.4689	3115.3028	890.05	11.9
1039.5759	3116.2932	892	12.3
1039.6829	3117.2831	896.4	11.9
1039.7898	3118.2723	889.2	11.9
1039.8967	3119.2608	889	11.7
1040.0035	3120.2488	887.3	8.5
1040.1103	3121.2361	888.6	10.8
1040.2171	3122.2229	890	12.85
1040.3238	3123.209	889.75	11.35
1040.4305	3124.1944	890.4	12.95
1040.5371	3125.1793	889.15	11.85
1040.6437	3126.1635	888.1	11.4
1040.7502	3127.1471	890.45	13.45
1040.8567	3128.1301	888.6	11.9
1040.9631	3129.1125	885.75	9.25
1041.0695	3130.0942	887.35	8.45
1041.1759	3131.0753	899.05	11.2
1041.2822	3132.0558	891.15	8.75
1041.3884	3133.0357	888.25	9.6
1041.4946	3134.015	889.15	10.7
1041.6008	3134.9936	888.45	8.1
1041.7069	3135.9716	908.7	10
1041.813	3136.949	887.25	7.2
1041.919	3137.9258	904.75	7.45
1042.025	3138.902	893.2	10.3
1042.1309	3139.8775	886.4	9.8
1042.2368	3140.8524	887.8	8.8
1042.3427	3141.8267	887.55	6.75
1042.4485	3142.8004	888.15	8.55
1042.5542	3143.7735	893.65	12.65
1042.6599	3144.7459	889.5	10.65
1042.7656	3145.7178	886.8	7.4
1042.8712	3146.689	888	11.4
1042.9768	3147.6596	885.9	5.1
1043.0823	3148.6295	886.3	9.05
1043.1878	3149.5989	888.15	10.25
1043.2932	3150.5676	885	8
1043.3986	3151.5357	886.65	10.85
1043.5039	3152.5032	886.1	8.5
1043.6092	3153.4701	885.75	9.05
1043.7145	3154.4364	888.95	8.5
1043.8197	3155.402	885	8.95
1043.9248	3156.367	888.75	9.2
1044.03	3157.3315	928.65	9.35
1044.135	3158.2952	887.1	8.65
1044.24	3159.2584	885.25	6.95
1044.345	3160.221	886.3	7.65
1044.4499	3161.1829	888.65	8.55
1044.5548	3162.1442	884.8	8.45
1044.6596	3163.105	885.25	7.75
1044.7644	3164.065	886.05	9.3
1044.8692	3165.0245	887.7	7.35
1044.9739	3165.9834	884.45	8.55
1045.0785	3166.9416	886.1	10.05
1045.1831	3167.8993	887.75	10.5
1045.2877	3168.8563	885.6	7
1045.3922	3169.8127	885.65	8.9
1045.4966	3170.7684	886.6	9.35
1045.6011	3171.7236	886.1	7.25
1045.7054	3172.6782	885.35	9.45
1045.8098	3173.6321	885.35	6.45
1045.914	3174.5854	889.3	7.7
1046.0183	3175.5381	886.25	10.3
1046.1224	3176.4902	884.5	9
1046.2266	3177.4417	884.7	7.2
1046.3307	3178.3926	885.1	7.7
1046.4347	3179.3428	881.6	6.6
1046.5387	3180.2924	885.05	10.5
1046.6427	3181.2415	885.15	7.5
1046.7466	3182.1899	886.65	8.4
1046.8504	3183.1377	884.7	7.45
1046.9542	3184.0848	884.3	5.8
1047.058	3185.0314	885.65	8.4
1047.1617	3185.9773	884.4	6.6
1047.2654	3186.9227	884.25	5.85
1047.369	3187.8674	883.85	4.65
1047.4726	3188.8115	888.15	5.15
1047.5761	3189.755	886.35	13.05
1047.6796	3190.6979	885.2	6.15
1047.783	3191.6402	884.5	7
1047.8864	3192.5818	886.1	7.85
1047.9898	3193.5229	888.35	5.4
1048.0931	3194.4633	884.15	8.65
1048.1963	3195.4031	883.95	4.2
1048.2995	3196.3423	882.95	5.3
1048.4027	3197.2809	884.6	5.25
1048.5058	3198.2189	884.2	5.15
1048.6089	3199.1563	889.35	5.65
1048.7119	3200.0931	882.6	5.7
1048.8148	3201.0292	882.5	6.6
1048.9178	3201.9648	884.9	7.2
1049.0206	3202.8997	884.2	2.9
1049.1235	3203.834	882.8	5.8
1049.2262	3204.7677	884.55	4.75
1049.329	3205.7008	883.65	5.2
1049.4317	3206.6333	880.85	4.15
1049.5343	3207.5652	885.65	5.45
1049.6369	3208.4964	884.2	6.35
1049.7394	3209.4271	884.95	6.8
1049.8419	3210.3571	882.7	4.45
1049.9444	3211.2865	884.35	7.8
1050.0468	3212.2154	885.35	7.45
1050.1491	3213.1436	885.7	8.15
1050.2514	3214.0712	892.3	8.7
1050.3537	3214.9982	882.5	6.75
1050.4559	3215.9246	883.05	6.35
1050.5581	3216.8503	882.4	5.85
1050.6602	3217.7755	881.15	3.75
1050.7623	3218.7001	883.55	5.6
1050.8643	3219.624	882.4	5.35
1050.9663	3220.5473	883.8	6.55
1051.0682	3221.4701	886.35	7.75
1051.1701	3222.3922	884.7	4.3
1051.2719	3223.3137	883.05	4.95
1051.3737	3224.2346	883	6.6
1051.4754	3225.1549	880.25	4.4
1051.5771	3226.0746	882.6	5.6
1051.6788	3226.9937	879.55	1.9
1051.7804	3227.9121	882.9	5.85
1051.8819	3228.83	881.4	3.55
1051.9834	3229.7473	881.5	5.05
1052.0849	3230.6639	881.15	4.85
1052.1863	3231.5799	881.5	3.9
1052.2876	3232.4954	883.6	7.25
1052.3889	3233.4102	881.55	5.45
1052.4902	3234.3244	882.95	5.45
1052.5914	3235.238	881.7	4.75
1052.6926	3236.151	905.75	5.85
1052.7937	3237.0634	882.3	6.85
1052.8948	3237.9752	884.15	6.8
1052.9958	3238.8864	883.85	3.2
1053.0968	3239.797	883.15	6.9
1053.1977	3240.7069	883.7	6.95
1053.2986	3241.6163	883.7	4.15
1053.3994	3242.5251	880.45	6.75
1053.5002	3243.4332	879.95	4.4
1053.6009	3244.3408	883.7	5.95
1053.7016	3245.2477	880.95	2.3
1053.8022	3246.154	882.9	4.25
1053.9028	3247.0598	881.65	4.1
1054.0034	3247.9649	881.95	5.85
1054.1039	3248.8694	881.25	6.25
1054.2043	3249.7733	883.8	5.9
1054.3047	3250.6766	882.6	6.25
1054.4051	3251.5793	882.95	4.75
1054.5054	3252.4814	882.15	6.7
1054.6056	3253.3829	881.2	4.95
1054.7058	3254.2838	880.65	3.35
1054.806	3255.1841	881.45	5.45
1054.9061	3256.0838	882.55	5
1055.0061	3256.9829	880.4	4.65
1055.1062	3257.8814	883.1	4.65
1055.2061	3258.7792	882.5	3.15
1055.306	3259.6765	881	3.15
1055.4059	3260.5731	880.55	4.3
1055.5057	3261.4692	880.3	3.5
1055.6055	3262.3647	882.95	4.35
1055.7052	3263.2595	880.8	3.6
1055.8049	3264.1538	881.05	2.65
1055.9045	3265.0474	879.35	0.2
1056.0041	3265.9404	880.25	3.55
1056.1036	3266.8329	881.4	5.7
1056.2031	3267.7247	891.4	6.1
1056.3025	3268.616	879.8	3.7
1056.4019	3269.5066	880.85	4.35
1056.5013	3270.3966	882.45	2.85
1056.6005	3271.286	879.55	2
