Software Version:	3.9.2.0
Unit SN:	10000200
Spectrometer SN:	6960
Date:	3/8/2024 1:19:25 PM
Data Line Index:	25
Spectral Points:	2048
Integration time (ms):	125
Averages:	20
Delay (ms):	30000
Sequence Number:	1
Processing:	dark subtract
Laser Power (mW):	300
Laser Current (mA):	823
Laser Diode Temp (C):	25
Laser Case Temp (C):	26.1
System Temp (C):	26.1
Spectrometer Temp (C):	24
CCD Temp (C):	0.002
Secondary Temp (C):	20.008
Heatsink Temp (C):	21.112
CCDPCB Temp (C):	35.996
SecondaryPCB Temp (C):	29.526

Wavelength	RamanShift	Raw Counts	Dark Subtracted
787.061	30.1047	450.25	41.35
787.2016	32.3739	454.3	46.05
787.3422	34.6426	458.65	49.35
787.4828	36.9109	463.3	54.9
787.6235	39.1787	471.45	57.75
787.7642	41.4461	480.4	62.05
787.9049	43.7131	489.1	69.05
788.0456	45.9796	495.75	72.6
788.1863	48.2456	505.15	78.65
788.3271	50.5112	516.4	84.75
788.4679	52.7764	524.1	89.5
788.6087	55.0411	537.55	97.95
788.7496	57.3054	551.5	104.3
788.8904	59.5692	553.6	107.4
789.0313	61.8326	569.25	122.25
789.1722	64.0955	575.45	123.2
789.3132	66.3579	593.7	136
789.4541	68.6199	614.3	151.1
789.5951	70.8815	641.65	174.5
789.7361	73.1426	720.25	249.4
789.8771	75.4032	922.2	448.3
790.0181	77.6634	1410.2	931.85
790.1592	79.9231	2553.05	2064.65
790.3003	82.1824	5023.55	4519.35
790.4414	84.4412	9446.05	8908.35
790.5825	86.6995	15543.55	14960.5
790.7237	88.9574	21481.6	20864.15
790.8648	91.2148	25546.05	24901.55
791.006	93.4717	27398.85	26739.05
791.1472	95.7282	27729.35	27063.7
791.2885	97.9842	27549.05	26878.55
791.4297	100.2398	26923.1	26250.45
791.571	102.4949	26260	25587.4
791.7123	104.7495	25395.9	24720.55
791.8536	107.0036	24545.75	23869.6
791.9949	109.2573	23799.05	23120.8
792.1363	111.5105	23041	22360.75
792.2777	113.7632	22305.65	21620.3
792.4191	116.0154	21730.35	21041.7
792.5605	118.2672	21272.85	20578.7
792.7019	120.5185	20801.6	20110.65
792.8434	122.7693	20462.65	19771.95
792.9849	125.0197	20165.15	19468.45
793.1264	127.2696	19888.7	19187.45
793.2679	129.519	19696.05	18988.2
793.4094	131.7679	19479.3	18772
793.551	134.0163	19289.3	18581.95
793.6926	136.2642	19024.3	18309.35
793.8342	138.5117	18751.35	18034.45
793.9758	140.7587	18442.45	17723.15
794.1175	143.0052	18209.2	17484.4
794.2591	145.2512	17904.7	17181.4
794.4008	147.4967	17629	16910.85
794.5425	149.7417	17460.2	16736.95
794.6842	151.9863	17327.1	16598.25
794.826	154.2304	17252.55	16514.1
794.9677	156.4739	17114.1	16378.65
795.1095	158.717	17043	16307.65
795.2513	160.9596	16860.3	16115.45
795.3931	163.2017	16595.4	15853.5
795.535	165.4433	16328.15	15581.05
795.6768	167.6844	15941.6	15191.05
795.8187	169.925	15629.25	14880.05
795.9606	172.1651	15286.55	14534.2
796.1025	174.4047	15033.2	14275.9
796.2445	176.6439	14757.2	14002.15
796.3864	178.8825	14511.1	13749.5
796.5284	181.1206	14362.85	13593.3
796.6704	183.3582	14217.35	13449.3
796.8124	185.5954	14110.05	13334.55
796.9544	187.832	14032.3	13254.9
797.0965	190.0681	14008.4	13229.25
797.2386	192.3037	13982.8	13195.45
797.3806	194.5388	13997	13212.85
797.5228	196.7734	14025.45	13240.8
797.6649	199.0075	14105.75	13317.3
797.807	201.2411	14231.55	13440.35
797.9492	203.4742	14270.05	13479.2
798.0914	205.7068	14403.35	13605.75
798.2336	207.9389	14545.3	13751.15
798.3758	210.1704	14724	13934.3
798.518	212.4015	14817.75	14039.3
798.6603	214.632	14986.6	14216.65
798.8025	216.862	15137.8	14365
798.9448	219.0915	15278.85	14508.7
799.0871	221.3205	15450.75	14674.65
799.2294	223.549	15612.9	14839.1
799.3718	225.777	15873.65	15095.75
799.5141	228.0044	16126.4	15346.1
799.6565	230.2314	16491.65	15708.35
799.7989	232.4578	16813.3	16029.15
799.9413	234.6837	17071.35	16280.4
800.0837	236.909	17275.45	16482.3
800.2262	239.1339	17259.05	16442
800.3687	241.3582	17089.35	16279.1
800.5111	243.582	16852.85	16011.2
800.6536	245.8053	16572.15	15753.8
800.7961	248.0281	16356.4	15540.4
800.9387	250.2503	16202.85	15380.55
801.0812	252.472	16113.05	15287.65
801.2238	254.6932	16095.4	15273.3
801.3664	256.9139	16112.9	15290.9
801.509	259.134	16168.2	15339.55
801.6516	261.3536	16243.8	15415.35
801.7942	263.5727	16399.4	15569.2
801.9369	265.7912	16461.2	15634.55
802.0795	268.0092	16576.2	15749.85
802.2222	270.2267	16626.5	15800.8
802.3649	272.4436	16626.4	15793.5
802.5076	274.6601	16635.25	15796.95
802.6504	276.8759	16528.5	15699.15
802.7931	279.0913	16418.3	15583.4
802.9359	281.3061	16353.25	15515.4
803.0787	283.5204	16375.5	15529
803.2215	285.7341	16413.9	15570.65
803.3643	287.9473	16524.3	15672.4
803.5071	290.16	16691.45	15845.55
803.6499	292.3721	16940.75	16102.45
803.7928	294.5837	17315.6	16476.25
803.9357	296.7947	17596.75	16752.2
804.0786	299.0052	17802.35	16959.2
804.2215	301.2152	17698.55	16853.35
804.3644	303.4246	17412.9	16571.85
804.5074	305.6334	16886.4	16050.65
804.6503	307.8418	16413.25	15568.15
804.7933	310.0495	16004.05	15159.25
804.9363	312.2568	15656.7	14810.6
805.0793	314.4635	15404.75	14552.95
805.2223	316.6696	15215.7	14361
805.3653	318.8752	15117.5	14254.6
805.5084	321.0802	15131.5	14276.05
805.6514	323.2847	15200.5	14340.2
805.7945	325.4887	15246.95	14386.75
805.9376	327.692	15197.1	14339.15
806.0807	329.8949	15142.1	14284.25
806.2238	332.0972	14908.15	14046.05
806.367	334.2989	14639.4	13774.9
806.5101	336.5001	14354.9	13490.55
806.6533	338.7007	14149	13284.3
806.7965	340.9008	14008.9	13143.65
806.9397	343.1003	13890.55	13022.75
807.0829	345.2992	13811.25	12944.9
807.2261	347.4976	13762.75	12895.1
807.3693	349.6955	13752.7	12878.05
807.5126	351.8927	13808	12935.75
807.6559	354.0895	13765.55	12877.5
807.7991	356.2856	13771.05	12889.45
807.9424	358.4812	13724.6	12849.95
808.0857	360.6763	13770.6	12888.25
808.2291	362.8707	13784.5	12901.75
808.3724	365.0646	13803.45	12926
808.5158	367.258	13832.2	12948.75
808.6591	369.4508	13894.05	13007.45
808.8025	371.643	13944.7	13058.75
808.9459	373.8346	13986.8	13097.5
809.0893	376.0257	13992	13105.7
809.2327	378.2162	13961.1	13073.95
809.3762	380.4062	13903.65	13016.8
809.5196	382.5956	13765.7	12887.85
809.6631	384.7844	13679.45	12804.05
809.8066	386.9726	13562.35	12687.55
809.9501	389.1603	13513.55	12637.35
810.0936	391.3474	13482.8	12571.05
810.2371	393.5339	13437.25	12549.95
810.3806	395.7199	13382.1	12499.9
810.5241	397.9052	13393.25	12516.95
810.6677	400.09	13462.15	12581.3
810.8113	402.2743	13523	12643.45
810.9548	404.4579	13646.35	12765.7
811.0984	406.641	13817.4	12935.2
811.2421	408.8235	13996.2	13111.95
811.3857	411.0054	14260.2	13367.95
811.5293	413.1868	14646.6	13753.3
811.673	415.3675	14882.5	13985.65
811.8166	417.5477	15023	14128.4
811.9603	419.7273	15048	14156.3
812.104	421.9064	14951.45	14052.8
812.2477	424.0848	14812.25	13916.35
812.3914	426.2627	14651.1	13760.6
812.5351	428.4399	14367.85	13475.35
812.6788	430.6166	14042.7	13143.65
812.8226	432.7928	13668.75	12769.5
812.9663	434.9683	13377.25	12475.95
813.1101	437.1432	13140.05	12242.7
813.2539	439.3176	12984.2	12095.5
813.3977	441.4914	12861.4	11973.3
813.5415	443.6645	12846.1	11959.75
813.6853	445.8371	12796.2	11902.5
813.8291	448.0091	12724.9	11829.85
813.973	450.1806	12692.8	11796.4
814.1168	452.3514	12683.85	11792.95
814.2607	454.5216	12725.8	11825.8
814.4046	456.6913	12661	11764.35
814.5485	458.8603	12670.25	11775.5
814.6924	461.0288	12737.55	11850.15
814.8363	463.1967	12741	11855.9
814.9802	465.3639	12827.5	11936.25
815.1241	467.5306	12899.95	12008.3
815.2681	469.6967	12990.45	12098.8
815.412	471.8622	13093.15	12205.35
815.556	474.0271	13241.75	12350.6
815.7	476.1914	13299.7	12402.8
815.844	478.3551	13278.4	12383.9
815.988	480.5182	13267.05	12375.7
816.132	482.6807	13315.05	12434.6
816.276	484.8426	13453.8	12576.1
816.4201	487.0039	13753.7	12869.95
816.5641	489.1647	14157.65	13263.55
816.7082	491.3248	14547.2	13646.15
816.8522	493.4843	14687.25	13795.2
816.9963	495.6432	14700.3	13810.55
817.1404	497.8015	14572.6	13669.9
817.2845	499.9592	14542.9	13635.45
817.4286	502.1163	14428.9	13520.3
817.5727	504.2728	14162.35	13262.9
817.7168	506.4287	13874.6	12991.2
817.861	508.5839	13485.6	12597.4
818.0051	510.7386	13197.6	12299.95
818.1493	512.8927	13059.5	12151.95
818.2935	515.0461	12963.65	12060.35
818.4377	517.199	12983.85	12073.9
818.5818	519.3512	13047.65	12140.6
818.726	521.5029	13201.35	12295.15
818.8703	523.6539	13322.25	12416.25
819.0145	525.8043	13392.3	12483.35
819.1587	527.9541	13363	12451
819.303	530.1033	13297.2	12392.5
819.4472	532.2519	13235.25	12327.1
819.5915	534.3999	13338.1	12429.9
819.7357	536.5472	13547.45	12643.7
819.88	538.694	13922.95	13023.35
820.0243	540.8401	14381.5	13474.3
820.1686	542.9856	14772.2	13853.8
820.3129	545.1305	14901.6	13973.65
820.4572	547.2748	14779.8	13854
820.6016	549.4185	14477.7	13549.25
820.7459	551.5615	14195.3	13266.65
820.8902	553.704	14105.6	13183.4
821.0346	555.8458	14107.4	13193.15
821.1789	557.987	14164.05	13250.95
821.3233	560.1276	14249.15	13330.65
821.4677	562.2675	14388.9	13471.75
821.6121	564.4069	14599.75	13678.9
821.7565	566.5456	14761.2	13849.7
821.9009	568.6837	14785.75	13870.3
822.0453	570.8212	14444.95	13529.55
822.1897	572.958	14010	13094.55
822.3342	575.0942	13565.4	12653.25
822.4786	577.2299	13320	12414.2
822.6231	579.3648	13193.65	12297
822.7675	581.4992	13242.05	12355.45
822.912	583.6329	13420.75	12537.15
823.0565	585.766	13616.2	12724.2
823.201	587.8985	13772.2	12874.6
823.3454	590.0304	13820.8	12886.95
823.4899	592.1616	13718.4	12799.45
823.6345	594.2922	13610.15	12688.55
823.779	596.4222	13428.15	12503.1
823.9235	598.5515	13282.25	12352.9
824.068	600.6802	13118.75	12196.05
824.2126	602.8083	12941	12020.05
824.3571	604.9358	12885.45	11962.95
824.5017	607.0626	12877.45	11952.5
824.6462	609.1888	12904.1	11970
824.7908	611.3144	12903.35	11970.05
824.9354	613.4393	12878	11949.8
825.08	615.5636	12865.6	11931.85
825.2246	617.6873	12820.3	11893.3
825.3692	619.8103	12755.15	11827.35
825.5138	621.9327	12613.7	11687
825.6584	624.0544	12534.9	11614.2
825.803	626.1756	12450.1	11528.5
825.9477	628.2961	12383.7	11458.6
826.0923	630.4159	12305.55	11372.9
826.237	632.5351	12258.25	11329.7
826.3816	634.6537	12231.35	11302.05
826.5263	636.7716	12240.05	11306
826.6709	638.8889	12237.8	11300.4
826.8156	641.0056	12268.95	11333.35
826.9603	643.1216	12265.75	11330.5
827.105	645.237	12271.85	11338.85
827.2497	647.3518	12219.5	11294.5
827.3944	649.4659	12198.75	11277.05
827.5391	651.5793	12202.45	11284.95
827.6838	653.6922	12166.85	11244.6
827.8285	655.8043	12154.6	11231.35
827.9733	657.9159	12155.4	11230.75
828.118	660.0268	12082.5	11153.85
828.2627	662.137	12052.4	11123.2
828.4075	664.2466	12072.05	11132.3
828.5522	666.3556	12018.25	11083.5
828.697	668.4639	11991.4	11058.75
828.8418	670.5716	12007.85	11084.8
828.9865	672.6786	12082.25	11152.1
829.1313	674.785	12094.05	11157.15
829.2761	676.8907	12124.65	11193.8
829.4209	678.9958	12186	11259
829.5657	681.1002	12166.55	11234.9
829.7105	683.204	12165.75	11224.05
829.8553	685.3072	12114.75	11175.65
830.0001	687.4097	12075.85	11139.4
830.1449	689.5115	12062.4	11121.15
830.2898	691.6127	12033.9	11100.45
830.4346	693.7132	11979.45	11050.25
830.5794	695.8131	11951.9	11006.85
830.7243	697.9123	11945.35	11002.55
830.8691	700.0109	11936.6	10993.85
831.014	702.1089	11939.85	11001.2
831.1588	704.2061	11952.1	11013.1
831.3037	706.3028	12029.2	11086.05
831.4486	708.3987	12064.4	11128.9
831.5935	710.4941	12123.55	11184.4
831.7383	712.5887	12255.2	11322
831.8832	714.6827	12443.7	11503.4
832.0281	716.7761	12725.25	11794.55
832.173	718.8688	13013.55	12077.2
832.3179	720.9608	13202.55	12255.65
832.4628	723.0522	13310.2	12363.3
832.6077	725.1429	13178.25	12232.7
832.7527	727.233	13035.35	12094.9
832.8976	729.3224	12927.8	11985.35
833.0425	731.4112	12711.9	11770.6
833.1874	733.4993	12532.25	11590.15
833.3324	735.5867	12359.5	11421.8
833.4773	737.6735	12202.7	11260.05
833.6222	739.7596	12084.45	11143.05
833.7672	741.845	12005.6	11064.7
833.9122	743.9298	11996.15	11053.2
834.0571	746.014	11948.3	11008.15
834.2021	748.0974	11977.55	11028.05
834.347	750.1802	11981.4	11032.75
834.492	752.2624	12020.3	11071.8
834.637	754.3439	12043.8	11094.4
834.782	756.4247	12138.7	11185.15
834.9269	758.5048	12280.3	11332.7
835.0719	760.5843	12525.35	11576.3
835.2169	762.6631	12886.1	11939.2
835.3619	764.7413	13375.9	12428.55
835.5069	766.8188	14012.3	13064.1
835.6519	768.8956	14483.2	13536.2
835.7969	770.9718	14800.4	13852.05
835.9419	773.0473	14687.3	13740.25
836.0869	775.1221	14366.8	13420.2
836.232	777.1962	14045.7	13099.45
836.377	779.2697	13889.9	12938.65
836.522	781.3426	13952.8	12993.8
836.667	783.4147	14133.75	13182.9
836.8121	785.4862	14358.45	13410.2
836.9571	787.557	14337.3	13388.2
837.1021	789.6271	13943.65	12995.35
837.2472	791.6966	13365.35	12419.85
837.3922	793.7654	12823.6	11877.65
837.5373	795.8335	12516.5	11565.8
837.6823	797.901	12272.15	11325.6
837.8274	799.9678	12147.55	11192.8
837.9724	802.0339	12123.5	11172.55
838.1175	804.0993	12161.9	11200.4
838.2626	806.1641	12106.7	11152.3
838.4076	808.2282	12043.15	11095.3
838.5527	810.2916	11996.4	11041.8
838.6978	812.3544	11894.05	10949.45
838.8428	814.4164	11812.4	10864.85
838.9879	816.4778	11840.6	10886.95
839.133	818.5385	11862.8	10908.2
839.2781	820.5986	11968.2	11012.2
839.4232	822.658	12127.45	11169.75
839.5682	824.7166	12324.75	11372.65
839.7133	826.7747	12665	11712.1
839.8584	828.832	12976.8	12024.95
840.0035	830.8886	13217.05	12264.05
840.1486	832.9446	13322.3	12366.85
840.2937	834.9999	13313.45	12360.35
840.4388	837.0545	13189.55	12235.05
840.5839	839.1085	13045.25	12091.05
840.729	841.1618	12934.95	11974.05
840.8741	843.2143	12809.5	11853.5
841.0192	845.2662	12695.75	11744.65
841.1643	847.3175	12623.2	11672.2
841.3095	849.368	12511.4	11557.75
841.4546	851.4179	12397.8	11446.45
841.5997	853.467	12265.75	11308.55
841.7448	855.5155	12201.5	11247.2
841.8899	857.5633	12084.9	11126.1
842.0351	859.6105	12008.05	11053.55
842.1802	861.6569	11943.3	10986.95
842.3253	863.7027	11898.85	10936.35
842.4704	865.7478	11857.8	10898.75
842.6156	867.7922	11860.2	10903.9
842.7607	869.8359	11862.7	10904.4
842.9058	871.8789	11939.65	10985.35
843.0509	873.9212	12111.9	11125.95
843.1961	875.9629	12226.95	11267.7
843.3412	878.0039	12385.85	11427.5
843.4863	880.0441	12484.35	11528.8
843.6315	882.0837	12500.15	11548.3
843.7766	884.1226	12455.05	11498.5
843.9218	886.1609	12435.25	11478.85
844.0669	888.1984	12420.4	11464.65
844.212	890.2352	12470.05	11510.3
844.3572	892.2714	12426.55	11468.65
844.5023	894.3069	12392.45	11436.95
844.6475	896.3416	12260.25	11298.65
844.7926	898.3757	12191.3	11235.1
844.9377	900.4091	12210.75	11252.4
845.0829	902.4418	12183	11222.8
845.228	904.4739	12217.4	11254.15
845.3732	906.5052	12238.05	11276.45
845.5183	908.5358	12163.6	11202.55
845.6635	910.5658	12033.8	11070.1
845.8086	912.595	11868.5	10910.3
845.9538	914.6236	11693	10734.8
846.0989	916.6515	11613.15	10649.2
846.2441	918.6786	11554.95	10589.3
846.3892	920.7051	11604.1	10641.05
846.5344	922.7309	11720.35	10756.3
846.6795	924.756	11737.3	10778.05
846.8246	926.7804	11837.85	10877.5
846.9698	928.8041	11828.25	10867.9
847.1149	930.8272	11875.1	10913.55
847.2601	932.8495	11806.1	10845.65
847.4052	934.8711	11794.3	10831.2
847.5504	936.892	11669.55	10708.65
847.6955	938.9123	11580.85	10618.6
847.8407	940.9318	11533.2	10572.25
847.9858	942.9506	11470.35	10511.6
848.131	944.9688	11359.85	10398.25
848.2761	946.9862	11317.15	10355.25
848.4213	949.003	11226.1	10264.35
848.5664	951.019	11170.35	10210.25
848.7115	953.0344	11160.75	10197.25
848.8567	955.0491	11166.3	10205.25
849.0018	957.063	11246.25	10283.9
849.147	959.0763	11358.5	10396.85
849.2921	961.0888	11409.15	10446.85
849.4373	963.1007	11479.55	10524.4
849.5824	965.1119	11541.3	10590.3
849.7275	967.1223	11545.8	10599.15
849.8727	969.1321	11512.75	10567.1
850.0178	971.1412	11527.8	10574.8
850.1629	973.1495	11563.7	10609.95
850.3081	975.1572	11624.05	10620.05
850.4532	977.1641	11649.3	10689.1
850.5983	979.1704	11633.2	10669.45
850.7435	981.1759	11616.45	10652.9
850.8886	983.1808	11641.45	10680.25
851.0337	985.1849	11703.1	10728.2
851.1788	987.1884	11822.75	10859.9
851.324	989.1911	11988.6	11029.3
851.4691	991.1932	12064.65	11103.15
851.6142	993.1945	12092.65	11134
851.7593	995.1951	12051.8	11091.65
851.9045	997.1951	12041.95	11080.25
852.0496	999.1943	12006.3	11044.45
852.1947	1001.1928	11957.75	10991.5
852.3398	1003.1906	11962	11003.9
852.4849	1005.1877	12059.1	11098.95
852.63	1007.1841	12053.1	11094.95
852.7751	1009.1798	12046.05	11088.35
852.9202	1011.1748	11888.15	10929.3
853.0653	1013.1691	11721.7	10762.6
853.2104	1015.1627	11531.5	10572.3
853.3555	1017.1556	11322.15	10362.1
853.5006	1019.1477	11209.25	10253
853.6457	1021.1392	11114.3	10165.6
853.7908	1023.1299	11116.95	10171.2
853.9359	1025.12	11126.15	10186.35
854.081	1027.1093	11179.05	10251.45
854.2261	1029.0979	11298.8	10375.1
854.3712	1031.0859	11329.85	10397.15
854.5163	1033.0731	11374	10431.95
854.6613	1035.0596	11318.15	10369.2
854.8064	1037.0454	11175.1	10222.15
854.9515	1039.0304	11100.55	10147.7
855.0965	1041.0148	10984.6	10032.6
855.2416	1042.9985	10887.9	9932.5
855.3867	1044.9814	10842.05	9890.1
855.5317	1046.9636	10816.95	9859.7
855.6768	1048.9452	10804.7	9848.55
855.8219	1050.926	10811.95	9858.95
855.9669	1052.9061	10809.05	9853.7
856.112	1054.8855	10837.75	9877.4
856.257	1056.8642	10857.3	9899.65
856.4021	1058.8421	10943.35	9978.65
856.5471	1060.8194	10961.8	10003.05
856.6921	1062.7959	11016.65	10056.85
856.8372	1064.7717	11035.4	10074.85
856.9822	1066.7469	11057.95	10101.3
857.1272	1068.7213	11107.7	10146.95
857.2723	1070.695	11158	10205.25
857.4173	1072.6679	11064.2	10107.85
857.5623	1074.6402	11079.2	10123.55
857.7073	1076.6117	11048.05	10086.15
857.8523	1078.5826	11004.35	10046.5
857.9973	1080.5527	10956.7	9995.85
858.1423	1082.5221	11000.35	10041.9
858.2873	1084.4908	11076.4	10119.75
858.4323	1086.4587	11257.25	10299.15
858.5773	1088.426	11348.4	10391.4
858.7223	1090.3925	11355.75	10394.15
858.8673	1092.3584	11334.75	10377.9
859.0123	1094.3235	11231.95	10276.3
859.1573	1096.2879	11241.75	10288.3
859.3022	1098.2515	11293.25	10337.7
859.4472	1100.2145	11387.7	10431.75
859.5922	1102.1767	11518.3	10560.35
859.7371	1104.1382	11709.25	10752.4
859.8821	1106.099	11932.3	10977.65
860.027	1108.0591	12140.15	11185.55
860.172	1110.0185	12285	11324.8
860.3169	1111.9771	12363.45	11411
860.4619	1113.9351	12150.4	11194.65
860.6068	1115.8923	11914.7	10959
860.7517	1117.8488	11677.7	10720.25
860.8967	1119.8045	11450.85	10493.1
861.0416	1121.7596	11344.25	10393.95
861.1865	1123.7139	11249.35	10293.75
861.3314	1125.6675	11245.25	10292.15
861.4763	1127.6204	11318.6	10365.45
861.6212	1129.5726	11277.2	10322.45
861.7661	1131.524	11237.1	10282.7
861.911	1133.4748	11173.7	10215.15
862.0559	1135.4248	11089.35	10131.55
862.2008	1137.3741	11027.35	10072.15
862.3457	1139.3226	10940.05	9985.7
862.4905	1141.2705	10887.25	9932.85
862.6354	1143.2176	10815.45	9857.1
862.7803	1145.164	10790.25	9832.85
862.9251	1147.1097	10798.45	9845.1
863.07	1149.0546	10769.15	9809.8
863.2148	1150.9989	10661.95	9708.8
863.3597	1152.9424	10555.7	9600.1
863.5045	1154.8852	10416.05	9463.3
863.6493	1156.8272	10343.85	9388.55
863.7942	1158.7686	10339.75	9376.35
863.939	1160.7092	10316.15	9360.9
864.0838	1162.6491	10313	9354.35
864.2286	1164.5883	10421	9466.95
864.3734	1166.5267	10509.75	9553
864.5182	1168.4644	10641.85	9688.7
864.663	1170.4014	10836.85	9881.55
864.8078	1172.3377	11074.4	10124.5
864.9526	1174.2732	11353.2	10402.3
865.0974	1176.2081	11649	10694.95
865.2421	1178.1421	11962.75	11005.65
865.3869	1180.0755	12327.35	11372.15
865.5317	1182.0082	12510.8	11557.4
865.6764	1183.9401	12615.3	11669.1
865.8212	1185.8713	12454.6	11508.6
865.9659	1187.8017	12211.65	11275.6
866.1106	1189.7315	11884.75	10953.65
866.2554	1191.6605	11573.3	10646.85
866.4001	1193.5888	11357.4	10421.15
866.5448	1195.5163	11202.6	10258.05
866.6895	1197.4432	11163.8	10217.35
866.8342	1199.3693	11130.5	10181.7
866.9789	1201.2947	11119.15	10167.2
867.1236	1203.2193	11082.5	10132
867.2683	1205.1432	11106.05	10153.1
867.413	1207.0664	11101.75	10156.15
867.5576	1208.9889	11115.15	10161.95
867.7023	1210.9106	11126.6	10179.95
867.847	1212.8316	11169.45	10224.75
867.9916	1214.7519	11195.1	10237.05
868.1363	1216.6715	11215.75	10266.3
868.2809	1218.5903	11242.6	10294.6
868.4255	1220.5084	11258.3	10307.6
868.5701	1222.4257	11275.9	10328
868.7148	1224.3424	11270.85	10325.05
868.8594	1226.2583	11349.2	10396.4
869.004	1228.1735	11449.55	10503.1
869.1486	1230.0879	11575.45	10628.25
869.2932	1232.0016	11701.65	10756.05
869.4377	1233.9146	11784.75	10833.65
869.5823	1235.8269	11716.25	10768.7
869.7269	1237.7384	11577.35	10623.4
869.8715	1239.6492	11425.45	10476.05
870.016	1241.5592	11348.85	10398.45
870.1606	1243.4686	11348	10399.7
870.3051	1245.3772	11377.75	10429.75
870.4496	1247.285	11465.45	10516.05
870.5941	1249.1922	11462.6	10515.55
870.7387	1251.0986	11500.2	10550.4
870.8832	1253.0042	11511.05	10561.5
871.0277	1254.9092	11606.05	10658.7
871.1722	1256.8134	11652.6	10707.75
871.3167	1258.7169	11790.55	10841.8
871.4611	1260.6196	11981.7	11038.3
871.6056	1262.5216	12172.15	11225.15
871.7501	1264.4229	12384	11438.4
871.8945	1266.3234	12546	11600.05
872.039	1268.2232	12659.6	11709.95
872.1834	1270.1223	12676.75	11728.9
872.3278	1272.0207	12699.3	11753.6
872.4723	1273.9183	12678.6	11725.65
872.6167	1275.8151	12592.35	11647.25
872.7611	1277.7113	12533.25	11588.4
872.9055	1279.6067	12480.4	11536.1
873.0499	1281.5014	12505.7	11559.65
873.1943	1283.3953	12633.4	11684.2
873.3386	1285.2885	12823.5	11876.75
873.483	1287.181	13022.65	12075.45
873.6274	1289.0727	13239.45	12294.8
873.7717	1290.9637	13390.05	12446.3
873.9161	1292.854	13541.95	12596.3
874.0604	1294.7435	13620.25	12675.85
874.2047	1296.6323	13717.3	12773.7
874.349	1298.5204	13772.65	12823.65
874.4933	1300.4077	13834.45	12888.05
874.6376	1302.2943	13835.2	12892.95
874.7819	1304.1802	13797.8	12854.95
874.9262	1306.0653	13545.45	12600.2
875.0705	1307.9497	13235.1	12290.2
875.2147	1309.8333	13005.4	12061.1
875.359	1311.7162	12830.45	11884.45
875.5032	1313.5984	12764.55	11816.7
875.6475	1315.4798	12728.4	11779.2
875.7917	1317.3605	12757.75	11797.15
875.9359	1319.2405	12771.2	11824.15
876.0801	1321.1197	12649.55	11700.5
876.2243	1322.9982	12462.9	11512.7
876.3685	1324.876	12319.05	11375.2
876.5127	1326.753	12150.9	11204.55
876.6569	1328.6293	12064.1	11118.35
876.801	1330.5048	12024.05	11071.7
876.9452	1332.3796	11948	11004.65
877.0893	1334.2537	11869.55	10898.7
877.2335	1336.127	11828.3	10882.4
877.3776	1337.9996	11796.95	10851.7
877.5217	1339.8714	11815.85	10869
877.6658	1341.7426	11801.35	10811.7
877.8099	1343.6129	11770.55	10823.25
877.954	1345.4826	11763.3	10816.15
878.0981	1347.3515	11731.15	10779.35
878.2422	1349.2196	11711	10761.45
878.3862	1351.087	11700.4	10752.95
878.5303	1352.9537	11773.8	10824.1
878.6743	1354.8197	11901.95	10956.4
878.8184	1356.6849	12057.55	11112.4
878.9624	1358.5493	12152.8	11206.55
879.1064	1360.4131	12259.2	11315.25
879.2504	1362.276	12288.2	11342.6
879.3944	1364.1383	12206.75	11261.75
879.5384	1365.9998	12003.75	11053.95
879.6823	1367.8606	11656.8	10710.9
879.8263	1369.7206	11347.45	10400.25
879.9702	1371.5799	11054.8	10105.85
880.1142	1373.4384	10804.55	9854.5
880.2581	1375.2962	10672.5	9729.15
880.402	1377.1533	10362.8	9418.45
880.5459	1379.0096	10032.65	9094.75
880.6898	1380.8652	9761.8	8824.55
880.8337	1382.7201	9475.45	8536.5
880.9776	1384.5742	9260.1	8319.4
881.1215	1386.4275	9102.35	8153.75
881.2653	1388.2802	8962.75	8018.65
881.4092	1390.132	8837.15	7889.25
881.553	1391.9832	8774.35	7829.45
881.6968	1393.8336	8692.75	7748.75
881.8406	1395.6832	8678.2	7731.35
881.9844	1397.5322	8628	7685.35
882.1282	1399.3803	8580.65	7633.05
882.272	1401.2278	8563.4	7621.6
882.4158	1403.0745	8564.95	7621.35
882.5595	1404.9204	8555	7617.2
882.7033	1406.7656	8577.65	7634
882.847	1408.6101	8601.05	7659.15
882.9908	1410.4538	8600.4	7659.05
883.1345	1412.2968	8655.75	7716.05
883.2782	1414.139	8680.45	7737.55
883.4219	1415.9805	8804.65	7860.75
883.5656	1417.8213	8868.15	7917.9
883.7092	1419.6613	8968.25	8027.95
883.8529	1421.5006	9138.95	8195.55
883.9965	1423.3391	9367.2	8423.85
884.1402	1425.1769	9680.35	8735.35
884.2838	1427.0139	10123.45	9183.8
884.4274	1428.8502	10683.65	9738.45
884.571	1430.6858	11246.8	10306.35
884.7146	1432.5206	11616.8	10674.8
884.8582	1434.3547	11844.8	10901.15
885.0018	1436.188	11878.15	10938.9
885.1453	1438.0206	11799.5	10858.35
885.2889	1439.8524	11647.8	10706.75
885.4324	1441.6835	11523.9	10582.85
885.5759	1443.5139	11400.45	10453.45
885.7194	1445.3435	11361.95	10424.5
885.8629	1447.1724	11297.2	10355.15
886.0064	1449.0005	11220.9	10283.3
886.1499	1450.8279	11185.55	10246.85
886.2933	1452.6545	11134.05	10196
886.4368	1454.4804	11172.9	10237
886.5802	1456.3056	11131.95	10190.15
886.7237	1458.13	11051.4	10114.65
886.8671	1459.9536	10877	9936.15
887.0105	1461.7766	10554.95	9615
887.1539	1463.5987	10198.55	9258.5
887.2972	1465.4202	9824.2	8885.2
887.4406	1467.2409	9487.1	8547.35
887.584	1469.0608	9200.85	8262.1
887.7273	1470.88	8914.9	7975.9
887.8706	1472.6984	8697.2	7759.6
888.0139	1474.5161	8520.6	7579.35
888.1572	1476.3331	8356.45	7420.75
888.3005	1478.1493	8224.6	7288.5
888.4438	1479.9648	8156.95	7220.05
888.5871	1481.7795	8062.25	7121
888.7303	1483.5935	7996.9	7057.2
888.8736	1485.4067	7937.4	6996.65
889.0168	1487.2192	7890.55	6955
889.16	1489.031	7845.5	6905.15
889.3032	1490.842	7804.8	6870.35
889.4464	1492.6522	7776.3	6838.2
889.5896	1494.4618	7736.3	6796.1
889.7327	1496.2705	7717.1	6782.8
889.8759	1498.0785	7673.15	6734.95
890.019	1499.8858	7637.4	6698.55
890.1622	1501.6924	7592.95	6653.5
890.3053	1503.4981	7578.2	6639.6
890.4484	1505.3032	7537.6	6598.65
890.5914	1507.1075	7492.2	6550.5
890.7345	1508.911	7468.5	6529.85
890.8776	1510.7138	7430.85	6495.1
891.0206	1512.5159	7372.95	6438.55
891.1637	1514.3172	7318	6383.65
891.3067	1516.1178	7302.8	6366.8
891.4497	1517.9176	7264	6325.9
891.5927	1519.7166	7229.1	6294.1
891.7357	1521.515	7204.1	6262.15
891.8786	1523.3126	7168.35	6232
892.0216	1525.1094	7143.15	6202.85
892.1645	1526.9055	7120.3	6186.5
892.3074	1528.7008	7078.35	6146.8
892.4503	1530.4954	7050.95	6114.65
892.5932	1532.2893	7042.15	6113.2
892.7361	1534.0824	7011.1	6076.95
892.879	1535.8747	7017.55	6086.75
893.0218	1537.6663	6993.05	6065.7
893.1647	1539.4572	6985.4	6054.85
893.3075	1541.2473	6997.1	6066.15
893.4503	1543.0367	6987.15	6059
893.5931	1544.8253	6996.65	6060.1
893.7359	1546.6132	6979.6	6045.8
893.8787	1548.4003	6983.4	6042.7
894.0214	1550.1867	7041.2	6103
894.1642	1551.9723	7082.05	6151
894.3069	1553.7572	7138.65	6211.35
894.4496	1555.5414	7197.25	6270.65
894.5923	1557.3247	7279.85	6355.9
894.735	1559.1074	7380.55	6457.85
894.8777	1560.8893	7487.6	6563.85
895.0204	1562.6705	7601.65	6677.5
895.163	1564.4509	7707	6783.8
895.3056	1566.2305	7746.9	6826.1
895.4482	1568.0094	7793.3	6874
895.5908	1569.7876	7816.15	6897.65
895.7334	1571.565	7812.35	6889.55
895.876	1573.3417	7801.35	6877.35
896.0186	1575.1176	7798.45	6877.65
896.1611	1576.8928	7752.8	6836.4
896.3036	1578.6672	7694.05	6783.75
896.4461	1580.4409	7650.45	6739.85
896.5886	1582.2138	7589.25	6674.25
896.7311	1583.986	7527.85	6610.15
896.8736	1585.7575	7500.15	6583.55
897.0161	1587.5282	7514.8	6601.75
897.1585	1589.2981	7539.05	6625.6
897.3009	1591.0673	7549.35	6636.7
897.4433	1592.8358	7590.15	6676.5
897.5857	1594.6035	7627.6	6708.45
897.7281	1596.3704	7676.3	6755.45
897.8705	1598.1366	7736.2	6820.3
898.0128	1599.9021	7802.85	6888.9
898.1551	1601.6668	7889.75	6973.45
898.2975	1603.4308	7990.3	7071.2
898.4398	1605.194	8132.4	7210.25
898.5821	1606.9564	8259.5	7349.65
898.7243	1608.7182	8451.25	7543.3
898.8666	1610.4791	8660.55	7761.05
899.0088	1612.2394	8885.75	7987.85
899.1511	1613.9988	9092.65	8188.9
899.2933	1615.7576	9329.25	8420.2
899.4355	1617.5156	9529.6	8607.65
899.5776	1619.2728	9662.8	8745.35
899.7198	1621.0293	9724.6	8810.75
899.862	1622.785	9648.2	8732.95
900.0041	1624.54	9470.25	8562.15
900.1462	1626.2942	9262.4	8355.85
900.2883	1628.0477	8983.15	8073.4
900.4304	1629.8005	8706.05	7796.95
900.5725	1631.5525	8476.85	7570.85
900.7145	1633.3037	8278.1	7372.15
900.8566	1635.0542	8128	7222.75
900.9986	1636.804	7999.65	7094.2
901.1406	1638.553	7992.95	7007.8
901.2826	1640.3013	7904	6995.3
901.4245	1642.0488	7901.2	6991.9
901.5665	1643.7955	7902.65	7000
901.7085	1645.5416	7974.05	7069.85
901.8504	1647.2868	8076.15	7170
901.9923	1649.0313	8187.05	7277.2
902.1342	1650.7751	8329.9	7417.2
902.2761	1652.5181	8481.5	7577.2
902.4179	1654.2604	8679.8	7775.4
902.5598	1656.0019	8921.15	8014.7
902.7016	1657.7427	9203.55	8295.05
902.8434	1659.4828	9461.35	8553.3
902.9852	1661.222	9627.5	8714.45
903.127	1662.9606	9592.8	8686.05
903.2687	1664.6984	9355.8	8444.45
903.4105	1666.4354	8925.7	8010.65
903.5522	1668.1717	8414.5	7502.25
903.6939	1669.9072	7895.8	6985.4
903.8356	1671.642	7458.4	6543.7
903.9773	1673.3761	7093.55	6183.25
904.119	1675.1094	6804.65	5895.55
904.2606	1676.8419	6546.1	5637.1
904.4022	1678.5737	6374.1	5463.75
904.5439	1680.3048	6218.7	5308.4
904.6855	1682.0351	6116.25	5208.65
904.827	1683.7646	6009.75	5096.8
904.9686	1685.4934	5935.6	5028.05
905.1101	1687.2215	5887.4	4981.1
905.2517	1688.9488	5791.85	4887.05
905.3932	1690.6754	5742.75	4834.6
905.5347	1692.4012	5727.15	4819.8
905.6761	1694.1263	5684.85	4779.1
905.8176	1695.8506	5654.15	4748.3
905.9591	1697.5742	5588.7	4687.3
906.1005	1699.297	5550.65	4648.4
906.2419	1701.0191	5520.1	4619.7
906.3833	1702.7404	5500.75	4599.85
906.5246	1704.461	5448.5	4545.6
906.666	1706.1808	5422.4	4517.6
906.8073	1707.8999	5392.9	4489.15
906.9487	1709.6182	5356.65	4457.35
907.09	1711.3358	5343.05	4445.65
907.2313	1713.0527	5321.2	4423.35
907.3725	1714.7688	5300.15	4396.25
907.5138	1716.4841	5277.45	4374
907.655	1718.1987	5249.9	4344.15
907.7962	1719.9126	5211.45	4313.4
907.9374	1721.6257	5199.95	4303.95
908.0786	1723.338	5207.85	4310.4
908.2198	1725.0496	5166.85	4268.65
908.3609	1726.7605	5169.85	4267.5
908.502	1728.4706	5149.1	4249.15
908.6431	1730.18	5109.2	4210.15
908.7842	1731.8886	5101.35	4206.75
908.9253	1733.5964	5106.05	4188.7
909.0664	1735.3036	5067.2	4162.2
909.2074	1737.0099	5063	4164.75
909.3484	1738.7156	5046	4151
909.4894	1740.4204	4990.35	4087.6
909.6304	1742.1246	4989.15	4089.4
909.7714	1743.8279	4968.9	4073.4
909.9123	1745.5306	4963.85	4068.05
910.0532	1747.2325	4934.45	4039.2
910.1941	1748.9336	4913.85	4016.2
910.335	1750.634	4904.55	4002.35
910.4759	1752.3336	4884.35	3984.4
910.6168	1754.0325	4867.3	3972.85
910.7576	1755.7307	4852.55	3957.8
910.8984	1757.4281	4853.25	3956.75
911.0392	1759.1247	4856	3946.75
911.18	1760.8206	4838.35	3931.7
911.3208	1762.5158	4842.35	3935.6
911.4615	1764.2102	4802.6	3901
911.6022	1765.9039	4780.65	3882.6
911.7429	1767.5968	4777.1	3883.8
911.8836	1769.289	4760.65	3866.05
912.0243	1770.9804	4754.95	3855.1
912.1649	1772.6711	4746.35	3844.2
912.3056	1774.361	4736.25	3836.1
912.4462	1776.0502	4722	3821.5
912.5868	1777.7386	4721.45	3815
912.7274	1779.4263	4698.35	3802
912.8679	1781.1132	4690	3796.75
913.0084	1782.7994	4676.25	3781.6
913.149	1784.4849	4672.45	3779.7
913.2895	1786.1696	4648.25	3746.3
913.4299	1787.8535	4641.4	3749.9
913.5704	1789.5367	4636.95	3748.2
913.7108	1791.2192	4620.65	3731.3
913.8513	1792.9009	4637.1	3713.7
913.9917	1794.5818	4613.55	3711.6
914.132	1796.2621	4591.4	3693.05
914.2724	1797.9415	4591.9	3693.4
914.4128	1799.6202	4568.45	3670.8
914.5531	1801.2982	4567.05	3668.45
914.6934	1802.9755	4553.05	3653.25
914.8337	1804.6519	4556.15	3656.25
914.9739	1806.3277	4521.25	3628.2
915.1142	1808.0027	4514.4	3622.4
915.2544	1809.6769	4506.15	3615.85
915.3946	1811.3504	4503.4	3613.6
915.5348	1813.0231	4488.4	3595.55
915.675	1814.6951	4472.5	3579.2
915.8151	1816.3664	4484.3	3587.7
915.9553	1818.0369	4469.1	3571
916.0954	1819.7067	4454.85	3559.05
916.2355	1821.3757	4460.5	3561.2
916.3755	1823.044	4451	3555.3
916.5156	1824.7115	4433.5	3537.05
916.6556	1826.3783	4416.5	3520.1
916.7956	1828.0443	4414.9	3520.35
916.9356	1829.7096	4380.75	3484.45
917.0756	1831.3741	4385	3486.2
917.2155	1833.0379	4376.05	3482.1
917.3555	1834.701	4387.85	3493
917.4954	1836.3633	4367.3	3477
917.6353	1838.0248	4352.85	3458.95
917.7751	1839.6856	4350.8	3457.1
917.915	1841.3457	4355.85	3460.6
918.0548	1843.005	4336.35	3439.55
918.1946	1844.6636	4327.55	3431.7
918.3344	1846.3214	4319.95	3427.65
918.4742	1847.9785	4316.9	3421.95
918.6139	1849.6349	4309.7	3410.2
918.7537	1851.2904	4314.15	3407.25
918.8934	1852.9453	4296.2	3396.35
919.0331	1854.5994	4274.75	3375.35
919.1727	1856.2528	4302.95	3402.1
919.3124	1857.9054	4265.9	3369.2
919.452	1859.5572	4259.75	3367.6
919.5916	1861.2083	4267.95	3372.25
919.7312	1862.8587	4268.7	3372.25
919.8708	1864.5084	4256.65	3358.1
920.0103	1866.1572	4243.3	3347.1
920.1498	1867.8054	4226.45	3327.55
920.2893	1869.4528	4221	3322.5
920.4288	1871.0994	4199.3	3298.3
920.5683	1872.7453	4195.7	3297.3
920.7077	1874.3905	4199.6	3287.2
920.8471	1876.0349	4172.8	3274.9
920.9865	1877.6786	4174.65	3277.5
921.1259	1879.3215	4173.35	3276.45
921.2653	1880.9637	4162.95	3266
921.4046	1882.6051	4164.95	3271.55
921.5439	1884.2458	4127.9	3231.85
921.6832	1885.8858	4121.65	3229.25
921.8225	1887.525	4128.55	3233.25
921.9617	1889.1634	4100.5	3205.05
922.101	1890.8011	4102	3202.35
922.2402	1892.4381	4082.65	3185.45
922.3794	1894.0743	4080.5	3185.25
922.5185	1895.7098	4079.55	3184.05
922.6577	1897.3446	4074.05	3176.15
922.7968	1898.9786	4061	3162.15
922.9359	1900.6118	4056.2	3161.05
923.075	1902.2443	4035.65	3142.05
923.214	1903.8761	4027.6	3132.5
923.3531	1905.5071	4001.25	3104.6
923.4921	1907.1374	3993.1	3097.95
923.6311	1908.7669	3981.75	3086.05
923.77	1910.3957	3978.95	3085.55
923.909	1912.0237	3974.7	3081.4
924.0479	1913.651	3962	3065.7
924.1868	1915.2776	3949	3054.65
924.3257	1916.9034	3944.35	3049.45
924.4646	1918.5285	3928.25	3035.1
924.6034	1920.1528	3913.85	3021.3
924.7422	1921.7764	3907.5	3013.65
924.881	1923.3992	3906.2	3013.25
925.0198	1925.0213	3879.6	2984.8
925.1586	1926.6427	3874.85	2979.9
925.2973	1928.2633	4037.05	2933.65
925.436	1929.8832	3869.55	2970.4
925.5747	1931.5023	3845	2949.85
925.7134	1933.1207	3837.6	2941.1
925.852	1934.7383	3823.4	2928.5
925.9906	1936.3552	3810.4	2919.45
926.1292	1937.9714	3793.7	2899.4
926.2678	1939.5868	3786.25	2888.15
926.4064	1941.2015	3791.45	2894.85
926.5449	1942.8154	3775.75	2878.8
926.6834	1944.4286	3752.65	2856.95
926.8219	1946.041	3757	2843.7
926.9604	1947.6528	3735.9	2835.4
927.0988	1949.2637	3722.5	2828.8
927.2372	1950.8739	3730	2836.5
927.3756	1952.4834	3713.2	2820.7
927.514	1954.0921	3703	2806.8
927.6523	1955.7001	3697	2800.85
927.7907	1957.3074	3683.7	2794.25
927.929	1958.9139	3663.6	2773.5
928.0673	1960.5197	3651.3	2760.25
928.2055	1962.1247	3643.8	2753.3
928.3438	1963.729	3628.75	2739.85
928.482	1965.3325	3616.4	2723.7
928.6202	1966.9353	3599.5	2712.65
928.7584	1968.5374	3592.65	2703.65
928.8965	1970.1387	3596	2706.05
929.0346	1971.7393	3586.85	2694.55
929.1727	1973.3392	3581.75	2691.85
929.3108	1974.9383	3557.15	2671.2
929.4489	1976.5366	3542.4	2653.55
929.5869	1978.1342	3540.35	2653.7
929.7249	1979.7311	3530.6	2641.1
929.8629	1981.3273	3527.65	2640.9
930.0009	1982.9227	3519.7	2632.35
930.1388	1984.5173	3511.3	2624.85
930.2767	1986.1112	3497.35	2609.25
930.4146	1987.7044	3492.75	2606.4
930.5525	1989.2968	3487.05	2596.05
930.6904	1990.8885	3481.65	2593.6
930.8282	1992.4795	3454.4	2570.75
930.966	1994.0697	3465.15	2580.25
931.1038	1995.6592	3451.1	2567.7
931.2415	1997.2479	3449.9	2562.5
931.3793	1998.8359	3434.35	2548.85
931.517	2000.4232	3428.7	2546.9
931.6547	2002.0097	3413.1	2531.6
931.7923	2003.5955	3398.7	2517.45
931.93	2005.1805	3395.25	2511.3
932.0676	2006.7648	3399.95	2518.25
932.2052	2008.3484	3374.4	2490.75
932.3427	2009.9312	3383.25	2500.85
932.4803	2011.5133	3380.4	2501.65
932.6178	2013.0946	3368.15	2487.3
932.7553	2014.6752	3353.05	2472.85
932.8928	2016.2551	3351.35	2468.05
933.0302	2017.8342	3336.75	2453.75
933.1676	2019.4126	3327.4	2445.6
933.305	2020.9902	3328.55	2451.3
933.4424	2022.5672	3309.8	2427.65
933.5798	2024.1433	3306.9	2423.45
933.7171	2025.7188	3293.85	2417.2
933.8544	2027.2935	3277.6	2397.55
933.9917	2028.8674	3286.75	2408.55
934.129	2030.4406	3287.45	2412.35
934.2662	2032.0131	3278.7	2400.9
934.4034	2033.5849	3272.85	2388.1
934.5406	2035.1559	3270.2	2394.25
934.6778	2036.7261	3253.1	2372.8
934.8149	2038.2957	3246.25	2363
934.952	2039.8645	3245.2	2361.1
935.0891	2041.4325	3241.55	2354
935.2262	2042.9998	3238.65	2355.8
935.3632	2044.5664	3225.8	2343.85
935.5002	2046.1323	3207.55	2328.85
935.6372	2047.6974	3202.55	2323.15
935.7742	2049.2617	3199.25	2320.8
935.9111	2050.8254	3237.5	2322.15
936.048	2052.3883	3203.4	2319.15
936.1849	2053.9504	3198.95	2315.5
936.3218	2055.5118	3179.3	2292.95
936.4586	2057.0725	3176.25	2288.9
936.5955	2058.6325	3150.8	2270
936.7323	2060.1917	3148.1	2268.4
936.869	2061.7502	3155.5	2273.15
937.0058	2063.3079	3148.4	2270.3
937.1425	2064.8649	3121.4	2239.3
937.2792	2066.4212	3129.75	2248.75
937.4159	2067.9767	3131.6	2247.9
937.5525	2069.5315	3107.15	2226.55
937.6891	2071.0856	3105.45	2225.65
937.8257	2072.6389	3098.35	2216.45
937.9623	2074.1915	3083.55	2206.2
938.0989	2075.7433	3074.25	2190.15
938.2354	2077.2945	3066.25	2184.2
938.3719	2078.8448	3060.2	2175.25
938.5084	2080.3945	3057	2171.5
938.6448	2081.9434	3078.15	2196.5
938.7812	2083.4916	3052.35	2163.55
938.9176	2085.039	3046.1	2155.25
939.054	2086.5857	3041.45	2149.75
939.1903	2088.1317	3027.45	2135.05
939.3267	2089.677	3034.05	2139.75
939.463	2091.2215	3019.35	2129.65
939.5992	2092.7652	3004.35	2110.9
939.7355	2094.3083	3011.55	2118.65
939.8717	2095.8506	3011.95	2126.05
940.0079	2097.3921	3000.95	2114.65
940.1441	2098.933	2989.8	2101.35
940.2802	2100.4731	2976.35	2089.25
940.4163	2102.0124	2991.1	2097.45
940.5524	2103.5511	2980.2	2092.4
940.6885	2105.089	2967.95	2077
940.8245	2106.6261	2966.7	2080.25
940.9606	2108.1626	2962.6	2075.65
941.0965	2109.6983	2986	2071.75
941.2325	2111.2332	2965	2078
941.3684	2112.7675	2938.4	2050
941.5044	2114.301	2940.7	2049.25
941.6403	2115.8337	2944.65	2055.2
941.7761	2117.3657	2921.75	2033.4
941.912	2118.897	2918.55	2029.75
942.0478	2120.4276	2928.05	2033.4
942.1835	2121.9575	2920.6	2030.7
942.3193	2123.4866	2912.8	2021.45
942.455	2125.0149	2903.5	2011.85
942.5907	2126.5426	2890.2	2003.8
942.7264	2128.0695	2890.8	2006.7
942.8621	2129.5956	2877.05	1997.55
942.9977	2131.1211	2868.6	1981.35
943.1333	2132.6458	2872.95	1989.35
943.2689	2134.1698	2870.8	1981.3
943.4044	2135.693	2868	1975.05
943.54	2137.2155	2860.2	1966.95
943.6755	2138.7373	2850.7	1962.6
943.8109	2140.2584	2841.85	1958.25
943.9464	2141.7787	2833.4	1947.85
944.0818	2143.2983	2834.65	1956.55
944.2172	2144.8171	2808.6	1930.85
944.3526	2146.3353	2819.45	1935.6
944.4879	2147.8527	2801.3	1916.65
944.6232	2149.3693	2808.8	1920.3
944.7585	2150.8853	2808.35	1920.35
944.8938	2152.4005	2796.95	1907.8
945.029	2153.9149	2793.5	1902.65
945.1642	2155.4287	2787.6	1898.35
945.2994	2156.9417	2786.4	1899.8
945.4346	2158.454	2783.85	1896.65
945.5697	2159.9655	2761.05	1877.15
945.7048	2161.4764	2767.75	1884.3
945.8399	2162.9865	2753.3	1867.75
945.9749	2164.4958	2766.7	1882.75
946.1099	2166.0045	2744.15	1856.35
946.2449	2167.5124	2742.65	1857.55
946.3799	2169.0195	2736.55	1849.6
946.5148	2170.526	2745.5	1854.45
946.6498	2172.0317	2741.1	1854.1
946.7846	2173.5367	2727.95	1841.95
946.9195	2175.0409	2726.25	1841.65
947.0543	2176.5445	2731.4	1844.4
947.1891	2178.0473	2726.05	1835.05
947.3239	2179.5494	2714.8	1824.85
947.4587	2181.0507	2683.5	1796.85
947.5934	2182.5513	2701.8	1815.2
947.7281	2184.0512	2689.2	1801.95
947.8628	2185.5504	2687.75	1798.7
947.9974	2187.0488	2671.25	1787.05
948.132	2188.5465	2661.8	1778.1
948.2666	2190.0435	2668.65	1780.05
948.4012	2191.5397	2656	1769.65
948.5357	2193.0353	2652.25	1761.7
948.6702	2194.5301	2642.65	1753.1
948.8047	2196.0241	2643.2	1750.95
948.9392	2197.5175	2641.85	1746.55
949.0736	2199.0101	2636.05	1739.3
949.208	2200.502	2620.4	1730.3
949.3424	2201.9931	2615.45	1731.2
949.4767	2203.4835	2597.75	1713.25
949.611	2204.9733	2606.7	1717.1
949.7453	2206.4622	2602	1720.35
949.8796	2207.9505	2594.25	1711.75
950.0138	2209.438	2571.1	1690.25
950.148	2210.9248	2566.6	1683.45
950.2822	2212.4109	2571.95	1684.8
950.4164	2213.8962	2571.65	1679.55
950.5505	2215.3809	2569.9	1674.05
950.6846	2216.8648	2570.85	1675.4
950.8186	2218.3479	2569.2	1671.05
950.9527	2219.8304	2565.9	1666.95
951.0867	2221.3121	2551.7	1657.35
951.2207	2222.7931	2536.4	1644.65
951.3546	2224.2733	2536.9	1648.05
951.4886	2225.7529	2527.95	1639.6
951.6225	2227.2317	2521.95	1634.35
951.7563	2228.7098	2519.2	1635.75
951.8902	2230.1872	2504.25	1622.4
952.024	2231.6638	2501.2	1616.6
952.1578	2233.1397	2489.05	1601.6
952.2916	2234.6149	2506.55	1624.5
952.4253	2236.0894	2497.5	1612.45
952.559	2237.5632	2482.4	1585.85
952.6927	2239.0362	2471.75	1583.75
952.8263	2240.5085	2468.15	1582.7
952.9599	2241.9801	2462.3	1575.55
953.0935	2243.4509	2468.75	1576.45
953.2271	2244.921	2464.2	1571.5
953.3606	2246.3904	2452.55	1559.15
953.4941	2247.8591	2444.2	1554.45
953.6276	2249.3271	2437.6	1549.75
953.7611	2250.7943	2436.5	1545.65
953.8945	2252.2608	2430.15	1540.15
954.0279	2253.7266	2419.2	1529
954.1612	2255.1917	2429.4	1538.65
954.2946	2256.656	2415.65	1526.5
954.4279	2258.1197	2413.5	1529.1
954.5612	2259.5826	2411.35	1525.1
954.6944	2261.0447	2404.75	1513.95
954.8276	2262.5062	2389.65	1499.35
954.9608	2263.9669	2400	1509.2
955.094	2265.4269	2391.8	1500.25
955.2271	2266.8862	2391.4	1504.7
955.3602	2268.3448	2378.9	1490.7
955.4933	2269.8026	2377.3	1491.4
955.6264	2271.2598	2366.25	1479.6
955.7594	2272.7162	2365.8	1477.5
955.8924	2274.1719	2378.25	1488.35
956.0253	2275.6268	2368.35	1478.05
956.1583	2277.0811	2355.75	1463.2
956.2912	2278.5346	2363.3	1474.3
956.4241	2279.9874	2352.85	1469.3
956.5569	2281.4395	2355.15	1471.65
956.6897	2282.8908	2353	1461.75
956.8225	2284.3414	2340.65	1450.4
956.9553	2285.7914	2347.25	1458.9
957.088	2287.2406	2337.5	1445.8
957.2207	2288.689	2333.75	1443.05
957.3534	2290.1368	2333.05	1438.6
957.486	2291.5838	2331.9	1432.9
957.6186	2293.0302	2328.1	1433.3
957.7512	2294.4758	2318.65	1426.1
957.8838	2295.9206	2321.9	1431.65
958.0163	2297.3648	2307.45	1420.4
958.1488	2298.8082	2307.15	1419.8
958.2813	2300.251	2296	1405.4
958.4137	2301.693	2295.9	1401.35
958.5461	2303.1343	2286.95	1393.9
958.6785	2304.5748	2279.35	1390.65
958.8108	2306.0147	2274.3	1389.4
958.9432	2307.4538	2281.95	1396.55
959.0754	2308.8922	2270.4	1386.1
959.2077	2310.3299	2277.35	1393.45
959.3399	2311.7669	2270.75	1384.25
959.4721	2313.2031	2257.15	1369
959.6043	2314.6387	2255.05	1366.3
959.7365	2316.0735	2251	1360.35
959.8686	2317.5076	2247.35	1358.9
960.0006	2318.941	2253.65	1361.35
960.1327	2320.3737	2238.65	1346.75
960.2647	2321.8056	2238.55	1344.3
960.3967	2323.2369	2225.25	1335.05
960.5287	2324.6674	2229.85	1337.55
960.6606	2326.0972	2223.5	1335.1
960.7925	2327.5263	2219.1	1332.2
960.9244	2328.9547	2217.6	1327.35
961.0562	2330.3823	2216.65	1324.3
961.1881	2331.8092	2222.25	1324.1
961.3198	2333.2355	2205	1313.05
961.4516	2334.661	2208.8	1317.55
961.5833	2336.0858	2194.5	1301.95
961.715	2337.5098	2202.3	1312.05
961.8467	2338.9332	2191.25	1300.55
961.9783	2340.3558	2190.1	1298.45
962.1099	2341.7778	2182.35	1295.1
962.2415	2343.199	2184.05	1294
962.373	2344.6195	2175.95	1288.4
962.5045	2346.0393	2184.55	1298.15
962.636	2347.4583	2173.95	1284.45
962.7675	2348.8767	2164.7	1272.55
962.8989	2350.2943	2173.2	1280.6
963.0303	2351.7113	2177.55	1283.75
963.1617	2353.1275	2172.3	1277.7
963.293	2354.543	2176.4	1275.15
963.4243	2355.9578	2154.95	1264.25
963.5556	2357.3718	2149.65	1263.1
963.6868	2358.7852	2137.05	1249.85
963.818	2360.1978	2127.5	1241.45
963.9492	2361.6098	2133.15	1245.4
964.0803	2363.021	2143.8	1251.45
964.2114	2364.4315	2134.7	1244.5
964.3425	2365.8413	2121.6	1232.4
964.4736	2367.2504	2116.55	1229.5
964.6046	2368.6587	2117.15	1231.05
964.7356	2370.0664	2119.35	1232.9
964.8666	2371.4733	2107.55	1220.1
964.9975	2372.8795	2095.75	1207.8
965.1284	2374.285	2107.25	1217.85
965.2593	2375.6899	2093.3	1206.1
965.3901	2377.0939	2087.85	1202.15
965.5209	2378.4973	2097.5	1213.15
965.6517	2379.9	2080.7	1197.45
965.7825	2381.3019	2071.45	1185.75
965.9132	2382.7032	2071.35	1186.5
966.0439	2384.1037	2066.9	1186.1
966.1745	2385.5035	2058	1175.75
966.3051	2386.9027	2055.85	1174.25
966.4357	2388.3011	2056.25	1168.65
966.5663	2389.6987	2062.35	1176.9
966.6968	2391.0957	2038.15	1153.7
966.8273	2392.492	2035.55	1151.25
966.9578	2393.8876	2029.9	1146.2
967.0882	2395.2824	2036.75	1149.8
967.2186	2396.6765	2033	1149.55
967.349	2398.07	2028.1	1144.25
967.4793	2399.4627	2015.6	1129.45
967.6097	2400.8547	2011.8	1124.55
967.7399	2402.246	2012.45	1120.45
967.8702	2403.6366	2014.85	1128.6
968.0004	2405.0265	2001.5	1116.75
968.1306	2406.4156	2001.05	1115.85
968.2607	2407.8041	1996.65	1106.5
968.3909	2409.1918	1990.7	1102.85
968.521	2410.5789	1988.45	1101.3
968.651	2411.9652	1991.3	1105.4
968.781	2413.3508	1991.65	1105.85
968.911	2414.7358	1982.55	1097.2
969.041	2416.12	1977.8	1090.65
969.1709	2417.5035	1985.8	1100.1
969.3008	2418.8863	1973.7	1086.95
969.4307	2420.2684	1968.45	1080.25
969.5606	2421.6497	1968.85	1080.8
969.6904	2423.0304	1968.15	1083.95
969.8201	2424.4104	1956.2	1068.65
969.9499	2425.7896	1956.15	1068.45
970.0796	2427.1682	1947.1	1064.55
970.2093	2428.546	1946.15	1059.75
970.3389	2429.9232	1943.25	1057.2
970.4685	2431.2996	1935.5	1050.2
970.5981	2432.6753	1939.15	1053.45
970.7277	2434.0503	1936	1049.05
970.8572	2435.4246	1935.1	1048.25
970.9867	2436.7982	1933.85	1045.45
971.1161	2438.1711	1933.95	1046.35
971.2456	2439.5433	1922	1032.55
971.375	2440.9148	1913.55	1021.95
971.5043	2442.2856	1909.25	1024.1
971.6336	2443.6557	1911.7	1023.95
971.7629	2445.025	1910.6	1023.15
971.8922	2446.3937	1907.75	1020.15
972.0214	2447.7617	1905.7	1020.75
972.1506	2449.1289	1900.85	1015.3
972.2798	2450.4955	1907.65	1017.65
972.4089	2451.8613	1898.5	1013.7
972.538	2453.2265	1898.7	1012.2
972.6671	2454.5909	1884.75	998.05
972.7961	2455.9546	1878.5	993.3
972.9251	2457.3177	1882.7	996.15
973.0541	2458.68	1879.85	992.15
973.1831	2460.0416	1876.1	990.55
973.312	2461.4025	1871.35	982.4
973.4408	2462.7627	1880	983.6
973.5697	2464.1222	1869.15	984.25
973.6985	2465.4811	1869.3	983.8
973.8273	2466.8392	1869.3	984.5
973.956	2468.1966	1867.95	981.15
974.0847	2469.5533	1865.65	977.1
974.2134	2470.9093	1865.8	978.6
974.3421	2472.2645	1860.5	972.4
974.4707	2473.6191	1857.25	971.95
974.5993	2474.973	1855.4	968.15
974.7278	2476.3262	1852.2	962.8
974.8563	2477.6787	1851.1	966.25
974.9848	2479.0305	1834.45	950.7
975.1132	2480.3816	1834.2	945.45
975.2417	2481.7319	1829.25	942.3
975.37	2483.0816	1824.2	936.2
975.4984	2484.4306	1842.25	954.35
975.6267	2485.7789	1830.35	947.05
975.755	2487.1264	1824.75	937.25
975.8833	2488.4733	1812	927.3
976.0115	2489.8195	1828.05	936.6
976.1397	2491.165	1813.9	926.3
976.2678	2492.5097	1806.95	922.95
976.3959	2493.8538	1805.4	922.2
976.524	2495.1972	1801.5	914.5
976.6521	2496.5398	1794.55	905.3
976.7801	2497.8818	1794.75	905.25
976.9081	2499.2231	1797	907.45
977.036	2500.5637	1806.75	915.6
977.164	2501.9035	1785	895.9
977.2918	2503.2427	1791.2	898.95
977.4197	2504.5812	1792.85	907.1
977.5475	2505.919	1779.05	891.35
977.6753	2507.256	1784.45	895.9
977.8031	2508.5924	1771	886.7
977.9308	2509.9281	1775.4	882.65
978.0585	2511.2631	1774.85	889.85
978.1861	2512.5974	1769.05	883
978.3137	2513.9309	1769.35	883.45
978.4413	2515.2638	1786.15	871.9
978.5689	2516.596	1757.85	871.8
978.6964	2517.9275	1762.45	873.4
978.8239	2519.2583	1756.8	870.75
978.9513	2520.5884	1752.35	866.45
979.0788	2521.9178	1743.35	858.3
979.2062	2523.2465	1741	856.95
979.3335	2524.5745	1743.2	856.1
979.4608	2525.9018	1733.95	848.55
979.5881	2527.2284	1732.55	846.85
979.7154	2528.5543	1740.3	854.8
979.8426	2529.8796	1736.95	850.7
979.9698	2531.2041	1738.25	852.5
980.0969	2532.5279	1727.95	843
980.224	2533.851	1735	847.95
980.3511	2535.1735	1728.8	842.3
980.4781	2536.4952	1730.25	842.4
980.6052	2537.8163	1732.1	844.25
980.7321	2539.1366	1728.4	840.65
980.8591	2540.4562	1724.15	835.6
980.986	2541.7752	1718.15	830.8
981.1129	2543.0935	1714.15	826.65
981.2397	2544.411	1718.85	829.25
981.3665	2545.7279	1713.5	825.3
981.4933	2547.0441	1719	832.9
981.62	2548.3596	1710.5	821.9
981.7467	2549.6744	1702.5	815.7
981.8734	2550.9885	1711.85	821.2
982.0001	2552.3019	1698.9	811.45
982.1267	2553.6146	1697.3	809.85
982.2532	2554.9266	1700.95	814
982.3798	2556.2379	1700.45	811.6
982.5063	2557.5485	1693.8	811.1
982.6327	2558.8585	1702.9	808.4
982.7592	2560.1677	1695.65	804.9
982.8856	2561.4762	1692.9	805.2
983.0119	2562.7841	1694.4	801.9
983.1383	2564.0913	1686.95	800.75
983.2646	2565.3977	1683.8	795.8
983.3908	2566.7035	1690.35	803.5
983.517	2568.0086	1683.4	794.65
983.6432	2569.313	1683.7	795.25
983.7694	2570.6167	1683	791.25
983.8955	2571.9197	1672.95	784.95
984.0216	2573.222	1679.7	789.6
984.1476	2574.5236	1668.8	780.45
984.2737	2575.8246	1682.85	791.4
984.3996	2577.1248	1680.95	790.8
984.5256	2578.4244	1667	780.55
984.6515	2579.7232	1671.8	781.6
984.7774	2581.0214	1691.4	774.8
984.9032	2582.3189	1668.15	783.6
985.029	2583.6157	1673.8	782.6
985.1548	2584.9118	1667.25	778.2
985.2806	2586.2072	1676.2	787.5
985.4063	2587.5019	1671.2	786.15
985.5319	2588.7959	1671	784.3
985.6576	2590.0893	1669.05	778.8
985.7832	2591.3819	1669.1	783.2
985.9087	2592.6739	1658.85	769.9
986.0343	2593.9652	1668.9	781.4
986.1597	2595.2557	1668.6	781.5
986.2852	2596.5456	1670.7	782.5
986.4106	2597.8348	1666.3	781.55
986.536	2599.1234	1661.45	774.45
986.6614	2600.4112	1662.6	775.4
986.7867	2601.6983	1672.05	784.1
986.912	2602.9848	1663.25	776.4
987.0372	2604.2705	1665.05	771.55
987.1624	2605.5556	1661.4	774.95
987.2876	2606.84	1658.95	772.9
987.4128	2608.1237	1656.9	771.5
987.5379	2609.4067	1655	770.9
987.6629	2610.689	1663.1	766.95
987.788	2611.9707	1655.4	765.7
987.913	2613.2516	1650	759.8
988.0379	2614.5319	1634.65	749
988.1629	2615.8115	1635.95	749.75
988.2878	2617.0903	1636.75	748.85
988.4126	2618.3685	1633.85	746.55
988.5375	2619.6461	1622	735.3
988.6622	2620.9229	1626.9	740.15
988.787	2622.199	1622.65	735.35
988.9117	2623.4745	1629.5	743.05
989.0364	2624.7493	1627.3	741.75
989.161	2626.0234	1621.6	736.7
989.2857	2627.2968	1620.75	733.8
989.4102	2628.5695	1616.5	726.5
989.5348	2629.8415	1617.6	733.25
989.6593	2631.1128	1623.3	736.9
989.7837	2632.3835	1614.75	728.75
989.9082	2633.6535	1611.55	727.55
990.0326	2634.9228	1613.5	728.6
990.1569	2636.1914	1609.65	724
990.2812	2637.4593	1614.45	728.45
990.4055	2638.7265	1610.7	723.55
990.5298	2639.9931	1601.8	717.45
990.654	2641.259	1601.45	714.5
990.7782	2642.5242	1594.35	707.5
990.9023	2643.7887	1599.55	713.8
991.0264	2645.0525	1595.85	710.25
991.1505	2646.3156	1592.5	704.95
991.2745	2647.5781	1591.85	709.1
991.3985	2648.8398	1591.7	707.6
991.5225	2650.1009	1624.8	700.85
991.6464	2651.3613	1579.95	694.95
991.7703	2652.6211	1587.55	703.6
991.8942	2653.8801	1582.45	698.2
992.018	2655.1385	1577.05	689.05
992.1418	2656.3961	1573.75	686.8
992.2655	2657.6531	1578.05	692.2
992.3892	2658.9094	1579.5	691.15
992.5129	2660.1651	1568.3	683.05
992.6366	2661.42	1585.65	699
992.7602	2662.6743	1584.9	698.3
992.8837	2663.9279	1583.3	699.1
993.0073	2665.1808	1582.1	697.85
993.1307	2666.433	1584.35	697.9
993.2542	2667.6846	1576.55	693.05
993.3776	2668.9354	1585.35	696.6
993.501	2670.1856	1582.35	695.75
993.6244	2671.4351	1580.15	696.1
993.7477	2672.6839	1590.5	703.8
993.8709	2673.9321	1587.55	701.15
993.9942	2675.1795	1590.8	705.05
994.1174	2676.4263	1591.2	705.85
994.2405	2677.6724	1588.35	705.15
994.3637	2678.9179	1585.2	696.6
994.4868	2680.1626	1587.1	702.1
994.6098	2681.4067	1593.05	708.85
994.7328	2682.6501	1580.65	696.1
994.8558	2683.8928	1588.85	704.95
994.9788	2685.1348	1584.65	700.15
995.1017	2686.3761	1576.55	691.3
995.2245	2687.6168	1573.65	689.45
995.3474	2688.8568	1579.1	691.8
995.4702	2690.0961	1560.3	677
995.5929	2691.3348	1553.45	668.1
995.7156	2692.5727	1556.4	670.35
995.8383	2693.81	1556.8	672.45
995.961	2695.0466	1553.6	670.9
996.0836	2696.2826	1558.8	672.3
996.2062	2697.5178	1559	671.3
996.3287	2698.7524	1551.7	666.55
996.4512	2699.9863	1559.25	671.1
996.5737	2701.2195	1556.05	672.3
996.6961	2702.452	1560.55	674.25
996.8185	2703.6839	1556.55	669.9
996.9408	2704.9151	1565.95	681.25
997.0631	2706.1456	1573.4	687.3
997.1854	2707.3755	1575.7	689.95
997.3077	2708.6046	1583.35	696.35
997.4299	2709.8331	1587.7	703.85
997.552	2711.0609	1592.4	707.5
997.6742	2712.2881	1598.65	713.95
997.7963	2713.5145	1601.15	715.05
997.9183	2714.7403	1615.5	732.4
998.0403	2715.9654	1630.45	743.25
998.1623	2717.1899	1647.4	747.55
998.2842	2718.4136	1648	763.4
998.4062	2719.6367	1652.7	766.4
998.528	2720.8591	1669.75	777.85
998.6498	2722.0809	1684.5	799.2
998.7716	2723.3019	1686.8	798.15
998.8934	2724.5223	1693.65	808.85
999.0151	2725.7421	1700.45	815.7
999.1368	2726.9611	1710.85	825.45
999.2584	2728.1795	1697.05	809
999.38	2729.3972	1686.35	800.1
999.5016	2730.6142	1686.7	789.4
999.6231	2731.8306	1655.95	772.85
999.7446	2733.0462	1651	763.65
999.8661	2734.2612	1629.3	739.95
999.9875	2735.4756	1615.65	730.9
1000.1089	2736.6892	1602.45	717.95
1000.2302	2737.9022	1586	704.1
1000.3515	2739.1145	1571.8	688.95
1000.4728	2740.3262	1560.05	668.35
1000.594	2741.5372	1548.1	663.75
1000.7152	2742.7475	1540.3	655.55
1000.8363	2743.9571	1526.75	639.55
1000.9575	2745.1661	1522.7	633.85
1001.0785	2746.3744	1507.9	621.75
1001.1996	2747.582	1499.4	615.55
1001.3206	2748.7889	1500.1	612.95
1001.4415	2749.9952	1483.2	600.6
1001.5625	2751.2008	1479.9	596.25
1001.6833	2752.4057	1485.25	600.9
1001.8042	2753.61	1478.55	595.9
1001.925	2754.8136	1467.25	581.8
1002.0458	2756.0165	1466.45	583.7
1002.1665	2757.2188	1459.05	574.15
1002.2872	2758.4204	1466.7	582.8
1002.4078	2759.6213	1466.5	583.05
1002.5285	2760.8215	1474.25	585.55
1002.649	2762.0211	1471.05	586.1
1002.7696	2763.22	1464.55	577.35
1002.8901	2764.4182	1468.05	584.65
1003.0106	2765.6158	1456	574.65
1003.131	2766.8127	1455.4	572
1003.2514	2768.009	1449.5	567.6
1003.3717	2769.2045	1442.6	557.05
1003.492	2770.3994	1445.4	557.65
1003.6123	2771.5936	1442.45	558.65
1003.7325	2772.7872	1435.6	553
1003.8527	2773.9801	1433.95	550.35
1003.9729	2775.1723	1448.7	547.65
1004.093	2776.3639	1427.2	543.25
1004.2131	2777.5548	1430.55	545.8
1004.3331	2778.745	1437.15	553.25
1004.4531	2779.9346	1434.2	551.05
1004.5731	2781.1235	1440.45	557.5
1004.693	2782.3117	1436.85	554.05
1004.8129	2783.4992	1435.65	555.6
1004.9328	2784.6861	1438.35	555.65
1005.0526	2785.8723	1447.55	565.6
1005.1723	2787.0579	1454.4	571.6
1005.2921	2788.2428	1456	572.3
1005.4118	2789.427	1463.7	583.6
1005.5314	2790.6106	1471.95	588.6
1005.651	2791.7935	1474.8	593.45
1005.7706	2792.9757	1485.6	603.45
1005.8902	2794.1573	1495.65	609.8
1006.0097	2795.3382	1509.75	627.75
1006.1291	2796.5184	1510.55	630.75
1006.2485	2797.698	1527.55	642.9
1006.3679	2798.8769	1546	665.25
1006.4873	2800.0551	1565.65	683.2
1006.6066	2801.2327	1567.45	682.55
1006.7258	2802.4096	1584.75	700
1006.8451	2803.5859	1602.3	719.15
1006.9642	2804.7615	1624.4	742.95
1007.0834	2805.9364	1644.25	762.9
1007.2025	2807.1106	1659.7	776.75
1007.3216	2808.2842	1698.75	816.8
1007.4406	2809.4572	1722.05	840.2
1007.5596	2810.6294	1763.7	880.45
1007.6785	2811.801	1783.05	901.55
1007.7975	2812.972	1824.1	943
1007.9163	2814.1423	1869	986.9
1008.0352	2815.3119	1912.05	1028.85
1008.154	2816.4808	1951.65	1071.75
1008.2727	2817.6491	2001.9	1120.4
1008.3914	2818.8167	2056.75	1177.4
1008.5101	2819.9837	2101.9	1217.05
1008.6288	2821.15	2156.85	1275.15
1008.7474	2822.3157	2191	1312.5
1008.8659	2823.4807	2253.25	1369.7
1008.9844	2824.645	2306.9	1423.7
1009.1029	2825.8086	2349.1	1469.35
1009.2214	2826.9716	2401.25	1518.7
1009.3398	2828.134	2451.25	1571.65
1009.4581	2829.2957	2479.25	1598.35
1009.5764	2830.4567	2509.4	1630.85
1009.6947	2831.617	2545.6	1663.3
1009.813	2832.7767	2548.05	1664.85
1009.9312	2833.9358	2547.75	1666.25
1010.0493	2835.0941	2559.8	1674.45
1010.1675	2836.2519	2532.6	1652.7
1010.2855	2837.4089	2520.45	1639.35
1010.4036	2838.5653	2508.05	1627.05
1010.5216	2839.7211	2516.85	1636.8
1010.6396	2840.8761	2508.95	1624.8
1010.7575	2842.0306	2529.35	1649.15
1010.8754	2843.1843	2566.1	1685.3
1010.9932	2844.3374	2591.25	1712.15
1011.111	2845.4899	2649.6	1768.1
1011.2288	2846.6417	2713.25	1831.4
1011.3465	2847.7928	2770	1888.15
1011.4642	2848.9433	2848.15	1965.5
1011.5818	2850.0931	2906.8	2024.75
1011.6995	2851.2422	2993	2108.35
1011.817	2852.3907	3044.4	2162.5
1011.9345	2853.5385	3110.45	2229.75
1012.052	2854.6857	3167.2	2276.35
1012.1695	2855.8323	3215.45	2337.2
1012.2869	2856.9781	3258.85	2377.55
1012.4042	2858.1233	3309.95	2430.4
1012.5216	2859.2679	3347.65	2466
1012.6389	2860.4118	3391.2	2509.75
1012.7561	2861.555	3438.1	2554.7
1012.8733	2862.6976	3482.8	2601.2
1012.9905	2863.8395	3512.95	2634.6
1013.1076	2864.9808	3542.15	2661
1013.2247	2866.1214	3560.1	2680.65
1013.3417	2867.2614	3564.65	2682.95
1013.4587	2868.4007	3584.2	2701.7
1013.5757	2869.5393	3584.1	2700.6
1013.6926	2870.6773	3610.1	2726.65
1013.8095	2871.8146	3613.2	2728.75
1013.9263	2872.9513	3625.5	2739.2
1014.0431	2874.0874	3609.65	2728.3
1014.1599	2875.2227	3610.3	2728.05
1014.2766	2876.3574	3589.35	2709.25
1014.3933	2877.4915	3562.15	2682.3
1014.51	2878.6249	3529.5	2651
1014.6266	2879.7577	3512	2630.15
1014.7431	2880.8898	3506.5	2617.25
1014.8596	2882.0212	3482.5	2603.9
1014.9761	2883.152	3463.85	2582.85
1015.0925	2884.2821	3461.05	2580.9
1015.2089	2885.4116	3447.05	2567.2
1015.3253	2886.5405	3446.55	2569.75
1015.4416	2887.6686	3451.2	2564.7
1015.5579	2888.7962	3464.3	2585.15
1015.6741	2889.923	3482.55	2602.2
1015.7903	2891.0493	3481.25	2601.45
1015.9065	2892.1748	3493.2	2612.9
1016.0226	2893.2997	3495.05	2615.65
1016.1387	2894.424	3507.9	2630.5
1016.2547	2895.5476	3537.95	2658.1
1016.3707	2896.6706	3547.55	2667.15
1016.4866	2897.7929	3592.2	2711.5
1016.6025	2898.9145	3598.15	2717.7
1016.7184	2900.0355	3628.4	2746.55
1016.8342	2901.1559	3666.6	2784.65
1016.95	2902.2756	3695.05	2816.15
1017.0658	2903.3946	3736.3	2857.75
1017.1815	2904.513	3755.8	2875.35
1017.2971	2905.6308	3789.05	2910.2
1017.4127	2906.7479	3796.25	2915.75
1017.5283	2907.8643	3845.1	2964.15
1017.6439	2908.9801	3851.4	2971
1017.7594	2910.0953	3849.15	2969.5
1017.8748	2911.2098	3855.4	2972.85
1017.9902	2912.3236	3854.05	2967.05
1018.1056	2913.4368	3833.6	2952.5
1018.2209	2914.5494	3817.45	2938.75
1018.3362	2915.6613	3785.95	2902.3
1018.4515	2916.7725	3752.3	2869.4
1018.5667	2917.8831	3727.65	2846.15
1018.6819	2918.9931	3702.05	2820.25
1018.797	2920.1024	3668.05	2787.9
1018.9121	2921.211	3645.05	2768.45
1019.0271	2922.319	3623.45	2742.6
1019.1421	2923.4264	3613.05	2735.25
1019.2571	2924.5331	3601.6	2723.55
1019.372	2925.6391	3596.25	2718.5
1019.4869	2926.7445	3582.15	2704.65
1019.6017	2927.8493	3596.75	2716.25
1019.7165	2928.9534	3584.7	2703.95
1019.8313	2930.0569	3575.6	2691.8
1019.946	2931.1597	3569.2	2688.2
1020.0606	2932.2619	3583.4	2703.65
1020.1753	2933.3634	3570.25	2691.5
1020.2899	2934.4643	3571.4	2686.05
1020.4044	2935.5645	3557.4	2672.7
1020.5189	2936.6641	3531.05	2644.9
1020.6334	2937.763	3503.7	2626.9
1020.7478	2938.8613	3451.35	2572.05
1020.8622	2939.959	3392.9	2509.2
1020.9765	2941.056	3324.45	2444.9
1021.0908	2942.1523	3250.5	2370.15
1021.2051	2943.248	3175.3	2295
1021.3193	2944.3431	3079.15	2199.25
1021.4334	2945.4375	2989.05	2109.7
1021.5476	2946.5313	2892.2	2015.35
1021.6617	2947.6244	2782.25	1903
1021.7757	2948.7169	2687.05	1809.6
1021.8897	2949.8087	2590.1	1710.35
1022.0037	2950.8999	2505.75	1625.65
1022.1176	2951.9904	2431.05	1552.9
1022.2315	2953.0803	2343.3	1463.4
1022.3453	2954.1696	2292.85	1413.85
1022.4591	2955.2582	2230.9	1351.3
1022.5728	2956.3462	2188.5	1309.85
1022.6865	2957.4335	2156.1	1276.8
1022.8002	2958.5202	2114.8	1232.95
1022.9138	2959.6062	2094.25	1217.65
1023.0274	2960.6916	2076.9	1199.65
1023.141	2961.7764	2056.5	1176.45
1023.2545	2962.8605	2038.2	1158.45
1023.3679	2963.9439	2025.5	1145.25
1023.4813	2965.0267	2024.5	1143.95
1023.5947	2966.1089	2027.8	1126.05
1023.708	2967.1905	2005.7	1127.35
1023.8213	2968.2714	2001.75	1123.5
1023.9346	2969.3516	2006.35	1130.95
1024.0478	2970.4312	2007.1	1120.4
1024.1609	2971.5102	2001.3	1122.55
1024.274	2972.5885	1999.4	1117.95
1024.3871	2973.6662	2007.75	1123.75
1024.5002	2974.7432	2000.8	1122.7
1024.6132	2975.8196	1997.6	1118.5
1024.7261	2976.8954	1987.25	1109.3
1024.839	2977.9705	1980.45	1103
1024.9519	2979.045	1966.15	1088.35
1025.0647	2980.1188	1952.75	1076.3
1025.1775	2981.192	1930.9	1053.7
1025.2902	2982.2645	1910.9	1032.3
1025.4029	2983.3364	1890	1012.15
1025.5156	2984.4077	1862.05	984.3
1025.6282	2985.4783	1844.4	960.6
1025.7407	2986.5483	1802.7	926.5
1025.8532	2987.6177	1772.3	894.8
1025.9657	2988.6864	1738.95	859.7
1026.0782	2989.7545	1715.2	835.85
1026.1906	2990.8219	1668.65	791.5
1026.3029	2991.8887	1647.3	767.45
1026.4152	2992.9548	1613.4	735.65
1026.5275	2994.0204	1579.85	702.45
1026.6397	2995.0852	1555.85	679.45
1026.7519	2996.1495	1527.4	649.75
1026.864	2997.2131	1504.35	627.35
1026.9761	2998.276	1483.1	603.55
1027.0882	2999.3383	1464.4	584.75
1027.2002	3000.4	1445.9	567.15
1027.3122	3001.4611	1428.35	550.65
1027.4241	3002.5215	1412.35	534.6
1027.536	3003.5812	1399.7	523.45
1027.6478	3004.6404	1378.8	500.3
1027.7596	3005.6989	1377.75	501.65
1027.8714	3006.7567	1363.15	485.95
1027.9831	3007.8139	1382.2	474.35
1028.0947	3008.8705	1343.8	465.6
1028.2064	3009.9264	1336.4	455.15
1028.3179	3010.9818	1337.9	461.1
1028.4295	3012.0364	1329.5	450.8
1028.541	3013.0905	1325.6	445.75
1028.6524	3014.1439	1321.9	443.95
1028.7638	3015.1966	1316.55	438.85
1028.8752	3016.2487	1312.85	436.75
1028.9865	3017.3002	1323.35	435.6
1029.0978	3018.3511	1314.25	437.95
1029.209	3019.4013	1311.9	432.65
1029.3202	3020.4509	1309.55	432.45
1029.4314	3021.4998	1304.55	425.35
1029.5425	3022.5481	1308	429.05
1029.6535	3023.5958	1300.35	423
1029.7645	3024.6428	1302.45	425.95
1029.8755	3025.6892	1305.2	431.55
1029.9864	3026.735	1304.15	427.95
1030.0973	3027.7802	1308.1	431.45
1030.2082	3028.8247	1311.7	434.7
1030.319	3029.8685	1309.7	432
1030.4297	3030.9118	1317.2	439.4
1030.5404	3031.9544	1311.9	435.9
1030.6511	3032.9963	1314.95	440.35
1030.7617	3034.0376	1313.75	436
1030.8723	3035.0783	1325.45	447.2
1030.9829	3036.1184	1328.2	449.65
1031.0934	3037.1578	1329.9	453.8
1031.2038	3038.1966	1331.2	454.2
1031.3142	3039.2348	1328.65	452.85
1031.4246	3040.2723	1348.25	461.25
1031.5349	3041.3092	1329.25	454.45
1031.6452	3042.3455	1331.65	455.3
1031.7554	3043.3811	1324.45	446.1
1031.8656	3044.4161	1325.35	448.35
1031.9758	3045.4505	1325.5	449
1032.0859	3046.4842	1311.7	433.95
1032.1959	3047.5173	1314.3	438.4
1032.3059	3048.5498	1307.5	429.8
1032.4159	3049.5816	1306.35	427.3
1032.5258	3050.6128	1295.75	418.9
1032.6357	3051.6434	1294.9	417.05
1032.7455	3052.6734	1285.45	407.95
1032.8553	3053.7027	1282.6	406.15
1032.9651	3054.7314	1276.95	401.55
1033.0748	3055.7594	1273.8	399.5
1033.1845	3056.7868	1270.85	391.1
1033.2941	3057.8136	1273.25	397.2
1033.4037	3058.8398	1258.1	383.05
1033.5132	3059.8653	1254.35	377.2
1033.6227	3060.8902	1252.15	376.25
1033.7321	3061.9145	1252.75	375.1
1033.8415	3062.9381	1249.8	372.9
1033.9509	3063.9612	1261.45	369.55
1034.0602	3064.9835	1238.6	360.85
1034.1694	3066.0053	1233.15	354.9
1034.2787	3067.0264	1229.4	352.3
1034.3878	3068.0469	1224.05	346.55
1034.497	3069.0668	1220.1	340.3
1034.6061	3070.086	1208.3	333.75
1034.7151	3071.1046	1208.85	334.9
1034.8241	3072.1226	1202.85	324.95
1034.9331	3073.1399	1187.6	309.4
1035.042	3074.1567	1187.1	308.2
1035.1508	3075.1727	1175.15	296.3
1035.2597	3076.1882	1163.05	285.7
1035.3684	3077.203	1156.7	278.95
1035.4772	3078.2173	1155.55	277.35
1035.5859	3079.2308	1150.1	271.95
1035.6945	3080.2438	1143.95	264.6
1035.8031	3081.2561	1133.3	257.65
1035.9117	3082.2678	1123.95	248.45
1036.0202	3083.2789	1120.25	240.95
1036.1286	3084.2893	1113.9	237.85
1036.2371	3085.2991	1110.2	232.75
1036.3454	3086.3083	1109.2	226.85
1036.4538	3087.3169	1099.55	222.7
1036.562	3088.3248	1094.7	218.25
1036.6703	3089.3321	1089.65	213.35
1036.7785	3090.3388	1086.25	210.9
1036.8866	3091.3449	1087.8	213.05
1036.9948	3092.3503	1081.85	201.5
1037.1028	3093.3551	1072.2	197.75
1037.2108	3094.3593	1072.45	197.85
1037.3188	3095.3629	1068.3	191.8
1037.4267	3096.3658	1069.25	192.35
1037.5346	3097.3681	1066.5	191.8
1037.6425	3098.3698	1063.05	184.7
1037.7503	3099.3708	1065.05	182.55
1037.858	3100.3713	1060	186.4
1037.9657	3101.3711	1050.95	173.55
1038.0734	3102.3702	1191.35	180
1038.181	3103.3688	1046.1	168
1038.2886	3104.3667	1044.2	168.6
1038.3961	3105.364	1043.2	166.75
1038.5036	3106.3607	1043.7	165.85
1038.611	3107.3568	1038.5	163.1
1038.7184	3108.3522	1037.45	161.35
1038.8257	3109.347	1038.2	163
1038.933	3110.3412	1040.75	160.35
1039.0403	3111.3348	1038.65	163.15
1039.1475	3112.3277	1032.9	156.9
1039.2547	3113.32	1029.95	156.95
1039.3618	3114.3117	1031.4	153.75
1039.4689	3115.3028	1032.05	156.85
1039.5759	3116.2932	1029.7	153.15
1039.6829	3117.2831	1032.1	152.2
1039.7898	3118.2723	1022.8	149.1
1039.8967	3119.2608	1018.5	142.8
1040.0035	3120.2488	1022.8	146.5
1040.1103	3121.2361	1021.1	142.6
1040.2171	3122.2229	1015.8	141.05
1040.3238	3123.209	1017.05	141.45
1040.4305	3124.1944	1014.15	137.2
1040.5371	3125.1793	1015	138.75
1040.6437	3126.1635	1015.4	139.15
1040.7502	3127.1471	1010.45	134.5
1040.8567	3128.1301	1006.7	133.2
1040.9631	3129.1125	1008.8	134.1
1041.0695	3130.0942	1007.65	133.95
1041.1759	3131.0753	1015	129.4
1041.2822	3132.0558	1008.45	131.55
1041.3884	3133.0357	1004.25	128
1041.4946	3134.015	1006.05	129.75
1041.6008	3134.9936	1003.4	125.55
1041.7069	3135.9716	1022.25	123.95
1041.813	3136.949	999.25	124.95
1041.919	3137.9258	1019.7	123.2
1042.025	3138.902	1005.85	125.3
1042.1309	3139.8775	998.9	124.4
1042.2368	3140.8524	995.15	119.75
1042.3427	3141.8267	999	123.1
1042.4485	3142.8004	993.65	117.1
1042.5542	3143.7735	997.2	113.9
1042.6599	3144.7459	995.65	118
1042.7656	3145.7178	990.35	114.6
1042.8712	3146.689	987.85	114.25
1042.9768	3147.6596	989.7	112.65
1043.0823	3148.6295	986.8	113.1
1043.1878	3149.5989	988.15	113.35
1043.2932	3150.5676	985.9	113.65
1043.3986	3151.5357	984.7	110.8
1043.5039	3152.5032	982.3	106.4
1043.6092	3153.4701	982	105.6
1043.7145	3154.4364	984.15	105.05
1043.8197	3155.402	978.15	103.85
1043.9248	3156.367	985.05	106.05
1044.03	3157.3315	1010.6	104.45
1044.135	3158.2952	981.15	105.9
1044.24	3159.2584	977.65	101.55
1044.345	3160.221	974.3	98.85
1044.4499	3161.1829	979.8	105.8
1044.5548	3162.1442	977.55	103.45
1044.6596	3163.105	973.3	97.85
1044.7644	3164.065	975.75	100.6
1044.8692	3165.0245	976.45	98.05
1044.9739	3165.9834	975.55	101.8
1045.0785	3166.9416	974.9	100.35
1045.1831	3167.8993	970.9	94.75
1045.2877	3168.8563	972.25	95.65
1045.3922	3169.8127	971.2	95.05
1045.4966	3170.7684	968.4	95.8
1045.6011	3171.7236	969.6	95.55
1045.7054	3172.6782	967.55	91.15
1045.8098	3173.6321	965.8	90.05
1045.914	3174.5854	970.95	91.05
1046.0183	3175.5381	967	91.1
1046.1224	3176.4902	964.9	89.75
1046.2266	3177.4417	963.85	88.95
1046.3307	3178.3926	964.9	90.6
1046.4347	3179.3428	962.8	89.55
1046.5387	3180.2924	965.25	90.65
1046.6427	3181.2415	963.2	89.55
1046.7466	3182.1899	963.65	88.5
1046.8504	3183.1377	961.7	88.1
1046.9542	3184.0848	964.65	86.1
1047.058	3185.0314	960.25	84.25
1047.1617	3185.9773	962.95	86.4
1047.2654	3186.9227	960.65	82.95
1047.369	3187.8674	964	87.6
1047.4726	3188.8115	964.3	85.85
1047.5761	3189.755	959.35	83.5
1047.6796	3190.6979	959.65	85.55
1047.783	3191.6402	954.55	79.5
1047.8864	3192.5818	958.45	83.85
1047.9898	3193.5229	974.4	82.95
1048.0931	3194.4633	958.15	83.2
1048.1963	3195.4031	954	79.25
1048.2995	3196.3423	954.7	80
1048.4027	3197.2809	957.45	81.75
1048.5058	3198.2189	954.05	78.45
1048.6089	3199.1563	960.45	80.8
1048.7119	3200.0931	956.25	81.2
1048.8148	3201.0292	954.75	78.55
1048.9178	3201.9648	952.5	77.9
1049.0206	3202.8997	953.75	76.5
1049.1235	3203.834	950.4	75.9
1049.2262	3204.7677	953.7	79.25
1049.329	3205.7008	953.6	76.7
1049.4317	3206.6333	947.95	75.3
1049.5343	3207.5652	951.35	75.65
1049.6369	3208.4964	947.05	72.85
1049.7394	3209.4271	948.75	73.95
1049.8419	3210.3571	947.6	71.9
1049.9444	3211.2865	945.85	69.55
1050.0468	3212.2154	945.75	70.45
1050.1491	3213.1436	951.4	73.05
1050.2514	3214.0712	952.15	68.8
1050.3537	3214.9982	945.4	70.1
1050.4559	3215.9246	946.15	68.5
1050.5581	3216.8503	943.15	70.1
1050.6602	3217.7755	946.8	71.45
1050.7623	3218.7001	947.55	73
1050.8643	3219.624	944.4	69.45
1050.9663	3220.5473	943.9	69.15
1051.0682	3221.4701	945.1	70.25
1051.1701	3222.3922	943.1	65.95
1051.2719	3223.3137	943.75	71.35
1051.3737	3224.2346	939.55	64
1051.4754	3225.1549	940.25	68.5
1051.5771	3226.0746	942.5	69.95
1051.6788	3226.9937	940.8	63.95
1051.7804	3227.9121	937.2	62.85
1051.8819	3228.83	940.2	67.15
1051.9834	3229.7473	937.8	62.1
1052.0849	3230.6639	940.5	67.9
1052.1863	3231.5799	936.2	62
1052.2876	3232.4954	940.6	67.25
1052.3889	3233.4102	938.1	64.4
1052.4902	3234.3244	937.25	62.95
1052.5914	3235.238	940	65.3
1052.6926	3236.151	959.75	61.85
1052.7937	3237.0634	937.3	63.6
1052.8948	3237.9752	936.4	61.8
1052.9958	3238.8864	938.15	62.85
1053.0968	3239.797	934.45	59.75
1053.1977	3240.7069	932.95	57.6
1053.2986	3241.6163	933.45	57.5
1053.3994	3242.5251	935	63.95
1053.5002	3243.4332	931.5	60.55
1053.6009	3244.3408	937.2	64.75
1053.7016	3245.2477	936.05	62.75
1053.8022	3246.154	934.05	59.75
1053.9028	3247.0598	933.55	59.95
1054.0034	3247.9649	935.05	57.45
1054.1039	3248.8694	932.3	57.5
1054.2043	3249.7733	928.5	54.25
1054.3047	3250.6766	929.8	54.1
1054.4051	3251.5793	931.45	58.9
1054.5054	3252.4814	928.75	55.4
1054.6056	3253.3829	927.25	55.2
1054.7058	3254.2838	928.05	53.35
1054.806	3255.1841	928.6	55.4
1054.9061	3256.0838	926.6	53.1
1055.0061	3256.9829	926.75	53.05
1055.1062	3257.8814	927.8	51.6
1055.2061	3258.7792	928.65	52.15
1055.306	3259.6765	926.7	52.5
1055.4059	3260.5731	921.9	48.65
1055.5057	3261.4692	923.2	47.45
1055.6055	3262.3647	922.75	46.75
1055.7052	3263.2595	923.15	49.7
1055.8049	3264.1538	920.1	46.65
1055.9045	3265.0474	920.05	47.45
1056.0041	3265.9404	918.5	45.75
1056.1036	3266.8329	917.4	45
1056.2031	3267.7247	928.05	43.75
1056.3025	3268.616	917.6	45.75
1056.4019	3269.5066	913.15	38
1056.5013	3270.3966	914.3	39.55
1056.6005	3271.286	912.5	38.35
