Software Version:	3.9.2.0
Unit SN:	10000200
Spectrometer SN:	6960
Date:	3/8/2024 1:47:48 PM
Data Line Index:	25
Spectral Points:	2048
Integration time (ms):	125
Averages:	20
Delay (ms):	30000
Sequence Number:	1
Processing:	dark subtract
Laser Power (mW):	305
Laser Current (mA):	823
Laser Diode Temp (C):	25.1
Laser Case Temp (C):	26.4
System Temp (C):	26.3
Spectrometer Temp (C):	24.2
CCD Temp (C):	0.013
Secondary Temp (C):	20.008
Heatsink Temp (C):	21.438
CCDPCB Temp (C):	36.418
SecondaryPCB Temp (C):	31.738

Wavelength	RamanShift	Raw Counts	Dark Subtracted
787.061	30.1047	469.3	60.35
787.2016	32.3739	470	63.55
787.3422	34.6426	477.15	70.7
787.4828	36.9109	483.55	74.35
787.6235	39.1787	490.4	78.6
787.7642	41.4461	501.9	85.1
787.9049	43.7131	511.6	91.3
788.0456	45.9796	522.8	99.5
788.1863	48.2456	528.8	103.1
788.3271	50.5112	537.5	105.8
788.4679	52.7764	548.05	112.3
788.6087	55.0411	559.4	119.3
788.7496	57.3054	577.1	132.75
788.8904	59.5692	584.7	138.25
789.0313	61.8326	596.35	147.15
789.1722	64.0955	611.75	160.95
789.3132	66.3579	625.75	167.7
789.4541	68.6199	645.3	183.7
789.5951	70.8815	687.75	220.7
789.7361	73.1426	769.45	299.9
789.8771	75.4032	989.55	515.6
790.0181	77.6634	1531.45	1052
790.1592	79.9231	2793.4	2305
790.3003	82.1824	5570.8	5066.25
790.4414	84.4412	10563.7	10031.75
790.5825	86.6995	17472.3	16901.85
790.7237	88.9574	24257.55	23649
790.8648	91.2148	28975.1	28346.75
791.006	93.4717	31194.3	30548.45
791.1472	95.7282	31772.5	31120.55
791.2885	97.9842	31758.05	31101.3
791.4297	100.2398	31250.8	30593.35
791.571	102.4949	30644.1	29983.05
791.7123	104.7495	29923.05	29258.4
791.8536	107.0036	29143.1	28481.4
791.9949	109.2573	28410.8	27751.2
792.1363	111.5105	27759.05	27093.5
792.2777	113.7632	27057.2	26387.15
792.4191	116.0154	26469.25	25789.5
792.5605	118.2672	26057.65	25385
792.7019	120.5185	25619.15	24945.45
792.8434	122.7693	25332.35	24650.75
792.9849	125.0197	25041.15	24356.85
793.1264	127.2696	24797.8	24111.15
793.2679	129.519	24702.3	24014.85
793.4094	131.7679	24498.1	23801.55
793.551	134.0163	24381.35	23685.9
793.6926	136.2642	24173.7	23472.9
793.8342	138.5117	23946.85	23247.35
793.9758	140.7587	23734.25	23030.25
794.1175	143.0052	23567.9	22861.3
794.2591	145.2512	23346.95	22637.75
794.4008	147.4967	23106.85	22403.65
794.5425	149.7417	22997.7	22287.3
794.6842	151.9863	22865.5	22149.35
794.826	154.2304	22843.9	22122.7
794.9677	156.4739	22684.7	21960.25
795.1095	158.717	22675.35	21953.7
795.2513	160.9596	22501.5	21773.45
795.3931	163.2017	22309.4	21580.75
795.535	165.4433	22003.9	21269.15
795.6768	167.6844	21705.15	20968.6
795.8187	169.925	21428.6	20693.05
795.9606	172.1651	21083.7	20347
796.1025	174.4047	20807.5	20066.05
796.2445	176.6439	20555.35	19814.7
796.3864	178.8825	20352.15	19604.5
796.5284	181.1206	20229.4	19476.7
796.6704	183.3582	20091	19334.1
796.8124	185.5954	20023.7	19266
796.9544	187.832	19976.6	19212.5
797.0965	190.0681	19914.95	19150.6
797.2386	192.3037	19942.95	19172.8
797.3806	194.5388	19956.85	19187.1
797.5228	196.7734	20020.1	19246.9
797.6649	199.0075	20137.3	19360.35
797.807	201.2411	20281.7	19511.85
797.9492	203.4742	20359.8	19584.1
798.0914	205.7068	20581.15	19801.1
798.2336	207.9389	20702.1	19915.95
798.3758	210.1704	20871.85	20091.9
798.518	212.4015	20988.45	20218.55
798.6603	214.632	21169.95	20409.1
798.8025	216.862	21407.6	20648.85
798.9448	219.0915	21548.55	20787.95
799.0871	221.3205	21799.5	21030.2
799.2294	223.549	22051.1	21291.9
799.3718	225.777	22373.75	21614
799.5141	228.0044	22725	21958.5
799.6565	230.2314	23183.8	22416.85
799.7989	232.4578	23604.45	22838.2
799.9413	234.6837	23966	23188.5
800.0837	236.909	24219.8	23438.85
800.2262	239.1339	24186.95	23381.4
800.3687	241.3582	24003.15	23208.75
800.5111	243.582	23724.55	22901.6
800.6536	245.8053	23387.95	22576.95
800.7961	248.0281	23111.05	22305.3
800.9387	250.2503	22927.85	22120.35
801.0812	252.472	22814.15	22004.9
801.2238	254.6932	22803.65	21998.25
801.3664	256.9139	22713.65	21901.5
801.509	259.134	22788	21974.45
801.6516	261.3536	22794.7	21983.05
801.7942	263.5727	22878.25	22067.4
801.9369	265.7912	22877.5	22065
802.0795	268.0092	22958.95	22146.5
802.2222	270.2267	22988.5	22174.65
802.3649	272.4436	22950.6	22135.7
802.5076	274.6601	22943.2	22118.4
802.6504	276.8759	22870.4	22049.95
802.7931	279.0913	22884.6	22065
802.9359	281.3061	22834.5	22016.2
803.0787	283.5204	22924.7	22099.75
803.2215	285.7341	23001.25	22173.9
803.3643	287.9473	23162.15	22320
803.5071	290.16	23395.7	22566.6
803.6499	292.3721	23664.55	22836.6
803.7928	294.5837	24119.35	23291.45
803.9357	296.7947	24466.95	23640
804.0786	299.0052	24661.15	23827.8
804.2215	301.2152	24549.6	23718.65
804.3644	303.4246	24222.35	23395.45
804.5074	305.6334	23754.25	22929.45
804.6503	307.8418	23233.4	22403.8
804.7933	310.0495	22846.25	22012.3
804.9363	312.2568	22558.55	21724.1
805.0793	314.4635	22342.25	21503.5
805.2223	316.6696	22263.55	21425.9
805.3653	318.8752	22198.3	21348.15
805.5084	321.0802	22238.1	21398.5
805.6514	323.2847	22382.85	21539.25
805.7945	325.4887	22461.1	21620.3
805.9376	327.692	22402.3	21558.8
806.0807	329.8949	22332	21486.45
806.2238	332.0972	22085.6	21238.8
806.367	334.2989	21868.35	21018.75
806.5101	336.5001	21576	20729.95
806.6533	338.7007	21407.25	20556.85
806.7965	340.9008	21327.95	20475.45
806.9397	343.1003	21199.4	20345
807.0829	345.2992	21166.6	20311.6
807.2261	347.4976	21171.55	20320.35
807.3693	349.6955	21159.95	20300.6
807.5126	351.8927	21282.75	20425.35
807.6559	354.0895	21257.95	20385.35
807.7991	356.2856	21345.6	20487.9
807.9424	358.4812	21299.55	20441
808.0857	360.6763	21355.35	20492.4
808.2291	362.8707	21352.35	20489.1
808.3724	365.0646	21414.85	20548.65
808.5158	367.258	21456.6	20590.4
808.6591	369.4508	21480.1	20608.3
808.8025	371.643	21605.05	20732.25
808.9459	373.8346	21594.85	20719.25
809.0893	376.0257	21626.6	20753.5
809.2327	378.2162	21509.2	20633.45
809.3762	380.4062	21460.9	20586.95
809.5196	382.5956	21342.05	20467.7
809.6631	384.7844	21255.4	20385.8
809.8066	386.9726	21155.6	20287.75
809.9501	389.1603	21148.75	20284.95
810.0936	391.3474	21133.35	20234.3
810.2371	393.5339	21094	20222.15
810.3806	395.7199	21021.85	20159
810.5241	397.9052	21068.3	20202
810.6677	400.09	21105.65	20241.1
810.8113	402.2743	21206.65	20344.8
810.9548	404.4579	21302	20440.55
811.0984	406.641	21494.9	20627.3
811.2421	408.8235	21722.45	20851.2
811.3857	411.0054	22061.25	21186.1
811.5293	413.1868	22502.2	21627.95
811.673	415.3675	22800.35	21919.65
811.8166	417.5477	22998	22118.85
811.9603	419.7273	23032.35	22153.35
812.104	421.9064	22945.8	22060.35
812.2477	424.0848	22806.35	21924.85
812.3914	426.2627	22588.1	21704.15
812.5351	428.4399	22360.9	21480.35
812.6788	430.6166	21997.35	21110.3
812.8226	432.7928	21649.85	20760.4
812.9663	434.9683	21337.45	20454.75
813.1101	437.1432	21135.75	20253.9
813.2539	439.3176	20969.3	20090.35
813.3977	441.4914	20853.65	19978.9
813.5415	443.6645	20870.55	19996
813.6853	445.8371	20808.8	19926.25
813.8291	448.0091	20763.65	19877.25
813.973	450.1806	20719.7	19835.9
814.1168	452.3514	20669.45	19787.9
814.2607	454.5216	20691.45	19799.3
814.4046	456.6913	20622.2	19734.5
814.5485	458.8603	20693.65	19811.05
814.6924	461.0288	20766.8	19890.85
814.8363	463.1967	20773.5	19899.95
814.9802	465.3639	20938.4	20055.85
815.1241	467.5306	21006.7	20126.55
815.2681	469.6967	21124.35	20243.2
815.412	471.8622	21297.5	20418.65
815.556	474.0271	21430.1	20547
815.7	476.1914	21546.75	20656.85
815.844	478.3551	21538.55	20652.9
815.988	480.5182	21552.55	20671.55
816.132	482.6807	21568.05	20693.75
816.276	484.8426	21712.25	20842.75
816.4201	487.0039	22046.5	21167.35
816.5641	489.1647	22426	21541.2
816.7082	491.3248	22880.4	21993.75
816.8522	493.4843	23040.85	22161.55
816.9963	495.6432	23040.7	22160.55
817.1404	497.8015	22954.75	22064.95
817.2845	499.9592	22984.15	22084.3
817.4286	502.1163	22950.7	22053
817.5727	504.2728	22733.9	21841.5
817.7168	506.4287	22404.5	21527.7
817.861	508.5839	22025.5	21149.3
818.0051	510.7386	21719.7	20836.55
818.1493	512.8927	21600.3	20707.45
818.2935	515.0461	21520.6	20626.85
818.4377	517.199	21502.7	20609.6
818.5818	519.3512	21534.8	20635.2
818.726	521.5029	21646.8	20749.8
818.8703	523.6539	21727.85	20831.1
819.0145	525.8043	21785.65	20888.55
819.1587	527.9541	21791.3	20892.45
819.303	530.1033	21767.35	20870.95
819.4472	532.2519	21818.3	20923.85
819.5915	534.3999	21959.8	21060.1
819.7357	536.5472	22199.7	21304.9
819.88	538.694	22685.9	21794.25
820.0243	540.8401	23276.15	22376.25
820.1686	542.9856	23772.3	22864.5
820.3129	545.1305	23907.05	22991.25
820.4572	547.2748	23776.5	22862.95
820.6016	549.4185	23466.5	22551.85
820.7459	551.5615	23133.35	22221.3
820.8902	553.704	23041.65	22129.6
821.0346	555.8458	22980.85	22075.3
821.1789	557.987	23054.35	22151.75
821.3233	560.1276	23052.5	22148.9
821.4677	562.2675	23122.6	22212.2
821.6121	564.4069	23226.25	22319.75
821.7565	566.5456	23223.95	22315.5
821.9009	568.6837	23158.45	22256.05
822.0453	570.8212	22872	21967.9
822.1897	572.958	22534.55	21626.6
822.3342	575.0942	22266.1	21366.05
822.4786	577.2299	22073.45	21174.35
822.6231	579.3648	22026.4	21136.85
822.7675	581.4992	22067.4	21190.2
822.912	583.6329	22286.85	21408.15
823.0565	585.766	22517.1	21634.5
823.201	587.8985	22619.6	21729.15
823.3454	590.0304	22642.1	21719.2
823.4899	592.1616	22577.25	21668.5
823.6345	594.2922	22477.25	21563.55
823.779	596.4222	22324.55	21413.1
823.9235	598.5515	22210.15	21297.65
824.068	600.6802	22062.75	21150.45
824.2126	602.8083	21853.7	20946.5
824.3571	604.9358	21792.9	20882.95
824.5017	607.0626	21766.6	20852.3
824.6462	609.1888	21780.05	20860.35
824.7908	611.3144	21721.85	20802.95
824.9354	613.4393	21639.2	20717.65
825.08	615.5636	21588.5	20667.4
825.2246	617.6873	21516.15	20597.85
825.3692	619.8103	21505.95	20588.05
825.5138	621.9327	21394.85	20475.85
825.6584	624.0544	21364.5	20457.25
825.803	626.1756	21358.8	20447.8
825.9477	628.2961	21331.5	20413
826.0923	630.4159	21275.85	20356.1
826.237	632.5351	21285.2	20365.85
826.3816	634.6537	21239.15	20323.75
826.5263	636.7716	21252.95	20327.85
826.6709	638.8889	21283.7	20357.75
826.8156	641.0056	21314.35	20391.15
826.9603	643.1216	21315.05	20391.6
827.105	645.237	21397.15	20474.35
827.2497	647.3518	21373.85	20461.75
827.3944	649.4659	21397.15	20482.9
827.5391	651.5793	21386.05	20474
827.6838	653.6922	21382.65	20468.3
827.8285	655.8043	21394.25	20474.8
827.9733	657.9159	21384.4	20469.5
828.118	660.0268	21323.95	20405.1
828.2627	662.137	21243.2	20326.75
828.4075	664.2466	21267.2	20338.3
828.5522	666.3556	21292.7	20368.7
828.697	668.4639	21285.35	20365.85
828.8418	670.5716	21370.8	20456.55
828.9865	672.6786	21433.05	20510.65
829.1313	674.785	21479.25	20553.7
829.2761	676.8907	21537.3	20614.4
829.4209	678.9958	21634.9	20717.55
829.5657	681.1002	21557.05	20638.95
829.7105	683.204	21610.55	20678.05
829.8553	685.3072	21567.2	20641.6
830.0001	687.4097	21475.8	20550.2
830.1449	689.5115	21495.4	20570.85
830.2898	691.6127	21442.6	20517.6
830.4346	693.7132	21410.2	20490.55
830.5794	695.8131	21366.55	20430.95
830.7243	697.9123	21403.95	20470.2
830.8691	700.0109	21400.9	20470.75
831.014	702.1089	21404.05	20476
831.1588	704.2061	21415.25	20486.15
831.3037	706.3028	21459.85	20531.8
831.4486	708.3987	21514.8	20582.25
831.5935	710.4941	21610.7	20682.2
831.7383	712.5887	21791.65	20863.85
831.8832	714.6827	22056.4	21125.7
832.0281	716.7761	22385.4	21464.1
832.173	718.8688	22757.1	21828.35
832.3179	720.9608	22973.65	22038.95
832.4628	723.0522	23029.95	22095.15
832.6077	725.1429	22884.8	21951.35
832.7527	727.233	22659.75	21730.05
832.8976	729.3224	22473.05	21542.4
833.0425	731.4112	22208.7	21276.9
833.1874	733.4993	22017.85	21085.45
833.3324	735.5867	21835.25	20904.35
833.4773	737.6735	21742.8	20812
833.6222	739.7596	21693.75	20760.35
833.7672	741.845	21669.65	20739.65
833.9122	743.9298	21616.9	20681.7
834.0571	746.014	21641.85	20709.15
834.2021	748.0974	21696.05	20758.2
834.347	750.1802	21649.6	20710.45
834.492	752.2624	21693.25	20761.9
834.637	754.3439	21705.45	20767.6
834.782	756.4247	21801.9	20856.75
834.9269	758.5048	21892.9	20955.65
835.0719	760.5843	22142.15	21203.95
835.2169	762.6631	22453.15	21517.5
835.3619	764.7413	22895.55	21957.8
835.5069	766.8188	23518.5	22580.05
835.6519	768.8956	23976.75	23037.8
835.7969	770.9718	24312.05	23374.6
835.9419	773.0473	24107.15	23173.3
836.0869	775.1221	23807	22874.05
836.232	777.1962	23457.1	22518.35
836.377	779.2697	23298.6	22359.4
836.522	781.3426	23339.3	22384.65
836.667	783.4147	23557	22620.65
836.8121	785.4862	23879.35	22941.15
836.9571	787.557	23896.05	22954.75
837.1021	789.6271	23538.7	22594
837.2472	791.6966	23018.2	22080.15
837.3922	793.7654	22498.35	21559.6
837.5373	795.8335	22158.4	21223.35
837.6823	797.901	21998.95	21060.45
837.8274	799.9678	21940.5	21000.95
837.9724	802.0339	21976.9	21033.4
838.1175	804.0993	22044.8	21093.45
838.2626	806.1641	22027.8	21086.7
838.4076	808.2282	21961.4	21024.65
838.5527	810.2916	21893.5	20953.7
838.6978	812.3544	21803.4	20867.3
838.8428	814.4164	21726.6	20791
838.9879	816.4778	21789.5	20842.7
839.133	818.5385	21802.45	20857.8
839.2781	820.5986	21881.35	20940.55
839.4232	822.658	22002.95	21059
839.5682	824.7166	22106.4	21165.3
839.7133	826.7747	22449.8	21509.35
839.8584	828.832	22638.05	21695.9
840.0035	830.8886	22766.45	21820.7
840.1486	832.9446	22946.1	22003.45
840.2937	834.9999	22928.7	21987.45
840.4388	837.0545	22965.9	22017.85
840.5839	839.1085	22901.55	21957.65
840.729	841.1618	22888.45	21940.75
840.8741	843.2143	22809.45	21864.1
841.0192	845.2662	22710.4	21764.6
841.1643	847.3175	22669.05	21726.5
841.3095	849.368	22560.95	21618.2
841.4546	851.4179	22460	21516.6
841.5997	853.467	22302.7	21358.1
841.7448	855.5155	22226.35	21282.7
841.8899	857.5633	22088.65	21146.45
842.0351	859.6105	22029.1	21081.95
842.1802	861.6569	22030.6	21084.15
842.3253	863.7027	21955.05	21009.45
842.4704	865.7478	21982.6	21037.4
842.6156	867.7922	22003.3	21056.1
842.7607	869.8359	22017.25	21070.75
842.9058	871.8789	22155.7	21206.4
843.0509	873.9212	22357.4	21381.15
843.1961	875.9629	22475.8	21527
843.3412	878.0039	22655.2	21707.9
843.4863	880.0441	22797.5	21854
843.6315	882.0837	22797.65	21853.55
843.7766	884.1226	22717.2	21773.3
843.9218	886.1609	22659	21712.9
844.0669	888.1984	22597	21649.2
844.212	890.2352	22662	21716.95
844.3572	892.2714	22629.6	21677.3
844.5023	894.3069	22656.7	21708.35
844.6475	896.3416	22575.6	21629
844.7926	898.3757	22545.5	21595.35
844.9377	900.4091	22544.6	21596.2
845.0829	902.4418	22575	21618.35
845.228	904.4739	22549.4	21597.75
845.3732	906.5052	22553.85	21603.65
845.5183	908.5358	22496.75	21548.9
845.6635	910.5658	22352	21401.15
845.8086	912.595	22199.5	21248.15
845.9538	914.6236	22007.7	21058.15
846.0989	916.6515	21946	20996.85
846.2441	918.6786	21980.8	21030.4
846.3892	920.7051	22063.2	21109.65
846.5344	922.7309	22184.65	21234.1
846.6795	924.756	22199.55	21249.65
846.8246	926.7804	22354.75	21406.8
846.9698	928.8041	22241.9	21290.05
847.1149	930.8272	22317.65	21369.3
847.2601	932.8495	22199.6	21251.4
847.4052	934.8711	22210.7	21260.7
847.5504	936.892	22070.5	21118
847.6955	938.9123	21903.7	20950.85
847.8407	940.9318	21827	20877
847.9858	942.9506	21710.1	20758.5
848.131	944.9688	21625.7	20678
848.2761	946.9862	21558.55	20608
848.4213	949.003	21455.7	20508.1
848.5664	951.019	21463.85	20512.9
848.7115	953.0344	21518.35	20570.95
848.8567	955.0491	21526.9	20576.95
849.0018	957.063	21637.1	20685.6
849.147	959.0763	21777.2	20828.55
849.2921	961.0888	21795.95	20847.85
849.4373	963.1007	21912.5	20962.85
849.5824	965.1119	21961.55	21020.75
849.7275	967.1223	21976.85	21045.75
849.8727	969.1321	21969.8	21031.4
850.0178	971.1412	22012.75	21072.85
850.1629	973.1495	21988.5	21043.5
850.3081	975.1572	22116.5	21116.15
850.4532	977.1641	22143.95	21194.3
850.5983	979.1704	22107.65	21157.1
850.7435	981.1759	22125.55	21170.6
850.8886	983.1808	22197.1	21243.1
851.0337	985.1849	22268.75	21308.3
851.1788	987.1884	22398	21444.7
851.324	989.1911	22569.3	21619.25
851.4691	991.1932	22673.5	21722.55
851.6142	993.1945	22669.75	21717.95
851.7593	995.1951	22622.4	21671.65
851.9045	997.1951	22636.7	21680.15
852.0496	999.1943	22524.35	21575.45
852.1947	1001.1928	22489	21534.2
852.3398	1003.1906	22442.55	21492.7
852.4849	1005.1877	22535.75	21585.15
852.63	1007.1841	22504.3	21555.1
852.7751	1009.1798	22429.25	21481.2
852.9202	1011.1748	22219.55	21268.35
853.0653	1013.1691	22018.65	21069.45
853.2104	1015.1627	21811.25	20861.55
853.3555	1017.1556	21564.5	20615.8
853.5006	1019.1477	21485.15	20535.55
853.6457	1021.1392	21359.65	20418.8
853.7908	1023.1299	21347.85	20412.3
853.9359	1025.12	21380.05	20447.65
854.081	1027.1093	21402.85	20479
854.2261	1029.0979	21461.55	20541.65
854.3712	1031.0859	21522.8	20599.3
854.5163	1033.0731	21490.45	20554.4
854.6613	1035.0596	21413.2	20474.75
854.8064	1037.0454	21298.2	20357
854.9515	1039.0304	21186.9	20240.75
855.0965	1041.0148	21027.15	20083.25
855.2416	1042.9985	20916.65	19969.55
855.3867	1044.9814	20931	19985.4
855.5317	1046.9636	20854.25	19909.8
855.6768	1048.9452	20810.4	19868.3
855.8219	1050.926	20849.1	19902.5
855.9669	1052.9061	20842.25	19899.8
856.112	1054.8855	20843.35	19893.75
856.257	1056.8642	20895.35	19947.8
856.4021	1058.8421	21008.5	20055.75
856.5471	1060.8194	20981.3	20033.1
856.6921	1062.7959	21004.65	20059.6
856.8372	1064.7717	21039.5	20090.45
856.9822	1066.7469	21055.3	20106.95
857.1272	1068.7213	21096.1	20143.7
857.2723	1070.695	21049.15	20104.05
857.4173	1072.6679	20995.75	20045.9
857.5623	1074.6402	20960.3	20012.35
857.7073	1076.6117	20986.3	20030.1
857.8523	1078.5826	20940.55	19993.35
857.9973	1080.5527	20916.95	19965.65
858.1423	1082.5221	20993.35	20045.05
858.2873	1084.4908	21175.2	20224.7
858.4323	1086.4587	21329.9	20386.35
858.5773	1088.426	21473.25	20524.9
858.7223	1090.3925	21447.8	20493.3
858.8673	1092.3584	21428.35	20480.7
859.0123	1094.3235	21271.25	20323.6
859.1573	1096.2879	21194.1	20247.05
859.3022	1098.2515	21242.4	20292.65
859.4472	1100.2145	21325.2	20379.35
859.5922	1102.1767	21395.3	20442.8
859.7371	1104.1382	21511.15	20566.8
859.8821	1106.099	21734.3	20789.55
860.027	1108.0591	21938.85	20993.7
860.172	1110.0185	22069.85	21119.1
860.3169	1111.9771	22121.3	21173.5
860.4619	1113.9351	21902.8	20955.25
860.6068	1115.8923	21614.05	20669.05
860.7517	1117.8488	21317.4	20369.2
860.8967	1119.8045	21020.2	20075.45
861.0416	1121.7596	20903.4	19956.75
861.1865	1123.7139	20834.5	19887.7
861.3314	1125.6675	20832.2	19886.05
861.4763	1127.6204	20941.4	19997.35
861.6212	1129.5726	20906.75	19957.2
861.7661	1131.524	20904.8	19959.05
861.911	1133.4748	20879.2	19931.25
862.0559	1135.4248	20812.15	19862.1
862.2008	1137.3741	20818.2	19872.2
862.3457	1139.3226	20766.15	19822.15
862.4905	1141.2705	20748.3	19805.85
862.6354	1143.2176	20590	19635.15
862.7803	1145.164	20585.25	19637.3
862.9251	1147.1097	20611.55	19667.25
863.07	1149.0546	20593.1	19643.45
863.2148	1150.9989	20485.45	19539.85
863.3597	1152.9424	20378.2	19431.65
863.5045	1154.8852	20218.85	19273.95
863.6493	1156.8272	20140.1	19193.55
863.7942	1158.7686	20103.7	19149.9
863.939	1160.7092	20065.5	19121.8
864.0838	1162.6491	20052.6	19105.8
864.2286	1164.5883	20147.05	19200.6
864.3734	1166.5267	20202.55	19255.45
864.5182	1168.4644	20346.3	19401
864.663	1170.4014	20515.15	19569.1
864.8078	1172.3377	20732.75	19790.4
864.9526	1174.2732	20975.45	20034.1
865.0974	1176.2081	21273.85	20328.6
865.2421	1178.1421	21541.5	20592.75
865.3869	1180.0755	21812.15	20867.25
865.5317	1182.0082	21887.7	20941.45
865.6764	1183.9401	21868.7	20925.7
865.8212	1185.8713	21736.35	20799.35
865.9659	1187.8017	21506.65	20575.65
866.1106	1189.7315	21219.85	20299
866.2554	1191.6605	20899.7	19977.25
866.4001	1193.5888	20697.05	19767.8
866.5448	1195.5163	20574.25	19639.55
866.6895	1197.4432	20479.9	19539.1
866.8342	1199.3693	20429.5	19489.4
866.9789	1201.2947	20348.4	19399.55
867.1236	1203.2193	20335.5	19393.4
867.2683	1205.1432	20352.7	19412
867.413	1207.0664	20359.7	19419.1
867.5576	1208.9889	20402.5	19456.7
867.7023	1210.9106	20401.8	19461.35
867.847	1212.8316	20388.05	19446.6
867.9916	1214.7519	20445.5	19497.1
868.1363	1216.6715	20440.15	19502.5
868.2809	1218.5903	20458.55	19516.6
868.4255	1220.5084	20430.25	19488.95
868.5701	1222.4257	20423.8	19481.65
868.7148	1224.3424	20311.3	19372.9
868.8594	1226.2583	20440.85	19495
869.004	1228.1735	20497.45	19556.9
869.1486	1230.0879	20531.5	19592.15
869.2932	1232.0016	20658.4	19717
869.4377	1233.9146	20696.05	19750.45
869.5823	1235.8269	20586.4	19649.1
869.7269	1237.7384	20514.4	19572.85
869.8715	1239.6492	20280.55	19342.5
870.016	1241.5592	20201.9	19260.6
870.1606	1243.4686	20103.2	19165.2
870.3051	1245.3772	20105.6	19163.4
870.4496	1247.285	20076.7	19135.25
870.5941	1249.1922	20046.8	19104.9
870.7387	1251.0986	20040.2	19099.1
870.8832	1253.0042	20013.5	19073.65
871.0277	1254.9092	20087.9	19151.1
871.1722	1256.8134	20178.4	19241.6
871.3167	1258.7169	20264.55	19325.35
871.4611	1260.6196	20434.5	19494.25
871.6056	1262.5216	20646.75	19704.45
871.7501	1264.4229	20753.15	19815.1
871.8945	1266.3234	20948.3	20013.75
872.039	1268.2232	20996.6	20058.4
872.1834	1270.1223	21014.95	20070.75
872.3278	1272.0207	20997.25	20058.35
872.4723	1273.9183	20983.2	20037.95
872.6167	1275.8151	20861.6	19920.8
872.7611	1277.7113	20797.25	19854.7
872.9055	1279.6067	20664.4	19725.95
873.0499	1281.5014	20575.3	19635.45
873.1943	1283.3953	20570.7	19630.9
873.3386	1285.2885	20650.1	19715.75
873.483	1287.181	20708.55	19771.5
873.6274	1289.0727	20857.7	19921.95
873.7717	1290.9637	20911.85	19975.6
873.9161	1292.854	21054.8	20119.1
874.0604	1294.7435	21159	20221.65
874.2047	1296.6323	21308.1	20371.25
874.349	1298.5204	21487.55	20543.8
874.4933	1300.4077	21643.8	20699.75
874.6376	1302.2943	21753.9	20814.55
874.7819	1304.1802	21779.25	20841.25
874.9262	1306.0653	21572.55	20632.4
875.0705	1307.9497	21374.2	20440
875.2147	1309.8333	21190.45	20254.7
875.359	1311.7162	21078.85	20143.5
875.5032	1313.5984	21089.6	20150.4
875.6475	1315.4798	21077.15	20128.65
875.7917	1317.3605	21112.4	20170.05
875.9359	1319.2405	21168.35	20228
876.0801	1321.1197	21117	20175.1
876.2243	1322.9982	20974.7	20030.35
876.3685	1324.876	20899.1	19960.8
876.5127	1326.753	20752.65	19815.15
876.6569	1328.6293	20730.85	19789.15
876.801	1330.5048	20724	19783.55
876.9452	1332.3796	20630.45	19690.1
877.0893	1334.2537	20614.1	19649.6
877.2335	1336.127	20509.65	19572.2
877.3776	1337.9996	20495.2	19560.35
877.5217	1339.8714	20458.15	19519.75
877.6658	1341.7426	20467.5	19484.6
877.8099	1343.6129	20412.5	19473.1
877.954	1345.4826	20338.9	19400.35
878.0981	1347.3515	20358.45	19419.05
878.2422	1349.2196	20252.85	19313.25
878.3862	1351.087	20292.3	19351.85
878.5303	1352.9537	20315.8	19375.35
878.6743	1354.8197	20438.3	19498.65
878.8184	1356.6849	20594.45	19654.3
878.9624	1358.5493	20677.35	19737.3
879.1064	1360.4131	20724.05	19786.4
879.2504	1362.276	20683.05	19748.2
879.3944	1364.1383	20502.05	19565.7
879.5384	1365.9998	20267.5	19324.35
879.6823	1367.8606	19925.35	18984.65
879.8263	1369.7206	19610.25	18672.75
879.9702	1371.5799	19353.45	18410.75
880.1142	1373.4384	19175.25	18238.6
880.2581	1375.2962	19046.2	18105.1
880.402	1377.1533	18699.5	17762.35
880.5459	1379.0096	18398.5	17464.5
880.6898	1380.8652	18090.05	17159
880.8337	1382.7201	17816.35	16885.4
880.9776	1384.5742	17571.1	16634.7
881.1215	1386.4275	17373.1	16435
881.2653	1388.2802	17218.4	16282.7
881.4092	1390.132	17113.1	16176.3
881.553	1391.9832	17007.9	16071.45
881.6968	1393.8336	16910.15	15973.15
881.8406	1395.6832	16844.7	15901.15
881.9844	1397.5322	16780.7	15844.85
882.1282	1399.3803	16717.75	15778.5
882.272	1401.2278	16685.45	15750.65
882.4158	1403.0745	16630.5	15695.15
882.5595	1404.9204	16618.5	15683.5
882.7033	1406.7656	16580.05	15641.65
882.847	1408.6101	16587.55	15651.75
882.9908	1410.4538	16570.3	15633.7
883.1345	1412.2968	16602.5	15667.05
883.2782	1414.139	16630	15694.8
883.4219	1415.9805	16743.15	15807.45
883.5656	1417.8213	16781.1	15838.7
883.7092	1419.6613	16871.1	15935.45
883.8529	1421.5006	16972.9	16035.4
883.9965	1423.3391	17230.1	16294.5
884.1402	1425.1769	17493.75	16557.65
884.2838	1427.0139	17958.85	17023.75
884.4274	1428.8502	18542.55	17607.55
884.571	1430.6858	19059.75	18126.85
884.7146	1432.5206	19381.95	18451.35
884.8582	1434.3547	19658.2	18725
885.0018	1436.188	19661.5	18725.85
885.1453	1438.0206	19557.05	18623
885.2889	1439.8524	19404.95	18468.8
885.4324	1441.6835	19258.1	18322.9
885.5759	1443.5139	19171	18233.9
885.7194	1445.3435	19079.55	18151.85
885.8629	1447.1724	19034.5	18101.1
886.0064	1449.0005	18911.3	17979.2
886.1499	1450.8279	18846.35	17913.75
886.2933	1452.6545	18803.6	17870.9
886.4368	1454.4804	18836.55	17905.6
886.5802	1456.3056	18836.5	17899.4
886.7237	1458.13	18680.75	17749.8
886.8671	1459.9536	18470.95	17539.7
887.0105	1461.7766	18105.05	17169.5
887.1539	1463.5987	17733.3	16797.65
887.2972	1465.4202	17347	16415.35
887.4406	1467.2409	16957.95	16022.35
887.584	1469.0608	16722.25	15792.2
887.7273	1470.88	16460.9	15526.45
887.8706	1472.6984	16198	15267.65
888.0139	1474.5161	15941.25	15007.15
888.1572	1476.3331	15803	14870.95
888.3005	1478.1493	15650.1	14716.65
888.4438	1479.9648	15559.6	14627.85
888.5871	1481.7795	15440.55	14508.5
888.7303	1483.5935	15382.2	14450.75
888.8736	1485.4067	15303.45	14369.75
889.0168	1487.2192	15261	14328.25
889.16	1489.031	15196.7	14262.75
889.3032	1490.842	15159.75	14227.45
889.4464	1492.6522	15129.05	14198.25
889.5896	1494.4618	15046.3	14111.7
889.7327	1496.2705	15013.05	14079.85
889.8759	1498.0785	14976.4	14043.2
890.019	1499.8858	14944.35	14010.9
890.1622	1501.6924	14841.7	13911.85
890.3053	1503.4981	14816.1	13885.4
890.4484	1505.3032	14791.1	13855.55
890.5914	1507.1075	14750.15	13818.05
890.7345	1508.911	14705.3	13772.3
890.8776	1510.7138	14644.2	13713.35
891.0206	1512.5159	14568.25	13636.85
891.1637	1514.3172	14522.5	13591.45
891.3067	1516.1178	14438.6	13511.9
891.4497	1517.9176	14407.1	13474.05
891.5927	1519.7166	14350.05	13420.1
891.7357	1521.515	14313.1	13378.75
891.8786	1523.3126	14305.2	13376.2
892.0216	1525.1094	14223.3	13290.75
892.1645	1526.9055	14175.05	13249.1
892.3074	1528.7008	14107.4	13176.85
892.4503	1530.4954	14032.4	13104.75
892.5932	1532.2893	14041.3	13113.75
892.7361	1534.0824	13954.3	13026.05
892.879	1535.8747	13963.5	13037.6
893.0218	1537.6663	13926	13002.6
893.1647	1539.4572	13883.4	12957
893.3075	1541.2473	13859.45	12934.25
893.4503	1543.0367	13809.1	12882.65
893.5931	1544.8253	13775.25	12844.4
893.7359	1546.6132	13818.95	12889.3
893.8787	1548.4003	13767.3	12835.3
894.0214	1550.1867	13792.85	12861.65
894.1642	1551.9723	13786.1	12859.15
894.3069	1553.7572	13841.55	12916.6
894.4496	1555.5414	13863.15	12940.25
894.5923	1557.3247	13890.55	12971.85
894.735	1559.1074	13935.2	13018.35
894.8777	1560.8893	13977.05	13056.2
895.0204	1562.6705	14022.05	13105.65
895.163	1564.4509	14092.5	13172.25
895.3056	1566.2305	14104.3	13187.35
895.4482	1568.0094	14220.7	13306.1
895.5908	1569.7876	14228.5	13315
895.7334	1571.565	14203.25	13283.05
895.876	1573.3417	14220.2	13299.5
896.0186	1575.1176	14209.1	13291.65
896.1611	1576.8928	14135	13218.9
896.3036	1578.6672	14035.7	13127.95
896.4461	1580.4409	13926.9	13019.3
896.5886	1582.2138	13807.2	12893.85
896.7311	1583.986	13676	12759
896.8736	1585.7575	13654.3	12740.5
897.0161	1587.5282	13556.9	12647.85
897.1585	1589.2981	13533.8	12622.45
897.3009	1591.0673	13528.05	12619.7
897.4433	1592.8358	13527.95	12616.85
897.5857	1594.6035	13513.85	12598.05
897.7281	1596.3704	13498.65	12581.6
897.8705	1598.1366	13537.55	12624.7
898.0128	1599.9021	13545.2	12632.4
898.1551	1601.6668	13605.8	12692.4
898.2975	1603.4308	13640.8	12725.95
898.4398	1605.194	13735	12815.9
898.5821	1606.9564	13852.35	12947.05
898.7243	1608.7182	14000.85	13099.35
898.8666	1610.4791	14148	13250.35
899.0088	1612.2394	14278.45	13383.6
899.1511	1613.9988	14450.9	13550.85
899.2933	1615.7576	14660.15	13752.95
899.4355	1617.5156	14886.15	13968.1
899.5776	1619.2728	15043.05	14128.9
899.7198	1621.0293	15113.2	14201.95
899.862	1622.785	15098.85	14188.95
900.0041	1624.54	14938.35	14029.4
900.1462	1626.2942	14776.2	13870.25
900.2883	1628.0477	14504.3	13597.8
900.4304	1629.8005	14283.7	13372.45
900.5725	1631.5525	14040.1	13135.3
900.7145	1633.3037	13856.45	12952.2
900.8566	1635.0542	13668.9	12765.7
900.9986	1636.804	13550.15	12643.25
901.1406	1638.553	13547.05	12570.8
901.2826	1640.3013	13448.5	12542.1
901.4245	1642.0488	13376.95	12470.75
901.5665	1643.7955	13409.35	12508
901.7085	1645.5416	13446.8	12545.65
901.8504	1647.2868	13561.05	12657.75
901.9923	1649.0313	13609.1	12703.7
902.1342	1650.7751	13780.85	12871.4
902.2761	1652.5181	13899.55	12997.65
902.4179	1654.2604	14053.5	13152
902.5598	1656.0019	14313.05	13410.05
902.7016	1657.7427	14580.85	13676.35
902.8434	1659.4828	14852.75	13948.45
902.9852	1661.222	15028.55	14123.4
903.127	1662.9606	15012.85	14108.45
903.2687	1664.6984	14767.7	13860.8
903.4105	1666.4354	14362.15	13453.55
903.5522	1668.1717	13829.7	12918.35
903.6939	1669.9072	13308.15	12398.8
903.8356	1671.642	12921.45	12011.65
903.9773	1673.3761	12528.3	11621.45
904.119	1675.1094	12247.5	11341.85
904.2606	1676.8419	11996.45	11093.95
904.4022	1678.5737	11778.75	10874.2
904.5439	1680.3048	11642.35	10734.8
904.6855	1682.0351	11521.1	10614.05
904.827	1683.7646	11430.15	10518.95
904.9686	1685.4934	11327.55	10419.9
905.1101	1687.2215	11257.35	10350.15
905.2517	1688.9488	11170.15	10265.7
905.3932	1690.6754	11079.5	10178.1
905.5347	1692.4012	11035.85	10129
905.6761	1694.1263	10985.1	10078.9
905.8176	1695.8506	10940.8	10034.45
905.9591	1697.5742	10883.35	9981.35
906.1005	1699.297	10811.2	9912.1
906.2419	1701.0191	10760.45	9864.75
906.3833	1702.7404	10718.55	9820.75
906.5246	1704.461	10652.85	9749.15
906.666	1706.1808	10611.9	9708.6
906.8073	1707.8999	10579.3	9675.6
906.9487	1709.6182	10530.3	9633.45
907.09	1711.3358	10483.75	9588.9
907.2313	1713.0527	10450.45	9554.95
907.3725	1714.7688	10401.35	9497.8
907.5138	1716.4841	10356.05	9452.95
907.655	1718.1987	10337.35	9432.5
907.7962	1719.9126	10308.45	9412.65
907.9374	1721.6257	10259.25	9361.3
908.0786	1723.338	10244.45	9351.5
908.2198	1725.0496	10167.35	9269.45
908.3609	1726.7605	10154.5	9254.95
908.502	1728.4706	10104.1	9205.3
908.6431	1730.18	10052.8	9154.65
908.7842	1731.8886	10047.1	9150.25
908.9253	1733.5964	10031.45	9115.7
909.0664	1735.3036	9983.7	9083.05
909.2074	1737.0099	9959.6	9061.5
909.3484	1738.7156	9923.35	9027.7
909.4894	1740.4204	9881.65	8982.65
909.6304	1742.1246	9865.1	8967.5
909.7714	1743.8279	9836.1	8939.7
909.9123	1745.5306	9825.15	8930.65
910.0532	1747.2325	9778.2	8884.3
910.1941	1748.9336	9740.8	8844.3
910.335	1750.634	9668.7	8769.5
910.4759	1752.3336	9645.35	8748.45
910.6168	1754.0325	9647.55	8755.95
910.7576	1755.7307	9625.2	8731.3
910.8984	1757.4281	9617.1	8720.7
911.0392	1759.1247	9589.4	8681.7
911.18	1760.8206	9574.3	8667.85
911.3208	1762.5158	9571.2	8667.95
911.4615	1764.2102	9508	8608.6
911.6022	1765.9039	9456.95	8561.2
911.7429	1767.5968	9440.05	8547
911.8836	1769.289	9408.9	8515.25
912.0243	1770.9804	9386.55	8489.9
912.1649	1772.6711	9390.75	8491.9
912.3056	1774.361	9367.7	8468.6
912.4462	1776.0502	9350.85	8449.95
912.5868	1777.7386	9346.5	8444.2
912.7274	1779.4263	9291.2	8394.6
912.8679	1781.1132	9280.4	8388.75
913.0084	1782.7994	9252	8357.45
913.149	1784.4849	9232.95	8341.35
913.2895	1786.1696	9208.05	8308.6
913.4299	1787.8535	9174.05	8283.2
913.5704	1789.5367	9142.6	8251.55
913.7108	1791.2192	9144.8	8251.8
913.8513	1792.9009	9121.45	8200.5
913.9917	1794.5818	9093.8	8197.25
914.132	1796.2621	9053.75	8159
914.2724	1797.9415	9024.1	8125.7
914.4128	1799.6202	9001.05	8104.75
914.5531	1801.2982	9007.5	8110.35
914.6934	1802.9755	8982.45	8084.2
914.8337	1804.6519	8988.05	8092.95
914.9739	1806.3277	8911.45	8018.6
915.1142	1808.0027	8888.75	7998.5
915.2544	1809.6769	8869.2	7977.95
915.3946	1811.3504	8849.55	7958.75
915.5348	1813.0231	8828.3	7933.95
915.675	1814.6951	8820.3	7928.5
915.8151	1816.3664	8833.9	7939
915.9553	1818.0369	8811.55	7914.5
916.0954	1819.7067	8772.5	7878.1
916.2355	1821.3757	8739.6	7843.8
916.3755	1823.044	8737.05	7841.9
916.5156	1824.7115	8712.4	7816.65
916.6556	1826.3783	8677.25	7780.55
916.7956	1828.0443	8639.7	7746.35
916.9356	1829.7096	8638.9	7742.95
917.0756	1831.3741	8616.8	7719.5
917.2155	1833.0379	8582.1	7690.6
917.3555	1834.701	8559.25	7667.35
917.4954	1836.3633	8588.55	7699
917.6353	1838.0248	8511.65	7618.7
917.7751	1839.6856	8516	7622.85
917.915	1841.3457	8499.4	7602.55
918.0548	1843.005	8491.3	7596.8
918.1946	1844.6636	8474.65	7581.25
918.3344	1846.3214	8462.6	7568.4
918.4742	1847.9785	8428.85	7538.9
918.6139	1849.6349	8426.3	7528.3
918.7537	1851.2904	8417.5	7512.95
918.8934	1852.9453	8395.35	7497.55
919.0331	1854.5994	8361.2	7462.95
919.1727	1856.2528	8350.45	7450.2
919.3124	1857.9054	8326.3	7431.1
919.452	1859.5572	8334.75	7440.4
919.5916	1861.2083	8319.25	7422.4
919.7312	1862.8587	8299.35	7405.2
919.8708	1864.5084	8266.75	7369.25
920.0103	1866.1572	8241.6	7343.85
920.1498	1867.8054	8227.35	7330.05
920.2893	1869.4528	8220.8	7321
920.4288	1871.0994	8172.65	7274.9
920.5683	1872.7453	8166.25	7269.2
920.7077	1874.3905	8149.8	7236.05
920.8471	1876.0349	8096.35	7200.65
920.9865	1877.6786	8105.6	7212.25
921.1259	1879.3215	8103.8	7209.05
921.2653	1880.9637	8081.6	7187
921.4046	1882.6051	8048.4	7153.45
921.5439	1884.2458	8034.75	7136.95
921.6832	1885.8858	8005.95	7110.45
921.8225	1887.525	7987.85	7091.8
921.9617	1889.1634	7961.45	7065.4
922.101	1890.8011	7925.15	7027.9
922.2402	1892.4381	7919.85	7024.1
922.3794	1894.0743	7926.05	7031.9
922.5185	1895.7098	7904.65	7010.25
922.6577	1897.3446	7881.55	6987.75
922.7968	1898.9786	7863.85	6966.35
922.9359	1900.6118	7833.95	6939.95
923.075	1902.2443	7810.65	6916.5
923.214	1903.8761	7805.95	6912.2
923.3531	1905.5071	7759.95	6866.15
923.4921	1907.1374	7753.65	6858
923.6311	1908.7669	7712.35	6819.75
923.77	1910.3957	7699.6	6807.1
923.909	1912.0237	7647.55	6755
924.0479	1913.651	7645.1	6749.55
924.1868	1915.2776	7614.45	6722.15
924.3257	1916.9034	7585.9	6693.5
924.4646	1918.5285	7568.95	6676.95
924.6034	1920.1528	7525.45	6631.45
924.7422	1921.7764	7509	6617.7
924.881	1923.3992	7506.9	6615.1
925.0198	1925.0213	7449.75	6555
925.1586	1926.6427	7408.85	6514.9
925.2973	1928.2633	7476.4	6492.05
925.436	1929.8832	7408.5	6513.2
925.5747	1931.5023	7364.8	6473.9
925.7134	1933.1207	7343.9	6451.25
925.852	1934.7383	7311.65	6421
925.9906	1936.3552	7292.7	6401.75
926.1292	1937.9714	7313.95	6420.95
926.2678	1939.5868	7245.2	6349.6
926.4064	1941.2015	7239.15	6343.8
926.5449	1942.8154	7190.1	6295.75
926.6834	1944.4286	7161.95	6265.05
926.8219	1946.041	7184.1	6264.85
926.9604	1947.6528	7097.95	6200.7
927.0988	1949.2637	7102.9	6210.55
927.2372	1950.8739	7068.65	6177.85
927.3756	1952.4834	7076.9	6183.5
927.514	1954.0921	7050.8	6157.8
927.6523	1955.7001	7015.3	6119.85
927.7907	1957.3074	6998.25	6107.5
927.929	1958.9139	6962.55	6073.15
928.0673	1960.5197	6961.2	6071.65
928.2055	1962.1247	6913.5	6023.45
928.3438	1963.729	6877.15	5989.15
928.482	1965.3325	6853.5	5958.05
928.6202	1966.9353	6829.5	5940.85
928.7584	1968.5374	6829.25	5938.75
928.8965	1970.1387	6792.9	5902.85
929.0346	1971.7393	6782.85	5892
929.1727	1973.3392	6753.75	5866.55
929.3108	1974.9383	6739.35	5850.65
929.4489	1976.5366	6715.55	5826.1
929.5869	1978.1342	6701.5	5815.35
929.7249	1979.7311	6680.75	5791.05
929.8629	1981.3273	6661.8	5773.2
930.0009	1982.9227	6649.35	5759.75
930.1388	1984.5173	6644.05	5757.15
930.2767	1986.1112	6598.6	5713.15
930.4146	1987.7044	6578.4	5693.05
930.5525	1989.2968	6559.9	5673.7
930.6904	1990.8885	6549.05	5659.35
930.8282	1992.4795	6520.35	5633.4
930.966	1994.0697	6510.25	5625.55
931.1038	1995.6592	6505.15	5619.4
931.2415	1997.2479	6481.9	5596.15
931.3793	1998.8359	6483.35	5599.85
931.517	2000.4232	6444.95	5563.6
931.6547	2002.0097	6401.9	5522.55
931.7923	2003.5955	6384.6	5502.75
931.93	2005.1805	6373.75	5488.1
932.0676	2006.7648	6342.55	5459.6
932.2052	2008.3484	6344.45	5460.15
932.3427	2009.9312	6346.15	5464.75
932.4803	2011.5133	6309.45	5429.45
932.6178	2013.0946	6302.9	5421.1
932.7553	2014.6752	6277	5396.25
932.8928	2016.2551	6265.35	5381.5
933.0302	2017.8342	6227.7	5344
933.1676	2019.4126	6225.4	5343.55
933.305	2020.9902	6207.85	5328.2
933.4424	2022.5672	6189.75	5307.6
933.5798	2024.1433	6181.7	5296.2
933.7171	2025.7188	6151.35	5274.25
933.8544	2027.2935	6156.85	5277.25
933.9917	2028.8674	6135.7	5255.95
934.129	2030.4406	6110.45	5235.1
934.2662	2032.0131	6078.8	5199.85
934.4034	2033.5849	6045.45	5166.1
934.5406	2035.1559	6054.05	5174.45
934.6778	2036.7261	6025.4	5143.2
934.8149	2038.2957	6021.7	5135.15
934.952	2039.8645	6009.95	5124.9
935.0891	2041.4325	6012.2	5124
935.2262	2042.9998	5980.15	5097.8
935.3632	2044.5664	5980.65	5099.3
935.5002	2046.1323	5959.15	5076.85
935.6372	2047.6974	5933.35	5053
935.7742	2049.2617	5919.25	5039.3
935.9111	2050.8254	5926.95	5023.55
936.048	2052.3883	5893.85	5008.4
936.1849	2053.9504	5894.45	5009.75
936.3218	2055.5118	5870.7	4987.15
936.4586	2057.0725	5845.25	4956.1
936.5955	2058.6325	5854.75	4973.95
936.7323	2060.1917	5842.6	4961.8
936.869	2061.7502	5813.55	4929.7
937.0058	2063.3079	5800.5	4922.65
937.1425	2064.8649	5779.55	4897.45
937.2792	2066.4212	5767	4885.05
937.4159	2067.9767	5750.6	4866.65
937.5525	2069.5315	5723.45	4840.4
937.6891	2071.0856	5680.8	4798.8
937.8257	2072.6389	5672.2	4788.95
937.9623	2074.1915	5651.85	4773.4
938.0989	2075.7433	5642.15	4759.8
938.2354	2077.2945	5625.35	4742.6
938.3719	2078.8448	5608.9	4724.35
938.5084	2080.3945	5583.15	4695.95
938.6448	2081.9434	5597.5	4712.1
938.7812	2083.4916	5577.8	4689.6
938.9176	2085.039	5574.2	4682.75
939.054	2086.5857	5559.3	4668.1
939.1903	2088.1317	5529.9	4638.95
939.3267	2089.677	5506.25	4611.9
939.463	2091.2215	5511.6	4619
939.5992	2092.7652	5471.25	4579.05
939.7355	2094.3083	5471.1	4582.5
939.8717	2095.8506	5462.3	4574.55
940.0079	2097.3921	5459.95	4576.3
940.1441	2098.933	5440.35	4553.25
940.2802	2100.4731	5449.1	4563.4
940.4163	2102.0124	5432.15	4536.15
940.5524	2103.5511	5399.4	4512.1
940.6885	2105.089	5411.25	4524.3
940.8245	2106.6261	5406.9	4519.7
940.9606	2108.1626	5371.4	4484.55
941.0965	2109.6983	5368.15	4451.7
941.2325	2111.2332	5352.75	4465.5
941.3684	2112.7675	5341.45	4454.8
941.5044	2114.301	5314.35	4422.6
941.6403	2115.8337	5316.1	4426.15
941.7761	2117.3657	5296.35	4407.75
941.912	2118.897	5283.55	4395.1
942.0478	2120.4276	5266.2	4370.65
942.1835	2121.9575	5245.05	4353.95
942.3193	2123.4866	5244.2	4341
942.455	2125.0149	5218.2	4330.9
942.5907	2126.5426	5200.7	4314.15
942.7264	2128.0695	5190.75	4304.85
942.8621	2129.5956	5190.8	4308.3
942.9977	2131.1211	5180.4	4291.4
943.1333	2132.6458	5162.8	4277.85
943.2689	2134.1698	5155.3	4267.95
943.4044	2135.693	5137.95	4242.55
943.54	2137.2155	5147.15	4254.65
943.6755	2138.7373	5107.3	4220.4
943.8109	2140.2584	5106.2	4219.75
943.9464	2141.7787	5095.1	4208.35
944.0818	2143.2983	5068.85	4189.65
944.2172	2144.8171	5043.7	4164
944.3526	2146.3353	5029.5	4144.85
944.4879	2147.8527	5014.75	4130.1
944.6232	2149.3693	5020.6	4132.8
944.7585	2150.8853	4995.2	4104.25
944.8938	2152.4005	4987.45	4098.5
945.029	2153.9149	4984.15	4093.85
945.1642	2155.4287	4975.75	4085.45
945.2994	2156.9417	4949.7	4061.9
945.4346	2158.454	4938.7	4052.45
945.5697	2159.9655	4928.5	4043.8
945.7048	2161.4764	4923.05	4036.85
945.8399	2162.9865	4889.4	4004.3
945.9749	2164.4958	4894.45	4010.65
946.1099	2166.0045	4880.6	3994.1
946.2449	2167.5124	4872.5	3985.3
946.3799	2169.0195	4874.85	3990.2
946.5148	2170.526	4855.6	3966.5
946.6498	2172.0317	4841.2	3954.1
946.7846	2173.5367	4832.55	3943.75
946.9195	2175.0409	4803.6	3917.8
947.0543	2176.5445	4817.9	3930.25
947.1891	2178.0473	4801.95	3910.25
947.3239	2179.5494	4774.7	3883.25
947.4587	2181.0507	4755.45	3867.75
947.5934	2182.5513	4754.35	3867.1
947.7281	2184.0512	4739.15	3849.4
947.8628	2185.5504	4722.5	3835.75
947.9974	2187.0488	4693.1	3809.45
948.132	2188.5465	4703.05	3818.8
948.2666	2190.0435	4681.5	3794.25
948.4012	2191.5397	4664	3775.8
948.5357	2193.0353	4662.55	3774.15
948.6702	2194.5301	4650	3758.3
948.8047	2196.0241	4635.35	3743.25
948.9392	2197.5175	4622.75	3729.75
949.0736	2199.0101	4608.85	3712.55
949.208	2200.502	4582.95	3693.3
949.3424	2201.9931	4581.85	3695.8
949.4767	2203.4835	4551.15	3664.55
949.611	2204.9733	4554.1	3662.85
949.7453	2206.4622	4558.55	3675.4
949.8796	2207.9505	4533.7	3648.6
950.0138	2209.438	4507.65	3625.65
950.148	2210.9248	4499.35	3613.3
950.2822	2212.4109	4491.75	3603.8
950.4164	2213.8962	4464.75	3571.55
950.5505	2215.3809	4463.35	3569.3
950.6846	2216.8648	4461.7	3566.55
950.8186	2218.3479	4452.25	3554.5
950.9527	2219.8304	4433.55	3535.1
951.0867	2221.3121	4416.65	3523.65
951.2207	2222.7931	4400.5	3509.75
951.3546	2224.2733	4389.95	3498.4
951.4886	2225.7529	4384.8	3494.65
951.6225	2227.2317	4385.9	3494.85
951.7563	2228.7098	4353.3	3469.3
951.8902	2230.1872	4323.9	3438.05
952.024	2231.6638	4335.4	3451.2
952.1578	2233.1397	4317.45	3429.4
952.2916	2234.6149	4292.8	3408.4
952.4253	2236.0894	4291.25	3403.9
952.559	2237.5632	4286.55	3388.95
952.6927	2239.0362	4254.8	3368.45
952.8263	2240.5085	4251.85	3366.2
952.9599	2241.9801	4252.35	3363.2
953.0935	2243.4509	4254.3	3364.05
953.2271	2244.921	4228.45	3337.1
953.3606	2246.3904	4212.2	3320.6
953.4941	2247.8591	4205.7	3316.85
953.6276	2249.3271	4195.5	3304.45
953.7611	2250.7943	4185.05	3292.9
953.8945	2252.2608	4160.45	3270.65
954.0279	2253.7266	4155.3	3264.1
954.1612	2255.1917	4158.25	3269.35
954.2946	2256.656	4129.9	3242
954.4279	2258.1197	4096.95	3211.2
954.5612	2259.5826	4093	3205.65
954.6944	2261.0447	4125.55	3237.5
954.8276	2262.5062	4115.75	3223.85
954.9608	2263.9669	4087.1	3195.15
955.094	2265.4269	4072.05	3184.25
955.2271	2266.8862	4066	3178.1
955.3602	2268.3448	4059.4	3172.2
955.4933	2269.8026	4045.85	3161.55
955.6264	2271.2598	4037.05	3151.6
955.7594	2272.7162	4022.1	3134.65
955.8924	2274.1719	4030.75	3140.5
956.0253	2275.6268	4023.85	3132.1
956.1583	2277.0811	4012.5	3122.2
956.2912	2278.5346	4004.45	3116.35
956.4241	2279.9874	3984.8	3099.5
956.5569	2281.4395	3974.15	3090.05
956.6897	2282.8908	3982.45	3089.2
956.8225	2284.3414	3969.85	3078.85
956.9553	2285.7914	3959.4	3070.85
957.088	2287.2406	3939.75	3046.25
957.2207	2288.689	3944.25	3053.35
957.3534	2290.1368	3931.45	3037.5
957.486	2291.5838	3911.4	3016.2
957.6186	2293.0302	3923.95	3027.15
957.7512	2294.4758	3883.25	2992.25
957.8838	2295.9206	3888.6	2997.45
958.0163	2297.3648	3875.75	2985.7
958.1488	2298.8082	3862.8	2974.4
958.2813	2300.251	3866.1	2976.7
958.4137	2301.693	3838.05	2945.25
958.5461	2303.1343	3839.15	2948.45
958.6785	2304.5748	3836.9	2947.7
958.8108	2306.0147	3822.9	2936.75
958.9432	2307.4538	3816.05	2927.55
959.0754	2308.8922	3796	2911.45
959.2077	2310.3299	3800.2	2913.6
959.3399	2311.7669	3772.45	2886.2
959.4721	2313.2031	3778.45	2889.9
959.6043	2314.6387	3744.45	2855.9
959.7365	2316.0735	3736.35	2846.6
959.8686	2317.5076	3743.75	2852.85
960.0006	2318.941	3735	2842.95
960.1327	2320.3737	3716.55	2822.65
960.2647	2321.8056	3717.35	2825.5
960.3967	2323.2369	3719.4	2827.05
960.5287	2324.6674	3701.3	2809.2
960.6606	2326.0972	3683.1	2793.05
960.7925	2327.5263	3677.6	2788.4
960.9244	2328.9547	3677	2785.05
961.0562	2330.3823	3654.65	2761.95
961.1881	2331.8092	3648.45	2751.6
961.3198	2333.2355	3641.65	2748.8
961.4516	2334.661	3642.5	2751.45
961.5833	2336.0858	3628.5	2735.65
961.715	2337.5098	3614.05	2722.65
961.8467	2338.9332	3610.4	2720.45
961.9783	2340.3558	3601.25	2710.15
962.1099	2341.7778	3600.95	2713.2
962.2415	2343.199	3586.35	2697.4
962.373	2344.6195	3568.8	2679
962.5045	2346.0393	3560	2672.45
962.636	2347.4583	3565.2	2675.35
962.7675	2348.8767	3559.4	2668.95
962.8989	2350.2943	3545.8	2651.65
963.0303	2351.7113	3546.3	2651.45
963.1617	2353.1275	3542.9	2649.85
963.293	2354.543	3545.7	2644.5
963.4243	2355.9578	3514.65	2623.05
963.5556	2357.3718	3509.35	2622.25
963.6868	2358.7852	3490.2	2599.8
963.818	2360.1978	3480.8	2594.05
963.9492	2361.6098	3469.55	2581.25
964.0803	2363.021	3467.85	2575.15
964.2114	2364.4315	3479.25	2590.5
964.3425	2365.8413	3459.7	2569.2
964.4736	2367.2504	3457.6	2571.9
964.6046	2368.6587	3425.8	2538.95
964.7356	2370.0664	3410.8	2525.15
964.8666	2371.4733	3417	2527.8
964.9975	2372.8795	3409.45	2522.55
965.1284	2374.285	3398.65	2513.05
965.2593	2375.6899	3373.3	2487.15
965.3901	2377.0939	3372.35	2484.95
965.5209	2378.4973	3352.2	2467.4
965.6517	2379.9	3352.15	2466.15
965.7825	2381.3019	3344.25	2458.4
965.9132	2382.7032	3328.65	2442.3
966.0439	2384.1037	3324.5	2440.1
966.1745	2385.5035	3317.6	2433.2
966.3051	2386.9027	3314.95	2431.7
966.4357	2388.3011	3309.55	2422.6
966.5663	2389.6987	3300.15	2415.95
966.6968	2391.0957	3286.1	2403.8
966.8273	2392.492	3278.3	2395.3
966.9578	2393.8876	3256.65	2371.25
967.0882	2395.2824	3264.65	2379.9
967.2186	2396.6765	3241.1	2356.2
967.349	2398.07	3236.8	2350.75
967.4793	2399.4627	3229.75	2341.45
967.6097	2400.8547	3221.35	2335.15
967.7399	2402.246	3210.55	2319.35
967.8702	2403.6366	3201.75	2314.35
968.0004	2405.0265	3198.65	2315.25
968.1306	2406.4156	3197.9	2310.35
968.2607	2407.8041	3177.8	2289.7
968.3909	2409.1918	3161.35	2273.45
968.521	2410.5789	3158.1	2271.1
968.651	2411.9652	3152.65	2265.3
968.781	2413.3508	3131.15	2245.7
968.911	2414.7358	3134.9	2247.85
969.041	2416.12	3116.85	2230.45
969.1709	2417.5035	3121	2237.15
969.3008	2418.8863	3109.8	2222.7
969.4307	2420.2684	3091.75	2206.25
969.5606	2421.6497	3096.5	2211.45
969.6904	2423.0304	3073.9	2188.4
969.8201	2424.4104	3089.7	2201.75
969.9499	2425.7896	3074.9	2187.9
970.0796	2427.1682	3063.55	2179.55
970.2093	2428.546	3063.05	2176.3
970.3389	2429.9232	3068.3	2182.6
970.4685	2431.2996	3049.2	2161.95
970.5981	2432.6753	3038.3	2151.8
970.7277	2434.0503	3022.75	2137.2
970.8572	2435.4246	3015.25	2129.95
970.9867	2436.7982	3008.8	2118.5
971.1161	2438.1711	3006.75	2120.8
971.2456	2439.5433	2995.45	2108
971.375	2440.9148	2999.05	2105.75
971.5043	2442.2856	2978.9	2094.15
971.6336	2443.6557	2980.2	2093.6
971.7629	2445.025	2971.7	2086.9
971.8922	2446.3937	2981.9	2094.15
972.0214	2447.7617	2960	2072.75
972.1506	2449.1289	2954.2	2067.25
972.2798	2450.4955	2942.05	2052.8
972.4089	2451.8613	2933.35	2048.85
972.538	2453.2265	2934.6	2048.3
972.6671	2454.5909	2936.1	2050.45
972.7961	2455.9546	2924.85	2039.45
972.9251	2457.3177	2919.7	2033
973.0541	2458.68	2903.05	2015.25
973.1831	2460.0416	2905.7	2018.5
973.312	2461.4025	2902.85	2016.1
973.4408	2462.7627	2890.25	1992.45
973.5697	2464.1222	2893.9	2011.05
973.6985	2465.4811	2872.25	1986.4
973.8273	2466.8392	2881.9	1996.55
973.956	2468.1966	2889.15	2002.25
974.0847	2469.5533	2878.4	1990.55
974.2134	2470.9093	2855.85	1969.3
974.3421	2472.2645	2860.1	1971.5
974.4707	2473.6191	2850.8	1963.6
974.5993	2474.973	2834.5	1947.55
974.7278	2476.3262	2841.4	1952.6
974.8563	2477.6787	2833.45	1946.6
974.9848	2479.0305	2814.25	1928.8
975.1132	2480.3816	2810.4	1921.05
975.2417	2481.7319	2802.6	1916.1
975.37	2483.0816	2802.6	1913.8
975.4984	2484.4306	2784.1	1897.05
975.6267	2485.7789	2782.75	1898.45
975.755	2487.1264	2772.35	1882.55
975.8833	2488.4733	2758.55	1872.3
976.0115	2489.8195	2764.4	1870.45
976.1397	2491.165	2753.1	1861.35
976.2678	2492.5097	2748.45	1859.5
976.3959	2493.8538	2735.15	1849.75
976.524	2495.1972	2727.2	1839.35
976.6521	2496.5398	2727.75	1840.35
976.7801	2497.8818	2728.7	1839.9
976.9081	2499.2231	2714.95	1825.2
977.036	2500.5637	2696.85	1807.65
977.164	2501.9035	2687.4	1799.65
977.2918	2503.2427	2698.45	1807.6
977.4197	2504.5812	2680.4	1791.9
977.5475	2505.919	2680.5	1792.15
977.6753	2507.256	2677.1	1787.9
977.8031	2508.5924	2670.3	1782.6
977.9308	2509.9281	2670.5	1776.8
978.0585	2511.2631	2655.5	1770.55
978.1861	2512.5974	2645.4	1760.95
978.3137	2513.9309	2634.45	1750.5
978.4413	2515.2638	2652.05	1737.8
978.5689	2516.596	2648.15	1762.6
978.6964	2517.9275	2625.85	1735.65
978.8239	2519.2583	2627.35	1740.6
978.9513	2520.5884	2611.85	1722.55
979.0788	2521.9178	2612.05	1724
979.2062	2523.2465	2600.8	1713.9
979.3335	2524.5745	2583.55	1698.2
979.4608	2525.9018	2578.75	1693.5
979.5881	2527.2284	2590.2	1705.35
979.7154	2528.5543	2575	1688.4
979.8426	2529.8796	2568.55	1683.15
979.9698	2531.2041	2571.1	1683.45
980.0969	2532.5279	2569.2	1682.55
980.224	2533.851	2562.8	1676.7
980.3511	2535.1735	2553.7	1667.85
980.4781	2536.4952	2541.95	1655.45
980.6052	2537.8163	2553.2	1665.35
980.7321	2539.1366	2541.2	1653.55
980.8591	2540.4562	2548.45	1657.95
980.986	2541.7752	2539.15	1649.6
981.1129	2543.0935	2531.75	1643.25
981.2397	2544.411	2536.15	1648.55
981.3665	2545.7279	2526.7	1637.4
981.4933	2547.0441	2526.35	1638.55
981.62	2548.3596	2509.25	1617.9
981.7467	2549.6744	2511.85	1625.5
981.8734	2550.9885	2509.95	1613.8
982.0001	2552.3019	2490.55	1602.8
982.1267	2553.6146	2489.7	1603.6
982.2532	2554.9266	2487.75	1599.5
982.3798	2556.2379	2486.95	1601.25
982.5063	2557.5485	2485.45	1599.85
982.6327	2558.8585	2470.15	1576.15
982.7592	2560.1677	2485.8	1594.8
982.8856	2561.4762	2473.35	1584.85
983.0119	2562.7841	2472.65	1580.9
983.1383	2564.0913	2461.95	1575.95
983.2646	2565.3977	2455.15	1568.4
983.3908	2566.7035	2451.3	1564.75
983.517	2568.0086	2455.4	1567.2
983.6432	2569.313	2453.15	1566.65
983.7694	2570.6167	2450.3	1558.55
983.8955	2571.9197	2439.5	1552.4
984.0216	2573.222	2449.25	1556.85
984.1476	2574.5236	2444.85	1555.05
984.2737	2575.8246	2430.65	1542
984.3996	2577.1248	2436	1544.9
984.5256	2578.4244	2411.65	1524.15
984.6515	2579.7232	2428.3	1542.65
984.7774	2581.0214	2449.05	1536.05
984.9032	2582.3189	2412.1	1525.3
985.029	2583.6157	2423.1	1529.65
985.1548	2584.9118	2420.3	1531.7
985.2806	2586.2072	2407.15	1518.45
985.4063	2587.5019	2412.8	1522.35
985.5319	2588.7959	2405.75	1518.75
985.6576	2590.0893	2396.25	1505.4
985.7832	2591.3819	2402.3	1512.75
985.9087	2592.6739	2389.3	1503.35
986.0343	2593.9652	2403.9	1514.2
986.1597	2595.2557	2395	1508.85
986.2852	2596.5456	2392.7	1500.85
986.4106	2597.8348	2378.85	1491.45
986.536	2599.1234	2372.65	1485.35
986.6614	2600.4112	2372.25	1482.5
986.7867	2601.6983	2367.55	1477.35
986.912	2602.9848	2369.95	1480.95
987.0372	2604.2705	2355.25	1461.9
987.1624	2605.5556	2368.55	1481
987.2876	2606.84	2355.4	1469
987.4128	2608.1237	2350.95	1461.5
987.5379	2609.4067	2337.55	1449.6
987.6629	2610.689	2338.85	1441.8
987.788	2611.9707	2327.2	1436.8
987.913	2613.2516	2324.7	1430.5
988.0379	2614.5319	2318.2	1429.75
988.1629	2615.8115	2306.15	1419.6
988.2878	2617.0903	2299.45	1409.4
988.4126	2618.3685	2293.25	1407.1
988.5375	2619.6461	2294.15	1407.05
988.6622	2620.9229	2291.5	1406.55
988.787	2622.199	2276.95	1385.65
988.9117	2623.4745	2294.3	1407.95
989.0364	2624.7493	2278.45	1389.6
989.161	2626.0234	2268.3	1381.6
989.2857	2627.2968	2276.75	1388.3
989.4102	2628.5695	2265.8	1378.45
989.5348	2629.8415	2257.55	1369.25
989.6593	2631.1128	2255.5	1368.85
989.7837	2632.3835	2256.6	1371.1
989.9082	2633.6535	2239.2	1353
990.0326	2634.9228	2244.9	1358.5
990.1569	2636.1914	2236	1348.7
990.2812	2637.4593	2244.75	1357.9
990.4055	2638.7265	2241.95	1354.2
990.5298	2639.9931	2227.95	1341.35
990.654	2641.259	2228	1342.2
990.7782	2642.5242	2215.5	1329.9
990.9023	2643.7887	2211.4	1325.4
991.0264	2645.0525	2216.75	1329
991.1505	2646.3156	2205.65	1316.5
991.2745	2647.5781	2207.3	1321.25
991.3985	2648.8398	2193.45	1308.3
991.5225	2650.1009	2197.35	1302.35
991.6464	2651.3613	2193.6	1306.4
991.7703	2652.6211	2190.75	1303.6
991.8942	2653.8801	2183.35	1298.05
992.018	2655.1385	2179.15	1289.45
992.1418	2656.3961	2173.7	1286.5
992.2655	2657.6531	2170.3	1283.75
992.3892	2658.9094	2168.05	1282.35
992.5129	2660.1651	2165.5	1278.7
992.6366	2661.42	2157.85	1271.9
992.7602	2662.6743	2154.15	1266.85
992.8837	2663.9279	2165.2	1281.2
993.0073	2665.1808	2164.4	1276.95
993.1307	2666.433	2165.45	1277.85
993.2542	2667.6846	2164.65	1279.15
993.3776	2668.9354	2159	1269.5
993.501	2670.1856	2158.8	1272.15
993.6244	2671.4351	2147.95	1261.35
993.7477	2672.6839	2164.4	1274.2
993.8709	2673.9321	2148.3	1263.9
993.9942	2675.1795	2151.8	1264.7
994.1174	2676.4263	2156.45	1272.05
994.2405	2677.6724	2153.6	1267.15
994.3637	2678.9179	2154	1266.6
994.4868	2680.1626	2133.6	1249.35
994.6098	2681.4067	2147.7	1259.85
994.7328	2682.6501	2134.55	1246.9
994.8558	2683.8928	2132.15	1247.7
994.9788	2685.1348	2129	1243.4
995.1017	2686.3761	2120.05	1234.15
995.2245	2687.6168	2117.3	1231.85
995.3474	2688.8568	2110.7	1224.9
995.4702	2690.0961	2105.6	1220.5
995.5929	2691.3348	2096.75	1211.1
995.7156	2692.5727	2085.6	1201.15
995.8383	2693.81	2091.35	1204.9
995.961	2695.0466	2084.4	1199
996.0836	2696.2826	2080.45	1194.05
996.2062	2697.5178	2099.1	1193.1
996.3287	2698.7524	2082.15	1194.85
996.4512	2699.9863	2084.8	1196.65
996.5737	2701.2195	2078.75	1194.5
996.6961	2702.452	2079.2	1192.05
996.8185	2703.6839	2085.8	1199.2
996.9408	2704.9151	2090.55	1206.95
997.0631	2706.1456	2085.05	1198.65
997.1854	2707.3755	2085.75	1200.55
997.3077	2708.6046	2084.9	1195.4
997.4299	2709.8331	2083.85	1197.55
997.552	2711.0609	2099.75	1211.9
997.6742	2712.2881	2096.4	1209.35
997.7963	2713.5145	2105.4	1219.05
997.9183	2714.7403	2112.1	1227.9
998.0403	2715.9654	2121.55	1235.1
998.1623	2717.1899	2131.35	1231.7
998.2842	2718.4136	2136.65	1249.9
998.4062	2719.6367	2144.9	1258.85
998.528	2720.8591	2151.75	1260.95
998.6498	2722.0809	2157.1	1271.6
998.7716	2723.3019	2166.4	1279.5
998.8934	2724.5223	2168.3	1280.65
999.0151	2725.7421	2175.35	1289.2
999.1368	2726.9611	2171.95	1285.6
999.2584	2728.1795	2172.5	1281.6
999.38	2729.3972	2159.1	1273.55
999.5016	2730.6142	2147.4	1250.1
999.6231	2731.8306	2132.65	1245.65
999.7446	2733.0462	2114.3	1227.8
999.8661	2734.2612	2098.8	1208.95
999.9875	2735.4756	2074.75	1188.9
1000.1089	2736.6892	2061.6	1173
1000.2302	2737.9022	2038.45	1154.3
1000.3515	2739.1145	2016.55	1130.1
1000.4728	2740.3262	2014.1	1119.25
1000.594	2741.5372	1986	1101.75
1000.7152	2742.7475	1979.15	1092.2
1000.8363	2743.9571	1975.95	1090
1000.9575	2745.1661	1964.4	1074.85
1001.0785	2746.3744	1949.7	1062.55
1001.1996	2747.582	1934.95	1049.1
1001.3206	2748.7889	1929.5	1043.8
1001.4415	2749.9952	1919.8	1036.15
1001.5625	2751.2008	1905.9	1019.35
1001.6833	2752.4057	1912.85	1024.6
1001.8042	2753.61	1903.25	1018.25
1001.925	2754.8136	1896.25	1009.85
1002.0458	2756.0165	1898.7	1014.05
1002.1665	2757.2188	1890.75	1006.4
1002.2872	2758.4204	1882.7	999.4
1002.4078	2759.6213	1890.15	1002.5
1002.5285	2760.8215	1887.45	996.9
1002.649	2762.0211	1883.65	997.25
1002.7696	2763.22	1880.5	994.15
1002.8901	2764.4182	1875.15	987.55
1003.0106	2765.6158	1858.55	974.2
1003.131	2766.8127	1851.55	969.1
1003.2514	2768.009	1861.4	976.7
1003.3717	2769.2045	1858.55	974.4
1003.492	2770.3994	1852.15	964.25
1003.6123	2771.5936	1848.5	962.45
1003.7325	2772.7872	1842.15	958.1
1003.8527	2773.9801	1837.65	949.1
1003.9729	2775.1723	1849.35	947.15
1004.093	2776.3639	1827.85	943.85
1004.2131	2777.5548	1830.7	945.15
1004.3331	2778.745	1827.8	943.25
1004.4531	2779.9346	1823.9	941.1
1004.5731	2781.1235	1831.85	947.45
1004.693	2782.3117	1825.55	940.65
1004.8129	2783.4992	1829.15	946.1
1004.9328	2784.6861	1830.05	948.05
1005.0526	2785.8723	1843.6	956.45
1005.1723	2787.0579	1840.55	957.4
1005.2921	2788.2428	1840.3	954.5
1005.4118	2789.427	1846.95	963.1
1005.5314	2790.6106	1853.3	967.5
1005.651	2791.7935	1860.4	975
1005.7706	2792.9757	1858.45	973.85
1005.8902	2794.1573	1872.75	986.2
1006.0097	2795.3382	1883.5	998.7
1006.1291	2796.5184	1898.6	1014.8
1006.2485	2797.698	1923.3	1035.7
1006.3679	2798.8769	1932.35	1048.25
1006.4873	2800.0551	1934.15	1048
1006.6066	2801.2327	1948.85	1062.65
1006.7258	2802.4096	1960	1079
1006.8451	2803.5859	1975.5	1091.7
1006.9642	2804.7615	1993.6	1108.95
1007.0834	2805.9364	2022.4	1138.1
1007.2025	2807.1106	2043.15	1158.35
1007.3216	2808.2842	2074.8	1190.65
1007.4406	2809.4572	2098.45	1212.2
1007.5596	2810.6294	2118	1231.5
1007.6785	2811.801	2164.75	1281.8
1007.7975	2812.972	2211.65	1327.75
1007.9163	2814.1423	2246.2	1363.3
1008.0352	2815.3119	2289.15	1403.65
1008.154	2816.4808	2331.85	1447.25
1008.2727	2817.6491	2393.05	1506.85
1008.3914	2818.8167	2423.15	1539.5
1008.5101	2819.9837	2482.45	1593.9
1008.6288	2821.15	2519.3	1635.25
1008.7474	2822.3157	2558.75	1676.35
1008.8659	2823.4807	2611.35	1726.8
1008.9844	2824.645	2664.2	1778.8
1009.1029	2825.8086	2711.35	1827.85
1009.2214	2826.9716	2742.65	1859.9
1009.3398	2828.134	2794.05	1911.65
1009.4581	2829.2957	2823.2	1939.1
1009.5764	2830.4567	2858.85	1976.45
1009.6947	2831.617	2881.15	1995.7
1009.813	2832.7767	2902.85	2018.9
1009.9312	2833.9358	2887.45	2004.3
1010.0493	2835.0941	2879.8	1994.7
1010.1675	2836.2519	2868.8	1984.05
1010.2855	2837.4089	2861.9	1977.25
1010.4036	2838.5653	2845.4	1960.05
1010.5216	2839.7211	2839.5	1959.5
1010.6396	2840.8761	2849	1964.85
1010.7575	2842.0306	2874.3	1993
1010.8754	2843.1843	2907.25	2023.1
1010.9932	2844.3374	2945.15	2061.55
1011.111	2845.4899	3000.35	2116.85
1011.2288	2846.6417	3065.1	2181.45
1011.3465	2847.7928	3137.05	2252.95
1011.4642	2848.9433	3199.1	2318.15
1011.5818	2850.0931	3277.65	2393.65
1011.6995	2851.2422	3363.85	2477.6
1011.817	2852.3907	3426.45	2541.35
1011.9345	2853.5385	3483.3	2598.5
1012.052	2854.6857	3564.15	2655.65
1012.1695	2855.8323	3574.3	2692.4
1012.2869	2856.9781	3636.15	2752.95
1012.4042	2858.1233	3673.9	2791.2
1012.5216	2859.2679	3709.85	2827.7
1012.6389	2860.4118	3767.8	2883.8
1012.7561	2861.555	3803.8	2916
1012.8733	2862.6976	3845.8	2960.55
1012.9905	2863.8395	3881.55	2999.55
1013.1076	2864.9808	3890.75	3007.25
1013.2247	2866.1214	3908.7	3025.95
1013.3417	2867.2614	3926.4	3042.7
1013.4587	2868.4007	3927.6	3043.35
1013.5757	2869.5393	3945.15	3060.3
1013.6926	2870.6773	3954.65	3070.45
1013.8095	2871.8146	3997.7	3108.85
1013.9263	2872.9513	3973.2	3087.45
1014.0431	2874.0874	3992.6	3108.8
1014.1599	2875.2227	3951.15	3067.35
1014.2766	2876.3574	3939.5	3054.85
1014.3933	2877.4915	3895.05	3013.55
1014.51	2878.6249	3884.9	3004.2
1014.6266	2879.7577	3847	2963.9
1014.7431	2880.8898	3829.75	2936
1014.8596	2882.0212	3798.65	2916.5
1014.9761	2883.152	3796.7	2913.25
1015.0925	2884.2821	3789.15	2906.75
1015.2089	2885.4116	3762.2	2879.55
1015.3253	2886.5405	3779.65	2899.3
1015.4416	2887.6686	3782.45	2895.95
1015.5579	2888.7962	3798.95	2917.75
1015.6741	2889.923	3794.1	2912.2
1015.7903	2891.0493	3816.2	2935.85
1015.9065	2892.1748	3815.65	2934
1016.0226	2893.2997	3823.9	2940.35
1016.1387	2894.424	3851	2968.65
1016.2547	2895.5476	3857.05	2976.85
1016.3707	2896.6706	3872.3	2990.5
1016.4866	2897.7929	3902	3018.15
1016.6025	2898.9145	3937.95	3055.3
1016.7184	2900.0355	3956.15	3073.6
1016.8342	2901.1559	3986.4	3106.8
1016.95	2902.2756	4027.25	3145.95
1017.0658	2903.3946	4055.9	3173.45
1017.1815	2904.513	4073.7	3187.85
1017.2971	2905.6308	4099.05	3220.1
1017.4127	2906.7479	4134.5	3253.7
1017.5283	2907.8643	4147.4	3265.15
1017.6439	2908.9801	4165.3	3282.5
1017.7594	2910.0953	4163.8	3282.9
1017.8748	2911.2098	4168	3283.4
1017.9902	2912.3236	4166.7	3277.25
1018.1056	2913.4368	4158.35	3272.35
1018.2209	2914.5494	4126.1	3246
1018.3362	2915.6613	4098.05	3210.6
1018.4515	2916.7725	4073.1	3188.55
1018.5667	2917.8831	4038.9	3155.3
1018.6819	2918.9931	4009.5	3124.2
1018.797	2920.1024	3970.2	3086.2
1018.9121	2921.211	3953.15	3072.4
1019.0271	2922.319	3943.6	3059.3
1019.1421	2923.4264	3918.7	3038.35
1019.2571	2924.5331	3894.25	3013.4
1019.372	2925.6391	3880.8	3000.85
1019.4869	2926.7445	3893.7	3011.9
1019.6017	2927.8493	3872.15	2990
1019.7165	2928.9534	3880.9	2997.6
1019.8313	2930.0569	3861.65	2979.35
1019.946	2931.1597	3859.3	2975.65
1020.0606	2932.2619	3859.25	2979.65
1020.1753	2933.3634	3849.75	2966.7
1020.2899	2934.4643	3842.65	2954.45
1020.4044	2935.5645	3819.15	2932.45
1020.5189	2936.6641	3783.6	2898.55
1020.6334	2937.763	3752.55	2873.35
1020.7478	2938.8613	3704.75	2823.35
1020.8622	2939.959	3648.75	2762.85
1020.9765	2941.056	3584.55	2705.25
1021.0908	2942.1523	3497.2	2614.55
1021.2051	2943.248	3416.15	2535.05
1021.3193	2944.3431	3314.65	2431.7
1021.4334	2945.4375	3207.45	2324.95
1021.5476	2946.5313	3108.9	2227.85
1021.6617	2947.6244	3007.3	2125.65
1021.7757	2948.7169	2904.45	2022.2
1021.8897	2949.8087	2807.35	1926.75
1022.0037	2950.8999	2711	1831.95
1022.1176	2951.9904	2641.55	1763.25
1022.2315	2953.0803	2563.7	1681.5
1022.3453	2954.1696	2506.7	1626.35
1022.4591	2955.2582	2445.65	1565.25
1022.5728	2956.3462	2402.75	1520.3
1022.6865	2957.4335	2357.3	1475.65
1022.8002	2958.5202	2332.15	1448.5
1022.9138	2959.6062	2301.05	1419.75
1023.0274	2960.6916	2277.8	1396.4
1023.141	2961.7764	2262.7	1381.7
1023.2545	2962.8605	2239.15	1358.9
1023.3679	2963.9439	2221.1	1339.4
1023.4813	2965.0267	2215.35	1334.8
1023.5947	2966.1089	2232.8	1330.3
1023.708	2967.1905	2201.4	1320.9
1023.8213	2968.2714	2203.65	1325.05
1023.9346	2969.3516	2196.95	1315.25
1024.0478	2970.4312	2210.05	1321
1024.1609	2971.5102	2199.9	1320.2
1024.274	2972.5885	2201.45	1319.85
1024.3871	2973.6662	2193.4	1307.35
1024.5002	2974.7432	2189.4	1310.6
1024.6132	2975.8196	2173.6	1292.4
1024.7261	2976.8954	2169.15	1290
1024.839	2977.9705	2158.05	1276.95
1024.9519	2979.045	2153.85	1276.2
1025.0647	2980.1188	2133.25	1250.85
1025.1775	2981.192	2105.8	1228.05
1025.2902	2982.2645	2100.8	1219.25
1025.4029	2983.3364	2066.7	1185.25
1025.5156	2984.4077	2034.05	1152.7
1025.6282	2985.4783	2002.9	1114.4
1025.7407	2986.5483	1970.65	1091.45
1025.8532	2987.6177	1939.15	1058.1
1025.9657	2988.6864	1904.8	1021.55
1026.0782	2989.7545	1870.6	991.2
1026.1906	2990.8219	1839.3	958.25
1026.3029	2991.8887	1805.9	923
1026.4152	2992.9548	1777.35	898.45
1026.5275	2994.0204	1742.45	862.6
1026.6397	2995.0852	1716	836.95
1026.7519	2996.1495	1695.75	812.9
1026.864	2997.2131	1665	783.95
1026.9761	2998.276	1642.05	764.2
1027.0882	2999.3383	1616.9	735.4
1027.2002	3000.4	1603.9	722.25
1027.3122	3001.4611	1585.45	703.3
1027.4241	3002.5215	1571.3	691.35
1027.536	3003.5812	1555.9	677.55
1027.6478	3004.6404	1542.4	661.2
1027.7596	3005.6989	1532.7	651.8
1027.8714	3006.7567	1514.7	633.7
1027.9831	3007.8139	1545.55	631.65
1028.0947	3008.8705	1505.6	624.95
1028.2064	3009.9264	1507.45	625.8
1028.3179	3010.9818	1493.35	614.15
1028.4295	3012.0364	1485.1	604.6
1028.541	3013.0905	1484.9	604.4
1028.6524	3014.1439	1480.05	598.8
1028.7638	3015.1966	1478	599.45
1028.8752	3016.2487	1465.9	584.75
1028.9865	3017.3002	1475.1	591.9
1029.0978	3018.3511	1463.05	584.55
1029.209	3019.4013	1465.7	586.5
1029.3202	3020.4509	1465.3	585.9
1029.4314	3021.4998	1460.8	578.85
1029.5425	3022.5481	1467.25	586.9
1029.6535	3023.5958	1466.2	584.7
1029.7645	3024.6428	1462.25	581.9
1029.8755	3025.6892	1465.35	584.85
1029.9864	3026.735	1465.1	585.45
1030.0973	3027.7802	1468	588.8
1030.2082	3028.8247	1461.8	582.5
1030.319	3029.8685	1468.1	588.25
1030.4297	3030.9118	1466.8	586.9
1030.5404	3031.9544	1467.45	589
1030.6511	3032.9963	1478.25	598.25
1030.7617	3034.0376	1472.3	590.9
1030.8723	3035.0783	1474.75	592.85
1030.9829	3036.1184	1481.75	600.25
1031.0934	3037.1578	1488.2	610.65
1031.2038	3038.1966	1493.35	612.5
1031.3142	3039.2348	1487.95	609.55
1031.4246	3040.2723	1499	612.5
1031.5349	3041.3092	1489.35	611.25
1031.6452	3042.3455	1484.8	605.55
1031.7554	3043.3811	1481.75	601.7
1031.8656	3044.4161	1474.5	592.5
1031.9758	3045.4505	1477.5	599.2
1032.0859	3046.4842	1462.8	580.9
1032.1959	3047.5173	1456.8	580.2
1032.3059	3048.5498	1459.65	580.55
1032.4159	3049.5816	1445.55	565.6
1032.5258	3050.6128	1440.95	560.4
1032.6357	3051.6434	1432.5	553.65
1032.7455	3052.6734	1434.2	554
1032.8553	3053.7027	1428.4	548.45
1032.9651	3054.7314	1422.85	543.65
1033.0748	3055.7594	1411.5	532.3
1033.1845	3056.7868	1412.4	533
1033.2941	3057.8136	1402.75	522.65
1033.4037	3058.8398	1397.15	519.5
1033.5132	3059.8653	1394.75	515.85
1033.6227	3060.8902	1394.1	515.9
1033.7321	3061.9145	1387.1	507.8
1033.8415	3062.9381	1373.35	495.8
1033.9509	3063.9612	1382.6	488.6
1034.0602	3064.9835	1356.25	478.05
1034.1694	3066.0053	1356.05	474
1034.2787	3067.0264	1348.35	471.2
1034.3878	3068.0469	1351.2	471.25
1034.497	3069.0668	1343.15	463.5
1034.6061	3070.086	1333.7	454.75
1034.7151	3071.1046	1326.8	448.1
1034.8241	3072.1226	1318	439.85
1034.9331	3073.1399	1313.15	436.25
1035.042	3074.1567	1297.85	417.15
1035.1508	3075.1727	1295.5	415.05
1035.2597	3076.1882	1281.3	401.1
1035.3684	3077.203	1276.65	397.25
1035.4772	3078.2173	1264.4	385.3
1035.5859	3079.2308	1258.7	379.05
1035.6945	3080.2438	1250.8	370.85
1035.8031	3081.2561	1238.4	359.9
1035.9117	3082.2678	1232.5	354.2
1036.0202	3083.2789	1220.75	339
1036.1286	3084.2893	1217.55	339.45
1036.2371	3085.2991	1211.9	331.8
1036.3454	3086.3083	1215.8	330.5
1036.4538	3087.3169	1203.15	322.55
1036.562	3088.3248	1198.75	317.15
1036.6703	3089.3321	1196	317.35
1036.7785	3090.3388	1187.65	310.55
1036.8866	3091.3449	1177.85	298.45
1036.9948	3092.3503	1185.5	304.85
1037.1028	3093.3551	1176.2	299
1037.2108	3094.3593	1168.2	291.55
1037.3188	3095.3629	1164.3	286.3
1037.4267	3096.3658	1167.15	286.2
1037.5346	3097.3681	1157.4	281.05
1037.6425	3098.3698	1156.2	274.3
1037.7503	3099.3708	1154.85	276
1037.858	3100.3713	1151	272.65
1037.9657	3101.3711	1147.05	266
1038.0734	3102.3702	1284.2	265.55
1038.181	3103.3688	1143.8	263.35
1038.2886	3104.3667	1142.35	265.35
1038.3961	3105.364	1136.35	257.05
1038.5036	3106.3607	1141.35	261.2
1038.611	3107.3568	1131.9	253.95
1038.7184	3108.3522	1132.85	254.8
1038.8257	3109.347	1133.55	253.55
1038.933	3110.3412	1128.8	243.1
1039.0403	3111.3348	1127.95	248.65
1039.1475	3112.3277	1121.25	242.8
1039.2547	3113.32	1118.05	242.25
1039.3618	3114.3117	1118	237.35
1039.4689	3115.3028	1118.15	239.75
1039.5759	3116.2932	1116.75	237.9
1039.6829	3117.2831	1120	237.05
1039.7898	3118.2723	1114.25	237
1039.8967	3119.2608	1109.85	229.15
1040.0035	3120.2488	1105.65	227.75
1040.1103	3121.2361	1105.45	226
1040.2171	3122.2229	1104.1	224.65
1040.3238	3123.209	1103.5	223.1
1040.4305	3124.1944	1100.5	223
1040.5371	3125.1793	1104.3	224.2
1040.6437	3126.1635	1100.1	221.85
1040.7502	3127.1471	1098.35	220.5
1040.8567	3128.1301	1095.85	218.05
1040.9631	3129.1125	1090.2	211.4
1041.0695	3130.0942	1092.15	214.75
1041.1759	3131.0753	1098.55	213.2
1041.2822	3132.0558	1091.6	211
1041.3884	3133.0357	1088.95	209.3
1041.4946	3134.015	1080.9	198.9
1041.6008	3134.9936	1087.6	206.4
1041.7069	3135.9716	1098.75	198.15
1041.813	3136.949	1083.15	207.15
1041.919	3137.9258	1096.55	201.1
1042.025	3138.902	1085.2	204.2
1042.1309	3139.8775	1073.9	198.05
1042.2368	3140.8524	1077.65	197.6
1042.3427	3141.8267	1072.4	191.75
1042.4485	3142.8004	1072.9	194.85
1042.5542	3143.7735	1076.1	189.2
1042.6599	3144.7459	1071.15	193.35
1042.7656	3145.7178	1072.45	193
1042.8712	3146.689	1063.85	185.75
1042.9768	3147.6596	1068.7	189.85
1043.0823	3148.6295	1066.3	189.2
1043.1878	3149.5989	1059.75	183.05
1043.2932	3150.5676	1061.4	184.45
1043.3986	3151.5357	1055.3	179.45
1043.5039	3152.5032	1055.9	180.4
1043.6092	3153.4701	1056.7	176.05
1043.7145	3154.4364	1058.25	179.3
1043.8197	3155.402	1056.35	178.95
1043.9248	3156.367	1054.75	173.45
1044.03	3157.3315	1083.9	180.65
1044.135	3158.2952	1049.7	170.6
1044.24	3159.2584	1048.75	169.75
1044.345	3160.221	1052.8	175.95
1044.4499	3161.1829	1048.2	169.45
1044.5548	3162.1442	1046.9	170
1044.6596	3163.105	1042.85	164.55
1044.7644	3164.065	1045.95	168.4
1044.8692	3165.0245	1044	164.5
1044.9739	3165.9834	1041.4	164.45
1045.0785	3166.9416	1038.95	159.95
1045.1831	3167.8993	1043	166.35
1045.2877	3168.8563	1038.35	157.4
1045.3922	3169.8127	1036.55	159.45
1045.4966	3170.7684	1037.95	160.25
1045.6011	3171.7236	1038.35	159.1
1045.7054	3172.6782	1034.9	157.85
1045.8098	3173.6321	1034.75	155.9
1045.914	3174.5854	1035.85	154.1
1046.0183	3175.5381	1033.9	155.55
1046.1224	3176.4902	1033.15	156.9
1046.2266	3177.4417	1026.25	148.2
1046.3307	3178.3926	1025.8	149.1
1046.4347	3179.3428	1027.1	152.9
1046.5387	3180.2924	1026.65	148.35
1046.6427	3181.2415	1027.85	151.3
1046.7466	3182.1899	1026.25	147.65
1046.8504	3183.1377	1026.9	149.55
1046.9542	3184.0848	1025.45	144.05
1047.058	3185.0314	1025.35	146.5
1047.1617	3185.9773	1019.85	142.15
1047.2654	3186.9227	1023.85	146.1
1047.369	3187.8674	1020.45	143.75
1047.4726	3188.8115	1025.45	146
1047.5761	3189.755	1016.8	137.85
1047.6796	3190.6979	1018.2	140.75
1047.783	3191.6402	1018.6	140.75
1047.8864	3192.5818	1017.25	139
1047.9898	3193.5229	1022.4	140.05
1048.0931	3194.4633	1015.3	138.3
1048.1963	3195.4031	1013.2	134.55
1048.2995	3196.3423	1016.95	139.55
1048.4027	3197.2809	1015.1	138.15
1048.5058	3198.2189	1010.3	132
1048.6089	3199.1563	1017.6	133
1048.7119	3200.0931	1010.7	134.95
1048.8148	3201.0292	1010.9	134.35
1048.9178	3201.9648	1008.95	131.9
1049.0206	3202.8997	1013.85	135.9
1049.1235	3203.834	1008.1	131.45
1049.2262	3204.7677	1007.3	129.3
1049.329	3205.7008	1008.65	129
1049.4317	3206.6333	1003.2	126.35
1049.5343	3207.5652	1008.3	128.05
1049.6369	3208.4964	1002.7	123.2
1049.7394	3209.4271	1004.6	127.6
1049.8419	3210.3571	1004.6	127.35
1049.9444	3211.2865	1003.95	126.65
1050.0468	3212.2154	1000.55	125.65
1050.1491	3213.1436	1004.2	123.95
1050.2514	3214.0712	1006.95	122.4
1050.3537	3214.9982	999.4	122.55
1050.4559	3215.9246	998.35	118.85
1050.5581	3216.8503	1000.35	123.3
1050.6602	3217.7755	994.5	115.3
1050.7623	3218.7001	996.2	118.55
1050.8643	3219.624	996.5	120.55
1050.9663	3220.5473	994.1	114.65
1051.0682	3221.4701	998.35	119.8
1051.1701	3222.3922	996.95	117.6
1051.2719	3223.3137	992.4	116.8
1051.3737	3224.2346	992.15	114.1
1051.4754	3225.1549	994.5	117
1051.5771	3226.0746	990.6	111.6
1051.6788	3226.9937	988.3	111.6
1051.7804	3227.9121	986.45	112.25
1051.8819	3228.83	991.45	116.8
1051.9834	3229.7473	988.15	110.5
1052.0849	3230.6639	983.8	107.2
1052.1863	3231.5799	983.9	107.3
1052.2876	3232.4954	988.7	110.2
1052.3889	3233.4102	984.45	107
1052.4902	3234.3244	984.45	106.45
1052.5914	3235.238	980.85	105.45
1052.6926	3236.151	1010.1	109.7
1052.7937	3237.0634	981.8	106.05
1052.8948	3237.9752	982.7	103.45
1052.9958	3238.8864	985	107.45
1053.0968	3239.797	981.15	104.5
1053.1977	3240.7069	978.45	101.75
1053.2986	3241.6163	980.45	100.5
1053.3994	3242.5251	975.75	100.55
1053.5002	3243.4332	973.95	97.85
1053.6009	3244.3408	976.65	99
1053.7016	3245.2477	973.5	97.4
1053.8022	3246.154	975.75	98
1053.9028	3247.0598	974	96.65
1054.0034	3247.9649	973.7	96.8
1054.1039	3248.8694	974	96.55
1054.2043	3249.7733	974.7	96.8
1054.3047	3250.6766	972.1	95.75
1054.4051	3251.5793	969.4	93.15
1054.5054	3252.4814	968.85	92.7
1054.6056	3253.3829	967.3	90.1
1054.7058	3254.2838	969.75	93.8
1054.806	3255.1841	969.35	93.75
1054.9061	3256.0838	964.8	90.3
1055.0061	3256.9829	963.8	86.55
1055.1062	3257.8814	963.95	86.65
1055.2061	3258.7792	967.4	89.5
1055.306	3259.6765	968.5	90.25
1055.4059	3260.5731	961.85	84.65
1055.5057	3261.4692	963.6	86.6
1055.6055	3262.3647	960.8	82.15
1055.7052	3263.2595	958.75	82.85
1055.8049	3264.1538	956.9	79.05
1055.9045	3265.0474	955.85	78.65
1056.0041	3265.9404	953.9	76.9
1056.1036	3266.8329	952.7	76.5
1056.2031	3267.7247	963.95	79.9
1056.3025	3268.616	948.55	73.55
1056.4019	3269.5066	949.05	71.8
1056.5013	3270.3966	951.45	73.8
1056.6005	3271.286	941.95	66.8
