Software Version:	3.9.2.0
Unit SN:	10000200
Spectrometer SN:	6960
Date:	3/8/2024 12:50:15 PM
Data Line Index:	25
Spectral Points:	2048
Integration time (ms):	125
Averages:	20
Delay (ms):	30000
Sequence Number:	1
Processing:	dark subtract
Laser Power (mW):	300
Laser Current (mA):	822
Laser Diode Temp (C):	25.1
Laser Case Temp (C):	26.1
System Temp (C):	26.1
Spectrometer Temp (C):	23.9
CCD Temp (C):	0.009
Secondary Temp (C):	20.011
Heatsink Temp (C):	20.45
CCDPCB Temp (C):	36.285
SecondaryPCB Temp (C):	30.571

Wavelength	RamanShift	Raw Counts	Dark Subtracted
787.061	30.1047	452.1	45.25
787.2016	32.3739	453.25	45.9
787.3422	34.6426	458.95	50.9
787.4828	36.9109	461.5	52.1
787.6235	39.1787	471.05	56.8
787.7642	41.4461	480.9	63.3
787.9049	43.7131	487.5	67.55
788.0456	45.9796	500.1	76
788.1863	48.2456	507.7	78.3
788.3271	50.5112	513.95	81.4
788.4679	52.7764	524.5	90.25
788.6087	55.0411	533.7	94.85
788.7496	57.3054	548	102.5
788.8904	59.5692	554.85	107.2
789.0313	61.8326	565.85	115.7
789.1722	64.0955	577.6	124.85
789.3132	66.3579	594.35	135.35
789.4541	68.6199	611.95	150.6
789.5951	70.8815	652	187.2
789.7361	73.1426	727.9	257.25
789.8771	75.4032	935.65	459.75
790.0181	77.6634	1446.8	966.2
790.1592	79.9231	2647.95	2161.55
790.3003	82.1824	5247.65	4744.35
790.4414	84.4412	9845.25	9317.75
790.5825	86.6995	16184.15	15622.75
790.7237	88.9574	22332.9	21745.7
790.8648	91.2148	26458.2	25845.45
791.006	93.4717	28264.35	27642.05
791.1472	95.7282	28459.5	27831.7
791.2885	97.9842	28132.3	27495.6
791.4297	100.2398	27346.2	26711.25
791.571	102.4949	26501.55	25864.05
791.7123	104.7495	25547.45	24906.75
791.8536	107.0036	24599.3	23955.75
791.9949	109.2573	23744.95	23105.85
792.1363	111.5105	22979.25	22336.85
792.2777	113.7632	22242.15	21595.2
792.4191	116.0154	21668.75	21010.75
792.5605	118.2672	21253.6	20599
792.7019	120.5185	20820.65	20166
792.8434	122.7693	20490.95	19836.35
792.9849	125.0197	20227.55	19568.1
793.1264	127.2696	19933.2	19268.75
793.2679	129.519	19701.45	19030.05
793.4094	131.7679	19439.75	18768.2
793.551	134.0163	19156.4	18483.95
793.6926	136.2642	18810.25	18137.8
793.8342	138.5117	18440.2	17756.8
793.9758	140.7587	18041.45	17365.85
794.1175	143.0052	17733.95	17052.75
794.2591	145.2512	17412.25	16728.55
794.4008	147.4967	17068.6	16388.2
794.5425	149.7417	16870.5	16183.75
794.6842	151.9863	16671.6	15984.15
794.826	154.2304	16567.9	15870.65
794.9677	156.4739	16359.3	15661.55
795.1095	158.717	16283.1	15582.85
795.2513	160.9596	16087.6	15381.8
795.3931	163.2017	15810.8	15107.3
795.535	165.4433	15509.8	14800.3
795.6768	167.6844	15166.8	14453.6
795.8187	169.925	14823.85	14113.45
795.9606	172.1651	14464.5	13748.85
796.1025	174.4047	14214.35	13497.85
796.2445	176.6439	13979.8	13262.65
796.3864	178.8825	13743.4	13022.1
796.5284	181.1206	13552.4	12828.15
796.6704	183.3582	13444.55	12712.3
796.8124	185.5954	13372.35	12638.25
796.9544	187.832	13262.4	12526.15
797.0965	190.0681	13231.8	12493.3
797.2386	192.3037	13224.5	12480.75
797.3806	194.5388	13207.8	12461.3
797.5228	196.7734	13272.65	12524.05
797.6649	199.0075	13329.65	12576.8
797.807	201.2411	13451.9	12701.15
797.9492	203.4742	13511.9	12759.35
798.0914	205.7068	13671.95	12920.25
798.2336	207.9389	13812.6	13055.75
798.3758	210.1704	13949.2	13196.9
798.518	212.4015	14055.75	13310.6
798.6603	214.632	14177.45	13440.15
798.8025	216.862	14368.6	13634.35
798.9448	219.0915	14479.65	13743.75
799.0871	221.3205	14579.2	13838.6
799.2294	223.549	14692.2	13957.55
799.3718	225.777	14814.1	14080.3
799.5141	228.0044	14939.05	14197.4
799.6565	230.2314	15126.6	14384.15
799.7989	232.4578	15311.95	14567.9
799.9413	234.6837	15430.8	14679
800.0837	236.909	15547.05	14788.25
800.2262	239.1339	15552.4	14769.3
800.3687	241.3582	15473.65	14705.35
800.5111	243.582	15313.65	14516.7
800.6536	245.8053	15183.2	14401.05
800.7961	248.0281	15101.1	14327.1
800.9387	250.2503	15058.55	14278.75
801.0812	252.472	15105.15	14317.5
801.2238	254.6932	15174.1	14392.95
801.3664	256.9139	15280.25	14497.45
801.509	259.134	15465.85	14676.75
801.6516	261.3536	15633.35	14844.35
801.7942	263.5727	15968.4	15177.25
801.9369	265.7912	16186.2	15400.4
802.0795	268.0092	16453.7	15665.4
802.2222	270.2267	16591.15	15802.8
802.3649	272.4436	16726.4	15935.7
802.5076	274.6601	16728.5	15929.5
802.6504	276.8759	16608.3	15811.95
802.7931	279.0913	16536.95	15742.65
802.9359	281.3061	16441.55	15640.8
803.0787	283.5204	16361.5	15556.9
803.2215	285.7341	16339.25	15531.95
803.3643	287.9473	16363.05	15548.3
803.5071	290.16	16491.55	15680.65
803.6499	292.3721	16548.9	15745.55
803.7928	294.5837	16847.9	16043.65
803.9357	296.7947	17048.15	16246.8
804.0786	299.0052	17230.25	16426.65
804.2215	301.2152	17204.05	16396.3
804.3644	303.4246	17014.5	16211.05
804.5074	305.6334	16628.25	15825.35
804.6503	307.8418	16213.2	15407.95
804.7933	310.0495	15739.35	14928.3
804.9363	312.2568	15345.15	14536.1
805.0793	314.4635	14972.45	14160.1
805.2223	316.6696	14675.75	13860
805.3653	318.8752	14512.15	13689.05
805.5084	321.0802	14441.65	13624.9
805.6514	323.2847	14466.1	13647.05
805.7945	325.4887	14503.25	13686.9
805.9376	327.692	14456.1	13638.75
806.0807	329.8949	14386.9	13563.15
806.2238	332.0972	14214.45	13392.95
806.367	334.2989	13991.7	13166.15
806.5101	336.5001	13746.6	12923.25
806.6533	338.7007	13519.1	12697.4
806.7965	340.9008	13346.1	12522
806.9397	343.1003	13201.15	12374.85
807.0829	345.2992	13118.7	12291.35
807.2261	347.4976	13012.65	12183.2
807.3693	349.6955	12947.25	12111.3
807.5126	351.8927	12932.4	12100.2
807.6559	354.0895	12850.5	12003.95
807.7991	356.2856	12860.3	12024.05
807.9424	358.4812	12777.15	11944.3
808.0857	360.6763	12791.25	11950.45
808.2291	362.8707	12773.5	11933.3
808.3724	365.0646	12827.55	11986.85
808.5158	367.258	12859.2	12017.85
808.6591	369.4508	12909.35	12063.25
808.8025	371.643	13049.15	12200.25
808.9459	373.8346	13121.1	12273.95
809.0893	376.0257	13233.15	12381.05
809.2327	378.2162	13243	12394.85
809.3762	380.4062	13204.05	12353.15
809.5196	382.5956	13083.75	12237.55
809.6631	384.7844	12966	12124.6
809.8066	386.9726	12828.3	11985.65
809.9501	389.1603	12752.45	11912.75
810.0936	391.3474	12726.05	11857.5
810.2371	393.5339	12678.7	11832.2
810.3806	395.7199	12623.7	11779.15
810.5241	397.9052	12682.75	11842.65
810.6677	400.09	12742.2	11902.05
810.8113	402.2743	12858.6	12016.6
810.9548	404.4579	13052.65	12209
811.0984	406.641	13267.35	12423.2
811.2421	408.8235	13417.25	12569.9
811.3857	411.0054	13618.85	12767.95
811.5293	413.1868	13828.8	12973.35
811.673	415.3675	13938.6	13080.45
811.8166	417.5477	13962.3	13107.3
811.9603	419.7273	13916.75	13057.4
812.104	421.9064	13825.25	12960.15
812.2477	424.0848	13751.4	12892.05
812.3914	426.2627	13598.45	12741.7
812.5351	428.4399	13383.55	12523.8
812.6788	430.6166	13023.7	12158.35
812.8226	432.7928	12679.7	11817.65
812.9663	434.9683	12374.55	11508.25
813.1101	437.1432	12161.9	11300.8
813.2539	439.3176	11971.85	11112.4
813.3977	441.4914	11862.45	11005.05
813.5415	443.6645	11815.8	10958.55
813.6853	445.8371	11761.55	10901.45
813.8291	448.0091	11739.45	10879.05
813.973	450.1806	11706	10840.1
814.1168	452.3514	11707.35	10846.15
814.2607	454.5216	11769.4	10897.3
814.4046	456.6913	11730.2	10865
814.5485	458.8603	11759.75	10899.8
814.6924	461.0288	11827.6	10969.8
814.8363	463.1967	11813.4	10956.7
814.9802	465.3639	11836.7	10974.55
815.1241	467.5306	11837.75	10975.4
815.2681	469.6967	11853.7	10993.8
815.412	471.8622	11896.65	11038.5
815.556	474.0271	11976.65	11113.5
815.7	476.1914	12015.55	11148.35
815.844	478.3551	12017.4	11154.25
815.988	480.5182	12059.9	11197.3
816.132	482.6807	12130.6	11270.4
816.276	484.8426	12307.45	11453.85
816.4201	487.0039	12660.15	11799.45
816.5641	489.1647	13037.2	12174.4
816.7082	491.3248	13403.75	12537.25
816.8522	493.4843	13504.9	12640.55
816.9963	495.6432	13487.2	12623.75
817.1404	497.8015	13317.6	12448.8
817.2845	499.9592	13222.8	12346.5
817.4286	502.1163	13066.05	12188.8
817.5727	504.2728	12736.15	11865.1
817.7168	506.4287	12457.75	11596.55
817.861	508.5839	12101.05	11237
818.0051	510.7386	11903.45	11035.55
818.1493	512.8927	11776.8	10896.35
818.2935	515.0461	11771.85	10897.95
818.4377	517.199	11812.55	10936.9
818.5818	519.3512	11996.3	11116.8
818.726	521.5029	12247.3	11367.2
818.8703	523.6539	12478.45	11601.15
819.0145	525.8043	12572.55	11697.35
819.1587	527.9541	12528.9	11649.45
819.303	530.1033	12365.15	11490.9
819.4472	532.2519	12238.7	11362.1
819.5915	534.3999	12174.9	11296.8
819.7357	536.5472	12282.7	11404.45
819.88	538.694	12526.25	11652.3
820.0243	540.8401	12827.9	11950.45
820.1686	542.9856	13081.65	12195.95
820.3129	545.1305	13160.1	12270.75
820.4572	547.2748	13083.35	12192.6
820.6016	549.4185	12841.25	11948.35
820.7459	551.5615	12691.75	11802.25
820.8902	553.704	12676.25	11786.05
821.0346	555.8458	12746.55	11861.1
821.1789	557.987	12885.75	12002
821.3233	560.1276	13087.25	12197.6
821.4677	562.2675	13442	12551.7
821.6121	564.4069	13928.6	13044
821.7565	566.5456	14329.65	13446.7
821.9009	568.6837	14448.4	13565.05
822.0453	570.8212	14057.35	13178.7
822.1897	572.958	13399.15	12509.6
822.3342	575.0942	12802.25	11918.3
822.4786	577.2299	12360.15	11479.7
822.6231	579.3648	12180.35	11309.1
822.7675	581.4992	12115.35	11248.3
822.912	583.6329	12230.75	11364.9
823.0565	585.766	12428.4	11556.85
823.201	587.8985	12580.85	11707.1
823.3454	590.0304	12648	11745.95
823.4899	592.1616	12571.6	11682.05
823.6345	594.2922	12467.55	11580.15
823.779	596.4222	12269.25	11377.3
823.9235	598.5515	12076.25	11182.5
824.068	600.6802	11892.2	11001.3
824.2126	602.8083	11718.45	10827.1
824.3571	604.9358	11722.2	10828.55
824.5017	607.0626	11713.55	10818.9
824.6462	609.1888	11818.75	10920.75
824.7908	611.3144	11932.45	11035.4
824.9354	613.4393	12048.6	11149.35
825.08	615.5636	12140.25	11242.1
825.2246	617.6873	12130.45	11232.25
825.3692	619.8103	12069.8	11174.3
825.5138	621.9327	11857.65	10961.95
825.6584	624.0544	11679.15	10788.15
825.803	626.1756	11503.2	10611.35
825.9477	628.2961	11361.95	10467.15
826.0923	630.4159	11289.9	10392.8
826.237	632.5351	11253.25	10358.65
826.3816	634.6537	11248.35	10351.5
826.5263	636.7716	11236.35	10333.8
826.6709	638.8889	11253.25	10351.05
826.8156	641.0056	11300.6	10397.35
826.9603	643.1216	11252.7	10351.6
827.105	645.237	11229.2	10327.55
827.2497	647.3518	11156.95	10261.55
827.3944	649.4659	11102.45	10211.4
827.5391	651.5793	11024.35	10132.25
827.6838	653.6922	10987.1	10095
827.8285	655.8043	11000.2	10104.7
827.9733	657.9159	10985.15	10089.25
828.118	660.0268	10964.2	10067.35
828.2627	662.137	10988.7	10088.8
828.4075	664.2466	10972.85	10074.15
828.5522	666.3556	10959.6	10057.5
828.697	668.4639	10926	10024.25
828.8418	670.5716	10889.1	9993.7
828.9865	672.6786	10877.25	9975.65
829.1313	674.785	10851.55	9943.65
829.2761	676.8907	10810.25	9910.15
829.4209	678.9958	10836.55	9941.5
829.5657	681.1002	10816.55	9912.05
829.7105	683.204	10798.35	9889.5
829.8553	685.3072	10786.35	9879.8
830.0001	687.4097	10751.45	9847.3
830.1449	689.5115	10736.55	9829.7
830.2898	691.6127	10735.55	9834.9
830.4346	693.7132	10717.45	9817.65
830.5794	695.8131	10727.05	9807.35
830.7243	697.9123	10755.3	9849.25
830.8691	700.0109	10753.85	9845.2
831.014	702.1089	10783.15	9876.15
831.1588	704.2061	10825.85	9919.15
831.3037	706.3028	10889.75	9975.4
831.4486	708.3987	10929	10022.05
831.5935	710.4941	10956.7	10048.7
831.7383	712.5887	11046.1	10141.7
831.8832	714.6827	11142.4	10232.7
832.0281	716.7761	11327.85	10422.7
832.173	718.8688	11502.3	10593.15
832.3179	720.9608	11650.75	10736.65
832.4628	723.0522	11785.7	10869.95
832.6077	725.1429	11809.35	10899.9
832.7527	727.233	11844.75	10933.35
832.8976	729.3224	11857.3	10947.4
833.0425	731.4112	11803.9	10891.4
833.1874	733.4993	11618	10706.75
833.3324	735.5867	11397.45	10489
833.4773	737.6735	11195.25	10285.05
833.6222	739.7596	11012.85	10098.75
833.7672	741.845	10907.55	9994.1
833.9122	743.9298	10810.6	9898.35
834.0571	746.014	10792.8	9882.3
834.2021	748.0974	10782.25	9866.35
834.347	750.1802	10773.45	9860.1
834.492	752.2624	10802.15	9885.75
834.637	754.3439	10834.65	9919.05
834.782	756.4247	10945.05	10023.85
834.9269	758.5048	11117.4	10204.1
835.0719	760.5843	11414.25	10498.15
835.2169	762.6631	11851.45	10935.3
835.3619	764.7413	12424.15	11507.6
835.5069	766.8188	13108.8	12189.85
835.6519	768.8956	13684.6	12770
835.7969	770.9718	14075.7	13162.3
835.9419	773.0473	13995.9	13077.1
836.0869	775.1221	13704.05	12789.6
836.232	777.1962	13439.75	12524.6
836.377	779.2697	13326.95	12408.15
836.522	781.3426	13400.4	12474.95
836.667	783.4147	13481.8	12563.35
836.8121	785.4862	13592.7	12677.1
836.9571	787.557	13438.7	12519.5
837.1021	789.6271	12994.4	12076.85
837.2472	791.6966	12372.25	11453.6
837.3922	793.7654	11760.9	10841.95
837.5373	795.8335	11340.65	10422.75
837.6823	797.901	11045.2	10124.35
837.8274	799.9678	10880.15	9958.65
837.9724	802.0339	10803.35	9885
838.1175	804.0993	10769.8	9841.6
838.2626	806.1641	10696.75	9775.75
838.4076	808.2282	10625.95	9707.25
838.5527	810.2916	10565.55	9642.2
838.6978	812.3544	10478.15	9560.6
838.8428	814.4164	10415.25	9498.25
838.9879	816.4778	10467.8	9543.25
839.133	818.5385	10486.55	9564.05
839.2781	820.5986	10663.7	9744.2
839.4232	822.658	10874.05	9951.85
839.5682	824.7166	11201.45	10283.45
839.7133	826.7747	11693.4	10770.9
839.8584	828.832	12220.35	11298.55
840.0035	830.8886	12561.5	11638.8
840.1486	832.9446	12756.3	11832.05
840.2937	834.9999	12631.25	11710.8
840.4388	837.0545	12352.5	11428.75
840.5839	839.1085	12043.3	11119.45
840.729	841.1618	11753.05	10829.3
840.8741	843.2143	11504.65	10582.85
841.0192	845.2662	11303.75	10384
841.1643	847.3175	11190.2	10268.55
841.3095	849.368	11062.9	10137.8
841.4546	851.4179	10983.95	10062.1
841.5997	853.467	10863.4	9939.8
841.7448	855.5155	10787.8	9864.5
841.8899	857.5633	10720.8	9795.95
842.0351	859.6105	10587.7	9667.35
842.1802	861.6569	10537.4	9613.55
842.3253	863.7027	10484	9554.6
842.4704	865.7478	10426.2	9499.85
842.6156	867.7922	10417.75	9491.35
842.7607	869.8359	10382.8	9455.95
842.9058	871.8789	10435.8	9510.4
843.0509	873.9212	10536.8	9579.9
843.1961	875.9629	10602.2	9677.45
843.3412	878.0039	10713.6	9789.4
843.4863	880.0441	10828.9	9905.9
843.6315	882.0837	10867.4	9940.9
843.7766	884.1226	10883.6	9957.25
843.9218	886.1609	10906.3	9981.5
844.0669	888.1984	11022.5	10096.75
844.212	890.2352	11121.95	10196.95
844.3572	892.2714	11151.5	10222.25
844.5023	894.3069	11098.7	10173
844.6475	896.3416	10916.75	9994.6
844.7926	898.3757	10786.9	9865.6
844.9377	900.4091	10711	9782.75
845.0829	902.4418	10716.4	9785.85
845.228	904.4739	10759.6	9828.85
845.3732	906.5052	10790.35	9862.1
845.5183	908.5358	10751.95	9825.85
845.6635	910.5658	10597.6	9671
845.8086	912.595	10407.45	9479.6
845.9538	914.6236	10200.95	9271.35
846.0989	916.6515	10068.85	9141.9
846.2441	918.6786	9979.55	9048.65
846.3892	920.7051	10000.75	9072.35
846.5344	922.7309	10053.55	9124.55
846.6795	924.756	10081.9	9155.45
846.8246	926.7804	10152.15	9223.3
846.9698	928.8041	10135.85	9210.2
847.1149	930.8272	10224.7	9295.8
847.2601	932.8495	10185.3	9256.75
847.4052	934.8711	10151.45	9222
847.5504	936.892	10083.55	9155.8
847.6955	938.9123	10094.3	9165.15
847.8407	940.9318	10086.15	9154.25
847.9858	942.9506	10074.55	9149.55
848.131	944.9688	10019.05	9088.05
848.2761	946.9862	9931.35	9002.45
848.4213	949.003	9793.35	8865.9
848.5664	951.019	9703.7	8776.45
848.7115	953.0344	9633.55	8706.85
848.8567	955.0491	9655	8725.55
849.0018	957.063	9689.25	8761.95
849.147	959.0763	9759.15	8828.85
849.2921	961.0888	9808.35	8876.75
849.4373	963.1007	9861.05	8936.25
849.5824	965.1119	9874	8951
849.7275	967.1223	9883.8	8966.25
849.8727	969.1321	9860.3	8944.45
850.0178	971.1412	9856.85	8937.3
850.1629	973.1495	9860.25	8934.25
850.3081	975.1572	9917.9	8944.3
850.4532	977.1641	9897.6	8970.2
850.5983	979.1704	9866.65	8938.75
850.7435	981.1759	9849.9	8916.2
850.8886	983.1808	9861.6	8930.75
851.0337	985.1849	9898.1	8959.55
851.1788	987.1884	9957.85	9027.3
851.324	989.1911	10055.05	9124.85
851.4691	991.1932	10110.35	9181.85
851.6142	993.1945	10155.95	9230.7
851.7593	995.1951	10134.9	9204.2
851.9045	997.1951	10088.45	9152.45
852.0496	999.1943	10079.05	9151.35
852.1947	1001.1928	10052.6	9121.15
852.3398	1003.1906	10110.6	9181.05
852.4849	1005.1877	10211.2	9282.1
852.63	1007.1841	10289.1	9361
852.7751	1009.1798	10305.6	9375.8
852.9202	1011.1748	10224.05	9295.8
853.0653	1013.1691	10050.8	9122.35
853.2104	1015.1627	9853.65	8924.7
853.3555	1017.1556	9639.3	8713.35
853.5006	1019.1477	9512.05	8586.8
853.6457	1021.1392	9426.7	8505.4
853.7908	1023.1299	9382.05	8464.15
853.9359	1025.12	9378.1	8460.3
854.081	1027.1093	9451	8544.6
854.2261	1029.0979	9546.4	8641.15
854.3712	1031.0859	9665.35	8754.9
854.5163	1033.0731	9712.75	8795.35
854.6613	1035.0596	9661.75	8741.7
854.8064	1037.0454	9553.85	8629.5
854.9515	1039.0304	9462.75	8540
855.0965	1041.0148	9321.45	8396.25
855.2416	1042.9985	9246.75	8316
855.3867	1044.9814	9189.35	8263.05
855.5317	1046.9636	9133.55	8205
855.6768	1048.9452	9120.15	8194.75
855.8219	1050.926	9152.25	8227.6
855.9669	1052.9061	9208.7	8283.6
856.112	1054.8855	9220.55	8293.3
856.257	1056.8642	9240.75	8311.45
856.4021	1058.8421	9293.35	8364.65
856.5471	1060.8194	9329.65	8402.25
856.6921	1062.7959	9396.35	8469.05
856.8372	1064.7717	9438.45	8509.15
856.9822	1066.7469	9501.55	8569.8
857.1272	1068.7213	9588.15	8657.95
857.2723	1070.695	9648.05	8722.3
857.4173	1072.6679	9684.1	8754.4
857.5623	1074.6402	9686.85	8758.95
857.7073	1076.6117	9662.95	8729
857.8523	1078.5826	9562	8635.75
857.9973	1080.5527	9427.15	8497.05
858.1423	1082.5221	9362.7	8437.55
858.2873	1084.4908	9372.55	8443.55
858.4323	1086.4587	9404.2	8475.95
858.5773	1088.426	9463.95	8537.05
858.7223	1090.3925	9468.35	8536.75
858.8673	1092.3584	9494.7	8571
859.0123	1094.3235	9468.35	8541.95
859.1573	1096.2879	9570.7	8642.65
859.3022	1098.2515	9653.8	8727.3
859.4472	1100.2145	9844.75	8918.35
859.5922	1102.1767	10023.8	9095
859.7371	1104.1382	10251.45	9323.5
859.8821	1106.099	10518.15	9588.95
860.027	1108.0591	10700.45	9771.6
860.172	1110.0185	10868.1	9940.15
860.3169	1111.9771	10934.25	10008.65
860.4619	1113.9351	10851.1	9924.45
860.6068	1115.8923	10710.1	9783.05
860.7517	1117.8488	10533.85	9605.1
860.8967	1119.8045	10353.75	9428.35
861.0416	1121.7596	10212.25	9286.15
861.1865	1123.7139	10093.15	9166.5
861.3314	1125.6675	10040.4	9116.45
861.4763	1127.6204	10070.75	9142.5
861.6212	1129.5726	10011.45	9082.95
861.7661	1131.524	9944.25	9015.75
861.911	1133.4748	9813.7	8884.65
862.0559	1135.4248	9646.1	8720.2
862.2008	1137.3741	9512.3	8587.15
862.3457	1139.3226	9390.8	8462.7
862.4905	1141.2705	9324.75	8397.95
862.6354	1143.2176	9248.9	8318.75
862.7803	1145.164	9228.75	8299.4
862.9251	1147.1097	9169.3	8241.65
863.07	1149.0546	9054.5	8127.5
863.2148	1150.9989	8960.35	8031.85
863.3597	1152.9424	8869.3	7942.65
863.5045	1154.8852	8798.45	7868.75
863.6493	1156.8272	8754.5	7823.65
863.7942	1158.7686	8756.6	7822.25
863.939	1160.7092	8757.65	7832.2
864.0838	1162.6491	8793.1	7863.9
864.2286	1164.5883	8899.7	7972.45
864.3734	1166.5267	9020.9	8094.45
864.5182	1168.4644	9171.15	8245.25
864.663	1170.4014	9374.05	8444.15
864.8078	1172.3377	9658.05	8734.5
864.9526	1174.2732	9958.2	9033.9
865.0974	1176.2081	10366.2	9440.95
865.2421	1178.1421	10840.25	9910.55
865.3869	1180.0755	11347.45	10421.2
865.5317	1182.0082	11719.25	10795.75
865.6764	1183.9401	11858	10933.15
865.8212	1185.8713	11719.2	10797.75
865.9659	1187.8017	11394.8	10477.1
866.1106	1189.7315	11015.6	10104.05
866.2554	1191.6605	10590.55	9678.95
866.4001	1193.5888	10320.1	9406.2
866.5448	1195.5163	10169.7	9251.7
866.6895	1197.4432	10094.85	9171.55
866.8342	1199.3693	10059.8	9134.85
866.9789	1201.2947	10031.6	9101.65
867.1236	1203.2193	9982.9	9057.3
867.2683	1205.1432	9956.8	9032.85
867.413	1207.0664	9933.95	9008.2
867.5576	1208.9889	9913.8	8985.55
867.7023	1210.9106	9925.9	9002.4
867.847	1212.8316	9892.7	8969.8
867.9916	1214.7519	9989.65	9054.8
868.1363	1216.6715	10011.55	9087.05
868.2809	1218.5903	10072.15	9148.55
868.4255	1220.5084	10133.6	9207.8
868.5701	1222.4257	10237.45	9312.85
868.7148	1224.3424	10283.7	9361.8
868.8594	1226.2583	10400.95	9476.15
869.004	1228.1735	10538.65	9613.8
869.1486	1230.0879	10690.55	9766.15
869.2932	1232.0016	10874.15	9952.1
869.4377	1233.9146	11004.5	10079.15
869.5823	1235.8269	11022.3	10098.7
869.7269	1237.7384	10961.35	10036.65
869.8715	1239.6492	10812	9888.15
870.016	1241.5592	10793.15	9868.35
870.1606	1243.4686	10841.5	9918.1
870.3051	1245.3772	10977.25	10051.5
870.4496	1247.285	11150.3	10225.5
870.5941	1249.1922	11387.4	10466
870.7387	1251.0986	11508.65	10587.4
870.8832	1253.0042	11581.45	10659.05
871.0277	1254.9092	11690.25	10767.85
871.1722	1256.8134	11806.65	10886.8
871.3167	1258.7169	11943.6	11017.9
871.4611	1260.6196	12088.95	11166.7
871.6056	1262.5216	12341.65	11416.85
871.7501	1264.4229	12539.4	11617.55
871.8945	1266.3234	12775.9	11853.65
872.039	1268.2232	12878.7	11953.3
872.1834	1270.1223	12944.4	12019.75
872.3278	1272.0207	12991.6	12068.85
872.4723	1273.9183	12966.2	12037.55
872.6167	1275.8151	12910.55	11989.9
872.7611	1277.7113	12865.05	11941.15
872.9055	1279.6067	12952.25	12030.6
873.0499	1281.5014	13171.6	12250
873.1943	1283.3953	13545.95	12623.9
873.3386	1285.2885	14030.1	13109.5
873.483	1287.181	14499.2	13577.8
873.6274	1289.0727	14988.95	14066.6
873.7717	1290.9637	15314.65	14394.9
873.9161	1292.854	15503.2	14580.6
874.0604	1294.7435	15501.8	14580
874.2047	1296.6323	15389.2	14467.5
874.349	1298.5204	15256.4	14331.35
874.4933	1300.4077	15124.1	14200.1
874.6376	1302.2943	14880.05	13959.7
874.7819	1304.1802	14591.75	13669.2
874.9262	1306.0653	14171.7	13245.6
875.0705	1307.9497	13684.5	12761.95
875.2147	1309.8333	13273.9	12350.05
875.359	1311.7162	12964	12038.1
875.5032	1313.5984	12775.45	11849.2
875.6475	1315.4798	12644.65	11704.2
875.7917	1317.3605	12547.8	11620.6
875.9359	1319.2405	12434.15	11510.4
876.0801	1321.1197	12228.7	11301.1
876.2243	1322.9982	11931.4	11007.35
876.3685	1324.876	11645.95	10720.95
876.5127	1326.753	11360.85	10440.4
876.6569	1328.6293	11153.7	10232.85
876.801	1330.5048	11028.9	10100.55
876.9452	1332.3796	10852.3	9927.35
877.0893	1334.2537	10764	9815.45
877.2335	1336.127	10677.75	9753.3
877.3776	1337.9996	10632.5	9709.9
877.5217	1339.8714	10642.7	9720.4
877.6658	1341.7426	10681.05	9716.55
877.8099	1343.6129	10656.65	9730.45
877.954	1345.4826	10660.55	9735.65
878.0981	1347.3515	10679.55	9753.15
878.2422	1349.2196	10639.55	9716.25
878.3862	1351.087	10657.55	9731.9
878.5303	1352.9537	10702.55	9776.45
878.6743	1354.8197	10825.45	9901.6
878.8184	1356.6849	11007.35	10083.9
878.9624	1358.5493	11169.55	10246.8
879.1064	1360.4131	11320.1	10396.5
879.2504	1362.276	11460	10538.3
879.3944	1364.1383	11461.3	10539.95
879.5384	1365.9998	11290.1	10364.9
879.6823	1367.8606	10937.95	10013.4
879.8263	1369.7206	10567.7	9643
879.9702	1371.5799	10228.95	9302.6
880.1142	1373.4384	9959.4	9036.45
880.2581	1375.2962	9739.4	8811.65
880.402	1377.1533	9412.75	8493.65
880.5459	1379.0096	9062.15	8142.85
880.6898	1380.8652	8683.1	7764.95
880.8337	1382.7201	8411.45	7492.9
880.9776	1384.5742	8160.9	7239.35
881.1215	1386.4275	7984.75	7061.45
881.2653	1388.2802	7847.3	6926.9
881.4092	1390.132	7730.25	6805.05
881.553	1391.9832	7643.35	6720.55
881.6968	1393.8336	7547.45	6625.25
881.8406	1395.6832	7529	6606.4
881.9844	1397.5322	7483.6	6564
882.1282	1399.3803	7452.6	6524.65
882.272	1401.2278	7421.55	6500.65
882.4158	1403.0745	7402.85	6482.6
882.5595	1404.9204	7385.85	6464.5
882.7033	1406.7656	7388	6468.85
882.847	1408.6101	7413.4	6490.25
882.9908	1410.4538	7438.8	6515.6
883.1345	1412.2968	7519.05	6598.1
883.2782	1414.139	7547.85	6627.25
883.4219	1415.9805	7629	6708.95
883.5656	1417.8213	7716.7	6790.4
883.7092	1419.6613	7823.9	6907
883.8529	1421.5006	7969.15	7047.45
883.9965	1423.3391	8176.45	7256.1
884.1402	1425.1769	8451.75	7530.5
884.2838	1427.0139	8919.45	7998.65
884.4274	1428.8502	9460.45	8540.6
884.571	1430.6858	9983.35	9063.8
884.7146	1432.5206	10374.1	9455.3
884.8582	1434.3547	10595.95	9675.55
885.0018	1436.188	10632.8	9710.25
885.1453	1438.0206	10554.2	9633.5
885.2889	1439.8524	10364.45	9443.5
885.4324	1441.6835	10249.3	9330.95
885.5759	1443.5139	10175.25	9251.9
885.7194	1445.3435	10095.15	9177.9
885.8629	1447.1724	10071.1	9153.1
886.0064	1449.0005	10018.65	9099.85
886.1499	1450.8279	9945.35	9026.2
886.2933	1452.6545	9941.5	9022.6
886.4368	1454.4804	9955	9038.65
886.5802	1456.3056	9971.6	9044.7
886.7237	1458.13	9873.85	8956.4
886.8671	1459.9536	9726.05	8809.25
887.0105	1461.7766	9455.1	8538.45
887.1539	1463.5987	9118.3	8197.65
887.2972	1465.4202	8789.3	7871.3
887.4406	1467.2409	8456.7	7539.4
887.584	1469.0608	8155.05	7238.3
887.7273	1470.88	7893.95	6975.1
887.8706	1472.6984	7666.3	6750
888.0139	1474.5161	7450.55	6530.35
888.1572	1476.3331	7292.5	6374.45
888.3005	1478.1493	7216.65	6295.75
888.4438	1479.9648	7104.6	6185.35
888.5871	1481.7795	7020.65	6101.9
888.7303	1483.5935	6974.35	6056.7
888.8736	1485.4067	6923.05	6004.3
889.0168	1487.2192	6861.1	5944.2
889.16	1489.031	6827.3	5908.25
889.3032	1490.842	6788.3	5871.15
889.4464	1492.6522	6749.05	5831.1
889.5896	1494.4618	6721.35	5803.2
889.7327	1496.2705	6694.5	5778.15
889.8759	1498.0785	6674.85	5756.45
890.019	1499.8858	6611.95	5696.25
890.1622	1501.6924	6558	5641.95
890.3053	1503.4981	6544.9	5626.4
890.4484	1505.3032	6509.35	5590.1
890.5914	1507.1075	6445.15	5529.5
890.7345	1508.911	6420.65	5505.35
890.8776	1510.7138	6360.75	5443.6
891.0206	1512.5159	6332.15	5414.25
891.1637	1514.3172	6277.05	5359.9
891.3067	1516.1178	6241.85	5326.85
891.4497	1517.9176	6217.25	5298.05
891.5927	1519.7166	6182.35	5267.65
891.7357	1521.515	6150.8	5226.6
891.8786	1523.3126	6125.15	5208
892.0216	1525.1094	6094.65	5176.65
892.1645	1526.9055	6085.5	5171.85
892.3074	1528.7008	6051.55	5136.9
892.4503	1530.4954	6023.95	5105.65
892.5932	1532.2893	5989.3	5076.15
892.7361	1534.0824	5979.1	5062
892.879	1535.8747	5990.15	5079.05
893.0218	1537.6663	5972.95	5060.05
893.1647	1539.4572	5965.2	5049.55
893.3075	1541.2473	5975.45	5062
893.4503	1543.0367	5980.75	5070.4
893.5931	1544.8253	5997.65	5080.4
893.7359	1546.6132	6033.75	5118.45
893.8787	1548.4003	6054.2	5130.45
894.0214	1550.1867	6107.75	5186.45
894.1642	1551.9723	6163.75	5247.85
894.3069	1553.7572	6268.2	5356.35
894.4496	1555.5414	6374.85	5464.1
894.5923	1557.3247	6525.55	5614.8
894.735	1559.1074	6681	5771.75
894.8777	1560.8893	6834.5	5925.55
895.0204	1562.6705	7005.4	6097.05
895.163	1564.4509	7122.7	6214.4
895.3056	1566.2305	7175.55	6269.75
895.4482	1568.0094	7244.3	6337.35
895.5908	1569.7876	7248.25	6342.4
895.7334	1571.565	7213.95	6306
895.876	1573.3417	7191.9	6282.8
896.0186	1575.1176	7180.65	6274.05
896.1611	1576.8928	7157.1	6254.05
896.3036	1578.6672	7157	6257.25
896.4461	1580.4409	7186.4	6286.05
896.5886	1582.2138	7225.3	6321.25
896.7311	1583.986	7238.6	6333.15
896.8736	1585.7575	7335.25	6431.55
897.0161	1587.5282	7393.7	6494.35
897.1585	1589.2981	7505.3	6605.7
897.3009	1591.0673	7584.25	6682.75
897.4433	1592.8358	7711.3	6808.8
897.5857	1594.6035	7806.85	6900.8
897.7281	1596.3704	7889.2	6984.35
897.8705	1598.1366	8006.65	7100.05
898.0128	1599.9021	8099.65	7196.55
898.1551	1601.6668	8213.35	7308.85
898.2975	1603.4308	8345.35	7440.2
898.4398	1605.194	8519.05	7610
898.5821	1606.9564	8713.25	7813.9
898.7243	1608.7182	8978.05	8081
898.8666	1610.4791	9257.8	8363.9
899.0088	1612.2394	9554.6	8661.4
899.1511	1613.9988	9886.35	8991.45
899.2933	1615.7576	10148.9	9251.05
899.4355	1617.5156	10361.25	9453.6
899.5776	1619.2728	10454.5	9549.8
899.7198	1621.0293	10400.45	9500.85
899.862	1622.785	10189.05	9284.7
900.0041	1624.54	9874.8	8972.65
900.1462	1626.2942	9501.75	8603
900.2883	1628.0477	9095.05	8192.25
900.4304	1629.8005	8718.4	7817.6
900.5725	1631.5525	8374.2	7475.7
900.7145	1633.3037	8111.55	7213.7
900.8566	1635.0542	7901.85	7006.4
900.9986	1636.804	7713.45	6815.8
901.1406	1638.553	7701.25	6712.7
901.2826	1640.3013	7562.6	6661.25
901.4245	1642.0488	7498.35	6599.35
901.5665	1643.7955	7502.65	6607.05
901.7085	1645.5416	7589.45	6691.3
901.8504	1647.2868	7676.85	6780.4
901.9923	1649.0313	7813.55	6915.7
902.1342	1650.7751	7936.05	7034.4
902.2761	1652.5181	8085.05	7187.6
902.4179	1654.2604	8263.65	7367.35
902.5598	1656.0019	8501.9	7603.8
902.7016	1657.7427	8743.95	7845.6
902.8434	1659.4828	9022.2	8124.55
902.9852	1661.222	9208.9	8308.8
903.127	1662.9606	9189.95	8290.1
903.2687	1664.6984	8913.9	8011.1
903.4105	1666.4354	8489.4	7588.25
903.5522	1668.1717	7941.9	7039.85
903.6939	1669.9072	7373.8	6473.95
903.8356	1671.642	6891.65	5988.25
903.9773	1673.3761	6487.95	5586.9
904.119	1675.1094	6166.1	5267.65
904.2606	1676.8419	5916.8	5018.6
904.4022	1678.5737	5729	4828.05
904.5439	1680.3048	5556.15	4656.4
904.6855	1682.0351	5409.45	4506.55
904.827	1683.7646	5288.8	4384.6
904.9686	1685.4934	5200	4301.85
905.1101	1687.2215	5129.35	4231.05
905.2517	1688.9488	5061.05	4163.55
905.3932	1690.6754	4984.5	4086.2
905.5347	1692.4012	4943.35	4043.4
905.6761	1694.1263	4900	4001.35
905.8176	1695.8506	4853.3	3954.1
905.9591	1697.5742	4837.85	3941
906.1005	1699.297	4770.65	3876.4
906.2419	1701.0191	4708.2	3813.15
906.3833	1702.7404	4696.45	3803.9
906.5246	1704.461	4664.75	3768.8
906.666	1706.1808	4632.05	3733.65
906.8073	1707.8999	4600.9	3704.15
906.9487	1709.6182	4571.95	3678.45
907.09	1711.3358	4538.9	3645.5
907.2313	1713.0527	4536.6	3646.7
907.3725	1714.7688	4496.95	3597.75
907.5138	1716.4841	4473.05	3576.85
907.655	1718.1987	4476.7	3573.95
907.7962	1719.9126	4448.45	3554.55
907.9374	1721.6257	4423.15	3530.8
908.0786	1723.338	4418.65	3527.95
908.2198	1725.0496	4395.4	3499.15
908.3609	1726.7605	4395.7	3499.75
908.502	1728.4706	4370.15	3474.7
908.6431	1730.18	4353.25	3458.95
908.7842	1731.8886	4337.7	3445.5
908.9253	1733.5964	4350	3437.85
909.0664	1735.3036	4303.9	3408.45
909.2074	1737.0099	4284	3391.65
909.3484	1738.7156	4267.7	3377.75
909.4894	1740.4204	4238.9	3340.95
909.6304	1742.1246	4223.3	3329.4
909.7714	1743.8279	4203.9	3311.75
909.9123	1745.5306	4193.7	3300.25
910.0532	1747.2325	4159.15	3268.95
910.1941	1748.9336	4136.85	3244.85
910.335	1750.634	4113.85	3217.75
910.4759	1752.3336	4111.65	3220.35
910.6168	1754.0325	4111.75	3223.2
910.7576	1755.7307	4078.1	3188.95
910.8984	1757.4281	4080	3186.7
911.0392	1759.1247	4086.95	3184.8
911.18	1760.8206	4070.1	3169.4
911.3208	1762.5158	4066.95	3169.5
911.4615	1764.2102	4045.35	3152.55
911.6022	1765.9039	4037.2	3144.4
911.7429	1767.5968	4013.35	3123.2
911.8836	1769.289	3994.45	3103
912.0243	1770.9804	4006.25	3112.7
912.1649	1772.6711	3997.15	3101.4
912.3056	1774.361	3980.5	3084.6
912.4462	1776.0502	3973.8	3080.2
912.5868	1777.7386	3956.6	3062.1
912.7274	1779.4263	3957.1	3063.7
912.8679	1781.1132	3945.65	3055.95
913.0084	1782.7994	3931.3	3040.7
913.149	1784.4849	3925.6	3036.9
913.2895	1786.1696	3925.75	3017.85
913.4299	1787.8535	3905.25	3014.65
913.5704	1789.5367	3900.45	3012.2
913.7108	1791.2192	3910.45	3021.45
913.8513	1792.9009	3899.2	2982.35
913.9917	1794.5818	3874.8	2978.85
914.132	1796.2621	3866.9	2974.4
914.2724	1797.9415	3878.85	2987.1
914.4128	1799.6202	3858.55	2966.4
914.5531	1801.2982	3854.05	2961.45
914.6934	1802.9755	3848.5	2955.85
914.8337	1804.6519	3849.1	2954.4
914.9739	1806.3277	3822.05	2930.6
915.1142	1808.0027	3798.25	2909.05
915.2544	1809.6769	3795.55	2908
915.3946	1811.3504	3787.85	2897.35
915.5348	1813.0231	3786.95	2898.7
915.675	1814.6951	3785.7	2897.45
915.8151	1816.3664	3789.15	2894.25
915.9553	1818.0369	3772.3	2878.05
916.0954	1819.7067	3761.7	2869.65
916.2355	1821.3757	3743.35	2848.2
916.3755	1823.044	3754.5	2860.6
916.5156	1824.7115	3736.85	2846
916.6556	1826.3783	3726.95	2834.9
916.7956	1828.0443	3717.9	2826.85
916.9356	1829.7096	3725.55	2833.1
917.0756	1831.3741	3718	2822.1
917.2155	1833.0379	3713.4	2823.05
917.3555	1834.701	3688.85	2797.55
917.4954	1836.3633	3682.7	2795.1
917.6353	1838.0248	3690.75	2799.65
917.7751	1839.6856	3683.4	2793.6
917.915	1841.3457	3671.5	2779.6
918.0548	1843.005	3669.25	2778.05
918.1946	1844.6636	3678.05	2786.85
918.3344	1846.3214	3654.9	2765.55
918.4742	1847.9785	3670.05	2780.75
918.6139	1849.6349	3658.05	2765
918.7537	1851.2904	3639.05	2737.85
918.8934	1852.9453	3634.65	2741.3
919.0331	1854.5994	3638.55	2744.7
919.1727	1856.2528	3626.1	2728.4
919.3124	1857.9054	3631.1	2739.4
919.452	1859.5572	3612.45	2723.15
919.5916	1861.2083	3606.7	2715.2
919.7312	1862.8587	3596.5	2705.55
919.8708	1864.5084	3600.55	2705.5
920.0103	1866.1572	3589.45	2697.35
920.1498	1867.8054	3585.1	2691.35
920.2893	1869.4528	3585.65	2692.05
920.4288	1871.0994	3563.35	2671.75
920.5683	1872.7453	3545.85	2653.75
920.7077	1874.3905	3546	2646.75
920.8471	1876.0349	3540.65	2645.95
920.9865	1877.6786	3535.5	2643.25
921.1259	1879.3215	3533.2	2642.35
921.2653	1880.9637	3544.15	2652.75
921.4046	1882.6051	3506.85	2615.65
921.5439	1884.2458	3504.05	2612.25
921.6832	1885.8858	3498.6	2608.65
921.8225	1887.525	3499.15	2606.65
921.9617	1889.1634	3485.3	2592.1
922.101	1890.8011	3484.45	2592.25
922.2402	1892.4381	3478.6	2585.8
922.3794	1894.0743	3481.3	2588.7
922.5185	1895.7098	3471.25	2579.45
922.6577	1897.3446	3467.2	2577.1
922.7968	1898.9786	3447.25	2552.25
922.9359	1900.6118	3445.95	2555.6
923.075	1902.2443	3433.8	2542.25
923.214	1903.8761	3427.25	2536.25
923.3531	1905.5071	3421.8	2529.25
923.4921	1907.1374	3411.45	2521.35
923.6311	1908.7669	3410.25	2520.55
923.77	1910.3957	3402.05	2512.8
923.909	1912.0237	3380.2	2490.2
924.0479	1913.651	3384.4	2493.3
924.1868	1915.2776	3380.05	2490
924.3257	1916.9034	3365.35	2477.65
924.4646	1918.5285	3368.1	2479.2
924.6034	1920.1528	3348.6	2458
924.7422	1921.7764	3340.45	2448.8
924.881	1923.3992	3342.7	2451.15
925.0198	1925.0213	3319	2429.05
925.1586	1926.6427	3309.7	2420.3
925.2973	1928.2633	3358.25	2390.7
925.436	1929.8832	3294.85	2402.9
925.5747	1931.5023	3282.45	2393.65
925.7134	1933.1207	3276.75	2387.15
925.852	1934.7383	3276.05	2385.3
925.9906	1936.3552	3271.95	2381.35
926.1292	1937.9714	3259.9	2369.5
926.2678	1939.5868	3250.45	2358.6
926.4064	1941.2015	3234.4	2346.15
926.5449	1942.8154	3228.65	2335.45
926.6834	1944.4286	3229.7	2338.15
926.8219	1946.041	3229.45	2319.55
926.9604	1947.6528	3192.1	2295.05
927.0988	1949.2637	3195.55	2308
927.2372	1950.8739	3182.75	2292.95
927.3756	1952.4834	3181.75	2291.7
927.514	1954.0921	3178.25	2288.8
927.6523	1955.7001	3177.55	2284
927.7907	1957.3074	3151.2	2264.7
927.929	1958.9139	3136.85	2249.8
928.0673	1960.5197	3150.65	2261.35
928.2055	1962.1247	3122.35	2236.05
928.3438	1963.729	3115.55	2229.5
928.482	1965.3325	3105.45	2213.8
928.6202	1966.9353	3097.75	2211.85
928.7584	1968.5374	3089.35	2200.25
928.8965	1970.1387	3093.4	2205.7
929.0346	1971.7393	3073.35	2184.45
929.1727	1973.3392	3075.75	2189.15
929.3108	1974.9383	3064.45	2176.55
929.4489	1976.5366	3052.55	2168.05
929.5869	1978.1342	3044.5	2159.35
929.7249	1979.7311	3047.7	2162.8
929.8629	1981.3273	3037.65	2150.45
930.0009	1982.9227	3029.2	2143.05
930.1388	1984.5173	3029.9	2144.2
930.2767	1986.1112	3004.8	2119.85
930.4146	1987.7044	3011.85	2127.75
930.5525	1989.2968	3006.1	2122.25
930.6904	1990.8885	3003.75	2116.3
930.8282	1992.4795	2995.85	2112.3
930.966	1994.0697	2970.75	2086.2
931.1038	1995.6592	2978.05	2092.1
931.2415	1997.2479	2972.8	2088.35
931.3793	1998.8359	2968.85	2083.2
931.517	2000.4232	2954.1	2073.3
931.6547	2002.0097	2951.75	2072.05
931.7923	2003.5955	2927.3	2044.65
931.93	2005.1805	2934.75	2050.1
932.0676	2006.7648	2941.9	2060.9
932.2052	2008.3484	2939.6	2055.45
932.3427	2009.9312	2923.25	2041.65
932.4803	2011.5133	2922.15	2041.85
932.6178	2013.0946	2913.5	2033.5
932.7553	2014.6752	2906.95	2025.3
932.8928	2016.2551	2905.7	2023.05
933.0302	2017.8342	2900.7	2017.05
933.1676	2019.4126	2890.35	2009.15
933.305	2020.9902	2891.1	2012.55
933.4424	2022.5672	2881.3	1999.05
933.5798	2024.1433	2870.15	1984.35
933.7171	2025.7188	2859.25	1980
933.8544	2027.2935	2867.25	1986.6
933.9917	2028.8674	2832.6	1954.55
934.129	2030.4406	2841.9	1962
934.2662	2032.0131	2835.5	1955.6
934.4034	2033.5849	2837.2	1951
934.5406	2035.1559	2827.3	1947.85
934.6778	2036.7261	2830.2	1949.8
934.8149	2038.2957	2817.5	1934.25
934.952	2039.8645	2823.35	1940.15
935.0891	2041.4325	2815.2	1929.5
935.2262	2042.9998	2811.5	1930.95
935.3632	2044.5664	2798.25	1916.25
935.5002	2046.1323	2799.35	1919.5
935.6372	2047.6974	2784.05	1902.2
935.7742	2049.2617	2766.2	1886.05
935.9111	2050.8254	2781.5	1896.85
936.048	2052.3883	2779.05	1895.2
936.1849	2053.9504	2786.15	1900.8
936.3218	2055.5118	2782.2	1895.25
936.4586	2057.0725	2763.65	1877.85
936.5955	2058.6325	2754.75	1872.45
936.7323	2060.1917	2744.5	1864.85
936.869	2061.7502	2748.65	1862.95
937.0058	2063.3079	2733.95	1854
937.1425	2064.8649	2719.55	1834.7
937.2792	2066.4212	2727.8	1845
937.4159	2067.9767	2726.8	1843.45
937.5525	2069.5315	2728.85	1847.25
937.6891	2071.0856	2707.05	1824.35
937.8257	2072.6389	2692.3	1811
937.9623	2074.1915	2690.4	1811.65
938.0989	2075.7433	2690.35	1806.9
938.2354	2077.2945	2691.6	1812.2
938.3719	2078.8448	2681	1796.05
938.5084	2080.3945	2672.75	1789.2
938.6448	2081.9434	2676.55	1793.1
938.7812	2083.4916	2664.2	1777.8
938.9176	2085.039	2661.4	1775.4
939.054	2086.5857	2664.85	1773.3
939.1903	2088.1317	2668.3	1778.7
939.3267	2089.677	2654.65	1765.95
939.463	2091.2215	2645.2	1755.75
939.5992	2092.7652	2641.65	1752.5
939.7355	2094.3083	2638.5	1751.2
939.8717	2095.8506	2627.4	1742.95
940.0079	2097.3921	2623	1737.95
940.1441	2098.933	2630.9	1744.7
940.2802	2100.4731	2615.55	1729.1
940.4163	2102.0124	2630.05	1726.2
940.5524	2103.5511	2612.35	1725.45
940.6885	2105.089	2602.45	1714.85
940.8245	2106.6261	2604.5	1718.35
940.9606	2108.1626	2593.6	1709
941.0965	2109.6983	2618.15	1703.6
941.2325	2111.2332	2592.25	1704.7
941.3684	2112.7675	2584.9	1700.3
941.5044	2114.301	2592.05	1704.25
941.6403	2115.8337	2581.75	1695.8
941.7761	2117.3657	2569.4	1681.95
941.912	2118.897	2571.35	1684.35
942.0478	2120.4276	2582	1689.5
942.1835	2121.9575	2562.75	1674.55
942.3193	2123.4866	2556.05	1667.35
942.455	2125.0149	2561.05	1671.3
942.5907	2126.5426	2532.45	1648.25
942.7264	2128.0695	2529.4	1642.5
942.8621	2129.5956	2529.4	1649.2
942.9977	2131.1211	2522.25	1635.8
943.1333	2132.6458	2519.5	1634.15
943.2689	2134.1698	2523.6	1637.55
943.4044	2135.693	2531.75	1641.15
943.54	2137.2155	2527.95	1638.95
943.6755	2138.7373	2519.95	1634.95
943.8109	2140.2584	2493.8	1613.4
943.9464	2141.7787	2502.05	1615.8
944.0818	2143.2983	2491.05	1610.05
944.2172	2144.8171	2480	1599.55
944.3526	2146.3353	2476.9	1591.3
944.4879	2147.8527	2480	1598.55
944.6232	2149.3693	2478.85	1592.6
944.7585	2150.8853	2477.9	1593.45
944.8938	2152.4005	2473.5	1586.5
945.029	2153.9149	2459.2	1572.95
945.1642	2155.4287	2466.05	1579.8
945.2994	2156.9417	2458.95	1570.85
945.4346	2158.454	2444.1	1556.1
945.5697	2159.9655	2440.4	1556.3
945.7048	2161.4764	2443.05	1558.95
945.8399	2162.9865	2434.65	1550.25
945.9749	2164.4958	2448.85	1563.85
946.1099	2166.0045	2421.25	1534.65
946.2449	2167.5124	2422.85	1537.35
946.3799	2169.0195	2427.85	1542.5
946.5148	2170.526	2420.55	1533.6
946.6498	2172.0317	2405.8	1519.55
946.7846	2173.5367	2412.9	1526.75
946.9195	2175.0409	2407.6	1522
947.0543	2176.5445	2415.3	1529.95
947.1891	2178.0473	2401.85	1512.4
947.3239	2179.5494	2391.4	1499.25
947.4587	2181.0507	2394.35	1507.8
947.5934	2182.5513	2386.6	1500.2
947.7281	2184.0512	2381	1494.45
947.8628	2185.5504	2385.4	1501.7
947.9974	2187.0488	2374.15	1489.85
948.132	2188.5465	2362.65	1481
948.2666	2190.0435	2363.75	1479.5
948.4012	2191.5397	2358.55	1471.75
948.5357	2193.0353	2365.85	1480.3
948.6702	2194.5301	2354.1	1465.55
948.8047	2196.0241	2349.4	1461.2
948.9392	2197.5175	2356.35	1467
949.0736	2199.0101	2339.95	1447.35
949.208	2200.502	2329.7	1443.9
949.3424	2201.9931	2325.3	1439.35
949.4767	2203.4835	2320.95	1436.1
949.611	2204.9733	2332.65	1434.1
949.7453	2206.4622	2313.55	1431.75
949.8796	2207.9505	2305.15	1419.55
950.0138	2209.438	2292.6	1411.6
950.148	2210.9248	2290.8	1406.15
950.2822	2212.4109	2290.7	1404.75
950.4164	2213.8962	2291.9	1403.1
950.5505	2215.3809	2292.85	1403.8
950.6846	2216.8648	2290.05	1400.85
950.8186	2218.3479	2300.65	1405.4
950.9527	2219.8304	2274.65	1383.15
951.0867	2221.3121	2276.7	1384.85
951.2207	2222.7931	2277.2	1391.25
951.3546	2224.2733	2256.95	1368.1
951.4886	2225.7529	2259.5	1373.65
951.6225	2227.2317	2258.35	1371.35
951.7563	2228.7098	2247.7	1364.6
951.8902	2230.1872	2236.1	1351.2
952.024	2231.6638	2244.15	1363
952.1578	2233.1397	2232.9	1348.1
952.2916	2234.6149	2229.85	1347.2
952.4253	2236.0894	2229.9	1345.6
952.559	2237.5632	2235	1341.1
952.6927	2239.0362	2223.15	1338.2
952.8263	2240.5085	2215.4	1329.95
952.9599	2241.9801	2211.3	1325.05
953.0935	2243.4509	2203.1	1315.95
953.2271	2244.921	2196.6	1308.75
953.3606	2246.3904	2202.3	1309.25
953.4941	2247.8591	2197.3	1309.7
953.6276	2249.3271	2186.65	1300.15
953.7611	2250.7943	2173.15	1285.05
953.8945	2252.2608	2176.05	1288.4
954.0279	2253.7266	2173.9	1286.25
954.1612	2255.1917	2174.4	1286.2
954.2946	2256.656	2162.25	1275.85
954.4279	2258.1197	2160	1276.4
954.5612	2259.5826	2148.25	1260.55
954.6944	2261.0447	2160	1273.45
954.8276	2262.5062	2147.15	1257.6
954.9608	2263.9669	2149.1	1260.8
955.094	2265.4269	2143.85	1255.45
955.2271	2266.8862	2145.15	1257.7
955.3602	2268.3448	2133.3	1248.9
955.4933	2269.8026	2137	1250.45
955.6264	2271.2598	2127.9	1245.15
955.7594	2272.7162	2130.6	1247.1
955.8924	2274.1719	2124	1235.5
956.0253	2275.6268	2123.85	1237.95
956.1583	2277.0811	2127.55	1240.7
956.2912	2278.5346	2114.5	1229.65
956.4241	2279.9874	2102.05	1216.1
956.5569	2281.4395	2109.85	1224.55
956.6897	2282.8908	2115.5	1224.7
956.8225	2284.3414	2111.1	1224.15
956.9553	2285.7914	2109.6	1226.2
957.088	2287.2406	2106.35	1217
957.2207	2288.689	2098.1	1211.05
957.3534	2290.1368	2092.9	1203.95
957.486	2291.5838	2096.05	1202.15
957.6186	2293.0302	2096.25	1202.4
957.7512	2294.4758	2086.1	1195.4
957.8838	2295.9206	2092.05	1201.05
958.0163	2297.3648	2076.7	1192.2
958.1488	2298.8082	2078.65	1191.25
958.2813	2300.251	2072.6	1186.15
958.4137	2301.693	2075.8	1186.5
958.5461	2303.1343	2072.8	1183.15
958.6785	2304.5748	2072.25	1186.6
958.8108	2306.0147	2063.55	1175.9
958.9432	2307.4538	2060.2	1173.4
959.0754	2308.8922	2066.7	1185.75
959.2077	2310.3299	2047.45	1164.8
959.3399	2311.7669	2047.7	1162.9
959.4721	2313.2031	2040.2	1155.25
959.6043	2314.6387	2046.6	1157.95
959.7365	2316.0735	2034.1	1146
959.8686	2317.5076	2033.95	1146.45
960.0006	2318.941	2033.8	1146.15
960.1327	2320.3737	2027.3	1138.6
960.2647	2321.8056	2040.05	1149.1
960.3967	2323.2369	2027.5	1138.55
960.5287	2324.6674	2021.6	1130.6
960.6606	2326.0972	2017.3	1130.5
960.7925	2327.5263	2009.7	1121.3
960.9244	2328.9547	2008.6	1120.8
961.0562	2330.3823	2009.8	1120.95
961.1881	2331.8092	2008.95	1114.9
961.3198	2333.2355	1993.1	1103.1
961.4516	2334.661	2001.75	1111.6
961.5833	2336.0858	2010.8	1120.7
961.715	2337.5098	1993.45	1106.25
961.8467	2338.9332	1988.75	1101
961.9783	2340.3558	1995.25	1104.3
962.1099	2341.7778	1973.85	1088.2
962.2415	2343.199	1979.15	1093.8
962.373	2344.6195	1977.5	1091.75
962.5045	2346.0393	1976.4	1092.5
962.636	2347.4583	1972.35	1083.9
962.7675	2348.8767	1973.8	1086.7
962.8989	2350.2943	1973.3	1084.8
963.0303	2351.7113	1974.3	1083.35
963.1617	2353.1275	1967.9	1078.9
963.293	2354.543	1966.75	1068.6
963.4243	2355.9578	1962.8	1074.85
963.5556	2357.3718	1954.75	1069.15
963.6868	2358.7852	1961.25	1072.5
963.818	2360.1978	1951.05	1063.8
963.9492	2361.6098	1956.6	1071.85
964.0803	2363.021	1938.95	1046.7
964.2114	2364.4315	1941.5	1054.35
964.3425	2365.8413	1943.8	1054
964.4736	2367.2504	1934.8	1049.45
964.6046	2368.6587	1927.4	1042.35
964.7356	2370.0664	1921.5	1035.45
964.8666	2371.4733	1928.85	1041.45
964.9975	2372.8795	1925.5	1038.3
965.1284	2374.285	1916.8	1030.75
965.2593	2375.6899	1908.85	1023.65
965.3901	2377.0939	1919.5	1031.95
965.5209	2378.4973	1910.4	1024.2
965.6517	2379.9	1909.95	1024.95
965.7825	2381.3019	1911.4	1025.5
965.9132	2382.7032	1905.55	1022.7
966.0439	2384.1037	1897.9	1013.55
966.1745	2385.5035	1881.1	997.5
966.3051	2386.9027	1888.85	1003.75
966.4357	2388.3011	1891.35	1002.8
966.5663	2389.6987	1874.45	989.75
966.6968	2391.0957	1873.5	987.4
966.8273	2392.492	1870.7	986.15
966.9578	2393.8876	1855.65	971.15
967.0882	2395.2824	1847.75	963
967.2186	2396.6765	1866.45	981.45
967.349	2398.07	1855.4	968.95
967.4793	2399.4627	1862.25	973.85
967.6097	2400.8547	1861.3	974.6
967.7399	2402.246	1856.8	964.1
967.8702	2403.6366	1858.05	971.35
968.0004	2405.0265	1838.2	952.55
968.1306	2406.4156	1839.05	949.4
968.2607	2407.8041	1849.7	961.6
968.3909	2409.1918	1836.1	947.45
968.521	2410.5789	1832.15	944.5
968.651	2411.9652	1836.7	945.45
968.781	2413.3508	1826.45	938.6
968.911	2414.7358	1823.7	937.2
969.041	2416.12	1813.25	927.5
969.1709	2417.5035	1817.65	932
969.3008	2418.8863	1814.95	926.65
969.4307	2420.2684	1817.35	931.6
969.5606	2421.6497	1819.5	933.1
969.6904	2423.0304	1814.3	927.1
969.8201	2424.4104	1804.55	918.1
969.9499	2425.7896	1820.2	929.45
970.0796	2427.1682	1792.1	904.55
970.2093	2428.546	1796.95	910.3
970.3389	2429.9232	1792.95	905.6
970.4685	2431.2996	1800.95	913.6
970.5981	2432.6753	1793.85	909.7
970.7277	2434.0503	1790.2	903.05
970.8572	2435.4246	1791.8	905.85
970.9867	2436.7982	1780.4	891.15
971.1161	2438.1711	1781.7	894.7
971.2456	2439.5433	1776.1	888
971.375	2440.9148	1784.7	891.55
971.5043	2442.2856	1762.9	877.15
971.6336	2443.6557	1760.7	873.15
971.7629	2445.025	1772.95	886
971.8922	2446.3937	1769.35	882.9
972.0214	2447.7617	1761.75	874.1
972.1506	2449.1289	1756.95	871.55
972.2798	2450.4955	1772.05	883.15
972.4089	2451.8613	1758.75	873.15
972.538	2453.2265	1742.85	856.25
972.6671	2454.5909	1743.9	855.4
972.7961	2455.9546	1743.3	857.75
972.9251	2457.3177	1744.3	856.3
973.0541	2458.68	1741.5	853.2
973.1831	2460.0416	1745.6	859.9
973.312	2461.4025	1742.85	855.95
973.4408	2462.7627	1753.35	856.8
973.5697	2464.1222	1740.05	856.65
973.6985	2465.4811	1732.15	845.7
973.8273	2466.8392	1726.6	839.05
973.956	2468.1966	1726.1	836.95
974.0847	2469.5533	1736.1	848.95
974.2134	2470.9093	1735.1	849.15
974.3421	2472.2645	1724.8	837
974.4707	2473.6191	1728	842.1
974.5993	2474.973	1724.95	838.9
974.7278	2476.3262	1719.75	832.7
974.8563	2477.6787	1716.05	830.1
974.9848	2479.0305	1714.95	829.4
975.1132	2480.3816	1718.1	830.6
975.2417	2481.7319	1708.05	821.8
975.37	2483.0816	1703.3	815.3
975.4984	2484.4306	1707.45	823.3
975.6267	2485.7789	1704	818.6
975.755	2487.1264	1707.9	823.8
975.8833	2488.4733	1696.7	809.95
976.0115	2489.8195	1695.85	802.45
976.1397	2491.165	1699.05	812.3
976.2678	2492.5097	1688.2	799.85
976.3959	2493.8538	1688.9	802.95
976.524	2495.1972	1688	800.45
976.6521	2496.5398	1679.2	792.9
976.7801	2497.8818	1693.2	806.95
976.9081	2499.2231	1679.85	792.7
977.036	2500.5637	1678.45	787.7
977.164	2501.9035	1660.95	773.7
977.2918	2503.2427	1671.5	783.25
977.4197	2504.5812	1661.4	776.6
977.5475	2505.919	1664.4	776.45
977.6753	2507.256	1663.8	776.15
977.8031	2508.5924	1658.05	772.65
977.9308	2509.9281	1669.25	775.9
978.0585	2511.2631	1651.15	766.75
978.1861	2512.5974	1658.4	772
978.3137	2513.9309	1649.9	762.1
978.4413	2515.2638	1679.4	765.15
978.5689	2516.596	1657.7	771.1
978.6964	2517.9275	1638.05	750.35
978.8239	2519.2583	1648.15	760.25
978.9513	2520.5884	1650.5	762.8
979.0788	2521.9178	1644.55	758.15
979.2062	2523.2465	1635.1	750.35
979.3335	2524.5745	1635.3	749.95
979.4608	2525.9018	1635.4	747.8
979.5881	2527.2284	1633.4	748.95
979.7154	2528.5543	1631.4	746.15
979.8426	2529.8796	1632.9	747.95
979.9698	2531.2041	1630.8	745.1
980.0969	2532.5279	1623.2	738
980.224	2533.851	1624.5	738.45
980.3511	2535.1735	1627.3	742.5
980.4781	2536.4952	1621.9	736.85
980.6052	2537.8163	1614.2	726.65
980.7321	2539.1366	1622.35	735.05
980.8591	2540.4562	1623.1	734.9
980.986	2541.7752	1618.6	731
981.1129	2543.0935	1618.4	731.35
981.2397	2544.411	1620.85	734.7
981.3665	2545.7279	1608	720.7
981.4933	2547.0441	1621.3	734.95
981.62	2548.3596	1624.35	734.8
981.7467	2549.6744	1608.75	720.85
981.8734	2550.9885	1619.85	731.7
982.0001	2552.3019	1603.35	715.25
982.1267	2553.6146	1610.3	721.5
982.2532	2554.9266	1604.8	718.25
982.3798	2556.2379	1600.9	713.15
982.5063	2557.5485	1602.6	717.8
982.6327	2558.8585	1605.65	712.95
982.7592	2560.1677	1603.3	711.5
982.8856	2561.4762	1589.95	702
983.0119	2562.7841	1598.5	708.95
983.1383	2564.0913	1592.35	705.75
983.2646	2565.3977	1591.55	706.2
983.3908	2566.7035	1596.5	705.5
983.517	2568.0086	1593.85	704.4
983.6432	2569.313	1589.7	702.4
983.7694	2570.6167	1590.4	699.85
983.8955	2571.9197	1589.15	703.6
984.0216	2573.222	1590.55	701.05
984.1476	2574.5236	1584.95	698.6
984.2737	2575.8246	1588.1	698.35
984.3996	2577.1248	1591.65	703.05
984.5256	2578.4244	1583.05	694
984.6515	2579.7232	1583.1	697.25
984.7774	2581.0214	1612.35	700.05
984.9032	2582.3189	1583.25	698.6
985.029	2583.6157	1581.7	693.8
985.1548	2584.9118	1579.55	691.15
985.2806	2586.2072	1577.5	690
985.4063	2587.5019	1587.55	700.95
985.5319	2588.7959	1580.3	693.9
985.6576	2590.0893	1585.25	695.85
985.7832	2591.3819	1584.35	699.45
985.9087	2592.6739	1583.3	695.75
986.0343	2593.9652	1581.95	693.45
986.1597	2595.2557	1579.9	693.4
986.2852	2596.5456	1582.8	694.75
986.4106	2597.8348	1583.9	697.1
986.536	2599.1234	1579.5	693.15
986.6614	2600.4112	1575.85	689.15
986.7867	2601.6983	1578.75	689.95
986.912	2602.9848	1572.15	687.05
987.0372	2604.2705	1574.75	682.75
987.1624	2605.5556	1574.9	690.3
987.2876	2606.84	1574.05	688.8
987.4128	2608.1237	1570.95	685.45
987.5379	2609.4067	1567.85	682.6
987.6629	2610.689	1569	676.75
987.788	2611.9707	1562.5	672.2
987.913	2613.2516	1566.35	676.5
988.0379	2614.5319	1552.25	667.7
988.1629	2615.8115	1559.35	672.5
988.2878	2617.0903	1552.6	665.75
988.4126	2618.3685	1542.45	657.25
988.5375	2619.6461	1539.2	651.5
988.6622	2620.9229	1542.85	656.55
988.787	2622.199	1541.3	653.85
988.9117	2623.4745	1545.45	660
989.0364	2624.7493	1532.7	648.35
989.161	2626.0234	1540.3	657.7
989.2857	2627.2968	1530.9	645.55
989.4102	2628.5695	1539.45	653
989.5348	2629.8415	1538.85	653.6
989.6593	2631.1128	1532.6	645
989.7837	2632.3835	1535.1	650.25
989.9082	2633.6535	1533.2	646.85
990.0326	2634.9228	1533.7	649.4
990.1569	2636.1914	1527.55	643.65
990.2812	2637.4593	1528.5	642.45
990.4055	2638.7265	1517.6	630.45
990.5298	2639.9931	1517.2	632.45
990.654	2641.259	1526.65	640.15
990.7782	2642.5242	1519.35	633
990.9023	2643.7887	1512.3	628.95
991.0264	2645.0525	1514.75	630.35
991.1505	2646.3156	1512.4	626.3
991.2745	2647.5781	1507.25	623.35
991.3985	2648.8398	1511.7	626.55
991.5225	2650.1009	1544.15	619.3
991.6464	2651.3613	1509.35	623.65
991.7703	2652.6211	1506.65	619.95
991.8942	2653.8801	1500.8	616.4
992.018	2655.1385	1513.1	626.35
992.1418	2656.3961	1501.5	618.25
992.2655	2657.6531	1506.15	619.1
992.3892	2658.9094	1504.1	617.75
992.5129	2660.1651	1496.65	612
992.6366	2661.42	1500.3	616.9
992.7602	2662.6743	1510.15	622.95
992.8837	2663.9279	1495	610.1
993.0073	2665.1808	1508.05	622.2
993.1307	2666.433	1507.2	619.2
993.2542	2667.6846	1508.3	624.4
993.3776	2668.9354	1516.5	626.4
993.501	2670.1856	1513.8	626.45
993.6244	2671.4351	1513.45	631.25
993.7477	2672.6839	1522	638.3
993.8709	2673.9321	1526.95	642.4
993.9942	2675.1795	1524.4	638.95
994.1174	2676.4263	1522.65	637.9
994.2405	2677.6724	1515.7	631.05
994.3637	2678.9179	1519.7	633.4
994.4868	2680.1626	1518.45	636.3
994.6098	2681.4067	1520.1	635.5
994.7328	2682.6501	1515.3	631.65
994.8558	2683.8928	1514.85	632.25
994.9788	2685.1348	1512.5	627.75
995.1017	2686.3761	1501	617.65
995.2245	2687.6168	1500.25	613.45
995.3474	2688.8568	1495	611
995.4702	2690.0961	1492.4	608.4
995.5929	2691.3348	1489.8	604.25
995.7156	2692.5727	1487.35	602.75
995.8383	2693.81	1482.05	596.35
995.961	2695.0466	1484.75	600.25
996.0836	2696.2826	1491.95	607.2
996.2062	2697.5178	1489.7	602.1
996.3287	2698.7524	1486.75	603.8
996.4512	2699.9863	1493.75	607.3
996.5737	2701.2195	1491.5	606.65
996.6961	2702.452	1495.65	609.85
996.8185	2703.6839	1501.05	617.15
996.9408	2704.9151	1506.7	621.85
997.0631	2706.1456	1506.65	621.8
997.1854	2707.3755	1511.35	626.3
997.3077	2708.6046	1522.6	635.9
997.4299	2709.8331	1530.2	645.95
997.552	2711.0609	1531.45	647.25
997.6742	2712.2881	1538	653.8
997.7963	2713.5145	1542.25	656.3
997.9183	2714.7403	1553.7	671.05
998.0403	2715.9654	1563.6	679.8
998.1623	2717.1899	1591.3	690.8
998.2842	2718.4136	1582.45	698.1
998.4062	2719.6367	1594.5	710.85
998.528	2720.8591	1611.6	721.95
998.6498	2722.0809	1615.4	730.9
998.7716	2723.3019	1631.85	744.2
998.8934	2724.5223	1639.55	755.5
999.0151	2725.7421	1637.9	751.45
999.1368	2726.9611	1638.2	752.8
999.2584	2728.1795	1640.55	752.25
999.38	2729.3972	1631	747.75
999.5016	2730.6142	1626.15	726.85
999.6231	2731.8306	1603.45	719.75
999.7446	2733.0462	1594.75	709.7
999.8661	2734.2612	1585.3	695.7
999.9875	2735.4756	1554.35	667.4
1000.1089	2736.6892	1545.35	661.85
1000.2302	2737.9022	1532.3	648.4
1000.3515	2739.1145	1518.35	634.7
1000.4728	2740.3262	1508.5	616.15
1000.594	2741.5372	1490.9	608.1
1000.7152	2742.7475	1482.5	599.6
1000.8363	2743.9571	1475.25	587.75
1000.9575	2745.1661	1462.15	575.5
1001.0785	2746.3744	1451.95	567.5
1001.1996	2747.582	1447.95	564.05
1001.3206	2748.7889	1437.55	552.9
1001.4415	2749.9952	1433.95	550.55
1001.5625	2751.2008	1431.4	549.35
1001.6833	2752.4057	1426.75	540.6
1001.8042	2753.61	1421.7	538
1001.925	2754.8136	1414.8	531.05
1002.0458	2756.0165	1424.1	537.8
1002.1665	2757.2188	1412.7	530.05
1002.2872	2758.4204	1406.2	522
1002.4078	2759.6213	1413.25	526.5
1002.5285	2760.8215	1418.2	529.9
1002.649	2762.0211	1418.6	532.4
1002.7696	2763.22	1412.75	528.45
1002.8901	2764.4182	1411.15	528.1
1003.0106	2765.6158	1406.35	519.5
1003.131	2766.8127	1401.85	518.8
1003.2514	2768.009	1403.95	520.85
1003.3717	2769.2045	1398.35	513.1
1003.492	2770.3994	1399.7	512.65
1003.6123	2771.5936	1392.7	508.1
1003.7325	2772.7872	1386.85	504.5
1003.8527	2773.9801	1389.05	505.25
1003.9729	2775.1723	1399.85	500.05
1004.093	2776.3639	1382.6	501.1
1004.2131	2777.5548	1385.75	499.65
1004.3331	2778.745	1382.45	500.8
1004.4531	2779.9346	1382.45	499.55
1004.5731	2781.1235	1385.35	500.45
1004.693	2782.3117	1383.1	500.1
1004.8129	2783.4992	1395.4	514.7
1004.9328	2784.6861	1391.55	508.5
1005.0526	2785.8723	1389.3	504.45
1005.1723	2787.0579	1404.65	522.35
1005.2921	2788.2428	1403.1	521.85
1005.4118	2789.427	1406.95	526.8
1005.5314	2790.6106	1407.05	525.65
1005.651	2791.7935	1418.3	535.7
1005.7706	2792.9757	1425.9	542.1
1005.8902	2794.1573	1431.75	548.1
1006.0097	2795.3382	1439.2	556.55
1006.1291	2796.5184	1439.4	558.2
1006.2485	2797.698	1454.2	570.45
1006.3679	2798.8769	1462.05	578.8
1006.4873	2800.0551	1481.65	597.6
1006.6066	2801.2327	1498.05	613.35
1006.7258	2802.4096	1510.8	628.85
1006.8451	2803.5859	1524.8	641.55
1006.9642	2804.7615	1538.05	655.95
1007.0834	2805.9364	1560.75	680.45
1007.2025	2807.1106	1584.8	703.45
1007.3216	2808.2842	1609.9	725.45
1007.4406	2809.4572	1633.1	751.9
1007.5596	2810.6294	1662.45	778.3
1007.6785	2811.801	1690.65	811.3
1007.7975	2812.972	1723.6	843.35
1007.9163	2814.1423	1776.75	891.9
1008.0352	2815.3119	1825.55	942.75
1008.154	2816.4808	1856.25	975.15
1008.2727	2817.6491	1914.25	1030.75
1008.3914	2818.8167	1959.25	1079.05
1008.5101	2819.9837	2006.8	1120.25
1008.6288	2821.15	2062.35	1181.05
1008.7474	2822.3157	2115.75	1233.35
1008.8659	2823.4807	2170.3	1288
1008.9844	2824.645	2235.05	1351.85
1009.1029	2825.8086	2283.75	1400.95
1009.2214	2826.9716	2348	1467.3
1009.3398	2828.134	2401.35	1519.35
1009.4581	2829.2957	2441	1559.05
1009.5764	2830.4567	2477.25	1598.2
1009.6947	2831.617	2503.9	1620.3
1009.813	2832.7767	2515.85	1632.65
1009.9312	2833.9358	2510.4	1628.7
1010.0493	2835.0941	2500.55	1615.65
1010.1675	2836.2519	2498.95	1619.35
1010.2855	2837.4089	2467.85	1584.2
1010.4036	2838.5653	2459.55	1578.95
1010.5216	2839.7211	2448.55	1566.85
1010.6396	2840.8761	2447.2	1565.25
1010.7575	2842.0306	2453.7	1573.75
1010.8754	2843.1843	2472.85	1592.7
1010.9932	2844.3374	2500.35	1621.05
1011.111	2845.4899	2541.15	1659.75
1011.2288	2846.6417	2613.45	1730.95
1011.3465	2847.7928	2673.3	1792.5
1011.4642	2848.9433	2734.6	1850.2
1011.5818	2850.0931	2796.6	1913.1
1011.6995	2851.2422	2860.9	1975.4
1011.817	2852.3907	2915.95	2034
1011.9345	2853.5385	2961.65	2079.95
1012.052	2854.6857	3039.95	2131.2
1012.1695	2855.8323	3067.45	2186.3
1012.2869	2856.9781	3108.5	2227.5
1012.4042	2858.1233	3160.35	2279.65
1012.5216	2859.2679	3217.1	2334.4
1012.6389	2860.4118	3262.95	2380.65
1012.7561	2861.555	3312.6	2426.7
1012.8733	2862.6976	3359.75	2476.3
1012.9905	2863.8395	3382.3	2501.5
1013.1076	2864.9808	3411.15	2528.8
1013.2247	2866.1214	3419.25	2537.9
1013.3417	2867.2614	3445.35	2562.35
1013.4587	2868.4007	3469.55	2587.35
1013.5757	2869.5393	3490.85	2606.85
1013.6926	2870.6773	3503.6	2616.05
1013.8095	2871.8146	3517.35	2631.1
1013.9263	2872.9513	3520.7	2636.25
1014.0431	2874.0874	3511.05	2627.95
1014.1599	2875.2227	3483.6	2600.65
1014.2766	2876.3574	3468.65	2585.6
1014.3933	2877.4915	3443.15	2565
1014.51	2878.6249	3422.65	2539.65
1014.6266	2879.7577	3406.45	2525.5
1014.7431	2880.8898	3386.75	2493.15
1014.8596	2882.0212	3372	2491.95
1014.9761	2883.152	3365.75	2484.5
1015.0925	2884.2821	3332.5	2453.65
1015.2089	2885.4116	3326.2	2445.65
1015.3253	2886.5405	3330.9	2450.65
1015.4416	2887.6686	3347.55	2462.1
1015.5579	2888.7962	3349.25	2470.95
1015.6741	2889.923	3363.25	2484
1015.7903	2891.0493	3370.3	2490.05
1015.9065	2892.1748	3365.05	2484.9
1016.0226	2893.2997	3378.8	2497.95
1016.1387	2894.424	3398.15	2518.6
1016.2547	2895.5476	3417.8	2537.85
1016.3707	2896.6706	3429.75	2551.45
1016.4866	2897.7929	3444.4	2563.6
1016.6025	2898.9145	3481.4	2601.45
1016.7184	2900.0355	3500.15	2618.7
1016.8342	2901.1559	3527.6	2646
1016.95	2902.2756	3570	2684
1017.0658	2903.3946	3605.05	2724.55
1017.1815	2904.513	3633	2747.8
1017.2971	2905.6308	3658.1	2778.5
1017.4127	2906.7479	3679.9	2796.45
1017.5283	2907.8643	3703.7	2822.95
1017.6439	2908.9801	3706.95	2826.5
1017.7594	2910.0953	3716.15	2835.85
1017.8748	2911.2098	3721.55	2837.3
1017.9902	2912.3236	3703.5	2814.1
1018.1056	2913.4368	3692.75	2811.3
1018.2209	2914.5494	3679.25	2799.35
1018.3362	2915.6613	3656.25	2770.95
1018.4515	2916.7725	3611	2728.85
1018.5667	2917.8831	3590	2708.15
1018.6819	2918.9931	3567.45	2685.35
1018.797	2920.1024	3542.95	2660.6
1018.9121	2921.211	3516.6	2637.05
1019.0271	2922.319	3487.9	2605.25
1019.1421	2923.4264	3489.75	2609.3
1019.2571	2924.5331	3471	2591.75
1019.372	2925.6391	3481.1	2602.9
1019.4869	2926.7445	3476.35	2596
1019.6017	2927.8493	3474.75	2593.55
1019.7165	2928.9534	3476.1	2596.2
1019.8313	2930.0569	3482.4	2598
1019.946	2931.1597	3476.35	2593.85
1020.0606	2932.2619	3473.35	2590.85
1020.1753	2933.3634	3483.6	2602.85
1020.2899	2934.4643	3487.65	2599.9
1020.4044	2935.5645	3490.6	2603.9
1020.5189	2936.6641	3476.65	2592.25
1020.6334	2937.763	3434.8	2556.1
1020.7478	2938.8613	3385.65	2505.15
1020.8622	2939.959	3356.65	2470.2
1020.9765	2941.056	3287.5	2409.4
1021.0908	2942.1523	3206.3	2323.25
1021.2051	2943.248	3133.45	2250.9
1021.3193	2944.3431	3052	2173.45
1021.4334	2945.4375	2949.7	2068.2
1021.5476	2946.5313	2846.05	1969.85
1021.6617	2947.6244	2752.4	1872.5
1021.7757	2948.7169	2657.5	1776.85
1021.8897	2949.8087	2567.1	1688.15
1022.0037	2950.8999	2481.75	1599.95
1022.1176	2951.9904	2408.25	1529.3
1022.2315	2953.0803	2333.9	1451.7
1022.3453	2954.1696	2279.6	1400.05
1022.4591	2955.2582	2212.35	1334.1
1022.5728	2956.3462	2167.4	1287.2
1022.6865	2957.4335	2137.4	1258.4
1022.8002	2958.5202	2101.8	1217.65
1022.9138	2959.6062	2071.7	1191.3
1023.0274	2960.6916	2046.2	1166.75
1023.141	2961.7764	2027.85	1146.35
1023.2545	2962.8605	2021.85	1141.1
1023.3679	2963.9439	2001.65	1120.65
1023.4813	2965.0267	1993.25	1113.05
1023.5947	2966.1089	1995.1	1095.8
1023.708	2967.1905	1976.6	1097.85
1023.8213	2968.2714	1982.7	1103.55
1023.9346	2969.3516	1973.95	1094.4
1024.0478	2970.4312	1981.25	1093.2
1024.1609	2971.5102	1974.75	1096.8
1024.274	2972.5885	1971.1	1092.05
1024.3871	2973.6662	1992.55	1107.2
1024.5002	2974.7432	1983.75	1106.9
1024.6132	2975.8196	1987.1	1107
1024.7261	2976.8954	1969.45	1090.15
1024.839	2977.9705	1963.8	1085
1024.9519	2979.045	1961.4	1082.05
1025.0647	2980.1188	1929.2	1049
1025.1775	2981.192	1933.5	1055.8
1025.2902	2982.2645	1904.8	1023.05
1025.4029	2983.3364	1883	1003.85
1025.5156	2984.4077	1855.55	976.4
1025.6282	2985.4783	1841.85	956.65
1025.7407	2986.5483	1802.95	924.9
1025.8532	2987.6177	1771.35	892.6
1025.9657	2988.6864	1741.95	862.4
1026.0782	2989.7545	1712.6	831.8
1026.1906	2990.8219	1673.75	793.75
1026.3029	2991.8887	1633.95	752.8
1026.4152	2992.9548	1612.65	732.4
1026.5275	2994.0204	1574	694.35
1026.6397	2995.0852	1553.3	675.4
1026.7519	2996.1495	1524.2	641.05
1026.864	2997.2131	1501.3	623.95
1026.9761	2998.276	1473.4	590.4
1027.0882	2999.3383	1453.85	573
1027.2002	3000.4	1433.9	554.7
1027.3122	3001.4611	1412.85	533
1027.4241	3002.5215	1399.85	520.05
1027.536	3003.5812	1387.6	509.5
1027.6478	3004.6404	1368.05	488.45
1027.7596	3005.6989	1359.35	476.5
1027.8714	3006.7567	1351	472.85
1027.9831	3007.8139	1362.5	452.2
1028.0947	3008.8705	1328.25	447.9
1028.2064	3009.9264	1319.15	435.8
1028.3179	3010.9818	1306.9	427.3
1028.4295	3012.0364	1306.25	427.15
1028.541	3013.0905	1299.95	421.65
1028.6524	3014.1439	1294.35	414.4
1028.7638	3015.1966	1284.3	405.95
1028.8752	3016.2487	1289.65	410.1
1028.9865	3017.3002	1290.1	404.55
1029.0978	3018.3511	1270.85	393.4
1029.209	3019.4013	1271.25	391.4
1029.3202	3020.4509	1276.15	397.7
1029.4314	3021.4998	1268.1	387.2
1029.5425	3022.5481	1272.4	395.3
1029.6535	3023.5958	1264.8	385.95
1029.7645	3024.6428	1269.9	391.15
1029.8755	3025.6892	1267.4	388.3
1029.9864	3026.735	1268.55	390.55
1030.0973	3027.7802	1262.95	386.15
1030.2082	3028.8247	1267	387.85
1030.319	3029.8685	1270.55	390.55
1030.4297	3030.9118	1270.05	390.95
1030.5404	3031.9544	1270.25	392.5
1030.6511	3032.9963	1266.35	387.3
1030.7617	3034.0376	1273.2	395.6
1030.8723	3035.0783	1281.15	400.1
1030.9829	3036.1184	1277.15	398.75
1031.0934	3037.1578	1276.3	400
1031.2038	3038.1966	1284.45	404.75
1031.3142	3039.2348	1278.2	400.5
1031.4246	3040.2723	1293.35	406.5
1031.5349	3041.3092	1283.35	406.9
1031.6452	3042.3455	1287.85	408.2
1031.7554	3043.3811	1282.35	403.35
1031.8656	3044.4161	1279.7	399.35
1031.9758	3045.4505	1281.3	402.65
1032.0859	3046.4842	1269.55	389.1
1032.1959	3047.5173	1269.9	392.8
1032.3059	3048.5498	1273.8	396.55
1032.4159	3049.5816	1267.95	387.6
1032.5258	3050.6128	1260.1	381.5
1032.6357	3051.6434	1265.55	385.4
1032.7455	3052.6734	1258.7	379.35
1032.8553	3053.7027	1251.85	373.35
1032.9651	3054.7314	1243	364.1
1033.0748	3055.7594	1245.45	368.65
1033.1845	3056.7868	1249	369.15
1033.2941	3057.8136	1241.3	362.15
1033.4037	3058.8398	1239.65	362.8
1033.5132	3059.8653	1238.95	360.6
1033.6227	3060.8902	1232.6	353.3
1033.7321	3061.9145	1229.95	352.4
1033.8415	3062.9381	1231.9	353.6
1033.9509	3063.9612	1241.8	344.1
1034.0602	3064.9835	1223.65	347.35
1034.1694	3066.0053	1223.8	343.3
1034.2787	3067.0264	1213.7	336.3
1034.3878	3068.0469	1211.05	332.55
1034.497	3069.0668	1208.5	327.55
1034.6061	3070.086	1205	326.8
1034.7151	3071.1046	1186.35	307.8
1034.8241	3072.1226	1193.6	314.7
1034.9331	3073.1399	1184.4	307.35
1035.042	3074.1567	1173.65	294.65
1035.1508	3075.1727	1171.9	291
1035.2597	3076.1882	1165.4	286.25
1035.3684	3077.203	1158.15	280
1035.4772	3078.2173	1151.2	272.35
1035.5859	3079.2308	1144.9	263.45
1035.6945	3080.2438	1141.55	263.45
1035.8031	3081.2561	1129.45	250.4
1035.9117	3082.2678	1123.8	247.5
1036.0202	3083.2789	1121.65	244.65
1036.1286	3084.2893	1119.95	240.1
1036.2371	3085.2991	1114.4	235.75
1036.3454	3086.3083	1114.55	230.6
1036.4538	3087.3169	1102.15	223.45
1036.562	3088.3248	1097.65	215.8
1036.6703	3089.3321	1103.65	223.95
1036.7785	3090.3388	1088.2	210.2
1036.8866	3091.3449	1084.6	205.1
1036.9948	3092.3503	1087.75	205.6
1037.1028	3093.3551	1081.1	205.15
1037.2108	3094.3593	1074.15	196.2
1037.3188	3095.3629	1072.1	195.85
1037.4267	3096.3658	1070.95	191.05
1037.5346	3097.3681	1068.85	191.1
1037.6425	3098.3698	1071.85	191.25
1037.7503	3099.3708	1067.15	181.85
1037.858	3100.3713	1058.95	182.65
1037.9657	3101.3711	1057.35	178.65
1038.0734	3102.3702	1169.45	177.6
1038.181	3103.3688	1055.4	175.95
1038.2886	3104.3667	1046.3	168.95
1038.3961	3105.364	1051.9	175.75
1038.5036	3106.3607	1046.7	168.5
1038.611	3107.3568	1044.65	164.55
1038.7184	3108.3522	1037.4	160.8
1038.8257	3109.347	1039.8	160.9
1038.933	3110.3412	1040.65	159.35
1039.0403	3111.3348	1037.45	159.5
1039.1475	3112.3277	1037	158.8
1039.2547	3113.32	1030.05	154.05
1039.3618	3114.3117	1030.1	150.65
1039.4689	3115.3028	1028.05	150.55
1039.5759	3116.2932	1031.3	151.3
1039.6829	3117.2831	1033.35	148.85
1039.7898	3118.2723	1026.1	148.35
1039.8967	3119.2608	1024.95	148.25
1040.0035	3120.2488	1021	143.25
1040.1103	3121.2361	1016.8	138.4
1040.2171	3122.2229	1015.9	138.5
1040.3238	3123.209	1016.05	136.7
1040.4305	3124.1944	1015.6	138.25
1040.5371	3125.1793	1014.4	135.25
1040.6437	3126.1635	1012	134.9
1040.7502	3127.1471	1009.5	131.2
1040.8567	3128.1301	1006.9	129.25
1040.9631	3129.1125	1007.45	128.05
1041.0695	3130.0942	1002.9	124.5
1041.1759	3131.0753	1016.3	130.8
1041.2822	3132.0558	1008.8	127.5
1041.3884	3133.0357	1003.45	125.65
1041.4946	3134.015	1003.15	124.75
1041.6008	3134.9936	1005.1	125.8
1041.7069	3135.9716	1019.7	121.6
1041.813	3136.949	999.4	124.05
1041.919	3137.9258	1018.65	122.65
1042.025	3138.902	1003.8	122.05
1042.1309	3139.8775	996.9	119.6
1042.2368	3140.8524	993.55	116.8
1042.3427	3141.8267	997.75	118.35
1042.4485	3142.8004	993.5	113.9
1042.5542	3143.7735	998.7	115.15
1042.6599	3144.7459	998.8	119.8
1042.7656	3145.7178	994.15	117
1042.8712	3146.689	988.05	111.6
1042.9768	3147.6596	988	107.2
1043.0823	3148.6295	988.75	113.7
1043.1878	3149.5989	986.75	107.8
1043.2932	3150.5676	984.4	108.5
1043.3986	3151.5357	987.8	111.1
1043.5039	3152.5032	986.7	108.95
1043.6092	3153.4701	984.25	106.1
1043.7145	3154.4364	985.65	104.85
1043.8197	3155.402	983.1	106.1
1043.9248	3156.367	984.9	105.35
1044.03	3157.3315	1018	105.4
1044.135	3158.2952	978.25	99.8
1044.24	3159.2584	978.65	100.45
1044.345	3160.221	978.45	98.35
1044.4499	3161.1829	977.75	99.3
1044.5548	3162.1442	976.55	100.25
1044.6596	3163.105	975.45	98.9
1044.7644	3164.065	978.25	100.15
1044.8692	3165.0245	978.2	98.2
1044.9739	3165.9834	972.1	94.45
1045.0785	3166.9416	971	91.2
1045.1831	3167.8993	974.45	98.3
1045.2877	3168.8563	971.25	93.25
1045.3922	3169.8127	969.2	91.45
1045.4966	3170.7684	970.75	93.15
1045.6011	3171.7236	971.55	91.9
1045.7054	3172.6782	971.75	93.9
1045.8098	3173.6321	968.6	90.25
1045.914	3174.5854	973.2	89.8
1046.0183	3175.5381	972.2	95.65
1046.1224	3176.4902	969.05	91.7
1046.2266	3177.4417	969.35	91.65
1046.3307	3178.3926	964.8	88.75
1046.4347	3179.3428	962.3	86.7
1046.5387	3180.2924	968.25	91.05
1046.6427	3181.2415	963.05	86.8
1046.7466	3182.1899	965.35	86.35
1046.8504	3183.1377	961.75	84.8
1046.9542	3184.0848	969	90.35
1047.058	3185.0314	962.15	84.7
1047.1617	3185.9773	962.9	85.15
1047.2654	3186.9227	963.15	84.7
1047.369	3187.8674	959.15	83.5
1047.4726	3188.8115	961.2	79.65
1047.5761	3189.755	958.8	82.3
1047.6796	3190.6979	956.65	77.85
1047.783	3191.6402	958.8	81.6
1047.8864	3192.5818	958.7	81.25
1047.9898	3193.5229	966.95	84.1
1048.0931	3194.4633	957.2	80.1
1048.1963	3195.4031	955.4	79
1048.2995	3196.3423	952.85	76.4
1048.4027	3197.2809	953.8	76.3
1048.5058	3198.2189	957.1	77.55
1048.6089	3199.1563	971.2	77
1048.7119	3200.0931	951.25	74.8
1048.8148	3201.0292	950.6	74.55
1048.9178	3201.9648	952	73.95
1049.0206	3202.8997	956.95	76.25
1049.1235	3203.834	949.55	74.3
1049.2262	3204.7677	955.65	77.7
1049.329	3205.7008	954.95	75.6
1049.4317	3206.6333	951.9	75.35
1049.5343	3207.5652	951.9	74.35
1049.6369	3208.4964	948.85	70.7
1049.7394	3209.4271	949.75	74.65
1049.8419	3210.3571	951.8	75.65
1049.9444	3211.2865	950.65	72.4
1050.0468	3212.2154	947.55	69.35
1050.1491	3213.1436	949.65	70.4
1050.2514	3214.0712	952.85	69.55
1050.3537	3214.9982	947.3	71.2
1050.4559	3215.9246	948.95	71.5
1050.5581	3216.8503	942.6	65.85
1050.6602	3217.7755	946.65	70.1
1050.7623	3218.7001	946.2	70.4
1050.8643	3219.624	944.55	66.65
1050.9663	3220.5473	945.85	66.3
1051.0682	3221.4701	948.4	68.65
1051.1701	3222.3922	946.5	65.2
1051.2719	3223.3137	942.3	67.45
1051.3737	3224.2346	942.9	65.55
1051.4754	3225.1549	942.05	65.9
1051.5771	3226.0746	942.25	66.9
1051.6788	3226.9937	943.4	67.75
1051.7804	3227.9121	940.85	64.55
1051.8819	3228.83	941.5	64.45
1051.9834	3229.7473	940.7	63.05
1052.0849	3230.6639	941.8	65.1
1052.1863	3231.5799	943.25	65.85
1052.2876	3232.4954	942.75	65.1
1052.3889	3233.4102	939.2	64.2
1052.4902	3234.3244	939.95	62.7
1052.5914	3235.238	937.2	62.7
1052.6926	3236.151	961.5	58.4
1052.7937	3237.0634	937.25	62.55
1052.8948	3237.9752	936.15	61.45
1052.9958	3238.8864	934.15	55.1
1053.0968	3239.797	935.35	58.2
1053.1977	3240.7069	938.45	60.75
1053.2986	3241.6163	936.1	59.1
1053.3994	3242.5251	934.45	59.6
1053.5002	3243.4332	934.95	57.1
1053.6009	3244.3408	935.65	59.05
1053.7016	3245.2477	935.7	59.35
1053.8022	3246.154	935.95	58.6
1053.9028	3247.0598	934.9	57.85
1054.0034	3247.9649	932.7	54.65
1054.1039	3248.8694	930.5	53.7
1054.2043	3249.7733	933.75	56.8
1054.3047	3250.6766	930.2	53.65
1054.4051	3251.5793	930.1	52.7
1054.5054	3252.4814	927.25	50.6
1054.6056	3253.3829	927.75	52.6
1054.7058	3254.2838	928.45	53.45
1054.806	3255.1841	925.35	48.95
1054.9061	3256.0838	928.35	51.65
1055.0061	3256.9829	927.55	51.45
1055.1062	3257.8814	929.05	51.95
1055.2061	3258.7792	931.1	51.45
1055.306	3259.6765	924.25	45.7
1055.4059	3260.5731	924.4	47.95
1055.5057	3261.4692	921.5	41.75
1055.6055	3262.3647	922.15	45.6
1055.7052	3263.2595	924.4	48.4
1055.8049	3264.1538	925.15	47.75
1055.9045	3265.0474	923.9	48.45
1056.0041	3265.9404	922.05	44.55
1056.1036	3266.8329	918.6	41.6
1056.2031	3267.7247	932.3	47.2
1056.3025	3268.616	916.25	42.45
1056.4019	3269.5066	916.3	39.9
1056.5013	3270.3966	917	37.1
1056.6005	3271.286	916.45	40.45
