Software Version:	3.9.2.0
Unit SN:	10000200
Spectrometer SN:	6960
Date:	3/8/2024 11:36:30 AM
Data Line Index:	25
Spectral Points:	2048
Integration time (ms):	125
Averages:	20
Delay (ms):	30000
Sequence Number:	1
Processing:	dark subtract
Laser Power (mW):	300
Laser Current (mA):	822
Laser Diode Temp (C):	25
Laser Case Temp (C):	25.2
System Temp (C):	25.1
Spectrometer Temp (C):	23
CCD Temp (C):	-0.003
Secondary Temp (C):	20.008
Heatsink Temp (C):	19.884
CCDPCB Temp (C):	34.917
SecondaryPCB Temp (C):	27.625

Wavelength	RamanShift	Raw Counts	Dark Subtracted
787.061	30.1047	416.45	7.45
787.2016	32.3739	413.6	5.4
787.3422	34.6426	414.15	5.3
787.4828	36.9109	416.7	6.85
787.6235	39.1787	420.25	6.65
787.7642	41.4461	426.45	7.4
787.9049	43.7131	430.9	6.75
788.0456	45.9796	434.35	9.55
788.1863	48.2456	438.6	10.65
788.3271	50.5112	440.3	8.8
788.4679	52.7764	446.9	13.5
788.6087	55.0411	450.5	9
788.7496	57.3054	457.35	11.75
788.8904	59.5692	462.8	16.8
789.0313	61.8326	461.95	14.1
789.1722	64.0955	467.7	15
789.3132	66.3579	475.75	18.15
789.4541	68.6199	481.1	18.9
789.5951	70.8815	492.45	27.15
789.7361	73.1426	511.35	41.1
789.8771	75.4032	547.65	74.7
790.0181	77.6634	625.6	150.5
790.1592	79.9231	802.95	323.2
790.3003	82.1824	1180.2	693.75
790.4414	84.4412	1786.25	1287.85
790.5825	86.6995	2571.85	2060.65
790.7237	88.9574	3299.6	2780.85
790.8648	91.2148	3801.35	3274.15
791.006	93.4717	4000.9	3465.95
791.1472	95.7282	4028.4	3489.95
791.2885	97.9842	4013.9	3474.1
791.4297	100.2398	3940.75	3398.95
791.571	102.4949	3880.65	3337.25
791.7123	104.7495	3843.1	3294.2
791.8536	107.0036	3797.15	3248.85
791.9949	109.2573	3725.3	3178.15
792.1363	111.5105	3621.2	3070.15
792.2777	113.7632	3532.9	2978.3
792.4191	116.0154	3415.75	2852.7
792.5605	118.2672	3294.9	2735.3
792.7019	120.5185	3201.8	2640.1
792.8434	122.7693	3068.7	2506.7
792.9849	125.0197	2981.05	2412.7
793.1264	127.2696	2895.9	2325.7
793.2679	129.519	2866.85	2294.85
793.4094	131.7679	2834.4	2257.7
793.551	134.0163	2798.75	2221.75
793.6926	136.2642	2790.75	2209
793.8342	138.5117	2776.95	2191.95
793.9758	140.7587	2752.3	2168.05
794.1175	143.0052	2702.1	2112.5
794.2591	145.2512	2650.7	2059.9
794.4008	147.4967	2592.4	2002.1
794.5425	149.7417	2549.05	1954.2
794.6842	151.9863	2530.2	1934.9
794.826	154.2304	2506.25	1904.35
794.9677	156.4739	2509.25	1902.55
795.1095	158.717	2506.35	1898.9
795.2513	160.9596	2547.55	1935.7
795.3931	163.2017	2572.35	1956.95
795.535	165.4433	2571.2	1953.9
795.6768	167.6844	2569.8	1951.4
795.8187	169.925	2541.5	1920.9
795.9606	172.1651	2487.8	1866.75
796.1025	174.4047	2447.25	1817.75
796.2445	176.6439	2387.4	1759.8
796.3864	178.8825	2368.55	1733.55
796.5284	181.1206	2350.7	1715.5
796.6704	183.3582	2331.3	1690.2
796.8124	185.5954	2327.1	1682.2
796.9544	187.832	2317.4	1670.65
797.0965	190.0681	2332.5	1684.75
797.2386	192.3037	2343.8	1693.3
797.3806	194.5388	2354.1	1696.65
797.5228	196.7734	2352.15	1696.45
797.6649	199.0075	2374.2	1714.8
797.807	201.2411	2388.5	1732.05
797.9492	203.4742	2422.15	1761.85
798.0914	205.7068	2448.3	1781.2
798.2336	207.9389	2471.3	1804.4
798.3758	210.1704	2488.7	1826.35
798.518	212.4015	2482.05	1831.1
798.6603	214.632	2485.8	1840.2
798.8025	216.862	2488.8	1845.45
798.9448	219.0915	2494.2	1849.05
799.0871	221.3205	2512.65	1863.65
799.2294	223.549	2522.65	1878.85
799.3718	225.777	2518.1	1871.8
799.5141	228.0044	2512.2	1858.75
799.6565	230.2314	2503.6	1852.8
799.7989	232.4578	2476.25	1820.8
799.9413	234.6837	2481.6	1816.05
800.0837	236.909	2461	1794.25
800.2262	239.1339	2473.7	1781.8
800.3687	241.3582	2459	1782.5
800.5111	243.582	2472.15	1764.4
800.6536	245.8053	2473.8	1779.95
800.7961	248.0281	2469.05	1781.3
800.9387	250.2503	2482.3	1789.85
801.0812	252.472	2491.4	1797.95
801.2238	254.6932	2511.65	1817.45
801.3664	256.9139	2498.9	1804
801.509	259.134	2527.9	1824.9
801.6516	261.3536	2543.5	1846.85
801.7942	263.5727	2601.75	1903.35
801.9369	265.7912	2650.75	1948.8
802.0795	268.0092	2711.5	2010.6
802.2222	270.2267	2779.25	2078.45
802.3649	272.4436	2818.1	2117.1
802.5076	274.6601	2865.45	2152.15
802.6504	276.8759	2894.65	2183.6
802.7931	279.0913	2924.5	2212.05
802.9359	281.3061	2933.2	2223
803.0787	283.5204	2952.85	2237.15
803.2215	285.7341	2984.15	2267.55
803.3643	287.9473	2996.4	2277.6
803.5071	290.16	3005.5	2285.75
803.6499	292.3721	2958.9	2245.35
803.7928	294.5837	2922.15	2206.05
803.9357	296.7947	2890.85	2173.85
804.0786	299.0052	2875.1	2156
804.2215	301.2152	2869.65	2146.4
804.3644	303.4246	2854.75	2139.55
804.5074	305.6334	2830.75	2113.7
804.6503	307.8418	2806.75	2083.15
804.7933	310.0495	2780	2056.9
804.9363	312.2568	2735.75	2012.35
805.0793	314.4635	2697.95	1974.4
805.2223	316.6696	2647.1	1916.45
805.3653	318.8752	2590.9	1854.1
805.5084	321.0802	2557.45	1830.25
805.6514	323.2847	2555.15	1824
805.7945	325.4887	2562.9	1832.85
805.9376	327.692	2575.2	1840.7
806.0807	329.8949	2627.75	1892.05
806.2238	332.0972	2664.05	1928.35
806.367	334.2989	2699.75	1958.75
806.5101	336.5001	2687.8	1948.2
806.6533	338.7007	2672.9	1932.4
806.7965	340.9008	2608.6	1865.8
806.9397	343.1003	2554.5	1812.55
807.0829	345.2992	2497.75	1753.2
807.2261	347.4976	2448.1	1702.2
807.3693	349.6955	2424.25	1676.95
807.5126	351.8927	2412.1	1660.15
807.6559	354.0895	2397.15	1635.55
807.7991	356.2856	2374.75	1620.95
807.9424	358.4812	2355.65	1602.1
808.0857	360.6763	2363.2	1609.55
808.2291	362.8707	2359.1	1602.95
808.3724	365.0646	2348.5	1587.2
808.5158	367.258	2368.75	1607.05
808.6591	369.4508	2389.6	1623.85
808.8025	371.643	2414.5	1647.6
808.9459	373.8346	2461.45	1691.85
809.0893	376.0257	2488.35	1716.8
809.2327	378.2162	2514.2	1746.7
809.3762	380.4062	2536.35	1767.45
809.5196	382.5956	2491.3	1723
809.6631	384.7844	2459.65	1695.25
809.8066	386.9726	2407.95	1645
809.9501	389.1603	2390.8	1627.65
810.0936	391.3474	2382.55	1588.65
810.2371	393.5339	2357.55	1594.95
810.3806	395.7199	2377.9	1612
810.5241	397.9052	2404.35	1643.2
810.6677	400.09	2450.4	1684.35
810.8113	402.2743	2499.65	1733.8
810.9548	404.4579	2537.2	1771.75
811.0984	406.641	2592.3	1822.35
811.2421	408.8235	2629.55	1858.95
811.3857	411.0054	2679.5	1905.3
811.5293	413.1868	2749	1971.4
811.673	415.3675	2812.8	2035.8
811.8166	417.5477	2792.7	2013.55
811.9603	419.7273	2743	1962
812.104	421.9064	2645.05	1853.9
812.2477	424.0848	2578.65	1793.25
812.3914	426.2627	2521.1	1738.75
812.5351	428.4399	2457.8	1674.9
812.6788	430.6166	2399.05	1612.35
812.8226	432.7928	2347.6	1559.1
812.9663	434.9683	2296.2	1505.65
813.1101	437.1432	2275	1484.4
813.2539	439.3176	2252.05	1461.75
813.3977	441.4914	2235.4	1445.95
813.5415	443.6645	2233.2	1442.05
813.6853	445.8371	2241.45	1451.75
813.8291	448.0091	2238.9	1449.7
813.973	450.1806	2230.45	1438.45
814.1168	452.3514	2224.3	1431.85
814.2607	454.5216	2240.75	1436.5
814.4046	456.6913	2230.8	1435.6
814.5485	458.8603	2226.75	1435.05
814.6924	461.0288	2234.9	1442.65
814.8363	463.1967	2234.75	1442.1
814.9802	465.3639	2240.25	1442.3
815.1241	467.5306	2228.4	1431.9
815.2681	469.6967	2220.5	1423.45
815.412	471.8622	2210.5	1413.55
815.556	474.0271	2210.85	1414.7
815.7	476.1914	2211.3	1412.15
815.844	478.3551	2205.35	1405
815.988	480.5182	2200.9	1404.65
816.132	482.6807	2208	1409.85
816.276	484.8426	2230.45	1435.25
816.4201	487.0039	2270.2	1472.05
816.5641	489.1647	2340.7	1539.6
816.7082	491.3248	2375.3	1574.4
816.8522	493.4843	2400.2	1599.6
816.9963	495.6432	2388.05	1584.55
817.1404	497.8015	2365.75	1558.2
817.2845	499.9592	2301.95	1495.85
817.4286	502.1163	2260.75	1453.5
817.5727	504.2728	2201.85	1393.7
817.7168	506.4287	2175.35	1370.4
817.861	508.5839	2152.2	1348.15
818.0051	510.7386	2148.25	1340.4
818.1493	512.8927	2161.95	1345.5
818.2935	515.0461	2174.2	1363.35
818.4377	517.199	2187.8	1378.4
818.5818	519.3512	2241.4	1432.45
818.726	521.5029	2318.2	1501.3
818.8703	523.6539	2374.55	1563.35
819.0145	525.8043	2382.35	1567
819.1587	527.9541	2321.5	1506.15
819.303	530.1033	2252.85	1438.6
819.4472	532.2519	2197.95	1383.4
819.5915	534.3999	2176.5	1359.6
819.7357	536.5472	2172.75	1358.4
819.88	538.694	2164.35	1349.45
820.0243	540.8401	2193.9	1378.75
820.1686	542.9856	2211.15	1392.05
820.3129	545.1305	2219.5	1398.3
820.4572	547.2748	2240.55	1420.25
820.6016	549.4185	2245.9	1422.4
820.7459	551.5615	2254.5	1433.15
820.8902	553.704	2263.55	1442.8
821.0346	555.8458	2278.35	1461.4
821.1789	557.987	2302.9	1483.05
821.3233	560.1276	2335.65	1514.35
821.4677	562.2675	2393.65	1574.45
821.6121	564.4069	2470.5	1649.8
821.7565	566.5456	2517.35	1697.05
821.9009	568.6837	2494.9	1674.3
822.0453	570.8212	2408.2	1587.9
822.1897	572.958	2325	1500.8
822.3342	575.0942	2259.55	1437.75
822.4786	577.2299	2226.25	1401.2
822.6231	579.3648	2195.95	1373.15
822.7675	581.4992	2168.7	1349.35
822.912	583.6329	2169.7	1352.15
823.0565	585.766	2230.1	1410.55
823.201	587.8985	2277.1	1454.45
823.3454	590.0304	2341.85	1504.45
823.4899	592.1616	2351.3	1520.7
823.6345	594.2922	2361.95	1532.2
823.779	596.4222	2313.7	1483.9
823.9235	598.5515	2242	1412.05
824.068	600.6802	2188.5	1360.85
824.2126	602.8083	2144	1314.8
824.3571	604.9358	2135.15	1305.85
824.5017	607.0626	2131.25	1300.6
824.6462	609.1888	2137.15	1303.35
824.7908	611.3144	2179.25	1347.65
824.9354	613.4393	2207.3	1372.9
825.08	615.5636	2262.2	1428.6
825.2246	617.6873	2308.55	1475.75
825.3692	619.8103	2360.95	1525.2
825.5138	621.9327	2352.2	1517.25
825.6584	624.0544	2312.9	1480.15
825.803	626.1756	2241.3	1409.4
825.9477	628.2961	2190.85	1354.75
826.0923	630.4159	2163.75	1327.75
826.237	632.5351	2164.8	1329.05
826.3816	634.6537	2160.35	1323.55
826.5263	636.7716	2136.15	1297.85
826.6709	638.8889	2141.05	1302.3
826.8156	641.0056	2143.55	1305.6
826.9603	643.1216	2148.6	1309.8
827.105	645.237	2155.35	1315.6
827.2497	647.3518	2128.9	1291.05
827.3944	649.4659	2109.45	1273.3
827.5391	651.5793	2080	1241.5
827.6838	653.6922	2069.45	1231.5
827.8285	655.8043	2056.3	1215.95
827.9733	657.9159	2036.95	1195.85
828.118	660.0268	2030.95	1186.45
828.2627	662.137	2033.45	1191.15
828.4075	664.2466	2026.55	1182.15
828.5522	666.3556	2039.65	1194.45
828.697	668.4639	2025.5	1181.2
828.8418	670.5716	2020.4	1179.65
828.9865	672.6786	2009.9	1166
829.1313	674.785	2013	1167.05
829.2761	676.8907	2005	1161.35
829.4209	678.9958	1990.6	1149.55
829.5657	681.1002	2001.35	1154.7
829.7105	683.204	2011.35	1161.75
829.8553	685.3072	2001	1154.8
830.0001	687.4097	1996.45	1150.15
830.1449	689.5115	1997.95	1150.2
830.2898	691.6127	1992.75	1149.3
830.4346	693.7132	1992.5	1144.6
830.5794	695.8131	1999.65	1137.75
830.7243	697.9123	1991.55	1143.8
830.8691	700.0109	1993.6	1143.75
831.014	702.1089	2009.9	1161.2
831.1588	704.2061	2036.7	1188.4
831.3037	706.3028	2064.5	1214.05
831.4486	708.3987	2074.2	1224.05
831.5935	710.4941	2090.3	1240.55
831.7383	712.5887	2082.85	1231.1
831.8832	714.6827	2094.5	1237.7
832.0281	716.7761	2085.55	1236.05
832.173	718.8688	2082.7	1231.35
832.3179	720.9608	2089.2	1234.05
832.4628	723.0522	2100.55	1245.7
832.6077	725.1429	2129.25	1275.35
832.7527	727.233	2161.55	1308
832.8976	729.3224	2237.45	1385.1
833.0425	731.4112	2291.3	1436.9
833.1874	733.4993	2302.45	1446.75
833.3324	735.5867	2246.6	1391.75
833.4773	737.6735	2160.1	1305.1
833.6222	739.7596	2105.55	1249.95
833.7672	741.845	2070.15	1214.75
833.9122	743.9298	2064.95	1205.6
834.0571	746.014	2068	1213.6
834.2021	748.0974	2090.85	1232.75
834.347	750.1802	2080.8	1226.65
834.492	752.2624	2078.6	1222.85
834.637	754.3439	2076.05	1217.55
834.782	756.4247	2065.85	1199.75
834.9269	758.5048	2063.3	1204.55
835.0719	760.5843	2085.8	1226.65
835.2169	762.6631	2116.35	1256.85
835.3619	764.7413	2184.35	1326.05
835.5069	766.8188	2276.15	1416.35
835.6519	768.8956	2374	1513.5
835.7969	770.9718	2428.45	1572
835.9419	773.0473	2417.15	1558.25
836.0869	775.1221	2376.95	1517.95
836.232	777.1962	2371.1	1511.45
836.377	779.2697	2421.35	1560.55
836.522	781.3426	2555.45	1678.7
836.667	783.4147	2613.05	1752.15
836.8121	785.4862	2605.05	1746.7
836.9571	787.557	2502.15	1639.4
837.1021	789.6271	2350.55	1489.55
837.2472	791.6966	2223	1363.85
837.3922	793.7654	2113.6	1250.55
837.5373	795.8335	2056.1	1193.05
837.6823	797.901	2010.15	1149.25
837.8274	799.9678	2019.5	1156.45
837.9724	802.0339	2000.35	1139.3
838.1175	804.0993	2027.65	1156.7
838.2626	806.1641	2004.05	1139.75
838.4076	808.2282	1977.55	1116.85
838.5527	810.2916	1960	1095.1
838.6978	812.3544	1952.4	1090.5
838.8428	814.4164	1943.6	1081.5
838.9879	816.4778	1954.9	1090.6
839.133	818.5385	1971.15	1108.25
839.2781	820.5986	2001.15	1137.5
839.4232	822.658	2057.9	1190.1
839.5682	824.7166	2124.85	1259.85
839.7133	826.7747	2228	1365.95
839.8584	828.832	2317.55	1452.25
840.0035	830.8886	2382.7	1514.95
840.1486	832.9446	2413.8	1547.25
840.2937	834.9999	2368.35	1507.1
840.4388	837.0545	2295.55	1427
840.5839	839.1085	2196.9	1328.05
840.729	841.1618	2117.2	1245.85
840.8741	843.2143	2060.65	1191.6
841.0192	845.2662	2010.25	1145.45
841.1643	847.3175	2004.85	1140.45
841.3095	849.368	1986.8	1121.9
841.4546	851.4179	1986.9	1119.95
841.5997	853.467	1986.15	1120.8
841.7448	855.5155	1989.7	1122.05
841.8899	857.5633	1990	1121.55
842.0351	859.6105	1983.15	1117.65
842.1802	861.6569	1974.2	1105.6
842.3253	863.7027	1960.45	1089.75
842.4704	865.7478	1944.7	1076.3
842.6156	867.7922	1946.65	1076.65
842.7607	869.8359	1918.75	1049.35
842.9058	871.8789	1920.9	1051.55
843.0509	873.9212	1944.7	1043.8
843.1961	875.9629	1927.65	1057.9
843.3412	878.0039	1943.2	1073.1
843.4863	880.0441	1965.6	1097
843.6315	882.0837	1980.25	1108.5
843.7766	884.1226	2006.85	1135.25
843.9218	886.1609	2043.4	1174.9
844.0669	888.1984	2102.4	1233.85
844.212	890.2352	2146.65	1275.4
844.3572	892.2714	2154	1282.15
844.5023	894.3069	2127.3	1256.1
844.6475	896.3416	2072.75	1201
844.7926	898.3757	2026.6	1154
844.9377	900.4091	2000.05	1129.65
845.0829	902.4418	2009.15	1133.55
845.228	904.4739	2029.55	1154.1
845.3732	906.5052	2047.65	1175.2
845.5183	908.5358	2038.25	1164.8
845.6635	910.5658	2017.35	1142.65
845.8086	912.595	1961.75	1088.35
845.9538	914.6236	1933.9	1059.8
846.0989	916.6515	1902.45	1032.85
846.2441	918.6786	1872.3	996.35
846.3892	920.7051	1875.65	1002.4
846.5344	922.7309	1871.45	997.75
846.6795	924.756	1872.1	998.2
846.8246	926.7804	1890.8	1016.1
846.9698	928.8041	1889.25	1015.3
847.1149	930.8272	1909.8	1036.05
847.2601	932.8495	1911.8	1036.2
847.4052	934.8711	1932.35	1054.5
847.5504	936.892	1931.75	1056.85
847.6955	938.9123	1958.2	1084
847.8407	940.9318	1988.55	1113.25
847.9858	942.9506	2002.7	1128.35
848.131	944.9688	1985.7	1111.45
848.2761	946.9862	1968	1093.95
848.4213	949.003	1927.95	1053.95
848.5664	951.019	1903.8	1029.2
848.7115	953.0344	1884.3	1010.4
848.8567	955.0491	1864.5	987.45
849.0018	957.063	1857.5	980.75
849.147	959.0763	1863	987.35
849.2921	961.0888	1856.35	978.85
849.4373	963.1007	1864.85	989.55
849.5824	965.1119	1850.85	976.25
849.7275	967.1223	1838.25	966.35
849.8727	969.1321	1830.85	957.5
850.0178	971.1412	1836.35	963.55
850.1629	973.1495	1826.45	952.1
850.3081	975.1572	1850.1	942.25
850.4532	977.1641	1830.3	954.4
850.5983	979.1704	1832.4	952.95
850.7435	981.1759	1826.05	944.9
850.8886	983.1808	1823	944.65
851.0337	985.1849	1819.4	931.55
851.1788	987.1884	1814.85	937.2
851.324	989.1911	1814.05	932.65
851.4691	991.1932	1820.45	940.7
851.6142	993.1945	1824.75	946.1
851.7593	995.1951	1816.3	939.95
851.9045	997.1951	1822.75	939.45
852.0496	999.1943	1817.35	938.85
852.1947	1001.1928	1818.15	937.1
852.3398	1003.1906	1830.25	951.7
852.4849	1005.1877	1848.15	968.55
852.63	1007.1841	1878.4	1000.65
852.7751	1009.1798	1895.95	1018.65
852.9202	1011.1748	1881.55	1004
853.0653	1013.1691	1860.2	983.2
853.2104	1015.1627	1823.1	943.8
853.3555	1017.1556	1793.65	916.15
853.5006	1019.1477	1773.15	895.15
853.6457	1021.1392	1754	880.05
853.7908	1023.1299	1744.35	869.2
853.9359	1025.12	1735.2	858.65
854.081	1027.1093	1738.5	864.25
854.2261	1029.0979	1780.95	908.6
854.3712	1031.0859	1792.75	919.4
854.5163	1033.0731	1817.35	939.7
854.6613	1035.0596	1808.85	932.15
854.8064	1037.0454	1801.55	921.4
854.9515	1039.0304	1787.95	909.05
855.0965	1041.0148	1759.8	878.6
855.2416	1042.9985	1740.25	856.3
855.3867	1044.9814	1731.45	852.85
855.5317	1046.9636	1725.15	842.1
855.6768	1048.9452	1740.4	861.35
855.8219	1050.926	1756.75	879.85
855.9669	1052.9061	1769.05	889.9
856.112	1054.8855	1776.65	896.25
856.257	1056.8642	1776.6	896.85
856.4021	1058.8421	1785.1	901.3
856.5471	1060.8194	1778.45	899.1
856.6921	1062.7959	1766.55	886.15
856.8372	1064.7717	1764.9	884.35
856.9822	1066.7469	1759.25	876.45
857.1272	1068.7213	1770	886.45
857.2723	1070.695	1790.55	911.2
857.4173	1072.6679	1812.7	930.65
857.5623	1074.6402	1837.55	960
857.7073	1076.6117	1849.3	963.8
857.8523	1078.5826	1810.55	929.6
857.9973	1080.5527	1780.4	897.4
858.1423	1082.5221	1741.9	860.6
858.2873	1084.4908	1713.35	832.2
858.4323	1086.4587	1708.05	825.75
858.5773	1088.426	1695.6	812.9
858.7223	1090.3925	1698.35	812.1
858.8673	1092.3584	1694.9	811.6
859.0123	1094.3235	1708.35	828.45
859.1573	1096.2879	1729.05	847.7
859.3022	1098.2515	1754.85	873.65
859.4472	1100.2145	1785.15	905.25
859.5922	1102.1767	1823.5	941.65
859.7371	1104.1382	1869	983.1
859.8821	1106.099	1930.25	1044.05
860.027	1108.0591	1984.4	1102.3
860.172	1110.0185	2012.15	1125.45
860.3169	1111.9771	2064.2	1182.55
860.4619	1113.9351	2103.65	1221.2
860.6068	1115.8923	2172.5	1290.5
860.7517	1117.8488	2197.4	1313.15
860.8967	1119.8045	2152.75	1271.65
861.0416	1121.7596	2051	1167.1
861.1865	1123.7139	1930.65	1050.6
861.3314	1125.6675	1882.55	1001.7
861.4763	1127.6204	1875.95	993.4
861.6212	1129.5726	1903.85	1016.6
861.7661	1131.524	1899.35	1017.45
861.911	1133.4748	1859.5	976.1
862.0559	1135.4248	1786.5	903.5
862.2008	1137.3741	1731.7	849.55
862.3457	1139.3226	1715	831.5
862.4905	1141.2705	1705.9	823.6
862.6354	1143.2176	1719.35	829.6
862.7803	1145.164	1738.45	856.05
862.9251	1147.1097	1732.2	849.35
863.07	1149.0546	1708.65	822.8
863.2148	1150.9989	1671.3	788.4
863.3597	1152.9424	1656.95	772.4
863.5045	1154.8852	1646.9	761.6
863.6493	1156.8272	1634.9	753.45
863.7942	1158.7686	1639.7	750
863.939	1160.7092	1637.9	753.1
864.0838	1162.6491	1650.15	762.3
864.2286	1164.5883	1647.1	763.55
864.3734	1166.5267	1671.75	785.25
864.5182	1168.4644	1700.55	816
864.663	1170.4014	1736.2	849.25
864.8078	1172.3377	1782.6	900.8
864.9526	1174.2732	1827	944.7
865.0974	1176.2081	1927.5	1043.4
865.2421	1178.1421	2064.1	1175.75
865.3869	1180.0755	2186.65	1304.55
865.5317	1182.0082	2251.95	1369.25
865.6764	1183.9401	2229.65	1346.85
865.8212	1185.8713	2109.45	1226.95
865.9659	1187.8017	1984.3	1099.7
866.1106	1189.7315	1866.15	986.9
866.2554	1191.6605	1812.85	905.65
866.4001	1193.5888	1740.2	858.65
866.5448	1195.5163	1706.9	826.2
866.6895	1197.4432	1697.35	812.05
866.8342	1199.3693	1672.95	791.6
866.9789	1201.2947	1655.4	768.5
867.1236	1203.2193	1640.2	753.85
867.2683	1205.1432	1642.05	756.75
867.413	1207.0664	1639.35	754.8
867.5576	1208.9889	1645	757.8
867.7023	1210.9106	1648.05	760.7
867.847	1212.8316	1646.3	762.9
867.9916	1214.7519	1672.55	779.75
868.1363	1216.6715	1668.1	784.05
868.2809	1218.5903	1673.75	790.85
868.4255	1220.5084	1694.8	808.65
868.5701	1222.4257	1725.75	842.65
868.7148	1224.3424	1733.05	849.4
868.8594	1226.2583	1757.45	867.95
869.004	1228.1735	1778.45	893.35
869.1486	1230.0879	1816.9	932.45
869.2932	1232.0016	1868.95	984.5
869.4377	1233.9146	1899	1011.1
869.5823	1235.8269	1924.15	1038.9
869.7269	1237.7384	1935	1050.15
869.8715	1239.6492	1927.95	1045.3
870.016	1241.5592	1955	1068.65
870.1606	1243.4686	1990.2	1105.85
870.3051	1245.3772	2077.1	1192.15
870.4496	1247.285	2171.65	1287.35
870.5941	1249.1922	2252.65	1367.05
870.7387	1251.0986	2336.55	1452.9
870.8832	1253.0042	2412.1	1527.75
871.0277	1254.9092	2492.65	1606.8
871.1722	1256.8134	2593.9	1710.85
871.3167	1258.7169	2674.15	1786.5
871.4611	1260.6196	2710.2	1825.05
871.6056	1262.5216	2731.95	1844.7
871.7501	1264.4229	2706.55	1824.25
871.8945	1266.3234	2668.85	1787.15
872.039	1268.2232	2615.6	1730
872.1834	1270.1223	2556.45	1666.8
872.3278	1272.0207	2526.35	1638.25
872.4723	1273.9183	2498.8	1606
872.6167	1275.8151	2501	1616.5
872.7611	1277.7113	2551.5	1666.05
872.9055	1279.6067	2645.5	1759.3
873.0499	1281.5014	2796.5	1906.85
873.1943	1283.3953	2977.95	2089.35
873.3386	1285.2885	3165.55	2281.6
873.483	1287.181	3326.55	2440.75
873.6274	1289.0727	3382.7	2496.6
873.7717	1290.9637	3310.8	2425.95
873.9161	1292.854	3229.15	2343.45
874.0604	1294.7435	3108.05	2222.9
874.2047	1296.6323	2987.95	2103.25
874.349	1298.5204	2883.4	1995.05
874.4933	1300.4077	2811.05	1923.05
874.6376	1302.2943	2739.6	1853.9
874.7819	1304.1802	2712.55	1827.25
874.9262	1306.0653	2690.6	1803.15
875.0705	1307.9497	2639.85	1753.45
875.2147	1309.8333	2606.75	1720.9
875.359	1311.7162	2564.1	1676.95
875.5032	1313.5984	2531.3	1641.2
875.6475	1315.4798	2520.9	1623.35
875.7917	1317.3605	2509.85	1618.9
875.9359	1319.2405	2494.35	1605.35
876.0801	1321.1197	2473.4	1584.8
876.2243	1322.9982	2432.5	1540.6
876.3685	1324.876	2341.9	1454.85
876.5127	1326.753	2229.65	1344.75
876.6569	1328.6293	2142.95	1256.55
876.801	1330.5048	2064.5	1174.2
876.9452	1332.3796	1977.75	1091.7
877.0893	1334.2537	1939.1	1029.95
877.2335	1336.127	1879.9	992.45
877.3776	1337.9996	1842.15	956.35
877.5217	1339.8714	1832.45	945.9
877.6658	1341.7426	1858.15	927.6
877.8099	1343.6129	1803.7	916.35
877.954	1345.4826	1779.25	891.25
878.0981	1347.3515	1766.7	874.8
878.2422	1349.2196	1746.5	861.05
878.3862	1351.087	1739.85	851.9
878.5303	1352.9537	1745.05	856.85
878.6743	1354.8197	1748.5	861.7
878.8184	1356.6849	1749.45	864.25
878.9624	1358.5493	1760.2	870.8
879.1064	1360.4131	1798.5	912.65
879.2504	1362.276	1833.9	947.2
879.3944	1364.1383	1876.85	993.25
879.5384	1365.9998	1898.4	1004.95
879.6823	1367.8606	1880.8	991.85
879.8263	1369.7206	1866.45	979.5
879.9702	1371.5799	1865.35	976.55
880.1142	1373.4384	1847.6	959.55
880.2581	1375.2962	1816.75	927.3
880.402	1377.1533	1767.05	881.55
880.5459	1379.0096	1710.55	825
880.6898	1380.8652	1691.75	805.15
880.8337	1382.7201	1650.1	765.3
880.9776	1384.5742	1621.9	735.75
881.1215	1386.4275	1607.65	718.55
881.2653	1388.2802	1587.2	699.65
881.4092	1390.132	1562.8	676.8
881.553	1391.9832	1563.8	674.2
881.6968	1393.8336	1554.7	668.2
881.8406	1395.6832	1542.65	653.55
881.9844	1397.5322	1538.6	649.95
882.1282	1399.3803	1533.3	639.35
882.272	1401.2278	1524.4	636.7
882.4158	1403.0745	1512.9	625.25
882.5595	1404.9204	1503.7	617.6
882.7033	1406.7656	1492.4	604.05
882.847	1408.6101	1494.6	608.2
882.9908	1410.4538	1492.55	603.25
883.1345	1412.2968	1491.35	604
883.2782	1414.139	1490.95	601.9
883.4219	1415.9805	1505.8	620
883.5656	1417.8213	1513.7	619.9
883.7092	1419.6613	1532.5	646.5
883.8529	1421.5006	1565	677.95
883.9965	1423.3391	1602.15	715.65
884.1402	1425.1769	1657.1	769.4
884.2838	1427.0139	1725.4	837.85
884.4274	1428.8502	1830.5	941.5
884.571	1430.6858	1894.5	1006.8
884.7146	1432.5206	1924.3	1037.9
884.8582	1434.3547	1919.95	1031.7
885.0018	1436.188	1889.65	1002.55
885.1453	1438.0206	1870.5	983.8
885.2889	1439.8524	1869.1	981.15
885.4324	1441.6835	1867.8	978.15
885.5759	1443.5139	1863.85	971.6
885.7194	1445.3435	1868.7	981.2
885.8629	1447.1724	1870.2	985.15
886.0064	1449.0005	1867.65	980.85
886.1499	1450.8279	1852.8	965.7
886.2933	1452.6545	1855.05	967
886.4368	1454.4804	1856.05	969.5
886.5802	1456.3056	1851.95	955.95
886.7237	1458.13	1827.1	940.35
886.8671	1459.9536	1797.65	910.25
887.0105	1461.7766	1765.75	878.25
887.1539	1463.5987	1717.8	830.35
887.2972	1465.4202	1675.05	787.5
887.4406	1467.2409	1644.25	758.2
887.584	1469.0608	1602.75	717.3
887.7273	1470.88	1572.75	683
887.8706	1472.6984	1548.9	660.4
888.0139	1474.5161	1519	630
888.1572	1476.3331	1504.45	616.65
888.3005	1478.1493	1497.55	609.3
888.4438	1479.9648	1492.6	604.05
888.5871	1481.7795	1489	601.95
888.7303	1483.5935	1494.65	607.25
888.8736	1485.4067	1496.6	610.25
889.0168	1487.2192	1493.05	604.35
889.16	1489.031	1500.3	608.6
889.3032	1490.842	1491.45	602.35
889.4464	1492.6522	1490	604.5
889.5896	1494.4618	1487.7	601.35
889.7327	1496.2705	1480	594.55
889.8759	1498.0785	1476.95	587.45
890.019	1499.8858	1471.2	582.5
890.1622	1501.6924	1460.8	574.8
890.3053	1503.4981	1452.05	564.9
890.4484	1505.3032	1453.65	566.55
890.5914	1507.1075	1441.85	553.05
890.7345	1508.911	1436.85	548.55
890.8776	1510.7138	1434	544.25
891.0206	1512.5159	1421.55	532.5
891.1637	1514.3172	1418.2	530.45
891.3067	1516.1178	1407	521.45
891.4497	1517.9176	1407.85	516.4
891.5927	1519.7166	1396.6	509.25
891.7357	1521.515	1397.85	506.8
891.8786	1523.3126	1390.6	501.65
892.0216	1525.1094	1382.4	493.4
892.1645	1526.9055	1383.2	497.95
892.3074	1528.7008	1377.75	489.6
892.4503	1530.4954	1376.5	482.8
892.5932	1532.2893	1371.75	486.9
892.7361	1534.0824	1371.2	478.3
892.879	1535.8747	1369.1	482.15
893.0218	1537.6663	1358.95	471.85
893.1647	1539.4572	1366.9	479.3
893.3075	1541.2473	1367.95	482.15
893.4503	1543.0367	1371.05	484
893.5931	1544.8253	1367.25	476.95
893.7359	1546.6132	1378.45	487.05
893.8787	1548.4003	1385.35	489.6
894.0214	1550.1867	1395.65	501.1
894.1642	1551.9723	1400.3	507.25
894.3069	1553.7572	1410.25	520.4
894.4496	1555.5414	1424.85	537.35
894.5923	1557.3247	1464.15	579.3
894.735	1559.1074	1494.35	611.15
894.8777	1560.8893	1531.9	648.05
895.0204	1562.6705	1573.1	687.65
895.163	1564.4509	1598.25	713.7
895.3056	1566.2305	1612.35	726.85
895.4482	1568.0094	1604.45	721.95
895.5908	1569.7876	1601.05	714.85
895.7334	1571.565	1601.75	714.85
895.876	1573.3417	1599.9	714.45
896.0186	1575.1176	1600.25	714.4
896.1611	1576.8928	1625.85	738.75
896.3036	1578.6672	1640.15	759.35
896.4461	1580.4409	1666.45	784.15
896.5886	1582.2138	1708.5	822.85
896.7311	1583.986	1747.65	860.1
896.8736	1585.7575	1784.25	899.85
897.0161	1587.5282	1812.65	931.65
897.1585	1589.2981	1841.1	960
897.3009	1591.0673	1850.85	966.3
897.4433	1592.8358	1869.7	986.6
897.5857	1594.6035	1867.35	978.6
897.7281	1596.3704	1845.25	958.6
897.8705	1598.1366	1835.25	951.2
898.0128	1599.9021	1810.05	926.65
898.1551	1601.6668	1792	905.1
898.2975	1603.4308	1781.25	892.45
898.4398	1605.194	1784.2	894.85
898.5821	1606.9564	1805.3	922.25
898.7243	1608.7182	1870.05	983
898.8666	1610.4791	1947.15	1064.8
899.0088	1612.2394	2037.1	1157.2
899.1511	1613.9988	2157.45	1274.2
899.2933	1615.7576	2224.7	1341.5
899.4355	1617.5156	2260	1369.4
899.5776	1619.2728	2220.5	1335.65
899.7198	1621.0293	2119.35	1234.65
899.862	1622.785	2015.8	1127.35
900.0041	1624.54	1880.15	993.7
900.1462	1626.2942	1774	887.55
900.2883	1628.0477	1666.6	780.35
900.4304	1629.8005	1593.3	704.15
900.5725	1631.5525	1526.4	644.05
900.7145	1633.3037	1472.25	589.35
900.8566	1635.0542	1432.55	549.85
900.9986	1636.804	1393.35	510.7
901.1406	1638.553	1432	487.25
901.2826	1640.3013	1358.15	473.2
901.4245	1642.0488	1338.85	454.4
901.5665	1643.7955	1319.2	437.7
901.7085	1645.5416	1306.75	421
901.8504	1647.2868	1295.8	411.65
901.9923	1649.0313	1292.1	408.6
902.1342	1650.7751	1287.3	399.65
902.2761	1652.5181	1284.85	403.65
902.4179	1654.2604	1284.95	401.55
902.5598	1656.0019	1291.4	408.35
902.7016	1657.7427	1297.75	414.75
902.8434	1659.4828	1322.9	440.2
902.9852	1661.222	1352	466.95
903.127	1662.9606	1389.8	506.5
903.2687	1664.6984	1410.8	524.75
903.4105	1666.4354	1413.5	530.85
903.5522	1668.1717	1397.9	511.45
903.6939	1669.9072	1350.45	467.45
903.8356	1671.642	1312.8	427.6
903.9773	1673.3761	1274.85	390.5
904.119	1675.1094	1248.9	365.25
904.2606	1676.8419	1225.65	339.45
904.4022	1678.5737	1210.95	326.95
904.5439	1680.3048	1200.85	315.3
904.6855	1682.0351	1194.25	311.6
904.827	1683.7646	1193.55	303.85
904.9686	1685.4934	1186.45	303.05
905.1101	1687.2215	1183.45	298.25
905.2517	1688.9488	1173.3	288.65
905.3932	1690.6754	1171.1	287.05
905.5347	1692.4012	1168.95	285.7
905.6761	1694.1263	1164.6	281.25
905.8176	1695.8506	1163.1	278.85
905.9591	1697.5742	1155.6	272.05
906.1005	1699.297	1158.95	274.4
906.2419	1701.0191	1150.6	267.2
906.3833	1702.7404	1149.15	269.5
906.5246	1704.461	1149.1	263.15
906.666	1706.1808	1146	260.8
906.8073	1707.8999	1147.8	264.65
906.9487	1709.6182	1144.5	259.8
907.09	1711.3358	1138.6	257.05
907.2313	1713.0527	1140.55	259
907.3725	1714.7688	1148.45	259.9
907.5138	1716.4841	1140.55	254.75
907.655	1718.1987	1146.55	258.7
907.7962	1719.9126	1133.75	250.7
907.9374	1721.6257	1131.05	247.75
908.0786	1723.338	1133.85	248.7
908.2198	1725.0496	1131.4	248.3
908.3609	1726.7605	1130.05	245.35
908.502	1728.4706	1125.5	241.85
908.6431	1730.18	1128.5	243
908.7842	1731.8886	1128.65	245.35
908.9253	1733.5964	1147	244.05
909.0664	1735.3036	1128.2	243.35
909.2074	1737.0099	1120.65	236.6
909.3484	1738.7156	1124	241.3
909.4894	1740.4204	1125.8	239.8
909.6304	1742.1246	1123	235.1
909.7714	1743.8279	1123.25	238.55
909.9123	1745.5306	1119.7	236.75
910.0532	1747.2325	1121.3	242.3
910.1941	1748.9336	1119.5	238.05
910.335	1750.634	1115.2	229.5
910.4759	1752.3336	1117.7	236.65
910.6168	1754.0325	1117.9	236.5
910.7576	1755.7307	1113.25	231.85
910.8984	1757.4281	1117.65	234.5
911.0392	1759.1247	1124.7	233.15
911.18	1760.8206	1125.85	236.2
911.3208	1762.5158	1113.4	225.9
911.4615	1764.2102	1112.2	231.3
911.6022	1765.9039	1109.55	226.4
911.7429	1767.5968	1109.75	226.9
911.8836	1769.289	1109.9	226.5
912.0243	1770.9804	1110.4	226.3
912.1649	1772.6711	1113.35	230.2
912.3056	1774.361	1110.4	225.95
912.4462	1776.0502	1114.05	231.9
912.5868	1777.7386	1113.7	228.45
912.7274	1779.4263	1110.95	225.9
912.8679	1781.1132	1104.55	222.95
913.0084	1782.7994	1113	228.35
913.149	1784.4849	1112.7	229.4
913.2895	1786.1696	1124.8	222.8
913.4299	1787.8535	1099.35	217.45
913.5704	1789.5367	1101.65	219.2
913.7108	1791.2192	1100.95	220
913.8513	1792.9009	1130.7	224.05
913.9917	1794.5818	1103.6	218.75
914.132	1796.2621	1098.25	215.25
914.2724	1797.9415	1099.45	216
914.4128	1799.6202	1099.65	217.2
914.5531	1801.2982	1105.7	220.7
914.6934	1802.9755	1103.3	215
914.8337	1804.6519	1095.3	212.7
914.9739	1806.3277	1096.15	213.8
915.1142	1808.0027	1095.55	213.7
915.2544	1809.6769	1090.05	207.65
915.3946	1811.3504	1096.45	214.55
915.5348	1813.0231	1090.55	206.45
915.675	1814.6951	1093.6	210.4
915.8151	1816.3664	1095.2	210.75
915.9553	1818.0369	1092.25	207.7
916.0954	1819.7067	1089.35	205.25
916.2355	1821.3757	1091.65	204.7
916.3755	1823.044	1090	207.35
916.5156	1824.7115	1094.15	212.1
916.6556	1826.3783	1092.65	210.35
916.7956	1828.0443	1087.5	208.55
916.9356	1829.7096	1090.1	202.15
917.0756	1831.3741	1092.35	204.7
917.2155	1833.0379	1089.6	207.7
917.3555	1834.701	1085.15	200.65
917.4954	1836.3633	1083.6	199.85
917.6353	1838.0248	1087.1	204.65
917.7751	1839.6856	1082.1	199.7
917.915	1841.3457	1083.25	201.9
918.0548	1843.005	1084.85	202.95
918.1946	1844.6636	1085.15	202
918.3344	1846.3214	1086.05	202.45
918.4742	1847.9785	1082.5	200.2
918.6139	1849.6349	1084.6	201.7
918.7537	1851.2904	1094.75	202.2
918.8934	1852.9453	1078.65	195.5
919.0331	1854.5994	1087.7	203.3
919.1727	1856.2528	1088.45	197.7
919.3124	1857.9054	1078.9	193.3
919.452	1859.5572	1083	200.1
919.5916	1861.2083	1081	196.95
919.7312	1862.8587	1080.45	198.15
919.8708	1864.5084	1080.15	197
920.0103	1866.1572	1081.55	198.5
920.1498	1867.8054	1079.25	196.05
920.2893	1869.4528	1072.8	188.1
920.4288	1871.0994	1075.15	191.55
920.5683	1872.7453	1076.75	191.95
920.7077	1874.3905	1084.4	194.45
920.8471	1876.0349	1073.95	185.8
920.9865	1877.6786	1075.85	190.05
921.1259	1879.3215	1072.65	190.05
921.2653	1880.9637	1077.5	194.8
921.4046	1882.6051	1074.75	192.85
921.5439	1884.2458	1074	189.5
921.6832	1885.8858	1074.35	191.35
921.8225	1887.525	1076.6	193.4
921.9617	1889.1634	1076.45	193.75
922.101	1890.8011	1072.3	187.55
922.2402	1892.4381	1067	182.05
922.3794	1894.0743	1066.35	183.55
922.5185	1895.7098	1064.25	179.9
922.6577	1897.3446	1072.7	191.3
922.7968	1898.9786	1075.2	187.95
922.9359	1900.6118	1066.45	185.25
923.075	1902.2443	1070.4	184.65
923.214	1903.8761	1063.8	180.3
923.3531	1905.5071	1066.05	178.65
923.4921	1907.1374	1065.15	181.6
923.6311	1908.7669	1059.45	175.45
923.77	1910.3957	1064.25	181.25
923.909	1912.0237	1061.9	176.25
924.0479	1913.651	1063.9	180.2
924.1868	1915.2776	1059.6	178.3
924.3257	1916.9034	1059.85	177.25
924.4646	1918.5285	1060.8	178.8
924.6034	1920.1528	1063.95	181.45
924.7422	1921.7764	1056.15	174.4
924.881	1923.3992	1059.95	178.15
925.0198	1925.0213	1058.5	174.35
925.1586	1926.6427	1056.9	172.75
925.2973	1928.2633	1266.3	167.9
925.436	1929.8832	1059.25	170.6
925.5747	1931.5023	1054.05	169.5
925.7134	1933.1207	1049.2	165.95
925.852	1934.7383	1061.6	179.5
925.9906	1936.3552	1050.95	168.65
926.1292	1937.9714	1052.15	168
926.2678	1939.5868	1055.45	169.55
926.4064	1941.2015	1052.85	168.9
926.5449	1942.8154	1051.5	167.95
926.6834	1944.4286	1050.4	164.95
926.8219	1946.041	1075.15	168.6
926.9604	1947.6528	1057.2	168.9
927.0988	1949.2637	1044	160.95
927.2372	1950.8739	1048.9	164.7
927.3756	1952.4834	1051.55	168
927.514	1954.0921	1050.5	164.25
927.6523	1955.7001	1049.05	160.4
927.7907	1957.3074	1043.6	159.85
927.929	1958.9139	1046.35	164.3
928.0673	1960.5197	1051.45	167.8
928.2055	1962.1247	1047.25	165.35
928.3438	1963.729	1043.4	162.8
928.482	1965.3325	1047.95	158.6
928.6202	1966.9353	1044.45	164.95
928.7584	1968.5374	1042.3	160.65
928.8965	1970.1387	1047.8	165.5
929.0346	1971.7393	1045.6	163.15
929.1727	1973.3392	1042.25	160.45
929.3108	1974.9383	1035.65	154.6
929.4489	1976.5366	1036.95	156.05
929.5869	1978.1342	1039.7	158
929.7249	1979.7311	1041.7	160.55
929.8629	1981.3273	1035.2	154.3
930.0009	1982.9227	1038.2	156.8
930.1388	1984.5173	1035.8	156.65
930.2767	1986.1112	1038.55	157.65
930.4146	1987.7044	1037.95	158.3
930.5525	1989.2968	1039.25	157.5
930.6904	1990.8885	1044.65	161.3
930.8282	1992.4795	1038.35	155.65
930.966	1994.0697	1036.4	155.45
931.1038	1995.6592	1032.55	151.45
931.2415	1997.2479	1033.8	151.5
931.3793	1998.8359	1034.45	154.2
931.517	2000.4232	1030.65	151.9
931.6547	2002.0097	1033.05	152.8
931.7923	2003.5955	1032.05	150.4
931.93	2005.1805	1032.7	152.35
932.0676	2006.7648	1035.6	154.9
932.2052	2008.3484	1033.15	152.8
932.3427	2009.9312	1037.25	155.15
932.4803	2011.5133	1031.25	151.45
932.6178	2013.0946	1031.25	151.75
932.7553	2014.6752	1028.25	149.2
932.8928	2016.2551	1029.85	150.45
933.0302	2017.8342	1027.85	147.35
933.1676	2019.4126	1028.45	150.35
933.305	2020.9902	1029.15	148.6
933.4424	2022.5672	1034.55	151.95
933.5798	2024.1433	1032.9	148.85
933.7171	2025.7188	1029.45	152
933.8544	2027.2935	1029.25	148.75
933.9917	2028.8674	1024.95	145.55
934.129	2030.4406	1025	148.3
934.2662	2032.0131	1026.7	148.65
934.4034	2033.5849	1026.7	143.6
934.5406	2035.1559	1026.25	149.15
934.6778	2036.7261	1027.9	148.85
934.8149	2038.2957	1030.05	147.9
934.952	2039.8645	1028.7	148.65
935.0891	2041.4325	1028	145.2
935.2262	2042.9998	1023.65	144.45
935.3632	2044.5664	1030.6	150.15
935.5002	2046.1323	1024.2	145.5
935.6372	2047.6974	1026.2	148.2
935.7742	2049.2617	1023.3	144.85
935.9111	2050.8254	1028.65	144.2
936.048	2052.3883	1030.65	149.2
936.1849	2053.9504	1026.3	146.35
936.3218	2055.5118	1028.45	148.1
936.4586	2057.0725	1029.6	146.15
936.5955	2058.6325	1025.65	145.6
936.7323	2060.1917	1026.95	148.35
936.869	2061.7502	1024.25	142
937.0058	2063.3079	1025.1	145.5
937.1425	2064.8649	1027.8	145.25
937.2792	2066.4212	1028.05	150.05
937.4159	2067.9767	1020.35	140.9
937.5525	2069.5315	1021.3	143.3
937.6891	2071.0856	1020.8	140.75
937.8257	2072.6389	1025.65	145.1
937.9623	2074.1915	1022.4	143.6
938.0989	2075.7433	1023.45	143.45
938.2354	2077.2945	1021.6	143.65
938.3719	2078.8448	1023.6	143
938.5084	2080.3945	1022	143.1
938.6448	2081.9434	1020.1	140
938.7812	2083.4916	1019.2	141
938.9176	2085.039	1017.3	134.95
939.054	2086.5857	1024.55	141.3
939.1903	2088.1317	1022.05	139.6
939.3267	2089.677	1018.45	133.95
939.463	2091.2215	1019.9	138.25
939.5992	2092.7652	1019.4	136.95
939.7355	2094.3083	1018.65	137.5
939.8717	2095.8506	1023.7	145.2
940.0079	2097.3921	1018	137.4
940.1441	2098.933	1016.15	137
940.2802	2100.4731	1019.7	139.15
940.4163	2102.0124	1040.7	142.35
940.5524	2103.5511	1020.55	139.1
940.6885	2105.089	1021.9	140
940.8245	2106.6261	1021.05	143.35
940.9606	2108.1626	1020.85	138.2
941.0965	2109.6983	1051.1	139.85
941.2325	2111.2332	1022.7	142.6
941.3684	2112.7675	1025.1	143.9
941.5044	2114.301	1016.7	135.1
941.6403	2115.8337	1022.4	141.85
941.7761	2117.3657	1016.5	135.75
941.912	2118.897	1015.95	134.25
942.0478	2120.4276	1024.5	136.45
942.1835	2121.9575	1019.4	139.3
942.3193	2123.4866	1031.6	137.7
942.455	2125.0149	1020.6	135.9
942.5907	2126.5426	1015.45	137.15
942.7264	2128.0695	1019.25	136.1
942.8621	2129.5956	1012.95	133.85
942.9977	2131.1211	1018	134.45
943.1333	2132.6458	1013.75	135.3
943.2689	2134.1698	1015.3	135.15
943.4044	2135.693	1018.65	134.75
943.54	2137.2155	1016	130.85
943.6755	2138.7373	1019.6	138.85
943.8109	2140.2584	1013.35	132.95
943.9464	2141.7787	1022.35	138.35
944.0818	2143.2983	1009.95	130.8
944.2172	2144.8171	1015.5	136.45
944.3526	2146.3353	1012.35	132.2
944.4879	2147.8527	1014	134.1
944.6232	2149.3693	1010.4	131.65
944.7585	2150.8853	1014.95	134.35
944.8938	2152.4005	1015.3	136.75
945.029	2153.9149	1016.7	135.35
945.1642	2155.4287	1014.7	133.65
945.2994	2156.9417	1013.1	130.7
945.4346	2158.454	1013	131.75
945.5697	2159.9655	1012.35	132.1
945.7048	2161.4764	1016.2	135.7
945.8399	2162.9865	1012.45	132.05
945.9749	2164.4958	1014.55	134.95
946.1099	2166.0045	1011.15	130.55
946.2449	2167.5124	1011.9	133.15
946.3799	2169.0195	1007.9	128.3
946.5148	2170.526	1012.85	131.25
946.6498	2172.0317	1012.85	133.45
946.7846	2173.5367	1010.1	129
946.9195	2175.0409	1007.4	127.25
947.0543	2176.5445	1011.75	133.85
947.1891	2178.0473	1008.75	128.75
947.3239	2179.5494	1015.5	133.85
947.4587	2181.0507	1009.6	130.65
947.5934	2182.5513	1006.15	123.9
947.7281	2184.0512	1010.4	128.45
947.8628	2185.5504	1007.6	127.5
947.9974	2187.0488	1005.3	124.6
948.132	2188.5465	1007.85	129.6
948.2666	2190.0435	1010.65	128.95
948.4012	2191.5397	1007.95	128.75
948.5357	2193.0353	1007.7	128.3
948.6702	2194.5301	1007.5	125.65
948.8047	2196.0241	1004.6	122.8
948.9392	2197.5175	1008.6	126.25
949.0736	2199.0101	1011.15	127.6
949.208	2200.502	1006.5	126.35
949.3424	2201.9931	1007.55	126.45
949.4767	2203.4835	1006.2	126.7
949.611	2204.9733	1021.55	123.15
949.7453	2206.4622	1005.9	128
949.8796	2207.9505	1003.25	122
950.0138	2209.438	999.65	120.6
950.148	2210.9248	1005.05	125.65
950.2822	2212.4109	1003	122.65
950.4164	2213.8962	1006.2	121.55
950.5505	2215.3809	1004.6	123.9
950.6846	2216.8648	1009.2	125.35
950.8186	2218.3479	1006.85	121.45
950.9527	2219.8304	1006.85	123.5
951.0867	2221.3121	1006.75	123.7
951.2207	2222.7931	1000.85	119.95
951.3546	2224.2733	1001.25	119.8
951.4886	2225.7529	1001.3	121
951.6225	2227.2317	1000.25	115.6
951.7563	2228.7098	998.25	119.55
951.8902	2230.1872	997.2	117.4
952.024	2231.6638	1000.25	121.65
952.1578	2233.1397	1004	120.55
952.2916	2234.6149	1000.45	122.55
952.4253	2236.0894	997.8	115.75
952.559	2237.5632	1008.25	116.85
952.6927	2239.0362	997.5	117.45
952.8263	2240.5085	999.7	119.75
952.9599	2241.9801	997.15	116.05
953.0935	2243.4509	996.3	116.5
953.2271	2244.921	996	114.9
953.3606	2246.3904	997.8	113.9
953.4941	2247.8591	994.9	114.75
953.6276	2249.3271	991.95	112.5
953.7611	2250.7943	999.1	117.6
953.8945	2252.2608	995.25	115.9
954.0279	2253.7266	992.05	111.15
954.1612	2255.1917	992.3	113.55
954.2946	2256.656	993.95	112.3
954.4279	2258.1197	992.15	113.55
954.5612	2259.5826	996.55	116.15
954.6944	2261.0447	994.65	116.25
954.8276	2262.5062	994.4	111.9
954.9608	2263.9669	993.15	109.25
955.094	2265.4269	995.6	115.05
955.2271	2266.8862	990.75	110.9
955.3602	2268.3448	990.45	108.9
955.4933	2269.8026	990.65	110.95
955.6264	2271.2598	992.55	113.85
955.7594	2272.7162	992.9	113.2
955.8924	2274.1719	991.35	110.8
956.0253	2275.6268	991.35	109.35
956.1583	2277.0811	992.15	109.2
956.2912	2278.5346	989.9	109.1
956.4241	2279.9874	986.65	106.95
956.5569	2281.4395	988.05	108.5
956.6897	2282.8908	995.05	109.45
956.8225	2284.3414	987.85	107.6
956.9553	2285.7914	990.7	111.2
957.088	2287.2406	991.4	108.5
957.2207	2288.689	990.95	111.3
957.3534	2290.1368	989.65	106.85
957.486	2291.5838	989.45	106.4
957.6186	2293.0302	988.75	106.05
957.7512	2294.4758	989.75	107
957.8838	2295.9206	986.2	103.4
958.0163	2297.3648	987.5	108.6
958.1488	2298.8082	989	107.45
958.2813	2300.251	983.85	106.5
958.4137	2301.693	992.1	107.85
958.5461	2303.1343	988.95	107.85
958.6785	2304.5748	986.5	104.85
958.8108	2306.0147	984.9	103.55
958.9432	2307.4538	986.85	105.6
959.0754	2308.8922	983.8	103.8
959.2077	2310.3299	983.9	106.35
959.3399	2311.7669	982.3	106
959.4721	2313.2031	982	103.45
959.6043	2314.6387	987.75	108
959.7365	2316.0735	987.15	107.45
959.8686	2317.5076	985.55	106
960.0006	2318.941	985.35	104.5
960.1327	2320.3737	985.6	103.7
960.2647	2321.8056	991.1	108.25
960.3967	2323.2369	985.25	103.1
960.5287	2324.6674	988.95	105.25
960.6606	2326.0972	989.2	108.2
960.7925	2327.5263	993.85	114.4
960.9244	2328.9547	992.3	111.35
961.0562	2330.3823	993.45	113.4
961.1881	2331.8092	991.35	107.6
961.3198	2333.2355	985.8	104.7
961.4516	2334.661	981.8	99.9
961.5833	2336.0858	985.2	101.95
961.715	2337.5098	980.2	100.9
961.8467	2338.9332	982.5	100.25
961.9783	2340.3558	983.65	99.25
962.1099	2341.7778	980.1	99.35
962.2415	2343.199	980.65	100.15
962.373	2344.6195	977.1	96.75
962.5045	2346.0393	978.05	97.4
962.636	2347.4583	979.9	99.05
962.7675	2348.8767	983.4	101.4
962.8989	2350.2943	979.85	98.3
963.0303	2351.7113	980.7	97.45
963.1617	2353.1275	977.7	95.95
963.293	2354.543	1004.6	99.2
963.4243	2355.9578	981.75	99.8
963.5556	2357.3718	977	97.9
963.6868	2358.7852	980.7	97.45
963.818	2360.1978	976.45	94.35
963.9492	2361.6098	978.6	97.7
964.0803	2363.021	981	95.6
964.2114	2364.4315	977.5	98
964.3425	2365.8413	982.95	96.3
964.4736	2367.2504	975.4	94.85
964.6046	2368.6587	974.1	93.4
964.7356	2370.0664	976.05	94.05
964.8666	2371.4733	981.6	102.4
964.9975	2372.8795	974.65	93.05
965.1284	2374.285	974.6	93.55
965.2593	2375.6899	973.65	94.1
965.3901	2377.0939	975.75	95.65
965.5209	2378.4973	972.7	89.6
965.6517	2379.9	974.15	91.65
965.7825	2381.3019	972.5	92.35
965.9132	2382.7032	973.55	94.45
966.0439	2384.1037	971.65	88.8
966.1745	2385.5035	972	91
966.3051	2386.9027	975.25	94.9
966.4357	2388.3011	971.35	87.95
966.5663	2389.6987	972.8	90.4
966.6968	2391.0957	970.2	88.9
966.8273	2392.492	971.55	91.6
966.9578	2393.8876	972.45	89.9
967.0882	2395.2824	971.15	91.15
967.2186	2396.6765	969.05	89.65
967.349	2398.07	970.3	88.65
967.4793	2399.4627	972.85	90.2
967.6097	2400.8547	970.75	88.75
967.7399	2402.246	972.85	84.3
967.8702	2403.6366	970.35	90
968.0004	2405.0265	968.8	89.1
968.1306	2406.4156	974.65	87.2
968.2607	2407.8041	975.45	91.65
968.3909	2409.1918	972	88.35
968.521	2410.5789	970.05	87.5
968.651	2411.9652	973.5	87.3
968.781	2413.3508	971.25	88.7
968.911	2414.7358	966.1	83.2
969.041	2416.12	970.3	86.35
969.1709	2417.5035	969.1	88.55
969.3008	2418.8863	968.15	85.2
969.4307	2420.2684	965.85	84.1
969.5606	2421.6497	966.8	85.6
969.6904	2423.0304	966.15	84.45
969.8201	2424.4104	968.35	86.65
969.9499	2425.7896	971.55	82.6
970.0796	2427.1682	966.45	85.2
970.2093	2428.546	962.9	81.75
970.3389	2429.9232	967	83.45
970.4685	2431.2996	963.9	82.7
970.5981	2432.6753	966.35	84.1
970.7277	2434.0503	962.85	80.05
970.8572	2435.4246	963.65	81.8
970.9867	2436.7982	965.7	80.55
971.1161	2438.1711	964.45	82.6
971.2456	2439.5433	964.45	81.3
971.375	2440.9148	968	83.25
971.5043	2442.2856	962.45	82.1
971.6336	2443.6557	966.65	83.5
971.7629	2445.025	962.95	79.9
971.8922	2446.3937	963.75	80.9
972.0214	2447.7617	963.6	80.15
972.1506	2449.1289	962.4	80.75
972.2798	2450.4955	967	79.6
972.4089	2451.8613	960.85	78.85
972.538	2453.2265	961.35	80.25
972.6671	2454.5909	958.9	74.9
972.7961	2455.9546	958.4	76.4
972.9251	2457.3177	959.3	75.75
973.0541	2458.68	960.95	76.85
973.1831	2460.0416	957.7	75.9
973.312	2461.4025	961.95	79.75
973.4408	2462.7627	973.45	83.35
973.5697	2464.1222	959.85	81.1
973.6985	2465.4811	962.05	80.1
973.8273	2466.8392	961.2	79.8
973.956	2468.1966	958.05	73.15
974.0847	2469.5533	960.55	77.9
974.2134	2470.9093	957.75	76
974.3421	2472.2645	961.65	79
974.4707	2473.6191	958.85	78.7
974.5993	2474.973	959.65	77.15
974.7278	2476.3262	958.35	75.05
974.8563	2477.6787	959.9	79.55
974.9848	2479.0305	957.8	76.9
975.1132	2480.3816	959.55	77.75
975.2417	2481.7319	956	73.15
975.37	2483.0816	963.1	79.5
975.4984	2484.4306	958.8	74.8
975.6267	2485.7789	957	77.3
975.755	2487.1264	958.35	77.8
975.8833	2488.4733	957.1	76.25
976.0115	2489.8195	965	76.5
976.1397	2491.165	957.25	72.55
976.2678	2492.5097	957.45	72.5
976.3959	2493.8538	955.65	74.8
976.524	2495.1972	957.35	74.3
976.6521	2496.5398	957.55	74.15
976.7801	2497.8818	958.65	76.45
976.9081	2499.2231	955.7	74.05
977.036	2500.5637	960.1	76.95
977.164	2501.9035	956	73.7
977.2918	2503.2427	958.5	72.05
977.4197	2504.5812	953.55	71.35
977.5475	2505.919	957.65	73.8
977.6753	2507.256	956.8	75.25
977.8031	2508.5924	955.2	74.1
977.9308	2509.9281	961.9	76.25
978.0585	2511.2631	953.15	69.1
978.1861	2512.5974	953.6	71.85
978.3137	2513.9309	952.9	72
978.4413	2515.2638	979.15	70.35
978.5689	2516.596	952.35	71.25
978.6964	2517.9275	952.05	70
978.8239	2519.2583	951.3	67.5
978.9513	2520.5884	951.35	67.85
979.0788	2521.9178	953.1	71.25
979.2062	2523.2465	950.85	67.9
979.3335	2524.5745	952.4	71.15
979.4608	2525.9018	950.25	68.85
979.5881	2527.2284	948.4	68.65
979.7154	2528.5543	948.6	68.75
979.8426	2529.8796	949.95	67.6
979.9698	2531.2041	950.65	70.25
980.0969	2532.5279	950.85	68.8
980.224	2533.851	949.9	68.35
980.3511	2535.1735	950.45	70.3
980.4781	2536.4952	951.75	70.65
980.6052	2537.8163	952.8	71.1
980.7321	2539.1366	950.15	68.55
980.8591	2540.4562	950.95	69.75
980.986	2541.7752	947.9	66.9
981.1129	2543.0935	948.8	63.3
981.2397	2544.411	948.95	67.75
981.3665	2545.7279	947.35	67.2
981.4933	2547.0441	948.5	67.95
981.62	2548.3596	953.6	71.4
981.7467	2549.6744	950.45	69
981.8734	2550.9885	954.85	65.25
982.0001	2552.3019	945.4	66
982.1267	2553.6146	953	72.45
982.2532	2554.9266	949.6	66.8
982.3798	2556.2379	948.5	66.95
982.5063	2557.5485	946.55	67.35
982.6327	2558.8585	956.05	68.45
982.7592	2560.1677	954.15	69
982.8856	2561.4762	946.75	64.6
983.0119	2562.7841	949.55	64.25
983.1383	2564.0913	943.1	62.65
983.2646	2565.3977	945.55	63.65
983.3908	2566.7035	943.95	62.75
983.517	2568.0086	946.4	64.35
983.6432	2569.313	948.55	66.65
983.7694	2570.6167	951.2	65.45
983.8955	2571.9197	946.45	66.2
984.0216	2573.222	948.25	62.95
984.1476	2574.5236	943.3	59.4
984.2737	2575.8246	948.1	65
984.3996	2577.1248	950.05	68.65
984.5256	2578.4244	943.45	62.7
984.6515	2579.7232	944.05	62.25
984.7774	2581.0214	979.2	66.7
984.9032	2582.3189	943.9	65.5
985.029	2583.6157	950.7	64.9
985.1548	2584.9118	942.5	61.65
985.2806	2586.2072	948.65	67.1
985.4063	2587.5019	945.5	65.2
985.5319	2588.7959	946.65	65.35
985.6576	2590.0893	948.55	65.7
985.7832	2591.3819	943.65	64.25
985.9087	2592.6739	942.95	62.4
986.0343	2593.9652	944.7	61.5
986.1597	2595.2557	944.8	62.95
986.2852	2596.5456	949.1	64.65
986.4106	2597.8348	945.5	65.4
986.536	2599.1234	947	67.85
986.6614	2600.4112	945.1	63.55
986.7867	2601.6983	948.85	63.95
986.912	2602.9848	948	65.65
987.0372	2604.2705	953.6	66.8
987.1624	2605.5556	944.6	62.8
987.2876	2606.84	945.8	65.6
987.4128	2608.1237	943.6	61.5
987.5379	2609.4067	942.55	60.8
987.6629	2610.689	952.55	61.8
987.788	2611.9707	948	63.15
987.913	2613.2516	948.45	65
988.0379	2614.5319	941.6	61
988.1629	2615.8115	943.25	59.8
988.2878	2617.0903	943.35	61.55
988.4126	2618.3685	941.25	59.65
988.5375	2619.6461	941.9	60.65
988.6622	2620.9229	941.4	60.55
988.787	2622.199	943.15	58.5
988.9117	2623.4745	940.2	58.75
989.0364	2624.7493	939.25	59.15
989.161	2626.0234	938.7	60.5
989.2857	2627.2968	941.05	62.7
989.4102	2628.5695	941.15	58.35
989.5348	2629.8415	941.85	61.35
989.6593	2631.1128	941.6	57.65
989.7837	2632.3835	940.8	59.85
989.9082	2633.6535	940.25	59.15
990.0326	2634.9228	938.4	57.25
990.1569	2636.1914	940.5	59.9
990.2812	2637.4593	940.8	58.65
990.4055	2638.7265	939.65	58
990.5298	2639.9931	938.6	58.3
990.654	2641.259	939.85	57.45
990.7782	2642.5242	937.9	56.35
990.9023	2643.7887	936.2	56.8
991.0264	2645.0525	939.05	58.3
991.1505	2646.3156	941.6	60.3
991.2745	2647.5781	936.15	57.55
991.3985	2648.8398	938.55	59.5
991.5225	2650.1009	948.2	57.95
991.6464	2651.3613	936.75	54.7
991.7703	2652.6211	938.85	58.75
991.8942	2653.8801	935.7	55.75
992.018	2655.1385	941.55	58.3
992.1418	2656.3961	934.35	53.3
992.2655	2657.6531	935.2	55.75
992.3892	2658.9094	935.15	53.5
992.5129	2660.1651	934.1	55.15
992.6366	2661.42	936.55	55.8
992.7602	2662.6743	939.85	57.25
992.8837	2663.9279	936.65	55.8
993.0073	2665.1808	936.35	54.75
993.1307	2666.433	939.4	57.4
993.2542	2667.6846	934.85	53.4
993.3776	2668.9354	938.45	52.35
993.501	2670.1856	940.2	59.3
993.6244	2671.4351	935.1	54.4
993.7477	2672.6839	937.3	55.1
993.8709	2673.9321	938.35	58.5
993.9942	2675.1795	937.7	57.3
994.1174	2676.4263	936.45	58.25
994.2405	2677.6724	936.3	55.25
994.3637	2678.9179	935.6	54.25
994.4868	2680.1626	935.5	57.1
994.6098	2681.4067	936.8	54.95
994.7328	2682.6501	936.2	57.05
994.8558	2683.8928	938.8	56.3
994.9788	2685.1348	935.1	53.65
995.1017	2686.3761	931.9	51.9
995.2245	2687.6168	930.3	49.95
995.3474	2688.8568	933.1	54.1
995.4702	2690.0961	932.75	53.3
995.5929	2691.3348	934	52.8
995.7156	2692.5727	932.5	51.55
995.8383	2693.81	930.45	49
995.961	2695.0466	930.75	51.4
996.0836	2696.2826	934.2	50.85
996.2062	2697.5178	937.1	53.05
996.3287	2698.7524	932.15	52.7
996.4512	2699.9863	938	55.85
996.5737	2701.2195	932.4	54.95
996.6961	2702.452	934.8	52.05
996.8185	2703.6839	935.25	54.55
996.9408	2704.9151	932.15	52.95
997.0631	2706.1456	934.5	52.65
997.1854	2707.3755	936	55.1
997.3077	2708.6046	935.05	51.25
997.4299	2709.8331	938.65	56.2
997.552	2711.0609	935.2	56.15
997.6742	2712.2881	938.85	59.4
997.7963	2713.5145	939	57.15
997.9183	2714.7403	938.9	59.5
998.0403	2715.9654	935.3	54.85
998.1623	2717.1899	950.3	56.7
998.2842	2718.4136	935.85	56.05
998.4062	2719.6367	940.35	58.65
998.528	2720.8591	948.2	61.6
998.6498	2722.0809	943.35	61.25
998.7716	2723.3019	947.75	64.2
998.8934	2724.5223	947.45	66.35
999.0151	2725.7421	944.05	60.3
999.1368	2726.9611	944.55	61.4
999.2584	2728.1795	947.15	62.15
999.38	2729.3972	942.2	61.8
999.5016	2730.6142	941.1	56.3
999.6231	2731.8306	939.1	58.7
999.7446	2733.0462	940	56.85
999.8661	2734.2612	943.85	58.55
999.9875	2735.4756	935.85	54.45
1000.1089	2736.6892	936.6	56.3
1000.2302	2737.9022	932.45	54.3
1000.3515	2739.1145	930.45	49.55
1000.4728	2740.3262	938.5	50.4
1000.594	2741.5372	932.3	53.15
1000.7152	2742.7475	930.7	50.2
1000.8363	2743.9571	930.75	49.55
1000.9575	2745.1661	935.15	51.55
1001.0785	2746.3744	928.25	49.2
1001.1996	2747.582	931.5	50.95
1001.3206	2748.7889	929.1	46.4
1001.4415	2749.9952	927.45	48.8
1001.5625	2751.2008	930.15	49.95
1001.6833	2752.4057	928	45.35
1001.8042	2753.61	924.1	43.9
1001.925	2754.8136	927.25	43.15
1002.0458	2756.0165	923.85	44.55
1002.1665	2757.2188	924.05	46.55
1002.2872	2758.4204	926.3	46.25
1002.4078	2759.6213	927.7	46.7
1002.5285	2760.8215	927.7	44.1
1002.649	2762.0211	926.7	45.7
1002.7696	2763.22	927.5	43.9
1002.8901	2764.4182	926.75	45.65
1003.0106	2765.6158	924.55	44.15
1003.131	2766.8127	924.5	44.5
1003.2514	2768.009	922	40.95
1003.3717	2769.2045	924.95	44.6
1003.492	2770.3994	922.75	40.5
1003.6123	2771.5936	921.95	39.65
1003.7325	2772.7872	919.5	38.55
1003.8527	2773.9801	923.65	42.95
1003.9729	2775.1723	940.55	44.75
1004.093	2776.3639	921.1	43.35
1004.2131	2777.5548	925.05	42.1
1004.3331	2778.745	922.5	41.15
1004.4531	2779.9346	922.3	42.95
1004.5731	2781.1235	921.3	38.55
1004.693	2782.3117	918.6	39.2
1004.8129	2783.4992	921.25	42.65
1004.9328	2784.6861	924.1	44.25
1005.0526	2785.8723	922.5	41.6
1005.1723	2787.0579	922.6	43.1
1005.2921	2788.2428	923.05	42.75
1005.4118	2789.427	919.65	40.6
1005.5314	2790.6106	921.7	41.35
1005.651	2791.7935	921.5	42.4
1005.7706	2792.9757	921.3	41.45
1005.8902	2794.1573	924.15	42.9
1006.0097	2795.3382	925.2	46.35
1006.1291	2796.5184	923.05	46.15
1006.2485	2797.698	922.5	40.4
1006.3679	2798.8769	923.55	44.1
1006.4873	2800.0551	924.65	46.7
1006.6066	2801.2327	926.85	45.65
1006.7258	2802.4096	922.1	41.45
1006.8451	2803.5859	926.65	45
1006.9642	2804.7615	923.6	43.95
1007.0834	2805.9364	925.5	46.4
1007.2025	2807.1106	924.8	46.75
1007.3216	2808.2842	927	46.6
1007.4406	2809.4572	926.35	46.7
1007.5596	2810.6294	929.75	46.9
1007.6785	2811.801	930.45	51.6
1007.7975	2812.972	930.9	52.9
1007.9163	2814.1423	934.95	55.6
1008.0352	2815.3119	937.05	57.2
1008.154	2816.4808	938.8	61.05
1008.2727	2817.6491	938.7	56.85
1008.3914	2818.8167	941.4	63.4
1008.5101	2819.9837	952.25	65.85
1008.6288	2821.15	954.5	76.05
1008.7474	2822.3157	960.15	81.55
1008.8659	2823.4807	966.6	86.1
1008.9844	2824.645	976.7	94.8
1009.1029	2825.8086	981.6	101.15
1009.2214	2826.9716	991.35	112.45
1009.3398	2828.134	998.1	119
1009.4581	2829.2957	1007.45	127.35
1009.5764	2830.4567	1007	128.75
1009.6947	2831.617	1011.15	131.5
1009.813	2832.7767	1018.85	139.45
1009.9312	2833.9358	1017.35	139.75
1010.0493	2835.0941	1020	138.75
1010.1675	2836.2519	1010.25	130.9
1010.2855	2837.4089	1006.5	125.85
1010.4036	2838.5653	1005.1	126.4
1010.5216	2839.7211	1003.25	123.95
1010.6396	2840.8761	999.6	118.55
1010.7575	2842.0306	997.95	119.4
1010.8754	2843.1843	997.1	116.75
1010.9932	2844.3374	994.8	116.7
1011.111	2845.4899	1002.85	122.4
1011.2288	2846.6417	1004.25	125.15
1011.3465	2847.7928	1002.95	125.45
1011.4642	2848.9433	1005.2	126.05
1011.5818	2850.0931	1005.7	126.2
1011.6995	2851.2422	1007.75	126.95
1011.817	2852.3907	1005.8	126.75
1011.9345	2853.5385	1013	132.6
1012.052	2854.6857	1038.9	133.4
1012.1695	2855.8323	1014.05	135.25
1012.2869	2856.9781	1011.8	132.1
1012.4042	2858.1233	1018.25	139.8
1012.5216	2859.2679	1024.75	146.75
1012.6389	2860.4118	1025.15	146.4
1012.7561	2861.555	1034.8	150.7
1012.8733	2862.6976	1032.45	151.4
1012.9905	2863.8395	1033.25	154.3
1013.1076	2864.9808	1038.1	159.65
1013.2247	2866.1214	1037.35	156.9
1013.3417	2867.2614	1039.2	160.4
1013.4587	2868.4007	1039.05	158.8
1013.5757	2869.5393	1041.1	159.95
1013.6926	2870.6773	1044.7	162.9
1013.8095	2871.8146	1048.45	167.3
1013.9263	2872.9513	1048.35	166.6
1014.0431	2874.0874	1051.2	171.05
1014.1599	2875.2227	1049.55	167.05
1014.2766	2876.3574	1052.1	173.5
1014.3933	2877.4915	1058.9	178.2
1014.51	2878.6249	1060.8	182.85
1014.6266	2879.7577	1059.65	177.2
1014.7431	2880.8898	1073.55	186.25
1014.8596	2882.0212	1064.85	186.1
1014.9761	2883.152	1064.55	186.4
1015.0925	2884.2821	1062.65	185.1
1015.2089	2885.4116	1069.7	192.2
1015.3253	2886.5405	1072.1	191.8
1015.4416	2887.6686	1075.35	192.95
1015.5579	2888.7962	1072.95	195.3
1015.6741	2889.923	1074.65	195.3
1015.7903	2891.0493	1069.35	189.95
1015.9065	2892.1748	1068.45	189.85
1016.0226	2893.2997	1071.8	191.05
1016.1387	2894.424	1069.45	191.3
1016.2547	2895.5476	1073.3	196.3
1016.3707	2896.6706	1069.5	190.15
1016.4866	2897.7929	1073.35	193.7
1016.6025	2898.9145	1075.4	195.7
1016.7184	2900.0355	1073.4	194.1
1016.8342	2901.1559	1067.4	188.95
1016.95	2902.2756	1078.8	197.6
1017.0658	2903.3946	1069.5	189.5
1017.1815	2904.513	1070.65	187.4
1017.2971	2905.6308	1070.25	192.15
1017.4127	2906.7479	1071.05	191.95
1017.5283	2907.8643	1071.65	191.5
1017.6439	2908.9801	1071.1	191.1
1017.7594	2910.0953	1072.8	195
1017.8748	2911.2098	1073.35	191.2
1017.9902	2912.3236	1075.65	190.65
1018.1056	2913.4368	1070.35	188.15
1018.2209	2914.5494	1071.95	191.95
1018.3362	2915.6613	1074.1	188.95
1018.4515	2916.7725	1068.05	184.35
1018.5667	2917.8831	1061.1	179.55
1018.6819	2918.9931	1057.25	174.8
1018.797	2920.1024	1054.45	174.35
1018.9121	2921.211	1052.25	173.75
1019.0271	2922.319	1048.7	169.3
1019.1421	2923.4264	1048.3	169
1019.2571	2924.5331	1043.7	165.85
1019.372	2925.6391	1047.25	169.85
1019.4869	2926.7445	1047.75	170.5
1019.6017	2927.8493	1048.4	168.6
1019.7165	2928.9534	1049.65	169.75
1019.8313	2930.0569	1054.85	171.85
1019.946	2931.1597	1052.45	170.3
1020.0606	2932.2619	1049.35	169.55
1020.1753	2933.3634	1055.3	175.3
1020.2899	2934.4643	1061.65	174.6
1020.4044	2935.5645	1063.5	178.75
1020.5189	2936.6641	1063.25	179.3
1020.6334	2937.763	1058.9	180.2
1020.7478	2938.8613	1059.65	180.85
1020.8622	2939.959	1060.25	174
1020.9765	2941.056	1047.25	169.15
1021.0908	2942.1523	1043.4	162.7
1021.2051	2943.248	1038	158
1021.3193	2944.3431	1028.85	149.15
1021.4334	2945.4375	1023.15	144.55
1021.5476	2946.5313	1010.25	130.95
1021.6617	2947.6244	1007.85	127.35
1021.7757	2948.7169	1001.25	120.7
1021.8897	2949.8087	993.9	115.95
1022.0037	2950.8999	992.9	112.95
1022.1176	2951.9904	981.25	102.8
1022.2315	2953.0803	979	98.05
1022.3453	2954.1696	973.1	92.8
1022.4591	2955.2582	973.95	95.05
1022.5728	2956.3462	969.05	89.4
1022.6865	2957.4335	969.55	89.55
1022.8002	2958.5202	969.25	89.1
1022.9138	2959.6062	966.45	89.2
1023.0274	2960.6916	962.15	83
1023.141	2961.7764	963.95	84.65
1023.2545	2962.8605	967.25	86.85
1023.3679	2963.9439	967.3	86.8
1023.4813	2965.0267	967.45	85.85
1023.5947	2966.1089	988	87.3
1023.708	2967.1905	960	82.05
1023.8213	2968.2714	964.1	84.65
1023.9346	2969.3516	961.25	84.3
1024.0478	2970.4312	968.05	79
1024.1609	2971.5102	961.55	83.7
1024.274	2972.5885	963.35	86.7
1024.3871	2973.6662	967.1	82.1
1024.5002	2974.7432	961.3	83
1024.6132	2975.8196	963.8	84.1
1024.7261	2976.8954	962.75	83.45
1024.839	2977.9705	964.15	85.75
1024.9519	2979.045	961.15	82.3
1025.0647	2980.1188	960.65	82.5
1025.1775	2981.192	960.75	82.25
1025.2902	2982.2645	960.4	81.15
1025.4029	2983.3364	958.1	79.75
1025.5156	2984.4077	954.4	75.25
1025.6282	2985.4783	958.45	74.1
1025.7407	2986.5483	951.95	73.85
1025.8532	2987.6177	947.4	68.1
1025.9657	2988.6864	945.2	66.25
1026.0782	2989.7545	946	67.45
1026.1906	2990.8219	943.6	65.85
1026.3029	2991.8887	941.5	58.1
1026.4152	2992.9548	939.25	61.4
1026.5275	2994.0204	931.1	54.1
1026.6397	2995.0852	930.15	53.25
1026.7519	2996.1495	930.6	50.95
1026.864	2997.2131	924.4	45.5
1026.9761	2998.276	924.15	44.45
1027.0882	2999.3383	920.5	41.7
1027.2002	3000.4	921.65	41.6
1027.3122	3001.4611	920.15	41.5
1027.4241	3002.5215	917.7	40.55
1027.536	3003.5812	916.25	39.7
1027.6478	3004.6404	915.85	38.5
1027.7596	3005.6989	915.55	34.55
1027.8714	3006.7567	912.6	33.6
1027.9831	3007.8139	942.9	30.75
1028.0947	3008.8705	913.15	33.05
1028.2064	3009.9264	914.95	34.1
1028.3179	3010.9818	909.95	31.3
1028.4295	3012.0364	910.65	30.2
1028.541	3013.0905	909.65	30.05
1028.6524	3014.1439	910.4	31.45
1028.7638	3015.1966	907.5	29.45
1028.8752	3016.2487	907.65	29.15
1028.9865	3017.3002	911	28.3
1029.0978	3018.3511	905.4	29.45
1029.209	3019.4013	908.55	30.1
1029.3202	3020.4509	906.55	29.05
1029.4314	3021.4998	904.3	23.5
1029.5425	3022.5481	904.7	25.75
1029.6535	3023.5958	906.3	27.45
1029.7645	3024.6428	909.7	30.15
1029.8755	3025.6892	904.1	26.6
1029.9864	3026.735	905.9	27.25
1030.0973	3027.7802	904.6	25.8
1030.2082	3028.8247	904	25.1
1030.319	3029.8685	905.05	26.65
1030.4297	3030.9118	906.25	25.1
1030.5404	3031.9544	903.2	26.35
1030.6511	3032.9963	905.75	26.05
1030.7617	3034.0376	904.7	26.4
1030.8723	3035.0783	907.15	27.5
1030.9829	3036.1184	906.4	27.2
1031.0934	3037.1578	905.65	27.95
1031.2038	3038.1966	906.85	27.35
1031.3142	3039.2348	903.45	25.65
1031.4246	3040.2723	911.25	22
1031.5349	3041.3092	904.45	27.2
1031.6452	3042.3455	902.25	23.45
1031.7554	3043.3811	903.6	23.65
1031.8656	3044.4161	905.65	25.3
1031.9758	3045.4505	905.9	28.35
1032.0859	3046.4842	905.45	26.1
1032.1959	3047.5173	902.45	23.35
1032.3059	3048.5498	904.3	25.05
1032.4159	3049.5816	904.85	24.15
1032.5258	3050.6128	905.65	27.05
1032.6357	3051.6434	906.55	29.1
1032.7455	3052.6734	905.25	28.3
1032.8553	3053.7027	907.4	29.8
1032.9651	3054.7314	906.15	30.25
1033.0748	3055.7594	908.45	30.5
1033.1845	3056.7868	906.2	27.3
1033.2941	3057.8136	904.25	27.8
1033.4037	3058.8398	907.6	28.25
1033.5132	3059.8653	907.95	30.35
1033.6227	3060.8902	903.9	23.9
1033.7321	3061.9145	904.95	23.85
1033.8415	3062.9381	906	29.35
1033.9509	3063.9612	923.05	30.55
1034.0602	3064.9835	909.4	31.45
1034.1694	3066.0053	909.8	29.35
1034.2787	3067.0264	906.95	29.05
1034.3878	3068.0469	908.65	29.7
1034.497	3069.0668	909.85	28.75
1034.6061	3070.086	904.45	26.55
1034.7151	3071.1046	906	28.2
1034.8241	3072.1226	906.25	27.9
1034.9331	3073.1399	903.55	27.1
1035.042	3074.1567	906.25	28.7
1035.1508	3075.1727	908.15	27.3
1035.2597	3076.1882	904.6	30.3
1035.3684	3077.203	905.3	27.05
1035.4772	3078.2173	905.55	27.1
1035.5859	3079.2308	903.85	21.8
1035.6945	3080.2438	906.5	24
1035.8031	3081.2561	900.7	21.95
1035.9117	3082.2678	899.05	20.2
1036.0202	3083.2789	900.4	23.6
1036.1286	3084.2893	900.1	21.4
1036.2371	3085.2991	899.45	22
1036.3454	3086.3083	903.55	19.8
1036.4538	3087.3169	900.75	21.35
1036.562	3088.3248	898.55	17.7
1036.6703	3089.3321	899.15	18.95
1036.7785	3090.3388	899.45	21.35
1036.8866	3091.3449	897.15	18.65
1036.9948	3092.3503	898.75	17.25
1037.1028	3093.3551	896.35	18.75
1037.2108	3094.3593	897.45	20.8
1037.3188	3095.3629	898.4	20.7
1037.4267	3096.3658	897.7	18.65
1037.5346	3097.3681	896.85	18.15
1037.6425	3098.3698	898.25	19.3
1037.7503	3099.3708	897.9	17.2
1037.858	3100.3713	897.5	20.9
1037.9657	3101.3711	896.65	16.65
1038.0734	3102.3702	1030.05	14.65
1038.181	3103.3688	897.6	18.4
1038.2886	3104.3667	891.25	13.6
1038.3961	3105.364	894.45	16.45
1038.5036	3106.3607	895.95	14.45
1038.611	3107.3568	897.1	19.15
1038.7184	3108.3522	891.95	14.25
1038.8257	3109.347	894.25	16.25
1038.933	3110.3412	897.95	15.65
1039.0403	3111.3348	892	15.9
1039.1475	3112.3277	892.1	13.2
1039.2547	3113.32	893	16.4
1039.3618	3114.3117	892.4	10.75
1039.4689	3115.3028	893.45	14.9
1039.5759	3116.2932	895.35	15.15
1039.6829	3117.2831	896.8	14.35
1039.7898	3118.2723	892.7	16.2
1039.8967	3119.2608	891.85	14.7
1040.0035	3120.2488	891.1	13
1040.1103	3121.2361	894.05	16.3
1040.2171	3122.2229	890.8	13.6
1040.3238	3123.209	891.75	13.1
1040.4305	3124.1944	889	9.55
1040.5371	3125.1793	891.35	11.85
1040.6437	3126.1635	891.6	13.95
1040.7502	3127.1471	892.2	16.15
1040.8567	3128.1301	892.2	14.45
1040.9631	3129.1125	889.05	10.2
1041.0695	3130.0942	890.2	11.1
1041.1759	3131.0753	898.25	10.95
1041.2822	3132.0558	893.35	11.9
1041.3884	3133.0357	891.25	13.25
1041.4946	3134.015	890.4	11.8
1041.6008	3134.9936	890.15	10.6
1041.7069	3135.9716	911	10.8
1041.813	3136.949	888.95	10.05
1041.919	3137.9258	908.05	12.2
1042.025	3138.902	896	12.65
1042.1309	3139.8775	889.75	13.95
1042.2368	3140.8524	890.85	10.9
1042.3427	3141.8267	890.65	10.2
1042.4485	3142.8004	889.8	10.15
1042.5542	3143.7735	895.55	12.35
1042.6599	3144.7459	892.4	13
1042.7656	3145.7178	890.65	11.6
1042.8712	3146.689	889.05	11.95
1042.9768	3147.6596	889.55	10.95
1043.0823	3148.6295	889	8.95
1043.1878	3149.5989	888.45	9.85
1043.2932	3150.5676	887.55	11.05
1043.3986	3151.5357	887.65	12.45
1043.5039	3152.5032	888.55	12.1
1043.6092	3153.4701	888.9	11.7
1043.7145	3154.4364	890.4	10.15
1043.8197	3155.402	886.6	9.95
1043.9248	3156.367	889.4	8.35
1044.03	3157.3315	931.25	8.9
1044.135	3158.2952	890.95	12.75
1044.24	3159.2584	889.3	13.15
1044.345	3160.221	889.6	11.05
1044.4499	3161.1829	887.7	9.25
1044.5548	3162.1442	887.85	10.45
1044.6596	3163.105	888.95	11.7
1044.7644	3164.065	888.95	9.5
1044.8692	3165.0245	889.85	9.9
1044.9739	3165.9834	885.95	6.95
1045.0785	3166.9416	886.6	9.8
1045.1831	3167.8993	888.55	10.25
1045.2877	3168.8563	887.45	9.2
1045.3922	3169.8127	887.7	10.1
1045.4966	3170.7684	887.9	9.25
1045.6011	3171.7236	888.8	10
1045.7054	3172.6782	887.05	8.7
1045.8098	3173.6321	886.8	7.25
1045.914	3174.5854	890.35	6.85
1046.0183	3175.5381	888.95	10.55
1046.1224	3176.4902	886.95	7.15
1046.2266	3177.4417	884.8	8.8
1046.3307	3178.3926	888.4	11.05
1046.4347	3179.3428	886.3	8.6
1046.5387	3180.2924	886.65	9.35
1046.6427	3181.2415	885.35	8.05
1046.7466	3182.1899	889.9	10.15
1046.8504	3183.1377	887.45	11.4
1046.9542	3184.0848	889	7.05
1047.058	3185.0314	885.65	8.4
1047.1617	3185.9773	885.35	7.25
1047.2654	3186.9227	889.2	11.4
1047.369	3187.8674	884.75	8
1047.4726	3188.8115	892.05	11.25
1047.5761	3189.755	888.05	8.4
1047.6796	3190.6979	885.25	8.9
1047.783	3191.6402	885.2	8.65
1047.8864	3192.5818	885.55	7.35
1047.9898	3193.5229	912	9.05
1048.0931	3194.4633	885.1	6.85
1048.1963	3195.4031	886.85	10.45
1048.2995	3196.3423	885.7	7.05
1048.4027	3197.2809	883	4.15
1048.5058	3198.2189	886.8	8.5
1048.6089	3199.1563	892.5	9.25
1048.7119	3200.0931	884.85	8.9
1048.8148	3201.0292	884	7.4
1048.9178	3201.9648	885.7	9.15
1049.0206	3202.8997	888.1	7.5
1049.1235	3203.834	885.25	6.8
1049.2262	3204.7677	883.3	4.55
1049.329	3205.7008	888	8.8
1049.4317	3206.6333	883.2	4.75
1049.5343	3207.5652	887.05	8.7
1049.6369	3208.4964	885	8.5
1049.7394	3209.4271	883.95	7.15
1049.8419	3210.3571	884.2	6.05
1049.9444	3211.2865	883.8	6.6
1050.0468	3212.2154	885	7.7
1050.1491	3213.1436	888.8	8.05
1050.2514	3214.0712	892.2	7.85
1050.3537	3214.9982	886.6	9.7
1050.4559	3215.9246	886.05	8.9
1050.5581	3216.8503	884.8	7.3
1050.6602	3217.7755	884.4	7.2
1050.7623	3218.7001	883.25	4.45
1050.8643	3219.624	887.15	9.5
1050.9663	3220.5473	884	4.5
1051.0682	3221.4701	883.6	2.6
1051.1701	3222.3922	887.1	6.75
1051.2719	3223.3137	886.4	8.15
1051.3737	3224.2346	883.05	5.6
1051.4754	3225.1549	882.5	5.2
1051.5771	3226.0746	884.55	7.5
1051.6788	3226.9937	885.35	8.9
1051.7804	3227.9121	883.9	8.4
1051.8819	3228.83	885.15	8.5
1051.9834	3229.7473	883.05	6.65
1052.0849	3230.6639	881.95	4.45
1052.1863	3231.5799	884.8	8.85
1052.2876	3232.4954	883.5	6.25
1052.3889	3233.4102	884.95	7.85
1052.4902	3234.3244	885.65	8.8
1052.5914	3235.238	884.4	6.05
1052.6926	3236.151	908.3	9.75
1052.7937	3237.0634	884.35	7.8
1052.8948	3237.9752	883	5.2
1052.9958	3238.8864	884.55	5.15
1053.0968	3239.797	883.05	4.35
1053.1977	3240.7069	883.5	5.1
1053.2986	3241.6163	884.45	5.45
1053.3994	3242.5251	884.85	9.85
1053.5002	3243.4332	882.9	4.75
1053.6009	3244.3408	884.7	5.6
1053.7016	3245.2477	883.65	7.05
1053.8022	3246.154	885.95	7.5
1053.9028	3247.0598	881.7	1.9
1054.0034	3247.9649	885.5	8.95
1054.1039	3248.8694	883.8	6.1
1054.2043	3249.7733	883.6	5.6
1054.3047	3250.6766	882.85	6.15
1054.4051	3251.5793	885.05	5.5
1054.5054	3252.4814	882.65	6.15
1054.6056	3253.3829	883.4	4.55
1054.7058	3254.2838	883.15	3.9
1054.806	3255.1841	883.7	5.5
1054.9061	3256.0838	883.15	3.9
1055.0061	3256.9829	880.05	3.45
1055.1062	3257.8814	884.85	5.7
1055.2061	3258.7792	884.75	4.5
1055.306	3259.6765	885.8	8.6
1055.4059	3260.5731	882.75	3.65
1055.5057	3261.4692	881.55	3.25
1055.6055	3262.3647	882.8	3.7
1055.7052	3263.2595	884.1	7.6
1055.8049	3264.1538	882.3	4.4
1055.9045	3265.0474	882.5	2.35
1056.0041	3265.9404	882.15	5
1056.1036	3266.8329	879.05	2.5
1056.2031	3267.7247	894.5	6.55
1056.3025	3268.616	880.95	6.5
1056.4019	3269.5066	882.85	3.8
1056.5013	3270.3966	883.25	5.15
1056.6005	3271.286	878.6	1.05
