Software Version:	3.9.2.0
Unit SN:	10000200
Spectrometer SN:	6960
Date:	3/8/2024 12:06:53 PM
Data Line Index:	25
Spectral Points:	2048
Integration time (ms):	125
Averages:	20
Delay (ms):	30000
Sequence Number:	1
Processing:	dark subtract
Laser Power (mW):	300
Laser Current (mA):	821
Laser Diode Temp (C):	25
Laser Case Temp (C):	25.7
System Temp (C):	25.6
Spectrometer Temp (C):	23.5
CCD Temp (C):	0.001
Secondary Temp (C):	20.001
Heatsink Temp (C):	20.399
CCDPCB Temp (C):	35.484
SecondaryPCB Temp (C):	28.793

Wavelength	RamanShift	Raw Counts	Dark Subtracted
787.061	30.1047	416.2	6.6
787.2016	32.3739	413.7	6.9
787.3422	34.6426	413.45	6.35
787.4828	36.9109	416.35	5.45
787.6235	39.1787	420.5	5.65
787.7642	41.4461	426.9	7.75
787.9049	43.7131	431.75	10.55
788.0456	45.9796	433.9	9.05
788.1863	48.2456	438.25	9.05
788.3271	50.5112	444.7	11.2
788.4679	52.7764	444.95	7.25
788.6087	55.0411	453.45	13
788.7496	57.3054	456.65	10.6
788.8904	59.5692	461.25	12.95
789.0313	61.8326	464.95	14.45
789.1722	64.0955	469.1	16.5
789.3132	66.3579	477.3	18.5
789.4541	68.6199	484.65	20.55
789.5951	70.8815	491.35	23.05
789.7361	73.1426	511.9	42
789.8771	75.4032	548.7	76.65
790.0181	77.6634	627.7	149.7
790.1592	79.9231	811.8	328.9
790.3003	82.1824	1199.1	703.7
790.4414	84.4412	1826.15	1315.95
790.5825	86.6995	2623.7	2093.5
790.7237	88.9574	3385.1	2837.05
790.8648	91.2148	3911.3	3349.85
791.006	93.4717	4130.85	3560.75
791.1472	95.7282	4166	3591.9
791.2885	97.9842	4163.05	3590.65
791.4297	100.2398	4088.5	3512.05
791.571	102.4949	4028.6	3449.2
791.7123	104.7495	3969.95	3386.4
791.8536	107.0036	3906.85	3322.95
791.9949	109.2573	3832.9	3252.5
792.1363	111.5105	3725.95	3139.9
792.2777	113.7632	3607.2	3015.6
792.4191	116.0154	3493.7	2893.8
792.5605	118.2672	3394.9	2800.35
792.7019	120.5185	3282.85	2686.35
792.8434	122.7693	3178.45	2579.45
792.9849	125.0197	3097.2	2495.3
793.1264	127.2696	3014.15	2406.25
793.2679	129.519	2982.45	2372.4
793.4094	131.7679	2944.2	2333.35
793.551	134.0163	2918.3	2300.75
793.6926	136.2642	2902.6	2284.35
793.8342	138.5117	2899.55	2271.75
793.9758	140.7587	2859.9	2238.45
794.1175	143.0052	2797.7	2173.65
794.2591	145.2512	2744.7	2119.9
794.4008	147.4967	2704.9	2079.8
794.5425	149.7417	2660.25	2029.55
794.6842	151.9863	2625.95	1990.75
794.826	154.2304	2610.95	1971.75
794.9677	156.4739	2610.35	1967.9
795.1095	158.717	2623.75	1981.45
795.2513	160.9596	2638.1	1987.6
795.3931	163.2017	2660.65	2011.45
795.535	165.4433	2676.25	2023.25
795.6768	167.6844	2647.75	1991.8
795.8187	169.925	2612.75	1957
795.9606	172.1651	2565.9	1905.55
796.1025	174.4047	2525.85	1862.6
796.2445	176.6439	2472	1804.45
796.3864	178.8825	2446.15	1773.35
796.5284	181.1206	2435.1	1764.75
796.6704	183.3582	2423.8	1746.35
796.8124	185.5954	2425.3	1749.05
796.9544	187.832	2411	1728.25
797.0965	190.0681	2426.45	1739.35
797.2386	192.3037	2433.15	1743.75
797.3806	194.5388	2437.9	1746.35
797.5228	196.7734	2448.25	1754.75
797.6649	199.0075	2454.55	1762.8
797.807	201.2411	2483.75	1789.15
797.9492	203.4742	2492	1795.55
798.0914	205.7068	2534.05	1832.15
798.2336	207.9389	2557	1853.75
798.3758	210.1704	2577.65	1880.8
798.518	212.4015	2557.95	1872.15
798.6603	214.632	2564.5	1886.7
798.8025	216.862	2563	1886.8
798.9448	219.0915	2572.15	1892.2
799.0871	221.3205	2593.65	1910.2
799.2294	223.549	2596.8	1919.3
799.3718	225.777	2595.5	1917.25
799.5141	228.0044	2584.25	1899.05
799.6565	230.2314	2575.25	1887.75
799.7989	232.4578	2548.65	1858.85
799.9413	234.6837	2536.95	1834.15
800.0837	236.909	2527.25	1823
800.2262	239.1339	2539.85	1810.95
800.3687	241.3582	2531.2	1819.25
800.5111	243.582	2553.15	1808.65
800.6536	245.8053	2554.35	1823.55
800.7961	248.0281	2558.1	1831.15
800.9387	250.2503	2567.6	1838.2
801.0812	252.472	2569.9	1839.95
801.2238	254.6932	2579.5	1850.75
801.3664	256.9139	2586.45	1857.2
801.509	259.134	2607.3	1870.65
801.6516	261.3536	2632.4	1899.65
801.7942	263.5727	2684.55	1952.9
801.9369	265.7912	2738.2	2001.55
802.0795	268.0092	2793.4	2058.4
802.2222	270.2267	2853.6	2117.35
802.3649	272.4436	2905.25	2166.7
802.5076	274.6601	2919.25	2167.25
802.6504	276.8759	2974.2	2229.1
802.7931	279.0913	2981.2	2236.5
802.9359	281.3061	2992.6	2247.45
803.0787	283.5204	3020.95	2273.7
803.2215	285.7341	3051.05	2301.75
803.3643	287.9473	3053.3	2303.05
803.5071	290.16	3056.25	2303.45
803.6499	292.3721	3021.95	2273.45
803.7928	294.5837	2981.35	2231.5
803.9357	296.7947	2947.2	2195.55
804.0786	299.0052	2952.6	2199.85
804.2215	301.2152	2939.5	2184.9
804.3644	303.4246	2914.55	2162.7
804.5074	305.6334	2893.9	2142.9
804.6503	307.8418	2875.3	2120.7
804.7933	310.0495	2840.4	2084
804.9363	312.2568	2803.65	2046.8
805.0793	314.4635	2750.85	1990.9
805.2223	316.6696	2693.15	1930.95
805.3653	318.8752	2655.3	1886
805.5084	321.0802	2615.45	1851.6
805.6514	323.2847	2620.7	1855.7
805.7945	325.4887	2624.85	1861.15
805.9376	327.692	2648.6	1879.85
806.0807	329.8949	2691.05	1921.45
806.2238	332.0972	2719.05	1948.45
806.367	334.2989	2733.25	1957.6
806.5101	336.5001	2723	1946.75
806.6533	338.7007	2683	1909.3
806.7965	340.9008	2653.45	1875.9
806.9397	343.1003	2594.45	1817.85
807.0829	345.2992	2549.55	1770.15
807.2261	347.4976	2498.35	1720.45
807.3693	349.6955	2481.2	1698.85
807.5126	351.8927	2470.75	1686.35
807.6559	354.0895	2457.55	1662.3
807.7991	356.2856	2438.65	1651.55
807.9424	358.4812	2423.8	1636.65
808.0857	360.6763	2430.25	1641.6
808.2291	362.8707	2427.15	1636.1
808.3724	365.0646	2431.45	1638.75
808.5158	367.258	2424.65	1631.9
808.6591	369.4508	2448.45	1647.45
808.8025	371.643	2479.15	1682.3
808.9459	373.8346	2494.35	1692.9
809.0893	376.0257	2538.6	1733.3
809.2327	378.2162	2553.95	1751.45
809.3762	380.4062	2562.7	1761.2
809.5196	382.5956	2539.35	1737.85
809.6631	384.7844	2505.25	1710.85
809.8066	386.9726	2469.15	1674.95
809.9501	389.1603	2429.65	1636.8
810.0936	391.3474	2458.65	1630.9
810.2371	393.5339	2424.1	1626.1
810.3806	395.7199	2431.35	1642.95
810.5241	397.9052	2444.3	1648.6
810.6677	400.09	2504.95	1710.45
810.8113	402.2743	2543.25	1748.6
810.9548	404.4579	2588.1	1791.45
811.0984	406.641	2631.85	1833.75
811.2421	408.8235	2677.05	1880.1
811.3857	411.0054	2726.8	1924.4
811.5293	413.1868	2782.4	1971.5
811.673	415.3675	2825.95	2017.3
811.8166	417.5477	2822.3	2009.45
811.9603	419.7273	2755.6	1942.95
812.104	421.9064	2686.1	1867.25
812.2477	424.0848	2633.95	1822.35
812.3914	426.2627	2568.25	1754.8
812.5351	428.4399	2505.5	1691.1
812.6788	430.6166	2447.6	1627.65
812.8226	432.7928	2398.6	1578.5
812.9663	434.9683	2356.2	1536.9
813.1101	437.1432	2328.15	1508.35
813.2539	439.3176	2314.35	1498.6
813.3977	441.4914	2290.45	1474.5
813.5415	443.6645	2284.65	1466.65
813.6853	445.8371	2290.85	1475.15
813.8291	448.0091	2292.5	1471.2
813.973	450.1806	2296.1	1478.95
814.1168	452.3514	2277.7	1455.75
814.2607	454.5216	2288.7	1457.55
814.4046	456.6913	2271.2	1449.55
814.5485	458.8603	2273.65	1452.65
814.6924	461.0288	2290.45	1472.7
814.8363	463.1967	2282.7	1466.15
814.9802	465.3639	2290.85	1466.65
815.1241	467.5306	2276.95	1453.05
815.2681	469.6967	2266.15	1444.55
815.412	471.8622	2260.45	1440.3
815.556	474.0271	2262.7	1439.65
815.7	476.1914	2267.95	1442.95
815.844	478.3551	2260.55	1433.1
815.988	480.5182	2255.4	1432.1
816.132	482.6807	2260.8	1439.05
816.276	484.8426	2272.4	1455.2
816.4201	487.0039	2313.85	1490.45
816.5641	489.1647	2375.5	1549.75
816.7082	491.3248	2420.75	1594.1
816.8522	493.4843	2444.65	1621.55
816.9963	495.6432	2437.1	1611.1
817.1404	497.8015	2402.85	1567.35
817.2845	499.9592	2350.65	1515.65
817.4286	502.1163	2302.85	1469.05
817.5727	504.2728	2257.45	1425.55
817.7168	506.4287	2234.4	1406.1
817.861	508.5839	2220.1	1391.9
818.0051	510.7386	2204.4	1374.1
818.1493	512.8927	2209.55	1377.05
818.2935	515.0461	2224.1	1391.35
818.4377	517.199	2250.95	1415.6
818.5818	519.3512	2289.05	1451.9
818.726	521.5029	2362.35	1521.75
818.8703	523.6539	2407.4	1571.45
819.0145	525.8043	2413.95	1574.25
819.1587	527.9541	2369.35	1528.7
819.303	530.1033	2297.4	1457.2
819.4472	532.2519	2247.8	1408.95
819.5915	534.3999	2227.5	1386.3
819.7357	536.5472	2222	1381.8
819.88	538.694	2218.25	1381.2
820.0243	540.8401	2240.2	1400.35
820.1686	542.9856	2261.8	1415.6
820.3129	545.1305	2263.1	1416.45
820.4572	547.2748	2290.55	1443
820.6016	549.4185	2296.45	1445.5
820.7459	551.5615	2288.9	1438.9
820.8902	553.704	2312.2	1461.7
821.0346	555.8458	2341.1	1497.9
821.1789	557.987	2356.7	1512.35
821.3233	560.1276	2383.05	1535.85
821.4677	562.2675	2436.9	1590.85
821.6121	564.4069	2494.1	1646.85
821.7565	566.5456	2536.95	1691.35
821.9009	568.6837	2526.35	1680.2
822.0453	570.8212	2457.2	1612.05
822.1897	572.958	2377.95	1528.5
822.3342	575.0942	2314.15	1470
822.4786	577.2299	2273.9	1426.85
822.6231	579.3648	2248.4	1406.8
822.7675	581.4992	2226.7	1388.6
822.912	583.6329	2242.3	1403.55
823.0565	585.766	2265.6	1424.15
823.201	587.8985	2330.7	1486.55
823.3454	590.0304	2387.85	1518.6
823.4899	592.1616	2390.2	1539.65
823.6345	594.2922	2389.15	1534.55
823.779	596.4222	2340.45	1487.15
823.9235	598.5515	2277.7	1421.85
824.068	600.6802	2235.25	1379.15
824.2126	602.8083	2200.5	1348.8
824.3571	604.9358	2186.35	1332.55
824.5017	607.0626	2188.2	1334.15
824.6462	609.1888	2202.3	1347.3
824.7908	611.3144	2226.15	1366.4
824.9354	613.4393	2266.2	1409.15
825.08	615.5636	2303.8	1443.85
825.2246	617.6873	2363.6	1505.4
825.3692	619.8103	2390.75	1531.25
825.5138	621.9327	2383.25	1519.8
825.6584	624.0544	2349.75	1493.25
825.803	626.1756	2284.5	1430.6
825.9477	628.2961	2237.95	1379.4
826.0923	630.4159	2225.4	1367.5
826.237	632.5351	2224.15	1363.45
826.3816	634.6537	2200.8	1337.05
826.5263	636.7716	2188.8	1324.35
826.6709	638.8889	2191.9	1327.35
826.8156	641.0056	2197.05	1333.55
826.9603	643.1216	2187.9	1319.25
827.105	645.237	2186.65	1321.4
827.2497	647.3518	2172.45	1311.3
827.3944	649.4659	2160.15	1300.9
827.5391	651.5793	2125.45	1264.85
827.6838	653.6922	2118.6	1258
827.8285	655.8043	2108.7	1248.6
827.9733	657.9159	2102.4	1239.1
828.118	660.0268	2085.3	1220
828.2627	662.137	2086.85	1221.1
828.4075	664.2466	2094.4	1228.55
828.5522	666.3556	2090.3	1225.6
828.697	668.4639	2090.15	1224.15
828.8418	670.5716	2070.1	1208.15
828.9865	672.6786	2066.05	1199.45
829.1313	674.785	2073.1	1202.75
829.2761	676.8907	2061.9	1195.4
829.4209	678.9958	2056.45	1190.75
829.5657	681.1002	2054.35	1186.5
829.7105	683.204	2064.1	1190.4
829.8553	685.3072	2065.3	1193.9
830.0001	687.4097	2051.7	1179.8
830.1449	689.5115	2054.25	1183.3
830.2898	691.6127	2056.85	1190.4
830.4346	693.7132	2040.5	1172
830.5794	695.8131	2070.25	1184.35
830.7243	697.9123	2066.75	1194.85
830.8691	700.0109	2048.7	1172.9
831.014	702.1089	2079.15	1207
831.1588	704.2061	2085.4	1214.6
831.3037	706.3028	2118.55	1243.1
831.4486	708.3987	2135.85	1260.45
831.5935	710.4941	2147.55	1277.5
831.7383	712.5887	2158.85	1287.5
831.8832	714.6827	2151.95	1275.1
832.0281	716.7761	2140.45	1271.5
832.173	718.8688	2142.8	1270.25
832.3179	720.9608	2142.4	1264.35
832.4628	723.0522	2163.9	1282.5
832.6077	725.1429	2184.9	1305.9
832.7527	727.233	2228.75	1354.05
832.8976	729.3224	2293.05	1417.35
833.0425	731.4112	2336.6	1459.85
833.1874	733.4993	2344.4	1466.35
833.3324	735.5867	2285.35	1408.2
833.4773	737.6735	2206.05	1327.45
833.6222	739.7596	2154.65	1276.6
833.7672	741.845	2121.15	1243.6
833.9122	743.9298	2119.55	1240.65
834.0571	746.014	2123.5	1247.35
834.2021	748.0974	2141.05	1258.25
834.347	750.1802	2143.15	1261.05
834.492	752.2624	2125.3	1245.95
834.637	754.3439	2119.55	1237
834.782	756.4247	2119.4	1232.75
834.9269	758.5048	2130.3	1249.45
835.0719	760.5843	2141.75	1258.5
835.2169	762.6631	2176.5	1297.25
835.3619	764.7413	2234.75	1352.4
835.5069	766.8188	2321.2	1437.45
835.6519	768.8956	2401.45	1517.05
835.7969	770.9718	2466.35	1587.4
835.9419	773.0473	2456.1	1573.75
836.0869	775.1221	2426.5	1544.45
836.232	777.1962	2413.65	1534.15
836.377	779.2697	2489.95	1604.35
836.522	781.3426	2583.5	1681.15
836.667	783.4147	2629.1	1744.5
836.8121	785.4862	2596.95	1712.4
836.9571	787.557	2507.05	1620
837.1021	789.6271	2378.95	1494.9
837.2472	791.6966	2249.9	1367.15
837.3922	793.7654	2155.15	1272.7
837.5373	795.8335	2121.8	1239.15
837.6823	797.901	2077.55	1192.15
837.8274	799.9678	2070.45	1185.55
837.9724	802.0339	2065.05	1177.35
838.1175	804.0993	2075.6	1180.5
838.2626	806.1641	2061.5	1172.65
838.4076	808.2282	2042.8	1157.1
838.5527	810.2916	2030.95	1144.7
838.6978	812.3544	2006.65	1123.2
838.8428	814.4164	1998.05	1116.3
838.9879	816.4778	2011.55	1124.4
839.133	818.5385	2019	1135.3
839.2781	820.5986	2062.4	1174.05
839.4232	822.658	2113	1223.1
839.5682	824.7166	2177.9	1294.15
839.7133	826.7747	2264.95	1378.9
839.8584	828.832	2353.4	1467.3
840.0035	830.8886	2420.05	1531.65
840.1486	832.9446	2434.1	1541.45
840.2937	834.9999	2387.9	1500.15
840.4388	837.0545	2312.35	1421.7
840.5839	839.1085	2233.1	1345.55
840.729	841.1618	2160.75	1269.25
840.8741	843.2143	2105.9	1217.25
841.0192	845.2662	2066.15	1178.85
841.1643	847.3175	2048.2	1160.8
841.3095	849.368	2036	1143.4
841.4546	851.4179	2037.2	1148.9
841.5997	853.467	2032.8	1142.35
841.7448	855.5155	2053.45	1163.7
841.8899	857.5633	2046.3	1156.2
842.0351	859.6105	2038.05	1149.9
842.1802	861.6569	2019.4	1129.9
842.3253	863.7027	2010.4	1117.25
842.4704	865.7478	1994.7	1101.2
842.6156	867.7922	1991.9	1097.9
842.7607	869.8359	1968.85	1074.2
842.9058	871.8789	1971.55	1077.2
843.0509	873.9212	2004.95	1081.45
843.1961	875.9629	1992.65	1101.8
843.3412	878.0039	2006.3	1114.95
843.4863	880.0441	2004.25	1114.9
843.6315	882.0837	2037.8	1146.35
843.7766	884.1226	2065.9	1171.7
843.9218	886.1609	2102.8	1210.65
844.0669	888.1984	2138.35	1244.15
844.212	890.2352	2193.5	1301.85
844.3572	892.2714	2194.1	1298.5
844.5023	894.3069	2160.75	1265.85
844.6475	896.3416	2118.25	1225.3
844.7926	898.3757	2076.85	1183.3
844.9377	900.4091	2056.35	1163.35
845.0829	902.4418	2058.85	1160.95
845.228	904.4739	2074.05	1177.55
845.3732	906.5052	2087	1192.85
845.5183	908.5358	2076.65	1181.2
845.6635	910.5658	2048.8	1151.35
845.8086	912.595	2011.95	1116.55
845.9538	914.6236	1975.8	1082.65
846.0989	916.6515	1955.95	1061.4
846.2441	918.6786	1924.6	1026.35
846.3892	920.7051	1926.5	1027.3
846.5344	922.7309	1930.3	1035.5
846.6795	924.756	1931	1034.95
846.8246	926.7804	1942.75	1044.75
846.9698	928.8041	1937.75	1039.7
847.1149	930.8272	1974.1	1077.25
847.2601	932.8495	1972.8	1076.85
847.4052	934.8711	1968.6	1072.05
847.5504	936.892	1984.95	1086.6
847.6955	938.9123	2012.75	1114.9
847.8407	940.9318	2026.95	1129.25
847.9858	942.9506	2042.9	1143
848.131	944.9688	2033.65	1137.2
848.2761	946.9862	1998.2	1101.25
848.4213	949.003	1962.95	1065.6
848.5664	951.019	1939.7	1042.9
848.7115	953.0344	1921.9	1024.55
848.8567	955.0491	1925.15	1026.85
849.0018	957.063	1916.6	1020.2
849.147	959.0763	1910.35	1015.9
849.2921	961.0888	1904.45	1005.95
849.4373	963.1007	1895.7	1000.6
849.5824	965.1119	1897	1005.1
849.7275	967.1223	1884.85	994.2
849.8727	969.1321	1886.45	997.85
850.0178	971.1412	1887.05	995.15
850.1629	973.1495	1874.75	979.6
850.3081	975.1572	1906.75	977.8
850.4532	977.1641	1877.85	979.9
850.5983	979.1704	1881.2	982.3
850.7435	981.1759	1879.2	979.35
850.8886	983.1808	1863	962.9
851.0337	985.1849	1865.85	955.05
851.1788	987.1884	1863.95	965.8
851.324	989.1911	1868.35	968.7
851.4691	991.1932	1875.8	977.7
851.6142	993.1945	1872.35	976.05
851.7593	995.1951	1872	975.35
851.9045	997.1951	1873.35	968.45
852.0496	999.1943	1858.25	960.15
852.1947	1001.1928	1862.45	959.1
852.3398	1003.1906	1887.85	988.75
852.4849	1005.1877	1900.3	1001.15
852.63	1007.1841	1923.75	1026.5
852.7751	1009.1798	1930.25	1033.2
852.9202	1011.1748	1925.6	1026.25
853.0653	1013.1691	1902.5	1003.5
853.2104	1015.1627	1865.55	968.3
853.3555	1017.1556	1837.15	937.9
853.5006	1019.1477	1827.9	929.75
853.6457	1021.1392	1800.75	904.15
853.7908	1023.1299	1797.05	904.4
853.9359	1025.12	1791.9	895.4
854.081	1027.1093	1807.8	920.4
854.2261	1029.0979	1814.2	929
854.3712	1031.0859	1837.3	948.95
854.5163	1033.0731	1848.6	954.9
854.6613	1035.0596	1853.15	960.6
854.8064	1037.0454	1839.4	943.8
854.9515	1039.0304	1833.95	935.45
855.0965	1041.0148	1808.65	909.55
855.2416	1042.9985	1782.9	882.3
855.3867	1044.9814	1780.75	882.95
855.5317	1046.9636	1767.55	865.2
855.6768	1048.9452	1777.8	880.45
855.8219	1050.926	1799.95	902.9
855.9669	1052.9061	1824.55	927.1
856.112	1054.8855	1813.05	914.45
856.257	1056.8642	1813.4	912.8
856.4021	1058.8421	1817.2	917.65
856.5471	1060.8194	1812.45	911.5
856.6921	1062.7959	1814.2	917.4
856.8372	1064.7717	1808.7	908.05
856.9822	1066.7469	1820.1	920.2
857.1272	1068.7213	1824	923.6
857.2723	1070.695	1837.4	938.05
857.4173	1072.6679	1854.25	953.85
857.5623	1074.6402	1859.85	958.4
857.7073	1076.6117	1869.85	966.9
857.8523	1078.5826	1845.05	944.9
857.9973	1080.5527	1816	913.5
858.1423	1082.5221	1787.55	886.55
858.2873	1084.4908	1769.1	870.8
858.4323	1086.4587	1745.4	844.5
858.5773	1088.426	1745.95	843.65
858.7223	1090.3925	1747.55	844.15
858.8673	1092.3584	1742.95	841.65
859.0123	1094.3235	1749.8	849.7
859.1573	1096.2879	1771.25	873.7
859.3022	1098.2515	1795.85	900.2
859.4472	1100.2145	1828	929.9
859.5922	1102.1767	1864	963.45
859.7371	1104.1382	1915.05	1014.55
859.8821	1106.099	1964.85	1062.9
860.027	1108.0591	2007.1	1108.25
860.172	1110.0185	2051.15	1150.4
860.3169	1111.9771	2087.9	1188.65
860.4619	1113.9351	2141.75	1241.3
860.6068	1115.8923	2179.05	1279.45
860.7517	1117.8488	2200.4	1298.65
860.8967	1119.8045	2134.75	1234.3
861.0416	1121.7596	2039.2	1138.2
861.1865	1123.7139	1959.25	1059.8
861.3314	1125.6675	1916.4	1018.65
861.4763	1127.6204	1916.2	1014.55
861.6212	1129.5726	1917.6	1015.65
861.7661	1131.524	1916.1	1016.95
861.911	1133.4748	1886.1	988.1
862.0559	1135.4248	1839.75	939.2
862.2008	1137.3741	1778.5	878.65
862.3457	1139.3226	1753.65	855.4
862.4905	1141.2705	1753.15	852.5
862.6354	1143.2176	1772.9	868.05
862.7803	1145.164	1768.15	863.5
862.9251	1147.1097	1762.4	862
863.07	1149.0546	1738.05	836.7
863.2148	1150.9989	1713.7	812.25
863.3597	1152.9424	1700.2	800.35
863.5045	1154.8852	1688.65	786.7
863.6493	1156.8272	1681.2	784.55
863.7942	1158.7686	1692.15	784.35
863.939	1160.7092	1685.8	784.1
864.0838	1162.6491	1684.65	780.25
864.2286	1164.5883	1695.65	793.9
864.3734	1166.5267	1717.8	818.85
864.5182	1168.4644	1753.65	852.3
864.663	1170.4014	1778.35	873.25
864.8078	1172.3377	1817.1	917.75
864.9526	1174.2732	1876.65	976.2
865.0974	1176.2081	1969	1067.85
865.2421	1178.1421	2094.15	1190.95
865.3869	1180.0755	2192.8	1292.55
865.5317	1182.0082	2242.4	1341.7
865.6764	1183.9401	2207	1306.6
865.8212	1185.8713	2104.05	1205.9
865.9659	1187.8017	1985.45	1091.7
866.1106	1189.7315	1875.25	983.85
866.2554	1191.6605	1806.9	916.35
866.4001	1193.5888	1764.9	870.45
866.5448	1195.5163	1745.05	846.55
866.6895	1197.4432	1722.15	824.1
866.8342	1199.3693	1708.8	809.1
866.9789	1201.2947	1700.1	798.6
867.1236	1203.2193	1692.95	792.45
867.2683	1205.1432	1685.25	785.05
867.413	1207.0664	1684.75	782.9
867.5576	1208.9889	1688.6	784.85
867.7023	1210.9106	1688.9	789.45
867.847	1212.8316	1696.1	797.5
867.9916	1214.7519	1717.65	810.65
868.1363	1216.6715	1709.55	809
868.2809	1218.5903	1730	831.2
868.4255	1220.5084	1747.45	851.7
868.5701	1222.4257	1767.55	867.8
868.7148	1224.3424	1765.15	865.85
868.8594	1226.2583	1805.35	902.15
869.004	1228.1735	1834.05	934.5
869.1486	1230.0879	1864.3	964.3
869.2932	1232.0016	1904.95	1007.65
869.4377	1233.9146	1937.25	1034.3
869.5823	1235.8269	1966.3	1067.45
869.7269	1237.7384	1972.3	1072.55
869.8715	1239.6492	1971.85	1070.5
870.016	1241.5592	1997.25	1096.1
870.1606	1243.4686	2046.5	1146.8
870.3051	1245.3772	2124.9	1225.4
870.4496	1247.285	2206.45	1306.9
870.5941	1249.1922	2278.9	1378.3
870.7387	1251.0986	2364.8	1466.2
870.8832	1253.0042	2440.6	1537.65
871.0277	1254.9092	2508.25	1606.45
871.1722	1256.8134	2576.9	1678.55
871.3167	1258.7169	2636.9	1736.75
871.4611	1260.6196	2649.75	1750.95
871.6056	1262.5216	2642.2	1741.95
871.7501	1264.4229	2617.3	1718.45
871.8945	1266.3234	2590.25	1688
872.039	1268.2232	2544.5	1642.5
872.1834	1270.1223	2496.5	1593.6
872.3278	1272.0207	2483.05	1583.55
872.4723	1273.9183	2459.55	1553.15
872.6167	1275.8151	2478.55	1578.05
872.7611	1277.7113	2524.75	1624
872.9055	1279.6067	2606.65	1706.3
873.0499	1281.5014	2753.4	1852.7
873.1943	1283.3953	2912.1	2009.15
873.3386	1285.2885	3073.2	2173.3
873.483	1287.181	3177.85	2278.5
873.6274	1289.0727	3210.95	2312.1
873.7717	1290.9637	3163.35	2264.05
873.9161	1292.854	3091.65	2192.1
874.0604	1294.7435	2994.15	2094.55
874.2047	1296.6323	2915.6	2015.6
874.349	1298.5204	2841.3	1935.3
874.4933	1300.4077	2785.45	1881.05
874.6376	1302.2943	2726.3	1825.8
874.7819	1304.1802	2683.1	1784.2
874.9262	1306.0653	2664	1760.95
875.0705	1307.9497	2611.8	1711.9
875.2147	1309.8333	2568.25	1668
875.359	1311.7162	2533.1	1631.7
875.5032	1313.5984	2503.05	1600.7
875.6475	1315.4798	2467.15	1566.05
875.7917	1317.3605	2470.05	1553.15
875.9359	1319.2405	2443.6	1541.55
876.0801	1321.1197	2385.85	1485.3
876.2243	1322.9982	2345.5	1441.35
876.3685	1324.876	2253.2	1351
876.5127	1326.753	2169.9	1269.6
876.6569	1328.6293	2085.2	1183.65
876.801	1330.5048	2023.3	1120
876.9452	1332.3796	1950.5	1050.4
877.0893	1334.2537	1933.65	1008.95
877.2335	1336.127	1867.75	967.55
877.3776	1337.9996	1846.7	946.85
877.5217	1339.8714	1835.95	933.7
877.6658	1341.7426	1860.75	915.8
877.8099	1343.6129	1804.4	902.15
877.954	1345.4826	1798.45	896.6
878.0981	1347.3515	1782.45	878.6
878.2422	1349.2196	1778.3	873.45
878.3862	1351.087	1762.1	862.7
878.5303	1352.9537	1754.75	852.75
878.6743	1354.8197	1753	852.1
878.8184	1356.6849	1768.8	866.35
878.9624	1358.5493	1787.5	885.95
879.1064	1360.4131	1815.5	913.3
879.2504	1362.276	1857.7	957.75
879.3944	1364.1383	1882.65	983.15
879.5384	1365.9998	1890.1	983.55
879.6823	1367.8606	1869.95	970.45
879.8263	1369.7206	1858.4	956.2
879.9702	1371.5799	1867.4	963.35
880.1142	1373.4384	1853.05	950.8
880.2581	1375.2962	1816.1	916.5
880.402	1377.1533	1766.75	864.7
880.5459	1379.0096	1722.25	822.4
880.6898	1380.8652	1689.85	791.6
880.8337	1382.7201	1662.4	761.8
880.9776	1384.5742	1637.45	735.95
881.1215	1386.4275	1623.35	721.8
881.2653	1388.2802	1606.85	706.25
881.4092	1390.132	1594.4	692.55
881.553	1391.9832	1572.25	669.85
881.6968	1393.8336	1562.3	662.05
881.8406	1395.6832	1563.6	659.45
881.9844	1397.5322	1553.7	653.9
882.1282	1399.3803	1550.3	645.95
882.272	1401.2278	1529.75	627.6
882.4158	1403.0745	1528.9	628.3
882.5595	1404.9204	1515.7	615.85
882.7033	1406.7656	1518.3	618.55
882.847	1408.6101	1510.55	610.15
882.9908	1410.4538	1518.65	616.05
883.1345	1412.2968	1513.95	614.6
883.2782	1414.139	1519.55	618.4
883.4219	1415.9805	1525.1	626.05
883.5656	1417.8213	1554.9	631.45
883.7092	1419.6613	1545.35	645.05
883.8529	1421.5006	1588	686.9
883.9965	1423.3391	1610.5	709.7
884.1402	1425.1769	1659.55	760.35
884.2838	1427.0139	1737.35	834.95
884.4274	1428.8502	1810.4	907.7
884.571	1430.6858	1876.5	977.6
884.7146	1432.5206	1903.45	1002.8
884.8582	1434.3547	1893.65	993.05
885.0018	1436.188	1877.15	977.45
885.1453	1438.0206	1865.7	966.4
885.2889	1439.8524	1846.6	947.2
885.4324	1441.6835	1844.2	945.6
885.5759	1443.5139	1844.15	939
885.7194	1445.3435	1848.1	945.4
885.8629	1447.1724	1856.75	956.95
886.0064	1449.0005	1854.25	957.2
886.1499	1450.8279	1836.9	938.25
886.2933	1452.6545	1833.95	933.95
886.4368	1454.4804	1829.45	931.75
886.5802	1456.3056	1839.35	932.9
886.7237	1458.13	1807.95	909.6
886.8671	1459.9536	1779.55	878.1
887.0105	1461.7766	1740.2	840.8
887.1539	1463.5987	1705.55	804.3
887.2972	1465.4202	1673.05	774.5
887.4406	1467.2409	1644.05	746
887.584	1469.0608	1610.45	712.85
887.7273	1470.88	1564.45	664.95
887.8706	1472.6984	1551.4	653.65
888.0139	1474.5161	1529.45	628.1
888.1572	1476.3331	1512.5	616.4
888.3005	1478.1493	1505.8	605.4
888.4438	1479.9648	1498.7	598.3
888.5871	1481.7795	1503.5	603.9
888.7303	1483.5935	1504.75	605.7
888.8736	1485.4067	1504.8	606.05
889.0168	1487.2192	1502.75	602
889.16	1489.031	1504.1	604.2
889.3032	1490.842	1499.3	600.75
889.4464	1492.6522	1498	595.5
889.5896	1494.4618	1495.95	597.05
889.7327	1496.2705	1492.05	592.45
889.8759	1498.0785	1485.3	584.9
890.019	1499.8858	1475.8	575.35
890.1622	1501.6924	1471.6	572.75
890.3053	1503.4981	1460.6	561.4
890.4484	1505.3032	1458.35	559.9
890.5914	1507.1075	1448.6	549.8
890.7345	1508.911	1447.5	546.95
890.8776	1510.7138	1437.7	539.1
891.0206	1512.5159	1430.5	531.85
891.1637	1514.3172	1425.15	526.4
891.3067	1516.1178	1410.9	510.35
891.4497	1517.9176	1414.85	514.9
891.5927	1519.7166	1404.2	505.65
891.7357	1521.515	1410.8	504.7
891.8786	1523.3126	1392.85	495.65
892.0216	1525.1094	1392.45	494.55
892.1645	1526.9055	1387.55	489
892.3074	1528.7008	1383.9	486.15
892.4503	1530.4954	1393.3	491.6
892.5932	1532.2893	1374.35	476.55
892.7361	1534.0824	1381.65	479.4
892.879	1535.8747	1377.35	483.55
893.0218	1537.6663	1372.35	474.7
893.1647	1539.4572	1366.95	468.55
893.3075	1541.2473	1370.95	473.65
893.4503	1543.0367	1373.95	477.6
893.5931	1544.8253	1381.8	481.1
893.7359	1546.6132	1381.8	481.25
893.8787	1548.4003	1395.55	490.05
894.0214	1550.1867	1401.5	496.2
894.1642	1551.9723	1404.8	502.25
894.3069	1553.7572	1414.6	517.4
894.4496	1555.5414	1436.55	541.15
894.5923	1557.3247	1466.4	571.35
894.735	1559.1074	1496.95	602.2
894.8777	1560.8893	1539.15	645.8
895.0204	1562.6705	1565.35	672.4
895.163	1564.4509	1585.95	691.35
895.3056	1566.2305	1587.8	693.05
895.4482	1568.0094	1587.2	695
895.5908	1569.7876	1585.3	692.8
895.7334	1571.565	1577.35	682.85
895.876	1573.3417	1583.85	691.4
896.0186	1575.1176	1589.65	694.45
896.1611	1576.8928	1603.95	712.2
896.3036	1578.6672	1618.65	727.65
896.4461	1580.4409	1640.75	749.2
896.5886	1582.2138	1671.25	778.05
896.7311	1583.986	1698.4	806.6
896.8736	1585.7575	1722.55	831.45
897.0161	1587.5282	1761.35	871.5
897.1585	1589.2981	1778.25	887.9
897.3009	1591.0673	1798.55	908.4
897.4433	1592.8358	1808.45	916.65
897.5857	1594.6035	1817.4	922.95
897.7281	1596.3704	1807.55	913.35
897.8705	1598.1366	1793	898.2
898.0128	1599.9021	1783.95	893.35
898.1551	1601.6668	1750.6	857.9
898.2975	1603.4308	1756.05	864.1
898.4398	1605.194	1768.3	872.35
898.5821	1606.9564	1786.5	897.3
898.7243	1608.7182	1856.75	966.2
898.8666	1610.4791	1913.65	1027.35
899.0088	1612.2394	2003.45	1119.05
899.1511	1613.9988	2086.2	1197.7
899.2933	1615.7576	2131.4	1241.9
899.4355	1617.5156	2159.95	1265.15
899.5776	1619.2728	2106.4	1213.05
899.7198	1621.0293	2018.4	1126.95
899.862	1622.785	1916.7	1021.3
900.0041	1624.54	1815.35	922.95
900.1462	1626.2942	1708.8	817.55
900.2883	1628.0477	1615.55	723.95
900.4304	1629.8005	1557.45	663.9
900.5725	1631.5525	1496.05	605.2
900.7145	1633.3037	1446.95	556.75
900.8566	1635.0542	1417.9	530.9
900.9986	1636.804	1377.3	488.5
901.1406	1638.553	1430.25	470.7
901.2826	1640.3013	1347.45	458.2
901.4245	1642.0488	1327.15	435.7
901.5665	1643.7955	1313.2	425.5
901.7085	1645.5416	1310	423.7
901.8504	1647.2868	1291.85	402.95
901.9923	1649.0313	1286.8	396.2
902.1342	1650.7751	1283.7	390.6
902.2761	1652.5181	1277.55	389.5
902.4179	1654.2604	1285.45	395.05
902.5598	1656.0019	1287.1	398.5
902.7016	1657.7427	1301.85	412.15
902.8434	1659.4828	1328.3	438.2
902.9852	1661.222	1359.3	468.45
903.127	1662.9606	1373.4	482.9
903.2687	1664.6984	1401.85	509.95
903.4105	1666.4354	1390.85	498.1
903.5522	1668.1717	1363.45	469.25
903.6939	1669.9072	1324.15	431.7
903.8356	1671.642	1286.1	392.5
903.9773	1673.3761	1258.15	368
904.119	1675.1094	1234.15	344.25
904.2606	1676.8419	1222.2	332.95
904.4022	1678.5737	1206.15	315.3
904.5439	1680.3048	1198.4	309.65
904.6855	1682.0351	1189.55	300.05
904.827	1683.7646	1189	292.95
904.9686	1685.4934	1182.1	291.4
905.1101	1687.2215	1176.05	283.8
905.2517	1688.9488	1168.25	279.9
905.3932	1690.6754	1166.7	278.2
905.5347	1692.4012	1167.2	277
905.6761	1694.1263	1158.6	267.95
905.8176	1695.8506	1158.2	265.7
905.9591	1697.5742	1155.95	267.2
906.1005	1699.297	1146.4	261.55
906.2419	1701.0191	1145.55	256.25
906.3833	1702.7404	1147	260.7
906.5246	1704.461	1150.8	260.05
906.666	1706.1808	1144.95	252.75
906.8073	1707.8999	1141.65	251.3
906.9487	1709.6182	1143.2	254.25
907.09	1711.3358	1133.65	246.9
907.2313	1713.0527	1132.5	246
907.3725	1714.7688	1139.75	248.7
907.5138	1716.4841	1135.45	246.1
907.655	1718.1987	1137.5	242.55
907.7962	1719.9126	1131.6	245.95
907.9374	1721.6257	1128.15	238
908.0786	1723.338	1127.15	239.2
908.2198	1725.0496	1129.9	239.7
908.3609	1726.7605	1129	240.05
908.502	1728.4706	1126.9	237.65
908.6431	1730.18	1121.3	231.75
908.7842	1731.8886	1123.75	236.95
908.9253	1733.5964	1142.3	232.6
909.0664	1735.3036	1123.4	233.55
909.2074	1737.0099	1122	234.45
909.3484	1738.7156	1117.25	231.6
909.4894	1740.4204	1121.15	230.65
909.6304	1742.1246	1121.15	233.4
909.7714	1743.8279	1117.3	229.8
909.9123	1745.5306	1115.3	228.9
910.0532	1747.2325	1112.75	226.55
910.1941	1748.9336	1122.15	235.1
910.335	1750.634	1119.5	229.85
910.4759	1752.3336	1115.6	228.05
910.6168	1754.0325	1111.8	225.15
910.7576	1755.7307	1117.1	230.45
910.8984	1757.4281	1114.4	227.75
911.0392	1759.1247	1124.3	227.45
911.18	1760.8206	1116.65	222.2
911.3208	1762.5158	1118	226.05
911.4615	1764.2102	1114	226.95
911.6022	1765.9039	1108.55	218.45
911.7429	1767.5968	1107.2	220.25
911.8836	1769.289	1104.5	217.8
912.0243	1770.9804	1107.85	218.6
912.1649	1772.6711	1110.7	220.6
912.3056	1774.361	1107.45	217.15
912.4462	1776.0502	1107.7	219.05
912.5868	1777.7386	1111.15	217.85
912.7274	1779.4263	1105.95	217.55
912.8679	1781.1132	1103.7	215.6
913.0084	1782.7994	1103.45	218.25
913.149	1784.4849	1100.1	214.9
913.2895	1786.1696	1118.7	215.25
913.4299	1787.8535	1096.95	210.4
913.5704	1789.5367	1101.15	216.95
913.7108	1791.2192	1099.85	215.6
913.8513	1792.9009	1123.3	210
913.9917	1794.5818	1102.7	213.25
914.132	1796.2621	1098.35	210.4
914.2724	1797.9415	1098.55	209.8
914.4128	1799.6202	1098.35	209.35
914.5531	1801.2982	1096.75	209.3
914.6934	1802.9755	1098.2	210.1
914.8337	1804.6519	1095.05	207.75
914.9739	1806.3277	1095.2	209.15
915.1142	1808.0027	1091.5	207.05
915.2544	1809.6769	1089.2	203.7
915.3946	1811.3504	1087.3	200.7
915.5348	1813.0231	1091.1	203.8
915.675	1814.6951	1091.7	206.35
915.8151	1816.3664	1091.35	202.9
915.9553	1818.0369	1089.95	204.5
916.0954	1819.7067	1088.2	200.85
916.2355	1821.3757	1087.25	195.2
916.3755	1823.044	1080.85	192.6
916.5156	1824.7115	1086.35	198.85
916.6556	1826.3783	1086.1	198.95
916.7956	1828.0443	1086	198.85
916.9356	1829.7096	1088	199.6
917.0756	1831.3741	1087.7	196.75
917.2155	1833.0379	1084.35	198.7
917.3555	1834.701	1084.85	198.15
917.4954	1836.3633	1081.2	193.15
917.6353	1838.0248	1083.85	196
917.7751	1839.6856	1081.4	193.75
917.915	1841.3457	1075.45	190.3
918.0548	1843.005	1077.35	189.6
918.1946	1844.6636	1082.1	196.4
918.3344	1846.3214	1079.05	191.65
918.4742	1847.9785	1081.75	193.5
918.6139	1849.6349	1078.6	190.45
918.7537	1851.2904	1091.15	192.7
918.8934	1852.9453	1079.85	191.5
919.0331	1854.5994	1076.35	186.4
919.1727	1856.2528	1083.05	189.4
919.3124	1857.9054	1074.1	185.15
919.452	1859.5572	1072.9	187.35
919.5916	1861.2083	1071.4	182.65
919.7312	1862.8587	1076.85	189.2
919.8708	1864.5084	1072.25	182.2
920.0103	1866.1572	1072.7	183.6
920.1498	1867.8054	1078.25	189.65
920.2893	1869.4528	1076.1	186
920.4288	1871.0994	1074.35	187.25
920.5683	1872.7453	1070.15	179.15
920.7077	1874.3905	1080.25	186.7
920.8471	1876.0349	1070.6	182.1
920.9865	1877.6786	1076.95	186.55
921.1259	1879.3215	1063.25	178.6
921.2653	1880.9637	1068.8	180.7
921.4046	1882.6051	1072.6	185.05
921.5439	1884.2458	1068.25	179.65
921.6832	1885.8858	1069	179.95
921.8225	1887.525	1067.95	179.1
921.9617	1889.1634	1066.25	177.55
922.101	1890.8011	1070.7	181.65
922.2402	1892.4381	1065.8	177
922.3794	1894.0743	1060	173.45
922.5185	1895.7098	1066.4	179.05
922.6577	1897.3446	1064.3	175.65
922.7968	1898.9786	1069.05	175.9
922.9359	1900.6118	1064.75	178.5
923.075	1902.2443	1065.85	177.95
923.214	1903.8761	1060.2	172.3
923.3531	1905.5071	1061.05	171.4
923.4921	1907.1374	1058.95	170.9
923.6311	1908.7669	1056.8	166.8
923.77	1910.3957	1060.65	172.65
923.909	1912.0237	1057.2	167.75
924.0479	1913.651	1055.75	167
924.1868	1915.2776	1054.45	165.7
924.3257	1916.9034	1054.4	167.45
924.4646	1918.5285	1060.5	173.55
924.6034	1920.1528	1057.7	168.6
924.7422	1921.7764	1053.8	166.8
924.881	1923.3992	1057.65	169.15
925.0198	1925.0213	1055.15	166.35
925.1586	1926.6427	1053.9	167
925.2973	1928.2633	1261.45	161.05
925.436	1929.8832	1056.4	164.9
925.5747	1931.5023	1054.6	168.2
925.7134	1933.1207	1053.2	167.9
925.852	1934.7383	1056.85	169.6
925.9906	1936.3552	1047.6	161.35
926.1292	1937.9714	1050.8	162.7
926.2678	1939.5868	1050.7	161.4
926.4064	1941.2015	1054.05	165.8
926.5449	1942.8154	1047.4	158.7
926.6834	1944.4286	1047.15	158.9
926.8219	1946.041	1073.85	162.85
926.9604	1947.6528	1051.75	159.6
927.0988	1949.2637	1046.05	159.4
927.2372	1950.8739	1044.15	155.55
927.3756	1952.4834	1047.35	158.9
927.514	1954.0921	1047.8	161.05
927.6523	1955.7001	1046.25	152.85
927.7907	1957.3074	1043.6	157.95
927.929	1958.9139	1039.9	152.5
928.0673	1960.5197	1043.85	157.85
928.2055	1962.1247	1042.45	157.05
928.3438	1963.729	1043	157.85
928.482	1965.3325	1046.45	154.55
928.6202	1966.9353	1041.1	156.1
928.7584	1968.5374	1037.75	150.55
928.8965	1970.1387	1045.4	159.5
929.0346	1971.7393	1044.05	159.15
929.1727	1973.3392	1040.25	154.15
929.3108	1974.9383	1036.8	151.9
929.4489	1976.5366	1034.05	150.25
929.5869	1978.1342	1035.8	152
929.7249	1979.7311	1034.9	150
929.8629	1981.3273	1038.85	156.5
930.0009	1982.9227	1036.4	150.3
930.1388	1984.5173	1036.1	151.85
930.2767	1986.1112	1030.3	146.25
930.4146	1987.7044	1038.85	158.4
930.5525	1989.2968	1036	149.9
930.6904	1990.8885	1034.95	147.95
930.8282	1992.4795	1033.85	148.1
930.966	1994.0697	1032.35	150.8
931.1038	1995.6592	1032.95	149.5
931.2415	1997.2479	1034.4	150.75
931.3793	1998.8359	1029.35	146.35
931.517	2000.4232	1029.1	146.95
931.6547	2002.0097	1030.95	152.15
931.7923	2003.5955	1028.2	145
931.93	2005.1805	1029.25	143.9
932.0676	2006.7648	1026.75	143.1
932.2052	2008.3484	1032.8	148
932.3427	2009.9312	1029.4	148.75
932.4803	2011.5133	1024.5	143.35
932.6178	2013.0946	1027.9	146.25
932.7553	2014.6752	1027.35	147.6
932.8928	2016.2551	1027.25	144.15
933.0302	2017.8342	1030.1	147.95
933.1676	2019.4126	1030.15	149.3
933.305	2020.9902	1027.75	146.7
933.4424	2022.5672	1029.55	149.95
933.5798	2024.1433	1033.2	146
933.7171	2025.7188	1019.65	139.75
933.8544	2027.2935	1025.7	142.6
933.9917	2028.8674	1020.85	141.55
934.129	2030.4406	1024.9	144.6
934.2662	2032.0131	1026.5	147.7
934.4034	2033.5849	1031.8	144.8
934.5406	2035.1559	1021.4	143.65
934.6778	2036.7261	1026.8	145.75
934.8149	2038.2957	1026	144.95
934.952	2039.8645	1026.65	142.05
935.0891	2041.4325	1030.65	145.2
935.2262	2042.9998	1021.8	140.55
935.3632	2044.5664	1029.2	147.2
935.5002	2046.1323	1019.9	141.5
935.6372	2047.6974	1023.45	144.4
935.7742	2049.2617	1018.55	137.7
935.9111	2050.8254	1028.2	143.9
936.048	2052.3883	1027.3	144.8
936.1849	2053.9504	1025.75	143.85
936.3218	2055.5118	1025.3	142.85
936.4586	2057.0725	1024.65	139.1
936.5955	2058.6325	1021.35	141.85
936.7323	2060.1917	1024.3	142.3
936.869	2061.7502	1023.6	141.5
937.0058	2063.3079	1021.35	141.5
937.1425	2064.8649	1024.1	140.4
937.2792	2066.4212	1024.05	144.1
937.4159	2067.9767	1020	136.85
937.5525	2069.5315	1020.65	140.5
937.6891	2071.0856	1019.85	137.3
937.8257	2072.6389	1018.9	137.15
937.9623	2074.1915	1014.1	136.15
938.0989	2075.7433	1021.1	137.8
938.2354	2077.2945	1021.35	141.7
938.3719	2078.8448	1019.9	138.85
938.5084	2080.3945	1020.65	139.6
938.6448	2081.9434	1024	142.15
938.7812	2083.4916	1024	139.45
938.9176	2085.039	1025.75	141.6
939.054	2086.5857	1025.7	140.6
939.1903	2088.1317	1019.15	132.8
939.3267	2089.677	1021.6	135.7
939.463	2091.2215	1022.95	137.15
939.5992	2092.7652	1020.25	132.4
939.7355	2094.3083	1020.35	134.35
939.8717	2095.8506	1021.85	139.2
940.0079	2097.3921	1014.9	132.35
940.1441	2098.933	1019	134.3
940.2802	2100.4731	1017.3	134.05
940.4163	2102.0124	1038.15	138.4
940.5524	2103.5511	1019.8	136.4
940.6885	2105.089	1020.4	135.65
940.8245	2106.6261	1019	136.85
940.9606	2108.1626	1021.55	137.6
941.0965	2109.6983	1042.2	130.5
941.2325	2111.2332	1021.25	136.75
941.3684	2112.7675	1017.1	133.4
941.5044	2114.301	1023	137.2
941.6403	2115.8337	1023.25	139.8
941.7761	2117.3657	1017.8	136.55
941.912	2118.897	1015.05	130.3
942.0478	2120.4276	1026.95	135.55
942.1835	2121.9575	1021.7	137.5
942.3193	2123.4866	1021.25	133.45
942.455	2125.0149	1021.4	134
942.5907	2126.5426	1015.4	135.05
942.7264	2128.0695	1016.3	133.95
942.8621	2129.5956	1009.2	130.7
942.9977	2131.1211	1014.4	128.95
943.1333	2132.6458	1016.6	135.15
943.2689	2134.1698	1020.25	137.05
943.4044	2135.693	1024	138.4
943.54	2137.2155	1019.7	134.1
943.6755	2138.7373	1015.8	133.1
943.8109	2140.2584	1009.8	127.5
943.9464	2141.7787	1017.1	130.75
944.0818	2143.2983	1015.45	138.5
944.2172	2144.8171	1011.65	133.1
944.3526	2146.3353	1016.25	132.65
944.4879	2147.8527	1014.4	133.8
944.6232	2149.3693	1017.1	133.15
944.7585	2150.8853	1015.45	132.2
944.8938	2152.4005	1016.6	132.25
945.029	2153.9149	1016	130.55
945.1642	2155.4287	1013.35	131.25
945.2994	2156.9417	1014.65	130.4
945.4346	2158.454	1018.9	134.5
945.5697	2159.9655	1013.8	133.9
945.7048	2161.4764	1012.75	130.25
945.8399	2162.9865	1012.3	133
945.9749	2164.4958	1008.1	124.75
946.1099	2166.0045	1017.05	131.55
946.2449	2167.5124	1013.05	130.6
946.3799	2169.0195	1008.3	126
946.5148	2170.526	1009.35	125.25
946.6498	2172.0317	1012.45	129.25
946.7846	2173.5367	1014.15	127.9
946.9195	2175.0409	1013.95	132.3
947.0543	2176.5445	1010.7	130.2
947.1891	2178.0473	1010.6	126.65
947.3239	2179.5494	1015.9	128.7
947.4587	2181.0507	1015	131.1
947.5934	2182.5513	1006.3	120.65
947.7281	2184.0512	1006.1	123.3
947.8628	2185.5504	1008.55	124.6
947.9974	2187.0488	1009.45	128.8
948.132	2188.5465	1006.75	123.9
948.2666	2190.0435	1009.65	128.2
948.4012	2191.5397	1010.7	127.05
948.5357	2193.0353	1007.45	124.5
948.6702	2194.5301	1008.55	122.85
948.8047	2196.0241	1010.85	125.7
948.9392	2197.5175	1010.75	126.55
949.0736	2199.0101	1011.8	123.8
949.208	2200.502	1006.5	122.3
949.3424	2201.9931	1003.75	123.15
949.4767	2203.4835	1007.2	127.15
949.611	2204.9733	1009.4	121.35
949.7453	2206.4622	1003.15	124.15
949.8796	2207.9505	1005.9	120.15
950.0138	2209.438	1001.85	122.4
950.148	2210.9248	1006.95	123.25
950.2822	2212.4109	1002.55	120.7
950.4164	2213.8962	1008.95	124.45
950.5505	2215.3809	1004.75	118.65
950.6846	2216.8648	1007.1	121.25
950.8186	2218.3479	1010.3	121.4
950.9527	2219.8304	1005.05	118
951.0867	2221.3121	1005.55	118.05
951.2207	2222.7931	1003.25	118.75
951.3546	2224.2733	1003.7	116.45
951.4886	2225.7529	998.75	115.7
951.6225	2227.2317	1004.8	119.4
951.7563	2228.7098	998	118.7
951.8902	2230.1872	998.2	118.2
952.024	2231.6638	999.05	117.45
952.1578	2233.1397	1001.1	116.7
952.2916	2234.6149	998.15	118.5
952.4253	2236.0894	996.25	114
952.559	2237.5632	1006.25	114.15
952.6927	2239.0362	995.85	113.05
952.8263	2240.5085	998.1	116.55
952.9599	2241.9801	1000.45	117.75
953.0935	2243.4509	998.25	115.55
953.2271	2244.921	999.05	115.1
953.3606	2246.3904	1001.95	115.95
953.4941	2247.8591	995.5	111.85
953.6276	2249.3271	998.35	115.4
953.7611	2250.7943	998.35	114.55
953.8945	2252.2608	994.6	111.55
954.0279	2253.7266	996.05	112.35
954.1612	2255.1917	993.95	110.7
954.2946	2256.656	993.55	109.25
954.4279	2258.1197	992.6	111.5
954.5612	2259.5826	998.3	115.25
954.6944	2261.0447	996.3	113.5
954.8276	2262.5062	994.15	107.95
954.9608	2263.9669	997.6	112.95
955.094	2265.4269	992.55	109.5
955.2271	2266.8862	989.7	109.25
955.3602	2268.3448	993.2	109.85
955.4933	2269.8026	991.5	109.1
955.6264	2271.2598	991.45	108.8
955.7594	2272.7162	989.65	107.95
955.8924	2274.1719	993.35	109.9
956.0253	2275.6268	992.75	109.8
956.1583	2277.0811	994.1	111.05
956.2912	2278.5346	989.95	109
956.4241	2279.9874	991.75	109.25
956.5569	2281.4395	990.95	111.55
956.6897	2282.8908	997.8	110.05
956.8225	2284.3414	990.55	106.4
956.9553	2285.7914	985.5	105
957.088	2287.2406	994.45	109.35
957.2207	2288.689	993.45	107.65
957.3534	2290.1368	993.2	106.85
957.486	2291.5838	994.35	104.35
957.6186	2293.0302	996.05	109.95
957.7512	2294.4758	989	104.8
957.8838	2295.9206	991.1	105.05
958.0163	2297.3648	985.65	101.75
958.1488	2298.8082	984.15	99.65
958.2813	2300.251	992.65	109.65
958.4137	2301.693	992.75	106.05
958.5461	2303.1343	993.95	111.1
958.6785	2304.5748	989.55	106.85
958.8108	2306.0147	987.05	104.8
958.9432	2307.4538	988.85	104.45
959.0754	2308.8922	983.4	101.4
959.2077	2310.3299	985.9	104
959.3399	2311.7669	987.5	105.45
959.4721	2313.2031	983.95	99.85
959.6043	2314.6387	988.35	106.15
959.7365	2316.0735	984.95	103.35
959.8686	2317.5076	983.35	99.55
960.0006	2318.941	985.1	101.8
960.1327	2320.3737	988.45	104.2
960.2647	2321.8056	986	100.75
960.3967	2323.2369	986.25	101.7
960.5287	2324.6674	990.05	102.8
960.6606	2326.0972	991.6	106.3
960.7925	2327.5263	989.95	107.35
960.9244	2328.9547	991.8	106.5
961.0562	2330.3823	990.05	103.6
961.1881	2331.8092	992.9	106.3
961.3198	2333.2355	988.1	102.75
961.4516	2334.661	986	102.25
961.5833	2336.0858	984.35	98.5
961.715	2337.5098	982.45	98.15
961.8467	2338.9332	981.6	97
961.9783	2340.3558	984.3	98.15
962.1099	2341.7778	984.35	102
962.2415	2343.199	982.3	96.5
962.373	2344.6195	981.8	96.95
962.5045	2346.0393	980.15	98.35
962.636	2347.4583	983.25	99.7
962.7675	2348.8767	981.25	96.5
962.8989	2350.2943	984.95	99
963.0303	2351.7113	983.65	98.5
963.1617	2353.1275	980.7	95.15
963.293	2354.543	1009	99.7
963.4243	2355.9578	979.8	96.05
963.5556	2357.3718	979.5	96.95
963.6868	2358.7852	980.75	95.55
963.818	2360.1978	979	95
963.9492	2361.6098	976.55	91.55
964.0803	2363.021	984.85	97.9
964.2114	2364.4315	977.35	93.6
964.3425	2365.8413	982.3	97.85
964.4736	2367.2504	976.1	91.9
964.6046	2368.6587	977.25	94.1
964.7356	2370.0664	976.55	90.75
964.8666	2371.4733	976.75	93.15
964.9975	2372.8795	977.8	93.65
965.1284	2374.285	976.85	91.5
965.2593	2375.6899	976.65	92.7
965.3901	2377.0939	979.85	94.65
965.5209	2378.4973	977.9	92.7
965.6517	2379.9	979.35	94.15
965.7825	2381.3019	975.7	91.1
965.9132	2382.7032	976.3	92
966.0439	2384.1037	971.5	89.8
966.1745	2385.5035	973.9	90.05
966.3051	2386.9027	974.55	93.25
966.4357	2388.3011	976.5	88.65
966.5663	2389.6987	976.35	93.35
966.6968	2391.0957	976.6	93.75
966.8273	2392.492	971.65	85.5
966.9578	2393.8876	973.3	87.4
967.0882	2395.2824	972.95	86.95
967.2186	2396.6765	973.15	88.8
967.349	2398.07	971.6	86.25
967.4793	2399.4627	975.15	86.8
967.6097	2400.8547	977.05	90.55
967.7399	2402.246	978.7	87.95
967.8702	2403.6366	974.9	87.05
968.0004	2405.0265	967.95	82.4
968.1306	2406.4156	968.35	77.95
968.2607	2407.8041	974.95	84.15
968.3909	2409.1918	974.1	82.25
968.521	2410.5789	971.45	84.05
968.651	2411.9652	969.3	81
968.781	2413.3508	967.75	82.7
968.911	2414.7358	969.5	83.1
969.041	2416.12	965.5	81.05
969.1709	2417.5035	970.3	85.2
969.3008	2418.8863	972.15	84.95
969.4307	2420.2684	968.4	81.3
969.5606	2421.6497	969.45	82.05
969.6904	2423.0304	966.2	81.9
969.8201	2424.4104	969.15	83.8
969.9499	2425.7896	978.3	87.1
970.0796	2427.1682	967.8	81.65
970.2093	2428.546	966.8	78.3
970.3389	2429.9232	967.25	81.65
970.4685	2431.2996	967.65	81.5
970.5981	2432.6753	968.5	81.65
970.7277	2434.0503	968.1	81.05
970.8572	2435.4246	966.8	80.95
970.9867	2436.7982	970.8	84.25
971.1161	2438.1711	964.85	79.95
971.2456	2439.5433	966.95	80.4
971.375	2440.9148	970.8	78.6
971.5043	2442.2856	964.55	77.95
971.6336	2443.6557	967.45	80.75
971.7629	2445.025	964.4	78.3
971.8922	2446.3937	965.4	79.8
972.0214	2447.7617	961.3	74.95
972.1506	2449.1289	962.9	77
972.2798	2450.4955	970.35	82.5
972.4089	2451.8613	961.55	77.15
972.538	2453.2265	963.45	77.4
972.6671	2454.5909	962.25	77
972.7961	2455.9546	960.55	73.95
972.9251	2457.3177	961.25	75.8
973.0541	2458.68	964.8	77.85
973.1831	2460.0416	962.1	78.1
973.312	2461.4025	966.1	80.05
973.4408	2462.7627	974.25	77
973.5697	2464.1222	956	71.8
973.6985	2465.4811	960.45	74.85
973.8273	2466.8392	960.3	77.9
973.956	2468.1966	962.95	77.1
974.0847	2469.5533	961.4	72.6
974.2134	2470.9093	960.5	75.6
974.3421	2472.2645	961.25	74.05
974.4707	2473.6191	961	76.3
974.5993	2474.973	962.7	76.9
974.7278	2476.3262	961.2	75.05
974.8563	2477.6787	961.3	78.9
974.9848	2479.0305	958.7	73.75
975.1132	2480.3816	960.15	72.4
975.2417	2481.7319	959.35	75.6
975.37	2483.0816	959.9	73.35
975.4984	2484.4306	959.05	74.45
975.6267	2485.7789	956.2	72.45
975.755	2487.1264	958.85	73.85
975.8833	2488.4733	957	74.15
976.0115	2489.8195	975.55	74.85
976.1397	2491.165	963.2	75.5
976.2678	2492.5097	958.85	73.1
976.3959	2493.8538	953.9	69.55
976.524	2495.1972	956.5	71
976.6521	2496.5398	960.3	73.4
976.7801	2497.8818	960.65	75.25
976.9081	2499.2231	957	72.3
977.036	2500.5637	958.3	71.55
977.164	2501.9035	958.35	72.75
977.2918	2503.2427	960.6	71.1
977.4197	2504.5812	958.2	72.35
977.5475	2505.919	956.4	70.45
977.6753	2507.256	954.85	70.8
977.8031	2508.5924	954.5	70.15
977.9308	2509.9281	960.9	71.1
978.0585	2511.2631	956.5	73.25
978.1861	2512.5974	952.8	70.75
978.3137	2513.9309	954.6	71.15
978.4413	2515.2638	981.7	72.55
978.5689	2516.596	953.85	68.05
978.6964	2517.9275	955.6	71.75
978.8239	2519.2583	954.65	67.5
978.9513	2520.5884	953.6	69.1
979.0788	2521.9178	953.05	68.35
979.2062	2523.2465	949.95	67.25
979.3335	2524.5745	952.25	67.15
979.4608	2525.9018	956.2	71.65
979.5881	2527.2284	951.4	67.55
979.7154	2528.5543	948.7	66.1
979.8426	2529.8796	951.4	66
979.9698	2531.2041	947.95	62.55
980.0969	2532.5279	950.55	66.85
980.224	2533.851	951	67.1
980.3511	2535.1735	952.3	68.7
980.4781	2536.4952	953.1	68.3
980.6052	2537.8163	952.8	67
980.7321	2539.1366	952	70.85
980.8591	2540.4562	954.15	67.7
980.986	2541.7752	952.35	69.2
981.1129	2543.0935	949.2	65.7
981.2397	2544.411	952.8	65.65
981.3665	2545.7279	950.2	65.25
981.4933	2547.0441	953.95	69.4
981.62	2548.3596	954.85	67.3
981.7467	2549.6744	950.7	66.4
981.8734	2550.9885	955.95	63.6
982.0001	2552.3019	949.2	64.6
982.1267	2553.6146	947.65	63.2
982.2532	2554.9266	949.85	64.35
982.3798	2556.2379	951.1	65.25
982.5063	2557.5485	948.75	64.8
982.6327	2558.8585	957.75	65.3
982.7592	2560.1677	953	65.95
982.8856	2561.4762	947.65	63.25
983.0119	2562.7841	951.45	62.95
983.1383	2564.0913	948	66.45
983.2646	2565.3977	949.35	64.05
983.3908	2566.7035	949	62.2
983.517	2568.0086	947	61.2
983.6432	2569.313	946.8	61.95
983.7694	2570.6167	949.15	59.75
983.8955	2571.9197	946.6	61.95
984.0216	2573.222	950.5	62.9
984.1476	2574.5236	948.25	62.4
984.2737	2575.8246	950	63.9
984.3996	2577.1248	948.1	61.45
984.5256	2578.4244	946.25	61.25
984.6515	2579.7232	944.6	59
984.7774	2581.0214	970.05	61.05
984.9032	2582.3189	947.05	63.35
985.029	2583.6157	953.35	65.35
985.1548	2584.9118	948.15	63.5
985.2806	2586.2072	944.1	61.9
985.4063	2587.5019	949.8	65.8
985.5319	2588.7959	946.45	60
985.6576	2590.0893	948.05	62.75
985.7832	2591.3819	945.35	61.65
985.9087	2592.6739	944.65	59.95
986.0343	2593.9652	949	61.65
986.1597	2595.2557	946.05	62.25
986.2852	2596.5456	946.8	60.05
986.4106	2597.8348	950.5	66.3
986.536	2599.1234	943.5	57.65
986.6614	2600.4112	945.2	62.2
986.7867	2601.6983	948.2	61.5
986.912	2602.9848	943.25	60.4
987.0372	2604.2705	953.35	61.7
987.1624	2605.5556	946.25	61.7
987.2876	2606.84	945.3	61.2
987.4128	2608.1237	946.25	62.2
987.5379	2609.4067	942.95	58.55
987.6629	2610.689	949.25	57.6
987.788	2611.9707	949.85	61.45
987.913	2613.2516	946.35	59.55
988.0379	2614.5319	940.2	56.25
988.1629	2615.8115	942.5	56.95
988.2878	2617.0903	947.15	63.45
988.4126	2618.3685	945.8	62.2
988.5375	2619.6461	939.55	56.7
988.6622	2620.9229	939.45	57.6
988.787	2622.199	940.9	56.8
988.9117	2623.4745	940.4	56.85
989.0364	2624.7493	936.75	55.05
989.161	2626.0234	943.3	60.7
989.2857	2627.2968	939.25	57.35
989.4102	2628.5695	939.55	55.05
989.5348	2629.8415	940.9	58.6
989.6593	2631.1128	943.55	56.95
989.7837	2632.3835	937.45	54.05
989.9082	2633.6535	940.9	57.3
990.0326	2634.9228	936.85	52.7
990.1569	2636.1914	939.05	54.45
990.2812	2637.4593	941.8	57.65
990.4055	2638.7265	939.25	53.3
990.5298	2639.9931	937.75	55.75
990.654	2641.259	939.7	55.55
990.7782	2642.5242	937.45	53.5
990.9023	2643.7887	935.65	52.6
991.0264	2645.0525	938.3	53.7
991.1505	2646.3156	941.7	58.1
991.2745	2647.5781	936.3	53.75
991.3985	2648.8398	936.6	53.5
991.5225	2650.1009	947.35	57.95
991.6464	2651.3613	935.4	52.45
991.7703	2652.6211	936.75	53.3
991.8942	2653.8801	932.15	47.55
992.018	2655.1385	936.9	51.75
992.1418	2656.3961	934.05	51
992.2655	2657.6531	936.95	51.65
992.3892	2658.9094	933.3	49.55
992.5129	2660.1651	937.35	54.55
992.6366	2661.42	933.05	48.05
992.7602	2662.6743	936.85	54.35
992.8837	2663.9279	932.55	51.55
993.0073	2665.1808	934.1	47.7
993.1307	2666.433	933.75	50.65
993.2542	2667.6846	935.7	53.6
993.3776	2668.9354	938.8	52.45
993.501	2670.1856	935.9	49.55
993.6244	2671.4351	935.75	51.8
993.7477	2672.6839	935.35	49.75
993.8709	2673.9321	933.95	50.25
993.9942	2675.1795	937.25	53.65
994.1174	2676.4263	938	57.3
994.2405	2677.6724	932.8	49.2
994.3637	2678.9179	935.9	54.45
994.4868	2680.1626	934.9	51.4
994.6098	2681.4067	937.15	56.1
994.7328	2682.6501	936.3	53.05
994.8558	2683.8928	936.3	52.9
994.9788	2685.1348	936.9	55.25
995.1017	2686.3761	932.05	50.25
995.2245	2687.6168	935.05	53.45
995.3474	2688.8568	931.25	49.05
995.4702	2690.0961	934.5	51.35
995.5929	2691.3348	932.55	51.3
995.7156	2692.5727	933.2	48.05
995.8383	2693.81	930.65	48
995.961	2695.0466	929.25	48.1
996.0836	2696.2826	932.1	48.4
996.2062	2697.5178	952.15	50.25
996.3287	2698.7524	933.85	49.4
996.4512	2699.9863	937.05	51
996.5737	2701.2195	929.1	46.65
996.6961	2702.452	933.75	48.1
996.8185	2703.6839	932.65	50.85
996.9408	2704.9151	929.55	47.2
997.0631	2706.1456	934.55	49.95
997.1854	2707.3755	933.65	49.8
997.3077	2708.6046	937.9	53.05
997.4299	2709.8331	935	51.35
997.552	2711.0609	934.45	50.15
997.6742	2712.2881	933.4	49.75
997.7963	2713.5145	936.45	51.6
997.9183	2714.7403	934.65	52.3
998.0403	2715.9654	937.55	53.55
998.1623	2717.1899	952.2	54.65
998.2842	2718.4136	939.1	57.2
998.4062	2719.6367	937.8	54.25
998.528	2720.8591	944.9	54.35
998.6498	2722.0809	941.45	57.45
998.7716	2723.3019	946.05	60.4
998.8934	2724.5223	939.7	54.05
999.0151	2725.7421	941.05	57.4
999.1368	2726.9611	942.9	58.15
999.2584	2728.1795	945.75	57
999.38	2729.3972	938.5	54.9
999.5016	2730.6142	941.85	51.35
999.6231	2731.8306	935.65	53.05
999.7446	2733.0462	937	52.95
999.8661	2734.2612	936.95	48.75
999.9875	2735.4756	934.35	50.9
1000.1089	2736.6892	932.25	47.5
1000.2302	2737.9022	933.75	53.65
1000.3515	2739.1145	932.2	48.3
1000.4728	2740.3262	937.9	46.95
1000.594	2741.5372	931	48.75
1000.7152	2742.7475	931.85	49.45
1000.8363	2743.9571	931.55	47.9
1000.9575	2745.1661	934.8	47.2
1001.0785	2746.3744	928.05	44.3
1001.1996	2747.582	927.5	46.6
1001.3206	2748.7889	925.1	41.65
1001.4415	2749.9952	926.5	43.75
1001.5625	2751.2008	927.75	45.8
1001.6833	2752.4057	927.1	42.25
1001.8042	2753.61	924.6	43.35
1001.925	2754.8136	923.55	39.45
1002.0458	2756.0165	923.35	40.2
1002.1665	2757.2188	922.35	40.05
1002.2872	2758.4204	924.3	41.3
1002.4078	2759.6213	923.5	38.5
1002.5285	2760.8215	929.85	45.55
1002.649	2762.0211	926.5	43.6
1002.7696	2763.22	925.2	42.05
1002.8901	2764.4182	921.1	37.95
1003.0106	2765.6158	925	40.8
1003.131	2766.8127	922.9	39.2
1003.2514	2768.009	922.2	41.75
1003.3717	2769.2045	925.45	42.15
1003.492	2770.3994	927.55	44.5
1003.6123	2771.5936	921.95	41.3
1003.7325	2772.7872	921.95	41.9
1003.8527	2773.9801	922.5	39.45
1003.9729	2775.1723	939.25	41.55
1004.093	2776.3639	920.15	40.7
1004.2131	2777.5548	924.65	40.2
1004.3331	2778.745	920.1	35.5
1004.4531	2779.9346	922.75	42.8
1004.5731	2781.1235	922.15	39.95
1004.693	2782.3117	920.15	37.85
1004.8129	2783.4992	919.15	38
1004.9328	2784.6861	918.65	37.1
1005.0526	2785.8723	922.4	39.5
1005.1723	2787.0579	920.65	39
1005.2921	2788.2428	920.1	39.35
1005.4118	2789.427	920.7	40.05
1005.5314	2790.6106	921.6	38.95
1005.651	2791.7935	921.45	41.05
1005.7706	2792.9757	920.25	39.9
1005.8902	2794.1573	924.95	40.15
1006.0097	2795.3382	921.45	38.75
1006.1291	2796.5184	920.65	38.7
1006.2485	2797.698	924.25	41.55
1006.3679	2798.8769	920.2	39.7
1006.4873	2800.0551	922.55	38.65
1006.6066	2801.2327	925.55	43.05
1006.7258	2802.4096	923.95	42.85
1006.8451	2803.5859	923.4	41.6
1006.9642	2804.7615	925.15	42.45
1007.0834	2805.9364	922.95	42.1
1007.2025	2807.1106	925.1	44.5
1007.3216	2808.2842	927.9	45.9
1007.4406	2809.4572	927.75	48.5
1007.5596	2810.6294	927.75	44.35
1007.6785	2811.801	928.65	48.15
1007.7975	2812.972	930.75	50.55
1007.9163	2814.1423	934.65	52.95
1008.0352	2815.3119	934.05	52.25
1008.154	2816.4808	935.75	56.1
1008.2727	2817.6491	939.55	58.05
1008.3914	2818.8167	938.85	57.75
1008.5101	2819.9837	948.5	61.95
1008.6288	2821.15	948.25	68.5
1008.7474	2822.3157	955.9	76.5
1008.8659	2823.4807	962.45	81
1008.9844	2824.645	968.35	86.75
1009.1029	2825.8086	977.55	98
1009.2214	2826.9716	979.05	97.5
1009.3398	2828.134	988.25	108.55
1009.4581	2829.2957	993.8	110.5
1009.5764	2830.4567	998.7	120.05
1009.6947	2831.617	1007.1	124.85
1009.813	2832.7767	1004.25	123.95
1009.9312	2833.9358	1006.55	126.3
1010.0493	2835.0941	1003.75	119.25
1010.1675	2836.2519	999.9	119.05
1010.2855	2837.4089	997.75	115.75
1010.4036	2838.5653	994	114.15
1010.5216	2839.7211	990	109.7
1010.6396	2840.8761	993.7	111.3
1010.7575	2842.0306	989.5	112.3
1010.8754	2843.1843	986.4	105.6
1010.9932	2844.3374	989.45	108.55
1011.111	2845.4899	987.8	108.65
1011.2288	2846.6417	987.95	105.65
1011.3465	2847.7928	994.5	115
1011.4642	2848.9433	995.35	114.4
1011.5818	2850.0931	993.9	113.25
1011.6995	2851.2422	998.25	116.4
1011.817	2852.3907	1001.35	120.05
1011.9345	2853.5385	1001.95	118.65
1012.052	2854.6857	1025.55	118.75
1012.1695	2855.8323	1001.9	121.95
1012.2869	2856.9781	1007.05	126.3
1012.4042	2858.1233	1008.2	126.25
1012.5216	2859.2679	1012.8	131.7
1012.6389	2860.4118	1016.95	136.6
1012.7561	2861.555	1020.15	134.8
1012.8733	2862.6976	1022.3	140.55
1012.9905	2863.8395	1024.65	145.6
1013.1076	2864.9808	1022.6	143.35
1013.2247	2866.1214	1022.25	142.85
1013.3417	2867.2614	1026.4	144.9
1013.4587	2868.4007	1032.05	149.85
1013.5757	2869.5393	1029.55	146.7
1013.6926	2870.6773	1035.5	151.65
1013.8095	2871.8146	1035.45	151.3
1013.9263	2872.9513	1035.45	149.8
1014.0431	2874.0874	1038.3	158.85
1014.1599	2875.2227	1034.75	153.35
1014.2766	2876.3574	1035	156
1014.3933	2877.4915	1040.5	159.65
1014.51	2878.6249	1037.7	158.1
1014.6266	2879.7577	1046.2	164.15
1014.7431	2880.8898	1059.6	171.45
1014.8596	2882.0212	1045.3	166.45
1014.9761	2883.152	1048.35	165.2
1015.0925	2884.2821	1045.75	167.1
1015.2089	2885.4116	1048.35	168.6
1015.3253	2886.5405	1050.9	171.2
1015.4416	2887.6686	1055.75	171.15
1015.5579	2888.7962	1053.95	176.35
1015.6741	2889.923	1050.05	170
1015.7903	2891.0493	1051.85	174.15
1015.9065	2892.1748	1051.65	172
1016.0226	2893.2997	1051.25	172.95
1016.1387	2894.424	1048.45	169.95
1016.2547	2895.5476	1050.4	170.3
1016.3707	2896.6706	1053.4	172.6
1016.4866	2897.7929	1055.35	175.65
1016.6025	2898.9145	1056.05	176.55
1016.7184	2900.0355	1054.8	172.55
1016.8342	2901.1559	1056.55	175.85
1016.95	2902.2756	1059.95	174.2
1017.0658	2903.3946	1055.1	174.95
1017.1815	2904.513	1056.15	173.6
1017.2971	2905.6308	1055.95	176.35
1017.4127	2906.7479	1053.2	172.2
1017.5283	2907.8643	1052	171.45
1017.6439	2908.9801	1052.7	173.05
1017.7594	2910.0953	1050.25	170.9
1017.8748	2911.2098	1053.95	172.55
1017.9902	2912.3236	1061.75	172.7
1018.1056	2913.4368	1056.75	173.95
1018.2209	2914.5494	1052.65	170.4
1018.3362	2915.6613	1059.1	171.85
1018.4515	2916.7725	1045.75	161.85
1018.5667	2917.8831	1046.9	165
1018.6819	2918.9931	1045.3	160.9
1018.797	2920.1024	1038.05	158.1
1018.9121	2921.211	1036.95	156.85
1019.0271	2922.319	1037.8	159.45
1019.1421	2923.4264	1034.5	155.35
1019.2571	2924.5331	1036.4	157.6
1019.372	2925.6391	1034.15	152.4
1019.4869	2926.7445	1031.2	151.15
1019.6017	2927.8493	1034.5	155.95
1019.7165	2928.9534	1036	156.15
1019.8313	2930.0569	1036.85	154.95
1019.946	2931.1597	1035.25	154.45
1020.0606	2932.2619	1036.9	155.4
1020.1753	2933.3634	1039.8	160.35
1020.2899	2934.4643	1045.1	158.55
1020.4044	2935.5645	1046.25	160.85
1020.5189	2936.6641	1045.45	162.35
1020.6334	2937.763	1041.8	162.65
1020.7478	2938.8613	1041.45	162.65
1020.8622	2939.959	1039.05	152.4
1020.9765	2941.056	1032.7	152.75
1021.0908	2942.1523	1030.5	150.15
1021.2051	2943.248	1024.5	143.05
1021.3193	2944.3431	1011.4	133.9
1021.4334	2945.4375	1010.7	129.35
1021.5476	2946.5313	1000.7	121.2
1021.6617	2947.6244	996.3	116.55
1021.7757	2948.7169	990.05	109.3
1021.8897	2949.8087	983	104.1
1022.0037	2950.8999	979.4	100.4
1022.1176	2951.9904	975.65	97.75
1022.2315	2953.0803	971.65	91.95
1022.3453	2954.1696	965.9	87.1
1022.4591	2955.2582	965.75	86.2
1022.5728	2956.3462	959.85	82.4
1022.6865	2957.4335	957.5	75.1
1022.8002	2958.5202	962.6	79.95
1022.9138	2959.6062	958.25	79
1023.0274	2960.6916	958.05	79.8
1023.141	2961.7764	958.9	79.25
1023.2545	2962.8605	959.65	80.75
1023.3679	2963.9439	957.65	78.8
1023.4813	2965.0267	959.85	78.25
1023.5947	2966.1089	976.5	73.95
1023.708	2967.1905	957.55	80.6
1023.8213	2968.2714	952.5	72.15
1023.9346	2969.3516	952	74
1024.0478	2970.4312	962.8	76.85
1024.1609	2971.5102	954.3	75.05
1024.274	2972.5885	954.35	77.1
1024.3871	2973.6662	958.5	75.25
1024.5002	2974.7432	953.7	75.1
1024.6132	2975.8196	956.2	76.05
1024.7261	2976.8954	958.05	81.4
1024.839	2977.9705	955.45	74.65
1024.9519	2979.045	955.05	75.05
1025.0647	2980.1188	953	74.6
1025.1775	2981.192	953.9	76.7
1025.2902	2982.2645	952.45	71.7
1025.4029	2983.3364	952.9	74.95
1025.5156	2984.4077	952.3	71.85
1025.6282	2985.4783	953.7	69.1
1025.7407	2986.5483	945.65	65.6
1025.8532	2987.6177	944.2	66.5
1025.9657	2988.6864	940.2	60.45
1026.0782	2989.7545	942.35	63.85
1026.1906	2990.8219	937.3	59.25
1026.3029	2991.8887	940.3	58.75
1026.4152	2992.9548	933.9	55.85
1026.5275	2994.0204	928.3	50.7
1026.6397	2995.0852	923.8	46.2
1026.7519	2996.1495	925.9	43
1026.864	2997.2131	920.15	40.75
1026.9761	2998.276	922.05	42.1
1027.0882	2999.3383	916.1	36.15
1027.2002	3000.4	918.15	37.25
1027.3122	3001.4611	916.45	37.8
1027.4241	3002.5215	917.5	38.6
1027.536	3003.5812	913.3	35.65
1027.6478	3004.6404	910.25	31.75
1027.7596	3005.6989	914.6	33.55
1027.8714	3006.7567	910.05	31.25
1027.9831	3007.8139	936.7	29.85
1028.0947	3008.8705	908	29.9
1028.2064	3009.9264	909.8	26.2
1028.3179	3010.9818	909.4	29.75
1028.4295	3012.0364	907.8	27
1028.541	3013.0905	908.25	29.85
1028.6524	3014.1439	905.2	25.75
1028.7638	3015.1966	904.95	27.4
1028.8752	3016.2487	906.85	28.1
1028.9865	3017.3002	908.8	24.5
1029.0978	3018.3511	905.4	27.55
1029.209	3019.4013	902.75	23.75
1029.3202	3020.4509	903.25	22.3
1029.4314	3021.4998	906.05	27.25
1029.5425	3022.5481	902.2	21.5
1029.6535	3023.5958	903.7	24.65
1029.7645	3024.6428	904.4	25.6
1029.8755	3025.6892	903.4	25.3
1029.9864	3026.735	903.85	24.4
1030.0973	3027.7802	901.95	22.3
1030.2082	3028.8247	906.3	27.5
1030.319	3029.8685	903.8	26.05
1030.4297	3030.9118	901.65	21.7
1030.5404	3031.9544	903.35	25.6
1030.6511	3032.9963	902.35	21.7
1030.7617	3034.0376	902.65	26
1030.8723	3035.0783	903.95	21.8
1030.9829	3036.1184	904.4	23.95
1031.0934	3037.1578	900.95	23.1
1031.2038	3038.1966	903.55	25.05
1031.3142	3039.2348	904.35	26.3
1031.4246	3040.2723	910.3	23.1
1031.5349	3041.3092	902.5	23.5
1031.6452	3042.3455	902.45	25
1031.7554	3043.3811	903.3	20.8
1031.8656	3044.4161	902.4	22.85
1031.9758	3045.4505	902.3	26.65
1032.0859	3046.4842	906.3	27.3
1032.1959	3047.5173	904.05	26.3
1032.3059	3048.5498	903	23.15
1032.4159	3049.5816	904.8	24.9
1032.5258	3050.6128	904.8	24.55
1032.6357	3051.6434	905.7	24.75
1032.7455	3052.6734	903.15	23.15
1032.8553	3053.7027	900.75	22.5
1032.9651	3054.7314	902.45	23.25
1033.0748	3055.7594	904.95	24.7
1033.1845	3056.7868	905.85	24.7
1033.2941	3057.8136	902.1	23.05
1033.4037	3058.8398	903.05	23.9
1033.5132	3059.8653	907.05	28.55
1033.6227	3060.8902	905.25	24.85
1033.7321	3061.9145	903.25	24.9
1033.8415	3062.9381	904.9	25.85
1033.9509	3063.9612	919.35	23.85
1034.0602	3064.9835	903.05	23.85
1034.1694	3066.0053	906.25	26.05
1034.2787	3067.0264	904.4	25.2
1034.3878	3068.0469	907.15	28.55
1034.497	3069.0668	908.9	26.5
1034.6061	3070.086	902.85	25.55
1034.7151	3071.1046	904.5	24.65
1034.8241	3072.1226	906.4	26.8
1034.9331	3073.1399	901.45	23.15
1035.042	3074.1567	904.95	26.4
1035.1508	3075.1727	904.3	23.75
1035.2597	3076.1882	905.15	27.25
1035.3684	3077.203	900.8	21.5
1035.4772	3078.2173	901.35	20.25
1035.5859	3079.2308	902.5	20.35
1035.6945	3080.2438	901.75	20.6
1035.8031	3081.2561	899.15	22.95
1035.9117	3082.2678	898.5	18.15
1036.0202	3083.2789	898.6	20.75
1036.1286	3084.2893	899	20.45
1036.2371	3085.2991	899.7	20.8
1036.3454	3086.3083	899.75	16.5
1036.4538	3087.3169	899.1	18.4
1036.562	3088.3248	899.95	20.1
1036.6703	3089.3321	899.8	19.6
1036.7785	3090.3388	897.1	17.25
1036.8866	3091.3449	895.1	17.1
1036.9948	3092.3503	898.6	17.4
1037.1028	3093.3551	894.1	17.85
1037.2108	3094.3593	893.25	15.1
1037.3188	3095.3629	897	18.25
1037.4267	3096.3658	898.2	18.15
1037.5346	3097.3681	897.15	17.45
1037.6425	3098.3698	896.4	17.2
1037.7503	3099.3708	895.1	14.45
1037.858	3100.3713	894.9	17.35
1037.9657	3101.3711	894.5	15.1
1038.0734	3102.3702	1035.5	17.85
1038.181	3103.3688	896.05	15.6
1038.2886	3104.3667	895.75	19.05
1038.3961	3105.364	892.55	13.9
1038.5036	3106.3607	894.4	13.2
1038.611	3107.3568	895.3	15.55
1038.7184	3108.3522	890.45	12.1
1038.8257	3109.347	892.4	12.25
1038.933	3110.3412	897.7	14.85
1039.0403	3111.3348	893.8	17.45
1039.1475	3112.3277	893.75	14.6
1039.2547	3113.32	892.4	15.45
1039.3618	3114.3117	891.15	12.1
1039.4689	3115.3028	892.5	14.65
1039.5759	3116.2932	891.25	11.35
1039.6829	3117.2831	897.35	13.5
1039.7898	3118.2723	893.1	16.05
1039.8967	3119.2608	892.2	14.95
1040.0035	3120.2488	891.9	12.15
1040.1103	3121.2361	892.55	12.75
1040.2171	3122.2229	889.9	10.15
1040.3238	3123.209	890.35	10.95
1040.4305	3124.1944	891.4	14.15
1040.5371	3125.1793	891.7	12.05
1040.6437	3126.1635	889.7	11.45
1040.7502	3127.1471	891.95	13
1040.8567	3128.1301	889.95	12.3
1040.9631	3129.1125	889	9.8
1041.0695	3130.0942	887.85	9.05
1041.1759	3131.0753	899.8	14.7
1041.2822	3132.0558	894.05	11.85
1041.3884	3133.0357	888.4	9.35
1041.4946	3134.015	890.5	10.65
1041.6008	3134.9936	889.4	7
1041.7069	3135.9716	911.35	10.35
1041.813	3136.949	888.95	11.15
1041.919	3137.9258	907.55	11.7
1042.025	3138.902	895.9	12.4
1042.1309	3139.8775	888.65	9.5
1042.2368	3140.8524	888.1	7.4
1042.3427	3141.8267	891.45	11.35
1042.4485	3142.8004	889.15	10.4
1042.5542	3143.7735	894.95	10.2
1042.6599	3144.7459	892.25	13.45
1042.7656	3145.7178	888.7	10.25
1042.8712	3146.689	885.55	9.55
1042.9768	3147.6596	889.15	9.75
1043.0823	3148.6295	888.3	9.85
1043.1878	3149.5989	888.7	10
1043.2932	3150.5676	887.45	11.5
1043.3986	3151.5357	887.05	9.15
1043.5039	3152.5032	884.45	6.75
1043.6092	3153.4701	887.2	8.05
1043.7145	3154.4364	889.7	8.5
1043.8197	3155.402	886.15	9.4
1043.9248	3156.367	890.3	7.4
1044.03	3157.3315	922.95	9.35
1044.135	3158.2952	889.8	11.3
1044.24	3159.2584	885.85	5.8
1044.345	3160.221	887.05	9.05
1044.4499	3161.1829	886.9	8.5
1044.5548	3162.1442	886	7.7
1044.6596	3163.105	887.15	8.4
1044.7644	3164.065	887.05	7.9
1044.8692	3165.0245	888.05	4.8
1044.9739	3165.9834	886.65	9.8
1045.0785	3166.9416	886.1	6.55
1045.1831	3167.8993	887.65	8.65
1045.2877	3168.8563	887.85	8.75
1045.3922	3169.8127	887.85	10.55
1045.4966	3170.7684	885.5	7.85
1045.6011	3171.7236	888.85	9.8
1045.7054	3172.6782	886.7	8.75
1045.8098	3173.6321	888.5	10.1
1045.914	3174.5854	890.95	8.9
1046.0183	3175.5381	886.55	7.7
1046.1224	3176.4902	885.95	6.65
1046.2266	3177.4417	884.8	5.75
1046.3307	3178.3926	883.95	6.75
1046.4347	3179.3428	885.8	6.8
1046.5387	3180.2924	885.15	7.65
1046.6427	3181.2415	886.4	8.25
1046.7466	3182.1899	886.1	6.25
1046.8504	3183.1377	886.05	10.9
1046.9542	3184.0848	885.85	5.2
1047.058	3185.0314	885.9	8.7
1047.1617	3185.9773	885.4	6.9
1047.2654	3186.9227	886.15	7.3
1047.369	3187.8674	886.05	6.5
1047.4726	3188.8115	888.35	5.2
1047.5761	3189.755	884.5	7.9
1047.6796	3190.6979	886.1	6.95
1047.783	3191.6402	884.8	6.4
1047.8864	3192.5818	884.9	7.6
1047.9898	3193.5229	903.65	5.2
1048.0931	3194.4633	888.1	10.2
1048.1963	3195.4031	887.35	6.2
1048.2995	3196.3423	885.4	7.5
1048.4027	3197.2809	885.9	7.1
1048.5058	3198.2189	883.55	5.2
1048.6089	3199.1563	903.65	8.15
1048.7119	3200.0931	884.95	6.6
1048.8148	3201.0292	882.8	6.05
1048.9178	3201.9648	885.25	6.75
1049.0206	3202.8997	888	6.85
1049.1235	3203.834	885.35	7.6
1049.2262	3204.7677	885	6.45
1049.329	3205.7008	888.05	7.95
1049.4317	3206.6333	881.45	4.9
1049.5343	3207.5652	888.15	6.7
1049.6369	3208.4964	884.9	8.5
1049.7394	3209.4271	883.2	4.05
1049.8419	3210.3571	884.4	6.1
1049.9444	3211.2865	886.25	7.2
1050.0468	3212.2154	884.1	5.25
1050.1491	3213.1436	885.55	3.75
1050.2514	3214.0712	892	8.6
1050.3537	3214.9982	884.85	6.8
1050.4559	3215.9246	885	7.8
1050.5581	3216.8503	884.25	6.6
1050.6602	3217.7755	884.85	7.45
1050.7623	3218.7001	882.7	4.6
1050.8643	3219.624	883.3	5.25
1050.9663	3220.5473	884.3	5.65
1051.0682	3221.4701	886.15	8.3
1051.1701	3222.3922	885.75	7.2
1051.2719	3223.3137	883.3	4.3
1051.3737	3224.2346	882.95	5.3
1051.4754	3225.1549	885	7.75
1051.5771	3226.0746	885.8	8.05
1051.6788	3226.9937	883.8	5.3
1051.7804	3227.9121	882.6	5
1051.8819	3228.83	881.35	1.45
1051.9834	3229.7473	882.8	5.65
1052.0849	3230.6639	884	7.7
1052.1863	3231.5799	884.05	6.45
1052.2876	3232.4954	884.9	7.4
1052.3889	3233.4102	881.8	3.25
1052.4902	3234.3244	885.05	6.6
1052.5914	3235.238	882.9	5.4
1052.6926	3236.151	906.6	5.6
1052.7937	3237.0634	882.9	7.05
1052.8948	3237.9752	881.95	4.4
1052.9958	3238.8864	885.95	7.85
1053.0968	3239.797	882.1	4.5
1053.1977	3240.7069	881.6	1.9
1053.2986	3241.6163	884.6	5.5
1053.3994	3242.5251	880.75	2.2
1053.5002	3243.4332	880.3	1.65
1053.6009	3244.3408	884.1	4.45
1053.7016	3245.2477	882	5.15
1053.8022	3246.154	884.5	5.25
1053.9028	3247.0598	884.1	5.25
1054.0034	3247.9649	883.55	4.9
1054.1039	3248.8694	883.15	5.4
1054.2043	3249.7733	884.25	7.9
1054.3047	3250.6766	881.85	5.6
1054.4051	3251.5793	882.55	1.6
1054.5054	3252.4814	881.6	4.15
1054.6056	3253.3829	882.4	5.3
1054.7058	3254.2838	882.9	6.65
1054.806	3255.1841	881.8	3.3
1054.9061	3256.0838	882.3	3.75
1055.0061	3256.9829	881.85	5.8
1055.1062	3257.8814	885.3	4.85
1055.2061	3258.7792	883.05	2.85
1055.306	3259.6765	882.1	1.85
1055.4059	3260.5731	881.7	4.25
1055.5057	3261.4692	881.95	3.3
1055.6055	3262.3647	883.5	4.75
1055.7052	3263.2595	881.2	4.7
1055.8049	3264.1538	883.55	7.5
1055.9045	3265.0474	882.45	4.5
1056.0041	3265.9404	881.1	3
1056.1036	3266.8329	878.85	1.9
1056.2031	3267.7247	890.75	4.8
1056.3025	3268.616	880.2	4.9
1056.4019	3269.5066	882.45	4.3
1056.5013	3270.3966	881.9	3.05
1056.6005	3271.286	881.6	4.45
