Software Version:	3.9.2.0
Unit SN:	10000200
Spectrometer SN:	6960
Date:	3/8/2024 1:21:47 PM
Data Line Index:	25
Spectral Points:	2048
Integration time (ms):	125
Averages:	20
Delay (ms):	30000
Sequence Number:	1
Processing:	dark subtract
Laser Power (mW):	300
Laser Current (mA):	823
Laser Diode Temp (C):	25
Laser Case Temp (C):	26.2
System Temp (C):	26.1
Spectrometer Temp (C):	24
CCD Temp (C):	0
Secondary Temp (C):	20.007
Heatsink Temp (C):	21.205
CCDPCB Temp (C):	36.329
SecondaryPCB Temp (C):	30.805

Wavelength	RamanShift	Raw Counts	Dark Subtracted
787.061	30.1047	453.95	45.6
787.2016	32.3739	454	46.85
787.3422	34.6426	460.8	54.55
787.4828	36.9109	466.1	57.5
787.6235	39.1787	470.7	58.35
787.7642	41.4461	482.3	63.1
787.9049	43.7131	490.4	69.5
788.0456	45.9796	498.55	76.25
788.1863	48.2456	505.6	77.7
788.3271	50.5112	515.35	84.2
788.4679	52.7764	525.05	89.5
788.6087	55.0411	536.9	97.1
788.7496	57.3054	546.1	100.65
788.8904	59.5692	555.65	108.55
789.0313	61.8326	563.6	115.6
789.1722	64.0955	576.25	125.8
789.3132	66.3579	595.9	136.5
789.4541	68.6199	611.9	147.95
789.5951	70.8815	647.3	181.05
789.7361	73.1426	728.95	258.8
789.8771	75.4032	925.55	451.8
790.0181	77.6634	1410	930.4
790.1592	79.9231	2557.4	2069
790.3003	82.1824	5027.45	4521.3
790.4414	84.4412	9491.95	8951.6
790.5825	86.6995	15608.65	15030.35
790.7237	88.9574	21577.45	20962.2
790.8648	91.2148	25684.85	25050.55
791.006	93.4717	27506.5	26850.35
791.1472	95.7282	27831.65	27171.6
791.2885	97.9842	27667.15	27001.15
791.4297	100.2398	27026.15	26354.95
791.571	102.4949	26348.15	25680
791.7123	104.7495	25564.3	24892.15
791.8536	107.0036	24646.3	23975.05
791.9949	109.2573	23879.1	23208
792.1363	111.5105	23115.8	22442.7
792.2777	113.7632	22377.1	21700.15
792.4191	116.0154	21794	21107.7
792.5605	118.2672	21314.7	20625.55
792.7019	120.5185	20895.2	20205.75
792.8434	122.7693	20509.3	19819.3
792.9849	125.0197	20190.85	19500.9
793.1264	127.2696	19927.85	19233.2
793.2679	129.519	19751	19051.45
793.4094	131.7679	19505.55	18802.25
793.551	134.0163	19272.25	18569.2
793.6926	136.2642	19041.25	18331.4
793.8342	138.5117	18797	18089.25
793.9758	140.7587	18484.5	17771.4
794.1175	143.0052	18231.2	17516.35
794.2591	145.2512	17943.8	17231.45
794.4008	147.4967	17689.35	16972.35
794.5425	149.7417	17517.55	16800.35
794.6842	151.9863	17367	16642.2
794.826	154.2304	17285	16553.35
794.9677	156.4739	17143.7	16409.9
795.1095	158.717	17054.75	16320.65
795.2513	160.9596	16859.9	16120.2
795.3931	163.2017	16620.6	15881.8
795.535	165.4433	16336.7	15593.15
795.6768	167.6844	15993.75	15251.2
795.8187	169.925	15681.75	14939
795.9606	172.1651	15319.35	14576.85
796.1025	174.4047	15015.15	14266.05
796.2445	176.6439	14764.85	14008.45
796.3864	178.8825	14555.65	13801.5
796.5284	181.1206	14395.05	13633.45
796.6704	183.3582	14218.35	13450.8
796.8124	185.5954	14104.95	13336.9
796.9544	187.832	14025.6	13255.9
797.0965	190.0681	13990.6	13217.85
797.2386	192.3037	13986.05	13208.4
797.3806	194.5388	13995.05	13217.1
797.5228	196.7734	13996.8	13214.2
797.6649	199.0075	14061.1	13277.45
797.807	201.2411	14178.55	13394.05
797.9492	203.4742	14251.65	13465.7
798.0914	205.7068	14429.85	13638.05
798.2336	207.9389	14536.5	13745
798.3758	210.1704	14646.8	13864.7
798.518	212.4015	14781.7	14009.25
798.6603	214.632	14938.6	14163.95
798.8025	216.862	15106.05	14338.45
798.9448	219.0915	15234.05	14465.95
799.0871	221.3205	15424.7	14648.75
799.2294	223.549	15633.55	14862.85
799.3718	225.777	15859.9	15086.7
799.5141	228.0044	16160.95	15381.8
799.6565	230.2314	16532.25	15755.3
799.7989	232.4578	16845.85	16065.3
799.9413	234.6837	17174.25	16385.1
800.0837	236.909	17317.5	16527.7
800.2262	239.1339	17304.95	16489.9
800.3687	241.3582	17149.1	16347.5
800.5111	243.582	16901.8	16066.45
800.6536	245.8053	16614.85	15797.4
800.7961	248.0281	16349.15	15531.2
800.9387	250.2503	16192.3	15378.55
801.0812	252.472	16069.15	15252.65
801.2238	254.6932	16099.1	15281.85
801.3664	256.9139	16073.2	15255.65
801.509	259.134	16162.4	15339.45
801.6516	261.3536	16225.6	15404.7
801.7942	263.5727	16350.45	15524.3
801.9369	265.7912	16404.25	15581.25
802.0795	268.0092	16545.9	15724.65
802.2222	270.2267	16581.3	15756.3
802.3649	272.4436	16580.4	15751.95
802.5076	274.6601	16560.85	15722.75
802.6504	276.8759	16466.35	15641.15
802.7931	279.0913	16421.5	15594.8
802.9359	281.3061	16304.4	15471
803.0787	283.5204	16309.9	15471.15
803.2215	285.7341	16333.4	15493.6
803.3643	287.9473	16455	15608.25
803.5071	290.16	16643.2	15801.9
803.6499	292.3721	16914.1	16081.05
803.7928	294.5837	17249.8	16411.45
803.9357	296.7947	17574.15	16737.9
804.0786	299.0052	17763.85	16927.7
804.2215	301.2152	17665.95	16823.8
804.3644	303.4246	17373.55	16535
804.5074	305.6334	16844.7	16009.1
804.6503	307.8418	16360.8	15523.5
804.7933	310.0495	15954.45	15115.7
804.9363	312.2568	15584.85	14744.65
805.0793	314.4635	15333.9	14488.25
805.2223	316.6696	15159.15	14308.5
805.3653	318.8752	15078.85	14222.25
805.5084	321.0802	15086.4	14237.05
805.6514	323.2847	15118.9	14267.45
805.7945	325.4887	15210.1	14359.4
805.9376	327.692	15176.45	14321.4
806.0807	329.8949	15069.45	14215.4
806.2238	332.0972	14833.85	13974.3
806.367	334.2989	14599.6	13739.3
806.5101	336.5001	14297.2	13435.05
806.6533	338.7007	14108.1	13247.15
806.7965	340.9008	13963.95	13105.45
806.9397	343.1003	13822.8	12961.75
807.0829	345.2992	13764.75	12903.7
807.2261	347.4976	13690.65	12827.85
807.3693	349.6955	13688.25	12821.05
807.5126	351.8927	13713.55	12842
807.6559	354.0895	13722.7	12842.15
807.7991	356.2856	13713.9	12843.15
807.9424	358.4812	13680	12808.4
808.0857	360.6763	13722.75	12848.5
808.2291	362.8707	13717.55	12839.75
808.3724	365.0646	13741.9	12857.3
808.5158	367.258	13755.8	12878.2
808.6591	369.4508	13813.35	12933.6
808.8025	371.643	13892.05	13009.1
808.9459	373.8346	13908.75	13023.2
809.0893	376.0257	13926.2	13040.4
809.2327	378.2162	13873.15	12991.15
809.3762	380.4062	13798.85	12915.55
809.5196	382.5956	13677.6	12796.6
809.6631	384.7844	13557.4	12680.6
809.8066	386.9726	13474.8	12602.35
809.9501	389.1603	13383.9	12510.7
810.0936	391.3474	13380.8	12469.95
810.2371	393.5339	13330.5	12451.1
810.3806	395.7199	13291.6	12414.9
810.5241	397.9052	13307.8	12433.25
810.6677	400.09	13330.1	12455.3
810.8113	402.2743	13458.85	12580.75
810.9548	404.4579	13551.9	12676.25
811.0984	406.641	13728.2	12852
811.2421	408.8235	13937.65	13058.15
811.3857	411.0054	14189.5	13307.3
811.5293	413.1868	14541.85	13654
811.673	415.3675	14791.35	13897.8
811.8166	417.5477	14959.4	14069.85
811.9603	419.7273	14951.5	14061.95
812.104	421.9064	14877.15	13982.9
812.2477	424.0848	14758.95	13869.35
812.3914	426.2627	14585.65	13697.15
812.5351	428.4399	14286.3	13396
812.6788	430.6166	13939.55	13042.85
812.8226	432.7928	13578.05	12679.85
812.9663	434.9683	13262.15	12367.7
813.1101	437.1432	13051.25	12159.45
813.2539	439.3176	12874.3	11986.55
813.3977	441.4914	12768.4	11883.2
813.5415	443.6645	12766.65	11880.55
813.6853	445.8371	12707.9	11814.55
813.8291	448.0091	12647.4	11749.15
813.973	450.1806	12607.5	11717.55
814.1168	452.3514	12597.9	11713.65
814.2607	454.5216	12623.15	11725
814.4046	456.6913	12574.45	11682.2
814.5485	458.8603	12602.3	11709.35
814.6924	461.0288	12631.95	11747.4
814.8363	463.1967	12652.65	11770.1
814.9802	465.3639	12731.1	11842.15
815.1241	467.5306	12809.05	11918.55
815.2681	469.6967	12916.65	12033.25
815.412	471.8622	13022.15	12137.6
815.556	474.0271	13125.9	12237.6
815.7	476.1914	13211.8	12319.25
815.844	478.3551	13201.9	12312.25
815.988	480.5182	13221.2	12329.15
816.132	482.6807	13245.85	12362
816.276	484.8426	13339.4	12467.95
816.4201	487.0039	13653.15	12773.35
816.5641	489.1647	14041.75	13152.25
816.7082	491.3248	14445.6	13551
816.8522	493.4843	14612.15	13727.7
816.9963	495.6432	14591.05	13701.75
817.1404	497.8015	14483.65	13582.7
817.2845	499.9592	14442.85	13540.6
817.4286	502.1163	14365.8	13465.4
817.5727	504.2728	14086.15	13191.75
817.7168	506.4287	13795.75	12912.5
817.861	508.5839	13393.6	12506.2
818.0051	510.7386	13091.1	12195.2
818.1493	512.8927	12957.85	12055
818.2935	515.0461	12863.6	11961.55
818.4377	517.199	12888	11984.15
818.5818	519.3512	12931.65	12030
818.726	521.5029	13068.15	12163.2
818.8703	523.6539	13188.7	12290.1
819.0145	525.8043	13250.8	12347.65
819.1587	527.9541	13255.05	12347.1
819.303	530.1033	13188.8	12283.95
819.4472	532.2519	13156.8	12251
819.5915	534.3999	13235.9	12330.25
819.7357	536.5472	13438.4	12534.75
819.88	538.694	13821.6	12922.8
820.0243	540.8401	14293.45	13385.25
820.1686	542.9856	14712.05	13796.4
820.3129	545.1305	14851.6	13932.3
820.4572	547.2748	14725.5	13798.85
820.6016	549.4185	14406.95	13481.45
820.7459	551.5615	14128.45	13204.75
820.8902	553.704	14024.25	13101.3
821.0346	555.8458	14026.25	13107.4
821.1789	557.987	14106.5	13192.7
821.3233	560.1276	14151	13234.3
821.4677	562.2675	14292.3	13372.15
821.6121	564.4069	14486.65	13570.95
821.7565	566.5456	14634.25	13720.35
821.9009	568.6837	14640.5	13727.1
822.0453	570.8212	14293.2	13381.1
822.1897	572.958	13857.1	12942.5
822.3342	575.0942	13429.1	12520.8
822.4786	577.2299	13186.9	12286.2
822.6231	579.3648	13089.4	12200.55
822.7675	581.4992	13112.25	12232.9
822.912	583.6329	13298.2	12417.5
823.0565	585.766	13516.25	12627
823.201	587.8985	13633.65	12737.5
823.3454	590.0304	13684.3	12756.95
823.4899	592.1616	13595.45	12678.5
823.6345	594.2922	13494.35	12577.75
823.779	596.4222	13337.5	12414.95
823.9235	598.5515	13164.35	12244.8
824.068	600.6802	12984.5	12062.9
824.2126	602.8083	12804.9	11888.4
824.3571	604.9358	12780.35	11864.25
824.5017	607.0626	12728.95	11805.25
824.6462	609.1888	12768.2	11841.1
824.7908	611.3144	12807.35	11883
824.9354	613.4393	12768.65	11839.2
825.08	615.5636	12699.65	11770.6
825.2246	617.6873	12680	11754.25
825.3692	619.8103	12618.45	11690.5
825.5138	621.9327	12494.15	11570.35
825.6584	624.0544	12391	11474.65
825.803	626.1756	12307.7	11385.3
825.9477	628.2961	12231.25	11311.05
826.0923	630.4159	12167	11238.9
826.237	632.5351	12130.5	11201.6
826.3816	634.6537	12072.3	11143.45
826.5263	636.7716	12075.1	11145.85
826.6709	638.8889	12103.15	11170.9
826.8156	641.0056	12119.4	11185.3
826.9603	643.1216	12081.9	11148.3
827.105	645.237	12103.85	11174.15
827.2497	647.3518	12053.4	11130.1
827.3944	649.4659	12029.8	11109.65
827.5391	651.5793	12049.55	11135.15
827.6838	653.6922	12004.4	11083.45
827.8285	655.8043	12018.65	11099
827.9733	657.9159	12014.9	11093.55
828.118	660.0268	11943.6	11018.5
828.2627	662.137	11909.15	10984.2
828.4075	664.2466	11904.8	10969.65
828.5522	666.3556	11887.3	10952.6
828.697	668.4639	11865.25	10938.55
828.8418	670.5716	11870.9	10949.35
828.9865	672.6786	11922.35	10999.25
829.1313	674.785	11940.5	11007.8
829.2761	676.8907	11970.9	11044.95
829.4209	678.9958	12039.45	11116
829.5657	681.1002	12025.15	11097
829.7105	683.204	11999.7	11055.7
829.8553	685.3072	11967.2	11031.8
830.0001	687.4097	11931.15	10996.95
830.1449	689.5115	11900.1	10967.8
830.2898	691.6127	11890.1	10955.6
830.4346	693.7132	11813.05	10886.4
830.5794	695.8131	11794.25	10847.85
830.7243	697.9123	11815.9	10879
830.8691	700.0109	11784.15	10842.8
831.014	702.1089	11774.35	10837.9
831.1588	704.2061	11805	10872.75
831.3037	706.3028	11834.85	10897.25
831.4486	708.3987	11850.45	10915.25
831.5935	710.4941	11925.6	10990.65
831.7383	712.5887	12086.05	11150.5
831.8832	714.6827	12303.75	11365.85
832.0281	716.7761	12594.4	11663
832.173	718.8688	12871.85	11940.25
832.3179	720.9608	13087.5	12143.05
832.4628	723.0522	13150.65	12203.6
832.6077	725.1429	13059.8	12117.5
832.7527	727.233	12880.25	11947.2
832.8976	729.3224	12735.65	11800.35
833.0425	731.4112	12535.2	11600.1
833.1874	733.4993	12361.75	11424.05
833.3324	735.5867	12202.55	11265.05
833.4773	737.6735	12057.35	11118.05
833.6222	739.7596	11943.1	11005.3
833.7672	741.845	11846.15	10905.65
833.9122	743.9298	11819.1	10876.45
834.0571	746.014	11818.3	10878.15
834.2021	748.0974	11837.5	10889.35
834.347	750.1802	11828.1	10879.7
834.492	752.2624	11843	10895.25
834.637	754.3439	11863.15	10915.45
834.782	756.4247	11955.9	11004.1
834.9269	758.5048	12110.7	11165.75
835.0719	760.5843	12372.75	11427.6
835.2169	762.6631	12711.45	11764.4
835.3619	764.7413	13210.35	12269.05
835.5069	766.8188	13846.9	12898.95
835.6519	768.8956	14362.35	13416.9
835.7969	770.9718	14651.2	13709.65
835.9419	773.0473	14559.55	13614.05
836.0869	775.1221	14230.15	13282.6
836.232	777.1962	13918.15	12976.8
836.377	779.2697	13718.85	12771.2
836.522	781.3426	13778	12822.1
836.667	783.4147	13976.05	13028.15
836.8121	785.4862	14221.4	13276.7
836.9571	787.557	14168.1	13219.95
837.1021	789.6271	13798.8	12849.85
837.2472	791.6966	13232.05	12286.05
837.3922	793.7654	12681.35	11732.7
837.5373	795.8335	12323.45	11379.85
837.6823	797.901	12086.9	11140
837.8274	799.9678	12002.9	11050.2
837.9724	802.0339	11970.8	11020.3
838.1175	804.0993	11972.45	11011.75
838.2626	806.1641	11980.6	11031.55
838.4076	808.2282	11921.2	10973.05
838.5527	810.2916	11825.4	10880.9
838.6978	812.3544	11721.3	10775.7
838.8428	814.4164	11629.05	10682.95
838.9879	816.4778	11684.5	10734.45
839.133	818.5385	11692.8	10742.15
839.2781	820.5986	11809.95	10860.65
839.4232	822.658	11960.75	11008.55
839.5682	824.7166	12138.6	11188.1
839.7133	826.7747	12462.45	11516.7
839.8584	828.832	12753.65	11800.55
840.0035	830.8886	13009.1	12050
840.1486	832.9446	13154.2	12200.55
840.2937	834.9999	13105.25	12151.75
840.4388	837.0545	13014.6	12063.65
840.5839	839.1085	12899.3	11943.35
840.729	841.1618	12770.7	11815.05
840.8741	843.2143	12669.9	11720
841.0192	845.2662	12548.3	11596.7
841.1643	847.3175	12465.35	11513.15
841.3095	849.368	12373	11421.1
841.4546	851.4179	12245.55	11293.6
841.5997	853.467	12116.4	11160.5
841.7448	855.5155	12039.15	11092.5
841.8899	857.5633	11955.5	11004.1
842.0351	859.6105	11859.25	10901.25
842.1802	861.6569	11772.3	10820.9
842.3253	863.7027	11724.05	10768.3
842.4704	865.7478	11689.45	10732.45
842.6156	867.7922	11686.55	10732.95
842.7607	869.8359	11704.1	10749.2
842.9058	871.8789	11793.4	10841
843.0509	873.9212	11971.5	10982.6
843.1961	875.9629	12067.55	11114.2
843.3412	878.0039	12210.65	11255.6
843.4863	880.0441	12349.2	11396.1
843.6315	882.0837	12398.35	11446.05
843.7766	884.1226	12319.25	11365.5
843.9218	886.1609	12265.05	11311
844.0669	888.1984	12220.95	11268.15
844.212	890.2352	12294.5	11337.1
844.3572	892.2714	12255.8	11295.05
844.5023	894.3069	12236.2	11277.8
844.6475	896.3416	12125.05	11168.85
844.7926	898.3757	12051.15	11094.75
844.9377	900.4091	12024.05	11068.9
845.0829	902.4418	12044.6	11086.15
845.228	904.4739	12066.05	11104.45
845.3732	906.5052	12084.8	11119.8
845.5183	908.5358	12024.55	11065.65
845.6635	910.5658	11864.7	10903
845.8086	912.595	11678	10721.75
845.9538	914.6236	11479.75	10522.1
846.0989	916.6515	11443.25	10483.85
846.2441	918.6786	11406.6	10449.25
846.3892	920.7051	11427.9	10469.6
846.5344	922.7309	11531.25	10573.95
846.6795	924.756	11594.2	10640.65
846.8246	926.7804	11665.55	10706.35
846.9698	928.8041	11641.35	10683
847.1149	930.8272	11671.3	10709.4
847.2601	932.8495	11646.35	10687.6
847.4052	934.8711	11605	10645.55
847.5504	936.892	11482.2	10522.35
847.6955	938.9123	11409.6	10451
847.8407	940.9318	11324.95	10368.35
847.9858	942.9506	11257.05	10300.55
848.131	944.9688	11194.75	10237.15
848.2761	946.9862	11147.05	10188.9
848.4213	949.003	11044.4	10084.7
848.5664	951.019	11018.75	10063.3
848.7115	953.0344	10995.1	10034.75
848.8567	955.0491	11028.45	10069.2
849.0018	957.063	11090.7	10131.5
849.147	959.0763	11174.9	10218.75
849.2921	961.0888	11205.8	10249.85
849.4373	963.1007	11310.05	10358.8
849.5824	965.1119	11349.1	10399.85
849.7275	967.1223	11364.75	10425.15
849.8727	969.1321	11355.4	10414.4
850.0178	971.1412	11372.15	10424.2
850.1629	973.1495	11419.7	10469.4
850.3081	975.1572	11451	10447.15
850.4532	977.1641	11490.05	10534.35
850.5983	979.1704	11440.2	10477.05
850.7435	981.1759	11445	10485.05
850.8886	983.1808	11504.2	10543.2
851.0337	985.1849	11558.6	10589.15
851.1788	987.1884	11676.65	10719.9
851.324	989.1911	11777.85	10821.85
851.4691	991.1932	11934.35	10980.3
851.6142	993.1945	11981.3	11024.6
851.7593	995.1951	11944.15	10983.45
851.9045	997.1951	11933.9	10970.55
852.0496	999.1943	11826.9	10869.25
852.1947	1001.1928	11805.5	10844.2
852.3398	1003.1906	11850.95	10896.35
852.4849	1005.1877	11912.4	10955.9
852.63	1007.1841	11911.2	10952.7
852.7751	1009.1798	11900.5	10944
852.9202	1011.1748	11759.2	10804.15
853.0653	1013.1691	11578.45	10618.85
853.2104	1015.1627	11356.15	10401.55
853.3555	1017.1556	11159.45	10206.65
853.5006	1019.1477	11059.9	10105.5
853.6457	1021.1392	10982.05	10035.15
853.7908	1023.1299	10938	9994.15
853.9359	1025.12	10959.25	10021.55
854.081	1027.1093	11013.4	10089.55
854.2261	1029.0979	11126.7	10203.1
854.3712	1031.0859	11181.65	10250.95
854.5163	1033.0731	11224.8	10280.8
854.6613	1035.0596	11163.45	10219.3
854.8064	1037.0454	11041	10089.55
854.9515	1039.0304	10948.25	9992.35
855.0965	1041.0148	10817.6	9868.9
855.2416	1042.9985	10727.65	9770.25
855.3867	1044.9814	10687.15	9732.85
855.5317	1046.9636	10620.6	9666.1
855.6768	1048.9452	10603.35	9651.5
855.8219	1050.926	10641.55	9690.8
855.9669	1052.9061	10658.7	9704.2
856.112	1054.8855	10659.05	9705.8
856.257	1056.8642	10700.1	9743.5
856.4021	1058.8421	10777.4	9818.85
856.5471	1060.8194	10792.65	9834.7
856.6921	1062.7959	10828.15	9871.55
856.8372	1064.7717	10865.15	9907.2
856.9822	1066.7469	10914.6	9957.6
857.1272	1068.7213	10928.45	9967.95
857.2723	1070.695	10969.4	10016.55
857.4173	1072.6679	10951.95	9995.25
857.5623	1074.6402	10910.9	9955.95
857.7073	1076.6117	10877.8	9915.45
857.8523	1078.5826	10833.45	9872.85
857.9973	1080.5527	10810.1	9851.6
858.1423	1082.5221	10870.55	9910.65
858.2873	1084.4908	10947	9994.2
858.4323	1086.4587	11089.35	10133.95
858.5773	1088.426	11209.5	10255.05
858.7223	1090.3925	11218.25	10260.85
858.8673	1092.3584	11177.55	10221.55
859.0123	1094.3235	11113.2	10161.3
859.1573	1096.2879	11072.25	10117.65
859.3022	1098.2515	11120.6	10164.65
859.4472	1100.2145	11211.75	10258.8
859.5922	1102.1767	11348.7	10391.25
859.7371	1104.1382	11530.35	10577.8
859.8821	1106.099	11747.05	10789.8
860.027	1108.0591	12007.95	11051.45
860.172	1110.0185	12139.05	11182.4
860.3169	1111.9771	12148.8	11197.45
860.4619	1113.9351	12032.6	11077.9
860.6068	1115.8923	11784.35	10827.25
860.7517	1117.8488	11521.65	10563.65
860.8967	1119.8045	11277.95	10326
861.0416	1121.7596	11164.45	10211
861.1865	1123.7139	11096.9	10145.3
861.3314	1125.6675	11089.95	10141.15
861.4763	1127.6204	11136.55	10186.4
861.6212	1129.5726	11112.1	10156.35
861.7661	1131.524	11082.15	10126.3
861.911	1133.4748	11003.3	10046.4
862.0559	1135.4248	10931.95	9976.45
862.2008	1137.3741	10867.75	9912.85
862.3457	1139.3226	10779.55	9822.9
862.4905	1141.2705	10758.6	9803.65
862.6354	1143.2176	10672.7	9716.15
862.7803	1145.164	10656.8	9703.35
862.9251	1147.1097	10659.95	9705.85
863.07	1149.0546	10606.7	9652.5
863.2148	1150.9989	10525.15	9571.35
863.3597	1152.9424	10413.05	9457.8
863.5045	1154.8852	10266.8	9312.1
863.6493	1156.8272	10171.45	9220.25
863.7942	1158.7686	10176.95	9215.55
863.939	1160.7092	10140.15	9188.6
864.0838	1162.6491	10150.5	9196.1
864.2286	1164.5883	10244.65	9290.3
864.3734	1166.5267	10346.1	9390.85
864.5182	1168.4644	10498.5	9546.8
864.663	1170.4014	10677.5	9724.35
864.8078	1172.3377	10920.5	9972.3
864.9526	1174.2732	11173.4	10220.75
865.0974	1176.2081	11474.1	10522.4
865.2421	1178.1421	11808.75	10853.35
865.3869	1180.0755	12176.25	11223.1
865.5317	1182.0082	12356.95	11409
865.6764	1183.9401	12421.55	11471.6
865.8212	1185.8713	12273	11325.6
865.9659	1187.8017	12028.2	11093.85
866.1106	1189.7315	11729.3	10802.7
866.2554	1191.6605	11389.6	10463.45
866.4001	1193.5888	11190.65	10258.1
866.5448	1195.5163	11071	10124.3
866.6895	1197.4432	10967.75	10020.7
866.8342	1199.3693	10963.05	10017.6
866.9789	1201.2947	10901.25	9951.05
867.1236	1203.2193	10900.6	9950.95
867.2683	1205.1432	10913.35	9960.75
867.413	1207.0664	10907.95	9959.7
867.5576	1208.9889	10941.15	9992.3
867.7023	1210.9106	10942.95	9993.4
867.847	1212.8316	10962.8	10013.45
867.9916	1214.7519	11027.3	10070.9
868.1363	1216.6715	11053.2	10104.4
868.2809	1218.5903	11091.6	10143.1
868.4255	1220.5084	11078.35	10131.5
868.5701	1222.4257	11140.15	10192.2
868.7148	1224.3424	11108.3	10166
868.8594	1226.2583	11186.8	10239.25
869.004	1228.1735	11281.6	10335.55
869.1486	1230.0879	11404.85	10456.4
869.2932	1232.0016	11560.15	10610.9
869.4377	1233.9146	11587.4	10640.1
869.5823	1235.8269	11525.7	10578.85
869.7269	1237.7384	11419.4	10472.9
869.8715	1239.6492	11240.2	10293.9
870.016	1241.5592	11193.65	10244.15
870.1606	1243.4686	11144.9	10196.25
870.3051	1245.3772	11208.85	10262.15
870.4496	1247.285	11249.75	10299.65
870.5941	1249.1922	11254.35	10306.1
870.7387	1251.0986	11304.5	10361.4
870.8832	1253.0042	11323.05	10377.65
871.0277	1254.9092	11385.3	10439.4
871.1722	1256.8134	11462.15	10520
871.3167	1258.7169	11621.15	10674
871.4611	1260.6196	11779.7	10835.6
871.6056	1262.5216	11979	11032.5
871.7501	1264.4229	12166.15	11219.95
871.8945	1266.3234	12338.8	11396.35
872.039	1268.2232	12464.8	11517.1
872.1834	1270.1223	12457	11511.2
872.3278	1272.0207	12480.5	11534.3
872.4723	1273.9183	12463.9	11512.9
872.6167	1275.8151	12377.55	11434.4
872.7611	1277.7113	12337.15	11389.65
872.9055	1279.6067	12298.35	11356.9
873.0499	1281.5014	12288.05	11343.2
873.1943	1283.3953	12387.85	11437.95
873.3386	1285.2885	12533.05	11588.45
873.483	1287.181	12739.6	11796.25
873.6274	1289.0727	12952.5	12011.5
873.7717	1290.9637	13104.7	12161.15
873.9161	1292.854	13291.55	12344.95
874.0604	1294.7435	13347.65	12403.35
874.2047	1296.6323	13434.6	12486.8
874.349	1298.5204	13520.1	12572.9
874.4933	1300.4077	13630.65	12683.8
874.6376	1302.2943	13658.1	12714.95
874.7819	1304.1802	13580.85	12637.3
874.9262	1306.0653	13334.15	12387.2
875.0705	1307.9497	13045.05	12102.75
875.2147	1309.8333	12800.85	11858.4
875.359	1311.7162	12640.95	11694.7
875.5032	1313.5984	12611.7	11663.4
875.6475	1315.4798	12575.2	11631.4
875.7917	1317.3605	12588.5	11627.5
875.9359	1319.2405	12622.1	11674.85
876.0801	1321.1197	12488.1	11542.05
876.2243	1322.9982	12295.55	11344.55
876.3685	1324.876	12172.3	11228
876.5127	1326.753	12000.05	11053.65
876.6569	1328.6293	11938.95	10994.35
876.801	1330.5048	11895.45	10947
876.9452	1332.3796	11802.8	10857.3
877.0893	1334.2537	11760.45	10793.75
877.2335	1336.127	11698.95	10758.45
877.3776	1337.9996	11680.2	10736.05
877.5217	1339.8714	11650.95	10706.05
877.6658	1341.7426	11676.2	10686.3
877.8099	1343.6129	11656.25	10710.85
877.954	1345.4826	11607.3	10664.85
878.0981	1347.3515	11610.35	10658.95
878.2422	1349.2196	11578.5	10632.2
878.3862	1351.087	11592.8	10650
878.5303	1352.9537	11636.5	10691.5
878.6743	1354.8197	11753.6	10806.75
878.8184	1356.6849	11909.45	10963.1
878.9624	1358.5493	12057.9	11114.25
879.1064	1360.4131	12154.3	11209.4
879.2504	1362.276	12131.65	11189.1
879.3944	1364.1383	12061.35	11118.3
879.5384	1365.9998	11848.55	10897.6
879.6823	1367.8606	11509.85	10564.35
879.8263	1369.7206	11179.95	10234.55
879.9702	1371.5799	10927.6	9977.4
880.1142	1373.4384	10690.6	9746.75
880.2581	1375.2962	10497.95	9552.9
880.402	1377.1533	10236.6	9293.3
880.5459	1379.0096	9919.8	8981.25
880.6898	1380.8652	9608.2	8671.3
880.8337	1382.7201	9341.6	8402.4
880.9776	1384.5742	9097.65	8157.15
881.1215	1386.4275	8945.15	7999.7
881.2653	1388.2802	8806.75	7863.35
881.4092	1390.132	8707.55	7760.6
881.553	1391.9832	8616.55	7672.55
881.6968	1393.8336	8556.05	7613.35
881.8406	1395.6832	8518.7	7575.25
881.9844	1397.5322	8478.65	7534.6
882.1282	1399.3803	8468.85	7520.55
882.272	1401.2278	8425.2	7482.85
882.4158	1403.0745	8444.85	7504.65
882.5595	1404.9204	8415.55	7475.25
882.7033	1406.7656	8428.1	7481.4
882.847	1408.6101	8445.1	7501.5
882.9908	1410.4538	8470.95	7527.85
883.1345	1412.2968	8520.4	7583.2
883.2782	1414.139	8548.7	7607.95
883.4219	1415.9805	8660.35	7720.05
883.5656	1417.8213	8742.5	7795.1
883.7092	1419.6613	8824.4	7883.6
883.8529	1421.5006	9013.25	8072.85
883.9965	1423.3391	9258	8314.9
884.1402	1425.1769	9547.95	8607.15
884.2838	1427.0139	10011	9068.35
884.4274	1428.8502	10561.3	9619.35
884.571	1430.6858	11109.45	10169.25
884.7146	1432.5206	11522.9	10582.55
884.8582	1434.3547	11742.9	10804.8
885.0018	1436.188	11793.2	10852.3
885.1453	1438.0206	11707.35	10768.55
885.2889	1439.8524	11545.15	10602.55
885.4324	1441.6835	11403.75	10462.65
885.5759	1443.5139	11311.45	10370
885.7194	1445.3435	11267.3	10329.45
885.8629	1447.1724	11233.5	10297.7
886.0064	1449.0005	11149.45	10211.1
886.1499	1450.8279	11060.25	10121.45
886.2933	1452.6545	11031.4	10094.35
886.4368	1454.4804	11096.15	10161.5
886.5802	1456.3056	11044.3	10101.65
886.7237	1458.13	10972.9	10037.75
886.8671	1459.9536	10763.7	9825.4
887.0105	1461.7766	10456.75	9519.9
887.1539	1463.5987	10078.6	9142.15
887.2972	1465.4202	9725.95	8789.1
887.4406	1467.2409	9346	8408.35
887.584	1469.0608	9083.2	8144.85
887.7273	1470.88	8825.3	7888.05
887.8706	1472.6984	8595.6	7659.3
888.0139	1474.5161	8386.95	7444.55
888.1572	1476.3331	8248.85	7312.9
888.3005	1478.1493	8118.25	7181.25
888.4438	1479.9648	8013.45	7078.15
888.5871	1481.7795	7931.95	6995.85
888.7303	1483.5935	7875	6937.45
888.8736	1485.4067	7804.1	6863.2
889.0168	1487.2192	7744.75	6804.25
889.16	1489.031	7705	6765.7
889.3032	1490.842	7672.55	6734.3
889.4464	1492.6522	7625.95	6687.9
889.5896	1494.4618	7590.55	6652.55
889.7327	1496.2705	7562.9	6625.85
889.8759	1498.0785	7528.05	6588.65
890.019	1499.8858	7497.8	6560.55
890.1622	1501.6924	7489.95	6554.55
890.3053	1503.4981	7405.75	6468.15
890.4484	1505.3032	7407.25	6469.3
890.5914	1507.1075	7372.15	6434.05
890.7345	1508.911	7359.95	6425.5
890.8776	1510.7138	7285.5	6347.45
891.0206	1512.5159	7239.25	6301.8
891.1637	1514.3172	7196.1	6261.55
891.3067	1516.1178	7154.15	6220.9
891.4497	1517.9176	7129.9	6190.05
891.5927	1519.7166	7087.9	6155.5
891.7357	1521.515	7061.6	6123.7
891.8786	1523.3126	7052.05	6118.7
892.0216	1525.1094	7032.45	6098.2
892.1645	1526.9055	6982.55	6049.85
892.3074	1528.7008	6975	6044.05
892.4503	1530.4954	6931	5997.15
892.5932	1532.2893	6918.85	5991.6
892.7361	1534.0824	6907.1	5973.5
892.879	1535.8747	6894	5964.6
893.0218	1537.6663	6876.1	5946.85
893.1647	1539.4572	6849.55	5918.9
893.3075	1541.2473	6855.25	5925.25
893.4503	1543.0367	6849.5	5920.45
893.5931	1544.8253	6839.85	5904.7
893.7359	1546.6132	6853.1	5920
893.8787	1548.4003	6866.6	5925.7
894.0214	1550.1867	6917.6	5979.3
894.1642	1551.9723	6963.3	6030.3
894.3069	1553.7572	7007.8	6083.6
894.4496	1555.5414	7075.15	6149.7
894.5923	1557.3247	7160.25	6236.3
894.735	1559.1074	7238.9	6316.6
894.8777	1560.8893	7334.85	6411.4
895.0204	1562.6705	7448.8	6525.05
895.163	1564.4509	7550.05	6624.3
895.3056	1566.2305	7600.75	6683
895.4482	1568.0094	7658.95	6736.75
895.5908	1569.7876	7682.8	6761.15
895.7334	1571.565	7678.45	6755.1
895.876	1573.3417	7679.55	6756.65
896.0186	1575.1176	7661.8	6742.65
896.1611	1576.8928	7635.25	6719.05
896.3036	1578.6672	7582.35	6670.3
896.4461	1580.4409	7511.55	6602.65
896.5886	1582.2138	7436.9	6521.05
896.7311	1583.986	7413.25	6496
896.8736	1585.7575	7372.95	6452.75
897.0161	1587.5282	7358.85	6443.45
897.1585	1589.2981	7376.25	6463.4
897.3009	1591.0673	7380.6	6466.4
897.4433	1592.8358	7442.95	6532.1
897.5857	1594.6035	7460.75	6542.45
897.7281	1596.3704	7521.5	6600.2
897.8705	1598.1366	7593.2	6676.15
898.0128	1599.9021	7669.45	6754.9
898.1551	1601.6668	7736.9	6819.5
898.2975	1603.4308	7828.3	6908.9
898.4398	1605.194	7953.75	7034.05
898.5821	1606.9564	8130.9	7221.6
898.7243	1608.7182	8313.15	7404.3
898.8666	1610.4791	8477.75	7577.5
899.0088	1612.2394	8699.6	7800.55
899.1511	1613.9988	8938.2	8035.3
899.2933	1615.7576	9157.05	8248.3
899.4355	1617.5156	9369.95	8448.1
899.5776	1619.2728	9520.65	8604.4
899.7198	1621.0293	9581.35	8664.8
899.862	1622.785	9520.15	8604.45
900.0041	1624.54	9360.05	8450.65
900.1462	1626.2942	9150.4	8243
900.2883	1628.0477	8849.45	7940.5
900.4304	1629.8005	8603.5	7693
900.5725	1631.5525	8339.75	7433.95
900.7145	1633.3037	8156.55	7248.55
900.8566	1635.0542	8000.95	7094.3
900.9986	1636.804	7876.4	6968.9
901.1406	1638.553	7887.55	6909.2
901.2826	1640.3013	7800.5	6893
901.4245	1642.0488	7777.05	6867.05
901.5665	1643.7955	7813.85	6910.05
901.7085	1645.5416	7859.8	6956.1
901.8504	1647.2868	7973.5	7068.7
901.9923	1649.0313	8083.85	7176.4
902.1342	1650.7751	8218.35	7309.25
902.2761	1652.5181	8383.4	7480
902.4179	1654.2604	8568.05	7660.85
902.5598	1656.0019	8824.55	7918.95
902.7016	1657.7427	9102.4	8194.6
902.8434	1659.4828	9378.5	8469.8
902.9852	1661.222	9521	8610.1
903.127	1662.9606	9518.55	8608.2
903.2687	1664.6984	9291.2	8381.5
903.4105	1666.4354	8862.75	7950.65
903.5522	1668.1717	8346.65	7432.55
903.6939	1669.9072	7816.3	6903.85
903.8356	1671.642	7366.65	6452.3
903.9773	1673.3761	7000.7	6091.7
904.119	1675.1094	6689.75	5779.85
904.2606	1676.8419	6447.3	5538.15
904.4022	1678.5737	6263.7	5353.25
904.5439	1680.3048	6133.9	5226.45
904.6855	1682.0351	6012.3	5099.7
904.827	1683.7646	5919.55	5008.25
904.9686	1685.4934	5823	4914.65
905.1101	1687.2215	5792.35	4885.55
905.2517	1688.9488	5701.35	4798.25
905.3932	1690.6754	5665.05	4760.3
905.5347	1692.4012	5628.6	4720.4
905.6761	1694.1263	5593.5	4684.2
905.8176	1695.8506	5550.15	4643.05
905.9591	1697.5742	5518.2	4612.5
906.1005	1699.297	5466.8	4565
906.2419	1701.0191	5428.1	4525.8
906.3833	1702.7404	5401.4	4499.45
906.5246	1704.461	5372.45	4468.2
906.666	1706.1808	5329.7	4423.6
906.8073	1707.8999	5305.5	4401.35
906.9487	1709.6182	5288.65	4389.85
907.09	1711.3358	5251.55	4354.6
907.2313	1713.0527	5225.3	4327.75
907.3725	1714.7688	5202	4295.1
907.5138	1716.4841	5197.4	4292.9
907.655	1718.1987	5187.95	4278.95
907.7962	1719.9126	5132.55	4233.4
907.9374	1721.6257	5113.8	4215.5
908.0786	1723.338	5110.4	4214.1
908.2198	1725.0496	5094.9	4193.2
908.3609	1726.7605	5086.8	4183.95
908.502	1728.4706	5062.1	4160.55
908.6431	1730.18	5026.75	4128.5
908.7842	1731.8886	5019.05	4120.85
908.9253	1733.5964	5019.15	4100.9
909.0664	1735.3036	4980.65	4078.5
909.2074	1737.0099	4962.8	4063.5
909.3484	1738.7156	4951.45	4054.7
909.4894	1740.4204	4924.8	4023.85
909.6304	1742.1246	4894.2	3994.35
909.7714	1743.8279	4882.65	3984.8
909.9123	1745.5306	4864.7	3968.75
910.0532	1747.2325	4840.35	3945.55
910.1941	1748.9336	4824.4	3924.95
910.335	1750.634	4811.25	3909.6
910.4759	1752.3336	4799.25	3900.9
910.6168	1754.0325	4792.05	3899.5
910.7576	1755.7307	4769.7	3875.15
910.8984	1757.4281	4767.45	3866.75
911.0392	1759.1247	4779.95	3870.5
911.18	1760.8206	4757.4	3851
911.3208	1762.5158	4742.8	3834.05
911.4615	1764.2102	4718.2	3819.3
911.6022	1765.9039	4690.3	3793.55
911.7429	1767.5968	4675.05	3777.75
911.8836	1769.289	4668.75	3774.3
912.0243	1770.9804	4662.7	3764.65
912.1649	1772.6711	4656.2	3757.2
912.3056	1774.361	4654.95	3751.05
912.4462	1776.0502	4625.5	3723.7
912.5868	1777.7386	4632.2	3731.7
912.7274	1779.4263	4606.75	3707.5
912.8679	1781.1132	4598.5	3705.85
913.0084	1782.7994	4581.2	3687.55
913.149	1784.4849	4588	3694.45
913.2895	1786.1696	4582.1	3681.15
913.4299	1787.8535	4556.25	3663.2
913.5704	1789.5367	4552.15	3659.6
913.7108	1791.2192	4544.9	3653.75
913.8513	1792.9009	4544.75	3620.85
913.9917	1794.5818	4525	3626.3
914.132	1796.2621	4532.1	3635.25
914.2724	1797.9415	4505.25	3608.9
914.4128	1799.6202	4506.75	3608.7
914.5531	1801.2982	4486.35	3586.9
914.6934	1802.9755	4478.2	3576.8
914.8337	1804.6519	4465.15	3566.2
914.9739	1806.3277	4444.2	3550.6
915.1142	1808.0027	4438.5	3546.1
915.2544	1809.6769	4438.45	3544.9
915.3946	1811.3504	4422.35	3531.3
915.5348	1813.0231	4407.8	3516.35
915.675	1814.6951	4402.85	3508.7
915.8151	1816.3664	4409.4	3511.8
915.9553	1818.0369	4404.65	3507.45
916.0954	1819.7067	4394.45	3499.05
916.2355	1821.3757	4378.6	3478.8
916.3755	1823.044	4383.75	3483.9
916.5156	1824.7115	4355.9	3456.45
916.6556	1826.3783	4338.9	3442.45
916.7956	1828.0443	4334.65	3438.4
916.9356	1829.7096	4326.75	3428.2
917.0756	1831.3741	4325.65	3425.75
917.2155	1833.0379	4302.6	3409.95
917.3555	1834.701	4294.4	3402.2
917.4954	1836.3633	4298.6	3407.25
917.6353	1838.0248	4287	3393.25
917.7751	1839.6856	4280	3385
917.915	1841.3457	4271.65	3378.2
918.0548	1843.005	4257.4	3360.2
918.1946	1844.6636	4240.7	3344.05
918.3344	1846.3214	4247.2	3350.35
918.4742	1847.9785	4240.9	3346.3
918.6139	1849.6349	4224.85	3327.9
918.7537	1851.2904	4228.9	3321.25
918.8934	1852.9453	4222.8	3322.8
919.0331	1854.5994	4209.75	3307.4
919.1727	1856.2528	4208.6	3305.85
919.3124	1857.9054	4190.5	3291.95
919.452	1859.5572	4187.2	3293.25
919.5916	1861.2083	4179.7	3282.5
919.7312	1862.8587	4181.3	3284.45
919.8708	1864.5084	4181.25	3284.1
920.0103	1866.1572	4168.7	3266.7
920.1498	1867.8054	4142.8	3242.5
920.2893	1869.4528	4133.45	3234.45
920.4288	1871.0994	4133.15	3233.75
920.5683	1872.7453	4135.2	3238.3
920.7077	1874.3905	4128.05	3214.3
920.8471	1876.0349	4106.95	3210.5
920.9865	1877.6786	4102.8	3204.95
921.1259	1879.3215	4098.75	3203.65
921.2653	1880.9637	4067.65	3169.45
921.4046	1882.6051	4083.15	3187.8
921.5439	1884.2458	4058.45	3161.25
921.6832	1885.8858	4069.5	3176.8
921.8225	1887.525	4065.15	3166
921.9617	1889.1634	4039.35	3141.35
922.101	1890.8011	4026	3127.4
922.2402	1892.4381	4013.8	3118.75
922.3794	1894.0743	4016.75	3120.8
922.5185	1895.7098	4010.35	3115.85
922.6577	1897.3446	3992.4	3095.15
922.7968	1898.9786	3991.3	3093.65
922.9359	1900.6118	3977.9	3082
923.075	1902.2443	3967.4	3073.4
923.214	1903.8761	3954.15	3060.55
923.3531	1905.5071	3933.1	3034.75
923.4921	1907.1374	3914.5	3019.65
923.6311	1908.7669	3933.85	3039.2
923.77	1910.3957	3908.2	3013.2
923.909	1912.0237	3902.35	3006.9
924.0479	1913.651	3899.15	3003
924.1868	1915.2776	3879.7	2985.65
924.3257	1916.9034	3880.9	2986.7
924.4646	1918.5285	3863.2	2971.5
924.6034	1920.1528	3856.45	2959.05
924.7422	1921.7764	3845.55	2949.65
924.881	1923.3992	3829.95	2936.7
925.0198	1925.0213	3818.4	2921.45
925.1586	1926.6427	3806.7	2909.6
925.2973	1928.2633	3963.75	2861.8
925.436	1929.8832	3827.1	2929.6
925.5747	1931.5023	3787.15	2894.2
925.7134	1933.1207	3766.6	2872.95
925.852	1934.7383	3774.8	2879.5
925.9906	1936.3552	3765.15	2873.6
926.1292	1937.9714	3750.5	2857.75
926.2678	1939.5868	3736.2	2836.9
926.4064	1941.2015	3715	2818.6
926.5449	1942.8154	3698.55	2802.2
926.6834	1944.4286	3697.25	2801.45
926.8219	1946.041	3698.8	2784.3
926.9604	1947.6528	3682.8	2783.75
927.0988	1949.2637	3669.2	2774.5
927.2372	1950.8739	3666.8	2772.7
927.3756	1952.4834	3651.5	2757.25
927.514	1954.0921	3639.6	2746.55
927.6523	1955.7001	3638.4	2743
927.7907	1957.3074	3623.65	2733.95
927.929	1958.9139	3599.6	2707.7
928.0673	1960.5197	3591.35	2698.85
928.2055	1962.1247	3584.35	2694.3
928.3438	1963.729	3573.8	2684.35
928.482	1965.3325	3556.1	2659.85
928.6202	1966.9353	3552.35	2662.4
928.7584	1968.5374	3552.65	2661.6
928.8965	1970.1387	3533.65	2640.7
929.0346	1971.7393	3521.9	2629.9
929.1727	1973.3392	3517.2	2626.95
929.3108	1974.9383	3504.45	2616.8
929.4489	1976.5366	3495.3	2606.8
929.5869	1978.1342	3472.8	2585
929.7249	1979.7311	3492.1	2603.65
929.8629	1981.3273	3488.65	2601.3
930.0009	1982.9227	3464.7	2575.55
930.1388	1984.5173	3460.05	2572.1
930.2767	1986.1112	3444.15	2558.4
930.4146	1987.7044	3432.45	2544.5
930.5525	1989.2968	3423.5	2534.1
930.6904	1990.8885	3423.85	2532.9
930.8282	1992.4795	3406.35	2519.9
930.966	1994.0697	3394.4	2508.15
931.1038	1995.6592	3404.5	2518.95
931.2415	1997.2479	3385.2	2497.1
931.3793	1998.8359	3378.2	2490.95
931.517	2000.4232	3366.95	2484.45
931.6547	2002.0097	3359.5	2477.8
931.7923	2003.5955	3348.8	2464.85
931.93	2005.1805	3348.65	2463.95
932.0676	2006.7648	3336.2	2453.05
932.2052	2008.3484	3332.55	2448.45
932.3427	2009.9312	3336.4	2453.5
932.4803	2011.5133	3322.2	2441.85
932.6178	2013.0946	3318.85	2435.85
932.7553	2014.6752	3314.3	2430.25
932.8928	2016.2551	3311.35	2426.6
933.0302	2017.8342	3279.75	2393.8
933.1676	2019.4126	3286.45	2406
933.305	2020.9902	3262.85	2383.55
933.4424	2022.5672	3259	2376.25
933.5798	2024.1433	3267.7	2380.95
933.7171	2025.7188	3246.5	2367.25
933.8544	2027.2935	3247.7	2366.7
933.9917	2028.8674	3236.6	2356.7
934.129	2030.4406	3219.45	2339.8
934.2662	2032.0131	3210.75	2333.8
934.4034	2033.5849	3216.9	2336.35
934.5406	2035.1559	3222	2343.65
934.6778	2036.7261	3204.75	2322.6
934.8149	2038.2957	3194.6	2308.95
934.952	2039.8645	3184.2	2297.8
935.0891	2041.4325	3198.45	2310
935.2262	2042.9998	3170.55	2287.35
935.3632	2044.5664	3175.75	2292.4
935.5002	2046.1323	3159.85	2278.6
935.6372	2047.6974	3161.6	2281.15
935.7742	2049.2617	3158.45	2279.45
935.9111	2050.8254	3177.4	2264.05
936.048	2052.3883	3153.25	2269.15
936.1849	2053.9504	3148.15	2261.6
936.3218	2055.5118	3129	2242
936.4586	2057.0725	3121.8	2234.95
936.5955	2058.6325	3113.5	2229.8
936.7323	2060.1917	3101.45	2219.9
936.869	2061.7502	3104.65	2220.45
937.0058	2063.3079	3090.65	2209.25
937.1425	2064.8649	3094.05	2211.1
937.2792	2066.4212	3079.1	2197.65
937.4159	2067.9767	3066.85	2182.85
937.5525	2069.5315	3074.05	2191.9
937.6891	2071.0856	3058.55	2176
937.8257	2072.6389	3058.85	2175
937.9623	2074.1915	3036.4	2158.55
938.0989	2075.7433	3021.15	2137.15
938.2354	2077.2945	3020.6	2136.7
938.3719	2078.8448	3003.95	2117.75
938.5084	2080.3945	3011.8	2127.95
938.6448	2081.9434	3013.45	2128.85
938.7812	2083.4916	3010.15	2122.55
938.9176	2085.039	2982.6	2090.9
939.054	2086.5857	2994.05	2101.25
939.1903	2088.1317	2988	2095
939.3267	2089.677	2989.85	2095.25
939.463	2091.2215	2965.4	2074.3
939.5992	2092.7652	2975.05	2080.35
939.7355	2094.3083	2957.05	2065.35
939.8717	2095.8506	2962.8	2073.95
940.0079	2097.3921	2956.35	2070.95
940.1441	2098.933	2942.4	2055.55
940.2802	2100.4731	2955.85	2067.55
940.4163	2102.0124	2948.5	2049.1
940.5524	2103.5511	2937.65	2046.75
940.6885	2105.089	2941.45	2050.95
940.8245	2106.6261	2926.45	2039.25
940.9606	2108.1626	2919.3	2029.7
941.0965	2109.6983	2945.75	2031.3
941.2325	2111.2332	2918.65	2029.6
941.3684	2112.7675	2904.9	2013.3
941.5044	2114.301	2899.85	2010.15
941.6403	2115.8337	2886.85	1996.55
941.7761	2117.3657	2888.55	2000.1
941.912	2118.897	2883.65	1993.5
942.0478	2120.4276	2885.45	1990.85
942.1835	2121.9575	2867.35	1976.45
942.3193	2123.4866	2877.15	1985.2
942.455	2125.0149	2855.55	1965.5
942.5907	2126.5426	2847.1	1961.85
942.7264	2128.0695	2841.65	1955.55
942.8621	2129.5956	2831.5	1948.8
942.9977	2131.1211	2837.7	1949.7
943.1333	2132.6458	2834.7	1946.6
943.2689	2134.1698	2830.3	1941.25
943.4044	2135.693	2835.75	1944.5
943.54	2137.2155	2817.4	1923.55
943.6755	2138.7373	2814.3	1924.5
943.8109	2140.2584	2808.65	1923.55
943.9464	2141.7787	2794.1	1906.95
944.0818	2143.2983	2780.35	1900.7
944.2172	2144.8171	2775.9	1895.85
944.3526	2146.3353	2770.35	1885
944.4879	2147.8527	2780	1897.25
944.6232	2149.3693	2780.4	1889.95
944.7585	2150.8853	2773.55	1880.75
944.8938	2152.4005	2761.05	1868.55
945.029	2153.9149	2760.6	1870.75
945.1642	2155.4287	2759.35	1869.9
945.2994	2156.9417	2746.8	1856.3
945.4346	2158.454	2735.75	1847.8
945.5697	2159.9655	2718.55	1835.7
945.7048	2161.4764	2722.2	1836.9
945.8399	2162.9865	2715.55	1828.05
945.9749	2164.4958	2719.35	1834.8
946.1099	2166.0045	2716.55	1828.8
946.2449	2167.5124	2710.35	1823.35
946.3799	2169.0195	2703.5	1813.9
946.5148	2170.526	2710.2	1818.95
946.6498	2172.0317	2692.8	1802.45
946.7846	2173.5367	2698.85	1811.25
946.9195	2175.0409	2678.65	1792.3
947.0543	2176.5445	2679.8	1793.2
947.1891	2178.0473	2682.95	1790.65
947.3239	2179.5494	2682.65	1789.35
947.4587	2181.0507	2680.75	1791.05
947.5934	2182.5513	2656.55	1765.75
947.7281	2184.0512	2646.1	1756.45
947.8628	2185.5504	2646.35	1758.25
947.9974	2187.0488	2638.3	1751.1
948.132	2188.5465	2629.7	1744.2
948.2666	2190.0435	2634.05	1746.6
948.4012	2191.5397	2626.1	1736.95
948.5357	2193.0353	2616.8	1726.85
948.6702	2194.5301	2622	1728.45
948.8047	2196.0241	2605.25	1709.45
948.9392	2197.5175	2605.05	1711.55
949.0736	2199.0101	2599.1	1702.65
949.208	2200.502	2592.35	1705.25
949.3424	2201.9931	2576.4	1688.85
949.4767	2203.4835	2580.45	1693.05
949.611	2204.9733	2569.5	1676.75
949.7453	2206.4622	2565.65	1681.85
949.8796	2207.9505	2565.05	1678.85
950.0138	2209.438	2539.35	1659.45
950.148	2210.9248	2551.35	1665.7
950.2822	2212.4109	2545.6	1656.7
950.4164	2213.8962	2536.4	1643.2
950.5505	2215.3809	2533.2	1637
950.6846	2216.8648	2532.05	1637.25
950.8186	2218.3479	2536.05	1635.95
950.9527	2219.8304	2527.35	1628
951.0867	2221.3121	2510.9	1613.05
951.2207	2222.7931	2500.85	1608
951.3546	2224.2733	2496.1	1604
951.4886	2225.7529	2491.9	1599
951.6225	2227.2317	2484.65	1593.65
951.7563	2228.7098	2481.35	1596.75
951.8902	2230.1872	2459.8	1573.25
952.024	2231.6638	2478.25	1592.1
952.1578	2233.1397	2465.75	1575.2
952.2916	2234.6149	2465.9	1579.3
952.4253	2236.0894	2456.2	1568.7
952.559	2237.5632	2463.4	1565.5
952.6927	2239.0362	2450.2	1562.95
952.8263	2240.5085	2434.05	1548.15
952.9599	2241.9801	2441.2	1551
953.0935	2243.4509	2431.9	1540.2
953.2271	2244.921	2431.95	1538.45
953.3606	2246.3904	2417.75	1520.45
953.4941	2247.8591	2414.3	1521.9
953.6276	2249.3271	2400.15	1509.2
953.7611	2250.7943	2402.5	1511.55
953.8945	2252.2608	2405.35	1513
954.0279	2253.7266	2394.2	1504.75
954.1612	2255.1917	2391.15	1500.35
954.2946	2256.656	2377	1487.35
954.4279	2258.1197	2376.2	1491.05
954.5612	2259.5826	2366.8	1477.3
954.6944	2261.0447	2368.55	1479.3
954.8276	2262.5062	2360.1	1465.65
954.9608	2263.9669	2373.75	1480.1
955.094	2265.4269	2356.8	1467.15
955.2271	2266.8862	2348	1456.3
955.3602	2268.3448	2354.05	1466.9
955.4933	2269.8026	2353.7	1465.35
955.6264	2271.2598	2350	1464
955.7594	2272.7162	2346.55	1460.05
955.8924	2274.1719	2338.55	1446.9
956.0253	2275.6268	2336.1	1442.35
956.1583	2277.0811	2332.8	1440.5
956.2912	2278.5346	2333.15	1444.65
956.4241	2279.9874	2326.9	1442.35
956.5569	2281.4395	2311.75	1426.05
956.6897	2282.8908	2319.95	1427.55
956.8225	2284.3414	2304.75	1413.5
956.9553	2285.7914	2311.15	1420.85
957.088	2287.2406	2305.35	1413.25
957.2207	2288.689	2299.35	1408.3
957.3534	2290.1368	2298.2	1401.85
957.486	2291.5838	2300.75	1401.25
957.6186	2293.0302	2297.45	1399.4
957.7512	2294.4758	2285.75	1390.7
957.8838	2295.9206	2286.9	1394.9
958.0163	2297.3648	2285.25	1394.85
958.1488	2298.8082	2284.65	1394.7
958.2813	2300.251	2271.35	1379.15
958.4137	2301.693	2277.7	1384.8
958.5461	2303.1343	2267.3	1375.7
958.6785	2304.5748	2262.1	1371
958.8108	2306.0147	2250.9	1362.65
958.9432	2307.4538	2247.35	1356.5
959.0754	2308.8922	2241.5	1355.45
959.2077	2310.3299	2234.65	1347.6
959.3399	2311.7669	2237.85	1350.1
959.4721	2313.2031	2232.05	1341.4
959.6043	2314.6387	2231.35	1341.3
959.7365	2316.0735	2234.1	1343.3
959.8686	2317.5076	2215.25	1326.85
960.0006	2318.941	2218.45	1326
960.1327	2320.3737	2214.6	1319.6
960.2647	2321.8056	2215.75	1321.1
960.3967	2323.2369	2202.3	1309.35
960.5287	2324.6674	2205.3	1311.7
960.6606	2326.0972	2184.55	1294.15
960.7925	2327.5263	2195	1306.25
960.9244	2328.9547	2200.7	1308.65
961.0562	2330.3823	2191.55	1297.65
961.1881	2331.8092	2184.05	1284.55
961.3198	2333.2355	2180.85	1287.55
961.4516	2334.661	2174.3	1279.65
961.5833	2336.0858	2175.45	1280.8
961.715	2337.5098	2169.65	1278.2
961.8467	2338.9332	2176.9	1286
961.9783	2340.3558	2167.45	1274.75
962.1099	2341.7778	2160.85	1272.2
962.2415	2343.199	2150.9	1261.6
962.373	2344.6195	2140.95	1250.4
962.5045	2346.0393	2146.05	1259.75
962.636	2347.4583	2146.9	1256.4
962.7675	2348.8767	2143.9	1251.4
962.8989	2350.2943	2146.05	1252.85
963.0303	2351.7113	2146.75	1251.8
963.1617	2353.1275	2139.75	1245.75
963.293	2354.543	2142.4	1240
963.4243	2355.9578	2137.1	1247.5
963.5556	2357.3718	2123.75	1235.35
963.6868	2358.7852	2112.85	1222.8
963.818	2360.1978	2113.2	1226.05
963.9492	2361.6098	2113.1	1228.45
964.0803	2363.021	2104.35	1211.4
964.2114	2364.4315	2105.7	1215.8
964.3425	2365.8413	2103.35	1212.3
964.4736	2367.2504	2089.85	1202
964.6046	2368.6587	2088.7	1199.4
964.7356	2370.0664	2085.4	1196.7
964.8666	2371.4733	2075.8	1186.7
964.9975	2372.8795	2086.8	1197.5
965.1284	2374.285	2067.95	1180
965.2593	2375.6899	2071.15	1184.55
965.3901	2377.0939	2066.5	1178.4
965.5209	2378.4973	2055.9	1169.35
965.6517	2379.9	2058.5	1170.25
965.7825	2381.3019	2046.35	1160.05
965.9132	2382.7032	2045.95	1160.05
966.0439	2384.1037	2044.9	1161.3
966.1745	2385.5035	2049.35	1163.55
966.3051	2386.9027	2031.45	1148
966.4357	2388.3011	2039.95	1151
966.5663	2389.6987	2026.5	1142.8
966.6968	2391.0957	2021.1	1135.55
966.8273	2392.492	2008.8	1126.35
966.9578	2393.8876	2003.9	1118.8
967.0882	2395.2824	2000.85	1113.9
967.2186	2396.6765	2004.4	1117.8
967.349	2398.07	2001.85	1115.5
967.4793	2399.4627	2004.45	1114.6
967.6097	2400.8547	1990	1100.9
967.7399	2402.246	1993.05	1101.2
967.8702	2403.6366	1984.3	1097.95
968.0004	2405.0265	1975.65	1088.85
968.1306	2406.4156	1981.55	1091.45
968.2607	2407.8041	1983.45	1094
968.3909	2409.1918	1975.15	1084.45
968.521	2410.5789	1973.35	1085.3
968.651	2411.9652	1975	1085.65
968.781	2413.3508	1959.05	1070.25
968.911	2414.7358	1960.85	1072.55
969.041	2416.12	1950.4	1063.8
969.1709	2417.5035	1948.55	1062.85
969.3008	2418.8863	1945.5	1056.1
969.4307	2420.2684	1947.55	1059.8
969.5606	2421.6497	1944.85	1058.4
969.6904	2423.0304	1939.85	1053.7
969.8201	2424.4104	1943.75	1056.4
969.9499	2425.7896	1936.05	1048.4
970.0796	2427.1682	1929.5	1042.4
970.2093	2428.546	1925.5	1037.45
970.3389	2429.9232	1935.3	1047.35
970.4685	2431.2996	1921	1033.9
970.5981	2432.6753	1925.75	1039.5
970.7277	2434.0503	1914.55	1028.75
970.8572	2435.4246	1914.2	1029.8
970.9867	2436.7982	1910.1	1019.45
971.1161	2438.1711	1910.8	1021.6
971.2456	2439.5433	1907.7	1020.95
971.375	2440.9148	1901.8	1009.9
971.5043	2442.2856	1893.25	1006.65
971.6336	2443.6557	1890.45	1001.6
971.7629	2445.025	1891.6	1002.4
971.8922	2446.3937	1885.8	997.2
972.0214	2447.7617	1882.9	995.6
972.1506	2449.1289	1884.45	995.8
972.2798	2450.4955	1880.75	989.75
972.4089	2451.8613	1871.55	986.7
972.538	2453.2265	1874.85	987.1
972.6671	2454.5909	1877.7	991.1
972.7961	2455.9546	1867.65	983
972.9251	2457.3177	1862.8	977.45
973.0541	2458.68	1856.75	968.25
973.1831	2460.0416	1852.3	963.5
973.312	2461.4025	1855.05	966.5
973.4408	2462.7627	1864.9	966.85
973.5697	2464.1222	1848.4	963
973.6985	2465.4811	1845.65	959.6
973.8273	2466.8392	1849.6	962.8
973.956	2468.1966	1846.4	956.4
974.0847	2469.5533	1850.7	962.35
974.2134	2470.9093	1852.25	965.3
974.3421	2472.2645	1833.1	942.8
974.4707	2473.6191	1846.25	958.5
974.5993	2474.973	1833.3	943.8
974.7278	2476.3262	1836.55	946.05
974.8563	2477.6787	1825.1	937.1
974.9848	2479.0305	1831.9	944.05
975.1132	2480.3816	1833.95	946.25
975.2417	2481.7319	1809.85	922.6
975.37	2483.0816	1817.85	930.3
975.4984	2484.4306	1812.9	923.55
975.6267	2485.7789	1812.15	926.05
975.755	2487.1264	1801.55	914.4
975.8833	2488.4733	1792.7	906.4
976.0115	2489.8195	1812.4	909
976.1397	2491.165	1800.85	910.1
976.2678	2492.5097	1786.2	898.5
976.3959	2493.8538	1780.1	895.85
976.524	2495.1972	1792.75	904.6
976.6521	2496.5398	1777.25	889.8
976.7801	2497.8818	1793.25	902.15
976.9081	2499.2231	1779.3	889.9
977.036	2500.5637	1780.2	886.65
977.164	2501.9035	1779.55	891.55
977.2918	2503.2427	1774.45	881.9
977.4197	2504.5812	1772.5	886.25
977.5475	2505.919	1764	873
977.6753	2507.256	1765.3	877.55
977.8031	2508.5924	1750	861.15
977.9308	2509.9281	1763.05	869.45
978.0585	2511.2631	1748.5	861.25
978.1861	2512.5974	1762.7	875.3
978.3137	2513.9309	1760.35	872
978.4413	2515.2638	1779.6	864.4
978.5689	2516.596	1748.35	859.75
978.6964	2517.9275	1755.15	865.2
978.8239	2519.2583	1740.35	853
978.9513	2520.5884	1732.6	843.65
979.0788	2521.9178	1735.85	848.25
979.2062	2523.2465	1730.1	844.05
979.3335	2524.5745	1727	841.25
979.4608	2525.9018	1718.85	832.1
979.5881	2527.2284	1721.15	833.65
979.7154	2528.5543	1732.6	846.25
979.8426	2529.8796	1714.6	829.55
979.9698	2531.2041	1717.9	830.4
980.0969	2532.5279	1724.2	840.1
980.224	2533.851	1722.85	835
980.3511	2535.1735	1727.8	840.65
980.4781	2536.4952	1719.35	832.15
980.6052	2537.8163	1712.55	823.35
980.7321	2539.1366	1712.7	823.65
980.8591	2540.4562	1707.55	817
980.986	2541.7752	1708.55	820.45
981.1129	2543.0935	1703.8	815.05
981.2397	2544.411	1706.3	815.5
981.3665	2545.7279	1708.15	819.4
981.4933	2547.0441	1698.1	809.4
981.62	2548.3596	1707.05	813.5
981.7467	2549.6744	1692.6	804.2
981.8734	2550.9885	1702.05	810.45
982.0001	2552.3019	1689.45	798.35
982.1267	2553.6146	1680.75	788.7
982.2532	2554.9266	1693.65	803.75
982.3798	2556.2379	1683.55	795.55
982.5063	2557.5485	1695.45	810
982.6327	2558.8585	1684.3	790.85
982.7592	2560.1677	1683.6	792.4
982.8856	2561.4762	1672.75	783.9
983.0119	2562.7841	1676.2	785.95
983.1383	2564.0913	1678.9	792
983.2646	2565.3977	1668.5	780.75
983.3908	2566.7035	1672.9	783.8
983.517	2568.0086	1680.05	790.35
983.6432	2569.313	1665.65	775.7
983.7694	2570.6167	1673.25	781.65
983.8955	2571.9197	1665.3	775.65
984.0216	2573.222	1670.45	778.85
984.1476	2574.5236	1669.35	779.75
984.2737	2575.8246	1670.1	779.6
984.3996	2577.1248	1659.15	768.8
984.5256	2578.4244	1664.1	774.2
984.6515	2579.7232	1663.1	775.15
984.7774	2581.0214	1688.75	774.5
984.9032	2582.3189	1663.25	778
985.029	2583.6157	1653.35	762.05
985.1548	2584.9118	1657.85	767.4
985.2806	2586.2072	1660.5	772.25
985.4063	2587.5019	1654.8	767.55
985.5319	2588.7959	1655.4	766.05
985.6576	2590.0893	1670.6	780.15
985.7832	2591.3819	1657.2	767.6
985.9087	2592.6739	1658.25	769.25
986.0343	2593.9652	1655.9	764.8
986.1597	2595.2557	1658.1	768.35
986.2852	2596.5456	1654.6	764.2
986.4106	2597.8348	1649.75	762.65
986.536	2599.1234	1658.35	770.35
986.6614	2600.4112	1658.7	770.35
986.7867	2601.6983	1663.25	771.45
986.912	2602.9848	1648.15	760.8
987.0372	2604.2705	1650.85	757.4
987.1624	2605.5556	1641.3	753.4
987.2876	2606.84	1642.15	754.55
987.4128	2608.1237	1637.75	749.2
987.5379	2609.4067	1636.5	749
987.6629	2610.689	1643	746.55
987.788	2611.9707	1637.75	744.8
987.913	2613.2516	1644.6	752.75
988.0379	2614.5319	1631.85	745.05
988.1629	2615.8115	1619.95	735.5
988.2878	2617.0903	1629.2	740.55
988.4126	2618.3685	1618.9	732.55
988.5375	2619.6461	1615.2	726.6
988.6622	2620.9229	1609.5	722.3
988.787	2622.199	1609.8	720.85
988.9117	2623.4745	1617.3	731.25
989.0364	2624.7493	1616.15	727.15
989.161	2626.0234	1607.15	721.45
989.2857	2627.2968	1611.95	725.9
989.4102	2628.5695	1604.25	715.6
989.5348	2629.8415	1602.15	714.7
989.6593	2631.1128	1601.75	712.15
989.7837	2632.3835	1603.85	715.8
989.9082	2633.6535	1605.55	719.6
990.0326	2634.9228	1603.1	716.75
990.1569	2636.1914	1601.85	715.2
990.2812	2637.4593	1603.85	716.25
990.4055	2638.7265	1596.35	710
990.5298	2639.9931	1597.6	710.95
990.654	2641.259	1583.4	696.5
990.7782	2642.5242	1586.85	700.7
990.9023	2643.7887	1587.8	697.45
991.0264	2645.0525	1592.75	706
991.1505	2646.3156	1577.95	689.55
991.2745	2647.5781	1578.35	691.35
991.3985	2648.8398	1575.9	691.15
991.5225	2650.1009	1609.25	686.2
991.6464	2651.3613	1574.45	687.45
991.7703	2652.6211	1574.7	688.75
991.8942	2653.8801	1567.75	682.85
992.018	2655.1385	1572	683.7
992.1418	2656.3961	1567.7	679.95
992.2655	2657.6531	1580.35	690.8
992.3892	2658.9094	1570.85	685
992.5129	2660.1651	1565.8	681.45
992.6366	2661.42	1571	682.85
992.7602	2662.6743	1579.35	692.25
992.8837	2663.9279	1570.5	684.5
993.0073	2665.1808	1573.2	684.25
993.1307	2666.433	1575.95	691.05
993.2542	2667.6846	1572.7	686.3
993.3776	2668.9354	1577.85	687.6
993.501	2670.1856	1574	686.15
993.6244	2671.4351	1580.3	691.95
993.7477	2672.6839	1582.55	693.15
993.8709	2673.9321	1580.95	694.3
993.9942	2675.1795	1582.5	696.55
994.1174	2676.4263	1584.2	695.9
994.2405	2677.6724	1590.5	706.2
994.3637	2678.9179	1585	698.25
994.4868	2680.1626	1577.95	690.3
994.6098	2681.4067	1582.4	695.1
994.7328	2682.6501	1589.5	701.95
994.8558	2683.8928	1578.55	691.4
994.9788	2685.1348	1568.95	682.5
995.1017	2686.3761	1571.05	683.4
995.2245	2687.6168	1566	680.3
995.3474	2688.8568	1561.5	675.55
995.4702	2690.0961	1562.6	679.2
995.5929	2691.3348	1562.2	677.3
995.7156	2692.5727	1554.1	668.05
995.8383	2693.81	1549.8	663
995.961	2695.0466	1553.15	668.35
996.0836	2696.2826	1543.95	655.5
996.2062	2697.5178	1552.45	662.05
996.3287	2698.7524	1552.05	665
996.4512	2699.9863	1551.05	664.75
996.5737	2701.2195	1537.85	652.4
996.6961	2702.452	1561.3	671.95
996.8185	2703.6839	1554.6	666.95
996.9408	2704.9151	1561.85	677.35
997.0631	2706.1456	1562.7	674.1
997.1854	2707.3755	1565.55	678.65
997.3077	2708.6046	1583.1	693.9
997.4299	2709.8331	1581.5	695.65
997.552	2711.0609	1580.7	694.65
997.6742	2712.2881	1594.1	709.75
997.7963	2713.5145	1608.85	723
997.9183	2714.7403	1608.65	722.2
998.0403	2715.9654	1617.8	731.4
998.1623	2717.1899	1636.5	734.7
998.2842	2718.4136	1640.2	754.55
998.4062	2719.6367	1647.95	762.25
998.528	2720.8591	1666.05	772.8
998.6498	2722.0809	1674.05	787.85
998.7716	2723.3019	1687.5	797.5
998.8934	2724.5223	1690.9	803.35
999.0151	2725.7421	1696.05	810.1
999.1368	2726.9611	1701.6	814.95
999.2584	2728.1795	1689.8	799.25
999.38	2729.3972	1681.25	796
999.5016	2730.6142	1688.75	789.55
999.6231	2731.8306	1659.05	773.05
999.7446	2733.0462	1646.35	759.2
999.8661	2734.2612	1647.15	753.55
999.9875	2735.4756	1617.6	730.4
1000.1089	2736.6892	1587.5	702.2
1000.2302	2737.9022	1579.5	695.6
1000.3515	2739.1145	1560.6	675.25
1000.4728	2740.3262	1560.85	666.1
1000.594	2741.5372	1544.1	658.45
1000.7152	2742.7475	1526.9	640.7
1000.8363	2743.9571	1524.35	637.75
1000.9575	2745.1661	1520.65	630.75
1001.0785	2746.3744	1504.1	621
1001.1996	2747.582	1492	607.15
1001.3206	2748.7889	1490.2	602.7
1001.4415	2749.9952	1486.8	600.4
1001.5625	2751.2008	1476.25	587.95
1001.6833	2752.4057	1472.5	585.25
1001.8042	2753.61	1465.75	578.85
1001.925	2754.8136	1462.5	574.8
1002.0458	2756.0165	1462.9	576.4
1002.1665	2757.2188	1462.45	579.25
1002.2872	2758.4204	1460.8	576
1002.4078	2759.6213	1463.85	578.05
1002.5285	2760.8215	1473.8	586
1002.649	2762.0211	1460.35	571.1
1002.7696	2763.22	1460.15	573.6
1002.8901	2764.4182	1461.55	575.6
1003.0106	2765.6158	1452.45	569.9
1003.131	2766.8127	1444.7	561.7
1003.2514	2768.009	1444.8	560.4
1003.3717	2769.2045	1444.8	560.5
1003.492	2770.3994	1441.25	552.4
1003.6123	2771.5936	1440.3	554.7
1003.7325	2772.7872	1430	548.2
1003.8527	2773.9801	1428.45	541.5
1003.9729	2775.1723	1446.9	545.6
1004.093	2776.3639	1432.7	547.7
1004.2131	2777.5548	1426.35	541
1004.3331	2778.745	1427.1	540.7
1004.4531	2779.9346	1431.4	545.9
1004.5731	2781.1235	1434.5	548.65
1004.693	2782.3117	1431.7	547.9
1004.8129	2783.4992	1441.35	557.1
1004.9328	2784.6861	1444.45	559.45
1005.0526	2785.8723	1445	560.9
1005.1723	2787.0579	1446.7	561
1005.2921	2788.2428	1450.6	564.85
1005.4118	2789.427	1457.7	575.4
1005.5314	2790.6106	1466.55	583.05
1005.651	2791.7935	1479.8	595.85
1005.7706	2792.9757	1480.2	597.55
1005.8902	2794.1573	1492.55	607.35
1006.0097	2795.3382	1506.05	621.2
1006.1291	2796.5184	1518.75	637.6
1006.2485	2797.698	1531.25	645.55
1006.3679	2798.8769	1539.75	656.3
1006.4873	2800.0551	1554.1	669.1
1006.6066	2801.2327	1566.7	677.95
1006.7258	2802.4096	1587	703.65
1006.8451	2803.5859	1604.05	720.5
1006.9642	2804.7615	1626.4	741.3
1007.0834	2805.9364	1640.4	755.2
1007.2025	2807.1106	1666.6	783.2
1007.3216	2808.2842	1701.9	818.5
1007.4406	2809.4572	1722.3	838.5
1007.5596	2810.6294	1765.2	878.55
1007.6785	2811.801	1792	909.25
1007.7975	2812.972	1840.95	956
1007.9163	2814.1423	1876.7	991.55
1008.0352	2815.3119	1916.9	1032.1
1008.154	2816.4808	1972.5	1090.3
1008.2727	2817.6491	2006.2	1122.7
1008.3914	2818.8167	2049.45	1166.9
1008.5101	2819.9837	2109.9	1223.05
1008.6288	2821.15	2166.15	1281.9
1008.7474	2822.3157	2211.7	1329.1
1008.8659	2823.4807	2257.25	1371.7
1008.9844	2824.645	2315.4	1431.05
1009.1029	2825.8086	2363.75	1479.7
1009.2214	2826.9716	2408.85	1526.7
1009.3398	2828.134	2468.6	1586.85
1009.4581	2829.2957	2504.95	1622.85
1009.5764	2830.4567	2539.95	1658.4
1009.6947	2831.617	2546.6	1663.5
1009.813	2832.7767	2566.85	1685.6
1009.9312	2833.9358	2562.95	1680.05
1010.0493	2835.0941	2566.55	1682
1010.1675	2836.2519	2539.45	1657.45
1010.2855	2837.4089	2525.55	1643.7
1010.4036	2838.5653	2522.6	1640.85
1010.5216	2839.7211	2509.25	1627.5
1010.6396	2840.8761	2522.35	1639
1010.7575	2842.0306	2533.45	1650.75
1010.8754	2843.1843	2561.85	1679.8
1010.9932	2844.3374	2606.55	1724.85
1011.111	2845.4899	2657.4	1772.85
1011.2288	2846.6417	2722.9	1841.9
1011.3465	2847.7928	2793.1	1910.2
1011.4642	2848.9433	2868.65	1985.1
1011.5818	2850.0931	2936.35	2054.8
1011.6995	2851.2422	3006.85	2121.55
1011.817	2852.3907	3073.9	2189.75
1011.9345	2853.5385	3128.45	2245
1012.052	2854.6857	3189.8	2294.95
1012.1695	2855.8323	3222.4	2340.7
1012.2869	2856.9781	3278.9	2395
1012.4042	2858.1233	3320.75	2439.75
1012.5216	2859.2679	3372.45	2489.85
1012.6389	2860.4118	3413.15	2532
1012.7561	2861.555	3477.2	2590.2
1012.8733	2862.6976	3497.15	2611.65
1012.9905	2863.8395	3531.6	2649.7
1013.1076	2864.9808	3553.6	2670.65
1013.2247	2866.1214	3564.55	2682.4
1013.3417	2867.2614	3609.4	2728.55
1013.4587	2868.4007	3613.7	2729.5
1013.5757	2869.5393	3606.25	2723.55
1013.6926	2870.6773	3639.7	2754.4
1013.8095	2871.8146	3650.9	2766
1013.9263	2872.9513	3653.5	2768.65
1014.0431	2874.0874	3648.75	2765.5
1014.1599	2875.2227	3632.6	2748.95
1014.2766	2876.3574	3620	2739.6
1014.3933	2877.4915	3591.7	2709.9
1014.51	2878.6249	3569.35	2690.3
1014.6266	2879.7577	3554.45	2671
1014.7431	2880.8898	3522.45	2628.95
1014.8596	2882.0212	3502.55	2621.25
1014.9761	2883.152	3489.65	2607.9
1015.0925	2884.2821	3474.2	2592.15
1015.2089	2885.4116	3460.9	2580.9
1015.3253	2886.5405	3481.3	2598.7
1015.4416	2887.6686	3493.3	2608.45
1015.5579	2888.7962	3488.75	2607.9
1015.6741	2889.923	3487.15	2605.75
1015.7903	2891.0493	3500.65	2620.1
1015.9065	2892.1748	3522.5	2639.95
1016.0226	2893.2997	3541.9	2659.85
1016.1387	2894.424	3551.35	2670.5
1016.2547	2895.5476	3558.2	2677.15
1016.3707	2896.6706	3600.2	2719.95
1016.4866	2897.7929	3600.9	2719.45
1016.6025	2898.9145	3632.5	2750.3
1016.7184	2900.0355	3662.65	2780.9
1016.8342	2901.1559	3702.1	2819.6
1016.95	2902.2756	3724.5	2843.15
1017.0658	2903.3946	3765.95	2883.95
1017.1815	2904.513	3800.9	2914.8
1017.2971	2905.6308	3811.95	2932.1
1017.4127	2906.7479	3846.95	2964.65
1017.5283	2907.8643	3874.45	2990.7
1017.6439	2908.9801	3886	3003.4
1017.7594	2910.0953	3884.3	3003.55
1017.8748	2911.2098	3881.25	2996
1017.9902	2912.3236	3880.85	2991.9
1018.1056	2913.4368	3865.5	2981.85
1018.2209	2914.5494	3836.15	2956.95
1018.3362	2915.6613	3809.7	2923.2
1018.4515	2916.7725	3799.35	2914.95
1018.5667	2917.8831	3776.35	2892.1
1018.6819	2918.9931	3736.95	2852.3
1018.797	2920.1024	3704.25	2823.2
1018.9121	2921.211	3690.35	2809.75
1019.0271	2922.319	3656.8	2775.55
1019.1421	2923.4264	3639.7	2760.15
1019.2571	2924.5331	3631.05	2753.7
1019.372	2925.6391	3619.9	2739.45
1019.4869	2926.7445	3624.05	2746.3
1019.6017	2927.8493	3617.7	2737.45
1019.7165	2928.9534	3615.85	2736.8
1019.8313	2930.0569	3618.15	2734.6
1019.946	2931.1597	3622.3	2739.85
1020.0606	2932.2619	3621.6	2740.7
1020.1753	2933.3634	3605.6	2723.65
1020.2899	2934.4643	3590.45	2704.45
1020.4044	2935.5645	3578.55	2691.6
1020.5189	2936.6641	3553.5	2669.05
1020.6334	2937.763	3508.25	2628.45
1020.7478	2938.8613	3464.8	2582.55
1020.8622	2939.959	3434.25	2548.4
1020.9765	2941.056	3350.4	2470
1021.0908	2942.1523	3278	2396.2
1021.2051	2943.248	3205.15	2324.9
1021.3193	2944.3431	3109.65	2228.85
1021.4334	2945.4375	2999.4	2118.5
1021.5476	2946.5313	2898.05	2018.3
1021.6617	2947.6244	2798.2	1914.75
1021.7757	2948.7169	2716.1	1835.95
1021.8897	2949.8087	2610.15	1729.75
1022.0037	2950.8999	2524.7	1643.95
1022.1176	2951.9904	2447.8	1568.25
1022.2315	2953.0803	2379.95	1498.3
1022.3453	2954.1696	2309.1	1426.9
1022.4591	2955.2582	2259.55	1379.2
1022.5728	2956.3462	2213.25	1332.75
1022.6865	2957.4335	2159.85	1277.7
1022.8002	2958.5202	2133.45	1251.45
1022.9138	2959.6062	2108.95	1227.75
1023.0274	2960.6916	2090.8	1210.2
1023.141	2961.7764	2064	1183.7
1023.2545	2962.8605	2052.1	1172.85
1023.3679	2963.9439	2032.25	1153.2
1023.4813	2965.0267	2022.05	1140.6
1023.5947	2966.1089	2038.1	1135.65
1023.708	2967.1905	2005.2	1127
1023.8213	2968.2714	2004.6	1125.05
1023.9346	2969.3516	2012.6	1134.35
1024.0478	2970.4312	2020.2	1134
1024.1609	2971.5102	2011.45	1132.05
1024.274	2972.5885	2016.05	1137.1
1024.3871	2973.6662	2025.4	1136.6
1024.5002	2974.7432	2007.8	1128.95
1024.6132	2975.8196	2004.8	1126.25
1024.7261	2976.8954	1996.05	1116.15
1024.839	2977.9705	1992	1110.55
1024.9519	2979.045	1979.05	1100.05
1025.0647	2980.1188	1957.6	1076.8
1025.1775	2981.192	1935.75	1057.3
1025.2902	2982.2645	1924.95	1043
1025.4029	2983.3364	1901.4	1019.2
1025.5156	2984.4077	1866.75	987.2
1025.6282	2985.4783	1853.2	966.35
1025.7407	2986.5483	1811.85	936.05
1025.8532	2987.6177	1771.55	892.15
1025.9657	2988.6864	1746.85	868.9
1026.0782	2989.7545	1712.9	830.25
1026.1906	2990.8219	1670.45	791.05
1026.3029	2991.8887	1644.15	761.9
1026.4152	2992.9548	1617.3	737.5
1026.5275	2994.0204	1590.65	711.3
1026.6397	2995.0852	1554	675.75
1026.7519	2996.1495	1537.4	656.7
1026.864	2997.2131	1510.35	629.75
1026.9761	2998.276	1481.8	602.75
1027.0882	2999.3383	1468.2	587.65
1027.2002	3000.4	1445.2	564.15
1027.3122	3001.4611	1427.4	546.9
1027.4241	3002.5215	1407.95	526.25
1027.536	3003.5812	1396.9	518.35
1027.6478	3004.6404	1382.7	503.05
1027.7596	3005.6989	1377.95	495.8
1027.8714	3006.7567	1366.45	487.8
1027.9831	3007.8139	1382	473.5
1028.0947	3008.8705	1349.4	469
1028.2064	3009.9264	1359.45	472.75
1028.3179	3010.9818	1341.3	461.65
1028.4295	3012.0364	1330.2	451.7
1028.541	3013.0905	1327.4	446.05
1028.6524	3014.1439	1325.7	446.4
1028.7638	3015.1966	1317.15	439.05
1028.8752	3016.2487	1316.5	438.25
1028.9865	3017.3002	1319.8	437.1
1029.0978	3018.3511	1320.05	441.95
1029.209	3019.4013	1310.9	431.65
1029.3202	3020.4509	1308.15	429.7
1029.4314	3021.4998	1306.15	425.7
1029.5425	3022.5481	1308.7	429.6
1029.6535	3023.5958	1304.75	425.35
1029.7645	3024.6428	1313.25	435.45
1029.8755	3025.6892	1302.95	423.65
1029.9864	3026.735	1309	430.95
1030.0973	3027.7802	1309.15	430.15
1030.2082	3028.8247	1307.45	429.85
1030.319	3029.8685	1317.05	437.95
1030.4297	3030.9118	1316.7	436.2
1030.5404	3031.9544	1314.35	435.25
1030.6511	3032.9963	1317.7	437.5
1030.7617	3034.0376	1324.65	446.45
1030.8723	3035.0783	1325.5	444.9
1030.9829	3036.1184	1328.65	449.7
1031.0934	3037.1578	1334	456.4
1031.2038	3038.1966	1335.55	455.25
1031.3142	3039.2348	1329.1	451.3
1031.4246	3040.2723	1347.8	461
1031.5349	3041.3092	1328.65	451.2
1031.6452	3042.3455	1333.5	452.3
1031.7554	3043.3811	1335.95	457.85
1031.8656	3044.4161	1326.6	447.95
1031.9758	3045.4505	1317	440.25
1032.0859	3046.4842	1324.45	443.55
1032.1959	3047.5173	1315.9	439.7
1032.3059	3048.5498	1310.9	432.4
1032.4159	3049.5816	1308.65	430.4
1032.5258	3050.6128	1298.15	416.5
1032.6357	3051.6434	1299.85	422.05
1032.7455	3052.6734	1292.95	411.7
1032.8553	3053.7027	1281.9	406.25
1032.9651	3054.7314	1285.6	408.65
1033.0748	3055.7594	1275.9	397.9
1033.1845	3056.7868	1274.9	396.6
1033.2941	3057.8136	1278.2	398.85
1033.4037	3058.8398	1269.55	390.65
1033.5132	3059.8653	1264.9	386.4
1033.6227	3060.8902	1253.45	375.7
1033.7321	3061.9145	1256.45	378.55
1033.8415	3062.9381	1249.35	371
1033.9509	3063.9612	1265.9	374.9
1034.0602	3064.9835	1246.25	368.2
1034.1694	3066.0053	1241.8	361.55
1034.2787	3067.0264	1236.5	359
1034.3878	3068.0469	1229.8	349.9
1034.497	3069.0668	1223.75	341.05
1034.6061	3070.086	1217.3	342.25
1034.7151	3071.1046	1205.1	326.8
1034.8241	3072.1226	1204.1	325.55
1034.9331	3073.1399	1192.5	312.85
1035.042	3074.1567	1182.45	304.5
1035.1508	3075.1727	1179.5	299.9
1035.2597	3076.1882	1172.4	296.3
1035.3684	3077.203	1160.6	284
1035.4772	3078.2173	1158	279.15
1035.5859	3079.2308	1153.1	271.1
1035.6945	3080.2438	1139	256.7
1035.8031	3081.2561	1125.7	247.7
1035.9117	3082.2678	1122.35	243.5
1036.0202	3083.2789	1118.85	239.85
1036.1286	3084.2893	1111.5	231.7
1036.2371	3085.2991	1112.7	236.3
1036.3454	3086.3083	1103.75	221.7
1036.4538	3087.3169	1105	227.7
1036.562	3088.3248	1094.95	215.1
1036.6703	3089.3321	1093.8	214.35
1036.7785	3090.3388	1082.2	205.9
1036.8866	3091.3449	1080	201.3
1036.9948	3092.3503	1082.55	204.15
1037.1028	3093.3551	1076.75	198.85
1037.2108	3094.3593	1074.55	196.4
1037.3188	3095.3629	1064.7	186.6
1037.4267	3096.3658	1069.7	191.8
1037.5346	3097.3681	1061.15	184.5
1037.6425	3098.3698	1064.6	184.25
1037.7503	3099.3708	1065.1	179.3
1037.858	3100.3713	1052.8	176.4
1037.9657	3101.3711	1055.55	174.15
1038.0734	3102.3702	1185	172.45
1038.181	3103.3688	1054.25	175.85
1038.2886	3104.3667	1042.25	165.65
1038.3961	3105.364	1046.15	167.85
1038.5036	3106.3607	1048.65	168.6
1038.611	3107.3568	1043.45	164.2
1038.7184	3108.3522	1040	162.85
1038.8257	3109.347	1036.05	154.75
1038.933	3110.3412	1037.7	155.9
1039.0403	3111.3348	1031.05	152.2
1039.1475	3112.3277	1027.45	149.75
1039.2547	3113.32	1031.4	154.55
1039.3618	3114.3117	1025.95	147.45
1039.4689	3115.3028	1028.15	152.2
1039.5759	3116.2932	1030.65	152.95
1039.6829	3117.2831	1032.2	148.95
1039.7898	3118.2723	1022.05	146.45
1039.8967	3119.2608	1024.15	146.4
1040.0035	3120.2488	1022.6	145.15
1040.1103	3121.2361	1022.25	144.8
1040.2171	3122.2229	1017.15	137.45
1040.3238	3123.209	1016.85	137
1040.4305	3124.1944	1013.75	136.3
1040.5371	3125.1793	1013.65	135.25
1040.6437	3126.1635	1010.8	133.8
1040.7502	3127.1471	1009.15	133.15
1040.8567	3128.1301	1006.3	128.6
1040.9631	3129.1125	1009.45	131.5
1041.0695	3130.0942	1013	133.65
1041.1759	3131.0753	1017.85	129.85
1041.2822	3132.0558	1010	131.25
1041.3884	3133.0357	1003.65	126.85
1041.4946	3134.015	997.05	117.7
1041.6008	3134.9936	1002	123.25
1041.7069	3135.9716	1023.9	124.05
1041.813	3136.949	1002.3	126.6
1041.919	3137.9258	1017.35	121.85
1042.025	3138.902	1004.8	122.65
1042.1309	3139.8775	993.55	116.55
1042.2368	3140.8524	993.65	117.15
1042.3427	3141.8267	994.3	114.6
1042.4485	3142.8004	995.85	117.25
1042.5542	3143.7735	999.05	114.55
1042.6599	3144.7459	995.25	115.6
1042.7656	3145.7178	992.7	115.35
1042.8712	3146.689	992.8	115.4
1042.9768	3147.6596	992.7	112.9
1043.0823	3148.6295	986.55	108.5
1043.1878	3149.5989	988.8	111.35
1043.2932	3150.5676	984.25	109.35
1043.3986	3151.5357	986.9	110.7
1043.5039	3152.5032	983	105.55
1043.6092	3153.4701	985.2	108.85
1043.7145	3154.4364	982	102.95
1043.8197	3155.402	984.15	109.4
1043.9248	3156.367	982.85	103.35
1044.03	3157.3315	1015.8	106.15
1044.135	3158.2952	984.85	108
1044.24	3159.2584	979	103.4
1044.345	3160.221	979.1	103.85
1044.4499	3161.1829	979.25	102.05
1044.5548	3162.1442	977.35	100.2
1044.6596	3163.105	975.3	98.65
1044.7644	3164.065	976.8	99
1044.8692	3165.0245	977.05	95.6
1044.9739	3165.9834	977.45	102.2
1045.0785	3166.9416	972.55	94.25
1045.1831	3167.8993	975.75	98.85
1045.2877	3168.8563	972.25	93.1
1045.3922	3169.8127	970.45	94.95
1045.4966	3170.7684	967.85	92.05
1045.6011	3171.7236	968.65	90
1045.7054	3172.6782	969.15	92.85
1045.8098	3173.6321	965.75	90
1045.914	3174.5854	973	91
1046.0183	3175.5381	968.3	91.6
1046.1224	3176.4902	966.75	92.35
1046.2266	3177.4417	965.5	88
1046.3307	3178.3926	964.35	88.1
1046.4347	3179.3428	961.3	85.8
1046.5387	3180.2924	969.45	94.5
1046.6427	3181.2415	964.35	87.5
1046.7466	3182.1899	965.6	85.65
1046.8504	3183.1377	963.1	86.8
1046.9542	3184.0848	963.7	83.85
1047.058	3185.0314	964.45	87.65
1047.1617	3185.9773	961.45	84.6
1047.2654	3186.9227	960.95	84.25
1047.369	3187.8674	958.6	82.65
1047.4726	3188.8115	965.55	84.8
1047.5761	3189.755	959.25	83.4
1047.6796	3190.6979	960.9	83.45
1047.783	3191.6402	955.45	79.65
1047.8864	3192.5818	958.35	82.4
1047.9898	3193.5229	975.6	81.9
1048.0931	3194.4633	956.75	80.55
1048.1963	3195.4031	956.45	79.85
1048.2995	3196.3423	956.65	80.55
1048.4027	3197.2809	954.3	77.05
1048.5058	3198.2189	956.5	80.35
1048.6089	3199.1563	959.9	76
1048.7119	3200.0931	951	77.2
1048.8148	3201.0292	954.2	79.85
1048.9178	3201.9648	949.3	74.9
1049.0206	3202.8997	956.35	76.1
1049.1235	3203.834	950.05	72.5
1049.2262	3204.7677	952.65	75.45
1049.329	3205.7008	950.2	73
1049.4317	3206.6333	949.6	74.9
1049.5343	3207.5652	950.75	71.85
1049.6369	3208.4964	949.9	71.55
1049.7394	3209.4271	948.35	72.65
1049.8419	3210.3571	947	70.3
1049.9444	3211.2865	949.7	72.25
1050.0468	3212.2154	950.7	73.45
1050.1491	3213.1436	950.85	71.15
1050.2514	3214.0712	955.8	72.25
1050.3537	3214.9982	944.95	70.05
1050.4559	3215.9246	945.3	66.25
1050.5581	3216.8503	943.5	69.8
1050.6602	3217.7755	945.65	72.3
1050.7623	3218.7001	945.25	67.4
1050.8643	3219.624	946.85	69.55
1050.9663	3220.5473	945.6	68.4
1051.0682	3221.4701	945.65	69.75
1051.1701	3222.3922	942.75	65
1051.2719	3223.3137	945.9	71.25
1051.3737	3224.2346	942.95	67.95
1051.4754	3225.1549	941.45	65.55
1051.5771	3226.0746	944.65	69.3
1051.6788	3226.9937	942.4	66.25
1051.7804	3227.9121	941.2	65.9
1051.8819	3228.83	941.85	67.55
1051.9834	3229.7473	941	63.45
1052.0849	3230.6639	941.95	66.45
1052.1863	3231.5799	938.85	60.5
1052.2876	3232.4954	942.45	66.5
1052.3889	3233.4102	936.7	62.35
1052.4902	3234.3244	939.6	64.35
1052.5914	3235.238	937.45	61.45
1052.6926	3236.151	960.3	59.35
1052.7937	3237.0634	935.65	61.9
1052.8948	3237.9752	936.6	60.35
1052.9958	3238.8864	935.7	60.35
1053.0968	3239.797	937.4	59.95
1053.1977	3240.7069	938	60.9
1053.2986	3241.6163	935.8	60.15
1053.3994	3242.5251	933.95	59.85
1053.5002	3243.4332	933.6	58.1
1053.6009	3244.3408	936.65	62.5
1053.7016	3245.2477	933.3	59.2
1053.8022	3246.154	934.3	55
1053.9028	3247.0598	935.65	57.7
1054.0034	3247.9649	931.15	55.9
1054.1039	3248.8694	931.45	54.85
1054.2043	3249.7733	933.4	57.65
1054.3047	3250.6766	931.75	56.2
1054.4051	3251.5793	933.5	56.8
1054.5054	3252.4814	930.55	57
1054.6056	3253.3829	929.9	53.65
1054.7058	3254.2838	927.25	51.5
1054.806	3255.1841	929.15	52.55
1054.9061	3256.0838	929.9	56.25
1055.0061	3256.9829	927.55	53.45
1055.1062	3257.8814	929.75	52.35
1055.2061	3258.7792	929.4	52.6
1055.306	3259.6765	928.9	51.65
1055.4059	3260.5731	927.4	53.45
1055.5057	3261.4692	923.5	46.1
1055.6055	3262.3647	924.45	46.75
1055.7052	3263.2595	922.55	48
1055.8049	3264.1538	921.65	46.15
1055.9045	3265.0474	921.05	44.7
1056.0041	3265.9404	920.65	46.55
1056.1036	3266.8329	920.6	46.55
1056.2031	3267.7247	930.15	43.2
1056.3025	3268.616	915.85	42.25
1056.4019	3269.5066	918.15	43.65
1056.5013	3270.3966	917.6	41.65
1056.6005	3271.286	911.95	37.45
