Software Version:	3.9.2.0
Unit SN:	10000200
Spectrometer SN:	6960
Date:	3/8/2024 1:35:10 PM
Data Line Index:	25
Spectral Points:	2048
Integration time (ms):	125
Averages:	20
Delay (ms):	30000
Sequence Number:	1
Processing:	dark subtract
Laser Power (mW):	305
Laser Current (mA):	823
Laser Diode Temp (C):	25
Laser Case Temp (C):	26.3
System Temp (C):	26.3
Spectrometer Temp (C):	24.1
CCD Temp (C):	0.013
Secondary Temp (C):	20.01
Heatsink Temp (C):	20.653
CCDPCB Temp (C):	36.307
SecondaryPCB Temp (C):	31.927

Wavelength	RamanShift	Raw Counts	Dark Subtracted
787.061	30.1047	453.4	46
787.2016	32.3739	455.9	50.45
787.3422	34.6426	460.3	54.1
787.4828	36.9109	466.6	56.15
787.6235	39.1787	476.7	62.65
787.7642	41.4461	484.9	67.3
787.9049	43.7131	493.45	72.3
788.0456	45.9796	501	77.1
788.1863	48.2456	513.3	86.7
788.3271	50.5112	522.9	91.25
788.4679	52.7764	528.95	95.1
788.6087	55.0411	544.75	105.9
788.7496	57.3054	553.15	107.05
788.8904	59.5692	559.8	114.55
789.0313	61.8326	574	127.45
789.1722	64.0955	581.4	128.7
789.3132	66.3579	600.5	144.45
789.4541	68.6199	620.85	160.7
789.5951	70.8815	652.5	187.8
789.7361	73.1426	735.35	264.65
789.8771	75.4032	931.95	458.2
790.0181	77.6634	1431.8	952.35
790.1592	79.9231	2605.55	2117.25
790.3003	82.1824	5134.4	4630.4
790.4414	84.4412	9702.3	9168.25
790.5825	86.6995	15980.35	15408.3
790.7237	88.9574	22098	21489.8
790.8648	91.2148	26307.3	25675.55
791.006	93.4717	28293.7	27646.75
791.1472	95.7282	28694.3	28039.55
791.2885	97.9842	28564.2	27904.4
791.4297	100.2398	28020.35	27360.75
791.571	102.4949	27361.9	26701.5
791.7123	104.7495	26578.6	25913.6
791.8536	107.0036	25781.25	25118.15
791.9949	109.2573	25004.1	24339.05
792.1363	111.5105	24272	23603.6
792.2777	113.7632	23548.05	22877.8
792.4191	116.0154	22975.75	22296.35
792.5605	118.2672	22533.25	21858.35
792.7019	120.5185	22088.4	21407.9
792.8434	122.7693	21699.8	21022.35
792.9849	125.0197	21404.7	20722.7
793.1264	127.2696	21127.5	20441.45
793.2679	129.519	20951.75	20260.1
793.4094	131.7679	20755.3	20059.4
793.551	134.0163	20576.4	19880.25
793.6926	136.2642	20387.75	19684.75
793.8342	138.5117	20119.2	19416.75
793.9758	140.7587	19837.35	19131.1
794.1175	143.0052	19636.05	18926.1
794.2591	145.2512	19373.55	18668.35
794.4008	147.4967	19148.6	18442.7
794.5425	149.7417	18980.85	18271.65
794.6842	151.9863	18853.9	18138.75
794.826	154.2304	18788	18065.3
794.9677	156.4739	18656.1	17934.05
795.1095	158.717	18575.7	17848.2
795.2513	160.9596	18421.05	17688.85
795.3931	163.2017	18166.1	17432.85
795.535	165.4433	17868.85	17139.3
795.6768	167.6844	17537.7	16806.45
795.8187	169.925	17231.45	16491.55
795.9606	172.1651	16873	16132.15
796.1025	174.4047	16591.7	15846.2
796.2445	176.6439	16332.7	15588.05
796.3864	178.8825	16113.7	15368.55
796.5284	181.1206	15942.95	15188.05
796.6704	183.3582	15793.4	15037.6
796.8124	185.5954	15704.5	14945.45
796.9544	187.832	15613.15	14849.8
797.0965	190.0681	15573.35	14811
797.2386	192.3037	15591.9	14821.55
797.3806	194.5388	15575.05	14805.2
797.5228	196.7734	15610.1	14836
797.6649	199.0075	15702.3	14926.45
797.807	201.2411	15834.6	15053.8
797.9492	203.4742	15893	15113.5
798.0914	205.7068	16063.35	15279.6
798.2336	207.9389	16158.3	15374.25
798.3758	210.1704	16312.7	15532.7
798.518	212.4015	16414.25	15648.15
798.6603	214.632	16587.1	15828.75
798.8025	216.862	16768.95	16013
798.9448	219.0915	16929.25	16167.55
799.0871	221.3205	17115.4	16347.75
799.2294	223.549	17334.55	16571.6
799.3718	225.777	17615.55	16851.4
799.5141	228.0044	17957.4	17190
799.6565	230.2314	18355.55	17588.15
799.7989	232.4578	18729.85	17956.2
799.9413	234.6837	19058.95	18278.9
800.0837	236.909	19253.65	18472.4
800.2262	239.1339	19257.55	18451.35
800.3687	241.3582	19051.2	18259.9
800.5111	243.582	18744.95	17920.25
800.6536	245.8053	18467.4	17657.45
800.7961	248.0281	18157.75	17353.7
800.9387	250.2503	17956.1	17149.2
801.0812	252.472	17858.35	17045.85
801.2238	254.6932	17859.95	17051.9
801.3664	256.9139	17802.1	16989.6
801.509	259.134	17860.6	17043.15
801.6516	261.3536	17898.3	17088.7
801.7942	263.5727	18014.25	17199.55
801.9369	265.7912	18000.95	17188.05
802.0795	268.0092	18068.15	17253.75
802.2222	270.2267	18078.9	17262.75
802.3649	272.4436	18072.75	17256.35
802.5076	274.6601	18003.35	17178.25
802.6504	276.8759	17959.45	17136.95
802.7931	279.0913	17888.95	17066.2
802.9359	281.3061	17818.35	16993.85
803.0787	283.5204	17855.35	17027.25
803.2215	285.7341	17896.5	17064.1
803.3643	287.9473	18056.4	17217.65
803.5071	290.16	18249	17416.05
803.6499	292.3721	18536.25	17705.35
803.7928	294.5837	18909.05	18078.3
803.9357	296.7947	19249.5	18422.25
804.0786	299.0052	19447.6	18615.45
804.2215	301.2152	19343.75	18508.6
804.3644	303.4246	19001.9	18172.95
804.5074	305.6334	18506.85	17678.35
804.6503	307.8418	17980.35	17146.75
804.7933	310.0495	17578.5	16743.2
804.9363	312.2568	17248.35	16413.35
805.0793	314.4635	17012.75	16174.8
805.2223	316.6696	16894.45	16049.8
805.3653	318.8752	16793.6	15946.45
805.5084	321.0802	16849.9	16007.65
805.6514	323.2847	16913.55	16067.3
805.7945	325.4887	16995.2	16152.5
805.9376	327.692	16950.75	16109.85
806.0807	329.8949	16867.45	16022.95
806.2238	332.0972	16577.35	15731.9
806.367	334.2989	16341.25	15488.5
806.5101	336.5001	16045.75	15199.45
806.6533	338.7007	15860.95	15013.5
806.7965	340.9008	15736.5	14885.15
806.9397	343.1003	15624.4	14771.35
807.0829	345.2992	15579.85	14727.65
807.2261	347.4976	15517.5	14661.05
807.3693	349.6955	15512.15	14650.75
807.5126	351.8927	15559.45	14700.1
807.6559	354.0895	15536.35	14667.15
807.7991	356.2856	15600.35	14737.4
807.9424	358.4812	15565.3	14702.45
808.0857	360.6763	15592.4	14725.95
808.2291	362.8707	15582.65	14714.2
808.3724	365.0646	15620.8	14754.2
808.5158	367.258	15608.4	14740.6
808.6591	369.4508	15681.8	14806.6
808.8025	371.643	15814.9	14941.6
808.9459	373.8346	15796.35	14923.95
809.0893	376.0257	15804.3	14927.55
809.2327	378.2162	15727.3	14849.55
809.3762	380.4062	15609.8	14735.2
809.5196	382.5956	15495.55	14624.35
809.6631	384.7844	15375.65	14505.45
809.8066	386.9726	15281.7	14416.85
809.9501	389.1603	15203.45	14335.25
810.0936	391.3474	15209	14310.5
810.2371	393.5339	15155.55	14284.15
810.3806	395.7199	15106.45	14238.2
810.5241	397.9052	15144.6	14276.65
810.6677	400.09	15174.05	14308.3
810.8113	402.2743	15262.2	14395.8
810.9548	404.4579	15355.25	14487.5
811.0984	406.641	15540.3	14669.7
811.2421	408.8235	15740.5	14870.2
811.3857	411.0054	15998.15	15124.15
811.5293	413.1868	16415.95	15537.3
811.673	415.3675	16711	15828.25
811.8166	417.5477	16863.6	15981.05
811.9603	419.7273	16914.65	16029.95
812.104	421.9064	16797.7	15908.7
812.2477	424.0848	16671.3	15789.05
812.3914	426.2627	16483.3	15603
812.5351	428.4399	16180.25	15292.25
812.6788	430.6166	15858.15	14970.45
812.8226	432.7928	15469.7	14580.85
812.9663	434.9683	15190.15	14302.85
813.1101	437.1432	14934.95	14050.65
813.2539	439.3176	14783.85	13907.8
813.3977	441.4914	14655.3	13781.4
813.5415	443.6645	14614.65	13735.2
813.6853	445.8371	14608.5	13723.5
813.8291	448.0091	14558.1	13671.45
813.973	450.1806	14516.15	13635.4
814.1168	452.3514	14455.8	13573.45
814.2607	454.5216	14482.35	13588.15
814.4046	456.6913	14439.95	13549.35
814.5485	458.8603	14460.85	13576.95
814.6924	461.0288	14523.85	13647.3
814.8363	463.1967	14508.65	13633.2
814.9802	465.3639	14647.6	13767.5
815.1241	467.5306	14730.6	13847.1
815.2681	469.6967	14867.1	13987.65
815.412	471.8622	14949.95	14070.45
815.556	474.0271	15103.85	14219.7
815.7	476.1914	15177.6	14285.5
815.844	478.3551	15165.8	14278.6
815.988	480.5182	15136.65	14254.5
816.132	482.6807	15151.15	14279.35
816.276	484.8426	15267.1	14398.55
816.4201	487.0039	15571.6	14696
816.5641	489.1647	15976.65	15094.95
816.7082	491.3248	16362.8	15477.4
816.8522	493.4843	16557.2	15677.8
816.9963	495.6432	16527.85	15647.9
817.1404	497.8015	16456.6	15564.45
817.2845	499.9592	16442.3	15543.7
817.4286	502.1163	16389.6	15494.6
817.5727	504.2728	16120.65	15230.7
817.7168	506.4287	15834.95	14954.2
817.861	508.5839	15401.45	14524.95
818.0051	510.7386	15109.35	14222.35
818.1493	512.8927	14972.85	14079.9
818.2935	515.0461	14840.5	13950.25
818.4377	517.199	14823	13927.9
818.5818	519.3512	14879.1	13986.5
818.726	521.5029	14973.9	14074.95
818.8703	523.6539	15080.25	14182.8
819.0145	525.8043	15121.8	14222.7
819.1587	527.9541	15120	14221.25
819.303	530.1033	15073.55	14176.65
819.4472	532.2519	15064.4	14166.95
819.5915	534.3999	15182.8	14283.25
819.7357	536.5472	15415.15	14520.55
819.88	538.694	15811.55	14924.05
820.0243	540.8401	16389.95	15492.3
820.1686	542.9856	16813.05	15906.35
820.3129	545.1305	16972.55	16056.95
820.4572	547.2748	16833.7	15918.3
820.6016	549.4185	16485.9	15570.55
820.7459	551.5615	16162.05	15247.4
820.8902	553.704	16062.3	15150.3
821.0346	555.8458	16014.6	15106.4
821.1789	557.987	16079.9	15179
821.3233	560.1276	16120.5	15210.35
821.4677	562.2675	16218.15	15310.95
821.6121	564.4069	16339.15	15428.2
821.7565	566.5456	16433.3	15527.4
821.9009	568.6837	16387.9	15483.9
822.0453	570.8212	16065.2	15160.8
822.1897	572.958	15677.3	14771.2
822.3342	575.0942	15292.7	14390.95
822.4786	577.2299	15093.9	14196.4
822.6231	579.3648	15026.9	14144.5
822.7675	581.4992	15070.25	14195.65
822.912	583.6329	15216	14337.25
823.0565	585.766	15467.1	14583.7
823.201	587.8985	15604.25	14712.5
823.3454	590.0304	15645.3	14721.5
823.4899	592.1616	15569	14660.5
823.6345	594.2922	15460.95	14551.25
823.779	596.4222	15292.45	14375.45
823.9235	598.5515	15144.7	14232.75
824.068	600.6802	14979.25	14064.1
824.2126	602.8083	14753.3	13844.25
824.3571	604.9358	14759.55	13851.2
824.5017	607.0626	14699.1	13786
824.6462	609.1888	14708.3	13788.35
824.7908	611.3144	14681.4	13762.15
824.9354	613.4393	14609.85	13693.1
825.08	615.5636	14569.6	13649.1
825.2246	617.6873	14461.55	13542.6
825.3692	619.8103	14424.35	13502.95
825.5138	621.9327	14316.9	13401.05
825.6584	624.0544	14261.8	13349.9
825.803	626.1756	14189.55	13277.45
825.9477	628.2961	14160.15	13248.5
826.0923	630.4159	14077.5	13157.85
826.237	632.5351	14030.3	13114.9
826.3816	634.6537	14003.3	13083.1
826.5263	636.7716	13983.6	13058.85
826.6709	638.8889	14001.05	13074.45
826.8156	641.0056	14031.65	13108.6
826.9603	643.1216	13998.95	13074.65
827.105	645.237	14052.7	13130.35
827.2497	647.3518	14001.1	13086.45
827.3944	649.4659	14001.65	13092
827.5391	651.5793	14003.65	13092.1
827.6838	653.6922	14000.4	13087.4
827.8285	655.8043	13982.6	13070.05
827.9733	657.9159	13961	13042.9
828.118	660.0268	13881.3	12963.4
828.2627	662.137	13845.9	12925.95
828.4075	664.2466	13872.3	12945
828.5522	666.3556	13835.85	12911.6
828.697	668.4639	13787.4	12871.5
828.8418	670.5716	13820.05	12908.25
828.9865	672.6786	13894	12974.65
829.1313	674.785	13934.95	13010.15
829.2761	676.8907	13988.1	13065.5
829.4209	678.9958	14061.4	13144.3
829.5657	681.1002	14027.2	13106.05
829.7105	683.204	14062.55	13126.4
829.8553	685.3072	13955.35	13028.6
830.0001	687.4097	13945.4	13020
830.1449	689.5115	13921.8	12995.15
830.2898	691.6127	13896.05	12971.35
830.4346	693.7132	13811.3	12892.95
830.5794	695.8131	13786.25	12857.5
830.7243	697.9123	13782	12851.35
830.8691	700.0109	13743.55	12812.1
831.014	702.1089	13733	12805
831.1588	704.2061	13763.4	12837.55
831.3037	706.3028	13784.9	12852.85
831.4486	708.3987	13848.7	12917.4
831.5935	710.4941	13921.85	12993.65
831.7383	712.5887	14069.55	13144.8
831.8832	714.6827	14309.5	13380.95
832.0281	716.7761	14643.35	13720.15
832.173	718.8688	14969.55	14042.2
832.3179	720.9608	15132	14197.5
832.4628	723.0522	15207.1	14271.15
832.6077	725.1429	15061.5	14133.15
832.7527	727.233	14882.05	13952.6
832.8976	729.3224	14668.6	13736.6
833.0425	731.4112	14435.8	13506.1
833.1874	733.4993	14261.8	13329.95
833.3324	735.5867	14093.8	13162
833.4773	737.6735	13968.75	13037.75
833.6222	739.7596	13883.8	12952.4
833.7672	741.845	13833.7	12902.15
833.9122	743.9298	13789.95	12862.65
834.0571	746.014	13769.75	12838.35
834.2021	748.0974	13779.3	12840.75
834.347	750.1802	13773.35	12835.45
834.492	752.2624	13806.5	12869.05
834.637	754.3439	13825.95	12890.35
834.782	756.4247	13910.7	12967.1
834.9269	758.5048	14054.25	13118.45
835.0719	760.5843	14280.7	13342.3
835.2169	762.6631	14625.1	13686.6
835.3619	764.7413	15111.95	14174.7
835.5069	766.8188	15694.95	14757.7
835.6519	768.8956	16144.55	15209.8
835.7969	770.9718	16499.5	15564.4
835.9419	773.0473	16316.25	15382.05
836.0869	775.1221	16033.4	15096.55
836.232	777.1962	15671.3	14735.85
836.377	779.2697	15487.05	14546.8
836.522	781.3426	15549.4	14593.85
836.667	783.4147	15782.85	14846.05
836.8121	785.4862	16026.3	15091.2
836.9571	787.557	16009.05	15068.7
837.1021	789.6271	15661.6	14724.25
837.2472	791.6966	15126.6	14191.85
837.3922	793.7654	14584.1	13643.9
837.5373	795.8335	14271.85	13338
837.6823	797.901	14040.35	13099.35
837.8274	799.9678	13952.9	13012.4
837.9724	802.0339	13926.4	12989.3
838.1175	804.0993	13984	13030.75
838.2626	806.1641	13944.95	13003.15
838.4076	808.2282	13906.95	12966.6
838.5527	810.2916	13796.9	12853.85
838.6978	812.3544	13715.1	12779.8
838.8428	814.4164	13625.1	12686.4
838.9879	816.4778	13700.45	12759.25
839.133	818.5385	13669.25	12726.65
839.2781	820.5986	13763.25	12821.85
839.4232	822.658	13912.3	12967.7
839.5682	824.7166	14057.2	13115.35
839.7133	826.7747	14323.3	13380.2
839.8584	828.832	14570.95	13629.75
840.0035	830.8886	14748.25	13802.4
840.1486	832.9446	14880	13935.55
840.2937	834.9999	14893.35	13950.8
840.4388	837.0545	14839.3	13893.35
840.5839	839.1085	14804.6	13862.15
840.729	841.1618	14714.05	13765
840.8741	843.2143	14656.55	13713.45
841.0192	845.2662	14531.75	13586.85
841.1643	847.3175	14456.15	13507.8
841.3095	849.368	14361.7	13414.75
841.4546	851.4179	14251.85	13308.65
841.5997	853.467	14122.4	13180.55
841.7448	855.5155	14015.6	13070.7
841.8899	857.5633	13892.4	12948.95
842.0351	859.6105	13805.5	12861.45
842.1802	861.6569	13751	12805.75
842.3253	863.7027	13685.45	12742.4
842.4704	865.7478	13686.9	12741.9
842.6156	867.7922	13699.65	12754.1
842.7607	869.8359	13730.75	12782.9
842.9058	871.8789	13825.85	12874.65
843.0509	873.9212	14000.8	13024.9
843.1961	875.9629	14122.5	13176.85
843.3412	878.0039	14276.85	13329.2
843.4863	880.0441	14368.4	13425.6
843.6315	882.0837	14404.1	13459.1
843.7766	884.1226	14353.9	13405.45
843.9218	886.1609	14274.85	13331.4
844.0669	888.1984	14213.5	13269.35
844.212	890.2352	14264.95	13319
844.3572	892.2714	14235.8	13284.6
844.5023	894.3069	14199.05	13250.95
844.6475	896.3416	14093.95	13149.6
844.7926	898.3757	14029.1	13082.1
844.9377	900.4091	13998.35	13049.05
845.0829	902.4418	14047.9	13093.95
845.228	904.4739	14049	13099
845.3732	906.5052	14066.6	13116.25
845.5183	908.5358	13965.55	13015.1
845.6635	910.5658	13840.6	12889.25
845.8086	912.595	13671.8	12720.55
845.9538	914.6236	13507	12558.75
846.0989	916.6515	13445.5	12497.3
846.2441	918.6786	13424.45	12476.55
846.3892	920.7051	13496.35	12546.2
846.5344	922.7309	13595.45	12640.9
846.6795	924.756	13643.55	12694.65
846.8246	926.7804	13715.55	12765.65
846.9698	928.8041	13685.3	12739
847.1149	930.8272	13743.2	12796
847.2601	932.8495	13659.1	12705.3
847.4052	934.8711	13615.35	12665.75
847.5504	936.892	13493.9	12540.85
847.6955	938.9123	13385.75	12436.55
847.8407	940.9318	13320.6	12373.05
847.9858	942.9506	13208.65	12259.55
848.131	944.9688	13146.85	12200.4
848.2761	946.9862	13087.45	12137.95
848.4213	949.003	12985.75	12035
848.5664	951.019	12981.2	12032.85
848.7115	953.0344	12967.75	12016.7
848.8567	955.0491	12994.75	12042.45
849.0018	957.063	13090.15	12140.55
849.147	959.0763	13191.85	12243.35
849.2921	961.0888	13227	12275.65
849.4373	963.1007	13356.7	12412.65
849.5824	965.1119	13350.95	12409.25
849.7275	967.1223	13383.25	12450.5
849.8727	969.1321	13414	12479.8
850.0178	971.1412	13412.8	12471
850.1629	973.1495	13412.2	12466.45
850.3081	975.1572	13516.9	12516.65
850.4532	977.1641	13488.25	12539.05
850.5983	979.1704	13510.95	12559.9
850.7435	981.1759	13470.1	12518.7
850.8886	983.1808	13522.25	12570.45
851.0337	985.1849	13618.6	12655
851.1788	987.1884	13758.2	12808.4
851.324	989.1911	13887.7	12939.4
851.4691	991.1932	14010	13061.5
851.6142	993.1945	14047.85	13100.5
851.7593	995.1951	14003.5	13056.9
851.9045	997.1951	13964.35	13007.2
852.0496	999.1943	13896.5	12950.75
852.1947	1001.1928	13846.3	12894.9
852.3398	1003.1906	13858.75	12908.8
852.4849	1005.1877	13920.25	12970.25
852.63	1007.1841	13933.45	12982.7
852.7751	1009.1798	13890.8	12944.85
852.9202	1011.1748	13724.95	12774.15
853.0653	1013.1691	13551.7	12601.7
853.2104	1015.1627	13315.5	12367.35
853.3555	1017.1556	13102.2	12156.55
853.5006	1019.1477	13019.05	12077.5
853.6457	1021.1392	12917.5	11973.4
853.7908	1023.1299	12926.05	11986.6
853.9359	1025.12	12917.35	11987.9
854.081	1027.1093	12973.35	12054.05
854.2261	1029.0979	13087.1	12167.45
854.3712	1031.0859	13149.1	12224.9
854.5163	1033.0731	13163.8	12230.8
854.6613	1035.0596	13086.95	12149.1
854.8064	1037.0454	12959.85	12016.45
854.9515	1039.0304	12848.75	11903.4
855.0965	1041.0148	12721.1	11776.4
855.2416	1042.9985	12633.8	11689
855.3867	1044.9814	12602.1	11655.9
855.5317	1046.9636	12530.65	11586.6
855.6768	1048.9452	12522.05	11580.15
855.8219	1050.926	12565	11623
855.9669	1052.9061	12549.2	11604.7
856.112	1054.8855	12564.8	11618.6
856.257	1056.8642	12605.85	11658.85
856.4021	1058.8421	12639	11687
856.5471	1060.8194	12682.45	11735.3
856.6921	1062.7959	12698.25	11750.65
856.8372	1064.7717	12747.2	11797.15
856.9822	1066.7469	12772.85	11825.1
857.1272	1068.7213	12821.4	11872.15
857.2723	1070.695	12785.85	11840.3
857.4173	1072.6679	12751.3	11805.25
857.5623	1074.6402	12733.65	11787.05
857.7073	1076.6117	12718.65	11769.3
857.8523	1078.5826	12682.05	11734.35
857.9973	1080.5527	12675.45	11727.65
858.1423	1082.5221	12706.55	11763.95
858.2873	1084.4908	12834.05	11886.2
858.4323	1086.4587	13009.55	12061.2
858.5773	1088.426	13141.7	12196.85
858.7223	1090.3925	13162.15	12209
858.8673	1092.3584	13136.45	12191
859.0123	1094.3235	12999.1	12052.8
859.1573	1096.2879	12978.1	12033.5
859.3022	1098.2515	12985.05	12039.65
859.4472	1100.2145	13103.05	12160.95
859.5922	1102.1767	13190.3	12244.55
859.7371	1104.1382	13343.25	12397
859.8821	1106.099	13595.05	12648.35
860.027	1108.0591	13779.3	12835.6
860.172	1110.0185	13925.95	12976.9
860.3169	1111.9771	13978.5	13032.3
860.4619	1113.9351	13767.9	12823.4
860.6068	1115.8923	13513.15	12567.05
860.7517	1117.8488	13234.45	12287.6
860.8967	1119.8045	13000.95	12057.7
861.0416	1121.7596	12869.1	11925.45
861.1865	1123.7139	12785.2	11838.3
861.3314	1125.6675	12812.05	11868.25
861.4763	1127.6204	12856.6	11914.1
861.6212	1129.5726	12850.35	11904.85
861.7661	1131.524	12809.35	11863.6
861.911	1133.4748	12765.85	11820.5
862.0559	1135.4248	12699.9	11755.8
862.2008	1137.3741	12663.65	11720.9
862.3457	1139.3226	12615.1	11673.8
862.4905	1141.2705	12591.15	11646.15
862.6354	1143.2176	12480.2	11529.65
862.7803	1145.164	12514.1	11568.95
862.9251	1147.1097	12491.25	11545
863.07	1149.0546	12441.3	11492.45
863.2148	1150.9989	12371.3	11424.5
863.3597	1152.9424	12269.05	11320.7
863.5045	1154.8852	12112.25	11165.5
863.6493	1156.8272	11992.25	11047.8
863.7942	1158.7686	11989.55	11036.7
863.939	1160.7092	11951.45	11006.1
864.0838	1162.6491	11943.4	10996.65
864.2286	1164.5883	12022.7	11077.2
864.3734	1166.5267	12109.7	11163.25
864.5182	1168.4644	12271.75	11325.55
864.663	1170.4014	12483.4	11538.4
864.8078	1172.3377	12686.65	11745.1
864.9526	1174.2732	12953.45	12009.4
865.0974	1176.2081	13195.8	12252.95
865.2421	1178.1421	13505.7	12560.6
865.3869	1180.0755	13761.85	12820.65
865.5317	1182.0082	13912.15	12973.45
865.6764	1183.9401	13964.8	13022.1
865.8212	1185.8713	13816.6	12882.5
865.9659	1187.8017	13581.55	12651.4
866.1106	1189.7315	13304.1	12381.65
866.2554	1191.6605	12993.1	12074.15
866.4001	1193.5888	12776.9	11849.8
866.5448	1195.5163	12662.8	11729.15
866.6895	1197.4432	12591.15	11654.15
866.8342	1199.3693	12564.75	11623.1
866.9789	1201.2947	12500.25	11558.6
867.1236	1203.2193	12500.35	11558.9
867.2683	1205.1432	12490.15	11548.95
867.413	1207.0664	12534.15	11594.3
867.5576	1208.9889	12566.85	11622.8
867.7023	1210.9106	12566.6	11626.35
867.847	1212.8316	12573.85	11636.95
867.9916	1214.7519	12674.5	11722.75
868.1363	1216.6715	12666.1	11725.45
868.2809	1218.5903	12691.75	11750.15
868.4255	1220.5084	12681.2	11742.7
868.5701	1222.4257	12689.65	11750.2
868.7148	1224.3424	12649.85	11713.65
868.8594	1226.2583	12719.25	11778.45
869.004	1228.1735	12816.3	11874.25
869.1486	1230.0879	12898.6	11958.1
869.2932	1232.0016	13049.25	12109.65
869.4377	1233.9146	13085.7	12145.05
869.5823	1235.8269	13037.55	12101.05
869.7269	1237.7384	12877.9	11935.05
869.8715	1239.6492	12746.7	11809.55
870.016	1241.5592	12645.45	11706.3
870.1606	1243.4686	12586	11646.35
870.3051	1245.3772	12593.6	11655.75
870.4496	1247.285	12630.45	11690.7
870.5941	1249.1922	12615.85	11676.65
870.7387	1251.0986	12620.55	11682.1
870.8832	1253.0042	12624.9	11687.85
871.0277	1254.9092	12685.55	11745.4
871.1722	1256.8134	12770.25	11834.5
871.3167	1258.7169	12921.2	11983.65
871.4611	1260.6196	13090.1	12154.3
871.6056	1262.5216	13294.8	12357.2
871.7501	1264.4229	13447.2	12510.9
871.8945	1266.3234	13627.6	12689.85
872.039	1268.2232	13718.9	12779.95
872.1834	1270.1223	13716.55	12778.4
872.3278	1272.0207	13698.25	12759
872.4723	1273.9183	13649.65	12702.55
872.6167	1275.8151	13592.45	12655.35
872.7611	1277.7113	13538.1	12601.3
872.9055	1279.6067	13465.45	12528.85
873.0499	1281.5014	13429.85	12489.6
873.1943	1283.3953	13441.45	12498.8
873.3386	1285.2885	13541.75	12608.35
873.483	1287.181	13685.05	12747.15
873.6274	1289.0727	13802.75	12868.6
873.7717	1290.9637	13931.7	12992.5
873.9161	1292.854	14070.4	13133.65
874.0604	1294.7435	14174.4	13238.15
874.2047	1296.6323	14314.35	13376.7
874.349	1298.5204	14482.75	13543.45
874.4933	1300.4077	14618.7	13681.1
874.6376	1302.2943	14719.2	13779.5
874.7819	1304.1802	14672.2	13735.25
874.9262	1306.0653	14450.25	13512.9
875.0705	1307.9497	14241	13305.25
875.2147	1309.8333	14035.9	13100.65
875.359	1311.7162	13908.5	12973
875.5032	1313.5984	13887.7	12949.1
875.6475	1315.4798	13871.55	12934.9
875.7917	1317.3605	13915.85	12973.05
875.9359	1319.2405	13957.95	13017.9
876.0801	1321.1197	13872.95	12928.95
876.2243	1322.9982	13735.25	12793.4
876.3685	1324.876	13610.65	12676.15
876.5127	1326.753	13487.55	12551.35
876.6569	1328.6293	13468.35	12528.3
876.801	1330.5048	13377.05	12434.1
876.9452	1332.3796	13305.55	12368.7
877.0893	1334.2537	13298.95	12336.45
877.2335	1336.127	13251.9	12314.75
877.3776	1337.9996	13225.65	12288.8
877.5217	1339.8714	13218.75	12284.75
877.6658	1341.7426	13207.45	12224.55
877.8099	1343.6129	13186.25	12246.55
877.954	1345.4826	13124.6	12187.55
878.0981	1347.3515	13082.5	12140.5
878.2422	1349.2196	13070.05	12132.8
878.3862	1351.087	13062.7	12126.45
878.5303	1352.9537	13114.25	12174.2
878.6743	1354.8197	13225.7	12286.7
878.8184	1356.6849	13408.95	12471.45
878.9624	1358.5493	13510.5	12571
879.1064	1360.4131	13584.1	12647.05
879.2504	1362.276	13559.45	12623.85
879.3944	1364.1383	13444.85	12507.65
879.5384	1365.9998	13205.45	12258.95
879.6823	1367.8606	12879.05	11942.05
879.8263	1369.7206	12569.2	11631.05
879.9702	1371.5799	12351.2	11412
880.1142	1373.4384	12154.9	11214.15
880.2581	1375.2962	11973.3	11035.15
880.402	1377.1533	11699.9	10765.5
880.5459	1379.0096	11370.65	10438.75
880.6898	1380.8652	11091.4	10160.35
880.8337	1382.7201	10807.85	9874.05
880.9776	1384.5742	10592.25	9654.75
881.1215	1386.4275	10432.3	9494.6
881.2653	1388.2802	10256.35	9320.25
881.4092	1390.132	10160.85	9224.35
881.553	1391.9832	10115.05	9175.35
881.6968	1393.8336	10002.5	9066.9
881.8406	1395.6832	9983.2	9046.55
881.9844	1397.5322	9942.9	9005.3
882.1282	1399.3803	9906.5	8965.15
882.272	1401.2278	9878.25	8943.55
882.4158	1403.0745	9882.3	8950.85
882.5595	1404.9204	9842.5	8907.15
882.7033	1406.7656	9875.35	8942.45
882.847	1408.6101	9876.25	8940.35
882.9908	1410.4538	9909.65	8973.8
883.1345	1412.2968	9935.7	9001.65
883.2782	1414.139	10008.3	9070.95
883.4219	1415.9805	10073.9	9139.2
883.5656	1417.8213	10130.6	9189.55
883.7092	1419.6613	10251.85	9319.2
883.8529	1421.5006	10428.2	9494.25
883.9965	1423.3391	10662.95	9730.65
884.1402	1425.1769	10972.75	10037.75
884.2838	1427.0139	11408.9	10474.5
884.4274	1428.8502	11989.9	11053.25
884.571	1430.6858	12536.7	11603.55
884.7146	1432.5206	12897.2	11964.25
884.8582	1434.3547	13157.4	12224.85
885.0018	1436.188	13177.1	12245.15
885.1453	1438.0206	13100.05	12165.6
885.2889	1439.8524	12937.95	12007.4
885.4324	1441.6835	12820.05	11885.3
885.5759	1443.5139	12729.1	11794.4
885.7194	1445.3435	12656.35	11723.65
885.8629	1447.1724	12606.35	11676.4
886.0064	1449.0005	12536.4	11602.45
886.1499	1450.8279	12479.7	11546
886.2933	1452.6545	12376.35	11447.05
886.4368	1454.4804	12444.6	11516
886.5802	1456.3056	12412.95	11477.85
886.7237	1458.13	12329.65	11398
886.8671	1459.9536	12156.4	11225.65
887.0105	1461.7766	11838.35	10905
887.1539	1463.5987	11431.45	10498.55
887.2972	1465.4202	11062.9	10131.1
887.4406	1467.2409	10699.45	9766.6
887.584	1469.0608	10452.35	9520.8
887.7273	1470.88	10180.75	9248.6
887.8706	1472.6984	9949.2	9017.7
888.0139	1474.5161	9727.85	8792.65
888.1572	1476.3331	9590.35	8659.9
888.3005	1478.1493	9449.5	8517.4
888.4438	1479.9648	9355.9	8423.9
888.5871	1481.7795	9279.5	8349.55
888.7303	1483.5935	9190.25	8258.75
888.8736	1485.4067	9146.5	8213.5
889.0168	1487.2192	9107	8175.65
889.16	1489.031	9059.7	8127.25
889.3032	1490.842	8980.8	8051.55
889.4464	1492.6522	8957.95	8024.85
889.5896	1494.4618	8925.15	7993.35
889.7327	1496.2705	8903.2	7974.85
889.8759	1498.0785	8866.95	7934.5
890.019	1499.8858	8818.3	7887.35
890.1622	1501.6924	8779.05	7849.25
890.3053	1503.4981	8759.15	7827.1
890.4484	1505.3032	8742.5	7811.7
890.5914	1507.1075	8699.4	7768.7
890.7345	1508.911	8660.95	7733.35
890.8776	1510.7138	8613.4	7683
891.0206	1512.5159	8582.15	7654.1
891.1637	1514.3172	8532.95	7604.5
891.3067	1516.1178	8458.1	7529.3
891.4497	1517.9176	8458.15	7526.65
891.5927	1519.7166	8392	7464.15
891.7357	1521.515	8365.95	7433.6
891.8786	1523.3126	8349.15	7421.4
892.0216	1525.1094	8326.6	7395.6
892.1645	1526.9055	8301.65	7374.3
892.3074	1528.7008	8266.1	7340.3
892.4503	1530.4954	8229.05	7302.9
892.5932	1532.2893	8209.05	7284.25
892.7361	1534.0824	8181.4	7251.2
892.879	1535.8747	8171.25	7247.25
893.0218	1537.6663	8140.15	7216.15
893.1647	1539.4572	8145.55	7219.9
893.3075	1541.2473	8121.9	7198.2
893.4503	1543.0367	8105.55	7180.7
893.5931	1544.8253	8111.7	7181.6
893.7359	1546.6132	8124.05	7197.3
893.8787	1548.4003	8119.4	7184.75
894.0214	1550.1867	8147.9	7219.95
894.1642	1551.9723	8164.15	7238.4
894.3069	1553.7572	8200.5	7275.45
894.4496	1555.5414	8267.5	7347.85
894.5923	1557.3247	8328.65	7409.9
894.735	1559.1074	8406.75	7489.5
894.8777	1560.8893	8504.95	7587.65
895.0204	1562.6705	8562.25	7645
895.163	1564.4509	8682.05	7767.7
895.3056	1566.2305	8717.35	7804.85
895.4482	1568.0094	8780.85	7867.5
895.5908	1569.7876	8800.8	7887.45
895.7334	1571.565	8790.5	7871.8
895.876	1573.3417	8794.55	7878.5
896.0186	1575.1176	8793.15	7875.3
896.1611	1576.8928	8746.7	7835.35
896.3036	1578.6672	8674.6	7764.8
896.4461	1580.4409	8593.5	7687
896.5886	1582.2138	8516.75	7605.05
896.7311	1583.986	8448.8	7533.15
896.8736	1585.7575	8402.5	7490.25
897.0161	1587.5282	8351.5	7441.55
897.1585	1589.2981	8342.3	7432.65
897.3009	1591.0673	8328.9	7419.1
897.4433	1592.8358	8351.65	7443.35
897.5857	1594.6035	8410	7498.8
897.7281	1596.3704	8404.5	7489.55
897.8705	1598.1366	8459.2	7547.75
898.0128	1599.9021	8525.45	7616.15
898.1551	1601.6668	8603.35	7689.3
898.2975	1603.4308	8657.05	7742.85
898.4398	1605.194	8795.45	7879.2
898.5821	1606.9564	8919	8014.35
898.7243	1608.7182	9079.4	8178
898.8666	1610.4791	9246.25	8349.7
899.0088	1612.2394	9448.45	8551.35
899.1511	1613.9988	9639.55	8740.15
899.2933	1615.7576	9861	8956.35
899.4355	1617.5156	10069.3	9153.95
899.5776	1619.2728	10252.65	9338.85
899.7198	1621.0293	10292.25	9381.65
899.862	1622.785	10263.4	9354.5
900.0041	1624.54	10150.75	9241.15
900.1462	1626.2942	9975.8	9072.2
900.2883	1628.0477	9726.7	8819.3
900.4304	1629.8005	9460.1	8551
900.5725	1631.5525	9224.25	8321.35
900.7145	1633.3037	9068.55	8165.85
900.8566	1635.0542	8909.3	8002.65
900.9986	1636.804	8784.15	7878.95
901.1406	1638.553	8781.55	7816.6
901.2826	1640.3013	8690.4	7786.2
901.4245	1642.0488	8674.9	7770.2
901.5665	1643.7955	8676	7775.6
901.7085	1645.5416	8739.1	7836.6
901.8504	1647.2868	8850.55	7947.65
901.9923	1649.0313	8925.85	8021.85
902.1342	1650.7751	9094.85	8189.4
902.2761	1652.5181	9238.95	8337.75
902.4179	1654.2604	9419.8	8518.05
902.5598	1656.0019	9679.85	8780.05
902.7016	1657.7427	9959.9	9056.2
902.8434	1659.4828	10239.9	9334.8
902.9852	1661.222	10400.05	9494.2
903.127	1662.9606	10395.4	9491.95
903.2687	1664.6984	10187.4	9281.25
903.4105	1666.4354	9778.3	8868.95
903.5522	1668.1717	9274.7	8367.15
903.6939	1669.9072	8758	7850
903.8356	1671.642	8322	7411.25
903.9773	1673.3761	7941.1	7036.65
904.119	1675.1094	7655.9	6751.8
904.2606	1676.8419	7434	6531.1
904.4022	1678.5737	7254.2	6351.05
904.5439	1680.3048	7119.45	6214.05
904.6855	1682.0351	6992.35	6085.8
904.827	1683.7646	6907.35	5999.1
904.9686	1685.4934	6814.05	5908.6
905.1101	1687.2215	6757.95	5853.85
905.2517	1688.9488	6701.7	5797.1
905.3932	1690.6754	6631.75	5729.85
905.5347	1692.4012	6609.4	5705.3
905.6761	1694.1263	6563	5658.75
905.8176	1695.8506	6538.45	5634.8
905.9591	1697.5742	6510.25	5609.6
906.1005	1699.297	6432.25	5532.85
906.2419	1701.0191	6400.05	5501.85
906.3833	1702.7404	6362.35	5462.8
906.5246	1704.461	6332.55	5427.6
906.666	1706.1808	6295.6	5393.7
906.8073	1707.8999	6275.05	5377.7
906.9487	1709.6182	6255.9	5358.35
907.09	1711.3358	6219.15	5322.15
907.2313	1713.0527	6179.65	5286.15
907.3725	1714.7688	6186.95	5284.65
907.5138	1716.4841	6147	5246
907.655	1718.1987	6130.2	5227.2
907.7962	1719.9126	6093.9	5201.4
907.9374	1721.6257	6074.45	5177.35
908.0786	1723.338	6044.45	5150.2
908.2198	1725.0496	6032.25	5136.3
908.3609	1726.7605	6020.05	5119.4
908.502	1728.4706	5981.2	5084.65
908.6431	1730.18	5966.2	5069.5
908.7842	1731.8886	5957.8	5064.35
908.9253	1733.5964	5949.2	5033.05
909.0664	1735.3036	5914.05	5015.55
909.2074	1737.0099	5907.2	5010.55
909.3484	1738.7156	5863.6	4972.25
909.4894	1740.4204	5846.25	4950.7
909.6304	1742.1246	5827.1	4928.45
909.7714	1743.8279	5824.25	4928.45
909.9123	1745.5306	5803.05	4909.75
910.0532	1747.2325	5758.9	4864.3
910.1941	1748.9336	5744.05	4849.05
910.335	1750.634	5724	4827.95
910.4759	1752.3336	5710.25	4814.7
910.6168	1754.0325	5701.85	4810.15
910.7576	1755.7307	5681.45	4788.85
910.8984	1757.4281	5679.45	4785.5
911.0392	1759.1247	5675.1	4766.6
911.18	1760.8206	5651.65	4747
911.3208	1762.5158	5657.8	4755.25
911.4615	1764.2102	5621.45	4722.7
911.6022	1765.9039	5605.95	4712.5
911.7429	1767.5968	5584.9	4692.85
911.8836	1769.289	5558.85	4666.1
912.0243	1770.9804	5557.45	4661.55
912.1649	1772.6711	5558.85	4658.25
912.3056	1774.361	5525.85	4624.35
912.4462	1776.0502	5531.15	4632.1
912.5868	1777.7386	5501.8	4601.6
912.7274	1779.4263	5497.55	4602.6
912.8679	1781.1132	5496	4604.65
913.0084	1782.7994	5471.9	4580.55
913.149	1784.4849	5453.4	4560.55
913.2895	1786.1696	5441.45	4543.1
913.4299	1787.8535	5447	4554.75
913.5704	1789.5367	5432.45	4541.7
913.7108	1791.2192	5412.2	4522.95
913.8513	1792.9009	5403.2	4482.5
913.9917	1794.5818	5391.9	4495.6
914.132	1796.2621	5367.35	4473.65
914.2724	1797.9415	5370.75	4475.6
914.4128	1799.6202	5337.15	4442.15
914.5531	1801.2982	5343.7	4447.25
914.6934	1802.9755	5345.2	4446.8
914.8337	1804.6519	5320.95	4426.8
914.9739	1806.3277	5286.4	4393.4
915.1142	1808.0027	5263.25	4371.45
915.2544	1809.6769	5274.9	4384.75
915.3946	1811.3504	5247.95	4356.2
915.5348	1813.0231	5252.8	4362.3
915.675	1814.6951	5236.35	4345.65
915.8151	1816.3664	5237.55	4341.15
915.9553	1818.0369	5232.8	4337.95
916.0954	1819.7067	5204.7	4309.5
916.2355	1821.3757	5213.9	4316.4
916.3755	1823.044	5190.15	4294.45
916.5156	1824.7115	5165.25	4272.4
916.6556	1826.3783	5165.15	4272.5
916.7956	1828.0443	5135.8	4241.6
916.9356	1829.7096	5130.3	4235.7
917.0756	1831.3741	5130.4	4234
917.2155	1833.0379	5107.7	4216.45
917.3555	1834.701	5081.4	4191.6
917.4954	1836.3633	5095.4	4204.15
917.6353	1838.0248	5093.35	4202.1
917.7751	1839.6856	5081.95	4188.8
917.915	1841.3457	5083.7	4188.5
918.0548	1843.005	5063.6	4170.55
918.1946	1844.6636	5044.05	4150.05
918.3344	1846.3214	5048.8	4155.05
918.4742	1847.9785	5046.45	4151.9
918.6139	1849.6349	5036.65	4141.6
918.7537	1851.2904	5015.7	4112.3
918.8934	1852.9453	5011	4113
919.0331	1854.5994	5006.9	4107.85
919.1727	1856.2528	5008.65	4107.3
919.3124	1857.9054	4972.3	4074.9
919.452	1859.5572	4985	4093.3
919.5916	1861.2083	4958.95	4065.4
919.7312	1862.8587	4979.05	4084.1
919.8708	1864.5084	4953.65	4057.15
920.0103	1866.1572	4925.15	4028.45
920.1498	1867.8054	4916.2	4021.2
920.2893	1869.4528	4898.3	4000.5
920.4288	1871.0994	4885.7	3990.75
920.5683	1872.7453	4874.05	3977.4
920.7077	1874.3905	4882.4	3968.9
920.8471	1876.0349	4864.3	3969.3
920.9865	1877.6786	4880.75	3985.85
921.1259	1879.3215	4867.3	3972.1
921.2653	1880.9637	4841.9	3946.4
921.4046	1882.6051	4829.55	3937.5
921.5439	1884.2458	4827.95	3934.9
921.6832	1885.8858	4795.6	3903.1
921.8225	1887.525	4782.85	3888.35
921.9617	1889.1634	4785.7	3891.4
922.101	1890.8011	4771.55	3876.7
922.2402	1892.4381	4748.55	3856.45
922.3794	1894.0743	4749.8	3856.3
922.5185	1895.7098	4731.05	3838.15
922.6577	1897.3446	4725.55	3832.75
922.7968	1898.9786	4721.1	3824.15
922.9359	1900.6118	4721.6	3830.45
923.075	1902.2443	4691.4	3797.15
923.214	1903.8761	4683.2	3788.8
923.3531	1905.5071	4652.65	3759.45
923.4921	1907.1374	4655.2	3764.55
923.6311	1908.7669	4656.35	3765.85
923.77	1910.3957	4644.8	3752.8
923.909	1912.0237	4612.15	3718.15
924.0479	1913.651	4614.95	3721.15
924.1868	1915.2776	4599.4	3706.65
924.3257	1916.9034	4585.9	3696.2
924.4646	1918.5285	4580.25	3689.75
924.6034	1920.1528	4560.8	3667.75
924.7422	1921.7764	4549.4	3655.4
924.881	1923.3992	4531.8	3639.95
925.0198	1925.0213	4503.4	3609.3
925.1586	1926.6427	4500	3607.9
925.2973	1928.2633	4663.4	3570.5
925.436	1929.8832	4517.95	3622
925.5747	1931.5023	4445.55	3553.55
925.7134	1933.1207	4446.2	3555.15
925.852	1934.7383	4452.65	3560.05
925.9906	1936.3552	4432.95	3544.15
926.1292	1937.9714	4432.3	3541.4
926.2678	1939.5868	4419.05	3522.9
926.4064	1941.2015	4388.85	3494.2
926.5449	1942.8154	4373	3479.2
926.6834	1944.4286	4370.85	3475.35
926.8219	1946.041	4360.15	3446
926.9604	1947.6528	4344.7	3447.95
927.0988	1949.2637	4312.75	3423.35
927.2372	1950.8739	4299.55	3406.75
927.3756	1952.4834	4296.3	3407.25
927.514	1954.0921	4294.3	3401.8
927.6523	1955.7001	4279.55	3384.45
927.7907	1957.3074	4257.9	3368.35
927.929	1958.9139	4250.7	3363.35
928.0673	1960.5197	4235.7	3345.9
928.2055	1962.1247	4223.75	3333.35
928.3438	1963.729	4211.25	3322.6
928.482	1965.3325	4196.15	3304.25
928.6202	1966.9353	4178.25	3291.9
928.7584	1968.5374	4164.75	3275
928.8965	1970.1387	4165.8	3280.7
929.0346	1971.7393	4137.45	3247.35
929.1727	1973.3392	4140.9	3251.5
929.3108	1974.9383	4114.45	3228.7
929.4489	1976.5366	4103.95	3216.1
929.5869	1978.1342	4096.75	3211.95
929.7249	1979.7311	4107.55	3219.9
929.8629	1981.3273	4069	3182.7
930.0009	1982.9227	4057.45	3170.5
930.1388	1984.5173	4059.4	3175.55
930.2767	1986.1112	4057.8	3172.95
930.4146	1987.7044	4055.5	3169.95
930.5525	1989.2968	4026.35	3137.65
930.6904	1990.8885	4015.6	3127.6
930.8282	1992.4795	4019.35	3133.4
930.966	1994.0697	3991.3	3105.8
931.1038	1995.6592	3986.35	3102.7
931.2415	1997.2479	3975.5	3089.35
931.3793	1998.8359	3977.3	3094.2
931.517	2000.4232	3959.4	3077.8
931.6547	2002.0097	3934.15	3054.05
931.7923	2003.5955	3919.75	3037.05
931.93	2005.1805	3924.7	3041.2
932.0676	2006.7648	3928.15	3047.7
932.2052	2008.3484	3909.35	3024.85
932.3427	2009.9312	3900.4	3018.45
932.4803	2011.5133	3892.05	3012.1
932.6178	2013.0946	3893.35	3010.95
932.7553	2014.6752	3868.6	2988.5
932.8928	2016.2551	3862.55	2976.65
933.0302	2017.8342	3858.35	2976.85
933.1676	2019.4126	3843.45	2960.7
933.305	2020.9902	3833.6	2956.45
933.4424	2022.5672	3820.55	2940.25
933.5798	2024.1433	3817	2931.75
933.7171	2025.7188	3808.5	2931.5
933.8544	2027.2935	3793	2912.8
933.9917	2028.8674	3798.85	2920.2
934.129	2030.4406	3775.95	2898.2
934.2662	2032.0131	3755.2	2877.25
934.4034	2033.5849	3757.2	2874.4
934.5406	2035.1559	3744.65	2866.65
934.6778	2036.7261	3737.55	2854.4
934.8149	2038.2957	3729.25	2845.65
934.952	2039.8645	3732.55	2847.9
935.0891	2041.4325	3744	2857.75
935.2262	2042.9998	3722.75	2841.1
935.3632	2044.5664	3716.3	2832.4
935.5002	2046.1323	3694.65	2815.3
935.6372	2047.6974	3687.45	2807.65
935.7742	2049.2617	3677.8	2797
935.9111	2050.8254	3715.15	2801.8
936.048	2052.3883	3679.75	2798.15
936.1849	2053.9504	3658.3	2775.8
936.3218	2055.5118	3665.65	2781.9
936.4586	2057.0725	3642.2	2756
936.5955	2058.6325	3628.05	2745.05
936.7323	2060.1917	3623.35	2743.25
936.869	2061.7502	3624.6	2742.9
937.0058	2063.3079	3616	2738.25
937.1425	2064.8649	3606.15	2722.85
937.2792	2066.4212	3620.15	2739.25
937.4159	2067.9767	3599.4	2715.9
937.5525	2069.5315	3580.45	2697.9
937.6891	2071.0856	3563.25	2682.2
937.8257	2072.6389	3554.9	2673.3
937.9623	2074.1915	3537.8	2660.4
938.0989	2075.7433	3540.2	2656.1
938.2354	2077.2945	3533.3	2652.6
938.3719	2078.8448	3506.4	2623.4
938.5084	2080.3945	3496.8	2612.5
938.6448	2081.9434	3516.1	2632.7
938.7812	2083.4916	3499.35	2613.85
938.9176	2085.039	3480	2590.05
939.054	2086.5857	3482.95	2592.5
939.1903	2088.1317	3473.9	2582.6
939.3267	2089.677	3488.95	2597.6
939.463	2091.2215	3461.7	2570.95
939.5992	2092.7652	3452.3	2561.35
939.7355	2094.3083	3437.15	2549.85
939.8717	2095.8506	3443.7	2556.25
940.0079	2097.3921	3431.65	2544.85
940.1441	2098.933	3423.15	2538.85
940.2802	2100.4731	3425.2	2538.65
940.4163	2102.0124	3421.7	2527.35
940.5524	2103.5511	3412.3	2524.85
940.6885	2105.089	3399.95	2513.5
940.8245	2106.6261	3395.45	2507.45
940.9606	2108.1626	3388.15	2501.8
941.0965	2109.6983	3409.3	2496.35
941.2325	2111.2332	3390.3	2504.15
941.3684	2112.7675	3370.85	2481.15
941.5044	2114.301	3363.2	2474.85
941.6403	2115.8337	3366.7	2478.4
941.7761	2117.3657	3356.25	2467.15
941.912	2118.897	3346.35	2456.7
942.0478	2120.4276	3336.9	2442.35
942.1835	2121.9575	3317.95	2430.55
942.3193	2123.4866	3316.6	2426.15
942.455	2125.0149	3330.2	2439.65
942.5907	2126.5426	3292.85	2410.25
942.7264	2128.0695	3290.5	2405.55
942.8621	2129.5956	3287.9	2406.75
942.9977	2131.1211	3284.55	2395.45
943.1333	2132.6458	3268.9	2383.7
943.2689	2134.1698	3282.5	2394.85
943.4044	2135.693	3281.35	2387.55
943.54	2137.2155	3266	2373.2
943.6755	2138.7373	3255.9	2369.2
943.8109	2140.2584	3250.35	2366.15
943.9464	2141.7787	3258.35	2370.45
944.0818	2143.2983	3215.95	2338.7
944.2172	2144.8171	3221.3	2344.75
944.3526	2146.3353	3234.75	2349.1
944.4879	2147.8527	3198.9	2315.05
944.6232	2149.3693	3197.4	2308.25
944.7585	2150.8853	3204.2	2314.45
944.8938	2152.4005	3191.45	2301.75
945.029	2153.9149	3181.4	2292.55
945.1642	2155.4287	3186.95	2300.15
945.2994	2156.9417	3168.05	2279.95
945.4346	2158.454	3155.75	2270.3
945.5697	2159.9655	3148.2	2265.3
945.7048	2161.4764	3152.75	2268.4
945.8399	2162.9865	3142	2257
945.9749	2164.4958	3139.2	2254.45
946.1099	2166.0045	3116.7	2231.7
946.2449	2167.5124	3136.55	2252.55
946.3799	2169.0195	3123.7	2236.5
946.5148	2170.526	3106.95	2218.85
946.6498	2172.0317	3107.3	2220.15
946.7846	2173.5367	3104.7	2217.15
946.9195	2175.0409	3100.7	2214.8
947.0543	2176.5445	3111.1	2223.45
947.1891	2178.0473	3087.3	2197.4
947.3239	2179.5494	3082.95	2191.35
947.4587	2181.0507	3063.2	2176.05
947.5934	2182.5513	3066.6	2180.45
947.7281	2184.0512	3062.1	2173.95
947.8628	2185.5504	3048.8	2161.2
947.9974	2187.0488	3034.95	2150.2
948.132	2188.5465	3030.1	2144.9
948.2666	2190.0435	3022.05	2135.55
948.4012	2191.5397	3027.7	2137.9
948.5357	2193.0353	3020.4	2132
948.6702	2194.5301	3001.6	2111.6
948.8047	2196.0241	2998.35	2106.25
948.9392	2197.5175	3003.45	2112.2
949.0736	2199.0101	2994.8	2099.7
949.208	2200.502	2967.95	2080.95
949.3424	2201.9931	2964.35	2079.7
949.4767	2203.4835	2954.55	2067.3
949.611	2204.9733	2949.25	2058.95
949.7453	2206.4622	2941.8	2059.35
949.8796	2207.9505	2936.8	2051.9
950.0138	2209.438	2928.05	2047.35
950.148	2210.9248	2922.6	2039.55
950.2822	2212.4109	2922.15	2035.7
950.4164	2213.8962	2906.35	2014.3
950.5505	2215.3809	2909.65	2017.75
950.6846	2216.8648	2902.7	2009.65
950.8186	2218.3479	2903.3	2004.8
950.9527	2219.8304	2885.05	1987.6
951.0867	2221.3121	2879.95	1984.35
951.2207	2222.7931	2879.35	1989.3
951.3546	2224.2733	2860	1971.35
951.4886	2225.7529	2854.05	1967.5
951.6225	2227.2317	2851.9	1964.55
951.7563	2228.7098	2848.15	1964.6
951.8902	2230.1872	2828.05	1944.45
952.024	2231.6638	2826.5	1943.55
952.1578	2233.1397	2824.75	1937.45
952.2916	2234.6149	2822.45	1938.6
952.4253	2236.0894	2818.25	1929.7
952.559	2237.5632	2806.65	1909.45
952.6927	2239.0362	2798.4	1911.15
952.8263	2240.5085	2793.65	1908.7
952.9599	2241.9801	2779.5	1889.8
953.0935	2243.4509	2779.5	1890.1
953.2271	2244.921	2778.6	1889.05
953.3606	2246.3904	2756.85	1863
953.4941	2247.8591	2757.3	1867.7
953.6276	2249.3271	2749.35	1860.5
953.7611	2250.7943	2753.7	1864.05
953.8945	2252.2608	2733.6	1845.5
954.0279	2253.7266	2731.9	1842.65
954.1612	2255.1917	2735.65	1845.65
954.2946	2256.656	2717.55	1831.4
954.4279	2258.1197	2711.2	1828.95
954.5612	2259.5826	2714	1825.35
954.6944	2261.0447	2715.9	1826.5
954.8276	2262.5062	2694.35	1805.15
954.9608	2263.9669	2695.8	1805.2
955.094	2265.4269	2681.7	1791.5
955.2271	2266.8862	2689.05	1800.35
955.3602	2268.3448	2677.15	1790.15
955.4933	2269.8026	2671.95	1785.7
955.6264	2271.2598	2673.95	1787.85
955.7594	2272.7162	2674.65	1788.45
955.8924	2274.1719	2670.05	1780.75
956.0253	2275.6268	2664	1773.25
956.1583	2277.0811	2663.6	1772
956.2912	2278.5346	2655.85	1769
956.4241	2279.9874	2641.15	1754.9
956.5569	2281.4395	2645.35	1759.95
956.6897	2282.8908	2629.65	1737.9
956.8225	2284.3414	2635.05	1744.05
956.9553	2285.7914	2625.2	1735.7
957.088	2287.2406	2624.8	1733.1
957.2207	2288.689	2626.25	1732.6
957.3534	2290.1368	2619.1	1721.35
957.486	2291.5838	2614.35	1717.8
957.6186	2293.0302	2602.6	1706.6
957.7512	2294.4758	2598.65	1706.2
957.8838	2295.9206	2586.8	1694.65
958.0163	2297.3648	2585.4	1699.2
958.1488	2298.8082	2573.15	1684.65
958.2813	2300.251	2582.6	1692.1
958.4137	2301.693	2583.9	1689.95
958.5461	2303.1343	2585.4	1691.3
958.6785	2304.5748	2557.4	1667.4
958.8108	2306.0147	2554.2	1667.95
958.9432	2307.4538	2550.2	1661.35
959.0754	2308.8922	2540.6	1656.35
959.2077	2310.3299	2525.65	1639.1
959.3399	2311.7669	2534.85	1649.1
959.4721	2313.2031	2519	1630.85
959.6043	2314.6387	2516.05	1628.15
959.7365	2316.0735	2518.4	1629.7
959.8686	2317.5076	2520.6	1629.45
960.0006	2318.941	2512.75	1623.65
960.1327	2320.3737	2501.9	1610.1
960.2647	2321.8056	2499.35	1607.85
960.3967	2323.2369	2490.5	1599.45
960.5287	2324.6674	2485.85	1591.2
960.6606	2326.0972	2484.4	1594.45
960.7925	2327.5263	2475.9	1586.15
960.9244	2328.9547	2473.05	1581.35
961.0562	2330.3823	2476.65	1583.05
961.1881	2331.8092	2477.3	1581.4
961.3198	2333.2355	2462.75	1570.6
961.4516	2334.661	2466.25	1574
961.5833	2336.0858	2458.1	1569.9
961.715	2337.5098	2450.9	1561.3
961.8467	2338.9332	2445.3	1552.7
961.9783	2340.3558	2437.25	1545.45
962.1099	2341.7778	2436.1	1548.05
962.2415	2343.199	2434.75	1546.9
962.373	2344.6195	2440.35	1552.2
962.5045	2346.0393	2418.4	1531.15
962.636	2347.4583	2425.6	1535.9
962.7675	2348.8767	2430.25	1541.25
962.8989	2350.2943	2416.65	1526.25
963.0303	2351.7113	2414.5	1520.85
963.1617	2353.1275	2410.1	1518.25
963.293	2354.543	2410.6	1511.65
963.4243	2355.9578	2402.55	1514
963.5556	2357.3718	2392.4	1505.35
963.6868	2358.7852	2386.05	1497.45
963.818	2360.1978	2387.8	1499.4
963.9492	2361.6098	2380.95	1493.35
964.0803	2363.021	2373.5	1482.4
964.2114	2364.4315	2371.9	1483.6
964.3425	2365.8413	2373.95	1488.15
964.4736	2367.2504	2368.85	1484.05
964.6046	2368.6587	2347.15	1462.6
964.7356	2370.0664	2339.7	1453
964.8666	2371.4733	2341.8	1452.05
964.9975	2372.8795	2335.9	1449.8
965.1284	2374.285	2331.9	1445.3
965.2593	2375.6899	2327.1	1438.65
965.3901	2377.0939	2317.7	1430.8
965.5209	2378.4973	2322.05	1437.15
965.6517	2379.9	2303.4	1419.3
965.7825	2381.3019	2307.85	1423.25
965.9132	2382.7032	2299.8	1414.75
966.0439	2384.1037	2292.1	1411.9
966.1745	2385.5035	2287.2	1404.2
966.3051	2386.9027	2269.3	1385.95
966.4357	2388.3011	2275.35	1387.9
966.5663	2389.6987	2281.4	1396.25
966.6968	2391.0957	2264.15	1379.8
966.8273	2392.492	2260.7	1376.1
966.9578	2393.8876	2251.55	1366.75
967.0882	2395.2824	2258.85	1375.9
967.2186	2396.6765	2243.3	1359.85
967.349	2398.07	2236.25	1351.85
967.4793	2399.4627	2242.3	1356.95
967.6097	2400.8547	2236.25	1351.05
967.7399	2402.246	2230.4	1340.85
967.8702	2403.6366	2217.35	1330.2
968.0004	2405.0265	2206.15	1323.65
968.1306	2406.4156	2213.05	1324.4
968.2607	2407.8041	2207.75	1320.45
968.3909	2409.1918	2207.15	1319.4
968.521	2410.5789	2205.15	1319.5
968.651	2411.9652	2185.5	1297.65
968.781	2413.3508	2191.6	1307.65
968.911	2414.7358	2190.5	1303.15
969.041	2416.12	2189.4	1306.7
969.1709	2417.5035	2167.55	1282.9
969.3008	2418.8863	2180.05	1295.65
969.4307	2420.2684	2176.1	1290.9
969.5606	2421.6497	2169.35	1282.35
969.6904	2423.0304	2163.3	1280.15
969.8201	2424.4104	2156.9	1270.4
969.9499	2425.7896	2159.8	1267.5
970.0796	2427.1682	2143	1259.2
970.2093	2428.546	2157.5	1273.95
970.3389	2429.9232	2147.05	1260.65
970.4685	2431.2996	2139.75	1253.9
970.5981	2432.6753	2145.5	1258.85
970.7277	2434.0503	2128.15	1241.3
970.8572	2435.4246	2126.2	1240.8
970.9867	2436.7982	2112.15	1224.35
971.1161	2438.1711	2117.85	1233.55
971.2456	2439.5433	2105.15	1216.2
971.375	2440.9148	2121.7	1230.5
971.5043	2442.2856	2099.35	1212.45
971.6336	2443.6557	2104.05	1214.7
971.7629	2445.025	2095.35	1208.05
971.8922	2446.3937	2093.9	1205.55
972.0214	2447.7617	2089.55	1203.9
972.1506	2449.1289	2085.8	1200.7
972.2798	2450.4955	2086.6	1198.9
972.4089	2451.8613	2085.75	1199.9
972.538	2453.2265	2076.55	1189.85
972.6671	2454.5909	2070.5	1182.9
972.7961	2455.9546	2071.65	1185.1
972.9251	2457.3177	2063.5	1177.6
973.0541	2458.68	2068.05	1179.4
973.1831	2460.0416	2061.05	1175.7
973.312	2461.4025	2061.7	1172.9
973.4408	2462.7627	2067.35	1169.3
973.5697	2464.1222	2059.45	1175.7
973.6985	2465.4811	2049.45	1166.15
973.8273	2466.8392	2050.45	1163.95
973.956	2468.1966	2044.6	1156.7
974.0847	2469.5533	2048.85	1160.65
974.2134	2470.9093	2039.2	1151.3
974.3421	2472.2645	2028.5	1141.75
974.4707	2473.6191	2034.75	1147.8
974.5993	2474.973	2032.55	1146.7
974.7278	2476.3262	2029.8	1140.45
974.8563	2477.6787	2021.9	1135.5
974.9848	2479.0305	2014.1	1130.4
975.1132	2480.3816	2013.1	1123.85
975.2417	2481.7319	2014.9	1129.2
975.37	2483.0816	2008.75	1121.05
975.4984	2484.4306	2003	1116.4
975.6267	2485.7789	1985.45	1102.5
975.755	2487.1264	1992.95	1106.55
975.8833	2488.4733	1975.8	1088.7
976.0115	2489.8195	1999.75	1098.85
976.1397	2491.165	1987.55	1097.7
976.2678	2492.5097	1978.4	1090.4
976.3959	2493.8538	1976.85	1090.35
976.524	2495.1972	1972.2	1087.15
976.6521	2496.5398	1967.45	1079.8
976.7801	2497.8818	1955.8	1068.7
976.9081	2499.2231	1964.55	1077
977.036	2500.5637	1968.45	1079.1
977.164	2501.9035	1952.95	1063.65
977.2918	2503.2427	1958.15	1069.1
977.4197	2504.5812	1938.6	1051.6
977.5475	2505.919	1947.05	1057.45
977.6753	2507.256	1940.4	1052.6
977.8031	2508.5924	1936.95	1051.1
977.9308	2509.9281	1941.9	1049.3
978.0585	2511.2631	1932.05	1044.9
978.1861	2512.5974	1923.45	1039.05
978.3137	2513.9309	1924.8	1038.9
978.4413	2515.2638	1931.6	1019.3
978.5689	2516.596	1920.05	1031.75
978.6964	2517.9275	1911.55	1022.5
978.8239	2519.2583	1899.15	1009.15
978.9513	2520.5884	1907.7	1019.3
979.0788	2521.9178	1900.45	1015.7
979.2062	2523.2465	1898.85	1014.45
979.3335	2524.5745	1901.15	1018.6
979.4608	2525.9018	1893.8	1007.05
979.5881	2527.2284	1886.2	1002.05
979.7154	2528.5543	1897.25	1013.05
979.8426	2529.8796	1889.45	1001.35
979.9698	2531.2041	1886	998.4
980.0969	2532.5279	1882.8	997.4
980.224	2533.851	1882.8	997.6
980.3511	2535.1735	1875.6	988.85
980.4781	2536.4952	1880.6	995.45
980.6052	2537.8163	1875.45	987.6
980.7321	2539.1366	1872.8	986.3
980.8591	2540.4562	1865.5	976.45
980.986	2541.7752	1872.35	984.5
981.1129	2543.0935	1865.6	977.4
981.2397	2544.411	1865.1	976.4
981.3665	2545.7279	1855.5	968.85
981.4933	2547.0441	1857.9	966.55
981.62	2548.3596	1858.75	969.4
981.7467	2549.6744	1865.7	978.85
981.8734	2550.9885	1852.1	964.25
982.0001	2552.3019	1844.95	958.25
982.1267	2553.6146	1847.85	960.55
982.2532	2554.9266	1832.65	943.8
982.3798	2556.2379	1839.95	950.35
982.5063	2557.5485	1833	947.7
982.6327	2558.8585	1844.25	951.6
982.7592	2560.1677	1840.3	949.95
982.8856	2561.4762	1839.45	950.8
983.0119	2562.7841	1825.35	931.85
983.1383	2564.0913	1828.2	941.95
983.2646	2565.3977	1819	932.8
983.3908	2566.7035	1815.05	928
983.517	2568.0086	1818.8	928.9
983.6432	2569.313	1814.35	926.9
983.7694	2570.6167	1815.75	924.4
983.8955	2571.9197	1812.05	925.95
984.0216	2573.222	1809.75	917.5
984.1476	2574.5236	1810.25	920.25
984.2737	2575.8246	1816.5	925.25
984.3996	2577.1248	1807.75	916.9
984.5256	2578.4244	1810.05	922.65
984.6515	2579.7232	1812.6	923.8
984.7774	2581.0214	1824.6	910.9
984.9032	2582.3189	1809.2	923.1
985.029	2583.6157	1814.1	921.95
985.1548	2584.9118	1792.15	904.7
985.2806	2586.2072	1805.05	916.7
985.4063	2587.5019	1791.75	903.2
985.5319	2588.7959	1792.35	901.45
985.6576	2590.0893	1803.2	912.45
985.7832	2591.3819	1798.9	913.2
985.9087	2592.6739	1798.55	911.05
986.0343	2593.9652	1792.35	903.75
986.1597	2595.2557	1802.65	915.55
986.2852	2596.5456	1801.9	911.8
986.4106	2597.8348	1793	905.65
986.536	2599.1234	1787.35	899.85
986.6614	2600.4112	1796.5	909.75
986.7867	2601.6983	1790	898.45
986.912	2602.9848	1792.3	904.35
987.0372	2604.2705	1795.45	897.4
987.1624	2605.5556	1780.5	891.55
987.2876	2606.84	1781.4	894.7
987.4128	2608.1237	1782.75	895.6
987.5379	2609.4067	1773.45	885.85
987.6629	2610.689	1784.95	890.65
987.788	2611.9707	1768.65	875.45
987.913	2613.2516	1762.7	870.4
988.0379	2614.5319	1764.35	879.2
988.1629	2615.8115	1759.65	870.95
988.2878	2617.0903	1750.8	862.5
988.4126	2618.3685	1758.15	870
988.5375	2619.6461	1757.6	873.75
988.6622	2620.9229	1746.65	860.3
988.787	2622.199	1744.35	856.85
988.9117	2623.4745	1742.55	858.7
989.0364	2624.7493	1747.15	859.15
989.161	2626.0234	1743.6	858.2
989.2857	2627.2968	1744.05	859.55
989.4102	2628.5695	1739	851.35
989.5348	2629.8415	1730.75	844.35
989.6593	2631.1128	1732.6	845.15
989.7837	2632.3835	1732.4	847.35
989.9082	2633.6535	1730.5	844.55
990.0326	2634.9228	1731.3	846.05
990.1569	2636.1914	1721.85	835.45
990.2812	2637.4593	1721.2	835.55
990.4055	2638.7265	1714.75	828.65
990.5298	2639.9931	1713.4	827.9
990.654	2641.259	1714.45	826.65
990.7782	2642.5242	1712.7	823.25
990.9023	2643.7887	1713.45	826.6
991.0264	2645.0525	1704.65	816.05
991.1505	2646.3156	1704.75	817.25
991.2745	2647.5781	1701.05	815.55
991.3985	2648.8398	1702.15	816.85
991.5225	2650.1009	1703.35	811.15
991.6464	2651.3613	1697	810.85
991.7703	2652.6211	1682.6	796.95
991.8942	2653.8801	1686.15	799.9
992.018	2655.1385	1688.85	800.3
992.1418	2656.3961	1682.35	797.4
992.2655	2657.6531	1685	798.3
992.3892	2658.9094	1690.3	803.45
992.5129	2660.1651	1685	801.35
992.6366	2661.42	1687.35	801.8
992.7602	2662.6743	1681.95	794.85
992.8837	2663.9279	1684.85	798.65
993.0073	2665.1808	1685.15	798.65
993.1307	2666.433	1691.15	804.15
993.2542	2667.6846	1695.95	810
993.3776	2668.9354	1692.75	803.6
993.501	2670.1856	1686.35	799.95
993.6244	2671.4351	1685.35	802.3
993.7477	2672.6839	1693.2	805
993.8709	2673.9321	1697	810.65
993.9942	2675.1795	1689.2	802
994.1174	2676.4263	1699.7	814.65
994.2405	2677.6724	1690.05	805.25
994.3637	2678.9179	1696.55	808.95
994.4868	2680.1626	1695.7	811.55
994.6098	2681.4067	1695.75	810.45
994.7328	2682.6501	1690.85	803.95
994.8558	2683.8928	1679.35	791.75
994.9788	2685.1348	1678.5	792.85
995.1017	2686.3761	1677.6	792.4
995.2245	2687.6168	1671.65	784.95
995.3474	2688.8568	1663.4	776.55
995.4702	2690.0961	1664	779.65
995.5929	2691.3348	1659.5	773.4
995.7156	2692.5727	1653.85	769.8
995.8383	2693.81	1661.15	775.95
995.961	2695.0466	1646.85	762.7
996.0836	2696.2826	1660.45	772.15
996.2062	2697.5178	1650.95	760.6
996.3287	2698.7524	1645.7	757.65
996.4512	2699.9863	1647.35	759.7
996.5737	2701.2195	1647.4	762.3
996.6961	2702.452	1663.5	775.15
996.8185	2703.6839	1663.35	777
996.9408	2704.9151	1659.2	773.3
997.0631	2706.1456	1662.9	775.3
997.1854	2707.3755	1667.15	781.05
997.3077	2708.6046	1679.1	792.45
997.4299	2709.8331	1673.8	787.7
997.552	2711.0609	1687.15	800.1
997.6742	2712.2881	1697.05	813.25
997.7963	2713.5145	1699.6	810.1
997.9183	2714.7403	1708.6	822.55
998.0403	2715.9654	1719.55	833.85
998.1623	2717.1899	1739.3	840.1
998.2842	2718.4136	1738.75	852.95
998.4062	2719.6367	1745.75	860.35
998.528	2720.8591	1772.45	878.3
998.6498	2722.0809	1772.25	888.2
998.7716	2723.3019	1773.1	884.45
998.8934	2724.5223	1784.35	899
999.0151	2725.7421	1787.1	898.35
999.1368	2726.9611	1784.6	896.75
999.2584	2728.1795	1787.45	897.25
999.38	2729.3972	1772.6	887.65
999.5016	2730.6142	1777.55	878.1
999.6231	2731.8306	1746.45	859
999.7446	2733.0462	1741.6	854.3
999.8661	2734.2612	1717.25	826.35
999.9875	2735.4756	1706.35	819.2
1000.1089	2736.6892	1688.65	802.6
1000.2302	2737.9022	1665.9	781.15
1000.3515	2739.1145	1648.1	763.7
1000.4728	2740.3262	1652.8	758.85
1000.594	2741.5372	1628.1	743.5
1000.7152	2742.7475	1617.3	729.75
1000.8363	2743.9571	1611	724.1
1000.9575	2745.1661	1599.25	709
1001.0785	2746.3744	1586.65	701.15
1001.1996	2747.582	1578.35	694.35
1001.3206	2748.7889	1573.15	687.1
1001.4415	2749.9952	1566.55	682.85
1001.5625	2751.2008	1562.8	674.1
1001.6833	2752.4057	1559.95	674.15
1001.8042	2753.61	1552.4	667.2
1001.925	2754.8136	1550	662.45
1002.0458	2756.0165	1539.2	654.9
1002.1665	2757.2188	1535.35	650.6
1002.2872	2758.4204	1542.4	657.55
1002.4078	2759.6213	1547.6	662.65
1002.5285	2760.8215	1550	662
1002.649	2762.0211	1539.35	651.65
1002.7696	2763.22	1539.75	651.15
1002.8901	2764.4182	1535.7	650.35
1003.0106	2765.6158	1534.7	649.1
1003.131	2766.8127	1527.75	641.95
1003.2514	2768.009	1526.4	642.75
1003.3717	2769.2045	1524.55	640.55
1003.492	2770.3994	1521.7	634.55
1003.6123	2771.5936	1517	632.4
1003.7325	2772.7872	1506.1	622
1003.8527	2773.9801	1515.65	628.8
1003.9729	2775.1723	1530.5	630.1
1004.093	2776.3639	1503.35	619.35
1004.2131	2777.5548	1512.35	628.15
1004.3331	2778.745	1511.4	627
1004.4531	2779.9346	1512.4	629.15
1004.5731	2781.1235	1507.9	623.2
1004.693	2782.3117	1516.4	634.3
1004.8129	2783.4992	1511.35	629.3
1004.9328	2784.6861	1521.05	636.45
1005.0526	2785.8723	1537.95	653.75
1005.1723	2787.0579	1536.4	651.6
1005.2921	2788.2428	1529.7	647.25
1005.4118	2789.427	1533.95	650.6
1005.5314	2790.6106	1548.9	665.3
1005.651	2791.7935	1553.85	669.6
1005.7706	2792.9757	1557.6	674.1
1005.8902	2794.1573	1568.55	682.6
1006.0097	2795.3382	1576.05	690.35
1006.1291	2796.5184	1591.1	707.65
1006.2485	2797.698	1611.2	726.4
1006.3679	2798.8769	1620.15	735.1
1006.4873	2800.0551	1641.4	756.65
1006.6066	2801.2327	1647	762.15
1006.7258	2802.4096	1663.6	780.95
1006.8451	2803.5859	1678.45	793.85
1006.9642	2804.7615	1706.3	823.2
1007.0834	2805.9364	1727.95	846.1
1007.2025	2807.1106	1748.2	867.8
1007.3216	2808.2842	1779.65	893.75
1007.4406	2809.4572	1805.3	922.6
1007.5596	2810.6294	1841.65	960.65
1007.6785	2811.801	1879.15	998.35
1007.7975	2812.972	1905.65	1024.2
1007.9163	2814.1423	1951.45	1068.85
1008.0352	2815.3119	1997.35	1114.9
1008.154	2816.4808	2041.85	1159.1
1008.2727	2817.6491	2091.55	1206.4
1008.3914	2818.8167	2137.8	1254.3
1008.5101	2819.9837	2193.8	1306
1008.6288	2821.15	2234.25	1349.8
1008.7474	2822.3157	2284.25	1403
1008.8659	2823.4807	2333.55	1450.55
1008.9844	2824.645	2382.4	1499.5
1009.1029	2825.8086	2420.85	1536.25
1009.2214	2826.9716	2472.6	1591.2
1009.3398	2828.134	2520.55	1637.45
1009.4581	2829.2957	2549.1	1667.1
1009.5764	2830.4567	2584.4	1703.05
1009.6947	2831.617	2603.55	1719.5
1009.813	2832.7767	2616.15	1734.75
1009.9312	2833.9358	2629.65	1749
1010.0493	2835.0941	2610.95	1725.9
1010.1675	2836.2519	2600.75	1717.25
1010.2855	2837.4089	2584.15	1700.15
1010.4036	2838.5653	2579.85	1695.75
1010.5216	2839.7211	2574.5	1693.35
1010.6396	2840.8761	2578.7	1693.4
1010.7575	2842.0306	2605.6	1723.9
1010.8754	2843.1843	2642.25	1760.1
1010.9932	2844.3374	2674.15	1791.05
1011.111	2845.4899	2721.25	1839.2
1011.2288	2846.6417	2786.1	1901.1
1011.3465	2847.7928	2856.3	1973.4
1011.4642	2848.9433	2936.95	2053.7
1011.5818	2850.0931	3009.5	2124.9
1011.6995	2851.2422	3078.35	2194.7
1011.817	2852.3907	3147.9	2263.2
1011.9345	2853.5385	3207	2323.6
1012.052	2854.6857	3283.5	2375.4
1012.1695	2855.8323	3298.85	2416.7
1012.2869	2856.9781	3361.2	2479.75
1012.4042	2858.1233	3414.65	2533.45
1012.5216	2859.2679	3447.55	2566.25
1012.6389	2860.4118	3499.75	2616.8
1012.7561	2861.555	3548.3	2660.35
1012.8733	2862.6976	3572.8	2688.95
1012.9905	2863.8395	3612.2	2731.55
1013.1076	2864.9808	3634.45	2753.35
1013.2247	2866.1214	3649.4	2768.75
1013.3417	2867.2614	3667	2784.75
1013.4587	2868.4007	3662.75	2779.4
1013.5757	2869.5393	3673.55	2788.75
1013.6926	2870.6773	3705.2	2820.15
1013.8095	2871.8146	3713.35	2827.65
1013.9263	2872.9513	3707.7	2822.35
1014.0431	2874.0874	3701.25	2820.15
1014.1599	2875.2227	3709.35	2826.35
1014.2766	2876.3574	3680.25	2799.85
1014.3933	2877.4915	3658.15	2777.55
1014.51	2878.6249	3641.15	2761.35
1014.6266	2879.7577	3605	2722.65
1014.7431	2880.8898	3585.1	2691.55
1014.8596	2882.0212	3571.9	2693.4
1014.9761	2883.152	3548.6	2665.3
1015.0925	2884.2821	3524.8	2642.65
1015.2089	2885.4116	3546.2	2666.35
1015.3253	2886.5405	3552.3	2670.9
1015.4416	2887.6686	3545.2	2661
1015.5579	2888.7962	3554.35	2675.15
1015.6741	2889.923	3556.55	2676.6
1015.7903	2891.0493	3570.75	2689.2
1015.9065	2892.1748	3585.6	2705.05
1016.0226	2893.2997	3591.7	2709.2
1016.1387	2894.424	3587.85	2708.45
1016.2547	2895.5476	3614.15	2731.6
1016.3707	2896.6706	3651.25	2770.65
1016.4866	2897.7929	3670.65	2788.25
1016.6025	2898.9145	3702.75	2821.85
1016.7184	2900.0355	3743.1	2860.75
1016.8342	2901.1559	3756	2874.65
1016.95	2902.2756	3790.85	2910.75
1017.0658	2903.3946	3826.95	2943.8
1017.1815	2904.513	3854.35	2969.85
1017.2971	2905.6308	3876.55	2995.85
1017.4127	2906.7479	3898.9	3016.1
1017.5283	2907.8643	3920.9	3039.45
1017.6439	2908.9801	3930.55	3050.75
1017.7594	2910.0953	3934.55	3053.7
1017.8748	2911.2098	3942	3057.75
1017.9902	2912.3236	3944.2	3054.95
1018.1056	2913.4368	3924.25	3043.65
1018.2209	2914.5494	3896.9	3016
1018.3362	2915.6613	3883.4	2996.85
1018.4515	2916.7725	3857	2974
1018.5667	2917.8831	3823.2	2940.05
1018.6819	2918.9931	3789.1	2905.65
1018.797	2920.1024	3756.2	2874.75
1018.9121	2921.211	3736.8	2856.2
1019.0271	2922.319	3716.15	2834.4
1019.1421	2923.4264	3697.1	2814.95
1019.2571	2924.5331	3676.4	2797.85
1019.372	2925.6391	3690.75	2810.7
1019.4869	2926.7445	3676.2	2794.65
1019.6017	2927.8493	3670.65	2787.75
1019.7165	2928.9534	3673.85	2793.75
1019.8313	2930.0569	3671.1	2786
1019.946	2931.1597	3657.5	2776.8
1020.0606	2932.2619	3653.65	2771.15
1020.1753	2933.3634	3649.8	2769.15
1020.2899	2934.4643	3642.7	2753.6
1020.4044	2935.5645	3621.25	2735.05
1020.5189	2936.6641	3593.75	2709.15
1020.6334	2937.763	3550.75	2670.7
1020.7478	2938.8613	3509.25	2628.75
1020.8622	2939.959	3461.1	2573.05
1020.9765	2941.056	3387.4	2507.5
1021.0908	2942.1523	3316.6	2433.3
1021.2051	2943.248	3233.15	2350.65
1021.3193	2944.3431	3134.4	2253
1021.4334	2945.4375	3031.15	2149.85
1021.5476	2946.5313	2924.55	2045.85
1021.6617	2947.6244	2847.85	1965.7
1021.7757	2948.7169	2737	1856.35
1021.8897	2949.8087	2634.95	1755.45
1022.0037	2950.8999	2550.2	1667.9
1022.1176	2951.9904	2487.45	1608.2
1022.2315	2953.0803	2395.35	1513.05
1022.3453	2954.1696	2338.7	1460.4
1022.4591	2955.2582	2284.1	1403.4
1022.5728	2956.3462	2233.9	1354.45
1022.6865	2957.4335	2206.2	1326.35
1022.8002	2958.5202	2172.75	1290.85
1022.9138	2959.6062	2138.4	1259.5
1023.0274	2960.6916	2127.3	1247
1023.141	2961.7764	2106.7	1225.9
1023.2545	2962.8605	2079.05	1197.4
1023.3679	2963.9439	2081.55	1203.25
1023.4813	2965.0267	2059.3	1177.8
1023.5947	2966.1089	2079.45	1176
1023.708	2967.1905	2050.45	1170
1023.8213	2968.2714	2046.1	1167.45
1023.9346	2969.3516	2036.1	1156.75
1024.0478	2970.4312	2061.95	1176.1
1024.1609	2971.5102	2044.5	1165.95
1024.274	2972.5885	2052.7	1172.1
1024.3871	2973.6662	2050.3	1164.85
1024.5002	2974.7432	2033.7	1153.5
1024.6132	2975.8196	2023.45	1144
1024.7261	2976.8954	2016.55	1137.65
1024.839	2977.9705	2026.55	1148.35
1024.9519	2979.045	2001.6	1121.7
1025.0647	2980.1188	1981.15	1101.25
1025.1775	2981.192	1970.2	1092.7
1025.2902	2982.2645	1937.25	1056.2
1025.4029	2983.3364	1925	1044.5
1025.5156	2984.4077	1890.5	1012.1
1025.6282	2985.4783	1877.55	991.2
1025.7407	2986.5483	1841.45	962.05
1025.8532	2987.6177	1798.1	918.65
1025.9657	2988.6864	1769.45	889.9
1026.0782	2989.7545	1741.75	860.6
1026.1906	2990.8219	1709.45	833.1
1026.3029	2991.8887	1677.95	796.7
1026.4152	2992.9548	1645.35	765
1026.5275	2994.0204	1610.55	731.7
1026.6397	2995.0852	1589.35	712.3
1026.7519	2996.1495	1559.7	678.95
1026.864	2997.2131	1531.85	652.4
1026.9761	2998.276	1507.75	625.5
1027.0882	2999.3383	1494.6	615.85
1027.2002	3000.4	1472.85	593.4
1027.3122	3001.4611	1457.8	580.55
1027.4241	3002.5215	1447.35	567.8
1027.536	3003.5812	1424.7	545.2
1027.6478	3004.6404	1418.4	538.35
1027.7596	3005.6989	1410.15	529.9
1027.8714	3006.7567	1392.05	511.25
1027.9831	3007.8139	1409	496.1
1028.0947	3008.8705	1381.2	502.6
1028.2064	3009.9264	1371.25	489.35
1028.3179	3010.9818	1364.25	484.35
1028.4295	3012.0364	1360.8	480.9
1028.541	3013.0905	1358.55	480.95
1028.6524	3014.1439	1354.35	474.35
1028.7638	3015.1966	1355.1	477.45
1028.8752	3016.2487	1346	467.9
1028.9865	3017.3002	1353.35	467.75
1029.0978	3018.3511	1341.45	464.1
1029.209	3019.4013	1339.8	460.05
1029.3202	3020.4509	1338.75	459.2
1029.4314	3021.4998	1345	462.7
1029.5425	3022.5481	1339.2	460.7
1029.6535	3023.5958	1345.3	467.15
1029.7645	3024.6428	1336.45	457.05
1029.8755	3025.6892	1342.15	464.45
1029.9864	3026.735	1341.15	462.15
1030.0973	3027.7802	1345.7	464.8
1030.2082	3028.8247	1345.85	468.3
1030.319	3029.8685	1350.55	472
1030.4297	3030.9118	1348.75	468.45
1030.5404	3031.9544	1352.05	473.5
1030.6511	3032.9963	1351.2	471.7
1030.7617	3034.0376	1353.55	475.7
1030.8723	3035.0783	1361.75	479.15
1030.9829	3036.1184	1365.15	486.95
1031.0934	3037.1578	1366.9	489.05
1031.2038	3038.1966	1371.9	494.05
1031.3142	3039.2348	1373.3	496.3
1031.4246	3040.2723	1378.95	492
1031.5349	3041.3092	1372.85	495.6
1031.6452	3042.3455	1367	488.95
1031.7554	3043.3811	1367.95	489.05
1031.8656	3044.4161	1361.05	483.85
1031.9758	3045.4505	1354.95	477
1032.0859	3046.4842	1354.75	475.6
1032.1959	3047.5173	1344.95	467.1
1032.3059	3048.5498	1344	463.7
1032.4159	3049.5816	1345.8	467.95
1032.5258	3050.6128	1331.35	452.45
1032.6357	3051.6434	1328.85	448.3
1032.7455	3052.6734	1319.05	439.75
1032.8553	3053.7027	1322.3	441.6
1032.9651	3054.7314	1312.75	434.5
1033.0748	3055.7594	1305.15	428.3
1033.1845	3056.7868	1306	424.5
1033.2941	3057.8136	1297.9	419.65
1033.4037	3058.8398	1293.6	415.55
1033.5132	3059.8653	1285.95	409.35
1033.6227	3060.8902	1287.15	410.8
1033.7321	3061.9145	1287	407.3
1033.8415	3062.9381	1280.65	402.65
1033.9509	3063.9612	1290.5	395.55
1034.0602	3064.9835	1269.25	390.95
1034.1694	3066.0053	1259.95	381.1
1034.2787	3067.0264	1253.05	375.15
1034.3878	3068.0469	1250.55	371.55
1034.497	3069.0668	1245.65	362.55
1034.6061	3070.086	1231.7	352.4
1034.7151	3071.1046	1228.6	349.4
1034.8241	3072.1226	1220.75	341.9
1034.9331	3073.1399	1211.25	334.55
1035.042	3074.1567	1207.05	327.45
1035.1508	3075.1727	1196.3	314.75
1035.2597	3076.1882	1187.2	308.25
1035.3684	3077.203	1180.1	300.45
1035.4772	3078.2173	1183.65	304.75
1035.5859	3079.2308	1168.35	287.45
1035.6945	3080.2438	1160.5	281.15
1035.8031	3081.2561	1150.7	270.25
1035.9117	3082.2678	1142.55	263.9
1036.0202	3083.2789	1140.8	262.15
1036.1286	3084.2893	1137.05	260.3
1036.2371	3085.2991	1126.5	247.85
1036.3454	3086.3083	1127.3	245.35
1036.4538	3087.3169	1119.55	240.95
1036.562	3088.3248	1117.4	237.05
1036.6703	3089.3321	1109.2	229.5
1036.7785	3090.3388	1101.6	223.6
1036.8866	3091.3449	1097.85	221.3
1036.9948	3092.3503	1098.25	216.6
1037.1028	3093.3551	1090	213
1037.2108	3094.3593	1088.3	210.65
1037.3188	3095.3629	1089	210
1037.4267	3096.3658	1081.15	200.4
1037.5346	3097.3681	1081.75	204
1037.6425	3098.3698	1082.95	204.15
1037.7503	3099.3708	1080.05	195.85
1037.858	3100.3713	1072.8	196.4
1037.9657	3101.3711	1071.6	193.6
1038.0734	3102.3702	1204.65	186.85
1038.181	3103.3688	1070.65	192.25
1038.2886	3104.3667	1061.2	184.3
1038.3961	3105.364	1060.1	180.7
1038.5036	3106.3607	1059.4	180.1
1038.611	3107.3568	1060.4	180.55
1038.7184	3108.3522	1052.05	174.5
1038.8257	3109.347	1057.95	178.15
1038.933	3110.3412	1053.2	170.7
1039.0403	3111.3348	1052.55	175.35
1039.1475	3112.3277	1047.5	169.7
1039.2547	3113.32	1043.85	166.35
1039.3618	3114.3117	1048.35	172.35
1039.4689	3115.3028	1041.45	164.6
1039.5759	3116.2932	1044.5	165.85
1039.6829	3117.2831	1048.35	164.6
1039.7898	3118.2723	1040.35	165.1
1039.8967	3119.2608	1041.2	164.9
1040.0035	3120.2488	1036.1	160.45
1040.1103	3121.2361	1028.15	151.25
1040.2171	3122.2229	1030.85	152.95
1040.3238	3123.209	1029.5	150.95
1040.4305	3124.1944	1030.65	153.3
1040.5371	3125.1793	1034.1	155.55
1040.6437	3126.1635	1029.45	153.55
1040.7502	3127.1471	1025.65	149.5
1040.8567	3128.1301	1029.8	151.4
1040.9631	3129.1125	1024.1	145.25
1041.0695	3130.0942	1024.45	146.95
1041.1759	3131.0753	1028.1	142
1041.2822	3132.0558	1027.8	148.15
1041.3884	3133.0357	1018.25	139.6
1041.4946	3134.015	1015.65	136.75
1041.6008	3134.9936	1018.45	138.9
1041.7069	3135.9716	1034.55	136.35
1041.813	3136.949	1016.15	138.85
1041.919	3137.9258	1030.75	133.2
1042.025	3138.902	1017.7	135
1042.1309	3139.8775	1009.15	132.2
1042.2368	3140.8524	1016.1	138.45
1042.3427	3141.8267	1013.6	133.1
1042.4485	3142.8004	1012.35	134.55
1042.5542	3143.7735	1013.35	129.25
1042.6599	3144.7459	1009.8	132.25
1042.7656	3145.7178	1009.15	130.05
1042.8712	3146.689	999.15	121.75
1042.9768	3147.6596	1004.7	124.05
1043.0823	3148.6295	1005.35	128
1043.1878	3149.5989	1001.75	125.45
1043.2932	3150.5676	1002.2	126.3
1043.3986	3151.5357	998.95	125.3
1043.5039	3152.5032	1002.2	125.35
1043.6092	3153.4701	997.1	118
1043.7145	3154.4364	997.85	117.25
1043.8197	3155.402	990.7	114.1
1043.9248	3156.367	998	117.1
1044.03	3157.3315	1022.85	114.35
1044.135	3158.2952	991	113.05
1044.24	3159.2584	993.8	116.15
1044.345	3160.221	993.95	117.2
1044.4499	3161.1829	991.9	115.4
1044.5548	3162.1442	989.05	111.2
1044.6596	3163.105	986.1	108.3
1044.7644	3164.065	986.45	106.8
1044.8692	3165.0245	991.85	112.75
1044.9739	3165.9834	985	110.65
1045.0785	3166.9416	989.9	113.35
1045.1831	3167.8993	983.1	106.75
1045.2877	3168.8563	988.4	111.7
1045.3922	3169.8127	983.3	108.55
1045.4966	3170.7684	986.5	110.15
1045.6011	3171.7236	983.4	106.25
1045.7054	3172.6782	982.55	104.35
1045.8098	3173.6321	986.15	110
1045.914	3174.5854	985.35	105.85
1046.0183	3175.5381	981.05	103.45
1046.1224	3176.4902	978.7	104.4
1046.2266	3177.4417	976.55	100.65
1046.3307	3178.3926	977.1	101.2
1046.4347	3179.3428	974.7	98.35
1046.5387	3180.2924	975.05	97.4
1046.6427	3181.2415	977.85	100.2
1046.7466	3182.1899	977.05	98.3
1046.8504	3183.1377	974.3	100.8
1046.9542	3184.0848	976.2	97.3
1047.058	3185.0314	976.6	97.7
1047.1617	3185.9773	971.95	96.15
1047.2654	3186.9227	973.6	96.45
1047.369	3187.8674	973.4	99.15
1047.4726	3188.8115	980.3	99.85
1047.5761	3189.755	970.2	92.6
1047.6796	3190.6979	971.2	91.95
1047.783	3191.6402	967.2	92.65
1047.8864	3192.5818	967.15	90.55
1047.9898	3193.5229	986.2	90.35
1048.0931	3194.4633	965.6	90.3
1048.1963	3195.4031	964.95	85.45
1048.2995	3196.3423	963.5	85.95
1048.4027	3197.2809	966.35	90.95
1048.5058	3198.2189	967.35	91.7
1048.6089	3199.1563	969.85	87.7
1048.7119	3200.0931	964.75	90.6
1048.8148	3201.0292	961.2	87.35
1048.9178	3201.9648	964.8	87.85
1049.0206	3202.8997	966.85	87.45
1049.1235	3203.834	964.85	88.25
1049.2262	3204.7677	963.8	89.3
1049.329	3205.7008	963.55	84.15
1049.4317	3206.6333	958.9	86.1
1049.5343	3207.5652	962.3	82.8
1049.6369	3208.4964	960	82.1
1049.7394	3209.4271	958.05	81.7
1049.8419	3210.3571	959.7	84.35
1049.9444	3211.2865	956.3	80.9
1050.0468	3212.2154	957.8	82.25
1050.1491	3213.1436	960.9	80.6
1050.2514	3214.0712	965.35	83.4
1050.3537	3214.9982	957	83.3
1050.4559	3215.9246	952.75	74.3
1050.5581	3216.8503	953.25	78.1
1050.6602	3217.7755	952.55	75.6
1050.7623	3218.7001	957.1	82.75
1050.8643	3219.624	956.55	80.95
1050.9663	3220.5473	954.45	78.4
1051.0682	3221.4701	953.25	76.6
1051.1701	3222.3922	957	77.25
1051.2719	3223.3137	952.65	77.1
1051.3737	3224.2346	953.7	77.9
1051.4754	3225.1549	949.4	72.6
1051.5771	3226.0746	951.3	74.6
1051.6788	3226.9937	951.5	76.05
1051.7804	3227.9121	946.45	71.35
1051.8819	3228.83	948.7	73.75
1051.9834	3229.7473	951.75	75.55
1052.0849	3230.6639	950.2	74.8
1052.1863	3231.5799	949.45	73.15
1052.2876	3232.4954	949.2	73.3
1052.3889	3233.4102	948.85	72.4
1052.4902	3234.3244	946.65	69.4
1052.5914	3235.238	945.8	72.15
1052.6926	3236.151	972.2	72.95
1052.7937	3237.0634	947.5	75.95
1052.8948	3237.9752	943.85	67.5
1052.9958	3238.8864	945.05	69.35
1053.0968	3239.797	947	71.6
1053.1977	3240.7069	945.8	68.3
1053.2986	3241.6163	943.8	67.4
1053.3994	3242.5251	943.95	69.85
1053.5002	3243.4332	946.05	71.15
1053.6009	3244.3408	943.9	68.9
1053.7016	3245.2477	940.75	65.6
1053.8022	3246.154	941.7	65.55
1053.9028	3247.0598	942.85	63.4
1054.0034	3247.9649	939.9	65.1
1054.1039	3248.8694	939.25	61.95
1054.2043	3249.7733	937.85	61.4
1054.3047	3250.6766	938.4	61.8
1054.4051	3251.5793	937.45	60.15
1054.5054	3252.4814	937.95	62.9
1054.6056	3253.3829	938.45	63.35
1054.7058	3254.2838	936.45	61.6
1054.806	3255.1841	935.6	60
1054.9061	3256.0838	938.65	64.95
1055.0061	3256.9829	934.65	59.8
1055.1062	3257.8814	933	54.05
1055.2061	3258.7792	933.45	56.8
1055.306	3259.6765	932.55	55.55
1055.4059	3260.5731	933.3	59.35
1055.5057	3261.4692	931.45	54.7
1055.6055	3262.3647	931.95	58.15
1055.7052	3263.2595	928.05	54.35
1055.8049	3264.1538	927.1	53.1
1055.9045	3265.0474	928.75	52.9
1056.0041	3265.9404	925.3	50.5
1056.1036	3266.8329	922.1	50.25
1056.2031	3267.7247	934.9	51
1056.3025	3268.616	921.1	48.35
1056.4019	3269.5066	922.25	44
1056.5013	3270.3966	921.55	44.05
1056.6005	3271.286	916.75	44.95
