Software Version:	3.9.2.0
Unit SN:	10000200
Spectrometer SN:	6960
Date:	3/8/2024 12:12:28 PM
Data Line Index:	25
Spectral Points:	2048
Integration time (ms):	125
Averages:	20
Delay (ms):	30000
Sequence Number:	1
Processing:	dark subtract
Laser Power (mW):	300
Laser Current (mA):	822
Laser Diode Temp (C):	25.1
Laser Case Temp (C):	25.7
System Temp (C):	25.7
Spectrometer Temp (C):	23.6
CCD Temp (C):	0.016
Secondary Temp (C):	20.006
Heatsink Temp (C):	19.801
CCDPCB Temp (C):	35.384
SecondaryPCB Temp (C):	28.626

Wavelength	RamanShift	Raw Counts	Dark Subtracted
787.061	30.1047	447.8	37.8
787.2016	32.3739	447.5	42.2
787.3422	34.6426	451.8	42.95
787.4828	36.9109	455.9	47.3
787.6235	39.1787	463.6	51.6
787.7642	41.4461	474.15	55.95
787.9049	43.7131	481.15	60.4
788.0456	45.9796	488.85	66.6
788.1863	48.2456	496.15	69.35
788.3271	50.5112	504.65	71
788.4679	52.7764	511.8	77.25
788.6087	55.0411	526.95	86.95
788.7496	57.3054	533.75	87.5
788.8904	59.5692	543.75	96.75
789.0313	61.8326	554.3	106.15
789.1722	64.0955	565.8	112.55
789.3132	66.3579	578.55	122.55
789.4541	68.6199	594.8	131.85
789.5951	70.8815	634.9	168.35
789.7361	73.1426	709.15	238.9
789.8771	75.4032	913.2	440
790.0181	77.6634	1420.45	943.85
790.1592	79.9231	2571.4	2090.9
790.3003	82.1824	5084.2	4590.5
790.4414	84.4412	9465.65	8953.2
790.5825	86.6995	15320.45	14788.45
790.7237	88.9574	20896.45	20344.75
790.8648	91.2148	24611.45	24048.75
791.006	93.4717	26172.1	25604.35
791.1472	95.7282	26272.6	25696.55
791.2885	97.9842	25817.6	25237.6
791.4297	100.2398	25049.15	24466.85
791.571	102.4949	24181.25	23593.95
791.7123	104.7495	23189.55	22601.9
791.8536	107.0036	22203.2	21614.85
791.9949	109.2573	21263.3	20678.4
792.1363	111.5105	20477.9	19886.8
792.2777	113.7632	19727.4	19134.1
792.4191	116.0154	19174.05	18569.65
792.5605	118.2672	18729.85	18133.3
792.7019	120.5185	18302.25	17703.05
792.8434	122.7693	17989.7	17386.8
792.9849	125.0197	17726.75	17122.8
793.1264	127.2696	17475.3	16860.5
793.2679	129.519	17302.25	16691.3
793.4094	131.7679	17032.2	16416.3
793.551	134.0163	16741.05	16121.7
793.6926	136.2642	16388.3	15765.8
793.8342	138.5117	16002.1	15369.6
793.9758	140.7587	15555.55	14934.1
794.1175	143.0052	15153.25	14522.55
794.2591	145.2512	14729.15	14098.9
794.4008	147.4967	14365.05	13734.45
794.5425	149.7417	14042.6	13407
794.6842	151.9863	13848.35	13211.65
794.826	154.2304	13709.85	13068.2
794.9677	156.4739	13541.55	12897.8
795.1095	158.717	13460.85	12816.35
795.2513	160.9596	13339.8	12686.65
795.3931	163.2017	13135.9	12483.2
795.535	165.4433	12888.5	12232.95
795.6768	167.6844	12596.25	11939.4
795.8187	169.925	12270.45	11610.45
795.9606	172.1651	11871.65	11209.7
796.1025	174.4047	11596.3	10930.2
796.2445	176.6439	11326.1	10656.9
796.3864	178.8825	11080.75	10407.15
796.5284	181.1206	10916.45	10236.6
796.6704	183.3582	10745.5	10065.95
796.8124	185.5954	10663.15	9980.5
796.9544	187.832	10615.4	9930.7
797.0965	190.0681	10582.05	9891.65
797.2386	192.3037	10580.85	9887.85
797.3806	194.5388	10574.8	9880.9
797.5228	196.7734	10577.05	9883.05
797.6649	199.0075	10649.25	9951.75
797.807	201.2411	10720.95	10023.3
797.9492	203.4742	10817.35	10115.7
798.0914	205.7068	10983.55	10277.85
798.2336	207.9389	11134.9	10427
798.3758	210.1704	11285.2	10586.25
798.518	212.4015	11406.7	10715.95
798.6603	214.632	11579.95	10893.3
798.8025	216.862	11694.1	11009.2
798.9448	219.0915	11786.5	11099.1
799.0871	221.3205	11866.15	11179.5
799.2294	223.549	11923.3	11240.85
799.3718	225.777	11968.35	11285.35
799.5141	228.0044	12018.4	11328.5
799.6565	230.2314	12058.5	11366.9
799.7989	232.4578	12085.25	11392.15
799.9413	234.6837	12099.95	11391.75
800.0837	236.909	12156.3	11450.95
800.2262	239.1339	12137.85	11408.65
800.3687	241.3582	12084.1	11368.75
800.5111	243.582	11990.65	11244.75
800.6536	245.8053	11952.25	11218.75
800.7961	248.0281	11938.85	11211.55
800.9387	250.2503	11933.9	11199.15
801.0812	252.472	11978.3	11244.05
801.2238	254.6932	12114.15	11380.6
801.3664	256.9139	12223.25	11491.35
801.509	259.134	12405.25	11667.4
801.6516	261.3536	12633.35	11895.5
801.7942	263.5727	12981	12244.55
801.9369	265.7912	13329.9	12594.5
802.0795	268.0092	13727.9	12989.45
802.2222	270.2267	14085.95	13342.65
802.3649	272.4436	14352.85	13610.25
802.5076	274.6601	14535.6	13783.75
802.6504	276.8759	14555.65	13809
802.7931	279.0913	14502.55	13757.4
802.9359	281.3061	14398.1	13648.1
803.0787	283.5204	14382.35	13630.55
803.2215	285.7341	14396.05	13642.35
803.3643	287.9473	14413.6	13656.6
803.5071	290.16	14376.75	13619.05
803.6499	292.3721	14356.45	13602.7
803.7928	294.5837	14385.15	13631.7
803.9357	296.7947	14523.35	13768.95
804.0786	299.0052	14739.55	13986.8
804.2215	301.2152	14815.6	14058.6
804.3644	303.4246	14824.85	14070.85
804.5074	305.6334	14603.95	13852.8
804.6503	307.8418	14293.35	13536.55
804.7933	310.0495	13845.15	13084.75
804.9363	312.2568	13384.45	12624.65
805.0793	314.4635	12851.85	12087.4
805.2223	316.6696	12399.95	11633.75
805.3653	318.8752	12069.3	11299.3
805.5084	321.0802	11892	11126.25
805.6514	323.2847	11919.4	11152.95
805.7945	325.4887	11945.25	11173.8
805.9376	327.692	12009.55	11239.8
806.0807	329.8949	12044.25	11271.75
806.2238	332.0972	11929.6	11155.7
806.367	334.2989	11747.7	10969.5
806.5101	336.5001	11533.4	10756.3
806.6533	338.7007	11279	10503
806.7965	340.9008	11072.05	10294.25
806.9397	343.1003	10823.55	10046
807.0829	345.2992	10633.05	9852.6
807.2261	347.4976	10471.3	9690.9
807.3693	349.6955	10345.55	9557.25
807.5126	351.8927	10283.35	9494.6
807.6559	354.0895	10181.25	9380.9
807.7991	356.2856	10110.35	9320.7
807.9424	358.4812	10020.2	9230.45
808.0857	360.6763	10010.2	9220.15
808.2291	362.8707	9972.15	9178.65
808.3724	365.0646	9997.9	9201.7
808.5158	367.258	10031.35	9235.1
808.6591	369.4508	10124.95	9324.6
808.8025	371.643	10295.45	9494.65
808.9459	373.8346	10450	9647.5
809.0893	376.0257	10610.45	9806
809.2327	378.2162	10710.8	9905.3
809.3762	380.4062	10792	9989.55
809.5196	382.5956	10689.3	9888.65
809.6631	384.7844	10533.7	9738.45
809.8066	386.9726	10338.8	9548.65
809.9501	389.1603	10214.15	9423
810.0936	391.3474	10144.55	9317.3
810.2371	393.5339	10111.75	9311.75
810.3806	395.7199	10103	9305.2
810.5241	397.9052	10178.1	9380.4
810.6677	400.09	10343.45	9544.25
810.8113	402.2743	10556.4	9758.25
810.9548	404.4579	10795.85	9995.05
811.0984	406.641	11037.25	10237
811.2421	408.8235	11215.4	10415.45
811.3857	411.0054	11301.85	10497.25
811.5293	413.1868	11390.4	10581.45
811.673	415.3675	11364.05	10551.35
811.8166	417.5477	11329.3	10515.85
811.9603	419.7273	11234.75	10421.55
812.104	421.9064	11158.55	10337.4
812.2477	424.0848	11124.45	10311.2
812.3914	426.2627	10981.1	10166.05
812.5351	428.4399	10700.35	9883.55
812.6788	430.6166	10370.45	9545.65
812.8226	432.7928	9997.4	9175.45
812.9663	434.9683	9677.5	8855.25
813.1101	437.1432	9407.15	8585.7
813.2539	439.3176	9239.65	8422.1
813.3977	441.4914	9119.75	8303.35
813.5415	443.6645	9064.85	8247
813.6853	445.8371	9018.4	8199.8
813.8291	448.0091	9019.2	8199.2
813.973	450.1806	9016.45	8196.6
814.1168	452.3514	9004.8	8182.3
814.2607	454.5216	9035.7	8203.25
814.4046	456.6913	9036.2	8209.45
814.5485	458.8603	9089.8	8267.75
814.6924	461.0288	9137.8	8317
814.8363	463.1967	9126.3	8305.25
814.9802	465.3639	9154.4	8330.25
815.1241	467.5306	9103.6	8281.85
815.2681	469.6967	9057.5	8238.15
815.412	471.8622	9064.1	8245.8
815.556	474.0271	9090.45	8267.85
815.7	476.1914	9100.3	8274.55
815.844	478.3551	9122.85	8297.65
815.988	480.5182	9165.05	8338.9
816.132	482.6807	9267.45	8444.65
816.276	484.8426	9471.65	8653.65
816.4201	487.0039	9826.9	9003
816.5641	489.1647	10255.55	9427
816.7082	491.3248	10625.25	9795.2
816.8522	493.4843	10705.7	9879.55
816.9963	495.6432	10605.75	9777.85
817.1404	497.8015	10452.15	9615.65
817.2845	499.9592	10297.2	9463.4
817.4286	502.1163	10034.1	9196.4
817.5727	504.2728	9691.5	8855.15
817.7168	506.4287	9404.55	8574.85
817.861	508.5839	9087.15	8260.5
818.0051	510.7386	8883.8	8053.1
818.1493	512.8927	8789.75	7950.4
818.2935	515.0461	8778.55	7942.1
818.4377	517.199	8891.9	8053.8
818.5818	519.3512	9124.65	8282.85
818.726	521.5029	9519.6	8677.6
818.8703	523.6539	9877.4	9038.65
819.0145	525.8043	10113.7	9273.6
819.1587	527.9541	10008.05	9166.05
819.303	530.1033	9699.2	8856.45
819.4472	532.2519	9413.35	8574.6
819.5915	534.3999	9262.35	8420.95
819.7357	536.5472	9265.9	8422.9
819.88	538.694	9392.95	8553.9
820.0243	540.8401	9616.9	8776.3
820.1686	542.9856	9805.15	8958.05
820.3129	545.1305	9848.8	9000.55
820.4572	547.2748	9776.15	8923.4
820.6016	549.4185	9643.7	8792.95
820.7459	551.5615	9549.3	8697.8
820.8902	553.704	9587.65	8741.5
821.0346	555.8458	9717.95	8871.2
821.1789	557.987	9934.9	9086.3
821.3233	560.1276	10219.25	9372.25
821.4677	562.2675	10716.55	9868.6
821.6121	564.4069	11392.4	10540.85
821.7565	566.5456	12085.25	11236
821.9009	568.6837	12414.95	11567.2
822.0453	570.8212	11938.3	11088.05
822.1897	572.958	11058.1	10204.7
822.3342	575.0942	10194.7	9347.85
822.4786	577.2299	9608.5	8764.9
822.6231	579.3648	9271.85	8429.45
822.7675	581.4992	9190.8	8348.9
822.912	583.6329	9273.4	8436.2
823.0565	585.766	9466.75	8627.95
823.201	587.8985	9696.2	8853.25
823.3454	590.0304	9847.05	8973.45
823.4899	592.1616	9906.1	9053.3
823.6345	594.2922	9815.35	8960.25
823.779	596.4222	9609.1	8752.8
823.9235	598.5515	9366.7	8512.95
824.068	600.6802	9113.8	8259.6
824.2126	602.8083	8929.05	8073.4
824.3571	604.9358	8870.55	8013.5
824.5017	607.0626	8918.8	8060.4
824.6462	609.1888	9056.55	8195.75
824.7908	611.3144	9326.95	8466.25
824.9354	613.4393	9554.85	8693.3
825.08	615.5636	9762.3	8902.55
825.2246	617.6873	9878.95	9018.9
825.3692	619.8103	9846.2	8983.9
825.5138	621.9327	9614.6	8752.2
825.6584	624.0544	9277.65	8419.4
825.803	626.1756	8966.4	8109.15
825.9477	628.2961	8769.55	7911.05
826.0923	630.4159	8669.85	7812.5
826.237	632.5351	8664	7801.5
826.3816	634.6537	8647.85	7785.5
826.5263	636.7716	8650.15	7782.5
826.6709	638.8889	8673.95	7806.95
826.8156	641.0056	8703.6	7839.55
826.9603	643.1216	8706.45	7840.9
827.105	645.237	8691.85	7829.6
827.2497	647.3518	8572.7	7710.75
827.3944	649.4659	8462.85	7604.35
827.5391	651.5793	8367.65	7509.4
827.6838	653.6922	8318	7456.15
827.8285	655.8043	8324.65	7462.7
827.9733	657.9159	8278.7	7415.7
828.118	660.0268	8294	7427.1
828.2627	662.137	8312.05	7446.75
828.4075	664.2466	8318.8	7449.3
828.5522	666.3556	8309	7443.65
828.697	668.4639	8292.7	7425.75
828.8418	670.5716	8217.85	7354.15
828.9865	672.6786	8154	7284.7
829.1313	674.785	8033	7160.15
829.2761	676.8907	7978.85	7111.6
829.4209	678.9958	7943.3	7079.6
829.5657	681.1002	7928.1	7059.25
829.7105	683.204	7913.6	7036.2
829.8553	685.3072	7890.1	7015.6
830.0001	687.4097	7854.95	6985.1
830.1449	689.5115	7871.6	7000.7
830.2898	691.6127	7881.85	7011.4
830.4346	693.7132	7861.65	6991.8
830.5794	695.8131	7902.55	7011.5
830.7243	697.9123	7924.65	7052.25
830.8691	700.0109	7978.65	7105.5
831.014	702.1089	8046.8	7172.55
831.1588	704.2061	8156.15	7286.55
831.3037	706.3028	8277.6	7404
831.4486	708.3987	8363.95	7492.6
831.5935	710.4941	8406.8	7535.15
831.7383	712.5887	8409.55	7534.9
831.8832	714.6827	8447.1	7570.15
832.0281	716.7761	8490.6	7617.6
832.173	718.8688	8602.05	7725.75
832.3179	720.9608	8717.45	7836.25
832.4628	723.0522	8909.1	8026.75
832.6077	725.1429	9066.35	8188.85
832.7527	727.233	9249.6	8377.05
832.8976	729.3224	9420.45	8544.9
833.0425	731.4112	9431.45	8555.25
833.1874	733.4993	9300.75	8420.95
833.3324	735.5867	9018.75	8142.05
833.4773	737.6735	8672.8	7794.4
833.6222	739.7596	8386.1	7507.05
833.7672	741.845	8215.45	7337.85
833.9122	743.9298	8114.45	7236
834.0571	746.014	8029.85	7151.75
834.2021	748.0974	8028.9	7145.65
834.347	750.1802	8020.1	7137.65
834.492	752.2624	8027.1	7149.45
834.637	754.3439	8070.55	7186.15
834.782	756.4247	8185.35	7296.55
834.9269	758.5048	8348.75	7470.15
835.0719	760.5843	8621.55	7737.45
835.2169	762.6631	9017.95	8136.15
835.3619	764.7413	9617.95	8738.35
835.5069	766.8188	10461.4	9578.25
835.6519	768.8956	11250.15	10367
835.7969	770.9718	11866.05	10986.05
835.9419	773.0473	11933.6	11052.65
836.0869	775.1221	11647.4	10762.05
836.232	777.1962	11395.7	10512.25
836.377	779.2697	11384.8	10502.65
836.522	781.3426	11680.45	10777.7
836.667	783.4147	11946.95	11061.45
836.8121	785.4862	12028.7	11143.05
836.9571	787.557	11757.9	10873.8
837.1021	789.6271	11119.55	10233.75
837.2472	791.6966	10285.4	9401.1
837.3922	793.7654	9499.2	8613.5
837.5373	795.8335	8886.55	8000.8
837.6823	797.901	8496.8	7613.05
837.8274	799.9678	8280.75	7394.65
837.9724	802.0339	8159	7272.2
838.1175	804.0993	8072.25	7176.7
838.2626	806.1641	8001.5	7115.25
838.4076	808.2282	7932.9	7047.6
838.5527	810.2916	7865.3	6978.4
838.6978	812.3544	7759.75	6876.15
838.8428	814.4164	7698.7	6815.3
838.9879	816.4778	7745.1	6856.4
839.133	818.5385	7767.1	6877.05
839.2781	820.5986	7907.15	7021.35
839.4232	822.658	8172.3	7280.4
839.5682	824.7166	8573.1	7684.3
839.7133	826.7747	9199.8	8313.25
839.8584	828.832	9965.1	9075.9
840.0035	830.8886	10604.2	9713.85
840.1486	832.9446	10979.55	10088.45
840.2937	834.9999	10909.9	10020.15
840.4388	837.0545	10528.6	9636.15
840.5839	839.1085	9981.45	9091.6
840.729	841.1618	9497.4	8605.2
840.8741	843.2143	9122.45	8233.8
841.0192	845.2662	8765.9	7873.1
841.1643	847.3175	8593.6	7704.35
841.3095	849.368	8443.35	7552.4
841.4546	851.4179	8369.4	7479
841.5997	853.467	8280.8	7392.25
841.7448	855.5155	8226.6	7337.9
841.8899	857.5633	8149.05	7258.4
842.0351	859.6105	8052.15	7158.15
842.1802	861.6569	7965.5	7075.1
842.3253	863.7027	7880.2	6985.9
842.4704	865.7478	7800.65	6906.3
842.6156	867.7922	7723.55	6832.25
842.7607	869.8359	7693.15	6801.65
842.9058	871.8789	7674.7	6783.8
843.0509	873.9212	7729.1	6806.2
843.1961	875.9629	7798.7	6904.2
843.3412	878.0039	7932.9	7040
843.4863	880.0441	8007.4	7116.05
843.6315	882.0837	8090.35	7201.1
843.7766	884.1226	8171.95	7277.15
843.9218	886.1609	8309.1	7416.75
844.0669	888.1984	8496.6	7604.35
844.212	890.2352	8740.6	7849.7
844.3572	892.2714	8838.05	7938.1
844.5023	894.3069	8825.25	7931.25
844.6475	896.3416	8590.35	7697.8
844.7926	898.3757	8323.1	7428.2
844.9377	900.4091	8130.7	7234.85
845.0829	902.4418	8075.85	7174.85
845.228	904.4739	8097.1	7200.2
845.3732	906.5052	8212.05	7314.05
845.5183	908.5358	8240.45	7347
845.6635	910.5658	8137.75	7239.4
845.8086	912.595	7907.45	7010.75
845.9538	914.6236	7603.7	6709.85
846.0989	916.6515	7411.8	6515.45
846.2441	918.6786	7282.8	6383.4
846.3892	920.7051	7233.9	6335.65
846.5344	922.7309	7278.1	6382.25
846.6795	924.756	7308.45	6413.8
846.8246	926.7804	7376.2	6475.95
846.9698	928.8041	7412.65	6515.9
847.1149	930.8272	7483.2	6586.8
847.2601	932.8495	7485.6	6585.7
847.4052	934.8711	7478.4	6581.3
847.5504	936.892	7454.05	6558.8
847.6955	938.9123	7515.55	6617.95
847.8407	940.9318	7643.3	6746.25
847.9858	942.9506	7709.35	6811.1
848.131	944.9688	7687.85	6793.3
848.2761	946.9862	7555.4	6656.1
848.4213	949.003	7361	6464.65
848.5664	951.019	7187.35	6289.6
848.7115	953.0344	7081.5	6183.95
848.8567	955.0491	7035.25	6136.7
849.0018	957.063	7041.3	6144.8
849.147	959.0763	7121.9	6224.6
849.2921	961.0888	7149.5	6252.2
849.4373	963.1007	7204.7	6308.85
849.5824	965.1119	7217.5	6326.35
849.7275	967.1223	7203.05	6314.15
849.8727	969.1321	7144.3	6254.25
850.0178	971.1412	7153.5	6259.45
850.1629	973.1495	7107.2	6210.25
850.3081	975.1572	7148.25	6217.1
850.4532	977.1641	7128.8	6233.45
850.5983	979.1704	7113.45	6216.4
850.7435	981.1759	7070.2	6170.15
850.8886	983.1808	7052.15	6151.95
851.0337	985.1849	7056.95	6146.3
851.1788	987.1884	7095.35	6195.35
851.324	989.1911	7177.85	6278.55
851.4691	991.1932	7271.75	6374.3
851.6142	993.1945	7313.75	6415.8
851.7593	995.1951	7287.15	6389.35
851.9045	997.1951	7269.9	6364.55
852.0496	999.1943	7227.15	6326.55
852.1947	1001.1928	7235.65	6335
852.3398	1003.1906	7298.15	6399.7
852.4849	1005.1877	7460.7	6561.05
852.63	1007.1841	7623.65	6723.55
852.7751	1009.1798	7708.8	6811.35
852.9202	1011.1748	7687.2	6791.5
853.0653	1013.1691	7546.95	6648.1
853.2104	1015.1627	7282.75	6382.55
853.3555	1017.1556	7055.95	6156.05
853.5006	1019.1477	6896	5998.15
853.6457	1021.1392	6774.15	5881.05
853.7908	1023.1299	6717.1	5823.8
853.9359	1025.12	6706.25	5812.75
854.081	1027.1093	6799.3	5912.25
854.2261	1029.0979	6950.7	6064.35
854.3712	1031.0859	7092.1	6201.85
854.5163	1033.0731	7198.25	6303.15
854.6613	1035.0596	7156.75	6262.15
854.8064	1037.0454	7043.35	6146.25
854.9515	1039.0304	6942.65	6045.9
855.0965	1041.0148	6843.6	5946.15
855.2416	1042.9985	6721.7	5821.9
855.3867	1044.9814	6641.75	5744.6
855.5317	1046.9636	6589	5690.45
855.6768	1048.9452	6592.55	5693
855.8219	1050.926	6650.15	5751.15
855.9669	1052.9061	6722.3	5824.3
856.112	1054.8855	6773.2	5874.85
856.257	1056.8642	6805.35	5905.15
856.4021	1058.8421	6842.2	5941.7
856.5471	1060.8194	6871.45	5972.35
856.6921	1062.7959	6943.1	6046.25
856.8372	1064.7717	6981.7	6079
856.9822	1066.7469	7074.3	6172.95
857.1272	1068.7213	7187.5	6286.2
857.2723	1070.695	7306	6406.85
857.4173	1072.6679	7401.5	6499.7
857.5623	1074.6402	7490.55	6589.9
857.7073	1076.6117	7520.35	6616.9
857.8523	1078.5826	7384.3	6483.85
857.9973	1080.5527	7164.4	6262.7
858.1423	1082.5221	6966.8	6067.7
858.2873	1084.4908	6827.5	5926.35
858.4323	1086.4587	6767.8	5868.8
858.5773	1088.426	6760	5861.8
858.7223	1090.3925	6770.6	5865.75
858.8673	1092.3584	6815.1	5914.55
859.0123	1094.3235	6874.1	5973.75
859.1573	1096.2879	6991.55	6092.75
859.3022	1098.2515	7166.7	6268.2
859.4472	1100.2145	7415.7	6518.35
859.5922	1102.1767	7648.95	6745.45
859.7371	1104.1382	7923	7023.2
859.8821	1106.099	8278.9	7379.45
860.027	1108.0591	8590.85	7695
860.172	1110.0185	8800.55	7899.45
860.3169	1111.9771	8930.9	8033.95
860.4619	1113.9351	8898.15	8000.1
860.6068	1115.8923	8839.9	7941
860.7517	1117.8488	8715.1	7811.6
860.8967	1119.8045	8552.4	7651.2
861.0416	1121.7596	8339.05	7438.85
861.1865	1123.7139	8056.2	7158.45
861.3314	1125.6675	7920.55	7022.4
861.4763	1127.6204	7945.35	7044.85
861.6212	1129.5726	7947.7	7046.45
861.7661	1131.524	7909.5	7010.85
861.911	1133.4748	7730.6	6829.15
862.0559	1135.4248	7477.9	6578.55
862.2008	1137.3741	7227.8	6327.55
862.3457	1139.3226	7056.85	6155.5
862.4905	1141.2705	7011.6	6108.55
862.6354	1143.2176	6975.25	6069.85
862.7803	1145.164	6955.15	6055.4
862.9251	1147.1097	6876.25	5977
863.07	1149.0546	6744.2	5846.1
863.2148	1150.9989	6571.1	5671.1
863.3597	1152.9424	6439.35	5538.7
863.5045	1154.8852	6341.2	5442.2
863.6493	1156.8272	6283.6	5386.85
863.7942	1158.7686	6282.2	5373.5
863.939	1160.7092	6287.4	5385.9
864.0838	1162.6491	6346.45	5446.5
864.2286	1164.5883	6474.95	5574.1
864.3734	1166.5267	6617.85	5718.8
864.5182	1168.4644	6793.5	5894.45
864.663	1170.4014	7010.9	6106.8
864.8078	1172.3377	7259.85	6362.95
864.9526	1174.2732	7598.1	6698.75
865.0974	1176.2081	8101.5	7202.3
865.2421	1178.1421	8755.7	7852.85
865.3869	1180.0755	9527.55	8628.05
865.5317	1182.0082	10141.8	9244.65
865.6764	1183.9401	10462.1	9563.95
865.8212	1185.8713	10295.35	9398.85
865.9659	1187.8017	9818.85	8926.1
866.1106	1189.7315	9200.9	8312.65
866.2554	1191.6605	8593.65	7705.25
866.4001	1193.5888	8143	7250.1
866.5448	1195.5163	7900.85	7005.1
866.6895	1197.4432	7720.25	6820.65
866.8342	1199.3693	7599.15	6703.75
866.9789	1201.2947	7532.15	6631.05
867.1236	1203.2193	7462.2	6567.55
867.2683	1205.1432	7422.1	6522.9
867.413	1207.0664	7394.6	6495.65
867.5576	1208.9889	7398.8	6497.85
867.7023	1210.9106	7423.55	6525.15
867.847	1212.8316	7439.8	6541.8
867.9916	1214.7519	7519.15	6610.4
868.1363	1216.6715	7566.4	6667.3
868.2809	1218.5903	7651.9	6754
868.4255	1220.5084	7767.6	6867.8
868.5701	1222.4257	7913.2	7014.15
868.7148	1224.3424	8048.75	7154.25
868.8594	1226.2583	8253.7	7354.15
869.004	1228.1735	8470.4	7572.5
869.1486	1230.0879	8753.85	7855.15
869.2932	1232.0016	9069.05	8170.35
869.4377	1233.9146	9336.55	8435.4
869.5823	1235.8269	9464.85	8568.65
869.7269	1237.7384	9446.9	8551.05
869.8715	1239.6492	9332.45	8432.55
870.016	1241.5592	9283.35	8386.4
870.1606	1243.4686	9363.45	8464.25
870.3051	1245.3772	9631.7	8734
870.4496	1247.285	10032.7	9132.2
870.5941	1249.1922	10459.7	9561.2
870.7387	1251.0986	10806.35	9910
870.8832	1253.0042	11117.8	10221.85
871.0277	1254.9092	11401.25	10503.85
871.1722	1256.8134	11618.65	10720.55
871.3167	1258.7169	11809.65	10909.8
871.4611	1260.6196	11960	11062.55
871.6056	1262.5216	12199.7	11301.2
871.7501	1264.4229	12398.4	11503.4
871.8945	1266.3234	12684.2	11788.1
872.039	1268.2232	12834.9	11936.65
872.1834	1270.1223	12979.1	12078.9
872.3278	1272.0207	13067.35	12169.85
872.4723	1273.9183	12999.8	12096.3
872.6167	1275.8151	12880.85	11984.05
872.7611	1277.7113	12821.45	11923.25
872.9055	1279.6067	12926.85	12032
873.0499	1281.5014	13343.85	12446.3
873.1943	1283.3953	14077.7	13177.15
873.3386	1285.2885	15094.25	14196.95
873.483	1287.181	16214.8	15314.75
873.6274	1289.0727	17382.15	16486.7
873.7717	1290.9637	18214.45	17316.55
873.9161	1292.854	18820.95	17923.15
874.0604	1294.7435	18912.05	18013.95
874.2047	1296.6323	18675.2	17778.9
874.349	1298.5204	18161.9	17260.55
874.4933	1300.4077	17508.35	16608.15
874.6376	1302.2943	16770.6	15874.55
874.7819	1304.1802	16068.4	15170.25
874.9262	1306.0653	15218.45	14319.35
875.0705	1307.9497	14378.4	13480.75
875.2147	1309.8333	13639.4	12741.95
875.359	1311.7162	13058.2	12164.25
875.5032	1313.5984	12729.35	11829.2
875.6475	1315.4798	12565.7	11658.8
875.7917	1317.3605	12435.6	11519.75
875.9359	1319.2405	12350.05	11450
876.0801	1321.1197	12055.9	11156.85
876.2243	1322.9982	11669.15	10765.75
876.3685	1324.876	11194.7	10297.2
876.5127	1326.753	10667.9	9768.9
876.6569	1328.6293	10185.6	9284.85
876.801	1330.5048	9812.05	8910.4
876.9452	1332.3796	9436.6	8537.15
877.0893	1334.2537	9188.65	8266.05
877.2335	1336.127	8893.05	7996.15
877.3776	1337.9996	8750.9	7853.2
877.5217	1339.8714	8675.2	7776.4
877.6658	1341.7426	8670.6	7730.75
877.8099	1343.6129	8650.6	7750.6
877.954	1345.4826	8653	7753.05
878.0981	1347.3515	8593.1	7691.75
878.2422	1349.2196	8564.95	7663.15
878.3862	1351.087	8537.35	7639.05
878.5303	1352.9537	8569.1	7669.45
878.6743	1354.8197	8662.95	7763.7
878.8184	1356.6849	8837.3	7937.35
878.9624	1358.5493	9030.35	8131.05
879.1064	1360.4131	9336.95	8437.15
879.2504	1362.276	9600.8	8704.85
879.3944	1364.1383	9811.4	8913.1
879.5384	1365.9998	9783.2	8878.5
879.6823	1367.8606	9518.3	8619.05
879.8263	1369.7206	9194.75	8295.1
879.9702	1371.5799	8866.9	7966.7
880.1142	1373.4384	8603.35	7706.25
880.2581	1375.2962	8314.2	7414.95
880.402	1377.1533	7952.2	7055.6
880.5459	1379.0096	7550.95	6652.95
880.6898	1380.8652	7168.15	6273.3
880.8337	1382.7201	6805.4	5908.15
880.9776	1384.5742	6544.2	5645.4
881.1215	1386.4275	6335.4	5434.6
881.2653	1388.2802	6176.15	5281
881.4092	1390.132	6040.6	5143.95
881.553	1391.9832	5980.4	5083.4
881.6968	1393.8336	5879.6	4980.4
881.8406	1395.6832	5852.1	4951.65
881.9844	1397.5322	5789.05	4891.1
882.1282	1399.3803	5755.85	4855.25
882.272	1401.2278	5701.35	4804.2
882.4158	1403.0745	5680.6	4781.35
882.5595	1404.9204	5659.35	4760.05
882.7033	1406.7656	5649.15	4752.5
882.847	1408.6101	5615.55	4715.2
882.9908	1410.4538	5635.35	4735.9
883.1345	1412.2968	5684.75	4786.4
883.2782	1414.139	5741.95	4848.15
883.4219	1415.9805	5805.05	4906.85
883.5656	1417.8213	5892.75	4974.9
883.7092	1419.6613	5996.8	5100.5
883.8529	1421.5006	6163.75	5262
883.9965	1423.3391	6423.05	5524.2
884.1402	1425.1769	6768.85	5869.3
884.2838	1427.0139	7256.5	6359.45
884.4274	1428.8502	7865.55	6968.95
884.571	1430.6858	8464.4	7566.05
884.7146	1432.5206	8897.6	8000.15
884.8582	1434.3547	9168	8271.4
885.0018	1436.188	9220.85	8322.55
885.1453	1438.0206	9161.45	8264.95
885.2889	1439.8524	8980.2	8082.65
885.4324	1441.6835	8841.65	7944.2
885.5759	1443.5139	8732.85	7834.4
885.7194	1445.3435	8651.35	7751.85
885.8629	1447.1724	8643.15	7748.15
886.0064	1449.0005	8596.05	7700.2
886.1499	1450.8279	8563.8	7667.35
886.2933	1452.6545	8552.3	7656.3
886.4368	1454.4804	8567.45	7672.45
886.5802	1456.3056	8585.8	7684.2
886.7237	1458.13	8530.55	7634.5
886.8671	1459.9536	8379.9	7483.25
887.0105	1461.7766	8109.9	7215.3
887.1539	1463.5987	7781.85	6884.35
887.2972	1465.4202	7430.1	6533.45
887.4406	1467.2409	7067.7	6170.7
887.584	1469.0608	6750.8	5853.75
887.7273	1470.88	6450.95	5554.25
887.8706	1472.6984	6187.85	5290.7
888.0139	1474.5161	5957.35	5058.65
888.1572	1476.3331	5794.5	4901.2
888.3005	1478.1493	5678.65	4778.75
888.4438	1479.9648	5574.8	4679.7
888.5871	1481.7795	5510.65	4613.35
888.7303	1483.5935	5456.65	4561.5
888.8736	1485.4067	5437.95	4542.7
889.0168	1487.2192	5412.8	4519.25
889.16	1489.031	5387.25	4490.35
889.3032	1490.842	5364.05	4469.2
889.4464	1492.6522	5344.25	4449.8
889.5896	1494.4618	5330.8	4434.9
889.7327	1496.2705	5281.8	4386.2
889.8759	1498.0785	5246.2	4351.1
890.019	1499.8858	5211.9	4318.1
890.1622	1501.6924	5187.5	4292.9
890.3053	1503.4981	5126.1	4231.35
890.4484	1505.3032	5098.65	4203.35
890.5914	1507.1075	5064.95	4168.9
890.7345	1508.911	5023.85	4125.85
890.8776	1510.7138	4967.7	4072.95
891.0206	1512.5159	4903.55	4009.2
891.1637	1514.3172	4874.25	3980.65
891.3067	1516.1178	4810.8	3919.35
891.4497	1517.9176	4776.85	3878.3
891.5927	1519.7166	4752.95	3858.25
891.7357	1521.515	4714.85	3814.55
891.8786	1523.3126	4691.05	3794.6
892.0216	1525.1094	4665.95	3768.85
892.1645	1526.9055	4634.2	3740.85
892.3074	1528.7008	4625.9	3733
892.4503	1530.4954	4596.3	3703
892.5932	1532.2893	4581.95	3688.75
892.7361	1534.0824	4576.15	3679
892.879	1535.8747	4569.7	3680.1
893.0218	1537.6663	4548.7	3656.7
893.1647	1539.4572	4567.8	3675.05
893.3075	1541.2473	4586.75	3694.75
893.4503	1543.0367	4593.9	3701.9
893.5931	1544.8253	4617	3720.4
893.7359	1546.6132	4632.45	3737
893.8787	1548.4003	4669.95	3769.9
894.0214	1550.1867	4730.95	3827.65
894.1642	1551.9723	4811.05	3914.45
894.3069	1553.7572	4921.1	4027.95
894.4496	1555.5414	5063.3	4171.1
894.5923	1557.3247	5229.75	4339.8
894.735	1559.1074	5445.8	4555.9
894.8777	1560.8893	5668.75	4778.95
895.0204	1562.6705	5917.85	5028.3
895.163	1564.4509	6138.8	5249.25
895.3056	1566.2305	6296.65	5410
895.4482	1568.0094	6380.6	5491.6
895.5908	1569.7876	6440.9	5551.1
895.7334	1571.565	6433.85	5544.05
895.876	1573.3417	6476.5	5586.95
896.0186	1575.1176	6489.4	5600.5
896.1611	1576.8928	6560.65	5672.05
896.3036	1578.6672	6616.35	5732.85
896.4461	1580.4409	6762.9	5878.85
896.5886	1582.2138	6885.2	5996.1
896.7311	1583.986	7045.7	6157.75
896.8736	1585.7575	7223.9	6336.75
897.0161	1587.5282	7401.6	6515.85
897.1585	1589.2981	7610.25	6725.4
897.3009	1591.0673	7748.85	6861.2
897.4433	1592.8358	7879.5	6993.35
897.5857	1594.6035	8013.45	7125.2
897.7281	1596.3704	8076.55	7186.4
897.8705	1598.1366	8124.75	7239.1
898.0128	1599.9021	8179.65	7293.65
898.1551	1601.6668	8194.6	7306.95
898.2975	1603.4308	8237.4	7348.4
898.4398	1605.194	8344.7	7451.25
898.5821	1606.9564	8515.4	7631.15
898.7243	1608.7182	8768.35	7880.1
898.8666	1610.4791	9139.8	8260.9
899.0088	1612.2394	9578.8	8697.45
899.1511	1613.9988	10093.05	9210.75
899.2933	1615.7576	10586.75	9702.75
899.4355	1617.5156	10979.25	10087
899.5776	1619.2728	11168.8	10284
899.7198	1621.0293	11133.05	10245.4
899.862	1622.785	10840	9953.45
900.0041	1624.54	10317.9	9431.1
900.1462	1626.2942	9743.2	8857.2
900.2883	1628.0477	9110.8	8224.1
900.4304	1629.8005	8517.35	7631.35
900.5725	1631.5525	7960.5	7077.4
900.7145	1633.3037	7480.75	6597.55
900.8566	1635.0542	7111.45	6228.75
900.9986	1636.804	6780.65	5898.3
901.1406	1638.553	6614.1	5658.1
901.2826	1640.3013	6377.5	5493.75
901.4245	1642.0488	6239.5	5356.75
901.5665	1643.7955	6185.85	5303
901.7085	1645.5416	6174.05	5291.6
901.8504	1647.2868	6215.6	5333
901.9923	1649.0313	6257.25	5374.1
902.1342	1650.7751	6339.95	5455.4
902.2761	1652.5181	6399.05	5515.7
902.4179	1654.2604	6543.8	5660.45
902.5598	1656.0019	6705.65	5823.3
902.7016	1657.7427	6969.65	6085
902.8434	1659.4828	7253.95	6372.3
902.9852	1661.222	7541.55	6657.4
903.127	1662.9606	7650.5	6767.95
903.2687	1664.6984	7589.2	6702.7
903.4105	1666.4354	7282.25	6395.85
903.5522	1668.1717	6781.6	5896.45
903.6939	1669.9072	6206.4	5322.45
903.8356	1671.642	5665	4777.5
903.9773	1673.3761	5229.75	4346.85
904.119	1675.1094	4869.45	3986.3
904.2606	1676.8419	4599	3717.35
904.4022	1678.5737	4394.85	3511.15
904.5439	1680.3048	4244.5	3359.5
904.6855	1682.0351	4107.5	3224.4
904.827	1683.7646	3982.4	3094.55
904.9686	1685.4934	3903.1	3020.45
905.1101	1687.2215	3848.45	2964.5
905.2517	1688.9488	3778.1	2894.25
905.3932	1690.6754	3732.55	2851.1
905.5347	1692.4012	3687.35	2802.95
905.6761	1694.1263	3649.65	2768.3
905.8176	1695.8506	3614.1	2731.1
905.9591	1697.5742	3580.45	2698.1
906.1005	1699.297	3541.15	2659
906.2419	1701.0191	3515.6	2635.05
906.3833	1702.7404	3482.35	2601.2
906.5246	1704.461	3432.2	2548.75
906.666	1706.1808	3412.95	2530.15
906.8073	1707.8999	3394.15	2508.5
906.9487	1709.6182	3360.4	2479.05
907.09	1711.3358	3357.6	2477.4
907.2313	1713.0527	3333.95	2453.7
907.3725	1714.7688	3298.2	2412.2
907.5138	1716.4841	3282.8	2400.25
907.655	1718.1987	3270.5	2385.25
907.7962	1719.9126	3244.25	2364
907.9374	1721.6257	3233.5	2349.95
908.0786	1723.338	3237.3	2355.1
908.2198	1725.0496	3211.6	2330.75
908.3609	1726.7605	3200.9	2316.95
908.502	1728.4706	3185.75	2303.55
908.6431	1730.18	3181.05	2298.45
908.7842	1731.8886	3176	2294.95
908.9253	1733.5964	3182.5	2282.25
909.0664	1735.3036	3156.1	2271.15
909.2074	1737.0099	3140.7	2259.75
909.3484	1738.7156	3125.3	2244.7
909.4894	1740.4204	3096	2209.95
909.6304	1742.1246	3095.3	2211.1
909.7714	1743.8279	3072.85	2192.55
909.9123	1745.5306	3061.25	2179.1
910.0532	1747.2325	3048.3	2170.15
910.1941	1748.9336	3036.8	2156.65
910.335	1750.634	3021.8	2138.3
910.4759	1752.3336	3012.5	2130.65
910.6168	1754.0325	3007	2128.2
910.7576	1755.7307	2996.6	2117.4
910.8984	1757.4281	2995.85	2114.3
911.0392	1759.1247	2996.2	2104.15
911.18	1760.8206	2984.75	2097.95
911.3208	1762.5158	2987.4	2100.1
911.4615	1764.2102	2970.4	2091.2
911.6022	1765.9039	2958.3	2073.2
911.7429	1767.5968	2962.9	2083
911.8836	1769.289	2941.15	2059.1
912.0243	1770.9804	2941.05	2059.8
912.1649	1772.6711	2939.35	2056.6
912.3056	1774.361	2928.8	2046.1
912.4462	1776.0502	2931.55	2050.45
912.5868	1777.7386	2919.35	2032.4
912.7274	1779.4263	2905.95	2025
912.8679	1781.1132	2908.25	2027.45
913.0084	1782.7994	2912.75	2030.15
913.149	1784.4849	2898.25	2016.95
913.2895	1786.1696	2899.95	1999.1
913.4299	1787.8535	2876.1	1995.4
913.5704	1789.5367	2875.6	1996.7
913.7108	1791.2192	2875.55	1997.4
913.8513	1792.9009	2880.65	1972.65
913.9917	1794.5818	2860.7	1980.3
914.132	1796.2621	2862.2	1981.95
914.2724	1797.9415	2847	1963.9
914.4128	1799.6202	2828.9	1947.85
914.5531	1801.2982	2838.85	1957.7
914.6934	1802.9755	2835.15	1952.7
914.8337	1804.6519	2829.55	1945.65
914.9739	1806.3277	2815.65	1935.2
915.1142	1808.0027	2797.9	1918.25
915.2544	1809.6769	2815.95	1936.85
915.3946	1811.3504	2801.55	1922.3
915.5348	1813.0231	2784.6	1903.75
915.675	1814.6951	2786.8	1907.55
915.8151	1816.3664	2800.75	1917.65
915.9553	1818.0369	2792.4	1911.9
916.0954	1819.7067	2777.75	1896.5
916.2355	1821.3757	2785.95	1903.5
916.3755	1823.044	2772.2	1889.95
916.5156	1824.7115	2764.95	1882.15
916.6556	1826.3783	2761.5	1880.75
916.7956	1828.0443	2752.2	1873.05
916.9356	1829.7096	2746.7	1863.35
917.0756	1831.3741	2745.75	1862.75
917.2155	1833.0379	2742.95	1863.9
917.3555	1834.701	2735.6	1853.35
917.4954	1836.3633	2742.95	1864.1
917.6353	1838.0248	2723	1840.65
917.7751	1839.6856	2728.7	1847.6
917.915	1841.3457	2730.7	1849.45
918.0548	1843.005	2714.9	1835.95
918.1946	1844.6636	2729.35	1849.45
918.3344	1846.3214	2719.9	1839
918.4742	1847.9785	2705.9	1827
918.6139	1849.6349	2703.05	1821.85
918.7537	1851.2904	2710.05	1815.6
918.8934	1852.9453	2707.05	1824.95
919.0331	1854.5994	2709.25	1824.2
919.1727	1856.2528	2698.05	1811.25
919.3124	1857.9054	2700.7	1819.15
919.452	1859.5572	2691.55	1813.3
919.5916	1861.2083	2679.65	1798.05
919.7312	1862.8587	2675.35	1793.4
919.8708	1864.5084	2662.7	1782.25
920.0103	1866.1572	2675.35	1796
920.1498	1867.8054	2670.45	1784.35
920.2893	1869.4528	2650.35	1768.8
920.4288	1871.0994	2647.65	1766.8
920.5683	1872.7453	2642.1	1759.8
920.7077	1874.3905	2649.75	1760.1
920.8471	1876.0349	2650.5	1767.55
920.9865	1877.6786	2644.55	1761.5
921.1259	1879.3215	2633.45	1753.8
921.2653	1880.9637	2633.7	1751.9
921.4046	1882.6051	2619.7	1742
921.5439	1884.2458	2609.8	1727.95
921.6832	1885.8858	2608.85	1728.85
921.8225	1887.525	2613.65	1732.1
921.9617	1889.1634	2608.2	1728.6
922.101	1890.8011	2603.9	1722.8
922.2402	1892.4381	2594.9	1715.85
922.3794	1894.0743	2591.75	1712.85
922.5185	1895.7098	2576.75	1698.65
922.6577	1897.3446	2582	1700.35
922.7968	1898.9786	2576.15	1692.1
922.9359	1900.6118	2563.4	1682.1
923.075	1902.2443	2557.7	1674.05
923.214	1903.8761	2561.45	1680.75
923.3531	1905.5071	2548.35	1665
923.4921	1907.1374	2551.75	1672.6
923.6311	1908.7669	2538.5	1658.5
923.77	1910.3957	2525.8	1646.85
923.909	1912.0237	2532.15	1650.25
924.0479	1913.651	2518.75	1636.45
924.1868	1915.2776	2519.9	1641.7
924.3257	1916.9034	2509.6	1631.2
924.4646	1918.5285	2502.8	1623.5
924.6034	1920.1528	2493.55	1613.75
924.7422	1921.7764	2488.4	1606.85
924.881	1923.3992	2485.35	1604.55
925.0198	1925.0213	2480.95	1598.65
925.1586	1926.6427	2469.7	1589.4
925.2973	1928.2633	2547.25	1580
925.436	1929.8832	2470.6	1586.55
925.5747	1931.5023	2456.75	1576.5
925.7134	1933.1207	2457.7	1577.3
925.852	1934.7383	2453.45	1571.6
925.9906	1936.3552	2452.75	1573.65
926.1292	1937.9714	2442.3	1562.25
926.2678	1939.5868	2442.65	1561.2
926.4064	1941.2015	2430.15	1549.25
926.5449	1942.8154	2417	1537.45
926.6834	1944.4286	2412.95	1534
926.8219	1946.041	2430.65	1523.15
926.9604	1947.6528	2412.55	1526.75
927.0988	1949.2637	2409.25	1529.85
927.2372	1950.8739	2396.75	1514.6
927.3756	1952.4834	2388.9	1510.7
927.514	1954.0921	2388.7	1508.75
927.6523	1955.7001	2379.5	1495.45
927.7907	1957.3074	2384.2	1505.1
927.929	1958.9139	2366.85	1488.35
928.0673	1960.5197	2371.6	1490.8
928.2055	1962.1247	2377.9	1497.7
928.3438	1963.729	2361.45	1482.9
928.482	1965.3325	2359.5	1476.45
928.6202	1966.9353	2350.8	1472.45
928.7584	1968.5374	2333.25	1453.5
928.8965	1970.1387	2337.65	1458.3
929.0346	1971.7393	2334.5	1456.05
929.1727	1973.3392	2318.35	1438.3
929.3108	1974.9383	2314.95	1435.9
929.4489	1976.5366	2317.5	1440.6
929.5869	1978.1342	2312.7	1433.05
929.7249	1979.7311	2317.85	1435.45
929.8629	1981.3273	2307.35	1428.75
930.0009	1982.9227	2304.55	1422.2
930.1388	1984.5173	2304.55	1428.1
930.2767	1986.1112	2290.85	1412.6
930.4146	1987.7044	2290.9	1414.3
930.5525	1989.2968	2287.15	1407.45
930.6904	1990.8885	2289.15	1407.85
930.8282	1992.4795	2271.8	1391.25
930.966	1994.0697	2274.6	1396.2
931.1038	1995.6592	2253.75	1374.9
931.2415	1997.2479	2265.35	1387.05
931.3793	1998.8359	2251.55	1372.25
931.517	2000.4232	2248.95	1372.55
931.6547	2002.0097	2258.35	1382.85
931.7923	2003.5955	2244.95	1367.4
931.93	2005.1805	2252.4	1372.9
932.0676	2006.7648	2234.9	1359.35
932.2052	2008.3484	2231.45	1355.4
932.3427	2009.9312	2237.5	1358.35
932.4803	2011.5133	2226.85	1350.7
932.6178	2013.0946	2221.5	1345.2
932.7553	2014.6752	2221.8	1345.15
932.8928	2016.2551	2216	1336.6
933.0302	2017.8342	2207.65	1331.85
933.1676	2019.4126	2210.05	1334.15
933.305	2020.9902	2206.3	1330.35
933.4424	2022.5672	2215.35	1335.85
933.5798	2024.1433	2217.6	1339.1
933.7171	2025.7188	2199.3	1324.3
933.8544	2027.2935	2196.8	1318.1
933.9917	2028.8674	2188	1310.45
934.129	2030.4406	2178.4	1303.65
934.2662	2032.0131	2190	1315.45
934.4034	2033.5849	2183.5	1303.65
934.5406	2035.1559	2180.7	1304
934.6778	2036.7261	2180.7	1303.2
934.8149	2038.2957	2161.85	1283.85
934.952	2039.8645	2167.3	1289.2
935.0891	2041.4325	2162.8	1282.25
935.2262	2042.9998	2147.9	1269.9
935.3632	2044.5664	2151.45	1271.7
935.5002	2046.1323	2143.8	1267.3
935.6372	2047.6974	2140.65	1262.85
935.7742	2049.2617	2137.6	1261.35
935.9111	2050.8254	2146.3	1261.45
936.048	2052.3883	2138.5	1259.75
936.1849	2053.9504	2138	1259.4
936.3218	2055.5118	2136.45	1256.5
936.4586	2057.0725	2132.6	1251.25
936.5955	2058.6325	2133.15	1257.6
936.7323	2060.1917	2122.6	1247.05
936.869	2061.7502	2127	1248
937.0058	2063.3079	2116.65	1240.65
937.1425	2064.8649	2119.3	1240.7
937.2792	2066.4212	2116.4	1238.45
937.4159	2067.9767	2102.7	1225.7
937.5525	2069.5315	2104.1	1226.8
937.6891	2071.0856	2091.65	1213.8
937.8257	2072.6389	2088.65	1209.1
937.9623	2074.1915	2077.4	1202.1
938.0989	2075.7433	2074.45	1194.05
938.2354	2077.2945	2080.65	1204.9
938.3719	2078.8448	2080.6	1203.15
938.5084	2080.3945	2065.9	1188.75
938.6448	2081.9434	2068.75	1189.95
938.7812	2083.4916	2075.4	1197.7
938.9176	2085.039	2069.5	1189.85
939.054	2086.5857	2065.7	1183.55
939.1903	2088.1317	2060.5	1180.1
939.3267	2089.677	2056.7	1177.4
939.463	2091.2215	2049.7	1169.45
939.5992	2092.7652	2050.05	1167.3
939.7355	2094.3083	2052.65	1169.4
939.8717	2095.8506	2039.35	1160.5
940.0079	2097.3921	2042.35	1163.65
940.1441	2098.933	2036.8	1156.7
940.2802	2100.4731	2040.95	1163.05
940.4163	2102.0124	2048.4	1150.25
940.5524	2103.5511	2033.75	1156.25
940.6885	2105.089	2025.45	1145.45
940.8245	2106.6261	2027.3	1149.3
940.9606	2108.1626	2040.45	1159.4
941.0965	2109.6983	2058	1150.4
941.2325	2111.2332	2024.95	1145.6
941.3684	2112.7675	2014.6	1134.65
941.5044	2114.301	2025.9	1144.75
941.6403	2115.8337	2017.6	1140.05
941.7761	2117.3657	2004.6	1125.2
941.912	2118.897	2011.2	1132.8
942.0478	2120.4276	2020.65	1132.85
942.1835	2121.9575	1999.9	1120.15
942.3193	2123.4866	2000.5	1117.15
942.455	2125.0149	1998.25	1115.65
942.5907	2126.5426	1980.6	1102.95
942.7264	2128.0695	1988.45	1105.85
942.8621	2129.5956	1978.6	1102.95
942.9977	2131.1211	1980.45	1098.1
943.1333	2132.6458	1977.4	1098.05
943.2689	2134.1698	1981.5	1101.35
943.4044	2135.693	1970.1	1087.4
943.54	2137.2155	1975.2	1093.2
943.6755	2138.7373	1965.35	1085.95
943.8109	2140.2584	1976.55	1098.3
943.9464	2141.7787	1971.4	1088.7
944.0818	2143.2983	1947.3	1070.85
944.2172	2144.8171	1951.65	1077.05
944.3526	2146.3353	1942.8	1061.95
944.4879	2147.8527	1943.75	1067.4
944.6232	2149.3693	1940.45	1061.8
944.7585	2150.8853	1939.7	1059.25
944.8938	2152.4005	1943.35	1064.95
945.029	2153.9149	1943.25	1062.85
945.1642	2155.4287	1932.75	1053.3
945.2994	2156.9417	1928.85	1048.05
945.4346	2158.454	1936.9	1056.2
945.5697	2159.9655	1925.4	1048.8
945.7048	2161.4764	1928	1049.2
945.8399	2162.9865	1920.85	1044.1
945.9749	2164.4958	1915.6	1036.6
946.1099	2166.0045	1911.3	1031.7
946.2449	2167.5124	1912.6	1034.95
946.3799	2169.0195	1904.55	1026.15
946.5148	2170.526	1914.05	1034.25
946.6498	2172.0317	1913.35	1033.4
946.7846	2173.5367	1898.35	1017.7
946.9195	2175.0409	1891.9	1015.1
947.0543	2176.5445	1904.55	1026
947.1891	2178.0473	1902.75	1023.35
947.3239	2179.5494	1898.75	1015.65
947.4587	2181.0507	1897.85	1018.3
947.5934	2182.5513	1898.35	1017
947.7281	2184.0512	1888.2	1010.35
947.8628	2185.5504	1889.05	1010.25
947.9974	2187.0488	1875.75	996.1
948.132	2188.5465	1877.6	997.9
948.2666	2190.0435	1875.95	997.7
948.4012	2191.5397	1882.2	1002.95
948.5357	2193.0353	1878.15	997.85
948.6702	2194.5301	1872.2	991.9
948.8047	2196.0241	1866.15	985.35
948.9392	2197.5175	1870.6	989.45
949.0736	2199.0101	1874.9	990.1
949.208	2200.502	1858.4	980.1
949.3424	2201.9931	1848.4	969.4
949.4767	2203.4835	1852.7	972.1
949.611	2204.9733	1851.5	968.7
949.7453	2206.4622	1858.25	980.5
949.8796	2207.9505	1847.3	966.65
950.0138	2209.438	1838.65	963.1
950.148	2210.9248	1834.6	955.65
950.2822	2212.4109	1838	959.4
950.4164	2213.8962	1838.25	952.7
950.5505	2215.3809	1825.1	941.2
950.6846	2216.8648	1828.7	946.35
950.8186	2218.3479	1828.1	942.9
950.9527	2219.8304	1824.5	940.45
951.0867	2221.3121	1812.45	930.7
951.2207	2222.7931	1816.35	935.7
951.3546	2224.2733	1802.05	922
951.4886	2225.7529	1810.35	928.4
951.6225	2227.2317	1808.55	926.45
951.7563	2228.7098	1798.3	920
951.8902	2230.1872	1788.35	912.8
952.024	2231.6638	1794.25	915.7
952.1578	2233.1397	1794	908.8
952.2916	2234.6149	1792.95	913.7
952.4253	2236.0894	1787.9	907.65
952.559	2237.5632	1794.2	903.85
952.6927	2239.0362	1785.65	906.6
952.8263	2240.5085	1783.65	903.25
952.9599	2241.9801	1787.1	906.35
953.0935	2243.4509	1772.8	893.4
953.2271	2244.921	1762.25	883.1
953.3606	2246.3904	1771.55	888.65
953.4941	2247.8591	1762.9	884.8
953.6276	2249.3271	1751.45	870.8
953.7611	2250.7943	1748.55	868.4
953.8945	2252.2608	1756.05	875.45
954.0279	2253.7266	1754.4	874.25
954.1612	2255.1917	1747.35	867.4
954.2946	2256.656	1741.75	860.85
954.4279	2258.1197	1730.5	853.7
954.5612	2259.5826	1738.55	856.55
954.6944	2261.0447	1744.3	862.6
954.8276	2262.5062	1734.85	851.85
954.9608	2263.9669	1733.8	850.6
955.094	2265.4269	1734.6	851.85
955.2271	2266.8862	1726.7	847.2
955.3602	2268.3448	1721.85	841
955.4933	2269.8026	1725.85	844.05
955.6264	2271.2598	1725.55	849.15
955.7594	2272.7162	1715.4	838.2
955.8924	2274.1719	1724.85	845.05
956.0253	2275.6268	1715.45	833.55
956.1583	2277.0811	1714.35	835.6
956.2912	2278.5346	1719.15	840.9
956.4241	2279.9874	1708.15	826.85
956.5569	2281.4395	1713.9	834.8
956.6897	2282.8908	1717.25	832.95
956.8225	2284.3414	1713.05	830.7
956.9553	2285.7914	1716.3	837.8
957.088	2287.2406	1714.3	831.5
957.2207	2288.689	1708.85	828.05
957.3534	2290.1368	1714.2	832.25
957.486	2291.5838	1708.55	825.15
957.6186	2293.0302	1701.7	817.5
957.7512	2294.4758	1701.65	819.05
957.8838	2295.9206	1695.15	814.15
958.0163	2297.3648	1691.85	810.25
958.1488	2298.8082	1698.4	816.75
958.2813	2300.251	1695.15	815.5
958.4137	2301.693	1690.05	806.5
958.5461	2303.1343	1692	810.55
958.6785	2304.5748	1685.6	806.15
958.8108	2306.0147	1681.5	800.7
958.9432	2307.4538	1679.35	799.85
959.0754	2308.8922	1684.5	808.65
959.2077	2310.3299	1677.5	799.2
959.3399	2311.7669	1683.45	803.15
959.4721	2313.2031	1681.6	801.5
959.6043	2314.6387	1674.4	793.55
959.7365	2316.0735	1659.25	778.7
959.8686	2317.5076	1671.85	790
960.0006	2318.941	1662.85	781.9
960.1327	2320.3737	1660.65	779.85
960.2647	2321.8056	1662.75	778.5
960.3967	2323.2369	1661.35	779.4
960.5287	2324.6674	1653.35	772.6
960.6606	2326.0972	1651.6	769.35
960.7925	2327.5263	1660.5	780.75
960.9244	2328.9547	1652.5	771
961.0562	2330.3823	1644.35	762.1
961.1881	2331.8092	1656.45	770.65
961.3198	2333.2355	1648.55	767.15
961.4516	2334.661	1643	759
961.5833	2336.0858	1639.25	756.4
961.715	2337.5098	1641.75	758.75
961.8467	2338.9332	1642.25	762.95
961.9783	2340.3558	1640.8	756.2
962.1099	2341.7778	1624.9	746
962.2415	2343.199	1623.6	741.4
962.373	2344.6195	1634.95	756.4
962.5045	2346.0393	1629.8	750.45
962.636	2347.4583	1628.7	748.9
962.7675	2348.8767	1630.65	747.2
962.8989	2350.2943	1630.3	750.3
963.0303	2351.7113	1637.55	754.35
963.1617	2353.1275	1633.3	751.3
963.293	2354.543	1644.45	736.45
963.4243	2355.9578	1626.85	743.9
963.5556	2357.3718	1618.65	738.9
963.6868	2358.7852	1617.2	736.5
963.818	2360.1978	1617.35	736.75
963.9492	2361.6098	1603.1	721.95
964.0803	2363.021	1613.1	729.2
964.2114	2364.4315	1608.25	731
964.3425	2365.8413	1613.25	731.8
964.4736	2367.2504	1604.5	724.75
964.6046	2368.6587	1607.2	726.45
964.7356	2370.0664	1605.15	725.3
964.8666	2371.4733	1604.9	725.3
964.9975	2372.8795	1603.25	721.75
965.1284	2374.285	1597.6	716.2
965.2593	2375.6899	1589.8	710.6
965.3901	2377.0939	1595.4	715.35
965.5209	2378.4973	1591.4	709.8
965.6517	2379.9	1598.05	716.35
965.7825	2381.3019	1589.3	709.85
965.9132	2382.7032	1583.35	704.45
966.0439	2384.1037	1585.55	708.2
966.1745	2385.5035	1583.05	703.6
966.3051	2386.9027	1584.75	707.2
966.4357	2388.3011	1575.7	694.65
966.5663	2389.6987	1575.15	696.25
966.6968	2391.0957	1566.4	686.8
966.8273	2392.492	1562.7	684
966.9578	2393.8876	1564.4	681.7
967.0882	2395.2824	1557.5	676.2
967.2186	2396.6765	1565.5	684.35
967.349	2398.07	1561.8	683.05
967.4793	2399.4627	1563.55	681.25
967.6097	2400.8547	1553.85	672.95
967.7399	2402.246	1555.25	669.4
967.8702	2403.6366	1550.25	669.65
968.0004	2405.0265	1543.75	664.35
968.1306	2406.4156	1545.3	660.2
968.2607	2407.8041	1544.6	661.8
968.3909	2409.1918	1548.05	665.5
968.521	2410.5789	1546.9	666.15
968.651	2411.9652	1545.35	660.8
968.781	2413.3508	1538.35	658.75
968.911	2414.7358	1539.25	657.4
969.041	2416.12	1535.45	656.85
969.1709	2417.5035	1538	658.1
969.3008	2418.8863	1538.45	655.5
969.4307	2420.2684	1531.9	652.1
969.5606	2421.6497	1536.25	653.85
969.6904	2423.0304	1527.1	646.75
969.8201	2424.4104	1520.45	640.15
969.9499	2425.7896	1536.7	651.05
970.0796	2427.1682	1525	645.35
970.2093	2428.546	1520.8	638.4
970.3389	2429.9232	1526.3	645.25
970.4685	2431.2996	1524.25	644.5
970.5981	2432.6753	1521.25	638.6
970.7277	2434.0503	1515.4	634.4
970.8572	2435.4246	1511.35	630.4
970.9867	2436.7982	1513.25	631.05
971.1161	2438.1711	1518.4	636.6
971.2456	2439.5433	1516.6	635.3
971.375	2440.9148	1512.75	625.05
971.5043	2442.2856	1511.25	630.7
971.6336	2443.6557	1512.65	630.35
971.7629	2445.025	1497.65	614.15
971.8922	2446.3937	1504.5	622.7
972.0214	2447.7617	1500	618.65
972.1506	2449.1289	1499.15	619.25
972.2798	2450.4955	1498.35	613.45
972.4089	2451.8613	1484.85	606.9
972.538	2453.2265	1493.6	613.4
972.6671	2454.5909	1493.8	612.2
972.7961	2455.9546	1497.35	614.75
972.9251	2457.3177	1488	608.7
973.0541	2458.68	1483.65	599.9
973.1831	2460.0416	1484.3	603.45
973.312	2461.4025	1494.15	611
973.4408	2462.7627	1494.75	602.5
973.5697	2464.1222	1483.9	605.25
973.6985	2465.4811	1481	599.55
973.8273	2466.8392	1481	601.3
973.956	2468.1966	1488.7	604.8
974.0847	2469.5533	1485.8	602.45
974.2134	2470.9093	1486.55	607.35
974.3421	2472.2645	1476.7	593.4
974.4707	2473.6191	1483.85	604.35
974.5993	2474.973	1481.6	601.6
974.7278	2476.3262	1480.6	597.7
974.8563	2477.6787	1480.85	602.3
974.9848	2479.0305	1473.45	594.25
975.1132	2480.3816	1476.9	593.8
975.2417	2481.7319	1467.6	586.9
975.37	2483.0816	1466.1	582.65
975.4984	2484.4306	1469.95	589.25
975.6267	2485.7789	1465.4	584.2
975.755	2487.1264	1470.15	588.65
975.8833	2488.4733	1467	589.35
976.0115	2489.8195	1481.95	584.85
976.1397	2491.165	1464.25	579.4
976.2678	2492.5097	1466.1	585.05
976.3959	2493.8538	1464.85	584.8
976.524	2495.1972	1455.75	575.8
976.6521	2496.5398	1455.45	574.75
976.7801	2497.8818	1453.65	572.75
976.9081	2499.2231	1450.7	569.45
977.036	2500.5637	1448.25	565.5
977.164	2501.9035	1452.45	569.7
977.2918	2503.2427	1451.35	566.6
977.4197	2504.5812	1447.65	566.25
977.5475	2505.919	1447.75	565.35
977.6753	2507.256	1446.85	566.3
977.8031	2508.5924	1444.75	563.9
977.9308	2509.9281	1444.3	558.15
978.0585	2511.2631	1439.1	558.5
978.1861	2512.5974	1445.55	566.5
978.3137	2513.9309	1433.75	554
978.4413	2515.2638	1469.05	558.7
978.5689	2516.596	1434.25	556.1
978.6964	2517.9275	1434.85	550.4
978.8239	2519.2583	1433.3	555.15
978.9513	2520.5884	1433.2	550
979.0788	2521.9178	1429.3	550.05
979.2062	2523.2465	1429.65	549.7
979.3335	2524.5745	1433.25	554.1
979.4608	2525.9018	1420.25	539.8
979.5881	2527.2284	1426.55	547.45
979.7154	2528.5543	1427.1	545.7
979.8426	2529.8796	1423	542
979.9698	2531.2041	1420.4	539.35
980.0969	2532.5279	1424.7	547.2
980.224	2533.851	1423.1	541.4
980.3511	2535.1735	1423	543.15
980.4781	2536.4952	1423	545.1
980.6052	2537.8163	1429.85	548.15
980.7321	2539.1366	1417.85	536.9
980.8591	2540.4562	1417	533.35
980.986	2541.7752	1411.95	533.5
981.1129	2543.0935	1418.2	537.8
981.2397	2544.411	1422.05	540.75
981.3665	2545.7279	1419.7	540.05
981.4933	2547.0441	1416.05	536
981.62	2548.3596	1419.5	537.35
981.7467	2549.6744	1416.6	536.7
981.8734	2550.9885	1416.9	528.2
982.0001	2552.3019	1411.75	532.7
982.1267	2553.6146	1412.35	531.85
982.2532	2554.9266	1406.65	525.45
982.3798	2556.2379	1407.7	526.7
982.5063	2557.5485	1411.2	531.15
982.6327	2558.8585	1410.15	523
982.7592	2560.1677	1411.4	529.7
982.8856	2561.4762	1400.35	518.7
983.0119	2562.7841	1410.55	527.85
983.1383	2564.0913	1406.35	528.6
983.2646	2565.3977	1406.3	527.25
983.3908	2566.7035	1404.65	523.25
983.517	2568.0086	1408.85	526.6
983.6432	2569.313	1407.5	527
983.7694	2570.6167	1406.25	523.6
983.8955	2571.9197	1401.3	522.7
984.0216	2573.222	1404.15	520.3
984.1476	2574.5236	1396.2	514
984.2737	2575.8246	1406.4	522.95
984.3996	2577.1248	1402.8	519.3
984.5256	2578.4244	1398.35	519.4
984.6515	2579.7232	1403.55	522.35
984.7774	2581.0214	1430.1	523
984.9032	2582.3189	1400	521.35
985.029	2583.6157	1400.85	515.8
985.1548	2584.9118	1399.85	518.35
985.2806	2586.2072	1401.4	520.95
985.4063	2587.5019	1399.9	521.15
985.5319	2588.7959	1400.35	519.8
985.6576	2590.0893	1403.9	522.6
985.7832	2591.3819	1407.15	529.45
985.9087	2592.6739	1403.4	523.8
986.0343	2593.9652	1406.9	524.2
986.1597	2595.2557	1407.85	525.8
986.2852	2596.5456	1409.05	526.8
986.4106	2597.8348	1408.65	529.65
986.536	2599.1234	1411.55	533.3
986.6614	2600.4112	1411.25	530.3
986.7867	2601.6983	1414.6	530.35
986.912	2602.9848	1412.05	531.85
987.0372	2604.2705	1419.8	534.75
987.1624	2605.5556	1418.9	538.15
987.2876	2606.84	1415.2	536.45
987.4128	2608.1237	1410.35	530.3
987.5379	2609.4067	1403.8	523.4
987.6629	2610.689	1405.9	517.25
987.788	2611.9707	1402.8	519
987.913	2613.2516	1401.7	518.7
988.0379	2614.5319	1395	514.75
988.1629	2615.8115	1388.5	509.7
988.2878	2617.0903	1390.55	509.85
988.4126	2618.3685	1393.75	514.3
988.5375	2619.6461	1388.2	509.45
988.6622	2620.9229	1384.6	506.45
988.787	2622.199	1384.85	503.8
988.9117	2623.4745	1380.95	501.35
989.0364	2624.7493	1378.25	499.6
989.161	2626.0234	1381.85	503.8
989.2857	2627.2968	1379.9	500.3
989.4102	2628.5695	1381.3	499.1
989.5348	2629.8415	1375.2	496.25
989.6593	2631.1128	1377.3	497.1
989.7837	2632.3835	1371.2	490.85
989.9082	2633.6535	1379.35	499
990.0326	2634.9228	1376.85	497.65
990.1569	2636.1914	1379.15	500.3
990.2812	2637.4593	1372.5	492.55
990.4055	2638.7265	1378.8	497.5
990.5298	2639.9931	1372.65	491.85
990.654	2641.259	1369.35	489.95
990.7782	2642.5242	1368	488.15
990.9023	2643.7887	1365.35	485.95
991.0264	2645.0525	1364.8	486.15
991.1505	2646.3156	1360.5	481.3
991.2745	2647.5781	1362.45	483.3
991.3985	2648.8398	1355.45	476.2
991.5225	2650.1009	1365.15	475.25
991.6464	2651.3613	1351.2	473.7
991.7703	2652.6211	1352.65	473.1
991.8942	2653.8801	1355.15	478.25
992.018	2655.1385	1361.15	477.8
992.1418	2656.3961	1355.9	478.85
992.2655	2657.6531	1353.55	476.2
992.3892	2658.9094	1351.15	472
992.5129	2660.1651	1347.65	471.5
992.6366	2661.42	1354.85	476.2
992.7602	2662.6743	1354	474.5
992.8837	2663.9279	1365.55	485.2
993.0073	2665.1808	1362.05	483.55
993.1307	2666.433	1369.7	488.65
993.2542	2667.6846	1366.2	488.6
993.3776	2668.9354	1369.25	487
993.501	2670.1856	1366.7	487.7
993.6244	2671.4351	1370.35	491.9
993.7477	2672.6839	1378.45	497.3
993.8709	2673.9321	1378.1	498.4
993.9942	2675.1795	1382.5	504.5
994.1174	2676.4263	1377.05	498.35
994.2405	2677.6724	1378.6	501.4
994.3637	2678.9179	1388	508.65
994.4868	2680.1626	1386	506.3
994.6098	2681.4067	1379.8	502.3
994.7328	2682.6501	1382.3	505.55
994.8558	2683.8928	1375.2	494
994.9788	2685.1348	1368.6	490.95
995.1017	2686.3761	1372.5	496.1
995.2245	2687.6168	1362.85	484.5
995.3474	2688.8568	1360.5	481.45
995.4702	2690.0961	1354.45	476.85
995.5929	2691.3348	1354.95	475.4
995.7156	2692.5727	1356.1	477.8
995.8383	2693.81	1351.5	472
995.961	2695.0466	1346.65	471.15
996.0836	2696.2826	1350.45	468.3
996.2062	2697.5178	1371.3	472.7
996.3287	2698.7524	1351.55	474.1
996.4512	2699.9863	1349.85	468.65
996.5737	2701.2195	1353.05	474.35
996.6961	2702.452	1374.3	494
996.8185	2703.6839	1371.8	492.35
996.9408	2704.9151	1372.55	494.4
997.0631	2706.1456	1385.45	508.15
997.1854	2707.3755	1392.95	514.15
997.3077	2708.6046	1402.4	522.9
997.4299	2709.8331	1403.95	524.2
997.552	2711.0609	1405.4	528.45
997.6742	2712.2881	1418.5	539.55
997.7963	2713.5145	1424.8	544.05
997.9183	2714.7403	1434.75	558
998.0403	2715.9654	1445.45	565.55
998.1623	2717.1899	1461.65	568.15
998.2842	2718.4136	1469.75	591.7
998.4062	2719.6367	1473.95	595.45
998.528	2720.8591	1502.05	615.25
998.6498	2722.0809	1506.3	627.85
998.7716	2723.3019	1521.2	638.55
998.8934	2724.5223	1528.7	649.95
999.0151	2725.7421	1529.75	649.9
999.1368	2726.9611	1533.55	654.55
999.2584	2728.1795	1535.8	652.3
999.38	2729.3972	1520	642.6
999.5016	2730.6142	1512.3	624.65
999.6231	2731.8306	1493.75	614.65
999.7446	2733.0462	1477.95	596.9
999.8661	2734.2612	1454.3	571.45
999.9875	2735.4756	1445.5	564.1
1000.1089	2736.6892	1424.45	545.4
1000.2302	2737.9022	1409.6	534.2
1000.3515	2739.1145	1401.1	524.2
1000.4728	2740.3262	1394.9	509.25
1000.594	2741.5372	1377.25	499.35
1000.7152	2742.7475	1369.8	492.35
1000.8363	2743.9571	1366.3	485.8
1000.9575	2745.1661	1354.9	472.35
1001.0785	2746.3744	1342.75	465.1
1001.1996	2747.582	1336.85	457.65
1001.3206	2748.7889	1331.5	452.15
1001.4415	2749.9952	1323.3	444.15
1001.5625	2751.2008	1319.2	440.9
1001.6833	2752.4057	1313.3	434
1001.8042	2753.61	1308.35	431.5
1001.925	2754.8136	1311.95	432.35
1002.0458	2756.0165	1304.4	425.7
1002.1665	2757.2188	1302.95	424.1
1002.2872	2758.4204	1301.55	423.8
1002.4078	2759.6213	1303.6	424.5
1002.5285	2760.8215	1314.45	430.9
1002.649	2762.0211	1306.35	427.55
1002.7696	2763.22	1299.95	417.6
1002.8901	2764.4182	1306.45	426.45
1003.0106	2765.6158	1298.3	420.25
1003.131	2766.8127	1295.25	416.5
1003.2514	2768.009	1292.6	413.75
1003.3717	2769.2045	1291.35	411.55
1003.492	2770.3994	1291.2	413.05
1003.6123	2771.5936	1287.6	410.7
1003.7325	2772.7872	1281.2	406.3
1003.8527	2773.9801	1279.35	400.35
1003.9729	2775.1723	1285.55	391.25
1004.093	2776.3639	1269.4	393.25
1004.2131	2777.5548	1276.35	396
1004.3331	2778.745	1276.3	396.7
1004.4531	2779.9346	1271.25	392.35
1004.5731	2781.1235	1278.25	398.4
1004.693	2782.3117	1281.5	404.7
1004.8129	2783.4992	1279.95	402.55
1004.9328	2784.6861	1280.45	403.15
1005.0526	2785.8723	1285	403.55
1005.1723	2787.0579	1285.6	406.8
1005.2921	2788.2428	1291.6	413.15
1005.4118	2789.427	1290.3	416
1005.5314	2790.6106	1300.7	420.9
1005.651	2791.7935	1302.05	423
1005.7706	2792.9757	1311.1	433.75
1005.8902	2794.1573	1315.4	438.15
1006.0097	2795.3382	1323.25	446.4
1006.1291	2796.5184	1326.15	448.3
1006.2485	2797.698	1340.35	460.2
1006.3679	2798.8769	1348.8	470.25
1006.4873	2800.0551	1349.1	468.65
1006.6066	2801.2327	1365.4	486.45
1006.7258	2802.4096	1381.35	504.25
1006.8451	2803.5859	1394.25	516.2
1006.9642	2804.7615	1415	536.2
1007.0834	2805.9364	1430.35	552.4
1007.2025	2807.1106	1447.75	573.15
1007.3216	2808.2842	1481.15	602.75
1007.4406	2809.4572	1496.25	619.05
1007.5596	2810.6294	1538.35	659
1007.6785	2811.801	1561.85	685.85
1007.7975	2812.972	1606	730.05
1007.9163	2814.1423	1645.2	770.35
1008.0352	2815.3119	1681.25	805.9
1008.154	2816.4808	1728.65	853.05
1008.2727	2817.6491	1781.05	903.95
1008.3914	2818.8167	1848.15	972.55
1008.5101	2819.9837	1894.35	1012.1
1008.6288	2821.15	1961.2	1082.6
1008.7474	2822.3157	2015.8	1139.1
1008.8659	2823.4807	2079.85	1201.35
1008.9844	2824.645	2139.6	1260.25
1009.1029	2825.8086	2204.4	1329
1009.2214	2826.9716	2267.65	1391.35
1009.3398	2828.134	2314.95	1438.55
1009.4581	2829.2957	2362.75	1486.05
1009.5764	2830.4567	2404.05	1526.8
1009.6947	2831.617	2423.8	1545.85
1009.813	2832.7767	2428	1551.05
1009.9312	2833.9358	2435.4	1560.5
1010.0493	2835.0941	2418.95	1539.8
1010.1675	2836.2519	2406.5	1529.45
1010.2855	2837.4089	2379.95	1502.05
1010.4036	2838.5653	2369.4	1492.5
1010.5216	2839.7211	2355.1	1478.15
1010.6396	2840.8761	2348.55	1470.5
1010.7575	2842.0306	2361.7	1485.45
1010.8754	2843.1843	2379	1502.4
1010.9932	2844.3374	2421.95	1544.55
1011.111	2845.4899	2454.9	1577.7
1011.2288	2846.6417	2509.9	1633.6
1011.3465	2847.7928	2562.15	1683.8
1011.4642	2848.9433	2629.75	1753.3
1011.5818	2850.0931	2679.25	1800.75
1011.6995	2851.2422	2732.65	1854.35
1011.817	2852.3907	2796.25	1921.45
1011.9345	2853.5385	2842.45	1963.25
1012.052	2854.6857	2902.65	2000
1012.1695	2855.8323	2949.65	2074.1
1012.2869	2856.9781	2986.85	2112.4
1012.4042	2858.1233	3033.45	2156.15
1012.5216	2859.2679	3094.6	2218.25
1012.6389	2860.4118	3143.45	2268.5
1012.7561	2861.555	3197.2	2315.7
1012.8733	2862.6976	3239.95	2360
1012.9905	2863.8395	3272.85	2397.4
1013.1076	2864.9808	3309.8	2432.5
1013.2247	2866.1214	3324.65	2449
1013.3417	2867.2614	3347.25	2471.15
1013.4587	2868.4007	3366.45	2489.9
1013.5757	2869.5393	3380.75	2501.95
1013.6926	2870.6773	3395.7	2515
1013.8095	2871.8146	3405.25	2524.85
1013.9263	2872.9513	3402.65	2523.15
1014.0431	2874.0874	3402.75	2526.2
1014.1599	2875.2227	3379.7	2503.3
1014.2766	2876.3574	3370.5	2492.35
1014.3933	2877.4915	3326.3	2448.75
1014.51	2878.6249	3317	2441.75
1014.6266	2879.7577	3281	2403.2
1014.7431	2880.8898	3275.95	2389.2
1014.8596	2882.0212	3258.55	2384.4
1014.9761	2883.152	3233.15	2356
1015.0925	2884.2821	3229.8	2355.7
1015.2089	2885.4116	3222.45	2344.35
1015.3253	2886.5405	3234.95	2358.45
1015.4416	2887.6686	3248.55	2368.25
1015.5579	2888.7962	3253.7	2378.6
1015.6741	2889.923	3261.75	2385.85
1015.7903	2891.0493	3288.55	2414.4
1015.9065	2892.1748	3292.95	2417.1
1016.0226	2893.2997	3309.5	2431.45
1016.1387	2894.424	3322.45	2448.85
1016.2547	2895.5476	3327.1	2450.5
1016.3707	2896.6706	3339.65	2464.6
1016.4866	2897.7929	3346.1	2468.7
1016.6025	2898.9145	3398.15	2519.65
1016.7184	2900.0355	3413.8	2535.35
1016.8342	2901.1559	3442.95	2566.25
1016.95	2902.2756	3472.6	2590
1017.0658	2903.3946	3495.85	2622.35
1017.1815	2904.513	3526.2	2646
1017.2971	2905.6308	3549.85	2674.15
1017.4127	2906.7479	3564.55	2686.4
1017.5283	2907.8643	3595.15	2717.2
1017.6439	2908.9801	3611	2734.55
1017.7594	2910.0953	3607.6	2730.9
1017.8748	2911.2098	3593.7	2713.95
1017.9902	2912.3236	3591.7	2708.15
1018.1056	2913.4368	3565.85	2685.4
1018.2209	2914.5494	3549.35	2674.05
1018.3362	2915.6613	3520.2	2637.9
1018.4515	2916.7725	3470.4	2590.15
1018.5667	2917.8831	3449.65	2572.9
1018.6819	2918.9931	3417.55	2539.15
1018.797	2920.1024	3369.75	2492.75
1018.9121	2921.211	3367.15	2488.85
1019.0271	2922.319	3339.7	2463.1
1019.1421	2923.4264	3321.3	2446.45
1019.2571	2924.5331	3317.8	2440.75
1019.372	2925.6391	3310.5	2434.2
1019.4869	2926.7445	3313.2	2438.15
1019.6017	2927.8493	3312.35	2437.3
1019.7165	2928.9534	3316.6	2439.75
1019.8313	2930.0569	3333.4	2453.45
1019.946	2931.1597	3336.9	2459.8
1020.0606	2932.2619	3330.8	2455.5
1020.1753	2933.3634	3340.1	2464.6
1020.2899	2934.4643	3351.2	2467.75
1020.4044	2935.5645	3349.65	2468.25
1020.5189	2936.6641	3335.8	2454.55
1020.6334	2937.763	3309.85	2434.75
1020.7478	2938.8613	3284.45	2407.35
1020.8622	2939.959	3258.45	2380.1
1020.9765	2941.056	3205.25	2329.8
1021.0908	2942.1523	3142.25	2265.25
1021.2051	2943.248	3066.6	2190.8
1021.3193	2944.3431	2981.1	2105.35
1021.4334	2945.4375	2879.3	2003.9
1021.5476	2946.5313	2790.4	1915.1
1021.6617	2947.6244	2682.6	1804.65
1021.7757	2948.7169	2596	1719.6
1021.8897	2949.8087	2511.3	1635.5
1022.0037	2950.8999	2409.3	1534.4
1022.1176	2951.9904	2342.15	1466.55
1022.2315	2953.0803	2272.05	1392.6
1022.3453	2954.1696	2200.75	1325.85
1022.4591	2955.2582	2160.8	1285.3
1022.5728	2956.3462	2123.35	1248.55
1022.6865	2957.4335	2085.9	1208.6
1022.8002	2958.5202	2057	1178.45
1022.9138	2959.6062	2023.35	1148.7
1023.0274	2960.6916	1995.55	1119.3
1023.141	2961.7764	1978.85	1101.15
1023.2545	2962.8605	1965.55	1088.9
1023.3679	2963.9439	1949.95	1073.25
1023.4813	2965.0267	1945.3	1068.6
1023.5947	2966.1089	1952.3	1052.8
1023.708	2967.1905	1935.3	1058.6
1023.8213	2968.2714	1930.55	1055.25
1023.9346	2969.3516	1933.45	1056.85
1024.0478	2970.4312	1933.95	1049.65
1024.1609	2971.5102	1938.6	1062.15
1024.274	2972.5885	1940.65	1064.45
1024.3871	2973.6662	1965.95	1083.95
1024.5002	2974.7432	1948	1072.5
1024.6132	2975.8196	1958	1082.45
1024.7261	2976.8954	1942.6	1065.95
1024.839	2977.9705	1932.25	1055.6
1024.9519	2979.045	1929	1054.4
1025.0647	2980.1188	1922.65	1047.3
1025.1775	2981.192	1899.3	1022.75
1025.2902	2982.2645	1890.85	1013.35
1025.4029	2983.3364	1863.7	987.85
1025.5156	2984.4077	1834.65	957.3
1025.6282	2985.4783	1822.15	940.05
1025.7407	2986.5483	1781.4	907.85
1025.8532	2987.6177	1753.35	879.05
1025.9657	2988.6864	1714.3	837.2
1026.0782	2989.7545	1685.65	810.35
1026.1906	2990.8219	1649.2	773.9
1026.3029	2991.8887	1619.2	741.2
1026.4152	2992.9548	1592.7	714.3
1026.5275	2994.0204	1562.8	688.85
1026.6397	2995.0852	1522.75	648.65
1026.7519	2996.1495	1500.5	623.6
1026.864	2997.2131	1467.65	592.65
1026.9761	2998.276	1441.7	565.95
1027.0882	2999.3383	1425.5	551.05
1027.2002	3000.4	1405.85	528.25
1027.3122	3001.4611	1382.95	507.05
1027.4241	3002.5215	1367.2	490.45
1027.536	3003.5812	1347.35	471.5
1027.6478	3004.6404	1326.6	452.7
1027.7596	3005.6989	1313	436.1
1027.8714	3006.7567	1303.8	428.2
1027.9831	3007.8139	1325.35	420.55
1028.0947	3008.8705	1277.7	404.15
1028.2064	3009.9264	1276.7	396.7
1028.3179	3010.9818	1265.45	390.05
1028.4295	3012.0364	1252.75	374.8
1028.541	3013.0905	1249.8	374.75
1028.6524	3014.1439	1245.6	370.5
1028.7638	3015.1966	1233.05	358.05
1028.8752	3016.2487	1227.45	349.95
1028.9865	3017.3002	1237.3	357.8
1029.0978	3018.3511	1225.2	349.85
1029.209	3019.4013	1220.8	345
1029.3202	3020.4509	1216.8	342.45
1029.4314	3021.4998	1218.55	343.4
1029.5425	3022.5481	1216.45	342.6
1029.6535	3023.5958	1210.3	333.05
1029.7645	3024.6428	1209.6	332.1
1029.8755	3025.6892	1210.5	337.3
1029.9864	3026.735	1215.55	340.1
1030.0973	3027.7802	1204.55	328.55
1030.2082	3028.8247	1205.15	330.3
1030.319	3029.8685	1210.05	336.05
1030.4297	3030.9118	1206.75	330.1
1030.5404	3031.9544	1208.85	334.15
1030.6511	3032.9963	1213.7	337.6
1030.7617	3034.0376	1210.85	334.85
1030.8723	3035.0783	1219.2	340.25
1030.9829	3036.1184	1212.95	336
1031.0934	3037.1578	1215.95	340.65
1031.2038	3038.1966	1220.9	342.9
1031.3142	3039.2348	1222	347.25
1031.4246	3040.2723	1229.75	345.6
1031.5349	3041.3092	1222.7	348.25
1031.6452	3042.3455	1223.55	347.8
1031.7554	3043.3811	1227.55	350.05
1031.8656	3044.4161	1225.45	348.45
1031.9758	3045.4505	1220	345
1032.0859	3046.4842	1224.4	346.3
1032.1959	3047.5173	1224.55	352.25
1032.3059	3048.5498	1215.45	341.85
1032.4159	3049.5816	1218.05	343.3
1032.5258	3050.6128	1212.9	336.4
1032.6357	3051.6434	1214.4	336.75
1032.7455	3052.6734	1208.45	332.65
1032.8553	3053.7027	1207.1	331.9
1032.9651	3054.7314	1208.35	333.95
1033.0748	3055.7594	1206.25	331.7
1033.1845	3056.7868	1201.75	324.35
1033.2941	3057.8136	1199.2	325.4
1033.4037	3058.8398	1202.3	326.9
1033.5132	3059.8653	1207.55	333.55
1033.6227	3060.8902	1204.85	329.85
1033.7321	3061.9145	1197.9	320.6
1033.8415	3062.9381	1198.05	323.1
1033.9509	3063.9612	1215.35	322.3
1034.0602	3064.9835	1195.3	319.75
1034.1694	3066.0053	1192.65	315.35
1034.2787	3067.0264	1187.55	313.55
1034.3878	3068.0469	1179.2	302.5
1034.497	3069.0668	1184.2	306.2
1034.6061	3070.086	1178.45	303.95
1034.7151	3071.1046	1174.5	299.05
1034.8241	3072.1226	1174.25	298.05
1034.9331	3073.1399	1169.3	295.35
1035.042	3074.1567	1159.55	284.5
1035.1508	3075.1727	1157.35	279.9
1035.2597	3076.1882	1146.4	271.8
1035.3684	3077.203	1141.7	265.2
1035.4772	3078.2173	1132.65	256.65
1035.5859	3079.2308	1133.45	254.15
1035.6945	3080.2438	1125.55	248.75
1035.8031	3081.2561	1116.35	241.05
1035.9117	3082.2678	1112.65	237.55
1036.0202	3083.2789	1101.25	225.3
1036.1286	3084.2893	1099.75	223.9
1036.2371	3085.2991	1092.95	215.65
1036.3454	3086.3083	1096.3	216.35
1036.4538	3087.3169	1087.3	211.15
1036.562	3088.3248	1082	206.9
1036.6703	3089.3321	1077.1	199.65
1036.7785	3090.3388	1069.8	195.2
1036.8866	3091.3449	1071.7	195.9
1036.9948	3092.3503	1068.05	190.1
1037.1028	3093.3551	1061.4	187.7
1037.2108	3094.3593	1057.7	183.75
1037.3188	3095.3629	1053.8	180.1
1037.4267	3096.3658	1054.05	177.55
1037.5346	3097.3681	1053.8	178.95
1037.6425	3098.3698	1049.75	173.65
1037.7503	3099.3708	1054.55	172.8
1037.858	3100.3713	1040.7	166.6
1037.9657	3101.3711	1040.1	163.9
1038.0734	3102.3702	1172.85	161.05
1038.181	3103.3688	1040.85	164.55
1038.2886	3104.3667	1033.2	158.05
1038.3961	3105.364	1031.5	155.3
1038.5036	3106.3607	1029.35	151.4
1038.611	3107.3568	1026.1	149.05
1038.7184	3108.3522	1027.75	153.1
1038.8257	3109.347	1024.65	147.8
1038.933	3110.3412	1023.1	145.55
1039.0403	3111.3348	1018.15	144.35
1039.1475	3112.3277	1018.1	142.75
1039.2547	3113.32	1014.7	140.7
1039.3618	3114.3117	1013.25	136.65
1039.4689	3115.3028	1012.7	136.75
1039.5759	3116.2932	1010.4	132.45
1039.6829	3117.2831	1017	136.7
1039.7898	3118.2723	1005.55	130.75
1039.8967	3119.2608	1002.6	127.85
1040.0035	3120.2488	996.6	119.4
1040.1103	3121.2361	1001.2	125.55
1040.2171	3122.2229	998.3	123.85
1040.3238	3123.209	999.55	124.15
1040.4305	3124.1944	996.75	120.55
1040.5371	3125.1793	997.85	122.4
1040.6437	3126.1635	992.8	118.45
1040.7502	3127.1471	991.8	117.1
1040.8567	3128.1301	993.8	117.1
1040.9631	3129.1125	987.15	114.55
1041.0695	3130.0942	989.55	114.2
1041.1759	3131.0753	996.6	111.4
1041.2822	3132.0558	986.6	108.9
1041.3884	3133.0357	985	108.15
1041.4946	3134.015	983.5	109
1041.6008	3134.9936	986.25	109.4
1041.7069	3135.9716	1005.65	108.45
1041.813	3136.949	981.85	108.3
1041.919	3137.9258	994.95	100.8
1042.025	3138.902	984.7	104.7
1042.1309	3139.8775	978.15	103.1
1042.2368	3140.8524	977.6	103.85
1042.3427	3141.8267	980.55	102.4
1042.4485	3142.8004	972.05	96.2
1042.5542	3143.7735	981.85	101.05
1042.6599	3144.7459	978.2	102.6
1042.7656	3145.7178	975.75	98.4
1042.8712	3146.689	970.3	95.55
1042.9768	3147.6596	973.7	96.15
1043.0823	3148.6295	973.65	98.6
1043.1878	3149.5989	969.9	94.3
1043.2932	3150.5676	969.05	92.95
1043.3986	3151.5357	967.85	96.8
1043.5039	3152.5032	968.3	94.25
1043.6092	3153.4701	967.3	93.15
1043.7145	3154.4364	970.2	91.9
1043.8197	3155.402	966.3	92.35
1043.9248	3156.367	969.3	92.75
1044.03	3157.3315	999.7	88.85
1044.135	3158.2952	965.1	90.3
1044.24	3159.2584	962.6	85.85
1044.345	3160.221	961.05	85.55
1044.4499	3161.1829	959.45	85
1044.5548	3162.1442	960.1	85.65
1044.6596	3163.105	962	85.6
1044.7644	3164.065	957.5	83.6
1044.8692	3165.0245	963.1	85.25
1044.9739	3165.9834	959.7	87.35
1045.0785	3166.9416	955.2	79.5
1045.1831	3167.8993	959.75	83.95
1045.2877	3168.8563	955.05	81.85
1045.3922	3169.8127	958.75	83.55
1045.4966	3170.7684	956.4	82.05
1045.6011	3171.7236	958.5	81.35
1045.7054	3172.6782	955.15	80.75
1045.8098	3173.6321	956.45	81.4
1045.914	3174.5854	956.85	76.6
1046.0183	3175.5381	951.25	77.3
1046.1224	3176.4902	951.25	77.35
1046.2266	3177.4417	954.2	80.9
1046.3307	3178.3926	951.95	78.2
1046.4347	3179.3428	952	76.6
1046.5387	3180.2924	948.05	74.5
1046.6427	3181.2415	953.85	78
1046.7466	3182.1899	952.55	73.9
1046.8504	3183.1377	948.4	75.25
1046.9542	3184.0848	953.25	74.6
1047.058	3185.0314	946.05	72.35
1047.1617	3185.9773	948.9	72.6
1047.2654	3186.9227	947.35	72.15
1047.369	3187.8674	945.6	69.6
1047.4726	3188.8115	953	73
1047.5761	3189.755	945	71
1047.6796	3190.6979	941.45	65.2
1047.783	3191.6402	942.25	67.45
1047.8864	3192.5818	942.45	67.8
1047.9898	3193.5229	954.5	66.55
1048.0931	3194.4633	944.35	68.5
1048.1963	3195.4031	944.1	66.55
1048.2995	3196.3423	941.45	66.45
1048.4027	3197.2809	943.45	65.85
1048.5058	3198.2189	941.15	66.7
1048.6089	3199.1563	960.5	69.35
1048.7119	3200.0931	940.6	67
1048.8148	3201.0292	939.3	65.9
1048.9178	3201.9648	941.1	66.95
1049.0206	3202.8997	940.6	61.2
1049.1235	3203.834	937.6	61.6
1049.2262	3204.7677	938.65	62.95
1049.329	3205.7008	940.9	65.5
1049.4317	3206.6333	934	62
1049.5343	3207.5652	938.55	60.85
1049.6369	3208.4964	938.1	64.25
1049.7394	3209.4271	935.1	60.1
1049.8419	3210.3571	937.85	63.75
1049.9444	3211.2865	938.2	64.15
1050.0468	3212.2154	936.6	61.6
1050.1491	3213.1436	936.95	59.45
1050.2514	3214.0712	938.45	58.4
1050.3537	3214.9982	934.9	58.6
1050.4559	3215.9246	933.4	58
1050.5581	3216.8503	933.55	59.45
1050.6602	3217.7755	934.05	60.1
1050.7623	3218.7001	935.25	61.05
1050.8643	3219.624	932.4	59.7
1050.9663	3220.5473	932.85	58.85
1051.0682	3221.4701	932.2	57.35
1051.1701	3222.3922	933.3	54.75
1051.2719	3223.3137	929.5	54.2
1051.3737	3224.2346	934.25	58.2
1051.4754	3225.1549	925.65	50.9
1051.5771	3226.0746	929.85	55.3
1051.6788	3226.9937	931.85	56.6
1051.7804	3227.9121	926.8	52.65
1051.8819	3228.83	927.95	53.9
1051.9834	3229.7473	927.8	53.35
1052.0849	3230.6639	930.9	57.45
1052.1863	3231.5799	927.9	53.75
1052.2876	3232.4954	928.45	51.2
1052.3889	3233.4102	928.65	52.5
1052.4902	3234.3244	926.65	51.3
1052.5914	3235.238	926.5	52.55
1052.6926	3236.151	948.05	48.15
1052.7937	3237.0634	928.2	55.25
1052.8948	3237.9752	924.95	51.1
1052.9958	3238.8864	925.6	48.95
1053.0968	3239.797	926.25	52.4
1053.1977	3240.7069	925.1	49.3
1053.2986	3241.6163	925.65	50.8
1053.3994	3242.5251	921.65	47.2
1053.5002	3243.4332	922.6	46.4
1053.6009	3244.3408	922.5	48.7
1053.7016	3245.2477	923.15	47.9
1053.8022	3246.154	921.9	45.55
1053.9028	3247.0598	922	45.1
1054.0034	3247.9649	921.55	48.7
1054.1039	3248.8694	919.85	43.5
1054.2043	3249.7733	922.9	48.25
1054.3047	3250.6766	921.65	48.8
1054.4051	3251.5793	921.15	45.4
1054.5054	3252.4814	919.3	44.35
1054.6056	3253.3829	917.2	42.65
1054.7058	3254.2838	920	44.2
1054.806	3255.1841	915.1	39.9
1054.9061	3256.0838	917.45	43.45
1055.0061	3256.9829	917.3	44.7
1055.1062	3257.8814	918.95	41.85
1055.2061	3258.7792	918	41
1055.306	3259.6765	917.8	42.7
1055.4059	3260.5731	915.9	42.3
1055.5057	3261.4692	914.4	40.85
1055.6055	3262.3647	912.1	36.05
1055.7052	3263.2595	914.7	38.75
1055.8049	3264.1538	910.3	34.4
1055.9045	3265.0474	912.65	37.1
1056.0041	3265.9404	912.2	38.2
1056.1036	3266.8329	909.7	35.95
1056.2031	3267.7247	919.5	34.25
1056.3025	3268.616	906.6	34.2
1056.4019	3269.5066	911.05	36.2
1056.5013	3270.3966	907.9	31.45
1056.6005	3271.286	904.95	29.25
