Software Version:	3.9.2.0
Unit SN:	10000200
Spectrometer SN:	6960
Date:	3/8/2024 1:51:44 PM
Data Line Index:	25
Spectral Points:	2048
Integration time (ms):	125
Averages:	20
Delay (ms):	30000
Sequence Number:	1
Processing:	dark subtract
Laser Power (mW):	300
Laser Current (mA):	823
Laser Diode Temp (C):	25.1
Laser Case Temp (C):	26.4
System Temp (C):	26.4
Spectrometer Temp (C):	24.2
CCD Temp (C):	0.008
Secondary Temp (C):	20.008
Heatsink Temp (C):	20.96
CCDPCB Temp (C):	35.907
SecondaryPCB Temp (C):	32.839

Wavelength	RamanShift	Raw Counts	Dark Subtracted
787.061	30.1047	470.5	61.15
787.2016	32.3739	472.95	67.7
787.3422	34.6426	480.2	73.05
787.4828	36.9109	483.7	73.65
787.6235	39.1787	493.35	81.3
787.7642	41.4461	505.65	87.9
787.9049	43.7131	513.8	92.9
788.0456	45.9796	520.65	97.65
788.1863	48.2456	532.2	104.65
788.3271	50.5112	545.45	114
788.4679	52.7764	555.55	122.55
788.6087	55.0411	568.65	128.5
788.7496	57.3054	581.95	137
788.8904	59.5692	590.35	144.45
789.0313	61.8326	598.2	150.1
789.1722	64.0955	616.85	165
789.3132	66.3579	635.55	178.9
789.4541	68.6199	656.3	193.15
789.5951	70.8815	696.85	229.15
789.7361	73.1426	788.8	317.7
789.8771	75.4032	1010	535.3
790.0181	77.6634	1548.85	1068.35
790.1592	79.9231	2837.9	2351.4
790.3003	82.1824	5691.95	5188.7
790.4414	84.4412	10836.95	10305.6
790.5825	86.6995	17963.7	17392.5
790.7237	88.9574	24950.65	24344.8
790.8648	91.2148	29763.25	29135.3
791.006	93.4717	32062.25	31422.35
791.1472	95.7282	32576.05	31929.9
791.2885	97.9842	32615.65	31960.6
791.4297	100.2398	32210.5	31558.05
791.571	102.4949	31636.3	30979.2
791.7123	104.7495	30893.5	30234.75
791.8536	107.0036	30129.45	29474.55
791.9949	109.2573	29409.1	28756.55
792.1363	111.5105	28749.05	28087.2
792.2777	113.7632	28087.55	27425.8
792.4191	116.0154	27509.75	26831.45
792.5605	118.2672	27121.3	26450.25
792.7019	120.5185	26685.5	26017
792.8434	122.7693	26385.5	25707.35
792.9849	125.0197	26088.3	25408
793.1264	127.2696	25840.65	25157.85
793.2679	129.519	25731.9	25043.55
793.4094	131.7679	25561.75	24872.75
793.551	134.0163	25463	24772.9
793.6926	136.2642	25255.85	24560.25
793.8342	138.5117	25091.1	24390.9
793.9758	140.7587	24884.75	24181.1
794.1175	143.0052	24692.65	23991.55
794.2591	145.2512	24491.05	23788.75
794.4008	147.4967	24296.65	23593.5
794.5425	149.7417	24141	23434.65
794.6842	151.9863	24042.55	23331.35
794.826	154.2304	24018.75	23301.15
794.9677	156.4739	23856.1	23134.3
795.1095	158.717	23800.3	23076.65
795.2513	160.9596	23694.45	22965.8
795.3931	163.2017	23445.25	22711.15
795.535	165.4433	23213.55	22486.3
795.6768	167.6844	22916.4	22186.4
795.8187	169.925	22654.45	21918.2
795.9606	172.1651	22232.7	21493.65
796.1025	174.4047	21978.45	21240.2
796.2445	176.6439	21740.65	21002.5
796.3864	178.8825	21552.75	20809.75
796.5284	181.1206	21442.6	20694.4
796.6704	183.3582	21289.85	20540.2
796.8124	185.5954	21225.55	20472.3
796.9544	187.832	21141.7	20382.35
797.0965	190.0681	21160.95	20402
797.2386	192.3037	21175.4	20406.35
797.3806	194.5388	21189.75	20419.45
797.5228	196.7734	21263.05	20491.25
797.6649	199.0075	21352.9	20577.5
797.807	201.2411	21546.15	20778.35
797.9492	203.4742	21617.4	20842.7
798.0914	205.7068	21821.95	21040.9
798.2336	207.9389	21939.4	21159.65
798.3758	210.1704	22129.8	21356.4
798.518	212.4015	22256.5	21499.25
798.6603	214.632	22449.85	21694.15
798.8025	216.862	22632.55	21878.8
798.9448	219.0915	22857.55	22096.25
799.0871	221.3205	23074.35	22313.1
799.2294	223.549	23331.1	22577.3
799.3718	225.777	23667.5	22907.4
799.5141	228.0044	24036.55	23270.9
799.6565	230.2314	24529.3	23764.45
799.7989	232.4578	24929.2	24160.35
799.9413	234.6837	25326.5	24551.65
800.0837	236.909	25544.15	24766.75
800.2262	239.1339	25542.85	24739.85
800.3687	241.3582	25379.85	24587.4
800.5111	243.582	25083.4	24264.3
800.6536	245.8053	24794.9	23986.2
800.7961	248.0281	24444.5	23642.75
800.9387	250.2503	24291.4	23483.55
801.0812	252.472	24187.5	23381.5
801.2238	254.6932	24165.4	23362.6
801.3664	256.9139	24087.4	23281.05
801.509	259.134	24115.2	23307.15
801.6516	261.3536	24168.75	23359.7
801.7942	263.5727	24254.35	23448.35
801.9369	265.7912	24221.5	23413.3
802.0795	268.0092	24291.2	23484.2
802.2222	270.2267	24267.6	23461.15
802.3649	272.4436	24302.2	23488.8
802.5076	274.6601	24244.3	23425.35
802.6504	276.8759	24200.15	23383.6
802.7931	279.0913	24197.7	23381.2
802.9359	281.3061	24154.2	23333.5
803.0787	283.5204	24214.6	23388.7
803.2215	285.7341	24334.85	23506
803.3643	287.9473	24519.15	23684.5
803.5071	290.16	24801.65	23969.05
803.6499	292.3721	25081.75	24256.2
803.7928	294.5837	25520.65	24695.75
803.9357	296.7947	25872.5	25047.3
804.0786	299.0052	26090.7	25266.15
804.2215	301.2152	25928.2	25098.35
804.3644	303.4246	25621.65	24800.05
804.5074	305.6334	25124.75	24300.45
804.6503	307.8418	24633.2	23808.25
804.7933	310.0495	24247.55	23419.55
804.9363	312.2568	23975.7	23146.6
805.0793	314.4635	23761.2	22929.85
805.2223	316.6696	23654.65	22815.65
805.3653	318.8752	23643.75	22798.95
805.5084	321.0802	23720.65	22882.85
805.6514	323.2847	23816.8	22977.1
805.7945	325.4887	23881.7	23044.05
805.9376	327.692	23798.15	22956
806.0807	329.8949	23759.5	22917.45
806.2238	332.0972	23504.95	22663.7
806.367	334.2989	23276.25	22425.7
806.5101	336.5001	23040.4	22195.4
806.6533	338.7007	22878.2	22029.1
806.7965	340.9008	22808.95	21957.35
806.9397	343.1003	22689.95	21837.5
807.0829	345.2992	22668.75	21815.75
807.2261	347.4976	22651.85	21797.8
807.3693	349.6955	22636.5	21778.6
807.5126	351.8927	22747.3	21892.3
807.6559	354.0895	22740.8	21869.8
807.7991	356.2856	22810.2	21948.65
807.9424	358.4812	22809.7	21955.95
808.0857	360.6763	22887.8	22024.95
808.2291	362.8707	22869.75	22004.25
808.3724	365.0646	22903.9	22036.05
808.5158	367.258	22945.25	22079.55
808.6591	369.4508	23030.75	22160.75
808.8025	371.643	23101.55	22226.65
808.9459	373.8346	23090.95	22219.75
809.0893	376.0257	23122.55	22247.5
809.2327	378.2162	22996.55	22126.55
809.3762	380.4062	22963.3	22093.35
809.5196	382.5956	22828.8	21962.55
809.6631	384.7844	22782.75	21918.65
809.8066	386.9726	22657.85	21796.4
809.9501	389.1603	22628.65	21769.5
810.0936	391.3474	22631.5	21734.7
810.2371	393.5339	22623.8	21758.55
810.3806	395.7199	22561.85	21703.25
810.5241	397.9052	22590.85	21727.75
810.6677	400.09	22646.55	21781.4
810.8113	402.2743	22750.6	21886.3
810.9548	404.4579	22835.7	21971.1
811.0984	406.641	23058.05	22187.75
811.2421	408.8235	23239.2	22372.7
811.3857	411.0054	23588.4	22716.2
811.5293	413.1868	24014.1	23138.8
811.673	415.3675	24355.3	23476.7
811.8166	417.5477	24534.85	23658.2
811.9603	419.7273	24607.3	23726.3
812.104	421.9064	24520.65	23633.15
812.2477	424.0848	24383.25	23504.2
812.3914	426.2627	24197.7	23317.35
812.5351	428.4399	23923.9	23046.5
812.6788	430.6166	23571.35	22684.95
812.8226	432.7928	23257.45	22370.1
812.9663	434.9683	22909.7	22024.85
813.1101	437.1432	22699.4	21817.85
813.2539	439.3176	22560.85	21686.8
813.3977	441.4914	22436.4	21559.3
813.5415	443.6645	22435.75	21559.6
813.6853	445.8371	22402.05	21519.25
813.8291	448.0091	22295.55	21415.85
813.973	450.1806	22306.7	21427.95
814.1168	452.3514	22230.4	21352.35
814.2607	454.5216	22293.95	21403.55
814.4046	456.6913	22187.15	21306.05
814.5485	458.8603	22250.55	21369.75
814.6924	461.0288	22353.25	21477.75
814.8363	463.1967	22333.25	21460.35
814.9802	465.3639	22559.5	21680.6
815.1241	467.5306	22594.25	21712.4
815.2681	469.6967	22721.15	21843.7
815.412	471.8622	22887.2	22010.6
815.556	474.0271	23030.75	22153.45
815.7	476.1914	23128.85	22241.85
815.844	478.3551	23110.8	22226.75
815.988	480.5182	23181.25	22303.3
816.132	482.6807	23139.9	22268.6
816.276	484.8426	23268.35	22402.3
816.4201	487.0039	23627.3	22758.5
816.5641	489.1647	24054.6	23172.85
816.7082	491.3248	24491.65	23604.15
816.8522	493.4843	24692.9	23817.25
816.9963	495.6432	24692.2	23813.45
817.1404	497.8015	24604.1	23714.65
817.2845	499.9592	24656.9	23760.3
817.4286	502.1163	24581.25	23683.7
817.5727	504.2728	24293.25	23404.7
817.7168	506.4287	24073.45	23197.2
817.861	508.5839	23637.5	22761.5
818.0051	510.7386	23397.4	22515.7
818.1493	512.8927	23272.95	22381.9
818.2935	515.0461	23149.15	22258.3
818.4377	517.199	23159.75	22264.9
818.5818	519.3512	23186.3	22293.9
818.726	521.5029	23276	22378.9
818.8703	523.6539	23342.75	22446.05
819.0145	525.8043	23421.2	22523.3
819.1587	527.9541	23441.4	22542.05
819.303	530.1033	23447.2	22550.7
819.4472	532.2519	23453.05	22558.85
819.5915	534.3999	23603.45	22706.4
819.7357	536.5472	23901.55	23010.25
819.88	538.694	24360.95	23469.05
820.0243	540.8401	24974.65	24079
820.1686	542.9856	25454.5	24549.75
820.3129	545.1305	25614.65	24705.45
820.4572	547.2748	25520.1	24605.7
820.6016	549.4185	25204.2	24288.75
820.7459	551.5615	24851.05	23940.7
820.8902	553.704	24735.75	23823.9
821.0346	555.8458	24676.4	23770.45
821.1789	557.987	24770.8	23870.55
821.3233	560.1276	24757.55	23852.05
821.4677	562.2675	24851.4	23947.95
821.6121	564.4069	24893.8	23985.5
821.7565	566.5456	24923.8	24021
821.9009	568.6837	24906.8	24005.85
822.0453	570.8212	24588.4	23689.1
822.1897	572.958	24267.1	23358.3
822.3342	575.0942	23933.75	23036.75
822.4786	577.2299	23749.95	22854.2
822.6231	579.3648	23722.2	22838
822.7675	581.4992	23765.8	22888.3
822.912	583.6329	23967.25	23093.6
823.0565	585.766	24235.15	23352.8
823.201	587.8985	24312.05	23423.1
823.3454	590.0304	24372.05	23459.3
823.4899	592.1616	24279.05	23371.05
823.6345	594.2922	24208.45	23298.9
823.779	596.4222	24081.15	23168.2
823.9235	598.5515	23912.15	23001.6
824.068	600.6802	23798.1	22885.6
824.2126	602.8083	23574.15	22669.35
824.3571	604.9358	23566.05	22656.7
824.5017	607.0626	23486	22572.05
824.6462	609.1888	23498.55	22581.1
824.7908	611.3144	23478.9	22560.1
824.9354	613.4393	23343.6	22425.7
825.08	615.5636	23318.55	22398.9
825.2246	617.6873	23252.4	22337.85
825.3692	619.8103	23212.25	22294.8
825.5138	621.9327	23116.7	22200
825.6584	624.0544	23073.95	22162
825.803	626.1756	23061.6	22150.65
825.9477	628.2961	23076.05	22162.85
826.0923	630.4159	23032.1	22115.7
826.237	632.5351	23011.85	22095.55
826.3816	634.6537	22932.55	22015.4
826.5263	636.7716	22977.7	22051.9
826.6709	638.8889	22988.65	22066.05
826.8156	641.0056	23114.05	22186.65
826.9603	643.1216	23056.7	22134
827.105	645.237	23150.15	22228.1
827.2497	647.3518	23096.65	22182.2
827.3944	649.4659	23130.5	22223.9
827.5391	651.5793	23168.6	22258.3
827.6838	653.6922	23164.2	22254.3
827.8285	655.8043	23174.25	22262.65
827.9733	657.9159	23189.85	22274.35
828.118	660.0268	23094.75	22178.6
828.2627	662.137	23081.55	22164
828.4075	664.2466	23063.55	22134.75
828.5522	666.3556	23098	22176.65
828.697	668.4639	23023.95	22108.5
828.8418	670.5716	23105.75	22194.45
828.9865	672.6786	23228.2	22308.55
829.1313	674.785	23243.7	22318.3
829.2761	676.8907	23309	22389.6
829.4209	678.9958	23404.7	22494.65
829.5657	681.1002	23394.1	22473
829.7105	683.204	23400.55	22472.9
829.8553	685.3072	23345.85	22416.35
830.0001	687.4097	23299.9	22378.1
830.1449	689.5115	23282.25	22355.7
830.2898	691.6127	23271.7	22350.05
830.4346	693.7132	23192.55	22274.15
830.5794	695.8131	23182.15	22244.15
830.7243	697.9123	23221.85	22291.85
830.8691	700.0109	23171.15	22242.45
831.014	702.1089	23189.75	22262.2
831.1588	704.2061	23190.95	22265.3
831.3037	706.3028	23276.9	22347.6
831.4486	708.3987	23337.9	22406.7
831.5935	710.4941	23444.95	22519
831.7383	712.5887	23667.65	22743.45
831.8832	714.6827	23935.65	23010
832.0281	716.7761	24252.3	23329.25
832.173	718.8688	24625.1	23701.5
832.3179	720.9608	24852.2	23917.45
832.4628	723.0522	24923.05	23981.1
832.6077	725.1429	24735.1	23804.2
832.7527	727.233	24490.55	23558.6
832.8976	729.3224	24316.85	23387.25
833.0425	731.4112	24032.15	23100.45
833.1874	733.4993	23848.75	22917.15
833.3324	735.5867	23670.3	22741
833.4773	737.6735	23614.5	22683.1
833.6222	739.7596	23540.2	22610.7
833.7672	741.845	23528.55	22599.35
833.9122	743.9298	23465.65	22533.45
834.0571	746.014	23532.7	22601.7
834.2021	748.0974	23493.45	22556.8
834.347	750.1802	23521.35	22587
834.492	752.2624	23550.3	22612.9
834.637	754.3439	23565.9	22628.95
834.782	756.4247	23650.95	22706.5
834.9269	758.5048	23763.9	22829.75
835.0719	760.5843	24016.65	23080.45
835.2169	762.6631	24254.75	23319.85
835.3619	764.7413	24761.95	23823.4
835.5069	766.8188	25351.4	24413.95
835.6519	768.8956	25812	24875.25
835.7969	770.9718	26129.65	25195.45
835.9419	773.0473	25946.3	25012.4
836.0869	775.1221	25645.35	24714.25
836.232	777.1962	25308.1	24373
836.377	779.2697	25135.5	24196.55
836.522	781.3426	25147.05	24190.6
836.667	783.4147	25399.3	24460.5
836.8121	785.4862	25700.25	24764.35
836.9571	787.557	25708.9	24770.65
837.1021	789.6271	25424.25	24485.45
837.2472	791.6966	24891.3	23949.45
837.3922	793.7654	24333.35	23396.15
837.5373	795.8335	24063.7	23127.25
837.6823	797.901	23860.6	22926.25
837.8274	799.9678	23793.3	22850.55
837.9724	802.0339	23817.25	22876.2
838.1175	804.0993	23926.15	22971.45
838.2626	806.1641	23877.65	22934.85
838.4076	808.2282	23819.35	22877.45
838.5527	810.2916	23765.6	22825.05
838.6978	812.3544	23718.3	22781.35
838.8428	814.4164	23616.3	22677.2
838.9879	816.4778	23670.1	22727.35
839.133	818.5385	23660.8	22719.65
839.2781	820.5986	23764.15	22819.5
839.4232	822.658	23885.95	22940.3
839.5682	824.7166	23992.95	23051.6
839.7133	826.7747	24303.35	23360.75
839.8584	828.832	24530.1	23589.4
840.0035	830.8886	24599.5	23653.6
840.1486	832.9446	24812.2	23867.8
840.2937	834.9999	24801	23859.1
840.4388	837.0545	24843.9	23898.75
840.5839	839.1085	24822.9	23880.3
840.729	841.1618	24760.15	23813.65
840.8741	843.2143	24707.4	23762.2
841.0192	845.2662	24615.75	23669.1
841.1643	847.3175	24586.45	23642.9
841.3095	849.368	24475.05	23529.55
841.4546	851.4179	24386.55	23442.4
841.5997	853.467	24222.1	23278.5
841.7448	855.5155	24167.55	23224.25
841.8899	857.5633	24059.7	23112.55
842.0351	859.6105	23942.15	22994.45
842.1802	861.6569	23926.1	22978.4
842.3253	863.7027	23886.8	22939.1
842.4704	865.7478	23935.5	22987.15
842.6156	867.7922	23924.4	22976.95
842.7607	869.8359	23943.85	22998.85
842.9058	871.8789	24090.2	23141.4
843.0509	873.9212	24318	23338.95
843.1961	875.9629	24434.95	23489.05
843.3412	878.0039	24583.55	23641.6
843.4863	880.0441	24738.35	23794
843.6315	882.0837	24734	23790.5
843.7766	884.1226	24683.8	23739.9
843.9218	886.1609	24604.05	23657.15
844.0669	888.1984	24540.55	23597.4
844.212	890.2352	24590.7	23642.75
844.3572	892.2714	24590.15	23643.3
844.5023	894.3069	24594.25	23645.6
844.6475	896.3416	24474.1	23526.15
844.7926	898.3757	24433	23489.25
844.9377	900.4091	24462.35	23512.85
845.0829	902.4418	24500.65	23548.2
845.228	904.4739	24497.95	23545.05
845.3732	906.5052	24506.55	23560.05
845.5183	908.5358	24382.1	23432.3
845.6635	910.5658	24302.9	23351.4
845.8086	912.595	24116.6	23166.7
845.9538	914.6236	23981.2	23034.35
846.0989	916.6515	23981.6	23031.5
846.2441	918.6786	23924.15	22973.75
846.3892	920.7051	24019.75	23069
846.5344	922.7309	24140.6	23187.65
846.6795	924.756	24176.75	23228.6
846.8246	926.7804	24322.45	23371.65
846.9698	928.8041	24239.25	23292.6
847.1149	930.8272	24281.45	23333.3
847.2601	932.8495	24175.4	23223.85
847.4052	934.8711	24131.4	23176.8
847.5504	936.892	24015.3	23067.55
847.6955	938.9123	23865.3	22914.8
847.8407	940.9318	23783.7	22834.9
847.9858	942.9506	23633.3	22679.85
848.131	944.9688	23552.6	22603.8
848.2761	946.9862	23524.25	22573.4
848.4213	949.003	23397.15	22445.1
848.5664	951.019	23397.45	22448.65
848.7115	953.0344	23445.7	22495.55
848.8567	955.0491	23483.25	22530.5
849.0018	957.063	23551.75	22602.85
849.147	959.0763	23674.85	22727.25
849.2921	961.0888	23748.75	22801.1
849.4373	963.1007	23844.6	22901.45
849.5824	965.1119	23883.15	22944
849.7275	967.1223	23924	22990.8
849.8727	969.1321	23963.15	23034
850.0178	971.1412	23974.45	23039.5
850.1629	973.1495	24003.3	23059.75
850.3081	975.1572	24091.85	23095.45
850.4532	977.1641	24110.05	23160.3
850.5983	979.1704	24103.25	23150.3
850.7435	981.1759	24109.05	23155.9
850.8886	983.1808	24158.25	23206.25
851.0337	985.1849	24216.05	23255.7
851.1788	987.1884	24358.8	23407.9
851.324	989.1911	24501.05	23550.9
851.4691	991.1932	24656.4	23706.45
851.6142	993.1945	24662.9	23718.75
851.7593	995.1951	24564.9	23616.1
851.9045	997.1951	24572.15	23617.7
852.0496	999.1943	24470.5	23518.05
852.1947	1001.1928	24423.4	23470.8
852.3398	1003.1906	24428.9	23482.55
852.4849	1005.1877	24493.45	23540.35
852.63	1007.1841	24393.95	23444.7
852.7751	1009.1798	24366.05	23417.45
852.9202	1011.1748	24178.45	23228.05
853.0653	1013.1691	23978.2	23030.5
853.2104	1015.1627	23738.2	22789.4
853.3555	1017.1556	23521.25	22577.7
853.5006	1019.1477	23427.75	22483.05
853.6457	1021.1392	23262.25	22319.9
853.7908	1023.1299	23246.05	22308.5
853.9359	1025.12	23258.95	22326.5
854.081	1027.1093	23274.85	22352.9
854.2261	1029.0979	23363.65	22444.9
854.3712	1031.0859	23416.25	22492.15
854.5163	1033.0731	23433.6	22501.4
854.6613	1035.0596	23333.45	22393.65
854.8064	1037.0454	23147.05	22204.35
854.9515	1039.0304	23076.45	22129.05
855.0965	1041.0148	22942.55	21996.9
855.2416	1042.9985	22824.55	21876.45
855.3867	1044.9814	22844	21898.5
855.5317	1046.9636	22758.1	21811.65
855.6768	1048.9452	22741.45	21801.5
855.8219	1050.926	22741.45	21794.65
855.9669	1052.9061	22733.6	21789.25
856.112	1054.8855	22750.3	21803.85
856.257	1056.8642	22760.75	21814.3
856.4021	1058.8421	22807.15	21858.05
856.5471	1060.8194	22806.95	21856.75
856.6921	1062.7959	22847	21901.1
856.8372	1064.7717	22885.55	21934.45
856.9822	1066.7469	22906.4	21962.2
857.1272	1068.7213	22912	21961.95
857.2723	1070.695	22910.95	21966
857.4173	1072.6679	22816.9	21870.95
857.5623	1074.6402	22824.45	21873.35
857.7073	1076.6117	22810.15	21855.65
857.8523	1078.5826	22836.8	21885
857.9973	1080.5527	22841.7	21891.8
858.1423	1082.5221	22882.65	21933.35
858.2873	1084.4908	23030.6	22084.65
858.4323	1086.4587	23200.95	22249.95
858.5773	1088.426	23351.7	22400.9
858.7223	1090.3925	23314.2	22366.1
858.8673	1092.3584	23257.2	22310.15
859.0123	1094.3235	23129.15	22184.05
859.1573	1096.2879	23059.35	22114
859.3022	1098.2515	23076.05	22130.75
859.4472	1100.2145	23149.45	22203.25
859.5922	1102.1767	23224.5	22278.15
859.7371	1104.1382	23381.45	22435.6
859.8821	1106.099	23557.5	22608.45
860.027	1108.0591	23746.8	22801.5
860.172	1110.0185	23888.75	22941.4
860.3169	1111.9771	23933.55	22987.25
860.4619	1113.9351	23698.2	22753.95
860.6068	1115.8923	23424.35	22477.95
860.7517	1117.8488	23126.25	22177.6
860.8967	1119.8045	22857.75	21910.9
861.0416	1121.7596	22765.9	21821.9
861.1865	1123.7139	22657.55	21715.15
861.3314	1125.6675	22678.55	21735.4
861.4763	1127.6204	22760.7	21815.45
861.6212	1129.5726	22705.65	21758.3
861.7661	1131.524	22683.85	21737.6
861.911	1133.4748	22700.7	21755.8
862.0559	1135.4248	22623.7	21674.75
862.2008	1137.3741	22608.35	21665.4
862.3457	1139.3226	22568.65	21621.9
862.4905	1141.2705	22540.85	21593.4
862.6354	1143.2176	22399.65	21448.4
862.7803	1145.164	22431.05	21483.85
862.9251	1147.1097	22397.85	21448.85
863.07	1149.0546	22411.15	21464.75
863.2148	1150.9989	22375.5	21431
863.3597	1152.9424	22244.5	21297.65
863.5045	1154.8852	22076.15	21128.6
863.6493	1156.8272	21960.65	21018.45
863.7942	1158.7686	21940.95	20987.4
863.939	1160.7092	21890.6	20941.95
864.0838	1162.6491	21868.65	20920.7
864.2286	1164.5883	21950.5	21004.25
864.3734	1166.5267	21991.45	21046.25
864.5182	1168.4644	22114.9	21170.75
864.663	1170.4014	22306.65	21359
864.8078	1172.3377	22563.15	21619.25
864.9526	1174.2732	22796.35	21854.9
865.0974	1176.2081	23061.4	22115.55
865.2421	1178.1421	23274.4	22325.05
865.3869	1180.0755	23562.2	22618.85
865.5317	1182.0082	23603.55	22659.95
865.6764	1183.9401	23637.55	22698.9
865.8212	1185.8713	23486.95	22550.95
865.9659	1187.8017	23245.7	22316.55
866.1106	1189.7315	23019.95	22098.75
866.2554	1191.6605	22671.7	21749.3
866.4001	1193.5888	22436.85	21510.75
866.5448	1195.5163	22368.25	21433.7
866.6895	1197.4432	22260.95	21322.45
866.8342	1199.3693	22170.5	21229.95
866.9789	1201.2947	22097.45	21151.05
867.1236	1203.2193	22071.8	21130.6
867.2683	1205.1432	22083.15	21141.95
867.413	1207.0664	22155.25	21212.75
867.5576	1208.9889	22125.1	21180.25
867.7023	1210.9106	22089.6	21146.2
867.847	1212.8316	22094.1	21153.8
867.9916	1214.7519	22170.3	21217.5
868.1363	1216.6715	22158	21214.9
868.2809	1218.5903	22196.15	21253.3
868.4255	1220.5084	22165	21226.65
868.5701	1222.4257	22167.65	21228.85
868.7148	1224.3424	22081.9	21141.2
868.8594	1226.2583	22145.2	21202.25
869.004	1228.1735	22211.9	21273
869.1486	1230.0879	22250.1	21309.2
869.2932	1232.0016	22358.65	21417.75
869.4377	1233.9146	22379.45	21437.9
869.5823	1235.8269	22301.5	21358.2
869.7269	1237.7384	22168.75	21227.05
869.8715	1239.6492	21988.6	21049.4
870.016	1241.5592	21906.6	20965.1
870.1606	1243.4686	21802.7	20864.25
870.3051	1245.3772	21794.25	20854.55
870.4496	1247.285	21737.7	20796.8
870.5941	1249.1922	21666.25	20730
870.7387	1251.0986	21681.3	20741.5
870.8832	1253.0042	21651.25	20713.3
871.0277	1254.9092	21692.7	20754.9
871.1722	1256.8134	21765.75	20829
871.3167	1258.7169	21941.65	21002.95
871.4611	1260.6196	22103.25	21163.35
871.6056	1262.5216	22282.7	21345.5
871.7501	1264.4229	22421.4	21485.45
871.8945	1266.3234	22592.9	21654.85
872.039	1268.2232	22660	21715.45
872.1834	1270.1223	22646.5	21706.15
872.3278	1272.0207	22621.95	21679.8
872.4723	1273.9183	22540.35	21597.05
872.6167	1275.8151	22455	21515.35
872.7611	1277.7113	22375.65	21432.65
872.9055	1279.6067	22269.25	21332.65
873.0499	1281.5014	22187.85	21247.15
873.1943	1283.3953	22186.9	21246.55
873.3386	1285.2885	22213.6	21277.7
873.483	1287.181	22266.05	21328.75
873.6274	1289.0727	22416.9	21479.4
873.7717	1290.9637	22457.7	21517.45
873.9161	1292.854	22636.15	21700.7
874.0604	1294.7435	22649.1	21711.65
874.2047	1296.6323	22830.05	21893
874.349	1298.5204	23015.35	22075.05
874.4933	1300.4077	23218.4	22282.4
874.6376	1302.2943	23364.8	22425.75
874.7819	1304.1802	23392.7	22456.9
874.9262	1306.0653	23209.2	22270.8
875.0705	1307.9497	22984.95	22047.75
875.2147	1309.8333	22797.35	21861
875.359	1311.7162	22666.6	21728
875.5032	1313.5984	22699.9	21757.8
875.6475	1315.4798	22682.75	21732.15
875.7917	1317.3605	22710.8	21754.75
875.9359	1319.2405	22788.85	21847.9
876.0801	1321.1197	22681.45	21741.05
876.2243	1322.9982	22559.35	21619.95
876.3685	1324.876	22523.55	21587.75
876.5127	1326.753	22378.9	21443.3
876.6569	1328.6293	22344.55	21402.6
876.801	1330.5048	22310.5	21367.4
876.9452	1332.3796	22240.9	21300.6
877.0893	1334.2537	22230.15	21265.2
877.2335	1336.127	22138.35	21199.1
877.3776	1337.9996	22113.5	21176.8
877.5217	1339.8714	22089.4	21150.85
877.6658	1341.7426	22021.05	21039.5
877.8099	1343.6129	21962.95	21021.95
877.954	1345.4826	21971.5	21031.25
878.0981	1347.3515	21925.9	20981.15
878.2422	1349.2196	21806	20864.5
878.3862	1351.087	21841.2	20903.15
878.5303	1352.9537	21905.35	20965.35
878.6743	1354.8197	22026.9	21087.9
878.8184	1356.6849	22190.65	21250.7
878.9624	1358.5493	22217.95	21278.35
879.1064	1360.4131	22270.4	21333.2
879.2504	1362.276	22203.85	21265.35
879.3944	1364.1383	22072.9	21138.05
879.5384	1365.9998	21817.5	20873.95
879.6823	1367.8606	21438.5	20499.45
879.8263	1369.7206	21177.9	20238.35
879.9702	1371.5799	20938.85	19996.3
880.1142	1373.4384	20752.4	19814.6
880.2581	1375.2962	20580.9	19642.95
880.402	1377.1533	20287.35	19349
880.5459	1379.0096	19924.3	18991.8
880.6898	1380.8652	19612.55	18680.8
880.8337	1382.7201	19352	18419.05
880.9776	1384.5742	19076	18140.85
881.1215	1386.4275	18909.7	17971.3
881.2653	1388.2802	18732.35	17795.9
881.4092	1390.132	18601.5	17665.7
881.553	1391.9832	18554.5	17616.35
881.6968	1393.8336	18408.35	17469.55
881.8406	1395.6832	18331.95	17392
881.9844	1397.5322	18304.65	17370.5
882.1282	1399.3803	18266.05	17325.5
882.272	1401.2278	18151.5	17216.15
882.4158	1403.0745	18155.3	17221.75
882.5595	1404.9204	18105.85	17173
882.7033	1406.7656	18085.3	17150.65
882.847	1408.6101	18079	17142.5
882.9908	1410.4538	18051.05	17114
883.1345	1412.2968	18077.35	17139.35
883.2782	1414.139	18063.8	17129.25
883.4219	1415.9805	18141.2	17204.5
883.5656	1417.8213	18201.4	17263.45
883.7092	1419.6613	18268.05	17336.5
883.8529	1421.5006	18433.8	17496
883.9965	1423.3391	18659	17723.1
884.1402	1425.1769	18927.8	17992.05
884.2838	1427.0139	19381.4	18446.6
884.4274	1428.8502	19938.65	19004.1
884.571	1430.6858	20483.5	19552.85
884.7146	1432.5206	20819.6	19887.05
884.8582	1434.3547	21062	20129.1
885.0018	1436.188	21066.9	20134.3
885.1453	1438.0206	20982.5	20044.85
885.2889	1439.8524	20796.1	19861.5
885.4324	1441.6835	20666.9	19731.9
885.5759	1443.5139	20559.5	19622.65
885.7194	1445.3435	20519.55	19588.85
885.8629	1447.1724	20407.15	19474.8
886.0064	1449.0005	20327.6	19393.9
886.1499	1450.8279	20235.45	19301.95
886.2933	1452.6545	20184.1	19252
886.4368	1454.4804	20229.7	19297.85
886.5802	1456.3056	20208.45	19269.7
886.7237	1458.13	20100	19168
886.8671	1459.9536	19897.85	18967.35
887.0105	1461.7766	19530.95	18598.05
887.1539	1463.5987	19108.5	18175.15
887.2972	1465.4202	18738.6	17807.5
887.4406	1467.2409	18350.15	17415.25
887.584	1469.0608	18072.3	17141
887.7273	1470.88	17809.8	16876.95
887.8706	1472.6984	17594.4	16662.5
888.0139	1474.5161	17311.55	16374.85
888.1572	1476.3331	17155.4	16227.95
888.3005	1478.1493	17012.55	16080.65
888.4438	1479.9648	16906.65	15972.55
888.5871	1481.7795	16772.6	15837.45
888.7303	1483.5935	16705.7	15776.1
888.8736	1485.4067	16611.7	15676.8
889.0168	1487.2192	16591.1	15657.55
889.16	1489.031	16531.7	15594.75
889.3032	1490.842	16476.85	15544.15
889.4464	1492.6522	16432.2	15500.3
889.5896	1494.4618	16365.75	15435
889.7327	1496.2705	16331.6	15401.6
889.8759	1498.0785	16306.8	15375.7
890.019	1499.8858	16278.4	15345.65
890.1622	1501.6924	16201.25	15274.95
890.3053	1503.4981	16162.65	15228.75
890.4484	1505.3032	16130.7	15197.4
890.5914	1507.1075	16061.35	15129.4
890.7345	1508.911	16023.3	15090.6
890.8776	1510.7138	15965.25	15035.1
891.0206	1512.5159	15901.85	14973.55
891.1637	1514.3172	15839.4	14908.8
891.3067	1516.1178	15763.05	14833.85
891.4497	1517.9176	15697.75	14762.55
891.5927	1519.7166	15638.15	14709.95
891.7357	1521.515	15623.1	14688.1
891.8786	1523.3126	15541.15	14610.15
892.0216	1525.1094	15509	14578.2
892.1645	1526.9055	15454.9	14526.5
892.3074	1528.7008	15428.75	14501.6
892.4503	1530.4954	15304.25	14374
892.5932	1532.2893	15270.9	14344.65
892.7361	1534.0824	15233.15	14305.1
892.879	1535.8747	15250.85	14328.15
893.0218	1537.6663	15166.8	14242.6
893.1647	1539.4572	15129.6	14202.65
893.3075	1541.2473	15153.05	14227.75
893.4503	1543.0367	15105.1	14179.45
893.5931	1544.8253	15057.8	14126.3
893.7359	1546.6132	15038.45	14108.65
893.8787	1548.4003	14993.65	14062.15
894.0214	1550.1867	15013.9	14081.9
894.1642	1551.9723	15015.9	14091.05
894.3069	1553.7572	15020.3	14098
894.4496	1555.5414	15030.2	14108.65
894.5923	1557.3247	15079.3	14159.1
894.735	1559.1074	15142.1	14224.75
894.8777	1560.8893	15167.9	14247.4
895.0204	1562.6705	15219.6	14300
895.163	1564.4509	15278.1	14360.1
895.3056	1566.2305	15330.9	14414.65
895.4482	1568.0094	15397.55	14483.95
895.5908	1569.7876	15431.7	14516.5
895.7334	1571.565	15419.1	14499.5
895.876	1573.3417	15392.65	14474.05
896.0186	1575.1176	15393.3	14476.65
896.1611	1576.8928	15303.1	14390.8
896.3036	1578.6672	15215.2	14307.7
896.4461	1580.4409	15083.55	14177
896.5886	1582.2138	14978.4	14064.7
896.7311	1583.986	14878.35	13967.65
896.8736	1585.7575	14807	13893.65
897.0161	1587.5282	14745.05	13834.2
897.1585	1589.2981	14708.5	13800.2
897.3009	1591.0673	14632.65	13725.05
897.4433	1592.8358	14649.95	13741.7
897.5857	1594.6035	14644.55	13731
897.7281	1596.3704	14633.3	13716.45
897.8705	1598.1366	14645.55	13731.3
898.0128	1599.9021	14648.6	13736.65
898.1551	1601.6668	14686.2	13772.3
898.2975	1603.4308	14737.45	13822.6
898.4398	1605.194	14851.4	13934.95
898.5821	1606.9564	14940.55	14038.3
898.7243	1608.7182	15051.85	14147.9
898.8666	1610.4791	15209.7	14312.9
899.0088	1612.2394	15325	14427.1
899.1511	1613.9988	15491.9	14593.2
899.2933	1615.7576	15715.15	14812.1
899.4355	1617.5156	15925.2	15007.4
899.5776	1619.2728	16076.45	15160.25
899.7198	1621.0293	16174.05	15264.2
899.862	1622.785	16173.95	15263.35
900.0041	1624.54	16001.3	15094.4
900.1462	1626.2942	15869.5	14960.2
900.2883	1628.0477	15578.5	14672.15
900.4304	1629.8005	15318.5	14410.75
900.5725	1631.5525	15092.8	14186.45
900.7145	1633.3037	14888.9	13985.55
900.8566	1635.0542	14727.55	13823.65
900.9986	1636.804	14613.65	13711.6
901.1406	1638.553	14600.6	13628.95
901.2826	1640.3013	14488.4	13583.6
901.4245	1642.0488	14444.3	13538.35
901.5665	1643.7955	14456.25	13553.65
901.7085	1645.5416	14526.15	13623.45
901.8504	1647.2868	14571.4	13667.05
901.9923	1649.0313	14610.75	13705.2
902.1342	1650.7751	14780.7	13872.25
902.2761	1652.5181	14915.85	14014.55
902.4179	1654.2604	15067.4	14163.15
902.5598	1656.0019	15293.55	14392.1
902.7016	1657.7427	15580.75	14679.5
902.8434	1659.4828	15861.05	14955.5
902.9852	1661.222	16008.15	15101.45
903.127	1662.9606	15977.45	15071.65
903.2687	1664.6984	15791.9	14883.45
903.4105	1666.4354	15352.25	14441.4
903.5522	1668.1717	14827.55	13918.35
903.6939	1669.9072	14317.85	13407.95
903.8356	1671.642	13888.75	12979.55
903.9773	1673.3761	13549.7	12644.75
904.119	1675.1094	13234.25	12331.65
904.2606	1676.8419	12992.25	12088.35
904.4022	1678.5737	12778.15	11871.8
904.5439	1680.3048	12634.35	11723.4
904.6855	1682.0351	12491.85	11585.1
904.827	1683.7646	12402.4	11492.65
904.9686	1685.4934	12290.25	11386.25
905.1101	1687.2215	12195.4	11291.55
905.2517	1688.9488	12136.4	11235.5
905.3932	1690.6754	12058.45	11155.15
905.5347	1692.4012	12028.15	11123.7
905.6761	1694.1263	11943.7	11038.2
905.8176	1695.8506	11888.55	10984.6
905.9591	1697.5742	11854.8	10951.15
906.1005	1699.297	11797.6	10896.95
906.2419	1701.0191	11688.7	10788.3
906.3833	1702.7404	11659.7	10758.9
906.5246	1704.461	11586.75	10684.75
906.666	1706.1808	11551.1	10648.85
906.8073	1707.8999	11504.7	10604.5
906.9487	1709.6182	11463.35	10565.6
907.09	1711.3358	11436.1	10543.15
907.2313	1713.0527	11378.95	10484.8
907.3725	1714.7688	11339.25	10439.4
907.5138	1716.4841	11283	10380.85
907.655	1718.1987	11251.35	10346.85
907.7962	1719.9126	11179.8	10283.1
907.9374	1721.6257	11154.6	10258.15
908.0786	1723.338	11121	10226.2
908.2198	1725.0496	11062.2	10164.2
908.3609	1726.7605	11046.25	10148.9
908.502	1728.4706	11034.15	10136.5
908.6431	1730.18	10947.05	10048.6
908.7842	1731.8886	10904.4	10008.1
908.9253	1733.5964	10918.4	10001.6
909.0664	1735.3036	10886.25	9986
909.2074	1737.0099	10849	9954.9
909.3484	1738.7156	10820.7	9928.45
909.4894	1740.4204	10762.05	9865.15
909.6304	1742.1246	10727.2	9830.4
909.7714	1743.8279	10721	9826.1
909.9123	1745.5306	10693.55	9800.15
910.0532	1747.2325	10637.05	9743.8
910.1941	1748.9336	10587.3	9692
910.335	1750.634	10560.55	9662.35
910.4759	1752.3336	10530.95	9635.45
910.6168	1754.0325	10505.2	9612.7
910.7576	1755.7307	10462.75	9569.65
910.8984	1757.4281	10480.2	9586
911.0392	1759.1247	10452.65	9545.95
911.18	1760.8206	10443.2	9536.45
911.3208	1762.5158	10419.1	9515.55
911.4615	1764.2102	10362.1	9466.05
911.6022	1765.9039	10323.35	9427.7
911.7429	1767.5968	10299.85	9408.3
911.8836	1769.289	10272.65	9380
912.0243	1770.9804	10252.55	9355.15
912.1649	1772.6711	10234.4	9336.55
912.3056	1774.361	10194.3	9294.45
912.4462	1776.0502	10161.7	9262.4
912.5868	1777.7386	10137.85	9239.25
912.7274	1779.4263	10107.3	9209.15
912.8679	1781.1132	10112.5	9218.45
913.0084	1782.7994	10063.15	9170.2
913.149	1784.4849	10040.35	9148.85
913.2895	1786.1696	10012.75	9114.25
913.4299	1787.8535	9998.2	9108.85
913.5704	1789.5367	9944.85	9057.05
913.7108	1791.2192	9930.5	9039.25
913.8513	1792.9009	9920.9	9001.45
913.9917	1794.5818	9880.65	8982.95
914.132	1796.2621	9848.05	8954.25
914.2724	1797.9415	9853.15	8955.75
914.4128	1799.6202	9831.45	8933.4
914.5531	1801.2982	9825.6	8929.85
914.6934	1802.9755	9774.9	8878.5
914.8337	1804.6519	9760.25	8864.6
914.9739	1806.3277	9704.75	8810.8
915.1142	1808.0027	9655.7	8766.45
915.2544	1809.6769	9627.2	8738.5
915.3946	1811.3504	9625	8734.65
915.5348	1813.0231	9610.2	8717.7
915.675	1814.6951	9577.75	8687.7
915.8151	1816.3664	9591.85	8696.75
915.9553	1818.0369	9552.85	8659.5
916.0954	1819.7067	9545.45	8652.9
916.2355	1821.3757	9525.8	8628.5
916.3755	1823.044	9487.65	8593.2
916.5156	1824.7115	9492.4	8594.7
916.6556	1826.3783	9447.4	8553.1
916.7956	1828.0443	9412.1	8520.15
916.9356	1829.7096	9402.7	8505.1
917.0756	1831.3741	9370.7	8474.65
917.2155	1833.0379	9353.25	8461.9
917.3555	1834.701	9331.8	8441.45
917.4954	1836.3633	9334.35	8442.9
917.6353	1838.0248	9284.4	8393.45
917.7751	1839.6856	9243.45	8352.45
917.915	1841.3457	9253.4	8359.85
918.0548	1843.005	9240.2	8345.9
918.1946	1844.6636	9202.5	8308.1
918.3344	1846.3214	9169.8	8275.1
918.4742	1847.9785	9184.6	8293.2
918.6139	1849.6349	9152.65	8255.95
918.7537	1851.2904	9159.2	8254.85
918.8934	1852.9453	9104.25	8208.3
919.0331	1854.5994	9073.2	8178.2
919.1727	1856.2528	9084.55	8185.25
919.3124	1857.9054	9052	8160.95
919.452	1859.5572	9047.35	8155.2
919.5916	1861.2083	9017.35	8123.75
919.7312	1862.8587	9013.35	8119
919.8708	1864.5084	9009.85	8112.8
920.0103	1866.1572	8985.3	8086.9
920.1498	1867.8054	8921.9	8024.15
920.2893	1869.4528	8895	7999.55
920.4288	1871.0994	8886.75	7992.85
920.5683	1872.7453	8878.65	7983.3
920.7077	1874.3905	8874.65	7962.75
920.8471	1876.0349	8815.55	7919.45
920.9865	1877.6786	8821.4	7925.55
921.1259	1879.3215	8787.45	7894.7
921.2653	1880.9637	8782.85	7888
921.4046	1882.6051	8757.7	7864.35
921.5439	1884.2458	8741.7	7847.7
921.6832	1885.8858	8692.6	7800.55
921.8225	1887.525	8708.95	7814.1
921.9617	1889.1634	8653.5	7760.35
922.101	1890.8011	8645.6	7750.5
922.2402	1892.4381	8607.95	7713.25
922.3794	1894.0743	8597.25	7702.65
922.5185	1895.7098	8572.7	7678.95
922.6577	1897.3446	8555.1	7658.2
922.7968	1898.9786	8536.4	7638.05
922.9359	1900.6118	8495.35	7602.45
923.075	1902.2443	8492.05	7599
923.214	1903.8761	8465.1	7571.1
923.3531	1905.5071	8416.85	7521.6
923.4921	1907.1374	8392.6	7500.75
923.6311	1908.7669	8370.45	7476.9
923.77	1910.3957	8360.3	7467.45
923.909	1912.0237	8320.35	7425.2
924.0479	1913.651	8299.35	7407.75
924.1868	1915.2776	8280.3	7388.75
924.3257	1916.9034	8234.35	7342.65
924.4646	1918.5285	8194.95	7304.85
924.6034	1920.1528	8188.1	7296.3
924.7422	1921.7764	8173.35	7280.65
924.881	1923.3992	8123.65	7234.6
925.0198	1925.0213	8085.6	7194.45
925.1586	1926.6427	8053.5	7161.75
925.2973	1928.2633	8120.15	7140.1
925.436	1929.8832	8041.3	7147.35
925.5747	1931.5023	7992.5	7099.65
925.7134	1933.1207	7972.15	7077.3
925.852	1934.7383	7946.6	7053.4
925.9906	1936.3552	7925.4	7034.65
926.1292	1937.9714	7912.3	7019.95
926.2678	1939.5868	7871.05	6977.5
926.4064	1941.2015	7851.45	6956.8
926.5449	1942.8154	7810.15	6918.75
926.6834	1944.4286	7787.55	6893.35
926.8219	1946.041	7766.15	6849.4
926.9604	1947.6528	7700.85	6801.7
927.0988	1949.2637	7712.3	6820.25
927.2372	1950.8739	7684.6	6792
927.3756	1952.4834	7661.05	6771.5
927.514	1954.0921	7658.6	6766.7
927.6523	1955.7001	7610.15	6716.75
927.7907	1957.3074	7597.5	6708.3
927.929	1958.9139	7586.7	6698.35
928.0673	1960.5197	7551.05	6660.1
928.2055	1962.1247	7513.25	6623.45
928.3438	1963.729	7458.85	6572.65
928.482	1965.3325	7437.7	6544.1
928.6202	1966.9353	7424.95	6537.7
928.7584	1968.5374	7423.7	6535.3
928.8965	1970.1387	7381.6	6492.4
929.0346	1971.7393	7359.65	6470.55
929.1727	1973.3392	7319.1	6430.05
929.3108	1974.9383	7326.4	6438.9
929.4489	1976.5366	7292	6403.2
929.5869	1978.1342	7280.35	6394.4
929.7249	1979.7311	7251.25	6362
929.8629	1981.3273	7229.1	6342.8
930.0009	1982.9227	7218.35	6330.55
930.1388	1984.5173	7187.1	6302.9
930.2767	1986.1112	7148.05	6260.9
930.4146	1987.7044	7132.75	6246.15
930.5525	1989.2968	7109.7	6223.45
930.6904	1990.8885	7100.65	6213.1
930.8282	1992.4795	7082.25	6197.75
930.966	1994.0697	7052.25	6167.75
931.1038	1995.6592	7039.75	6153.7
931.2415	1997.2479	7014.05	6129.2
931.3793	1998.8359	6997.55	6113.65
931.517	2000.4232	6977.6	6096.7
931.6547	2002.0097	6960.05	6080.6
931.7923	2003.5955	6910.35	6028.8
931.93	2005.1805	6911.2	6028
932.0676	2006.7648	6904.25	6020.6
932.2052	2008.3484	6861.9	5977.2
932.3427	2009.9312	6875.45	5995.45
932.4803	2011.5133	6840.15	5960.35
932.6178	2013.0946	6827.7	5948.25
932.7553	2014.6752	6811.3	5930.25
932.8928	2016.2551	6798.55	5915.5
933.0302	2017.8342	6758.85	5874.5
933.1676	2019.4126	6740.55	5860.9
933.305	2020.9902	6720.5	5843.7
933.4424	2022.5672	6707.3	5827.55
933.5798	2024.1433	6703.95	5819.85
933.7171	2025.7188	6672.8	5793.8
933.8544	2027.2935	6644.95	5763.85
933.9917	2028.8674	6633.15	5754.6
934.129	2030.4406	6609.25	5731.95
934.2662	2032.0131	6589.45	5712
934.4034	2033.5849	6581.8	5703.15
934.5406	2035.1559	6548.7	5670
934.6778	2036.7261	6532.2	5650.4
934.8149	2038.2957	6540.85	5657.95
934.952	2039.8645	6523.8	5640.9
935.0891	2041.4325	6502.3	5614.5
935.2262	2042.9998	6492.3	5610.6
935.3632	2044.5664	6482.3	5602.75
935.5002	2046.1323	6458.8	5580.85
935.6372	2047.6974	6424.65	5545.4
935.7742	2049.2617	6409.35	5531
935.9111	2050.8254	6419.05	5517.05
936.048	2052.3883	6392	5508.8
936.1849	2053.9504	6391.25	5506.75
936.3218	2055.5118	6353	5467.75
936.4586	2057.0725	6325.8	5439.9
936.5955	2058.6325	6315.25	5434.05
936.7323	2060.1917	6298.1	5417.85
936.869	2061.7502	6273.3	5390.85
937.0058	2063.3079	6282.1	5402.6
937.1425	2064.8649	6233.8	5350.05
937.2792	2066.4212	6220.3	5338.15
937.4159	2067.9767	6216.8	5334.4
937.5525	2069.5315	6193.15	5311.35
937.6891	2071.0856	6142.05	5260
937.8257	2072.6389	6129.8	5250.55
937.9623	2074.1915	6112.05	5234.65
938.0989	2075.7433	6088.9	5205.95
938.2354	2077.2945	6085.45	5206.75
938.3719	2078.8448	6065.4	5182.9
938.5084	2080.3945	6035.75	5154.2
938.6448	2081.9434	6040.5	5155.95
938.7812	2083.4916	6022.05	5135.8
938.9176	2085.039	5987.85	5098.05
939.054	2086.5857	5987.15	5096.9
939.1903	2088.1317	5985.9	5096.8
939.3267	2089.677	5954.5	5063.1
939.463	2091.2215	5947.7	5056.55
939.5992	2092.7652	5926.4	5034.4
939.7355	2094.3083	5921.2	5030.9
939.8717	2095.8506	5890.45	5004.35
940.0079	2097.3921	5896.1	5011.2
940.1441	2098.933	5877.1	4991.1
940.2802	2100.4731	5862.65	4977.35
940.4163	2102.0124	5856.3	4963.45
940.5524	2103.5511	5851	4961.05
940.6885	2105.089	5816.6	4928.15
940.8245	2106.6261	5812.25	4926.55
940.9606	2108.1626	5809.4	4922.9
941.0965	2109.6983	5797.7	4884.45
941.2325	2111.2332	5761.85	4874.6
941.3684	2112.7675	5759.75	4870.3
941.5044	2114.301	5740.6	4854.15
941.6403	2115.8337	5740.3	4851.65
941.7761	2117.3657	5724.1	4836.65
941.912	2118.897	5716.95	4828.5
942.0478	2120.4276	5697.35	4803.25
942.1835	2121.9575	5673.2	4784.3
942.3193	2123.4866	5673.1	4770.25
942.455	2125.0149	5659.15	4769.3
942.5907	2126.5426	5600.25	4716.45
942.7264	2128.0695	5601.9	4715.95
942.8621	2129.5956	5585.35	4705.9
942.9977	2131.1211	5582.45	4695.1
943.1333	2132.6458	5599.35	4714.3
943.2689	2134.1698	5564.8	4677.1
943.4044	2135.693	5542.35	4651.05
943.54	2137.2155	5549.6	4658
943.6755	2138.7373	5516.75	4630.1
943.8109	2140.2584	5516.5	4634.45
943.9464	2141.7787	5488.8	4600.7
944.0818	2143.2983	5458.6	4581.05
944.2172	2144.8171	5438.65	4558.45
944.3526	2146.3353	5426.05	4542.1
944.4879	2147.8527	5404.35	4522.2
944.6232	2149.3693	5412.3	4524.9
944.7585	2150.8853	5402.8	4513.25
944.8938	2152.4005	5365.6	4476.85
945.029	2153.9149	5380.2	4488.8
945.1642	2155.4287	5354.45	4466.85
945.2994	2156.9417	5348.05	4458.65
945.4346	2158.454	5328.25	4441.05
945.5697	2159.9655	5322.95	4438.4
945.7048	2161.4764	5313.05	4430.85
945.8399	2162.9865	5295.4	4412.45
945.9749	2164.4958	5283.3	4401.3
946.1099	2166.0045	5264.55	4377.2
946.2449	2167.5124	5251.5	4365.05
946.3799	2169.0195	5257.65	4371.95
946.5148	2170.526	5230.1	4340.6
946.6498	2172.0317	5214.3	4328.2
946.7846	2173.5367	5210.3	4324.15
946.9195	2175.0409	5200.65	4316.45
947.0543	2176.5445	5206.55	4318.25
947.1891	2178.0473	5166.95	4276.65
947.3239	2179.5494	5154.05	4262.2
947.4587	2181.0507	5123.7	4238.05
947.5934	2182.5513	5125.55	4239.75
947.7281	2184.0512	5115.9	4228.65
947.8628	2185.5504	5093	4205.95
947.9974	2187.0488	5077.7	4194.6
948.132	2188.5465	5043.4	4159.5
948.2666	2190.0435	5040.6	4155.95
948.4012	2191.5397	5020.8	4133.95
948.5357	2193.0353	5029.55	4142.5
948.6702	2194.5301	4996	4105.4
948.8047	2196.0241	4982.4	4092.8
948.9392	2197.5175	4979.35	4086.45
949.0736	2199.0101	4973.1	4076.2
949.208	2200.502	4932.9	4045.85
949.3424	2201.9931	4917.9	4033.5
949.4767	2203.4835	4912.4	4027.05
949.611	2204.9733	4884.65	3993.35
949.7453	2206.4622	4900.8	4019.2
949.8796	2207.9505	4855.95	3971.15
950.0138	2209.438	4863.4	3983.65
950.148	2210.9248	4837.15	3950.9
950.2822	2212.4109	4814.55	3928.5
950.4164	2213.8962	4807.5	3917
950.5505	2215.3809	4793.65	3900
950.6846	2216.8648	4784.8	3891.95
950.8186	2218.3479	4807.8	3911.95
950.9527	2219.8304	4768.35	3873.9
951.0867	2221.3121	4746.9	3850.95
951.2207	2222.7931	4730.25	3839.45
951.3546	2224.2733	4705.2	3816.2
951.4886	2225.7529	4695.6	3807.15
951.6225	2227.2317	4692.1	3804.65
951.7563	2228.7098	4681.8	3798.1
951.8902	2230.1872	4664.35	3779.25
952.024	2231.6638	4669.1	3785.9
952.1578	2233.1397	4653.1	3765
952.2916	2234.6149	4632.6	3749.1
952.4253	2236.0894	4609.1	3723.1
952.559	2237.5632	4620.5	3724.25
952.6927	2239.0362	4586.1	3699.5
952.8263	2240.5085	4578.15	3693.2
952.9599	2241.9801	4566.25	3678.35
953.0935	2243.4509	4550.55	3660.5
953.2271	2244.921	4526.45	3637.6
953.3606	2246.3904	4508.4	3615.55
953.4941	2247.8591	4508.65	3618.85
953.6276	2249.3271	4510.4	3623.55
953.7611	2250.7943	4503.7	3612.5
953.8945	2252.2608	4471.75	3582.15
954.0279	2253.7266	4456.6	3567.8
954.1612	2255.1917	4441.6	3554.55
954.2946	2256.656	4427.25	3540.1
954.4279	2258.1197	4424	3540.2
954.5612	2259.5826	4416.7	3529.2
954.6944	2261.0447	4411.75	3524.05
954.8276	2262.5062	4393.55	3501.25
954.9608	2263.9669	4398.55	3507.7
955.094	2265.4269	4376.95	3487.4
955.2271	2266.8862	4366.8	3479.6
955.3602	2268.3448	4359.7	3474.7
955.4933	2269.8026	4351.65	3465.4
955.6264	2271.2598	4335.5	3451.75
955.7594	2272.7162	4317.1	3431.7
955.8924	2274.1719	4310.65	3422.35
956.0253	2275.6268	4314.35	3425.55
956.1583	2277.0811	4287.95	3396.75
956.2912	2278.5346	4279.1	3392.25
956.4241	2279.9874	4267.45	3383.6
956.5569	2281.4395	4265.25	3379.95
956.6897	2282.8908	4253.85	3362.5
956.8225	2284.3414	4247.6	3359.55
956.9553	2285.7914	4235.4	3346.75
957.088	2287.2406	4227.65	3335.45
957.2207	2288.689	4225.75	3335.8
957.3534	2290.1368	4207.95	3314.45
957.486	2291.5838	4202.7	3307.4
957.6186	2293.0302	4196.9	3301.95
957.7512	2294.4758	4177.05	3284.85
957.8838	2295.9206	4174.25	3284.75
958.0163	2297.3648	4155.5	3267.7
958.1488	2298.8082	4143.1	3256.15
958.2813	2300.251	4139.6	3247.75
958.4137	2301.693	4130.35	3235.6
958.5461	2303.1343	4131.95	3240.25
958.6785	2304.5748	4121.1	3232.55
958.8108	2306.0147	4098.45	3214.85
958.9432	2307.4538	4083	3196
959.0754	2308.8922	4071.1	3190
959.2077	2310.3299	4056.1	3169.4
959.3399	2311.7669	4045.35	3160.8
959.4721	2313.2031	4043.2	3155.4
959.6043	2314.6387	4015.55	3125.55
959.7365	2316.0735	4008.6	3120.35
959.8686	2317.5076	4010	3122
960.0006	2318.941	3994.8	3105.15
960.1327	2320.3737	3993.15	3101.8
960.2647	2321.8056	3988.05	3094.4
960.3967	2323.2369	3952.1	3062.9
960.5287	2324.6674	3964.6	3073.8
960.6606	2326.0972	3957.2	3066.5
960.7925	2327.5263	3949.85	3062.45
960.9244	2328.9547	3918.85	3028.25
961.0562	2330.3823	3917.5	3027.05
961.1881	2331.8092	3921	3026.9
961.3198	2333.2355	3892.05	3000.3
961.4516	2334.661	3889.15	3000.3
961.5833	2336.0858	3891.15	3001.7
961.715	2337.5098	3868.9	2978.95
961.8467	2338.9332	3864.95	2976.1
961.9783	2340.3558	3868.1	2975.9
962.1099	2341.7778	3847.25	2962.05
962.2415	2343.199	3828.85	2941.3
962.373	2344.6195	3832.2	2944.65
962.5045	2346.0393	3817.3	2930.6
962.636	2347.4583	3810.9	2923.55
962.7675	2348.8767	3807.25	2916.5
962.8989	2350.2943	3804.35	2911.1
963.0303	2351.7113	3815.3	2922.9
963.1617	2353.1275	3783.35	2890.65
963.293	2354.543	3781.2	2880.65
963.4243	2355.9578	3763.85	2874.1
963.5556	2357.3718	3736.85	2852.8
963.6868	2358.7852	3728.6	2838.7
963.818	2360.1978	3732.55	2846.35
963.9492	2361.6098	3731.55	2846.15
964.0803	2363.021	3706.15	2815.4
964.2114	2364.4315	3696.55	2808.5
964.3425	2365.8413	3698.25	2808.25
964.4736	2367.2504	3685.6	2799.05
964.6046	2368.6587	3673.6	2788.9
964.7356	2370.0664	3650	2765
964.8666	2371.4733	3655.95	2770.4
964.9975	2372.8795	3624.55	2738.5
965.1284	2374.285	3615.25	2729.8
965.2593	2375.6899	3608.95	2724.75
965.3901	2377.0939	3589.2	2705.4
965.5209	2378.4973	3584.55	2700.25
965.6517	2379.9	3575.95	2691.25
965.7825	2381.3019	3556.65	2672.2
965.9132	2382.7032	3558.3	2675.15
966.0439	2384.1037	3543.3	2663.15
966.1745	2385.5035	3551.2	2667.6
966.3051	2386.9027	3531.95	2651
966.4357	2388.3011	3541.8	2652.7
966.5663	2389.6987	3519.1	2638.05
966.6968	2391.0957	3504.8	2621.85
966.8273	2392.492	3489.4	2608.35
966.9578	2393.8876	3461.4	2578.25
967.0882	2395.2824	3462.15	2579.45
967.2186	2396.6765	3452.35	2569.85
967.349	2398.07	3443.1	2558.75
967.4793	2399.4627	3446.8	2560.3
967.6097	2400.8547	3427.55	2543.7
967.7399	2402.246	3426.65	2537
967.8702	2403.6366	3410.2	2526.6
968.0004	2405.0265	3401.2	2518.9
968.1306	2406.4156	3400	2512.15
968.2607	2407.8041	3385.05	2498.35
968.3909	2409.1918	3381.6	2495.65
968.521	2410.5789	3373.8	2490.85
968.651	2411.9652	3347.9	2461.85
968.781	2413.3508	3349.2	2465.3
968.911	2414.7358	3333.05	2447.65
969.041	2416.12	3334.6	2450.75
969.1709	2417.5035	3308.45	2425.15
969.3008	2418.8863	3314.45	2429.55
969.4307	2420.2684	3295.1	2409.25
969.5606	2421.6497	3290.6	2404.75
969.6904	2423.0304	3279.45	2394.9
969.8201	2424.4104	3267.15	2381.95
969.9499	2425.7896	3281.45	2395.95
970.0796	2427.1682	3263.85	2379.7
970.2093	2428.546	3260.6	2375.65
970.3389	2429.9232	3242.8	2355.5
970.4685	2431.2996	3238.75	2353.05
970.5981	2432.6753	3236.55	2352.8
970.7277	2434.0503	3217.7	2332.2
970.8572	2435.4246	3208.45	2322.7
970.9867	2436.7982	3203.85	2315.75
971.1161	2438.1711	3204.75	2320.55
971.2456	2439.5433	3198.75	2310.65
971.375	2440.9148	3184.75	2295.05
971.5043	2442.2856	3169.2	2284.6
971.6336	2443.6557	3166.35	2280.3
971.7629	2445.025	3166.1	2282.9
971.8922	2446.3937	3162.95	2279.4
972.0214	2447.7617	3141.35	2257.3
972.1506	2449.1289	3129.75	2245.65
972.2798	2450.4955	3135.5	2245.65
972.4089	2451.8613	3126.35	2243.85
972.538	2453.2265	3131.95	2247.75
972.6671	2454.5909	3116.9	2232.2
972.7961	2455.9546	3114.65	2230.45
972.9251	2457.3177	3089.6	2207.55
973.0541	2458.68	3090.05	2205.5
973.1831	2460.0416	3087.6	2202.45
973.312	2461.4025	3082.05	2196.6
973.4408	2462.7627	3071.75	2176.75
973.5697	2464.1222	3059.65	2177.65
973.6985	2465.4811	3056.05	2172.05
973.8273	2466.8392	3048.4	2164.35
973.956	2468.1966	3058.75	2172.7
974.0847	2469.5533	3042.55	2156.45
974.2134	2470.9093	3043.85	2159.1
974.3421	2472.2645	3023.3	2137.1
974.4707	2473.6191	3022.3	2137.1
974.5993	2474.973	3016.25	2129.85
974.7278	2476.3262	3010.7	2124.9
974.8563	2477.6787	2993.75	2109.9
974.9848	2479.0305	2995.55	2112.1
975.1132	2480.3816	2982.5	2095
975.2417	2481.7319	2973.25	2089.65
975.37	2483.0816	2965.8	2079.65
975.4984	2484.4306	2947.6	2062.8
975.6267	2485.7789	2943.3	2057.65
975.755	2487.1264	2934.75	2050.35
975.8833	2488.4733	2934.45	2052.45
976.0115	2489.8195	2935.05	2042.55
976.1397	2491.165	2919.25	2031.2
976.2678	2492.5097	2918.45	2032.2
976.3959	2493.8538	2901.3	2016.6
976.524	2495.1972	2891.8	2007.85
976.6521	2496.5398	2890.4	2002.8
976.7801	2497.8818	2876.5	1990.2
976.9081	2499.2231	2862.4	1974.3
977.036	2500.5637	2866.55	1979.3
977.164	2501.9035	2851.2	1965.4
977.2918	2503.2427	2855.65	1966.4
977.4197	2504.5812	2843.5	1957.6
977.5475	2505.919	2843.85	1954.7
977.6753	2507.256	2829.5	1944.55
977.8031	2508.5924	2825.1	1940.05
977.9308	2509.9281	2816.8	1924.45
978.0585	2511.2631	2814.25	1928.15
978.1861	2512.5974	2811.4	1927.8
978.3137	2513.9309	2799.5	1912.9
978.4413	2515.2638	2818.4	1906.05
978.5689	2516.596	2792.4	1907
978.6964	2517.9275	2778.35	1892.55
978.8239	2519.2583	2780.25	1893.2
978.9513	2520.5884	2769.4	1883.45
979.0788	2521.9178	2764	1879.15
979.2062	2523.2465	2753.75	1868.9
979.3335	2524.5745	2752	1867.6
979.4608	2525.9018	2741.95	1857.2
979.5881	2527.2284	2738.2	1853.3
979.7154	2528.5543	2727.6	1844.6
979.8426	2529.8796	2719.6	1833.5
979.9698	2531.2041	2716.1	1830.95
980.0969	2532.5279	2712	1828.85
980.224	2533.851	2709.85	1823.1
980.3511	2535.1735	2699.65	1815.6
980.4781	2536.4952	2692.05	1806.5
980.6052	2537.8163	2702.5	1815.9
980.7321	2539.1366	2690.3	1802.35
980.8591	2540.4562	2695.4	1807.1
980.986	2541.7752	2689.9	1803.65
981.1129	2543.0935	2680	1794.1
981.2397	2544.411	2670.45	1782.3
981.3665	2545.7279	2658.8	1774.35
981.4933	2547.0441	2669.1	1783.15
981.62	2548.3596	2663.25	1773.65
981.7467	2549.6744	2662.5	1777.45
981.8734	2550.9885	2650.95	1757.5
982.0001	2552.3019	2643.6	1754.9
982.1267	2553.6146	2632.7	1746
982.2532	2554.9266	2624.2	1736.15
982.3798	2556.2379	2618.15	1732.05
982.5063	2557.5485	2624.75	1739.65
982.6327	2558.8585	2617.6	1727.15
982.7592	2560.1677	2618.4	1728.85
982.8856	2561.4762	2606.75	1721.7
983.0119	2562.7841	2600.35	1710.25
983.1383	2564.0913	2596.85	1711.85
983.2646	2565.3977	2598.15	1712.2
983.3908	2566.7035	2588.3	1702.8
983.517	2568.0086	2578.45	1688.7
983.6432	2569.313	2580.3	1691.4
983.7694	2570.6167	2583.4	1690.95
983.8955	2571.9197	2575.45	1690.3
984.0216	2573.222	2572.35	1683.35
984.1476	2574.5236	2565.85	1680.05
984.2737	2575.8246	2563.05	1674.35
984.3996	2577.1248	2569.55	1679.6
984.5256	2578.4244	2556.9	1671.15
984.6515	2579.7232	2548.95	1662.35
984.7774	2581.0214	2575.3	1657.5
984.9032	2582.3189	2546.05	1660.1
985.029	2583.6157	2541.95	1651.2
985.1548	2584.9118	2549.25	1661.45
985.2806	2586.2072	2539.45	1653.6
985.4063	2587.5019	2528.85	1643.5
985.5319	2588.7959	2530.65	1644.5
985.6576	2590.0893	2526.8	1638.55
985.7832	2591.3819	2525.25	1638.3
985.9087	2592.6739	2514.1	1628.35
986.0343	2593.9652	2506.35	1618.65
986.1597	2595.2557	2514.6	1628.2
986.2852	2596.5456	2508.75	1621.45
986.4106	2597.8348	2501.05	1615.3
986.536	2599.1234	2504.6	1620.3
986.6614	2600.4112	2493.8	1605.5
986.7867	2601.6983	2487.8	1597.5
986.912	2602.9848	2481.4	1594.85
987.0372	2604.2705	2485.25	1591.5
987.1624	2605.5556	2477.85	1593.1
987.2876	2606.84	2471.1	1583.4
987.4128	2608.1237	2468.9	1582
987.5379	2609.4067	2469.15	1583.15
987.6629	2610.689	2467	1573.55
987.788	2611.9707	2448.75	1559.95
987.913	2613.2516	2437.55	1546.9
988.0379	2614.5319	2432.95	1548.3
988.1629	2615.8115	2434	1547.7
988.2878	2617.0903	2423.6	1537
988.4126	2618.3685	2426.05	1539.75
988.5375	2619.6461	2411.75	1526.25
988.6622	2620.9229	2403.6	1517.2
988.787	2622.199	2400.1	1515.7
988.9117	2623.4745	2398.2	1511.3
989.0364	2624.7493	2395.25	1510.8
989.161	2626.0234	2392.95	1507.7
989.2857	2627.2968	2383.3	1496.1
989.4102	2628.5695	2377.15	1491.5
989.5348	2629.8415	2368.95	1485.35
989.6593	2631.1128	2366.75	1481.45
989.7837	2632.3835	2362.8	1476.7
989.9082	2633.6535	2362.9	1478.4
990.0326	2634.9228	2362.9	1477.35
990.1569	2636.1914	2355.3	1469.55
990.2812	2637.4593	2345.05	1458.35
990.4055	2638.7265	2339.7	1452.8
990.5298	2639.9931	2338.5	1453.8
990.654	2641.259	2342.85	1456.6
990.7782	2642.5242	2333	1446.55
990.9023	2643.7887	2324.25	1439.2
991.0264	2645.0525	2321.85	1437.95
991.1505	2646.3156	2317.25	1430.65
991.2745	2647.5781	2308.7	1424.25
991.3985	2648.8398	2296.7	1411.9
991.5225	2650.1009	2301.4	1407.5
991.6464	2651.3613	2301.05	1416.65
991.7703	2652.6211	2291.15	1406
991.8942	2653.8801	2282.8	1399.3
992.018	2655.1385	2292.1	1403.95
992.1418	2656.3961	2282.95	1396.25
992.2655	2657.6531	2279.2	1392.6
992.3892	2658.9094	2276.65	1389
992.5129	2660.1651	2270.75	1387.95
992.6366	2661.42	2280.05	1395.45
992.7602	2662.6743	2273.5	1388.8
992.8837	2663.9279	2261.7	1376.85
993.0073	2665.1808	2261.25	1375.35
993.1307	2666.433	2263.2	1378.15
993.2542	2667.6846	2255.8	1371.05
993.3776	2668.9354	2255.4	1365.5
993.501	2670.1856	2253.05	1366.95
993.6244	2671.4351	2262.9	1377.6
993.7477	2672.6839	2258.25	1374.55
993.8709	2673.9321	2243.15	1358.25
993.9942	2675.1795	2251.55	1366.65
994.1174	2676.4263	2252.95	1368
994.2405	2677.6724	2254.6	1369.3
994.3637	2678.9179	2256.55	1372.3
994.4868	2680.1626	2257.1	1373.15
994.6098	2681.4067	2249.2	1363.5
994.7328	2682.6501	2239.9	1355.3
994.8558	2683.8928	2224.25	1338.1
994.9788	2685.1348	2232.05	1348.65
995.1017	2686.3761	2209.5	1324.5
995.2245	2687.6168	2213.15	1327.8
995.3474	2688.8568	2206.95	1323.1
995.4702	2690.0961	2205.9	1322.3
995.5929	2691.3348	2196.5	1311.1
995.7156	2692.5727	2183.2	1297.75
995.8383	2693.81	2185.5	1298.9
995.961	2695.0466	2176.65	1292.95
996.0836	2696.2826	2183.85	1297.3
996.2062	2697.5178	2190.75	1285.3
996.3287	2698.7524	2171.05	1285.4
996.4512	2699.9863	2171.65	1284.5
996.5737	2701.2195	2157.2	1273.4
996.6961	2702.452	2180.6	1294.1
996.8185	2703.6839	2183.25	1298.6
996.9408	2704.9151	2172.95	1289.75
997.0631	2706.1456	2168.6	1283.6
997.1854	2707.3755	2181.4	1298.5
997.3077	2708.6046	2181.9	1293.65
997.4299	2709.8331	2194.05	1306.45
997.552	2711.0609	2181.4	1298
997.6742	2712.2881	2190.8	1307.05
997.7963	2713.5145	2201.45	1316.05
997.9183	2714.7403	2202.35	1317.1
998.0403	2715.9654	2214.85	1328.95
998.1623	2717.1899	2221.75	1322.95
998.2842	2718.4136	2223.95	1341.45
998.4062	2719.6367	2227.1	1340.65
998.528	2720.8591	2243.2	1353.4
998.6498	2722.0809	2241.65	1355.95
998.7716	2723.3019	2245.65	1360.15
998.8934	2724.5223	2254.2	1368.8
999.0151	2725.7421	2264.5	1379.5
999.1368	2726.9611	2250.55	1365.55
999.2584	2728.1795	2252.3	1362.55
999.38	2729.3972	2237.65	1353.6
999.5016	2730.6142	2246.85	1348.4
999.6231	2731.8306	2211.7	1327.75
999.7446	2733.0462	2196.05	1312.95
999.8661	2734.2612	2172.1	1281.6
999.9875	2735.4756	2159.4	1274.4
1000.1089	2736.6892	2138.35	1256.1
1000.2302	2737.9022	2122.45	1237.6
1000.3515	2739.1145	2112.2	1227.2
1000.4728	2740.3262	2089.8	1197.35
1000.594	2741.5372	2075.5	1194.1
1000.7152	2742.7475	2060.95	1177.15
1000.8363	2743.9571	2047.85	1164.3
1000.9575	2745.1661	2034.15	1145.85
1001.0785	2746.3744	2031.4	1146.25
1001.1996	2747.582	2013.8	1131.6
1001.3206	2748.7889	2007.95	1122.45
1001.4415	2749.9952	1999.3	1115.45
1001.5625	2751.2008	1996.3	1110.2
1001.6833	2752.4057	1996.2	1109.85
1001.8042	2753.61	1975.25	1091.15
1001.925	2754.8136	1984.25	1098.3
1002.0458	2756.0165	1983.1	1101.05
1002.1665	2757.2188	1974.65	1092.95
1002.2872	2758.4204	1964.55	1081.05
1002.4078	2759.6213	1964.35	1078.9
1002.5285	2760.8215	1971.45	1085.85
1002.649	2762.0211	1959.7	1073.05
1002.7696	2763.22	1948.55	1060.6
1002.8901	2764.4182	1951.6	1066.9
1003.0106	2765.6158	1940.05	1057.25
1003.131	2766.8127	1934	1051.55
1003.2514	2768.009	1930.45	1047.3
1003.3717	2769.2045	1919.05	1037.6
1003.492	2770.3994	1920.3	1036.25
1003.6123	2771.5936	1919.3	1034.75
1003.7325	2772.7872	1918.5	1036.45
1003.8527	2773.9801	1904.1	1019.55
1003.9729	2775.1723	1919.25	1020.1
1004.093	2776.3639	1902.05	1021.1
1004.2131	2777.5548	1901.6	1017.8
1004.3331	2778.745	1905.9	1022.75
1004.4531	2779.9346	1902	1018.7
1004.5731	2781.1235	1898.55	1015.7
1004.693	2782.3117	1890.25	1005.8
1004.8129	2783.4992	1890.75	1009.05
1004.9328	2784.6861	1902.15	1017.55
1005.0526	2785.8723	1913.2	1028.55
1005.1723	2787.0579	1900.1	1018.05
1005.2921	2788.2428	1911.05	1028.7
1005.4118	2789.427	1916.75	1034.8
1005.5314	2790.6106	1924.25	1039.05
1005.651	2791.7935	1927	1042.5
1005.7706	2792.9757	1936.45	1054.95
1005.8902	2794.1573	1939.2	1053.95
1006.0097	2795.3382	1959.65	1078
1006.1291	2796.5184	1959.7	1080.95
1006.2485	2797.698	1982.9	1099.3
1006.3679	2798.8769	1981.65	1097.65
1006.4873	2800.0551	2003.55	1121.9
1006.6066	2801.2327	2015.75	1128.6
1006.7258	2802.4096	2026.2	1144.4
1006.8451	2803.5859	2043	1156.95
1006.9642	2804.7615	2052.6	1168.4
1007.0834	2805.9364	2089.55	1208.05
1007.2025	2807.1106	2108.95	1228.4
1007.3216	2808.2842	2134.1	1251.85
1007.4406	2809.4572	2166.3	1284.3
1007.5596	2810.6294	2207.25	1321.8
1007.6785	2811.801	2228.4	1348.9
1007.7975	2812.972	2268.95	1388.85
1007.9163	2814.1423	2315	1431.15
1008.0352	2815.3119	2352.85	1470.15
1008.154	2816.4808	2400	1517.2
1008.2727	2817.6491	2450	1569.7
1008.3914	2818.8167	2490	1608.1
1008.5101	2819.9837	2550.05	1665.65
1008.6288	2821.15	2582.75	1701.55
1008.7474	2822.3157	2621.35	1739.3
1008.8659	2823.4807	2673.25	1788.65
1008.9844	2824.645	2722.05	1838.1
1009.1029	2825.8086	2772	1891.75
1009.2214	2826.9716	2814.95	1934.2
1009.3398	2828.134	2850.45	1968.35
1009.4581	2829.2957	2891.65	2009.3
1009.5764	2830.4567	2926.85	2046.25
1009.6947	2831.617	2933.4	2050.4
1009.813	2832.7767	2943.85	2062.1
1009.9312	2833.9358	2947.6	2066.65
1010.0493	2835.0941	2939.35	2055.9
1010.1675	2836.2519	2927.6	2044.3
1010.2855	2837.4089	2912.65	2028.25
1010.4036	2838.5653	2913.05	2032.35
1010.5216	2839.7211	2911.15	2030.65
1010.6396	2840.8761	2923.15	2040.45
1010.7575	2842.0306	2927.45	2047.45
1010.8754	2843.1843	2963.7	2080.3
1010.9932	2844.3374	3005.3	2124.55
1011.111	2845.4899	3056.6	2173.3
1011.2288	2846.6417	3119.15	2236.15
1011.3465	2847.7928	3195.75	2314.9
1011.4642	2848.9433	3270.25	2388.45
1011.5818	2850.0931	3353.5	2473.8
1011.6995	2851.2422	3419.65	2535.4
1011.817	2852.3907	3474.15	2593.15
1011.9345	2853.5385	3534.9	2650.9
1012.052	2854.6857	3609.85	2702.05
1012.1695	2855.8323	3653	2772.9
1012.2869	2856.9781	3703.15	2821.55
1012.4042	2858.1233	3737	2857
1012.5216	2859.2679	3787.6	2905.3
1012.6389	2860.4118	3836.05	2954.35
1012.7561	2861.555	3868.05	2982.05
1012.8733	2862.6976	3909.55	3027
1012.9905	2863.8395	3920.65	3039.6
1013.1076	2864.9808	3947.15	3065.25
1013.2247	2866.1214	3964.3	3085.5
1013.3417	2867.2614	3985.95	3104.55
1013.4587	2868.4007	3999.85	3118.4
1013.5757	2869.5393	4022.25	3137.75
1013.6926	2870.6773	4021.15	3134.05
1013.8095	2871.8146	4037.95	3152.85
1013.9263	2872.9513	4022.1	3136.85
1014.0431	2874.0874	4018.25	3134.65
1014.1599	2875.2227	4021.15	3138.25
1014.2766	2876.3574	4000.4	3120.25
1014.3933	2877.4915	3973.15	3095.85
1014.51	2878.6249	3937.05	3057.05
1014.6266	2879.7577	3921.15	3036.6
1014.7431	2880.8898	3896.9	3006.25
1014.8596	2882.0212	3876.35	2995.95
1014.9761	2883.152	3862.35	2979.9
1015.0925	2884.2821	3843.55	2964
1015.2089	2885.4116	3843	2962.1
1015.3253	2886.5405	3851.15	2971.25
1015.4416	2887.6686	3847.05	2963.55
1015.5579	2888.7962	3832.15	2952.9
1015.6741	2889.923	3847.6	2967.8
1015.7903	2891.0493	3865.4	2985.35
1015.9065	2892.1748	3873.9	2994.15
1016.0226	2893.2997	3885.4	3004
1016.1387	2894.424	3899.75	3018.7
1016.2547	2895.5476	3909.65	3029.65
1016.3707	2896.6706	3931.4	3051.85
1016.4866	2897.7929	3960.45	3080.7
1016.6025	2898.9145	3994.3	3112.65
1016.7184	2900.0355	4008.45	3126.95
1016.8342	2901.1559	4056	3174.3
1016.95	2902.2756	4085.3	3202.65
1017.0658	2903.3946	4099	3219.5
1017.1815	2904.513	4127.75	3243.7
1017.2971	2905.6308	4156.85	3278.55
1017.4127	2906.7479	4167.05	3284.2
1017.5283	2907.8643	4210.65	3328.75
1017.6439	2908.9801	4204.6	3325.3
1017.7594	2910.0953	4228.6	3349.1
1017.8748	2911.2098	4221.05	3336.25
1017.9902	2912.3236	4226.1	3340.85
1018.1056	2913.4368	4213.45	3330.15
1018.2209	2914.5494	4186.9	3305.4
1018.3362	2915.6613	4161.2	3275.75
1018.4515	2916.7725	4128.45	3245.55
1018.5667	2917.8831	4111.1	3230.95
1018.6819	2918.9931	4069.9	3187.1
1018.797	2920.1024	4029.65	3148.45
1018.9121	2921.211	4005.95	3127.3
1019.0271	2922.319	3979.5	3099.5
1019.1421	2923.4264	3968.95	3091.15
1019.2571	2924.5331	3958.2	3078.1
1019.372	2925.6391	3946.3	3067.2
1019.4869	2926.7445	3940.9	3062.05
1019.6017	2927.8493	3923.85	3044.55
1019.7165	2928.9534	3920.9	3041.35
1019.8313	2930.0569	3916.25	3035
1019.946	2931.1597	3905.55	3025.65
1020.0606	2932.2619	3904.9	3024.55
1020.1753	2933.3634	3916.1	3035.95
1020.2899	2934.4643	3875.5	2988.95
1020.4044	2935.5645	3866.8	2982.5
1020.5189	2936.6641	3833.9	2948.45
1020.6334	2937.763	3787.4	2909.4
1020.7478	2938.8613	3755.8	2876
1020.8622	2939.959	3695.8	2813
1020.9765	2941.056	3620.15	2739.95
1021.0908	2942.1523	3531.15	2651.2
1021.2051	2943.248	3450.5	2570.15
1021.3193	2944.3431	3345.05	2466.05
1021.4334	2945.4375	3258.3	2377
1021.5476	2946.5313	3144.85	2265.85
1021.6617	2947.6244	3054.75	2174.8
1021.7757	2948.7169	2945.05	2066.05
1021.8897	2949.8087	2861.4	1981.35
1022.0037	2950.8999	2775.75	1895.3
1022.1176	2951.9904	2675.55	1798.4
1022.2315	2953.0803	2608.65	1727.6
1022.3453	2954.1696	2540.2	1661.2
1022.4591	2955.2582	2502.65	1625.25
1022.5728	2956.3462	2437.4	1557
1022.6865	2957.4335	2413.6	1534.1
1022.8002	2958.5202	2366.9	1483.2
1022.9138	2959.6062	2346.2	1467.15
1023.0274	2960.6916	2323.9	1444.6
1023.141	2961.7764	2303.15	1422.55
1023.2545	2962.8605	2281.75	1401.8
1023.3679	2963.9439	2266.75	1388.3
1023.4813	2965.0267	2259.8	1379.25
1023.5947	2966.1089	2275.95	1374.4
1023.708	2967.1905	2244.25	1366.55
1023.8213	2968.2714	2233.65	1356.65
1023.9346	2969.3516	2237.8	1359.45
1024.0478	2970.4312	2226	1340.9
1024.1609	2971.5102	2229.2	1349.65
1024.274	2972.5885	2228.85	1349.1
1024.3871	2973.6662	2234.75	1351.35
1024.5002	2974.7432	2220.2	1343.4
1024.6132	2975.8196	2231.75	1352.45
1024.7261	2976.8954	2208.7	1331.9
1024.839	2977.9705	2194.75	1315
1024.9519	2979.045	2182.2	1305.25
1025.0647	2980.1188	2170.95	1292.9
1025.1775	2981.192	2145.35	1267.35
1025.2902	2982.2645	2131.5	1249.7
1025.4029	2983.3364	2099.05	1220.2
1025.5156	2984.4077	2074.6	1197.05
1025.6282	2985.4783	2046.05	1161.7
1025.7407	2986.5483	2008.95	1130.1
1025.8532	2987.6177	1982.45	1107.2
1025.9657	2988.6864	1940.55	1061.15
1026.0782	2989.7545	1901.35	1023.8
1026.1906	2990.8219	1867.15	988.45
1026.3029	2991.8887	1835.35	954.35
1026.4152	2992.9548	1805.65	926.9
1026.5275	2994.0204	1772.5	894.05
1026.6397	2995.0852	1744.35	865.75
1026.7519	2996.1495	1722.45	843.65
1026.864	2997.2131	1701.3	821.5
1026.9761	2998.276	1674.3	795.25
1027.0882	2999.3383	1652.15	770.7
1027.2002	3000.4	1636.95	759.55
1027.3122	3001.4611	1617.2	737.7
1027.4241	3002.5215	1600.05	720.4
1027.536	3003.5812	1580.35	702.05
1027.6478	3004.6404	1573.05	695.05
1027.7596	3005.6989	1560	678.4
1027.8714	3006.7567	1551.1	672.15
1027.9831	3007.8139	1572.75	661.55
1028.0947	3008.8705	1534.85	657
1028.2064	3009.9264	1533.15	649.05
1028.3179	3010.9818	1522.6	644.15
1028.4295	3012.0364	1517.45	639.3
1028.541	3013.0905	1516.4	636.9
1028.6524	3014.1439	1504.55	626.8
1028.7638	3015.1966	1501.65	624.85
1028.8752	3016.2487	1497.95	619.05
1028.9865	3017.3002	1499.85	617.35
1029.0978	3018.3511	1495.95	616.8
1029.209	3019.4013	1492.65	615.1
1029.3202	3020.4509	1493.6	615.95
1029.4314	3021.4998	1496.85	618.6
1029.5425	3022.5481	1491.25	612.6
1029.6535	3023.5958	1488.5	610.45
1029.7645	3024.6428	1490.85	612.55
1029.8755	3025.6892	1488.2	609.15
1029.9864	3026.735	1495.5	617.45
1030.0973	3027.7802	1492.05	613.75
1030.2082	3028.8247	1490.8	613.3
1030.319	3029.8685	1497.9	619.45
1030.4297	3030.9118	1500.3	625.1
1030.5404	3031.9544	1495.4	618.15
1030.6511	3032.9963	1498.5	619.3
1030.7617	3034.0376	1504.05	624.95
1030.8723	3035.0783	1506.35	623.75
1030.9829	3036.1184	1505.2	624.25
1031.0934	3037.1578	1512.6	634.95
1031.2038	3038.1966	1516.45	638.05
1031.3142	3039.2348	1517.95	641.45
1031.4246	3040.2723	1519.8	633.25
1031.5349	3041.3092	1498.65	622.45
1031.6452	3042.3455	1512.75	633.6
1031.7554	3043.3811	1508	630.35
1031.8656	3044.4161	1495.7	617.3
1031.9758	3045.4505	1486.3	607.75
1032.0859	3046.4842	1488.45	610.55
1032.1959	3047.5173	1476.2	599.8
1032.3059	3048.5498	1480.4	604.8
1032.4159	3049.5816	1468.55	588.65
1032.5258	3050.6128	1470.3	591.95
1032.6357	3051.6434	1460.05	582.5
1032.7455	3052.6734	1451.65	570.8
1032.8553	3053.7027	1451.35	573.5
1032.9651	3054.7314	1435.7	559.05
1033.0748	3055.7594	1431.85	556.65
1033.1845	3056.7868	1431	552.75
1033.2941	3057.8136	1421.2	542.85
1033.4037	3058.8398	1418.45	542.8
1033.5132	3059.8653	1419.55	540.9
1033.6227	3060.8902	1411.2	534.75
1033.7321	3061.9145	1401.2	523.25
1033.8415	3062.9381	1402.1	523.45
1033.9509	3063.9612	1410.75	519.2
1034.0602	3064.9835	1385.45	507.75
1034.1694	3066.0053	1384.45	503.95
1034.2787	3067.0264	1373.85	496.1
1034.3878	3068.0469	1362.9	482.5
1034.497	3069.0668	1363.65	481.55
1034.6061	3070.086	1348.85	472.4
1034.7151	3071.1046	1345.45	469.45
1034.8241	3072.1226	1332.75	455.35
1034.9331	3073.1399	1326.8	449.2
1035.042	3074.1567	1315.9	437.3
1035.1508	3075.1727	1309.4	428.35
1035.2597	3076.1882	1295.25	418.75
1035.3684	3077.203	1290.5	413.05
1035.4772	3078.2173	1283.15	405.55
1035.5859	3079.2308	1286.6	405.55
1035.6945	3080.2438	1264.5	386.4
1035.8031	3081.2561	1257	378.2
1035.9117	3082.2678	1256.9	381.35
1036.0202	3083.2789	1245.5	367.3
1036.1286	3084.2893	1235	356.45
1036.2371	3085.2991	1232.2	354.6
1036.3454	3086.3083	1236.4	352.75
1036.4538	3087.3169	1227.15	349.55
1036.562	3088.3248	1215.2	336.7
1036.6703	3089.3321	1214.85	337
1036.7785	3090.3388	1204.55	329.65
1036.8866	3091.3449	1198	318.35
1036.9948	3092.3503	1203.7	323.55
1037.1028	3093.3551	1199.95	326
1037.2108	3094.3593	1189.6	312.4
1037.3188	3095.3629	1193.85	315.1
1037.4267	3096.3658	1178.15	299.35
1037.5346	3097.3681	1180.35	302.2
1037.6425	3098.3698	1178.2	300
1037.7503	3099.3708	1176.15	290.6
1037.858	3100.3713	1173.25	299.1
1037.9657	3101.3711	1169.25	291.75
1038.0734	3102.3702	1304.6	292.1
1038.181	3103.3688	1160.95	283.25
1038.2886	3104.3667	1158.9	282.15
1038.3961	3105.364	1155.75	279.55
1038.5036	3106.3607	1156.45	277.6
1038.611	3107.3568	1151.65	274.65
1038.7184	3108.3522	1153.7	278.7
1038.8257	3109.347	1148.55	270.15
1038.933	3110.3412	1147.85	268.3
1039.0403	3111.3348	1141.85	265.15
1039.1475	3112.3277	1137.15	261.9
1039.2547	3113.32	1136.25	260.85
1039.3618	3114.3117	1138.3	257.95
1039.4689	3115.3028	1135.9	258
1039.5759	3116.2932	1129.15	248.75
1039.6829	3117.2831	1136	253.15
1039.7898	3118.2723	1127.6	249.85
1039.8967	3119.2608	1122.85	245.55
1040.0035	3120.2488	1129.5	253.5
1040.1103	3121.2361	1126.35	249.8
1040.2171	3122.2229	1121.9	245.95
1040.3238	3123.209	1118.7	240.45
1040.4305	3124.1944	1110.1	233.95
1040.5371	3125.1793	1115.55	236.45
1040.6437	3126.1635	1113.4	236.95
1040.7502	3127.1471	1109.8	233.4
1040.8567	3128.1301	1114.25	236.15
1040.9631	3129.1125	1110.95	234.55
1041.0695	3130.0942	1104.95	227.95
1041.1759	3131.0753	1109.95	224.1
1041.2822	3132.0558	1103.4	227.05
1041.3884	3133.0357	1105.2	225.35
1041.4946	3134.015	1102.85	224.8
1041.6008	3134.9936	1099.55	219.7
1041.7069	3135.9716	1120.8	224.3
1041.813	3136.949	1098.6	223.1
1041.919	3137.9258	1114.1	219.45
1042.025	3138.902	1099.55	218.25
1042.1309	3139.8775	1091.25	216.1
1042.2368	3140.8524	1090.9	214.1
1042.3427	3141.8267	1090	213
1042.4485	3142.8004	1088.7	211.9
1042.5542	3143.7735	1088.05	206.9
1042.6599	3144.7459	1087.5	209.95
1042.7656	3145.7178	1082.7	209.1
1042.8712	3146.689	1081.2	205.05
1042.9768	3147.6596	1079.15	201.55
1043.0823	3148.6295	1083.15	206.2
1043.1878	3149.5989	1076.25	198.8
1043.2932	3150.5676	1077.3	201.2
1043.3986	3151.5357	1072.6	197.9
1043.5039	3152.5032	1070.25	194.8
1043.6092	3153.4701	1068.9	193.65
1043.7145	3154.4364	1069.75	191.1
1043.8197	3155.402	1070.8	193.3
1043.9248	3156.367	1066.6	187.7
1044.03	3157.3315	1097.05	195.7
1044.135	3158.2952	1064.35	187.85
1044.24	3159.2584	1064.1	187.25
1044.345	3160.221	1062.3	184.55
1044.4499	3161.1829	1057.2	179.85
1044.5548	3162.1442	1060.75	184
1044.6596	3163.105	1058.15	181.75
1044.7644	3164.065	1058.2	182.5
1044.8692	3165.0245	1061.95	182.4
1044.9739	3165.9834	1055.6	181.95
1045.0785	3166.9416	1054.45	178.4
1045.1831	3167.8993	1055.05	179.7
1045.2877	3168.8563	1053.45	175.7
1045.3922	3169.8127	1047.55	171.9
1045.4966	3170.7684	1048.4	171.45
1045.6011	3171.7236	1047.8	171.15
1045.7054	3172.6782	1047.7	171.6
1045.8098	3173.6321	1045.9	167.75
1045.914	3174.5854	1046.05	165.45
1046.0183	3175.5381	1045.75	168.05
1046.1224	3176.4902	1043	167.5
1046.2266	3177.4417	1039	164.25
1046.3307	3178.3926	1042.1	165.3
1046.4347	3179.3428	1034.55	159.25
1046.5387	3180.2924	1038.4	162.65
1046.6427	3181.2415	1035.05	160.95
1046.7466	3182.1899	1039.5	164.65
1046.8504	3183.1377	1031.1	156.2
1046.9542	3184.0848	1035.65	156.25
1047.058	3185.0314	1030.55	153.1
1047.1617	3185.9773	1032.55	154.35
1047.2654	3186.9227	1030.25	156.7
1047.369	3187.8674	1028.2	151.75
1047.4726	3188.8115	1032.65	153.45
1047.5761	3189.755	1031	155.8
1047.6796	3190.6979	1029.6	156.1
1047.783	3191.6402	1024.65	148.8
1047.8864	3192.5818	1023.5	148
1047.9898	3193.5229	1031.15	148.7
1048.0931	3194.4633	1025.1	148.65
1048.1963	3195.4031	1024.35	145.05
1048.2995	3196.3423	1021.75	146
1048.4027	3197.2809	1021.45	144.15
1048.5058	3198.2189	1019.85	145.8
1048.6089	3199.1563	1038.1	146.85
1048.7119	3200.0931	1018.7	144.8
1048.8148	3201.0292	1018.6	143.9
1048.9178	3201.9648	1020.45	143.5
1049.0206	3202.8997	1020.45	139.5
1049.1235	3203.834	1016.4	140.8
1049.2262	3204.7677	1014.8	139.35
1049.329	3205.7008	1015.7	138.45
1049.4317	3206.6333	1010.45	134.75
1049.5343	3207.5652	1017.45	140.15
1049.6369	3208.4964	1011.05	135.75
1049.7394	3209.4271	1011.3	135.35
1049.8419	3210.3571	1008.7	134.7
1049.9444	3211.2865	1011.6	133.8
1050.0468	3212.2154	1011.35	134.15
1050.1491	3213.1436	1012.2	134
1050.2514	3214.0712	1017.05	133.35
1050.3537	3214.9982	1005.3	130.2
1050.4559	3215.9246	1005.7	128.75
1050.5581	3216.8503	1003.95	130
1050.6602	3217.7755	1008.9	131.5
1050.7623	3218.7001	1003.15	128.75
1050.8643	3219.624	1005.75	129.15
1050.9663	3220.5473	1007.05	131.65
1051.0682	3221.4701	1004.25	128.45
1051.1701	3222.3922	1003.75	125.65
1051.2719	3223.3137	1002.3	126.65
1051.3737	3224.2346	999.9	125.05
1051.4754	3225.1549	1000.9	125
1051.5771	3226.0746	998.45	124.35
1051.6788	3226.9937	999.85	125.65
1051.7804	3227.9121	996.2	121.5
1051.8819	3228.83	996.7	122.2
1051.9834	3229.7473	997.1	120.8
1052.0849	3230.6639	996.7	120.45
1052.1863	3231.5799	992.85	117.8
1052.2876	3232.4954	994.45	117.1
1052.3889	3233.4102	992.15	117.95
1052.4902	3234.3244	990.7	115.8
1052.5914	3235.238	995.35	120.05
1052.6926	3236.151	1014.75	115.3
1052.7937	3237.0634	990.75	114.5
1052.8948	3237.9752	988.75	114.35
1052.9958	3238.8864	991.7	117.05
1053.0968	3239.797	990.85	114.5
1053.1977	3240.7069	986	111.4
1053.2986	3241.6163	987.35	109.4
1053.3994	3242.5251	986.35	111.85
1053.5002	3243.4332	983.05	108.6
1053.6009	3244.3408	986.05	110.6
1053.7016	3245.2477	979.95	105.85
1053.8022	3246.154	983.4	107.15
1053.9028	3247.0598	981.7	106
1054.0034	3247.9649	984.6	109
1054.1039	3248.8694	977.9	102.65
1054.2043	3249.7733	978	103.7
1054.3047	3250.6766	979.35	104.8
1054.4051	3251.5793	979.25	104.3
1054.5054	3252.4814	972.45	96.45
1054.6056	3253.3829	977.5	101.65
1054.7058	3254.2838	975.3	100.45
1054.806	3255.1841	976.4	102.15
1054.9061	3256.0838	975.55	100.05
1055.0061	3256.9829	975.3	101.2
1055.1062	3257.8814	970.75	92
1055.2061	3258.7792	975.35	98.85
1055.306	3259.6765	971.25	94.25
1055.4059	3260.5731	971.55	96.55
1055.5057	3261.4692	971.8	96.45
1055.6055	3262.3647	967.9	92.85
1055.7052	3263.2595	967.5	94.15
1055.8049	3264.1538	960.9	85.9
1055.9045	3265.0474	960.95	86.6
1056.0041	3265.9404	960.3	85.65
1056.1036	3266.8329	954.65	79.95
1056.2031	3267.7247	964.55	81.35
1056.3025	3268.616	953.1	78.65
1056.4019	3269.5066	954.4	78.3
1056.5013	3270.3966	954.65	78.15
1056.6005	3271.286	949.85	76.15
