Software Version:	3.9.2.0
Unit SN:	10000200
Spectrometer SN:	6960
Date:	3/8/2024 1:07:35 PM
Data Line Index:	25
Spectral Points:	2048
Integration time (ms):	125
Averages:	20
Delay (ms):	30000
Sequence Number:	1
Processing:	dark subtract
Laser Power (mW):	305
Laser Current (mA):	822
Laser Diode Temp (C):	25
Laser Case Temp (C):	26.2
System Temp (C):	26.2
Spectrometer Temp (C):	23.9
CCD Temp (C):	0.013
Secondary Temp (C):	20.007
Heatsink Temp (C):	20.999
CCDPCB Temp (C):	36.307
SecondaryPCB Temp (C):	30.716

Wavelength	RamanShift	Raw Counts	Dark Subtracted
787.061	30.1047	458.75	48.7
787.2016	32.3739	459.75	52.25
787.3422	34.6426	465.6	59.4
787.4828	36.9109	471.55	62.95
787.6235	39.1787	481.3	69.15
787.7642	41.4461	490.1	72.1
787.9049	43.7131	498.3	76.8
788.0456	45.9796	507.05	83.25
788.1863	48.2456	517.3	88.5
788.3271	50.5112	525.15	91.05
788.4679	52.7764	537.45	101.8
788.6087	55.0411	545.65	104.25
788.7496	57.3054	559.15	113.05
788.8904	59.5692	569.15	121.8
789.0313	61.8326	578.45	127.65
789.1722	64.0955	591.8	139.4
789.3132	66.3579	608.7	151.7
789.4541	68.6199	625.3	164.05
789.5951	70.8815	665.3	199.7
789.7361	73.1426	748.35	278.65
789.8771	75.4032	960.95	488.85
790.0181	77.6634	1485.8	1007.85
790.1592	79.9231	2712.2	2226
790.3003	82.1824	5378.65	4874.9
790.4414	84.4412	10157.35	9628.1
790.5825	86.6995	16758.8	16191.25
790.7237	88.9574	23191.9	22597.2
790.8648	91.2148	27558.75	26943.3
791.006	93.4717	29551.95	28923.85
791.1472	95.7282	29955.15	29324.15
791.2885	97.9842	29735	29098.65
791.4297	100.2398	29131.85	28494.2
791.571	102.4949	28395.1	27753.05
791.7123	104.7495	27522.55	26874.45
791.8536	107.0036	26674.2	26026.65
791.9949	109.2573	25879.75	25237.55
792.1363	111.5105	25142.1	24491.5
792.2777	113.7632	24426.7	23775.15
792.4191	116.0154	23853.1	23193.1
792.5605	118.2672	23402.5	22746.15
792.7019	120.5185	22951.4	22293.95
792.8434	122.7693	22655.95	21995.15
792.9849	125.0197	22417.15	21752.15
793.1264	127.2696	22099.05	21427.5
793.2679	129.519	21925.95	21253.2
793.4094	131.7679	21698.25	21023.05
793.551	134.0163	21492.1	20812.25
793.6926	136.2642	21188.65	20506.1
793.8342	138.5117	20889.3	20204.1
793.9758	140.7587	20574	19889.65
794.1175	143.0052	20294.6	19606.7
794.2591	145.2512	20021.6	19337.05
794.4008	147.4967	19747	19058.85
794.5425	149.7417	19591.5	18899.85
794.6842	151.9863	19375.35	18681.4
794.826	154.2304	19343.8	18645.65
794.9677	156.4739	19154.8	18452.7
795.1095	158.717	19068.5	18360.3
795.2513	160.9596	18940.3	18225.75
795.3931	163.2017	18674.65	17962.95
795.535	165.4433	18385.45	17670.75
795.6768	167.6844	18049.75	17335.7
795.8187	169.925	17736.7	17021.55
795.9606	172.1651	17359.95	16641.3
796.1025	174.4047	17129.7	16407.1
796.2445	176.6439	16866.65	16144.4
796.3864	178.8825	16671.65	15943.8
796.5284	181.1206	16518.9	15784.4
796.6704	183.3582	16331	15595.3
796.8124	185.5954	16263.65	15525.25
796.9544	187.832	16151.85	15407.8
797.0965	190.0681	16157.6	15414.1
797.2386	192.3037	16147.8	15401.5
797.3806	194.5388	16153.85	15402.9
797.5228	196.7734	16215.65	15461.7
797.6649	199.0075	16268.3	15515.85
797.807	201.2411	16410.05	15652.15
797.9492	203.4742	16469.4	15710.2
798.0914	205.7068	16661.4	15902.95
798.2336	207.9389	16790.5	16027.25
798.3758	210.1704	16937.95	16175.9
798.518	212.4015	17016.8	16269.4
798.6603	214.632	17207.45	16463.95
798.8025	216.862	17364	16625.15
798.9448	219.0915	17512.85	16770.4
799.0871	221.3205	17676.5	16931.5
799.2294	223.549	17819.35	17079.2
799.3718	225.777	18063.35	17321.7
799.5141	228.0044	18286.35	17533.1
799.6565	230.2314	18603	17854.55
799.7989	232.4578	18855.35	18105.65
799.9413	234.6837	19088.75	18331
800.0837	236.909	19256.15	18494
800.2262	239.1339	19251.05	18463.9
800.3687	241.3582	19117.4	18345.65
800.5111	243.582	18906.7	18102.2
800.6536	245.8053	18733.45	17942.9
800.7961	248.0281	18555.55	17772.3
800.9387	250.2503	18428.7	17644.35
801.0812	252.472	18390.35	17599.7
801.2238	254.6932	18454.7	17667.35
801.3664	256.9139	18443.85	17654.1
801.509	259.134	18570.45	17777.55
801.6516	261.3536	18715.3	17924.75
801.7942	263.5727	18926.2	18132.2
801.9369	265.7912	19027.85	18235.15
802.0795	268.0092	19224.85	18432.75
802.2222	270.2267	19325.7	18529.5
802.3649	272.4436	19344.95	18548.4
802.5076	274.6601	19295.05	18484.6
802.6504	276.8759	19243.95	18440.95
802.7931	279.0913	19182.4	18383.15
802.9359	281.3061	19064.65	18260.45
803.0787	283.5204	19064.65	18259.1
803.2215	285.7341	19066.15	18256.8
803.3643	287.9473	19178.3	18357.85
803.5071	290.16	19286.1	18473.8
803.6499	292.3721	19528.8	18723.85
803.7928	294.5837	19811.4	19003.7
803.9357	296.7947	20137.2	19330.85
804.0786	299.0052	20318.5	19508.75
804.2215	301.2152	20232	19422.65
804.3644	303.4246	20003.65	19195.6
804.5074	305.6334	19565.55	18757.95
804.6503	307.8418	19056.05	18245.1
804.7933	310.0495	18609.35	17799.15
804.9363	312.2568	18275.15	17461.6
805.0793	314.4635	17985.25	17165.45
805.2223	316.6696	17767.05	16948.25
805.3653	318.8752	17680.2	16852.2
805.5084	321.0802	17674.35	16854.75
805.6514	323.2847	17727.35	16905.3
805.7945	325.4887	17753.75	16930.55
805.9376	327.692	17723.65	16899
806.0807	329.8949	17642.55	16822.65
806.2238	332.0972	17423.55	16596.25
806.367	334.2989	17208.45	16378.45
806.5101	336.5001	16960.6	16131.05
806.6533	338.7007	16755.15	15925.55
806.7965	340.9008	16624.55	15794.6
806.9397	343.1003	16496.25	15665.45
807.0829	345.2992	16390	15552.1
807.2261	347.4976	16349.85	15514.95
807.3693	349.6955	16298.6	15460.85
807.5126	351.8927	16376.65	15535.7
807.6559	354.0895	16329.8	15480.4
807.7991	356.2856	16326.95	15484.25
807.9424	358.4812	16299.4	15460.15
808.0857	360.6763	16291.1	15448.25
808.2291	362.8707	16292.55	15446.25
808.3724	365.0646	16364.85	15518.2
808.5158	367.258	16376.9	15526.3
808.6591	369.4508	16434.15	15579.45
808.8025	371.643	16544.95	15689.95
808.9459	373.8346	16557.3	15703.1
809.0893	376.0257	16602	15746.95
809.2327	378.2162	16588	15735.35
809.3762	380.4062	16535.15	15681.6
809.5196	382.5956	16406.55	15556.75
809.6631	384.7844	16302.15	15454.6
809.8066	386.9726	16147.45	15300.1
809.9501	389.1603	16087.3	15244.45
810.0936	391.3474	16068.35	15187.75
810.2371	393.5339	16035.85	15187.7
810.3806	395.7199	16022.8	15178.05
810.5241	397.9052	16056.9	15211.15
810.6677	400.09	16080.7	15232.25
810.8113	402.2743	16197.05	15350.2
810.9548	404.4579	16338.8	15490.45
811.0984	406.641	16517.25	15665.5
811.2421	408.8235	16721.45	15871.8
811.3857	411.0054	16974.95	16117.15
811.5293	413.1868	17275.3	16417.65
811.673	415.3675	17490.95	16630.65
811.8166	417.5477	17561.15	16699.35
811.9603	419.7273	17569.35	16705.7
812.104	421.9064	17458.35	16590
812.2477	424.0848	17431.8	16570.6
812.3914	426.2627	17223.25	16364
812.5351	428.4399	16932.55	16067.5
812.6788	430.6166	16631.3	15764.4
812.8226	432.7928	16276.45	15404.85
812.9663	434.9683	15966.15	15104.25
813.1101	437.1432	15745.4	14879
813.2539	439.3176	15572.7	14712.05
813.3977	441.4914	15456.1	14597.95
813.5415	443.6645	15424.45	14560.95
813.6853	445.8371	15353.05	14487.05
813.8291	448.0091	15316.55	14449.85
813.973	450.1806	15291.15	14428
814.1168	452.3514	15244.4	14380.45
814.2607	454.5216	15290.55	14418.35
814.4046	456.6913	15252.75	14388.65
814.5485	458.8603	15299.45	14434.1
814.6924	461.0288	15359.05	14496.8
814.8363	463.1967	15345.65	14486.8
814.9802	465.3639	15422.7	14557.45
815.1241	467.5306	15474.4	14609.4
815.2681	469.6967	15514.85	14652.4
815.412	471.8622	15631.15	14768.6
815.556	474.0271	15740.05	14877.15
815.7	476.1914	15768.3	14898
815.844	478.3551	15765.8	14898.75
815.988	480.5182	15829	14967.1
816.132	482.6807	15872.75	15012.4
816.276	484.8426	16007.45	15151.7
816.4201	487.0039	16322.75	15459.15
816.5641	489.1647	16719.1	15848.75
816.7082	491.3248	17107.75	16238.05
816.8522	493.4843	17245.85	16380.5
816.9963	495.6432	17237.05	16372.45
817.1404	497.8015	17119.3	16245
817.2845	499.9592	17059.55	16181.45
817.4286	502.1163	16942.05	16064.4
817.5727	504.2728	16665.6	15790.65
817.7168	506.4287	16387.2	15518.95
817.861	508.5839	16016.75	15150.4
818.0051	510.7386	15761.2	14892.1
818.1493	512.8927	15618.5	14736.95
818.2935	515.0461	15527.2	14652.4
818.4377	517.199	15570.15	14691.1
818.5818	519.3512	15664.15	14786.05
818.726	521.5029	15867.8	14986.25
818.8703	523.6539	16014.85	15133.6
819.0145	525.8043	16118.45	15236.55
819.1587	527.9541	16078.75	15197.5
819.303	530.1033	15980.9	15100.9
819.4472	532.2519	15914.6	15031.65
819.5915	534.3999	15923.05	15039
819.7357	536.5472	16111.7	15231.15
819.88	538.694	16478.95	15600.3
820.0243	540.8401	16875.55	15992.85
820.1686	542.9856	17266.4	16372.85
820.3129	545.1305	17371.35	16473.05
820.4572	547.2748	17277.8	16384.1
820.6016	549.4185	16981.3	16086.4
820.7459	551.5615	16733.8	15845
820.8902	553.704	16647.85	15756.65
821.0346	555.8458	16670.25	15782.9
821.1789	557.987	16776.8	15892.4
821.3233	560.1276	16924.55	16036
821.4677	562.2675	17153.15	16267.5
821.6121	564.4069	17414.75	16524.15
821.7565	566.5456	17665.85	16781
821.9009	568.6837	17712.2	16822.85
822.0453	570.8212	17374.4	16488.85
822.1897	572.958	16869.55	15982.45
822.3342	575.0942	16380.55	15493.15
822.4786	577.2299	16060.9	15179.65
822.6231	579.3648	15912.75	15039.4
822.7675	581.4992	15918.25	15050.25
822.912	583.6329	16049.75	15182.35
823.0565	585.766	16220.45	15349.5
823.201	587.8985	16395.9	15517.75
823.3454	590.0304	16437.1	15531.65
823.4899	592.1616	16353.3	15466
823.6345	594.2922	16242	15348.05
823.779	596.4222	16060.7	15166.8
823.9235	598.5515	15895.2	14999.75
824.068	600.6802	15764.85	14869.1
824.2126	602.8083	15560.45	14668.8
824.3571	604.9358	15528.95	14640.15
824.5017	607.0626	15485.9	14589.6
824.6462	609.1888	15557.55	14658.65
824.7908	611.3144	15582.9	14682.6
824.9354	613.4393	15631.25	14732.4
825.08	615.5636	15619	14719.25
825.2246	617.6873	15587.9	14686.9
825.3692	619.8103	15564.4	14663.75
825.5138	621.9327	15375.65	14477.65
825.6584	624.0544	15257.35	14363.65
825.803	626.1756	15166.65	14274.85
825.9477	628.2961	15063.15	14164.6
826.0923	630.4159	15006.8	14106.15
826.237	632.5351	15008.85	14109.25
826.3816	634.6537	14943.1	14043.25
826.5263	636.7716	14929.7	14022.9
826.6709	638.8889	14950.45	14042.9
826.8156	641.0056	14998.85	14092.8
826.9603	643.1216	14944.9	14042.9
827.105	645.237	14990.7	14088.05
827.2497	647.3518	14878.5	13983.1
827.3944	649.4659	14866.1	13974.95
827.5391	651.5793	14840.35	13945.6
827.6838	653.6922	14837.3	13943.6
827.8285	655.8043	14835.5	13939.65
827.9733	657.9159	14832.55	13929.1
828.118	660.0268	14796.85	13898.4
828.2627	662.137	14759.65	13858.85
828.4075	664.2466	14736.75	13829.25
828.5522	666.3556	14756.75	13851.7
828.697	668.4639	14709.7	13807.3
828.8418	670.5716	14756.55	13860.15
828.9865	672.6786	14750.25	13847.55
829.1313	674.785	14735.2	13828.05
829.2761	676.8907	14772.5	13870.75
829.4209	678.9958	14799.15	13901.85
829.5657	681.1002	14781.1	13876.65
829.7105	683.204	14797.7	13886.2
829.8553	685.3072	14745.15	13836.05
830.0001	687.4097	14734.65	13825.95
830.1449	689.5115	14708.7	13797.7
830.2898	691.6127	14662.45	13758.5
830.4346	693.7132	14591.45	13690.5
830.5794	695.8131	14632.25	13714.65
830.7243	697.9123	14630.55	13722.1
830.8691	700.0109	14648.4	13738.05
831.014	702.1089	14638.55	13731.5
831.1588	704.2061	14668.95	13758.75
831.3037	706.3028	14721.05	13809.8
831.4486	708.3987	14778.75	13868.05
831.5935	710.4941	14814.5	13903
831.7383	712.5887	14908.6	13995.15
831.8832	714.6827	15089.05	14176.95
832.0281	716.7761	15367.25	14461.3
832.173	718.8688	15625.9	14717.85
832.3179	720.9608	15785.9	14875.1
832.4628	723.0522	15892.3	14975.2
832.6077	725.1429	15842.05	14927.7
832.7527	727.233	15759.25	14846.95
832.8976	729.3224	15651	14741.35
833.0425	731.4112	15499.1	14587.15
833.1874	733.4993	15352.1	14439.7
833.3324	735.5867	15156.55	14245.4
833.4773	737.6735	14969.25	14056.1
833.6222	739.7596	14864.6	13950.05
833.7672	741.845	14750.4	13838.55
833.9122	743.9298	14698.7	13787.25
834.0571	746.014	14691.2	13780.2
834.2021	748.0974	14667.35	13750.55
834.347	750.1802	14671.1	13751.75
834.492	752.2624	14708.75	13792.15
834.637	754.3439	14747.9	13827.6
834.782	756.4247	14828.2	13903.85
834.9269	758.5048	14991.85	14074.35
835.0719	760.5843	15251.45	14332.4
835.2169	762.6631	15616.1	14694.8
835.3619	764.7413	16108.2	15190.7
835.5069	766.8188	16757.8	15842.55
835.6519	768.8956	17272.35	16355.65
835.7969	770.9718	17645.25	16727.65
835.9419	773.0473	17526.35	16608.45
836.0869	775.1221	17234.25	16316.95
836.232	777.1962	16949.9	16033.9
836.377	779.2697	16759.7	15836.4
836.522	781.3426	16798.25	15868.55
836.667	783.4147	16959.4	16042.3
836.8121	785.4862	17161.05	16246.95
836.9571	787.557	17053.35	16130.5
837.1021	789.6271	16671.25	15752.55
837.2472	791.6966	16118.3	15198.85
837.3922	793.7654	15551.65	14633.4
837.5373	795.8335	15176.7	14256.8
837.6823	797.901	14912.75	13992.3
837.8274	799.9678	14794.75	13871.45
837.9724	802.0339	14714.95	13797.45
838.1175	804.0993	14755	13822.15
838.2626	806.1641	14720.8	13798.95
838.4076	808.2282	14659	13737.45
838.5527	810.2916	14566.9	13639.75
838.6978	812.3544	14495.15	13578.95
838.8428	814.4164	14380.2	13461.1
838.9879	816.4778	14442.7	13519.2
839.133	818.5385	14482.15	13555.95
839.2781	820.5986	14598.8	13672.9
839.4232	822.658	14762.65	13838.4
839.5682	824.7166	14966.35	14042
839.7133	826.7747	15398.85	14476.9
839.8584	828.832	15745.15	14819
840.0035	830.8886	16045.45	15121.85
840.1486	832.9446	16197.05	15269.7
840.2937	834.9999	16110	15187.3
840.4388	837.0545	15971.5	15044.25
840.5839	839.1085	15795.9	14870.3
840.729	841.1618	15588.5	14660.35
840.8741	843.2143	15462.05	14539.05
841.0192	845.2662	15301.4	14378.85
841.1643	847.3175	15196.3	14275.5
841.3095	849.368	15101.7	14180.65
841.4546	851.4179	15004.2	14081.15
841.5997	853.467	14876.6	13953.05
841.7448	855.5155	14771.05	13845.1
841.8899	857.5633	14674.75	13752.75
842.0351	859.6105	14600.15	13674.05
842.1802	861.6569	14528	13600.6
842.3253	863.7027	14486.75	13555.7
842.4704	865.7478	14454.05	13527.2
842.6156	867.7922	14416.6	13489.35
842.7607	869.8359	14452.7	13524.35
842.9058	871.8789	14521.7	13594.75
843.0509	873.9212	14636.9	13679.55
843.1961	875.9629	14718.05	13789.25
843.3412	878.0039	14930.45	14002.35
843.4863	880.0441	15012.75	14088.8
843.6315	882.0837	15052.2	14125.4
843.7766	884.1226	15025.55	14094.7
843.9218	886.1609	15030.7	14107.45
844.0669	888.1984	15012.25	14087.7
844.212	890.2352	15097.9	14171.55
844.3572	892.2714	15082.75	14152.1
844.5023	894.3069	15061.7	14134.25
844.6475	896.3416	14924.95	13999.7
844.7926	898.3757	14831.6	13906.3
844.9377	900.4091	14803.15	13873.45
845.0829	902.4418	14794.8	13859
845.228	904.4739	14833.95	13903.85
845.3732	906.5052	14813.45	13885.9
845.5183	908.5358	14774.1	13844.3
845.6635	910.5658	14624.05	13694.05
845.8086	912.595	14456.5	13530.1
845.9538	914.6236	14277.9	13345.55
846.0989	916.6515	14176.3	13247.5
846.2441	918.6786	14115.45	13185.1
846.3892	920.7051	14170.8	13237.2
846.5344	922.7309	14229.65	13303
846.6795	924.756	14286.15	13359.05
846.8246	926.7804	14372.15	13444
846.9698	928.8041	14315.75	13386.8
847.1149	930.8272	14387.3	13457.95
847.2601	932.8495	14332.55	13402.95
847.4052	934.8711	14314.7	13383.6
847.5504	936.892	14216.55	13287.25
847.6955	938.9123	14141.35	13211.95
847.8407	940.9318	14085.15	13155.7
847.9858	942.9506	14038.85	13108.55
848.131	944.9688	13955.85	13028.5
848.2761	946.9862	13885	12956.2
848.4213	949.003	13763.15	12832.95
848.5664	951.019	13705.15	12775.3
848.7115	953.0344	13694.5	12764.1
848.8567	955.0491	13699.2	12767.95
849.0018	957.063	13744.5	12816.05
849.147	959.0763	13890.5	12961.2
849.2921	961.0888	13883.05	12953.85
849.4373	963.1007	13993.95	13066.1
849.5824	965.1119	13985.5	13062.35
849.7275	967.1223	13979.4	13062.7
849.8727	969.1321	14002.2	13084.3
850.0178	971.1412	14037.35	13115.65
850.1629	973.1495	14030.4	13108
850.3081	975.1572	14062.05	13087.95
850.4532	977.1641	14080.95	13151.6
850.5983	979.1704	14033	13100.45
850.7435	981.1759	14033.75	13100.3
850.8886	983.1808	14080.95	13149.9
851.0337	985.1849	14141.8	13197.9
851.1788	987.1884	14207.25	13275.15
851.324	989.1911	14326.25	13397.95
851.4691	991.1932	14451	13519.6
851.6142	993.1945	14480.1	13552.5
851.7593	995.1951	14429.85	13498.7
851.9045	997.1951	14399.45	13460.65
852.0496	999.1943	14317.95	13390.25
852.1947	1001.1928	14310.6	13377.7
852.3398	1003.1906	14355.05	13424
852.4849	1005.1877	14438.95	13506.4
852.63	1007.1841	14439.45	13511.7
852.7751	1009.1798	14418.9	13487.7
852.9202	1011.1748	14293.75	13362.4
853.0653	1013.1691	14112.35	13183.75
853.2104	1015.1627	13907.35	12974.15
853.3555	1017.1556	13677.25	12747.25
853.5006	1019.1477	13593.6	12668.9
853.6457	1021.1392	13477.7	12558.25
853.7908	1023.1299	13449.3	12527.95
853.9359	1025.12	13448	12530.9
854.081	1027.1093	13471.7	12564.85
854.2261	1029.0979	13614.25	12707.25
854.3712	1031.0859	13665.6	12755.95
854.5163	1033.0731	13669.75	12748.05
854.6613	1035.0596	13658.7	12738.75
854.8064	1037.0454	13514.55	12590.95
854.9515	1039.0304	13427.35	12498.65
855.0965	1041.0148	13288.4	12363.4
855.2416	1042.9985	13179.75	12253.45
855.3867	1044.9814	13130.95	12205.55
855.5317	1046.9636	13072.55	12142.85
855.6768	1048.9452	13077.8	12155.3
855.8219	1050.926	13113.55	12185.9
855.9669	1052.9061	13121.75	12193.85
856.112	1054.8855	13112.85	12185.85
856.257	1056.8642	13181.25	12250.55
856.4021	1058.8421	13215.65	12283.4
856.5471	1060.8194	13256	12329.05
856.6921	1062.7959	13320.8	12392.25
856.8372	1064.7717	13354.4	12424.3
856.9822	1066.7469	13359.7	12431.75
857.1272	1068.7213	13409.2	12480.15
857.2723	1070.695	13462.3	12534.8
857.4173	1072.6679	13441.8	12514.25
857.5623	1074.6402	13428.9	12499.6
857.7073	1076.6117	13389.25	12453.9
857.8523	1078.5826	13334.55	12405.4
857.9973	1080.5527	13269.25	12335.9
858.1423	1082.5221	13261.75	12331.9
858.2873	1084.4908	13363	12434.2
858.4323	1086.4587	13415.2	12484.9
858.5773	1088.426	13516.4	12586.75
858.7223	1090.3925	13491.45	12558.3
858.8673	1092.3584	13524.65	12594.7
859.0123	1094.3235	13443.45	12514.2
859.1573	1096.2879	13450.4	12520.85
859.3022	1098.2515	13512.45	12585.35
859.4472	1100.2145	13662.9	12734.45
859.5922	1102.1767	13778.2	12848.3
859.7371	1104.1382	13990.5	13061
859.8821	1106.099	14227	13298.45
860.027	1108.0591	14422.85	13493.55
860.172	1110.0185	14572.4	13643.3
860.3169	1111.9771	14642.5	13713.6
860.4619	1113.9351	14502.7	13574.5
860.6068	1115.8923	14272.6	13344.25
860.7517	1117.8488	14042.95	13111.7
860.8967	1119.8045	13819.6	12891.05
861.0416	1121.7596	13683.1	12754.85
861.1865	1123.7139	13593.3	12667.05
861.3314	1125.6675	13594.35	12666.6
861.4763	1127.6204	13623	12695.85
861.6212	1129.5726	13589.25	12658.9
861.7661	1131.524	13541.7	12615.6
861.911	1133.4748	13426.85	12500.1
862.0559	1135.4248	13314.3	12386.5
862.2008	1137.3741	13254.2	12325.6
862.3457	1139.3226	13147.8	12220.2
862.4905	1141.2705	13085.2	12155.85
862.6354	1143.2176	12996.05	12061.9
862.7803	1145.164	12990.55	12058.85
862.9251	1147.1097	12945.15	12017.05
863.07	1149.0546	12913.8	11987.4
863.2148	1150.9989	12814	11886.9
863.3597	1152.9424	12715	11786.8
863.5045	1154.8852	12625.85	11698.3
863.6493	1156.8272	12514.55	11586.1
863.7942	1158.7686	12515.75	11580.55
863.939	1160.7092	12506.2	11579.15
864.0838	1162.6491	12516.4	11583.9
864.2286	1164.5883	12620.9	11693.55
864.3734	1166.5267	12681.95	11755.9
864.5182	1168.4644	12834.4	11910.4
864.663	1170.4014	13056.1	12132.75
864.8078	1172.3377	13300.2	12378.75
864.9526	1174.2732	13557.2	12632.5
865.0974	1176.2081	13905.7	12977.85
865.2421	1178.1421	14275.05	13343.35
865.3869	1180.0755	14662.6	13735.4
865.5317	1182.0082	14892.7	13966.95
865.6764	1183.9401	15002.5	14077.75
865.8212	1185.8713	14888.35	13965.65
865.9659	1187.8017	14623.25	13706.75
866.1106	1189.7315	14302.95	13393.65
866.2554	1191.6605	13962.2	13051.65
866.4001	1193.5888	13712.35	12795.85
866.5448	1195.5163	13556.65	12637.65
866.6895	1197.4432	13469.1	12545.4
866.8342	1199.3693	13439	12516.2
866.9789	1201.2947	13400.45	12474.05
867.1236	1203.2193	13377.75	12451.75
867.2683	1205.1432	13384.1	12460.55
867.413	1207.0664	13349.2	12424.7
867.5576	1208.9889	13365.9	12439.1
867.7023	1210.9106	13371.6	12450.2
867.847	1212.8316	13362.6	12439
867.9916	1214.7519	13393.3	12458.6
868.1363	1216.6715	13427.6	12503.95
868.2809	1218.5903	13467.85	12546
868.4255	1220.5084	13497.75	12571.8
868.5701	1222.4257	13563.75	12636.9
868.7148	1224.3424	13532.15	12609
868.8594	1226.2583	13615.2	12691.05
869.004	1228.1735	13722	12798
869.1486	1230.0879	13815.65	12891.2
869.2932	1232.0016	13955.4	13030.8
869.4377	1233.9146	14063.2	13137.2
869.5823	1235.8269	14034.15	13110.15
869.7269	1237.7384	13938.35	13012.75
869.8715	1239.6492	13757.1	12832.75
870.016	1241.5592	13691.8	12766.65
870.1606	1243.4686	13642	12718.25
870.3051	1245.3772	13755	12830.05
870.4496	1247.285	13861.9	12934.55
870.5941	1249.1922	13937	13011.1
870.7387	1251.0986	14000.3	13074.85
870.8832	1253.0042	14010.2	13086.25
871.0277	1254.9092	14054.1	13130.55
871.1722	1256.8134	14149.35	13226
871.3167	1258.7169	14315.5	13393.35
871.4611	1260.6196	14476.85	13552.1
871.6056	1262.5216	14692.4	13767.1
871.7501	1264.4229	14872.8	13950.95
871.8945	1266.3234	15069.55	14145.95
872.039	1268.2232	15173.15	14249
872.1834	1270.1223	15197.3	14274.85
872.3278	1272.0207	15226.15	14298.5
872.4723	1273.9183	15172.55	14242.15
872.6167	1275.8151	15133.6	14210.4
872.7611	1277.7113	15080.3	14157.75
872.9055	1279.6067	15076.9	14154.75
873.0499	1281.5014	15179.35	14255.15
873.1943	1283.3953	15335.65	14410.7
873.3386	1285.2885	15613.95	14689.85
873.483	1287.181	15890.3	14967.2
873.6274	1289.0727	16192.2	15269.2
873.7717	1290.9637	16403.5	15482.35
873.9161	1292.854	16558.35	15636.55
874.0604	1294.7435	16597.65	15674.9
874.2047	1296.6323	16636.75	15717.25
874.349	1298.5204	16656.25	15730.4
874.4933	1300.4077	16637.4	15709.9
874.6376	1302.2943	16588.6	15666
874.7819	1304.1802	16471.15	15549
874.9262	1306.0653	16138.05	15211.05
875.0705	1307.9497	15791.4	14869.95
875.2147	1309.8333	15478.1	14557.95
875.359	1311.7162	15279.25	14357.1
875.5032	1313.5984	15170.15	14244.5
875.6475	1315.4798	15084.85	14152.3
875.7917	1317.3605	15093.85	14151.65
875.9359	1319.2405	15034.7	14110.75
876.0801	1321.1197	14902.25	13977.4
876.2243	1322.9982	14674.05	13746.95
876.3685	1324.876	14480	13559.6
876.5127	1326.753	14235.35	13312
876.6569	1328.6293	14171.65	13244
876.801	1330.5048	14079.75	13153.1
876.9452	1332.3796	13920.5	12996.3
877.0893	1334.2537	13907.55	12957.3
877.2335	1336.127	13804.85	12884.75
877.3776	1337.9996	13798.75	12872.85
877.5217	1339.8714	13769.35	12845.45
877.6658	1341.7426	13810.2	12842.2
877.8099	1343.6129	13754.5	12829.75
877.954	1345.4826	13751.95	12827
878.0981	1347.3515	13752.85	12826.35
878.2422	1349.2196	13720.4	12798.2
878.3862	1351.087	13742.8	12817.65
878.5303	1352.9537	13786.8	12861.7
878.6743	1354.8197	13910.65	12988.7
878.8184	1356.6849	14089.9	13164.75
878.9624	1358.5493	14218.65	13295.05
879.1064	1360.4131	14287.55	13365.15
879.2504	1362.276	14347	13424.3
879.3944	1364.1383	14293.05	13370.2
879.5384	1365.9998	14105.5	13178.95
879.6823	1367.8606	13755.65	12830.4
879.8263	1369.7206	13406.4	12481.95
879.9702	1371.5799	13094.05	12169.35
880.1142	1373.4384	12853.45	11930.25
880.2581	1375.2962	12658.9	11734.2
880.402	1377.1533	12347.15	11425.4
880.5459	1379.0096	12026.7	11106.1
880.6898	1380.8652	11657.05	10738
880.8337	1382.7201	11408.3	10490.1
880.9776	1384.5742	11164.6	10242.2
881.1215	1386.4275	10978.45	10054.75
881.2653	1388.2802	10829.6	9910.05
881.4092	1390.132	10694.3	9773.85
881.553	1391.9832	10632.55	9708.25
881.6968	1393.8336	10537.45	9613.8
881.8406	1395.6832	10482.1	9559.75
881.9844	1397.5322	10440.2	9518.25
882.1282	1399.3803	10411.35	9485.2
882.272	1401.2278	10379.3	9459.9
882.4158	1403.0745	10358.3	9438.15
882.5595	1404.9204	10332.2	9410.6
882.7033	1406.7656	10381.1	9458.8
882.847	1408.6101	10377.55	9452.35
882.9908	1410.4538	10374.35	9454.8
883.1345	1412.2968	10411.5	9487.9
883.2782	1414.139	10476	9554.25
883.4219	1415.9805	10560.15	9636.95
883.5656	1417.8213	10569.05	9642.4
883.7092	1419.6613	10699.95	9779.35
883.8529	1421.5006	10882.2	9959.2
883.9965	1423.3391	11078.8	10155.05
884.1402	1425.1769	11378.3	10456.05
884.2838	1427.0139	11800.25	10879.95
884.4274	1428.8502	12350	11427.5
884.571	1430.6858	12904.9	11983.5
884.7146	1432.5206	13317.3	12396.85
884.8582	1434.3547	13518	12596.65
885.0018	1436.188	13535.75	12616.4
885.1453	1438.0206	13481.35	12559.95
885.2889	1439.8524	13268.05	12346.55
885.4324	1441.6835	13177.6	12256.95
885.5759	1443.5139	13075.8	12153.35
885.7194	1445.3435	13002.85	12082.4
885.8629	1447.1724	12963.35	12043.85
886.0064	1449.0005	12924.35	12005.9
886.1499	1450.8279	12819.35	11900
886.2933	1452.6545	12754.6	11836.5
886.4368	1454.4804	12819.95	11901.6
886.5802	1456.3056	12814.65	11889.55
886.7237	1458.13	12721.1	11803.5
886.8671	1459.9536	12525	11606.5
887.0105	1461.7766	12207.25	11287.15
887.1539	1463.5987	11861.35	10939.3
887.2972	1465.4202	11506.9	10586.15
887.4406	1467.2409	11157.15	10237.55
887.584	1469.0608	10869.75	9950.15
887.7273	1470.88	10610.35	9690
887.8706	1472.6984	10377.35	9458
888.0139	1474.5161	10189.15	9267
888.1572	1476.3331	10023.95	9106.1
888.3005	1478.1493	9878.85	8961.45
888.4438	1479.9648	9792.9	8873.3
888.5871	1481.7795	9713.75	8795.3
888.7303	1483.5935	9636.7	8716.75
888.8736	1485.4067	9570.3	8651.4
889.0168	1487.2192	9551.7	8632.35
889.16	1489.031	9475.45	8554.45
889.3032	1490.842	9422.95	8503.4
889.4464	1492.6522	9379.9	8462.6
889.5896	1494.4618	9341.3	8420
889.7327	1496.2705	9319.85	8401.25
889.8759	1498.0785	9275.15	8354.9
890.019	1499.8858	9238.9	8317.3
890.1622	1501.6924	9188.2	8271.5
890.3053	1503.4981	9160.5	8242.2
890.4484	1505.3032	9133	8213.45
890.5914	1507.1075	9100	8179.5
890.7345	1508.911	9041.2	8124.1
890.8776	1510.7138	9000.4	8082
891.0206	1512.5159	8947.8	8028.95
891.1637	1514.3172	8892.05	7974.9
891.3067	1516.1178	8851	7932.75
891.4497	1517.9176	8810.75	7890.55
891.5927	1519.7166	8767.45	7853.3
891.7357	1521.515	8737.1	7815.4
891.8786	1523.3126	8699.6	7783.15
892.0216	1525.1094	8652.95	7734.5
892.1645	1526.9055	8666.55	7749.3
892.3074	1528.7008	8598.1	7683.05
892.4503	1530.4954	8591.25	7674.7
892.5932	1532.2893	8562.7	7651.45
892.7361	1534.0824	8504.05	7586.75
892.879	1535.8747	8521.2	7608.35
893.0218	1537.6663	8490.05	7577.4
893.1647	1539.4572	8465.9	7555.3
893.3075	1541.2473	8477.5	7561.95
893.4503	1543.0367	8477.25	7565.85
893.5931	1544.8253	8475.55	7553.95
893.7359	1546.6132	8487.7	7569.85
893.8787	1548.4003	8504.85	7582.9
894.0214	1550.1867	8533.85	7612.8
894.1642	1551.9723	8592.55	7676.35
894.3069	1553.7572	8637.05	7723.5
894.4496	1555.5414	8729.9	7819.2
894.5923	1557.3247	8802.9	7893.4
894.735	1559.1074	8920.15	8009.7
894.8777	1560.8893	9029.45	8119.6
895.0204	1562.6705	9174.8	8265.45
895.163	1564.4509	9270.35	8362.3
895.3056	1566.2305	9294.85	8389.05
895.4482	1568.0094	9381.2	8475.9
895.5908	1569.7876	9358.3	8452.9
895.7334	1571.565	9337.25	8428.2
895.876	1573.3417	9333.4	8423.9
896.0186	1575.1176	9308.8	8401.6
896.1611	1576.8928	9286.4	8382.1
896.3036	1578.6672	9235.9	8334
896.4461	1580.4409	9198.15	8298.2
896.5886	1582.2138	9154.55	8251.4
896.7311	1583.986	9140.7	8233.1
896.8736	1585.7575	9137.55	8232
897.0161	1587.5282	9139	8236.85
897.1585	1589.2981	9178.45	8278
897.3009	1591.0673	9216.95	8314.6
897.4433	1592.8358	9275.05	8373.95
897.5857	1594.6035	9350.7	8443.05
897.7281	1596.3704	9407.55	8500.7
897.8705	1598.1366	9470.2	8565.65
898.0128	1599.9021	9543.05	8639.05
898.1551	1601.6668	9631.85	8727.7
898.2975	1603.4308	9732.65	8828.45
898.4398	1605.194	9872.15	8965.7
898.5821	1606.9564	10045.3	9146.35
898.7243	1608.7182	10261.35	9361.25
898.8666	1610.4791	10485	9590.85
899.0088	1612.2394	10721.25	9828.1
899.1511	1613.9988	10959.05	10063.7
899.2933	1615.7576	11188.3	10290.25
899.4355	1617.5156	11414.55	10506.05
899.5776	1619.2728	11528.2	10625.65
899.7198	1621.0293	11532.45	10630.4
899.862	1622.785	11416.3	10509.45
900.0041	1624.54	11182.6	10281.35
900.1462	1626.2942	10919.85	10021.85
900.2883	1628.0477	10619.65	9718.85
900.4304	1629.8005	10325.95	9423.35
900.5725	1631.5525	10051.95	9153.9
900.7145	1633.3037	9830.25	8932.2
900.8566	1635.0542	9656.75	8758.5
900.9986	1636.804	9497.05	8597.75
901.1406	1638.553	9509.85	8518.3
901.2826	1640.3013	9395.75	8497
901.4245	1642.0488	9336.5	8434.05
901.5665	1643.7955	9370.55	8473.55
901.7085	1645.5416	9429.65	8535.1
901.8504	1647.2868	9543.9	8646.7
901.9923	1649.0313	9642.95	8744.05
902.1342	1650.7751	9797.05	8896.9
902.2761	1652.5181	9938	9040.65
902.4179	1654.2604	10110.9	9216.35
902.5598	1656.0019	10341.4	9447.25
902.7016	1657.7427	10612.5	9715.85
902.8434	1659.4828	10873.75	9975.1
902.9852	1661.222	11017.4	10117.15
903.127	1662.9606	10979.65	10080
903.2687	1664.6984	10774.35	9876.9
903.4105	1666.4354	10357.2	9455.85
903.5522	1668.1717	9797.05	8895.8
903.6939	1669.9072	9255.6	8353.8
903.8356	1671.642	8783	7879.2
903.9773	1673.3761	8412.7	7513.3
904.119	1675.1094	8106.95	7209.3
904.2606	1676.8419	7840.6	6940.95
904.4022	1678.5737	7626	6726.3
904.5439	1680.3048	7476.05	6575.4
904.6855	1682.0351	7363.2	6462.25
904.827	1683.7646	7231.9	6331.55
904.9686	1685.4934	7153.5	6253.8
905.1101	1687.2215	7069.25	6171.15
905.2517	1688.9488	6998.6	6103.85
905.3932	1690.6754	6943.5	6045.3
905.5347	1692.4012	6896.7	5997.15
905.6761	1694.1263	6835.45	5939.5
905.8176	1695.8506	6806.05	5906.65
905.9591	1697.5742	6743.05	5846.9
906.1005	1699.297	6707.4	5814.65
906.2419	1701.0191	6662.85	5769.3
906.3833	1702.7404	6641.1	5746.45
906.5246	1704.461	6568.65	5669.8
906.666	1706.1808	6546.6	5648.95
906.8073	1707.8999	6510.6	5614.7
906.9487	1709.6182	6489.55	5599.4
907.09	1711.3358	6446.2	5557.15
907.2313	1713.0527	6404.15	5515
907.3725	1714.7688	6379.4	5479.4
907.5138	1716.4841	6356.55	5461.15
907.655	1718.1987	6339.85	5443.05
907.7962	1719.9126	6321.5	5430.55
907.9374	1721.6257	6274.7	5381.2
908.0786	1723.338	6289.35	5398.4
908.2198	1725.0496	6243.15	5349.85
908.3609	1726.7605	6239.7	5343.55
908.502	1728.4706	6225.35	5330.6
908.6431	1730.18	6181.65	5287.3
908.7842	1731.8886	6141.8	5249.7
908.9253	1733.5964	6179.95	5268.1
909.0664	1735.3036	6127.85	5234.8
909.2074	1737.0099	6110.55	5217.75
909.3484	1738.7156	6077.4	5186.75
909.4894	1740.4204	6016.6	5122.8
909.6304	1742.1246	6021.45	5128.1
909.7714	1743.8279	5980.55	5089.4
909.9123	1745.5306	5995.5	5102.7
910.0532	1747.2325	5942.3	5050.4
910.1941	1748.9336	5927.95	5037.4
910.335	1750.634	5920.45	5029.15
910.4759	1752.3336	5905.55	5014.1
910.6168	1754.0325	5877.3	4988.95
910.7576	1755.7307	5853.75	4964.55
910.8984	1757.4281	5835.65	4942.65
911.0392	1759.1247	5833.75	4931.6
911.18	1760.8206	5829.55	4932
911.3208	1762.5158	5816.05	4918.75
911.4615	1764.2102	5808.4	4915.6
911.6022	1765.9039	5789.25	4898.35
911.7429	1767.5968	5766.8	4876.6
911.8836	1769.289	5728.25	4839.55
912.0243	1770.9804	5731.3	4840.25
912.1649	1772.6711	5719.75	4827.75
912.3056	1774.361	5698.35	4803.8
912.4462	1776.0502	5707.5	4814.25
912.5868	1777.7386	5698.25	4803.1
912.7274	1779.4263	5671.1	4780.05
912.8679	1781.1132	5652.45	4764.65
913.0084	1782.7994	5617	4726.45
913.149	1784.4849	5642.5	4753.5
913.2895	1786.1696	5603.5	4706.6
913.4299	1787.8535	5598.1	4709.3
913.5704	1789.5367	5561.15	4674.25
913.7108	1791.2192	5590.35	4699.55
913.8513	1792.9009	5576.9	4659.75
913.9917	1794.5818	5559.65	4666.9
914.132	1796.2621	5546.25	4655.95
914.2724	1797.9415	5521.8	4629.9
914.4128	1799.6202	5509.55	4617.3
914.5531	1801.2982	5507.65	4617
914.6934	1802.9755	5500.1	4606.45
914.8337	1804.6519	5493.45	4599.25
914.9739	1806.3277	5456.4	4567.55
915.1142	1808.0027	5421.6	4532.35
915.2544	1809.6769	5425.15	4538.9
915.3946	1811.3504	5403.75	4516.7
915.5348	1813.0231	5401	4511.6
915.675	1814.6951	5385.8	4495.85
915.8151	1816.3664	5395.95	4503.9
915.9553	1818.0369	5380.15	4488.7
916.0954	1819.7067	5362.65	4474.5
916.2355	1821.3757	5354.35	4461.25
916.3755	1823.044	5336.45	4445.85
916.5156	1824.7115	5349.75	4455.7
916.6556	1826.3783	5312.9	4423.35
916.7956	1828.0443	5293	4404.7
916.9356	1829.7096	5293.85	4401.25
917.0756	1831.3741	5306.1	4411.95
917.2155	1833.0379	5269.3	4382.45
917.3555	1834.701	5241.5	4352.3
917.4954	1836.3633	5241.25	4352.55
917.6353	1838.0248	5239.8	4349.75
917.7751	1839.6856	5229.1	4339.5
917.915	1841.3457	5234.45	4345.5
918.0548	1843.005	5211.75	4321.95
918.1946	1844.6636	5202.9	4312.85
918.3344	1846.3214	5194.5	4303.5
918.4742	1847.9785	5192.2	4303.1
918.6139	1849.6349	5182.6	4290.9
918.7537	1851.2904	5191.85	4291.45
918.8934	1852.9453	5158.8	4266.6
919.0331	1854.5994	5161.1	4265.35
919.1727	1856.2528	5165.1	4269.65
919.3124	1857.9054	5136.05	4246.05
919.452	1859.5572	5128.15	4239.75
919.5916	1861.2083	5109.25	4219
919.7312	1862.8587	5119.05	4226.45
919.8708	1864.5084	5109.4	4214.2
920.0103	1866.1572	5093.35	4202.25
920.1498	1867.8054	5060.85	4167.85
920.2893	1869.4528	5060.9	4166.6
920.4288	1871.0994	5043.35	4152.8
920.5683	1872.7453	5039.9	4148.25
920.7077	1874.3905	5052.95	4144.1
920.8471	1876.0349	5024.1	4132.7
920.9865	1877.6786	5035.25	4143.9
921.1259	1879.3215	5018.55	4128.1
921.2653	1880.9637	4999.7	4108.25
921.4046	1882.6051	4963.55	4076.45
921.5439	1884.2458	4967.3	4072.65
921.6832	1885.8858	4933.25	4044.6
921.8225	1887.525	4946.65	4053
921.9617	1889.1634	4939.55	4046.5
922.101	1890.8011	4912.6	4020.85
922.2402	1892.4381	4910.85	4020.25
922.3794	1894.0743	4907.4	4016.95
922.5185	1895.7098	4886.7	3994.6
922.6577	1897.3446	4895.7	4002.65
922.7968	1898.9786	4864	3969.6
922.9359	1900.6118	4849.75	3959.95
923.075	1902.2443	4834.75	3945.3
923.214	1903.8761	4827.1	3937.75
923.3531	1905.5071	4800.75	3908.4
923.4921	1907.1374	4785.15	3895.7
923.6311	1908.7669	4773.2	3879.9
923.77	1910.3957	4784.25	3897.2
923.909	1912.0237	4764.45	3876.25
924.0479	1913.651	4754.45	3862.7
924.1868	1915.2776	4754.6	3868.1
924.3257	1916.9034	4721	3835.5
924.4646	1918.5285	4696.6	3809.65
924.6034	1920.1528	4695.45	3805.95
924.7422	1921.7764	4691.15	3799.9
924.881	1923.3992	4680.5	3791
925.0198	1925.0213	4646.75	3756
925.1586	1926.6427	4618.6	3730.7
925.2973	1928.2633	4790.15	3695.35
925.436	1929.8832	4634.15	3742.3
925.5747	1931.5023	4602.65	3713.2
925.7134	1933.1207	4576	3686.6
925.852	1934.7383	4559.6	3670.1
925.9906	1936.3552	4558.15	3670.25
926.1292	1937.9714	4562.2	3673.7
926.2678	1939.5868	4542.8	3652.25
926.4064	1941.2015	4512.5	3621.15
926.5449	1942.8154	4510.9	3619.1
926.6834	1944.4286	4480.35	3587.55
926.8219	1946.041	4476.5	3569.4
926.9604	1947.6528	4462.45	3565.75
927.0988	1949.2637	4455.85	3567.45
927.2372	1950.8739	4435.45	3546
927.3756	1952.4834	4420.7	3531.8
927.514	1954.0921	4411.5	3521.2
927.6523	1955.7001	4413.65	3522.7
927.7907	1957.3074	4393.05	3505.8
927.929	1958.9139	4372.05	3485.65
928.0673	1960.5197	4368.55	3479.7
928.2055	1962.1247	4338.3	3450.3
928.3438	1963.729	4329.25	3441.95
928.482	1965.3325	4322.35	3431.7
928.6202	1966.9353	4301.5	3417.05
928.7584	1968.5374	4293.55	3408.65
928.8965	1970.1387	4276.75	3389.6
929.0346	1971.7393	4265.3	3380.35
929.1727	1973.3392	4257.65	3371.25
929.3108	1974.9383	4253.55	3368.9
929.4489	1976.5366	4233.9	3348.4
929.5869	1978.1342	4231.95	3345.4
929.7249	1979.7311	4200.85	3314.75
929.8629	1981.3273	4211.4	3327.8
930.0009	1982.9227	4191.3	3304.5
930.1388	1984.5173	4167.55	3284.5
930.2767	1986.1112	4156.35	3274
930.4146	1987.7044	4166.2	3281.2
930.5525	1989.2968	4151.95	3266.85
930.6904	1990.8885	4159.15	3273.05
930.8282	1992.4795	4136.9	3250.5
930.966	1994.0697	4103.4	3221.9
931.1038	1995.6592	4092.75	3209.75
931.2415	1997.2479	4102.85	3216.15
931.3793	1998.8359	4101	3218.9
931.517	2000.4232	4074.3	3192.95
931.6547	2002.0097	4059.9	3180.35
931.7923	2003.5955	4038.6	3158.2
931.93	2005.1805	4050.05	3168.65
932.0676	2006.7648	4033.1	3152.2
932.2052	2008.3484	4035	3153.6
932.3427	2009.9312	4021.25	3139.75
932.4803	2011.5133	4004.2	3123.7
932.6178	2013.0946	4002.35	3124
932.7553	2014.6752	3987.65	3105.85
932.8928	2016.2551	3984.8	3102.1
933.0302	2017.8342	3973.2	3090.5
933.1676	2019.4126	3952.4	3072.65
933.305	2020.9902	3951.65	3071.65
933.4424	2022.5672	3946.4	3066.4
933.5798	2024.1433	3932.2	3048.6
933.7171	2025.7188	3923.65	3045.75
933.8544	2027.2935	3915.05	3034.3
933.9917	2028.8674	3893.6	3012.1
934.129	2030.4406	3884.5	3005.7
934.2662	2032.0131	3891.5	3015.6
934.4034	2033.5849	3871.7	2990.9
934.5406	2035.1559	3874.6	2995.85
934.6778	2036.7261	3862	2981.6
934.8149	2038.2957	3858.75	2976.75
934.952	2039.8645	3846.05	2962.25
935.0891	2041.4325	3847.6	2961.05
935.2262	2042.9998	3825.3	2943.55
935.3632	2044.5664	3831.2	2950.1
935.5002	2046.1323	3821.95	2942.05
935.6372	2047.6974	3811	2931.2
935.7742	2049.2617	3785.75	2905.1
935.9111	2050.8254	3813.55	2912.8
936.048	2052.3883	3792.9	2910
936.1849	2053.9504	3778.65	2897.3
936.3218	2055.5118	3764.75	2881.45
936.4586	2057.0725	3766.65	2881.95
936.5955	2058.6325	3750.45	2869.15
936.7323	2060.1917	3747.65	2868.9
936.869	2061.7502	3736.4	2851.65
937.0058	2063.3079	3707.9	2829.25
937.1425	2064.8649	3703.65	2819.1
937.2792	2066.4212	3708.7	2826.05
937.4159	2067.9767	3692.4	2808.75
937.5525	2069.5315	3677.25	2796.2
937.6891	2071.0856	3682.1	2802.45
937.8257	2072.6389	3670.75	2786.8
937.9623	2074.1915	3644.4	2766.85
938.0989	2075.7433	3642.55	2762.15
938.2354	2077.2945	3623.5	2744.9
938.3719	2078.8448	3626.3	2741.7
938.5084	2080.3945	3607.55	2723.75
938.6448	2081.9434	3617.05	2732.8
938.7812	2083.4916	3603	2719.05
938.9176	2085.039	3596.95	2708.2
939.054	2086.5857	3580.65	2692.6
939.1903	2088.1317	3582.55	2692.5
939.3267	2089.677	3569.8	2683.95
939.463	2091.2215	3563.15	2676.25
939.5992	2092.7652	3562.1	2671.5
939.7355	2094.3083	3554.4	2668.65
939.8717	2095.8506	3534.75	2649.9
940.0079	2097.3921	3553.55	2668.8
940.1441	2098.933	3535.9	2650.9
940.2802	2100.4731	3516.7	2632.5
940.4163	2102.0124	3518.5	2626
940.5524	2103.5511	3520.3	2634.4
940.6885	2105.089	3520.45	2633.95
940.8245	2106.6261	3486.6	2601.55
940.9606	2108.1626	3485.5	2601.75
941.0965	2109.6983	3519.5	2607.1
941.2325	2111.2332	3492.55	2608.05
941.3684	2112.7675	3476.25	2589.1
941.5044	2114.301	3467.8	2580
941.6403	2115.8337	3459.95	2576.55
941.7761	2117.3657	3450.5	2564.1
941.912	2118.897	3459.25	2573.95
942.0478	2120.4276	3447.25	2556.95
942.1835	2121.9575	3430.65	2544.05
942.3193	2123.4866	3419.4	2530.5
942.455	2125.0149	3421.95	2533.4
942.5907	2126.5426	3399.7	2516.05
942.7264	2128.0695	3386.55	2499.5
942.8621	2129.5956	3395.5	2516.35
942.9977	2131.1211	3384.05	2498.7
943.1333	2132.6458	3371.1	2487.2
943.2689	2134.1698	3372.3	2486.8
943.4044	2135.693	3367.25	2479.3
943.54	2137.2155	3363.4	2473.4
943.6755	2138.7373	3355.05	2469.9
943.8109	2140.2584	3336.85	2454.05
943.9464	2141.7787	3343.8	2457.95
944.0818	2143.2983	3306.4	2427.45
944.2172	2144.8171	3305.35	2425.65
944.3526	2146.3353	3295.65	2413.2
944.4879	2147.8527	3284.45	2402.8
944.6232	2149.3693	3298.45	2414.2
944.7585	2150.8853	3278.85	2393
944.8938	2152.4005	3262.25	2376
945.029	2153.9149	3267.6	2380.85
945.1642	2155.4287	3270.55	2384.55
945.2994	2156.9417	3261.65	2375.75
945.4346	2158.454	3247.8	2361.65
945.5697	2159.9655	3234.45	2352.8
945.7048	2161.4764	3247.85	2362.4
945.8399	2162.9865	3239.55	2355.6
945.9749	2164.4958	3236.35	2352.75
946.1099	2166.0045	3201.95	2316.5
946.2449	2167.5124	3217.1	2332.3
946.3799	2169.0195	3201.95	2317.55
946.5148	2170.526	3204.75	2318.1
946.6498	2172.0317	3203.45	2318.75
946.7846	2173.5367	3186.9	2303.05
946.9195	2175.0409	3170.45	2286.75
947.0543	2176.5445	3182.35	2297.55
947.1891	2178.0473	3169.6	2281.5
947.3239	2179.5494	3161.25	2273.05
947.4587	2181.0507	3157.65	2271.55
947.5934	2182.5513	3159.9	2274.4
947.7281	2184.0512	3148.8	2264.2
947.8628	2185.5504	3141.9	2257.45
947.9974	2187.0488	3117.2	2234.4
948.132	2188.5465	3128.7	2246.3
948.2666	2190.0435	3109.45	2224.45
948.4012	2191.5397	3106.85	2220.65
948.5357	2193.0353	3109.85	2225.2
948.6702	2194.5301	3097.05	2208.1
948.8047	2196.0241	3090.2	2202.15
948.9392	2197.5175	3073.2	2183.95
949.0736	2199.0101	3077	2185.25
949.208	2200.502	3053.4	2167.85
949.3424	2201.9931	3052.45	2170.75
949.4767	2203.4835	3044.75	2159.4
949.611	2204.9733	3038.3	2149.2
949.7453	2206.4622	3039.4	2156.6
949.8796	2207.9505	3016.5	2132.4
950.0138	2209.438	3009.9	2128.65
950.148	2210.9248	3001.7	2118.6
950.2822	2212.4109	2994.25	2106.85
950.4164	2213.8962	3003.1	2113.75
950.5505	2215.3809	2984.65	2096.2
950.6846	2216.8648	2994.5	2103.5
950.8186	2218.3479	2985.55	2092.2
950.9527	2219.8304	2978.65	2086.4
951.0867	2221.3121	2974.25	2081
951.2207	2222.7931	2959.3	2071.95
951.3546	2224.2733	2945.6	2058.9
951.4886	2225.7529	2934.45	2048.85
951.6225	2227.2317	2923.2	2035.85
951.7563	2228.7098	2929.7	2047.55
951.8902	2230.1872	2917.3	2032.45
952.024	2231.6638	2909.85	2028.3
952.1578	2233.1397	2907.6	2021.2
952.2916	2234.6149	2916.45	2033.8
952.4253	2236.0894	2893.3	2011.5
952.559	2237.5632	2903.8	2010.15
952.6927	2239.0362	2889.25	2005.85
952.8263	2240.5085	2859.4	1974.25
952.9599	2241.9801	2869.2	1984.55
953.0935	2243.4509	2857.45	1971.4
953.2271	2244.921	2860.15	1970.7
953.3606	2246.3904	2846.5	1955
953.4941	2247.8591	2837.2	1948.95
953.6276	2249.3271	2828.75	1943.95
953.7611	2250.7943	2823.95	1936.4
953.8945	2252.2608	2811.65	1924.25
954.0279	2253.7266	2808.3	1922.95
954.1612	2255.1917	2801.15	1917.3
954.2946	2256.656	2800.2	1913.55
954.4279	2258.1197	2804.45	1922.25
954.5612	2259.5826	2800.85	1914.8
954.6944	2261.0447	2795.35	1907.95
954.8276	2262.5062	2775.45	1884.65
954.9608	2263.9669	2774	1884.3
955.094	2265.4269	2775.25	1890.1
955.2271	2266.8862	2772.3	1888.2
955.3602	2268.3448	2765.1	1880.75
955.4933	2269.8026	2761	1876.25
955.6264	2271.2598	2745	1860.6
955.7594	2272.7162	2751.75	1868.2
955.8924	2274.1719	2748.2	1860.9
956.0253	2275.6268	2728.8	1841.65
956.1583	2277.0811	2740.75	1851.55
956.2912	2278.5346	2725.3	1841.35
956.4241	2279.9874	2711.15	1827.55
956.5569	2281.4395	2709.8	1827.8
956.6897	2282.8908	2700.85	1810.85
956.8225	2284.3414	2715.55	1832.2
956.9553	2285.7914	2693.55	1808.35
957.088	2287.2406	2691.2	1802.45
957.2207	2288.689	2686.35	1799.3
957.3534	2290.1368	2687.95	1796.45
957.486	2291.5838	2674.25	1781.2
957.6186	2293.0302	2684.7	1794.8
957.7512	2294.4758	2657.95	1770.2
957.8838	2295.9206	2666.75	1778.75
958.0163	2297.3648	2656.8	1771.8
958.1488	2298.8082	2648.7	1763.4
958.2813	2300.251	2641.85	1755.45
958.4137	2301.693	2649.3	1760.3
958.5461	2303.1343	2652	1762.15
958.6785	2304.5748	2640.2	1755.2
958.8108	2306.0147	2617.8	1731.85
958.9432	2307.4538	2624.05	1737.15
959.0754	2308.8922	2603.4	1721.25
959.2077	2310.3299	2610.5	1729.05
959.3399	2311.7669	2605.5	1720.6
959.4721	2313.2031	2595.35	1709.7
959.6043	2314.6387	2592.2	1704.5
959.7365	2316.0735	2583.7	1698.3
959.8686	2317.5076	2580.35	1692.65
960.0006	2318.941	2586.15	1700.85
960.1327	2320.3737	2572.7	1684.5
960.2647	2321.8056	2572.45	1681.25
960.3967	2323.2369	2566.85	1680.25
960.5287	2324.6674	2560.5	1674.95
960.6606	2326.0972	2551.85	1665.2
960.7925	2327.5263	2545.9	1658.1
960.9244	2328.9547	2564.15	1674.45
961.0562	2330.3823	2542	1651.8
961.1881	2331.8092	2548.2	1655.4
961.3198	2333.2355	2526.15	1637.3
961.4516	2334.661	2524.9	1635.95
961.5833	2336.0858	2528.35	1638.7
961.715	2337.5098	2521.55	1633.25
961.8467	2338.9332	2518.45	1629.9
961.9783	2340.3558	2491.8	1603
962.1099	2341.7778	2495.35	1608.85
962.2415	2343.199	2498.55	1609.7
962.373	2344.6195	2488.7	1602.5
962.5045	2346.0393	2491	1606.15
962.636	2347.4583	2488.9	1604.6
962.7675	2348.8767	2485.3	1596.45
962.8989	2350.2943	2488.2	1600.15
963.0303	2351.7113	2486.55	1595.65
963.1617	2353.1275	2484.8	1594.05
963.293	2354.543	2473.8	1574.25
963.4243	2355.9578	2459.65	1569.45
963.5556	2357.3718	2452.7	1568.05
963.6868	2358.7852	2444.35	1556.8
963.818	2360.1978	2442.9	1556.5
963.9492	2361.6098	2436.8	1553.65
964.0803	2363.021	2440.45	1552.6
964.2114	2364.4315	2436.85	1550.7
964.3425	2365.8413	2425.25	1539.15
964.4736	2367.2504	2419.85	1535.35
964.6046	2368.6587	2405.25	1521.1
964.7356	2370.0664	2405.8	1521.9
964.8666	2371.4733	2394.7	1508.9
964.9975	2372.8795	2395.4	1508.85
965.1284	2374.285	2390.2	1502.35
965.2593	2375.6899	2390.05	1506.05
965.3901	2377.0939	2380.4	1495.45
965.5209	2378.4973	2370.1	1486.8
965.6517	2379.9	2362.75	1477.1
965.7825	2381.3019	2357.85	1475.35
965.9132	2382.7032	2360.4	1476.65
966.0439	2384.1037	2355.2	1474.9
966.1745	2385.5035	2345.95	1463.55
966.3051	2386.9027	2347.5	1466.2
966.4357	2388.3011	2344.35	1457.6
966.5663	2389.6987	2332.65	1447.4
966.6968	2391.0957	2327.85	1445.75
966.8273	2392.492	2325.5	1443.65
966.9578	2393.8876	2319.5	1435.75
967.0882	2395.2824	2323.7	1438.55
967.2186	2396.6765	2307.85	1423.45
967.349	2398.07	2303.3	1419.3
967.4793	2399.4627	2302.7	1417.25
967.6097	2400.8547	2290.3	1403.8
967.7399	2402.246	2302.5	1413.65
967.8702	2403.6366	2285.45	1400.85
968.0004	2405.0265	2272.4	1387.8
968.1306	2406.4156	2271.5	1384.7
968.2607	2407.8041	2269	1383.15
968.3909	2409.1918	2273.9	1386.05
968.521	2410.5789	2267.4	1380.4
968.651	2411.9652	2267.5	1380.65
968.781	2413.3508	2251.7	1366.25
968.911	2414.7358	2237.35	1352.35
969.041	2416.12	2236.3	1351.7
969.1709	2417.5035	2238.8	1355.9
969.3008	2418.8863	2232.3	1346.95
969.4307	2420.2684	2226.15	1342.75
969.5606	2421.6497	2226.05	1339.8
969.6904	2423.0304	2209.4	1325.7
969.8201	2424.4104	2217.45	1333.05
969.9499	2425.7896	2216.45	1329.9
970.0796	2427.1682	2196.65	1313.5
970.2093	2428.546	2207.4	1321.65
970.3389	2429.9232	2201.6	1317.05
970.4685	2431.2996	2194.85	1309.1
970.5981	2432.6753	2187.8	1302.9
970.7277	2434.0503	2182.9	1297.75
970.8572	2435.4246	2189.95	1305.35
970.9867	2436.7982	2174.65	1286.45
971.1161	2438.1711	2175.55	1290.95
971.2456	2439.5433	2173.75	1287.55
971.375	2440.9148	2165.65	1274.65
971.5043	2442.2856	2165	1280.6
971.6336	2443.6557	2150.65	1265.5
971.7629	2445.025	2158.25	1274.9
971.8922	2446.3937	2153.05	1267.4
972.0214	2447.7617	2139.05	1254.45
972.1506	2449.1289	2144.65	1259.35
972.2798	2450.4955	2143.45	1255.3
972.4089	2451.8613	2135.85	1254
972.538	2453.2265	2132.45	1248.25
972.6671	2454.5909	2126.5	1241
972.7961	2455.9546	2131.7	1247.65
972.9251	2457.3177	2110.15	1224.5
973.0541	2458.68	2119.95	1233.35
973.1831	2460.0416	2117.15	1232
973.312	2461.4025	2121.5	1236.4
973.4408	2462.7627	2122.55	1226.55
973.5697	2464.1222	2102.75	1219.65
973.6985	2465.4811	2102.95	1216.2
973.8273	2466.8392	2094.45	1211.05
973.956	2468.1966	2095.05	1209.65
974.0847	2469.5533	2095.15	1207.35
974.2134	2470.9093	2102.15	1217.9
974.3421	2472.2645	2094.65	1208.45
974.4707	2473.6191	2087.7	1202.7
974.5993	2474.973	2079.65	1196
974.7278	2476.3262	2075.65	1189.75
974.8563	2477.6787	2074.55	1190.75
974.9848	2479.0305	2060.9	1177.5
975.1132	2480.3816	2063.05	1175.85
975.2417	2481.7319	2058.3	1173.95
975.37	2483.0816	2054.25	1167.35
975.4984	2484.4306	2060.05	1174.5
975.6267	2485.7789	2045.5	1161.35
975.755	2487.1264	2042.4	1156.55
975.8833	2488.4733	2038.9	1158.35
976.0115	2489.8195	2043.45	1150.55
976.1397	2491.165	2031.2	1143.05
976.2678	2492.5097	2037.35	1150.4
976.3959	2493.8538	2022.9	1140.4
976.524	2495.1972	2021	1136
976.6521	2496.5398	2013.5	1127.85
976.7801	2497.8818	2011.25	1124.25
976.9081	2499.2231	2004.05	1116.9
977.036	2500.5637	1997.35	1110.05
977.164	2501.9035	1997.5	1109.45
977.2918	2503.2427	2001.65	1113.3
977.4197	2504.5812	1998.9	1114.2
977.5475	2505.919	1997.3	1110.7
977.6753	2507.256	1989.05	1104.4
977.8031	2508.5924	1983.65	1098.45
977.9308	2509.9281	1976.25	1085.4
978.0585	2511.2631	1965.65	1081.5
978.1861	2512.5974	1973.45	1090.85
978.3137	2513.9309	1972.8	1088.6
978.4413	2515.2638	1991.6	1080.1
978.5689	2516.596	1957.1	1071.45
978.6964	2517.9275	1956.95	1071.75
978.8239	2519.2583	1950.15	1062.45
978.9513	2520.5884	1945.05	1058.05
979.0788	2521.9178	1943.6	1058.95
979.2062	2523.2465	1945.95	1062.75
979.3335	2524.5745	1945.9	1063.15
979.4608	2525.9018	1943.8	1057.55
979.5881	2527.2284	1935.45	1052.85
979.7154	2528.5543	1946.75	1061.4
979.8426	2529.8796	1932.9	1046.35
979.9698	2531.2041	1939.55	1055.1
980.0969	2532.5279	1931.95	1048.6
980.224	2533.851	1935.3	1051.15
980.3511	2535.1735	1917.45	1034.1
980.4781	2536.4952	1929.15	1043.45
980.6052	2537.8163	1917.5	1033.4
980.7321	2539.1366	1910.05	1027.45
980.8591	2540.4562	1911.25	1025
980.986	2541.7752	1922.4	1035.6
981.1129	2543.0935	1914.55	1027.05
981.2397	2544.411	1904.45	1018.4
981.3665	2545.7279	1893.15	1007.4
981.4933	2547.0441	1900.85	1014.9
981.62	2548.3596	1903.8	1013.6
981.7467	2549.6744	1900.55	1015.8
981.8734	2550.9885	1892.25	1004.75
982.0001	2552.3019	1898.2	1014
982.1267	2553.6146	1890.6	1004.2
982.2532	2554.9266	1886.1	999.45
982.3798	2556.2379	1878.85	993.3
982.5063	2557.5485	1874.15	988.35
982.6327	2558.8585	1882.75	990.8
982.7592	2560.1677	1879.4	988.4
982.8856	2561.4762	1885.5	998.5
983.0119	2562.7841	1876.35	986.95
983.1383	2564.0913	1875.95	991.8
983.2646	2565.3977	1873.15	988.45
983.3908	2566.7035	1871.65	984.7
983.517	2568.0086	1861.55	974.25
983.6432	2569.313	1863.3	977.5
983.7694	2570.6167	1857.15	969.35
983.8955	2571.9197	1858.45	973.55
984.0216	2573.222	1852	964.4
984.1476	2574.5236	1855.1	969.15
984.2737	2575.8246	1860.35	970.85
984.3996	2577.1248	1860.8	972.95
984.5256	2578.4244	1844.15	958.6
984.6515	2579.7232	1845.7	961.5
984.7774	2581.0214	1877.8	965.6
984.9032	2582.3189	1844.35	960
985.029	2583.6157	1850.05	963.6
985.1548	2584.9118	1849.55	962.15
985.2806	2586.2072	1842.15	957
985.4063	2587.5019	1843.35	959.55
985.5319	2588.7959	1834.55	947.75
985.6576	2590.0893	1847.4	958.15
985.7832	2591.3819	1851.25	966.8
985.9087	2592.6739	1847.15	961.9
986.0343	2593.9652	1843.7	956.7
986.1597	2595.2557	1836.5	951.7
986.2852	2596.5456	1836.1	949.05
986.4106	2597.8348	1833.75	949.6
986.536	2599.1234	1830.1	945.25
986.6614	2600.4112	1835.4	949
986.7867	2601.6983	1827.7	937.7
986.912	2602.9848	1832.4	947.65
987.0372	2604.2705	1825.95	933.1
987.1624	2605.5556	1821.65	936.8
987.2876	2606.84	1823.6	938.8
987.4128	2608.1237	1821.7	936
987.5379	2609.4067	1807.7	923.45
987.6629	2610.689	1817.85	926.2
987.788	2611.9707	1810.6	920.85
987.913	2613.2516	1816.2	928.2
988.0379	2614.5319	1791.25	905.1
988.1629	2615.8115	1790.65	906.55
988.2878	2617.0903	1792.3	908.85
988.4126	2618.3685	1786.45	902.15
988.5375	2619.6461	1789.15	902.6
988.6622	2620.9229	1791.45	908.65
988.787	2622.199	1775.85	888.85
988.9117	2623.4745	1779.85	895.8
989.0364	2624.7493	1770.2	884.25
989.161	2626.0234	1771.3	887.05
989.2857	2627.2968	1770.15	886
989.4102	2628.5695	1774.8	886.2
989.5348	2629.8415	1768.5	885.1
989.6593	2631.1128	1758.75	872.95
989.7837	2632.3835	1756.05	872.35
989.9082	2633.6535	1759.15	876.55
990.0326	2634.9228	1760.25	874.2
990.1569	2636.1914	1752.75	870.2
990.2812	2637.4593	1761.2	872.3
990.4055	2638.7265	1758.05	872.4
990.5298	2639.9931	1751.7	868.95
990.654	2641.259	1739.4	853
990.7782	2642.5242	1741.6	857.1
990.9023	2643.7887	1739.6	856.2
991.0264	2645.0525	1742.6	859.65
991.1505	2646.3156	1740.45	858.55
991.2745	2647.5781	1724.25	840.1
991.3985	2648.8398	1730.05	847.95
991.5225	2650.1009	1759.8	837.35
991.6464	2651.3613	1726.5	841.95
991.7703	2652.6211	1719.7	834.35
991.8942	2653.8801	1722.75	840
992.018	2655.1385	1719.8	832.6
992.1418	2656.3961	1715.45	829.9
992.2655	2657.6531	1716.75	831.85
992.3892	2658.9094	1717.4	834.2
992.5129	2660.1651	1713.85	832.75
992.6366	2661.42	1715.5	831.9
992.7602	2662.6743	1710.75	825.35
992.8837	2663.9279	1716.45	832.5
993.0073	2665.1808	1724.1	839.25
993.1307	2666.433	1716.95	832.4
993.2542	2667.6846	1721.15	838.85
993.3776	2668.9354	1717.95	830.55
993.501	2670.1856	1717.85	832.5
993.6244	2671.4351	1726.35	844.1
993.7477	2672.6839	1723.4	835.2
993.8709	2673.9321	1725.25	840.6
993.9942	2675.1795	1722.8	837.75
994.1174	2676.4263	1713.8	830.55
994.2405	2677.6724	1722.65	840.9
994.3637	2678.9179	1723.75	839.75
994.4868	2680.1626	1718.4	834.5
994.6098	2681.4067	1719.6	836.4
994.7328	2682.6501	1726.9	841.7
994.8558	2683.8928	1712.85	831.6
994.9788	2685.1348	1706.9	823.2
995.1017	2686.3761	1705.5	821.6
995.2245	2687.6168	1700.95	818.35
995.3474	2688.8568	1694.7	810.8
995.4702	2690.0961	1693.4	810.75
995.5929	2691.3348	1685	801.45
995.7156	2692.5727	1672.8	790
995.8383	2693.81	1674.7	791.2
995.961	2695.0466	1673.35	790.75
996.0836	2696.2826	1685.7	801.55
996.2062	2697.5178	1698.1	794.35
996.3287	2698.7524	1675.9	791.95
996.4512	2699.9863	1688.2	801.7
996.5737	2701.2195	1677.35	794.2
996.6961	2702.452	1684.95	801.7
996.8185	2703.6839	1687.85	805.4
996.9408	2704.9151	1687.2	804
997.0631	2706.1456	1689.2	804.25
997.1854	2707.3755	1696.35	812.7
997.3077	2708.6046	1704.2	816.45
997.4299	2709.8331	1711.25	828.6
997.552	2711.0609	1713.2	829.35
997.6742	2712.2881	1713.55	828.75
997.7963	2713.5145	1725.25	839.65
997.9183	2714.7403	1728.65	844.9
998.0403	2715.9654	1736.45	851.45
998.1623	2717.1899	1756.6	859
998.2842	2718.4136	1758	874.7
998.4062	2719.6367	1769.2	885.6
998.528	2720.8591	1779.4	889.2
998.6498	2722.0809	1794	911.75
998.7716	2723.3019	1794.5	907.7
998.8934	2724.5223	1802.1	918.45
999.0151	2725.7421	1806.8	923.6
999.1368	2726.9611	1802.45	916.4
999.2584	2728.1795	1813.75	926.3
999.38	2729.3972	1804.75	922.45
999.5016	2730.6142	1809.45	913.5
999.6231	2731.8306	1782.3	899.8
999.7446	2733.0462	1757.6	872.85
999.8661	2734.2612	1744.25	856.45
999.9875	2735.4756	1731.8	846.8
1000.1089	2736.6892	1701.7	816.1
1000.2302	2737.9022	1701.1	820.85
1000.3515	2739.1145	1675.8	791.85
1000.4728	2740.3262	1671.35	781.15
1000.594	2741.5372	1646.7	765.05
1000.7152	2742.7475	1638.5	755.5
1000.8363	2743.9571	1635.75	752.75
1000.9575	2745.1661	1629	741.3
1001.0785	2746.3744	1608.5	722.9
1001.1996	2747.582	1604.45	722.35
1001.3206	2748.7889	1596.5	710.85
1001.4415	2749.9952	1587.6	704.05
1001.5625	2751.2008	1586.75	703.55
1001.6833	2752.4057	1580.25	697.15
1001.8042	2753.61	1573.85	690.85
1001.925	2754.8136	1573.85	688.9
1002.0458	2756.0165	1575.45	693.1
1002.1665	2757.2188	1566.4	684.55
1002.2872	2758.4204	1565.55	681.3
1002.4078	2759.6213	1563.35	679.8
1002.5285	2760.8215	1568.95	681.5
1002.649	2762.0211	1565.8	682.25
1002.7696	2763.22	1564.15	676.95
1002.8901	2764.4182	1557.25	672.35
1003.0106	2765.6158	1555	669.65
1003.131	2766.8127	1548.75	667.15
1003.2514	2768.009	1543.05	662.05
1003.3717	2769.2045	1543.95	658.5
1003.492	2770.3994	1548.5	666.55
1003.6123	2771.5936	1541.25	658.45
1003.7325	2772.7872	1537.9	656.55
1003.8527	2773.9801	1529.7	645.8
1003.9729	2775.1723	1549.5	650.45
1004.093	2776.3639	1534.85	653.65
1004.2131	2777.5548	1526.05	642.2
1004.3331	2778.745	1527.3	643.85
1004.4531	2779.9346	1524.75	645.1
1004.5731	2781.1235	1524.25	640.5
1004.693	2782.3117	1522.95	641.45
1004.8129	2783.4992	1536.35	655.7
1004.9328	2784.6861	1534.7	653.2
1005.0526	2785.8723	1535.3	652.4
1005.1723	2787.0579	1537.9	655.25
1005.2921	2788.2428	1534.95	652.55
1005.4118	2789.427	1552.35	670.5
1005.5314	2790.6106	1551.6	669.85
1005.651	2791.7935	1570.1	686.4
1005.7706	2792.9757	1566.3	684.75
1005.8902	2794.1573	1578.6	691.5
1006.0097	2795.3382	1584.8	703.85
1006.1291	2796.5184	1597.35	718.55
1006.2485	2797.698	1600.3	715.25
1006.3679	2798.8769	1621.25	740.2
1006.4873	2800.0551	1633.3	749.6
1006.6066	2801.2327	1651.75	766.85
1006.7258	2802.4096	1660.15	778.65
1006.8451	2803.5859	1674	791.2
1006.9642	2804.7615	1688.25	804.5
1007.0834	2805.9364	1713.35	832.4
1007.2025	2807.1106	1732.55	852.8
1007.3216	2808.2842	1757.85	875.3
1007.4406	2809.4572	1792.9	911.95
1007.5596	2810.6294	1817.95	935.4
1007.6785	2811.801	1853.65	974
1007.7975	2812.972	1896.5	1014.7
1007.9163	2814.1423	1931.25	1048.05
1008.0352	2815.3119	1980.65	1099.35
1008.154	2816.4808	2019.2	1139.8
1008.2727	2817.6491	2080.5	1198.4
1008.3914	2818.8167	2112.9	1232.85
1008.5101	2819.9837	2170.9	1285.25
1008.6288	2821.15	2220.2	1339.75
1008.7474	2822.3157	2271.3	1390.7
1008.8659	2823.4807	2329.95	1449.6
1008.9844	2824.645	2381.7	1499
1009.1029	2825.8086	2410.45	1528.1
1009.2214	2826.9716	2478.75	1598.25
1009.3398	2828.134	2528.85	1650.6
1009.4581	2829.2957	2565.55	1684.5
1009.5764	2830.4567	2595.6	1716
1009.6947	2831.617	2619.75	1737.2
1009.813	2832.7767	2645.2	1764.5
1009.9312	2833.9358	2640.75	1759.2
1010.0493	2835.0941	2623.8	1739.15
1010.1675	2836.2519	2620.65	1739.5
1010.2855	2837.4089	2604.15	1721.15
1010.4036	2838.5653	2579.45	1698.6
1010.5216	2839.7211	2577.7	1699.25
1010.6396	2840.8761	2583.8	1701.4
1010.7575	2842.0306	2592.9	1713.8
1010.8754	2843.1843	2617.3	1737.4
1010.9932	2844.3374	2653.65	1774.15
1011.111	2845.4899	2702.75	1820.7
1011.2288	2846.6417	2764.75	1884.65
1011.3465	2847.7928	2824.5	1943.75
1011.4642	2848.9433	2896.65	2017.75
1011.5818	2850.0931	2964.3	2084.5
1011.6995	2851.2422	3037.9	2155.45
1011.817	2852.3907	3098.95	2218
1011.9345	2853.5385	3144.6	2260.9
1012.052	2854.6857	3215.05	2321.55
1012.1695	2855.8323	3246.75	2367.95
1012.2869	2856.9781	3302	2420
1012.4042	2858.1233	3343.3	2463.1
1012.5216	2859.2679	3394.45	2514.9
1012.6389	2860.4118	3450.3	2570
1012.7561	2861.555	3489.2	2602.55
1012.8733	2862.6976	3532.05	2649.75
1012.9905	2863.8395	3572.35	2691.25
1013.1076	2864.9808	3584.6	2704.65
1013.2247	2866.1214	3613.7	2734.6
1013.3417	2867.2614	3629.6	2748.95
1013.4587	2868.4007	3627.65	2744.5
1013.5757	2869.5393	3659	2776.4
1013.6926	2870.6773	3668.95	2787.25
1013.8095	2871.8146	3685.05	2798.35
1013.9263	2872.9513	3686	2801.8
1014.0431	2874.0874	3659.45	2775.8
1014.1599	2875.2227	3664.25	2781.1
1014.2766	2876.3574	3650	2766.65
1014.3933	2877.4915	3607.7	2726.85
1014.51	2878.6249	3580.35	2701.65
1014.6266	2879.7577	3572.8	2692.2
1014.7431	2880.8898	3554.55	2663.65
1014.8596	2882.0212	3528.4	2648.4
1014.9761	2883.152	3520.3	2640
1015.0925	2884.2821	3493.85	2615.15
1015.2089	2885.4116	3492.7	2615.2
1015.3253	2886.5405	3494.45	2613.2
1015.4416	2887.6686	3498.8	2614.4
1015.5579	2888.7962	3521	2642.65
1015.6741	2889.923	3521.5	2640.6
1015.7903	2891.0493	3542.6	2665.3
1015.9065	2892.1748	3544.4	2664.2
1016.0226	2893.2997	3557.6	2677.85
1016.1387	2894.424	3564.75	2684.7
1016.2547	2895.5476	3568.7	2687.25
1016.3707	2896.6706	3602.6	2725.95
1016.4866	2897.7929	3625	2742.75
1016.6025	2898.9145	3642.6	2763
1016.7184	2900.0355	3679.7	2799.35
1016.8342	2901.1559	3707.35	2826.6
1016.95	2902.2756	3741.85	2861.3
1017.0658	2903.3946	3756.25	2875.1
1017.1815	2904.513	3800.7	2917.9
1017.2971	2905.6308	3817.75	2937.35
1017.4127	2906.7479	3820	2940.75
1017.5283	2907.8643	3878.4	2996.6
1017.6439	2908.9801	3875.25	2993.2
1017.7594	2910.0953	3876.15	2996.75
1017.8748	2911.2098	3879.8	2996.45
1017.9902	2912.3236	3875.65	2989.75
1018.1056	2913.4368	3864.15	2982.2
1018.2209	2914.5494	3853.85	2971.75
1018.3362	2915.6613	3821.9	2937.45
1018.4515	2916.7725	3799.35	2916.2
1018.5667	2917.8831	3767.45	2885.7
1018.6819	2918.9931	3726.1	2843.85
1018.797	2920.1024	3706.8	2823.25
1018.9121	2921.211	3688.75	2808.5
1019.0271	2922.319	3680.5	2800.65
1019.1421	2923.4264	3658.85	2778.55
1019.2571	2924.5331	3636.2	2757.35
1019.372	2925.6391	3623.5	2742.2
1019.4869	2926.7445	3622.65	2744.35
1019.6017	2927.8493	3604.8	2725.4
1019.7165	2928.9534	3621.15	2739.05
1019.8313	2930.0569	3618.2	2734.95
1019.946	2931.1597	3623.1	2741.7
1020.0606	2932.2619	3615.3	2735.3
1020.1753	2933.3634	3607.85	2728.7
1020.2899	2934.4643	3626.8	2739.05
1020.4044	2935.5645	3614.8	2729.25
1020.5189	2936.6641	3582.85	2698.9
1020.6334	2937.763	3537.8	2657.95
1020.7478	2938.8613	3490.95	2608.7
1020.8622	2939.959	3454.7	2568.4
1020.9765	2941.056	3382.3	2504.25
1021.0908	2942.1523	3300.15	2417.25
1021.2051	2943.248	3225.2	2345.2
1021.3193	2944.3431	3139.45	2262.9
1021.4334	2945.4375	3037.95	2157
1021.5476	2946.5313	2941.1	2061.45
1021.6617	2947.6244	2838.75	1957.6
1021.7757	2948.7169	2752.25	1872.45
1021.8897	2949.8087	2656	1774.7
1022.0037	2950.8999	2543.65	1664.55
1022.1176	2951.9904	2485.8	1608
1022.2315	2953.0803	2420.45	1539.15
1022.3453	2954.1696	2355.85	1475.45
1022.4591	2955.2582	2305.2	1428.25
1022.5728	2956.3462	2262.7	1384.2
1022.6865	2957.4335	2214.1	1334
1022.8002	2958.5202	2184.15	1301.95
1022.9138	2959.6062	2138.4	1259.95
1023.0274	2960.6916	2130.7	1251.05
1023.141	2961.7764	2108.75	1229.25
1023.2545	2962.8605	2094.1	1214.65
1023.3679	2963.9439	2068.95	1188.4
1023.4813	2965.0267	2067	1186.75
1023.5947	2966.1089	2070.2	1170.45
1023.708	2967.1905	2047.35	1166.7
1023.8213	2968.2714	2046.55	1165.85
1023.9346	2969.3516	2042.85	1164.2
1024.0478	2970.4312	2062	1174.45
1024.1609	2971.5102	2043.95	1164.05
1024.274	2972.5885	2051.05	1170.95
1024.3871	2973.6662	2059.55	1174.65
1024.5002	2974.7432	2049.95	1171.95
1024.6132	2975.8196	2052.4	1172.9
1024.7261	2976.8954	2035.55	1158
1024.839	2977.9705	2034	1153.65
1024.9519	2979.045	2024	1145.95
1025.0647	2980.1188	2000.5	1121.35
1025.1775	2981.192	1969.8	1092.65
1025.2902	2982.2645	1973.15	1092.3
1025.4029	2983.3364	1937.7	1059.8
1025.5156	2984.4077	1914.25	1035.25
1025.6282	2985.4783	1887.2	1002.4
1025.7407	2986.5483	1859.8	980.6
1025.8532	2987.6177	1818.65	941.05
1025.9657	2988.6864	1798.1	916.6
1026.0782	2989.7545	1758.8	878.25
1026.1906	2990.8219	1723.55	844.7
1026.3029	2991.8887	1698.6	817.45
1026.4152	2992.9548	1664.9	785.75
1026.5275	2994.0204	1623.8	745.6
1026.6397	2995.0852	1594.5	716.55
1026.7519	2996.1495	1574.5	695.4
1026.864	2997.2131	1550.05	670.8
1026.9761	2998.276	1532.5	656.45
1027.0882	2999.3383	1505.45	627.65
1027.2002	3000.4	1488.75	607
1027.3122	3001.4611	1463.2	583.65
1027.4241	3002.5215	1441.55	562.85
1027.536	3003.5812	1436.8	559.8
1027.6478	3004.6404	1422.35	543.85
1027.7596	3005.6989	1412.3	531.2
1027.8714	3006.7567	1405.55	529.25
1027.9831	3007.8139	1419.65	511.8
1028.0947	3008.8705	1386.05	506.5
1028.2064	3009.9264	1377.95	495.45
1028.3179	3010.9818	1369.25	489.25
1028.4295	3012.0364	1367.85	490.2
1028.541	3013.0905	1361.15	482.05
1028.6524	3014.1439	1349.95	471.65
1028.7638	3015.1966	1342.85	464.5
1028.8752	3016.2487	1345.05	466.05
1028.9865	3017.3002	1350.75	464.9
1029.0978	3018.3511	1347.35	468.5
1029.209	3019.4013	1336.95	458.75
1029.3202	3020.4509	1341.4	463.85
1029.4314	3021.4998	1334.9	453.9
1029.5425	3022.5481	1338.75	459.8
1029.6535	3023.5958	1336.65	459.65
1029.7645	3024.6428	1329.55	450.15
1029.8755	3025.6892	1331.1	453.25
1029.9864	3026.735	1331	452.7
1030.0973	3027.7802	1335.75	457
1030.2082	3028.8247	1338.85	460.9
1030.319	3029.8685	1339.9	461.2
1030.4297	3030.9118	1334.6	455.4
1030.5404	3031.9544	1335.1	458.2
1030.6511	3032.9963	1341.55	461.7
1030.7617	3034.0376	1345.55	466.45
1030.8723	3035.0783	1352.9	472.1
1030.9829	3036.1184	1348.7	470.2
1031.0934	3037.1578	1350.6	474.3
1031.2038	3038.1966	1356.45	477.15
1031.3142	3039.2348	1354	476.05
1031.4246	3040.2723	1360.2	474.9
1031.5349	3041.3092	1351.65	474
1031.6452	3042.3455	1356.85	476.85
1031.7554	3043.3811	1350.3	472.15
1031.8656	3044.4161	1344.65	463.8
1031.9758	3045.4505	1345.15	468.95
1032.0859	3046.4842	1342.65	463.1
1032.1959	3047.5173	1336.6	459.55
1032.3059	3048.5498	1333.3	454.75
1032.4159	3049.5816	1327.05	449.3
1032.5258	3050.6128	1323.65	446.55
1032.6357	3051.6434	1320.15	442.25
1032.7455	3052.6734	1315.3	435.65
1032.8553	3053.7027	1312	433.05
1032.9651	3054.7314	1305.5	427.8
1033.0748	3055.7594	1302.8	425.1
1033.1845	3056.7868	1302.2	423.35
1033.2941	3057.8136	1295.75	417.65
1033.4037	3058.8398	1292.05	414.05
1033.5132	3059.8653	1287.6	411.1
1033.6227	3060.8902	1282.95	403.65
1033.7321	3061.9145	1276.55	400.55
1033.8415	3062.9381	1281.4	402.2
1033.9509	3063.9612	1291.45	397.55
1034.0602	3064.9835	1269.4	392.25
1034.1694	3066.0053	1264.7	385.7
1034.2787	3067.0264	1258.45	380.15
1034.3878	3068.0469	1255.6	376.8
1034.497	3069.0668	1254.45	371.6
1034.6061	3070.086	1238.95	363.75
1034.7151	3071.1046	1234.65	355.9
1034.8241	3072.1226	1233.15	355.2
1034.9331	3073.1399	1223.35	346.1
1035.042	3074.1567	1219	341.55
1035.1508	3075.1727	1206.45	325.65
1035.2597	3076.1882	1200.3	322.6
1035.3684	3077.203	1192.35	315.5
1035.4772	3078.2173	1185.3	306.65
1035.5859	3079.2308	1184.65	304.45
1035.6945	3080.2438	1173.05	295.45
1035.8031	3081.2561	1166.1	287.4
1035.9117	3082.2678	1157.55	280.75
1036.0202	3083.2789	1154.2	275.95
1036.1286	3084.2893	1147.55	270.55
1036.2371	3085.2991	1140.6	262.1
1036.3454	3086.3083	1141.75	259
1036.4538	3087.3169	1133.1	254.9
1036.562	3088.3248	1127.5	248.1
1036.6703	3089.3321	1119.65	242
1036.7785	3090.3388	1116.05	239.85
1036.8866	3091.3449	1120.35	240.75
1036.9948	3092.3503	1117.35	238.85
1037.1028	3093.3551	1106.25	230.15
1037.2108	3094.3593	1101.75	224.25
1037.3188	3095.3629	1103.2	224.8
1037.4267	3096.3658	1098.25	218.85
1037.5346	3097.3681	1097.95	220.7
1037.6425	3098.3698	1091.4	212.3
1037.7503	3099.3708	1091.65	209.1
1037.858	3100.3713	1082.3	205.45
1037.9657	3101.3711	1079.55	201.6
1038.0734	3102.3702	1216.15	204.5
1038.181	3103.3688	1087.4	209
1038.2886	3104.3667	1078.7	201.3
1038.3961	3105.364	1076.95	198.5
1038.5036	3106.3607	1073.25	194.5
1038.611	3107.3568	1067.75	190.85
1038.7184	3108.3522	1066.2	191
1038.8257	3109.347	1065.8	187.65
1038.933	3110.3412	1067.85	187
1039.0403	3111.3348	1060.15	184
1039.1475	3112.3277	1057.5	178.9
1039.2547	3113.32	1059.6	181.65
1039.3618	3114.3117	1053.6	174.2
1039.4689	3115.3028	1054.15	176.9
1039.5759	3116.2932	1053.55	173.4
1039.6829	3117.2831	1056.55	174.15
1039.7898	3118.2723	1048.25	172.35
1039.8967	3119.2608	1046.9	168.25
1040.0035	3120.2488	1049.45	174.25
1040.1103	3121.2361	1045.3	168.5
1040.2171	3122.2229	1046.2	167.7
1040.3238	3123.209	1044.5	166.9
1040.4305	3124.1944	1036.8	159.15
1040.5371	3125.1793	1037.05	160.45
1040.6437	3126.1635	1033.05	155.9
1040.7502	3127.1471	1034.75	157.65
1040.8567	3128.1301	1032.65	154.45
1040.9631	3129.1125	1031.25	152.95
1041.0695	3130.0942	1032.55	155.3
1041.1759	3131.0753	1041.4	155.55
1041.2822	3132.0558	1033.9	154
1041.3884	3133.0357	1028.25	152.6
1041.4946	3134.015	1025.65	147.8
1041.6008	3134.9936	1024.7	146.9
1041.7069	3135.9716	1045.5	147.75
1041.813	3136.949	1025.3	148.55
1041.919	3137.9258	1041.55	145
1042.025	3138.902	1024.25	139.35
1042.1309	3139.8775	1023.35	147.9
1042.2368	3140.8524	1017.3	140.6
1042.3427	3141.8267	1020.4	140.6
1042.4485	3142.8004	1016.85	140.25
1042.5542	3143.7735	1017.45	133.6
1042.6599	3144.7459	1016.6	136.8
1042.7656	3145.7178	1014.45	136.05
1042.8712	3146.689	1013.15	136.65
1042.9768	3147.6596	1011.6	131.35
1043.0823	3148.6295	1012.1	133.9
1043.1878	3149.5989	1010.4	133.9
1043.2932	3150.5676	1004.1	128.45
1043.3986	3151.5357	1011.6	137.3
1043.5039	3152.5032	1006.8	132.4
1043.6092	3153.4701	1006.45	128.95
1043.7145	3154.4364	1005.65	125.8
1043.8197	3155.402	998.8	123.15
1043.9248	3156.367	1005.15	126.4
1044.03	3157.3315	1035.25	128.45
1044.135	3158.2952	999.3	122.05
1044.24	3159.2584	1000.4	122.1
1044.345	3160.221	999.7	121.6
1044.4499	3161.1829	999.3	122.2
1044.5548	3162.1442	996.35	120.5
1044.6596	3163.105	995.2	119.8
1044.7644	3164.065	994.9	116.75
1044.8692	3165.0245	991.95	114.65
1044.9739	3165.9834	991.7	114.8
1045.0785	3166.9416	996.4	119.5
1045.1831	3167.8993	993.85	117.65
1045.2877	3168.8563	992.6	113
1045.3922	3169.8127	989.35	113.3
1045.4966	3170.7684	990.7	113.4
1045.6011	3171.7236	987.4	111.25
1045.7054	3172.6782	990.85	114.45
1045.8098	3173.6321	990.5	112.2
1045.914	3174.5854	992.25	112.2
1046.0183	3175.5381	985.1	105.65
1046.1224	3176.4902	986.4	109.2
1046.2266	3177.4417	986.5	109.5
1046.3307	3178.3926	984.15	108.5
1046.4347	3179.3428	981.9	106.85
1046.5387	3180.2924	982.3	105.7
1046.6427	3181.2415	981.2	104.55
1046.7466	3182.1899	983.15	107.35
1046.8504	3183.1377	983.3	106.1
1046.9542	3184.0848	983.85	105.15
1047.058	3185.0314	979.35	101.05
1047.1617	3185.9773	977.8	99.2
1047.2654	3186.9227	980.05	104.15
1047.369	3187.8674	978.7	103.45
1047.4726	3188.8115	982.1	100.8
1047.5761	3189.755	976.8	99.85
1047.6796	3190.6979	974.65	98.5
1047.783	3191.6402	976.05	101.2
1047.8864	3192.5818	975.15	98.4
1047.9898	3193.5229	989.85	95.65
1048.0931	3194.4633	975	98.8
1048.1963	3195.4031	971.65	93.65
1048.2995	3196.3423	974.2	98.85
1048.4027	3197.2809	972.2	96.05
1048.5058	3198.2189	970.4	92.3
1048.6089	3199.1563	974.95	92
1048.7119	3200.0931	965.55	89.4
1048.8148	3201.0292	968.3	93.65
1048.9178	3201.9648	967	92.4
1049.0206	3202.8997	972.2	93.1
1049.1235	3203.834	964.25	87.4
1049.2262	3204.7677	967.6	90.05
1049.329	3205.7008	969.95	92.35
1049.4317	3206.6333	964	90.45
1049.5343	3207.5652	967.8	90.3
1049.6369	3208.4964	966.4	90.6
1049.7394	3209.4271	964.85	88.8
1049.8419	3210.3571	963.3	89.3
1049.9444	3211.2865	964.85	86.85
1050.0468	3212.2154	967.2	92.4
1050.1491	3213.1436	965	84.55
1050.2514	3214.0712	970.75	87.7
1050.3537	3214.9982	962.15	85.45
1050.4559	3215.9246	963.2	85.25
1050.5581	3216.8503	960.2	84.7
1050.6602	3217.7755	960.05	85.2
1050.7623	3218.7001	963.95	85.55
1050.8643	3219.624	960.5	84.45
1050.9663	3220.5473	957.6	80.35
1051.0682	3221.4701	957.85	79.95
1051.1701	3222.3922	955.9	77.7
1051.2719	3223.3137	957.85	82.75
1051.3737	3224.2346	955.3	78.5
1051.4754	3225.1549	954.9	79.45
1051.5771	3226.0746	954.95	78.7
1051.6788	3226.9937	958.85	83.95
1051.7804	3227.9121	952.3	77.4
1051.8819	3228.83	953.25	77.75
1051.9834	3229.7473	955.1	77.4
1052.0849	3230.6639	958.2	81.15
1052.1863	3231.5799	951.5	76.3
1052.2876	3232.4954	955.6	78.75
1052.3889	3233.4102	952.5	77.05
1052.4902	3234.3244	955.25	78.6
1052.5914	3235.238	951	76.6
1052.6926	3236.151	964.15	73.2
1052.7937	3237.0634	949.45	75.1
1052.8948	3237.9752	949.6	73
1052.9958	3238.8864	949.05	71.1
1053.0968	3239.797	950.45	73.9
1053.1977	3240.7069	953.6	77.45
1053.2986	3241.6163	952.15	73.65
1053.3994	3242.5251	947.75	71.05
1053.5002	3243.4332	945.35	70.45
1053.6009	3244.3408	947.25	70.8
1053.7016	3245.2477	945.1	69.4
1053.8022	3246.154	948.7	70.3
1053.9028	3247.0598	946.7	69.75
1054.0034	3247.9649	944.55	68.65
1054.1039	3248.8694	943.15	66.15
1054.2043	3249.7733	942.2	67.05
1054.3047	3250.6766	940.55	63.85
1054.4051	3251.5793	942.1	64.7
1054.5054	3252.4814	941.75	65.6
1054.6056	3253.3829	941.5	67.7
1054.7058	3254.2838	940.45	64.7
1054.806	3255.1841	938.9	62.95
1054.9061	3256.0838	940.9	65.35
1055.0061	3256.9829	940.75	63.8
1055.1062	3257.8814	942.8	65.4
1055.2061	3258.7792	939.05	61.5
1055.306	3259.6765	938.45	62.75
1055.4059	3260.5731	935	60.35
1055.5057	3261.4692	935.1	58.35
1055.6055	3262.3647	937.4	61.8
1055.7052	3263.2595	934.4	58
1055.8049	3264.1538	939.3	64.6
1055.9045	3265.0474	934.45	58.55
1056.0041	3265.9404	933.4	58.85
1056.1036	3266.8329	930.4	54.55
1056.2031	3267.7247	936.5	51.9
1056.3025	3268.616	926.6	51.9
1056.4019	3269.5066	927	50
1056.5013	3270.3966	927.2	49.85
1056.6005	3271.286	921.95	46.45
