Software Version:	3.9.2.0
Unit SN:	10000200
Spectrometer SN:	6960
Date:	3/8/2024 12:19:33 PM
Data Line Index:	25
Spectral Points:	2048
Integration time (ms):	125
Averages:	20
Delay (ms):	30000
Sequence Number:	1
Processing:	dark subtract
Laser Power (mW):	305
Laser Current (mA):	822
Laser Diode Temp (C):	25.1
Laser Case Temp (C):	25.8
System Temp (C):	25.7
Spectrometer Temp (C):	23.6
CCD Temp (C):	0.004
Secondary Temp (C):	20.011
Heatsink Temp (C):	20.649
CCDPCB Temp (C):	35.862
SecondaryPCB Temp (C):	29.115

Wavelength	RamanShift	Raw Counts	Dark Subtracted
787.061	30.1047	439.75	31.55
787.2016	32.3739	441.15	33.95
787.3422	34.6426	445.45	38.45
787.4828	36.9109	449.9	40
787.6235	39.1787	455.55	42.05
787.7642	41.4461	467.35	49.55
787.9049	43.7131	471.35	48.9
788.0456	45.9796	479.95	54.85
788.1863	48.2456	485.4	57
788.3271	50.5112	493.2	59.3
788.4679	52.7764	503.45	67.95
788.6087	55.0411	509.8	71.05
788.7496	57.3054	519.9	72.75
788.8904	59.5692	525.85	78.4
789.0313	61.8326	536.95	88.55
789.1722	64.0955	547.65	93.65
789.3132	66.3579	558.45	100.4
789.4541	68.6199	576.85	114.9
789.5951	70.8815	605.3	138.5
789.7361	73.1426	676.3	205.6
789.8771	75.4032	852.9	379.1
790.0181	77.6634	1292.65	813.85
790.1592	79.9231	2309.95	1826
790.3003	82.1824	4465.5	3967.65
790.4414	84.4412	8240.35	7721.85
790.5825	86.6995	13313.7	12770.05
790.7237	88.9574	18094	17526.85
790.8648	91.2148	21290.65	20707.3
791.006	93.4717	22615.65	22022.1
791.1472	95.7282	22691.75	22096.3
791.2885	97.9842	22263.2	21658.85
791.4297	100.2398	21495.55	20889.95
791.571	102.4949	20649.75	20043.5
791.7123	104.7495	19772.35	19160.1
791.8536	107.0036	18907.4	18299.4
791.9949	109.2573	18107.75	17497.95
792.1363	111.5105	17396.35	16783.9
792.2777	113.7632	16769.45	16153.55
792.4191	116.0154	16259.2	15633.55
792.5605	118.2672	15867.75	15245.3
792.7019	120.5185	15494.25	14869
792.8434	122.7693	15195.05	14567.7
792.9849	125.0197	14928	14298.6
793.1264	127.2696	14682.3	14047.3
793.2679	129.519	14469.55	13833.5
793.4094	131.7679	14185.5	13545.7
793.551	134.0163	13926.8	13286.7
793.6926	136.2642	13577.85	12932.85
793.8342	138.5117	13228.05	12571.5
793.9758	140.7587	12819.8	12169.6
794.1175	143.0052	12508.85	11856.2
794.2591	145.2512	12145.4	11493.35
794.4008	147.4967	11832.45	11176.6
794.5425	149.7417	11607.9	10951.95
794.6842	151.9863	11434.6	10777.45
794.826	154.2304	11322.1	10657.35
794.9677	156.4739	11166.9	10496.3
795.1095	158.717	11057.4	10386.7
795.2513	160.9596	10894.6	10221.8
795.3931	163.2017	10699.55	10023.9
795.535	165.4433	10443.35	9762.75
795.6768	167.6844	10152.05	9473.9
795.8187	169.925	9891.55	9210.35
795.9606	172.1651	9564	8879.8
796.1025	174.4047	9303.55	8616.9
796.2445	176.6439	9081.55	8394
796.3864	178.8825	8875.35	8182.2
796.5284	181.1206	8741.75	8041.2
796.6704	183.3582	8620.5	7914.5
796.8124	185.5954	8571.2	7865.65
796.9544	187.832	8502.8	7793.35
797.0965	190.0681	8480.55	7769
797.2386	192.3037	8457.3	7741.3
797.3806	194.5388	8453.95	7736.55
797.5228	196.7734	8486.85	7768.35
797.6649	199.0075	8525	7802.25
797.807	201.2411	8628	7905.15
797.9492	203.4742	8681.3	7958.5
798.0914	205.7068	8819.9	8089.15
798.2336	207.9389	8895.65	8166.55
798.3758	210.1704	9048.6	8319.05
798.518	212.4015	9144	8429.15
798.6603	214.632	9261.95	8553.5
798.8025	216.862	9371.7	8668.55
798.9448	219.0915	9460.75	8753.25
799.0871	221.3205	9506.05	8793.45
799.2294	223.549	9531.65	8825.8
799.3718	225.777	9576.6	8872.25
799.5141	228.0044	9613	8900.2
799.6565	230.2314	9661.8	8948.05
799.7989	232.4578	9690.35	8974.1
799.9413	234.6837	9737.8	9012
800.0837	236.909	9776.55	9046
800.2262	239.1339	9756.2	9004.3
800.3687	241.3582	9702.25	8964.25
800.5111	243.582	9655.2	8888.8
800.6536	245.8053	9629.4	8873.3
800.7961	248.0281	9605.85	8854.75
800.9387	250.2503	9650.35	8896.55
801.0812	252.472	9732.9	8976.4
801.2238	254.6932	9855.6	9102.1
801.3664	256.9139	9991.25	9234.75
801.509	259.134	10195	9433.7
801.6516	261.3536	10443.25	9684.65
801.7942	263.5727	10754.1	9995.15
801.9369	265.7912	11061.35	10304.45
802.0795	268.0092	11376.55	10613.5
802.2222	270.2267	11605.6	10843.7
802.3649	272.4436	11780.8	11019.2
802.5076	274.6601	11869.9	11098.45
802.6504	276.8759	11805.15	11039.65
802.7931	279.0913	11722.2	10955.6
802.9359	281.3061	11625.95	10856.05
803.0787	283.5204	11580.1	10806.95
803.2215	285.7341	11543.25	10765.4
803.3643	287.9473	11539.7	10762.5
803.5071	290.16	11506.3	10721.3
803.6499	292.3721	11541.35	10771.1
803.7928	294.5837	11653.75	10876.85
803.9357	296.7947	11796.1	11019.3
804.0786	299.0052	11947.95	11171.45
804.2215	301.2152	11974.35	11195.65
804.3644	303.4246	11871.1	11094.9
804.5074	305.6334	11607.75	10830.1
804.6503	307.8418	11300.15	10522.35
804.7933	310.0495	10949.2	10169.15
804.9363	312.2568	10554.25	9771.45
805.0793	314.4635	10148.75	9359.85
805.2223	316.6696	9824.4	9037.35
805.3653	318.8752	9583.3	8786.25
805.5084	321.0802	9471.65	8685.6
805.6514	323.2847	9464.2	8672.55
805.7945	325.4887	9460.8	8669.85
805.9376	327.692	9485.4	8691.7
806.0807	329.8949	9473.9	8680.15
806.2238	332.0972	9350.85	8554.35
806.367	334.2989	9181.75	8380.9
806.5101	336.5001	8975.9	8176.5
806.6533	338.7007	8778.55	7979.9
806.7965	340.9008	8606.95	7804.6
806.9397	343.1003	8426.95	7625.5
807.0829	345.2992	8321.9	7518.65
807.2261	347.4976	8186.5	7385
807.3693	349.6955	8129.45	7320.35
807.5126	351.8927	8072.75	7265.25
807.6559	354.0895	7997.95	7179.75
807.7991	356.2856	7947.55	7134.05
807.9424	358.4812	7895.4	7083.95
808.0857	360.6763	7873.4	7058.6
808.2291	362.8707	7851.4	7036.2
808.3724	365.0646	7901	7083.95
808.5158	367.258	7922.2	7105.4
808.6591	369.4508	8010.15	7189.2
808.8025	371.643	8124.55	7302.65
808.9459	373.8346	8257.05	7434.3
809.0893	376.0257	8365.95	7539.55
809.2327	378.2162	8440.5	7618
809.3762	380.4062	8434.45	7608.05
809.5196	382.5956	8340.75	7517.2
809.6631	384.7844	8238.5	7420.15
809.8066	386.9726	8091.95	7273.65
809.9501	389.1603	8006.8	7191.9
810.0936	391.3474	7994.8	7138.2
810.2371	393.5339	7950.55	7131.05
810.3806	395.7199	7937.7	7122.95
810.5241	397.9052	8025.25	7207.95
810.6677	400.09	8098.75	7280.7
810.8113	402.2743	8269	7448.75
810.9548	404.4579	8445.65	7626.45
811.0984	406.641	8639.15	7816.95
811.2421	408.8235	8771.05	7947.35
811.3857	411.0054	8857.05	8032.05
811.5293	413.1868	8967.7	8138.25
811.673	415.3675	8978.5	8146.7
811.8166	417.5477	8938	8106.35
811.9603	419.7273	8871.65	8036.65
812.104	421.9064	8812.6	7973.15
812.2477	424.0848	8741.5	7904.75
812.3914	426.2627	8640.35	7805.15
812.5351	428.4399	8455.1	7619.55
812.6788	430.6166	8147.45	7305.1
812.8226	432.7928	7860.3	7017.65
812.9663	434.9683	7609.15	6769.95
813.1101	437.1432	7415.8	6575.1
813.2539	439.3176	7263.2	6426.7
813.3977	441.4914	7164.55	6328.7
813.5415	443.6645	7138.35	6300.75
813.6853	445.8371	7079.35	6237.35
813.8291	448.0091	7083.85	6245.25
813.973	450.1806	7070.8	6233.1
814.1168	452.3514	7075.9	6238.15
814.2607	454.5216	7117.45	6267.9
814.4046	456.6913	7112.15	6270.5
814.5485	458.8603	7199.3	6357.85
814.6924	461.0288	7198	6359.5
814.8363	463.1967	7202.9	6366.8
814.9802	465.3639	7193.85	6353.65
815.1241	467.5306	7183.95	6343.7
815.2681	469.6967	7149.3	6311.75
815.412	471.8622	7159.2	6320.8
815.556	474.0271	7160.55	6320.45
815.7	476.1914	7196.25	6345.75
815.844	478.3551	7219.15	6371.7
815.988	480.5182	7269.55	6429.45
816.132	482.6807	7344.95	6502.9
816.276	484.8426	7515.1	6682.15
816.4201	487.0039	7823.4	6986.65
816.5641	489.1647	8154.35	7310.65
816.7082	491.3248	8424.65	7578.35
816.8522	493.4843	8507.85	7664
816.9963	495.6432	8457.4	7613.7
817.1404	497.8015	8325.2	7474.35
817.2845	499.9592	8229.3	7374.1
817.4286	502.1163	7992.55	7135.8
817.5727	504.2728	7733.95	6885.55
817.7168	506.4287	7456.05	6611
817.861	508.5839	7211	6366.7
818.0051	510.7386	7062.35	6214.9
818.1493	512.8927	7015.6	6158
818.2935	515.0461	7029.4	6174.85
818.4377	517.199	7115.55	6262.45
818.5818	519.3512	7302.65	6446.1
818.726	521.5029	7599.6	6739.35
818.8703	523.6539	7865.55	7008.55
819.0145	525.8043	7988.55	7129.5
819.1587	527.9541	7921.15	7062.55
819.303	530.1033	7704.15	6847.35
819.4472	532.2519	7511.95	6650.65
819.5915	534.3999	7428.45	6568.4
819.7357	536.5472	7444.4	6584.1
819.88	538.694	7533.3	6673.5
820.0243	540.8401	7721.25	6859.7
820.1686	542.9856	7869.05	7002.2
820.3129	545.1305	7888.05	7017.65
820.4572	547.2748	7818.55	6946.05
820.6016	549.4185	7695.85	6821.05
820.7459	551.5615	7626.3	6757.95
820.8902	553.704	7694.15	6822.45
821.0346	555.8458	7796.5	6925.5
821.1789	557.987	7989.3	7124.75
821.3233	560.1276	8246.2	7379.95
821.4677	562.2675	8639.05	7775
821.6121	564.4069	9198.05	8331.95
821.7565	566.5456	9682.75	8821.05
821.9009	568.6837	9872.75	9008.35
822.0453	570.8212	9508.35	8647.65
822.1897	572.958	8857.65	7992.1
822.3342	575.0942	8222.6	7359.65
822.4786	577.2299	7756.7	6894.8
822.6231	579.3648	7501.45	6645.65
822.7675	581.4992	7439.4	6591.15
822.912	583.6329	7553.9	6701.75
823.0565	585.766	7691.45	6837.85
823.201	587.8985	7821.4	6964.3
823.3454	590.0304	7924.7	7035.6
823.4899	592.1616	7919.25	7050.85
823.6345	594.2922	7820.6	6948.95
823.779	596.4222	7650.75	6777.7
823.9235	598.5515	7444.05	6569.45
824.068	600.6802	7280.1	6404.95
824.2126	602.8083	7167.5	6296.35
824.3571	604.9358	7131.6	6257.7
824.5017	607.0626	7179.15	6305.9
824.6462	609.1888	7309.9	6432.7
824.7908	611.3144	7489.3	6611.3
824.9354	613.4393	7641.7	6765.25
825.08	615.5636	7801.45	6925.95
825.2246	617.6873	7877.45	7001.8
825.3692	619.8103	7824.6	6947.3
825.5138	621.9327	7634.85	6754.6
825.6584	624.0544	7407.7	6536.55
825.803	626.1756	7182.7	6305.75
825.9477	628.2961	7044.95	6164.95
826.0923	630.4159	6949.5	6071.15
826.237	632.5351	6947.85	6069.4
826.3816	634.6537	6940.8	6059.15
826.5263	636.7716	6958.05	6072
826.6709	638.8889	6963.8	6079.1
826.8156	641.0056	6992.8	6106.85
826.9603	643.1216	6967.6	6084.15
827.105	645.237	6945.25	6060.15
827.2497	647.3518	6824.85	5945.5
827.3944	649.4659	6755.75	5880.65
827.5391	651.5793	6696.05	5818.95
827.6838	653.6922	6657.05	5779.75
827.8285	655.8043	6651.4	5773
827.9733	657.9159	6639.9	5760.2
828.118	660.0268	6646.1	5762.95
828.2627	662.137	6663.4	5782.6
828.4075	664.2466	6674.6	5789.5
828.5522	666.3556	6673.4	5786.1
828.697	668.4639	6628.15	5743.3
828.8418	670.5716	6592.85	5714.45
828.9865	672.6786	6529	5645.9
829.1313	674.785	6456.8	5569.9
829.2761	676.8907	6433.85	5547.8
829.4209	678.9958	6424.4	5542
829.5657	681.1002	6417.05	5530.8
829.7105	683.204	6405.15	5514.9
829.8553	685.3072	6387.6	5498.8
830.0001	687.4097	6384.3	5497.6
830.1449	689.5115	6398.35	5505.6
830.2898	691.6127	6388.1	5503.3
830.4346	693.7132	6391.1	5503.25
830.5794	695.8131	6450.75	5541.15
830.7243	697.9123	6454.5	5563.45
830.8691	700.0109	6475.65	5581.9
831.014	702.1089	6549.1	5661.45
831.1588	704.2061	6618.4	5730.3
831.3037	706.3028	6672.4	5781.25
831.4486	708.3987	6747.05	5856.75
831.5935	710.4941	6763.9	5872.1
831.7383	712.5887	6756.5	5867.2
831.8832	714.6827	6805.35	5910.9
832.0281	716.7761	6857.5	5967.85
832.173	718.8688	6945.55	6056.8
832.3179	720.9608	7085.5	6189.95
832.4628	723.0522	7221.3	6323.35
832.6077	725.1429	7342.05	6449.2
832.7527	727.233	7487.35	6593
832.8976	729.3224	7623.35	6727.8
833.0425	731.4112	7601.85	6709
833.1874	733.4993	7505.8	6609.8
833.3324	735.5867	7291.3	6399.6
833.4773	737.6735	7058.85	6161.55
833.6222	739.7596	6840.2	5944
833.7672	741.845	6694.2	5800.5
833.9122	743.9298	6622	5726.25
834.0571	746.014	6576.25	5681.75
834.2021	748.0974	6581.05	5681.65
834.347	750.1802	6558.2	5660.05
834.492	752.2624	6598.4	5700
834.637	754.3439	6664.8	5762.6
834.782	756.4247	6767.65	5859.75
834.9269	758.5048	6912.85	6011.45
835.0719	760.5843	7189.25	6288.85
835.2169	762.6631	7539.05	6639.25
835.3619	764.7413	8073.3	7175.8
835.5069	766.8188	8759.4	7857.65
835.6519	768.8956	9320.6	8420.05
835.7969	770.9718	9720.55	8819.55
835.9419	773.0473	9743.9	8843.5
836.0869	775.1221	9541.9	8641.9
836.232	777.1962	9328.05	8428.95
836.377	779.2697	9289.65	8387
836.522	781.3426	9426.9	8509.4
836.667	783.4147	9528.9	8625.75
836.8121	785.4862	9510.95	8609
836.9571	787.557	9277.35	8376
837.1021	789.6271	8797.9	7893.4
837.2472	791.6966	8207.4	7306.45
837.3922	793.7654	7654.15	6751.2
837.5373	795.8335	7223.35	6322.3
837.6823	797.901	6941.65	6039.75
837.8274	799.9678	6780.5	5874.05
837.9724	802.0339	6652.05	5749.1
838.1175	804.0993	6641.6	5731.65
838.2626	806.1641	6563.3	5658.95
838.4076	808.2282	6493.8	5591.5
838.5527	810.2916	6439.15	5532.2
838.6978	812.3544	6383.75	5479.95
838.8428	814.4164	6336.15	5438.35
838.9879	816.4778	6364.2	5459.55
839.133	818.5385	6430.95	5525.2
839.2781	820.5986	6569.15	5666.15
839.4232	822.658	6791.4	5882.95
839.5682	824.7166	7139.25	6234.5
839.7133	826.7747	7690.6	6785.3
839.8584	828.832	8253.25	7344.6
840.0035	830.8886	8718.35	7813.1
840.1486	832.9446	8873.35	7962.1
840.2937	834.9999	8766.65	7862.5
840.4388	837.0545	8433.6	7524.25
840.5839	839.1085	8032.8	7125.65
840.729	841.1618	7663.8	6752.7
840.8741	843.2143	7384.05	6478.2
841.0192	845.2662	7165.8	6259.7
841.1643	847.3175	7037.7	6128.3
841.3095	849.368	6923.3	6013.5
841.4546	851.4179	6843.95	5933.2
841.5997	853.467	6776.2	5870.5
841.7448	855.5155	6746.7	5841.25
841.8899	857.5633	6669.45	5761.45
842.0351	859.6105	6610	5697.3
842.1802	861.6569	6556.35	5649.65
842.3253	863.7027	6480.95	5570.6
842.4704	865.7478	6424.8	5515.3
842.6156	867.7922	6370.8	5463.45
842.7607	869.8359	6332.45	5426.15
842.9058	871.8789	6349.5	5439.65
843.0509	873.9212	6426.5	5486.7
843.1961	875.9629	6465.5	5557.7
843.3412	878.0039	6547	5636.45
843.4863	880.0441	6626.85	5719
843.6315	882.0837	6682.85	5774.25
843.7766	884.1226	6733.55	5821.4
843.9218	886.1609	6839.85	5930.25
844.0669	888.1984	7005.75	6097.8
844.212	890.2352	7156	6250.15
844.3572	892.2714	7220.35	6306.5
844.5023	894.3069	7161.65	6251.95
844.6475	896.3416	6990.85	6078.35
844.7926	898.3757	6812.45	5902.8
844.9377	900.4091	6705.25	5793.25
845.0829	902.4418	6691.3	5772.7
845.228	904.4739	6722.8	5805.85
845.3732	906.5052	6789.5	5874.6
845.5183	908.5358	6773.2	5859.15
845.6635	910.5658	6672.7	5759.3
845.8086	912.595	6463.85	5548.85
845.9538	914.6236	6262.75	5353.55
846.0989	916.6515	6130.75	5216.5
846.2441	918.6786	6025.75	5111.05
846.3892	920.7051	6015	5097.15
846.5344	922.7309	6027	5110.7
846.6795	924.756	6054.2	5140.55
846.8246	926.7804	6105.75	5194.55
846.9698	928.8041	6134.4	5219.45
847.1149	930.8272	6182.3	5269.6
847.2601	932.8495	6192.35	5278.3
847.4052	934.8711	6217.65	5302.8
847.5504	936.892	6225.3	5310.85
847.6955	938.9123	6238.3	5322.2
847.8407	940.9318	6268.6	5356.25
847.9858	942.9506	6308.85	5395.1
848.131	944.9688	6285.25	5370.5
848.2761	946.9862	6194.65	5280.25
848.4213	949.003	6053.8	5139.5
848.5664	951.019	5945.7	5030.7
848.7115	953.0344	5883.2	4970.55
848.8567	955.0491	5835.65	4922.6
849.0018	957.063	5855	4943.8
849.147	959.0763	5910.5	4996.7
849.2921	961.0888	5959.15	5040.05
849.4373	963.1007	5995.7	5081.9
849.5824	965.1119	5998.8	5091.35
849.7275	967.1223	5983.75	5079.7
849.8727	969.1321	5976.35	5074.6
850.0178	971.1412	5942.2	5034.05
850.1629	973.1495	5950.15	5038.95
850.3081	975.1572	5992	5044.1
850.4532	977.1641	5954.45	5039.95
850.5983	979.1704	5945.25	5029.9
850.7435	981.1759	5898.3	4979.8
850.8886	983.1808	5910.85	4993.6
851.0337	985.1849	5932.6	5005.35
851.1788	987.1884	5938.9	5025.05
851.324	989.1911	6003.7	5088.05
851.4691	991.1932	6075.4	5160.35
851.6142	993.1945	6088.6	5175.35
851.7593	995.1951	6062.85	5149.25
851.9045	997.1951	6060.8	5139.9
852.0496	999.1943	6051.4	5135.3
852.1947	1001.1928	6072.1	5157.35
852.3398	1003.1906	6113.65	5198.95
852.4849	1005.1877	6230.55	5313.85
852.63	1007.1841	6327.55	5412.5
852.7751	1009.1798	6407.55	5492.9
852.9202	1011.1748	6363.2	5447.05
853.0653	1013.1691	6252.45	5335.2
853.2104	1015.1627	6069.4	5154.25
853.3555	1017.1556	5898.25	4985.3
853.5006	1019.1477	5781.55	4868.4
853.6457	1021.1392	5700.7	4791.7
853.7908	1023.1299	5642.7	4733.55
853.9359	1025.12	5665.55	4759.4
854.081	1027.1093	5725.1	4826.65
854.2261	1029.0979	5824.3	4927.9
854.3712	1031.0859	5945.45	5046.25
854.5163	1033.0731	5992.25	5083.75
854.6613	1035.0596	5968.35	5060.3
854.8064	1037.0454	5900.5	4990.4
854.9515	1039.0304	5808.4	4896.55
855.0965	1041.0148	5721.2	4811
855.2416	1042.9985	5649.45	4733.7
855.3867	1044.9814	5597.8	4684.4
855.5317	1046.9636	5550.45	4634.3
855.6768	1048.9452	5581.65	4671.6
855.8219	1050.926	5598.9	4686.95
855.9669	1052.9061	5632.35	4718.7
856.112	1054.8855	5676.1	4758.75
856.257	1056.8642	5699.3	4784
856.4021	1058.8421	5729.6	4810.85
856.5471	1060.8194	5763.55	4845.15
856.6921	1062.7959	5814.9	4901.95
856.8372	1064.7717	5877.85	4962.65
856.9822	1066.7469	5965.75	5052.1
857.1272	1068.7213	6051.1	5136.7
857.2723	1070.695	6156.25	5243
857.4173	1072.6679	6213.5	5298.35
857.5623	1074.6402	6264.3	5346.9
857.7073	1076.6117	6225.45	5303.35
857.8523	1078.5826	6099	5181
857.9973	1080.5527	5962	5043.9
858.1423	1082.5221	5842.35	4924.75
858.2873	1084.4908	5767.7	4850.7
858.4323	1086.4587	5715.65	4798.75
858.5773	1088.426	5742.1	4825.55
858.7223	1090.3925	5769.7	4851.1
858.8673	1092.3584	5811.5	4894.3
859.0123	1094.3235	5849.9	4936.55
859.1573	1096.2879	5975.15	5060.65
859.3022	1098.2515	6115.65	5201.5
859.4472	1100.2145	6282.35	5371.65
859.5922	1102.1767	6474.9	5560.05
859.7371	1104.1382	6735.5	5820.65
859.8821	1106.099	6950.25	6033.3
860.027	1108.0591	7185.85	6270.4
860.172	1110.0185	7328.2	6412.15
860.3169	1111.9771	7417.25	6499.1
860.4619	1113.9351	7378.85	6464.9
860.6068	1115.8923	7308.15	6391.55
860.7517	1117.8488	7243.8	6326.05
860.8967	1119.8045	7101.95	6184.8
861.0416	1121.7596	6939.15	6026.35
861.1865	1123.7139	6781.45	5868.55
861.3314	1125.6675	6712.55	5798.9
861.4763	1127.6204	6728.55	5815.25
861.6212	1129.5726	6696.5	5782.6
861.7661	1131.524	6651.05	5737.3
861.911	1133.4748	6474.9	5561.55
862.0559	1135.4248	6287.4	5372.3
862.2008	1137.3741	6112.25	5197.9
862.3457	1139.3226	5995.55	5082.5
862.4905	1141.2705	5953.45	5038.75
862.6354	1143.2176	5887.4	4968.65
862.7803	1145.164	5855.3	4939.85
862.9251	1147.1097	5778.95	4865.8
863.07	1149.0546	5662.4	4745.1
863.2148	1150.9989	5576.85	4661.9
863.3597	1152.9424	5497.2	4583.4
863.5045	1154.8852	5420.35	4505.95
863.6493	1156.8272	5404.75	4490.95
863.7942	1158.7686	5423.2	4501.55
863.939	1160.7092	5471.9	4558.05
864.0838	1162.6491	5497.95	4581.05
864.2286	1164.5883	5600.2	4686.15
864.3734	1166.5267	5701.7	4783.95
864.5182	1168.4644	5869.3	4956.75
864.663	1170.4014	6044.65	5126.25
864.8078	1172.3377	6273	5361.25
864.9526	1174.2732	6588.2	5676.75
865.0974	1176.2081	7015.5	6104.7
865.2421	1178.1421	7556.95	6639.6
865.3869	1180.0755	8116.8	7203.6
865.5317	1182.0082	8510.15	7598.3
865.6764	1183.9401	8662.75	7747.35
865.8212	1185.8713	8496.75	7585.55
865.9659	1187.8017	8157.3	7251.95
866.1106	1189.7315	7716.3	6819.55
866.2554	1191.6605	7335.4	6436.05
866.4001	1193.5888	7056.35	6152.4
866.5448	1195.5163	6891.8	5980.8
866.6895	1197.4432	6751.3	5837.85
866.8342	1199.3693	6704.3	5792.05
866.9789	1201.2947	6676.5	5763.15
867.1236	1203.2193	6644.4	5734.45
867.2683	1205.1432	6621.6	5709.35
867.413	1207.0664	6592.35	5681.85
867.5576	1208.9889	6574.95	5661.55
867.7023	1210.9106	6561.65	5650
867.847	1212.8316	6573.7	5663.55
867.9916	1214.7519	6613.2	5691.6
868.1363	1216.6715	6676.2	5762.65
868.2809	1218.5903	6736.9	5825.9
868.4255	1220.5084	6820.6	5909.6
868.5701	1222.4257	6975.6	6065.25
868.7148	1224.3424	7033.65	6124.9
868.8594	1226.2583	7181.55	6268.5
869.004	1228.1735	7366.75	6452.3
869.1486	1230.0879	7520.5	6606.9
869.2932	1232.0016	7741.05	6830.8
869.4377	1233.9146	7925.1	7009.4
869.5823	1235.8269	7986.8	7075.55
869.7269	1237.7384	7966.85	7056.45
869.8715	1239.6492	7933.5	7023
870.016	1241.5592	7943.6	7034.55
870.1606	1243.4686	8038.7	7126.85
870.3051	1245.3772	8280.4	7370.05
870.4496	1247.285	8567.2	7654.35
870.5941	1249.1922	8851.5	7941
870.7387	1251.0986	9078	8170.1
870.8832	1253.0042	9239.1	8329.35
871.0277	1254.9092	9378.8	8467.25
871.1722	1256.8134	9502	8593.3
871.3167	1258.7169	9606.9	8694.9
871.4611	1260.6196	9750.25	8843.1
871.6056	1262.5216	9932.75	9019.35
871.7501	1264.4229	10104.35	9192.7
871.8945	1266.3234	10282.45	9370.05
872.039	1268.2232	10424.2	9513.2
872.1834	1270.1223	10503.95	9591.9
872.3278	1272.0207	10524.6	9615.35
872.4723	1273.9183	10511.15	9594.55
872.6167	1275.8151	10458.25	9549.55
872.7611	1277.7113	10505.55	9593.8
872.9055	1279.6067	10624.1	9715.05
873.0499	1281.5014	10978.1	10063.1
873.1943	1283.3953	11525.95	10612.3
873.3386	1285.2885	12165.2	11254.6
873.483	1287.181	12851	11941.2
873.6274	1289.0727	13473.1	12565
873.7717	1290.9637	13874.35	12965.6
873.9161	1292.854	14073.7	13160.45
874.0604	1294.7435	14023.05	13110.9
874.2047	1296.6323	13860.15	12949.55
874.349	1298.5204	13548.95	12635.65
874.4933	1300.4077	13204.55	12293.95
874.6376	1302.2943	12845.15	11933.45
874.7819	1304.1802	12453.55	11544.6
874.9262	1306.0653	11923.2	11008.05
875.0705	1307.9497	11370.55	10460.15
875.2147	1309.8333	10886	9978.55
875.359	1311.7162	10534.4	9622
875.5032	1313.5984	10311.5	9398.3
875.6475	1315.4798	10129.25	9216.75
875.7917	1317.3605	10004.8	9078.15
875.9359	1319.2405	9842.05	8928.2
876.0801	1321.1197	9546.2	8631.85
876.2243	1322.9982	9195.7	8279.75
876.3685	1324.876	8861.85	7950.7
876.5127	1326.753	8508.5	7597.85
876.6569	1328.6293	8257.35	7346.05
876.801	1330.5048	8006.55	7091.6
876.9452	1332.3796	7804.25	6894.65
877.0893	1334.2537	7675.4	6740.2
877.2335	1336.127	7568.8	6657.7
877.3776	1337.9996	7487	6572.7
877.5217	1339.8714	7457	6544.9
877.6658	1341.7426	7495.1	6540.3
877.8099	1343.6129	7506.8	6594.15
877.954	1345.4826	7492.3	6581.55
878.0981	1347.3515	7487.55	6575.4
878.2422	1349.2196	7457.85	6546.7
878.3862	1351.087	7474.3	6562.6
878.5303	1352.9537	7516.6	6602.15
878.6743	1354.8197	7596.4	6683.8
878.8184	1356.6849	7769.75	6857.35
878.9624	1358.5493	7923.4	7012.15
879.1064	1360.4131	8131.65	7222.15
879.2504	1362.276	8323.4	7414.75
879.3944	1364.1383	8372.5	7460.7
879.5384	1365.9998	8290.3	7371.55
879.6823	1367.8606	7999.2	7087.65
879.8263	1369.7206	7700.25	6786.85
879.9702	1371.5799	7424.75	6510.55
880.1142	1373.4384	7176.45	6266.05
880.2581	1375.2962	6946	6033.25
880.402	1377.1533	6638.85	5727.7
880.5459	1379.0096	6318.05	5408.75
880.6898	1380.8652	5992.65	5085.45
880.8337	1382.7201	5746.8	4838.9
880.9776	1384.5742	5516.3	4603.85
881.1215	1386.4275	5364.15	4453
881.2653	1388.2802	5239.4	4330.45
881.4092	1390.132	5141.1	4232.15
881.553	1391.9832	5093.15	4181.65
881.6968	1393.8336	5022.4	4109.3
881.8406	1395.6832	4980.5	4069.3
881.9844	1397.5322	4958.9	4048.55
882.1282	1399.3803	4923.3	4007.2
882.272	1401.2278	4881.75	3970.8
882.4158	1403.0745	4868.3	3957.85
882.5595	1404.9204	4844.6	3936.75
882.7033	1406.7656	4857.6	3947.8
882.847	1408.6101	4885.4	3974.85
882.9908	1410.4538	4896.3	3986.15
883.1345	1412.2968	4940.85	4028.8
883.2782	1414.139	4983.4	4072.3
883.4219	1415.9805	5042.95	4131.15
883.5656	1417.8213	5111.65	4192.95
883.7092	1419.6613	5187.6	4282.6
883.8529	1421.5006	5319.15	4407.85
883.9965	1423.3391	5510.25	4599.65
884.1402	1425.1769	5767.2	4854.95
884.2838	1427.0139	6153.8	5244.65
884.4274	1428.8502	6596.95	5684.2
884.571	1430.6858	7077.45	6169.9
884.7146	1432.5206	7411.65	6505.4
884.8582	1434.3547	7592.1	6684.3
885.0018	1436.188	7622.3	6711.5
885.1453	1438.0206	7532.3	6620.1
885.2889	1439.8524	7385.3	6475.25
885.4324	1441.6835	7306.8	6395.5
885.5759	1443.5139	7233	6321
885.7194	1445.3435	7171.4	6265.9
885.8629	1447.1724	7170.5	6262.6
886.0064	1449.0005	7152.8	6246.8
886.1499	1450.8279	7094.5	6185.2
886.2933	1452.6545	7090.1	6183.75
886.4368	1454.4804	7108.8	6202.45
886.5802	1456.3056	7126.5	6212.55
886.7237	1458.13	7056.4	6149.15
886.8671	1459.9536	6935.3	6028.4
887.0105	1461.7766	6721.75	5814.25
887.1539	1463.5987	6452.65	5541.95
887.2972	1465.4202	6184.65	5274
887.4406	1467.2409	5908.9	5002.3
887.584	1469.0608	5648.65	4739.45
887.7273	1470.88	5428.85	4519.45
887.8706	1472.6984	5233.85	4329.65
888.0139	1474.5161	5077.75	4166.55
888.1572	1476.3331	4923.15	4017.1
888.3005	1478.1493	4837.2	3927.15
888.4438	1479.9648	4772.85	3867.85
888.5871	1481.7795	4709.55	3804.25
888.7303	1483.5935	4673.65	3764.7
888.8736	1485.4067	4633.75	3725.5
889.0168	1487.2192	4617.1	3708.7
889.16	1489.031	4601.95	3691.65
889.3032	1490.842	4566.5	3660.35
889.4464	1492.6522	4532.25	3625.6
889.5896	1494.4618	4494.25	3587.6
889.7327	1496.2705	4485.25	3579
889.8759	1498.0785	4448.85	3543.6
890.019	1499.8858	4408.45	3501
890.1622	1501.6924	4368.25	3460.15
890.3053	1503.4981	4341.5	3434.2
890.4484	1505.3032	4306.4	3399.95
890.5914	1507.1075	4260.95	3354.7
890.7345	1508.911	4226	3318.55
890.8776	1510.7138	4184.55	3276.35
891.0206	1512.5159	4138.5	3230.8
891.1637	1514.3172	4110.55	3205.5
891.3067	1516.1178	4074.45	3168.2
891.4497	1517.9176	4049.1	3140.7
891.5927	1519.7166	4011.2	3105.5
891.7357	1521.515	3994.5	3082.95
891.8786	1523.3126	3976.4	3069.25
892.0216	1525.1094	3981.1	3073.75
892.1645	1526.9055	3962.8	3060.55
892.3074	1528.7008	3942.7	3039.1
892.4503	1530.4954	3912	3008.65
892.5932	1532.2893	3913.65	3011.05
892.7361	1534.0824	3893.45	2988.3
892.879	1535.8747	3904.95	3002.05
893.0218	1537.6663	3890.7	2987.4
893.1647	1539.4572	3895.75	2992.9
893.3075	1541.2473	3934	3032.05
893.4503	1543.0367	3934.65	3033.4
893.5931	1544.8253	3963.65	3057.25
893.7359	1546.6132	3985.8	3080
893.8787	1548.4003	4004.2	3090.6
894.0214	1550.1867	4074.85	3166.95
894.1642	1551.9723	4146.45	3240.7
894.3069	1553.7572	4246.9	3348.2
894.4496	1555.5414	4365.35	3464.25
894.5923	1557.3247	4518.65	3618.15
894.735	1559.1074	4700.35	3802.1
894.8777	1560.8893	4886.95	3988.9
895.0204	1562.6705	5050.45	4151.6
895.163	1564.4509	5209.25	4311.2
895.3056	1566.2305	5294.1	4395.75
895.4482	1568.0094	5338.6	4442
895.5908	1569.7876	5326.65	4428.3
895.7334	1571.565	5328.95	4428.2
895.876	1573.3417	5311.1	4413.7
896.0186	1575.1176	5322.75	4426.05
896.1611	1576.8928	5344.85	4448.5
896.3036	1578.6672	5385.2	4492.4
896.4461	1580.4409	5456.3	4565.05
896.5886	1582.2138	5537.95	4641.9
896.7311	1583.986	5641.25	4744.95
896.8736	1585.7575	5790	4894.25
897.0161	1587.5282	5913.95	5018.95
897.1585	1589.2981	6062.25	5168.8
897.3009	1591.0673	6184.25	5290.35
897.4433	1592.8358	6308.35	5415.7
897.5857	1594.6035	6422.5	5526.5
897.7281	1596.3704	6515.8	5619.3
897.8705	1598.1366	6591.7	5695.55
898.0128	1599.9021	6719.7	5826.1
898.1551	1601.6668	6787.25	5890.25
898.2975	1603.4308	6910.35	6014.05
898.4398	1605.194	7047.5	6150.2
898.5821	1606.9564	7250.2	6357.1
898.7243	1608.7182	7519.15	6626.25
898.8666	1610.4791	7854.3	6966
899.0088	1612.2394	8183.05	7297.15
899.1511	1613.9988	8512.25	7623.4
899.2933	1615.7576	8817.85	7926.2
899.4355	1617.5156	9032.35	8132.45
899.5776	1619.2728	9100.45	8204.7
899.7198	1621.0293	8926.25	8031.1
899.862	1622.785	8646.55	7750.75
900.0041	1624.54	8244.4	7351.35
900.1462	1626.2942	7790.05	6898.8
900.2883	1628.0477	7346.8	6452.3
900.4304	1629.8005	6925.95	6030.8
900.5725	1631.5525	6543.25	5654.8
900.7145	1633.3037	6219.7	5327
900.8566	1635.0542	5977.2	5086.2
900.9986	1636.804	5759.1	4868.95
901.1406	1638.553	5688.15	4728.35
901.2826	1640.3013	5530.4	4637.8
901.4245	1642.0488	5450.7	4557.4
901.5665	1643.7955	5447	4557.45
901.7085	1645.5416	5479.95	4591.1
901.8504	1647.2868	5538.35	4647.75
901.9923	1649.0313	5609.3	4718.5
902.1342	1650.7751	5750.85	4857.1
902.2761	1652.5181	5876.25	4986.8
902.4179	1654.2604	6000.85	5110.2
902.5598	1656.0019	6192.5	5299.75
902.7016	1657.7427	6408.75	5518.75
902.8434	1659.4828	6634.55	5743.4
902.9852	1661.222	6810.9	5920.4
903.127	1662.9606	6819.2	5927.95
903.2687	1664.6984	6645.05	5752.75
903.4105	1666.4354	6286.75	5393.25
903.5522	1668.1717	5823.05	4929.85
903.6939	1669.9072	5339.55	4447.1
903.8356	1671.642	4914.6	4021.1
903.9773	1673.3761	4580.9	3691
904.119	1675.1094	4302.9	3412.15
904.2606	1676.8419	4075.1	3185.5
904.4022	1678.5737	3904.5	3012.6
904.5439	1680.3048	3766.3	2873.3
904.6855	1682.0351	3649.75	2758.55
904.827	1683.7646	3568	2673.05
904.9686	1685.4934	3490.6	2600.2
905.1101	1687.2215	3418.9	2527.55
905.2517	1688.9488	3352.95	2462
905.3932	1690.6754	3294.5	2404.6
905.5347	1692.4012	3257.8	2367.8
905.6761	1694.1263	3222.95	2333.65
905.8176	1695.8506	3193.65	2301.4
905.9591	1697.5742	3145.95	2259.2
906.1005	1699.297	3114.65	2226.1
906.2419	1701.0191	3096.1	2210.45
906.3833	1702.7404	3064.2	2175.5
906.5246	1704.461	3032.2	2139.6
906.666	1706.1808	2996.15	2104.55
906.8073	1707.8999	2983.4	2093.35
906.9487	1709.6182	2971.2	2082.95
907.09	1711.3358	2943.6	2057.4
907.2313	1713.0527	2916.7	2031.55
907.3725	1714.7688	2927.7	2035.4
907.5138	1716.4841	2890.2	1999.75
907.655	1718.1987	2884.65	1990.6
907.7962	1719.9126	2861.55	1976.1
907.9374	1721.6257	2844.4	1954.95
908.0786	1723.338	2843.7	1957.4
908.2198	1725.0496	2837.2	1948.55
908.3609	1726.7605	2818.45	1928.25
908.502	1728.4706	2818.6	1931.55
908.6431	1730.18	2804.4	1915.7
908.7842	1731.8886	2789.7	1904.1
908.9253	1733.5964	2797.75	1892.95
909.0664	1735.3036	2778	1887.6
909.2074	1737.0099	2772.75	1885.65
909.3484	1738.7156	2737.25	1852.8
909.4894	1740.4204	2723.3	1834.35
909.6304	1742.1246	2721.15	1830.95
909.7714	1743.8279	2694.5	1808.7
909.9123	1745.5306	2676.95	1791.6
910.0532	1747.2325	2659.1	1772.8
910.1941	1748.9336	2650.7	1763.65
910.335	1750.634	2655.3	1766.65
910.4759	1752.3336	2635.8	1749.7
910.6168	1754.0325	2623.75	1740.65
910.7576	1755.7307	2615.85	1729.2
910.8984	1757.4281	2621.2	1733.75
911.0392	1759.1247	2619.45	1720.05
911.18	1760.8206	2607.5	1712.65
911.3208	1762.5158	2610	1715.9
911.4615	1764.2102	2592.15	1706.45
911.6022	1765.9039	2585.45	1698.7
911.7429	1767.5968	2580.3	1694.95
911.8836	1769.289	2565.95	1678.45
912.0243	1770.9804	2569.3	1679.7
912.1649	1772.6711	2571.25	1681.2
912.3056	1774.361	2564.35	1674.3
912.4462	1776.0502	2566	1676.7
912.5868	1777.7386	2562.55	1672.45
912.7274	1779.4263	2544.15	1655.45
912.8679	1781.1132	2538.65	1652.35
913.0084	1782.7994	2538.95	1653.55
913.149	1784.4849	2526.75	1642.4
913.2895	1786.1696	2531.95	1629.55
913.4299	1787.8535	2525.9	1639.65
913.5704	1789.5367	2513.2	1630.8
913.7108	1791.2192	2508	1622.95
913.8513	1792.9009	2526.5	1616.05
913.9917	1794.5818	2506.6	1617.95
914.132	1796.2621	2492.9	1607.15
914.2724	1797.9415	2484.6	1598.15
914.4128	1799.6202	2472.3	1584.9
914.5531	1801.2982	2480.8	1591.7
914.6934	1802.9755	2479.2	1589.45
914.8337	1804.6519	2470.15	1581.45
914.9739	1806.3277	2463.8	1576.95
915.1142	1808.0027	2467.15	1583.95
915.2544	1809.6769	2449.6	1563.4
915.3946	1811.3504	2441.55	1558.3
915.5348	1813.0231	2433.9	1549.1
915.675	1814.6951	2434.4	1548.35
915.8151	1816.3664	2446.05	1558.4
915.9553	1818.0369	2434	1547
916.0954	1819.7067	2436.45	1550.2
916.2355	1821.3757	2435.2	1547.1
916.3755	1823.044	2436.75	1550.65
916.5156	1824.7115	2424.15	1537.45
916.6556	1826.3783	2418.65	1531.65
916.7956	1828.0443	2405.7	1520.3
916.9356	1829.7096	2400.7	1512.85
917.0756	1831.3741	2414.5	1525.65
917.2155	1833.0379	2405.5	1519.95
917.3555	1834.701	2392.65	1504.55
917.4954	1836.3633	2398.55	1514.35
917.6353	1838.0248	2397.3	1512.7
917.7751	1839.6856	2395.35	1510
917.915	1841.3457	2389.5	1504.9
918.0548	1843.005	2393.4	1508.25
918.1946	1844.6636	2394.05	1508.05
918.3344	1846.3214	2373.1	1487.2
918.4742	1847.9785	2382.75	1498.55
918.6139	1849.6349	2380.15	1491.45
918.7537	1851.2904	2381	1485.35
918.8934	1852.9453	2371.7	1483.05
919.0331	1854.5994	2371.1	1480.5
919.1727	1856.2528	2378.6	1487.2
919.3124	1857.9054	2365.3	1477.4
919.452	1859.5572	2369.15	1484.1
919.5916	1861.2083	2352.4	1466.65
919.7312	1862.8587	2352.1	1465.8
919.8708	1864.5084	2357.1	1470.5
920.0103	1866.1572	2348.3	1462.3
920.1498	1867.8054	2345.55	1459.4
920.2893	1869.4528	2332.8	1444.05
920.4288	1871.0994	2328.75	1440.15
920.5683	1872.7453	2319.9	1434.85
920.7077	1874.3905	2325.15	1431.4
920.8471	1876.0349	2324.4	1436.55
920.9865	1877.6786	2318.65	1430.95
921.1259	1879.3215	2308.3	1422.25
921.2653	1880.9637	2317.8	1431.6
921.4046	1882.6051	2318.75	1435.35
921.5439	1884.2458	2311.55	1424.95
921.6832	1885.8858	2294.9	1408.9
921.8225	1887.525	2294.4	1407.65
921.9617	1889.1634	2285.3	1399.6
922.101	1890.8011	2298.75	1411.9
922.2402	1892.4381	2290.65	1402.25
922.3794	1894.0743	2277.15	1390.5
922.5185	1895.7098	2272.45	1386.2
922.6577	1897.3446	2271.85	1384.95
922.7968	1898.9786	2270.3	1380.3
922.9359	1900.6118	2259.3	1374.6
923.075	1902.2443	2258.2	1372.7
923.214	1903.8761	2258.55	1374.2
923.3531	1905.5071	2243.95	1357.95
923.4921	1907.1374	2245.1	1356.55
923.6311	1908.7669	2236.8	1350.15
923.77	1910.3957	2225.05	1337.75
923.909	1912.0237	2235.65	1350.5
924.0479	1913.651	2225.9	1338
924.1868	1915.2776	2219.5	1334.55
924.3257	1916.9034	2215.9	1330.95
924.4646	1918.5285	2212.85	1328.55
924.6034	1920.1528	2208.8	1322.6
924.7422	1921.7764	2191.9	1307.2
924.881	1923.3992	2196.25	1312.25
925.0198	1925.0213	2183.2	1296.75
925.1586	1926.6427	2181.8	1295.3
925.2973	1928.2633	2261.65	1289.5
925.436	1929.8832	2188.35	1301.25
925.5747	1931.5023	2172.35	1286.4
925.7134	1933.1207	2180.1	1295.65
925.852	1934.7383	2182	1296.5
925.9906	1936.3552	2166.65	1281.85
926.1292	1937.9714	2161.85	1274.65
926.2678	1939.5868	2156.7	1267.8
926.4064	1941.2015	2147.4	1261.35
926.5449	1942.8154	2143.7	1256.5
926.6834	1944.4286	2145	1259
926.8219	1946.041	2161.45	1252.4
926.9604	1947.6528	2125.3	1235.9
927.0988	1949.2637	2128.05	1243.05
927.2372	1950.8739	2129.8	1244
927.3756	1952.4834	2126.2	1240.65
927.514	1954.0921	2132.4	1246.35
927.6523	1955.7001	2120.5	1230.7
927.7907	1957.3074	2114.05	1231.4
927.929	1958.9139	2102.3	1218.75
928.0673	1960.5197	2096.85	1211.75
928.2055	1962.1247	2091.4	1207.45
928.3438	1963.729	2087.3	1204.65
928.482	1965.3325	2091.45	1202.2
928.6202	1966.9353	2089	1204.85
928.7584	1968.5374	2072.4	1186.1
928.8965	1970.1387	2076.85	1194.4
929.0346	1971.7393	2076.5	1191.3
929.1727	1973.3392	2071.25	1188.95
929.3108	1974.9383	2065.25	1182.15
929.4489	1976.5366	2053.9	1174.45
929.5869	1978.1342	2051.05	1167.75
929.7249	1979.7311	2051.8	1169.05
929.8629	1981.3273	2049.3	1167
930.0009	1982.9227	2050.8	1167.3
930.1388	1984.5173	2041.15	1158.25
930.2767	1986.1112	2034.25	1152.8
930.4146	1987.7044	2026.55	1145.75
930.5525	1989.2968	2032.9	1147.7
930.6904	1990.8885	2027.85	1142.55
930.8282	1992.4795	2018.85	1134
930.966	1994.0697	2019.65	1138.35
931.1038	1995.6592	2019.45	1138
931.2415	1997.2479	2018.3	1136.55
931.3793	1998.8359	2008.3	1126.45
931.517	2000.4232	2001.15	1122.85
931.6547	2002.0097	1997.4	1118.85
931.7923	2003.5955	1994.35	1113.3
931.93	2005.1805	2003.9	1121.95
932.0676	2006.7648	1989.45	1108.25
932.2052	2008.3484	1987.15	1105.6
932.3427	2009.9312	1988.25	1106.6
932.4803	2011.5133	1988.35	1109.95
932.6178	2013.0946	1989.9	1110.7
932.7553	2014.6752	1984.8	1105.5
932.8928	2016.2551	1978.8	1096.75
933.0302	2017.8342	1980.6	1098.65
933.1676	2019.4126	1965.85	1086.7
933.305	2020.9902	1961	1080.75
933.4424	2022.5672	1970.2	1089.15
933.5798	2024.1433	1972.6	1086.95
933.7171	2025.7188	1951.95	1076.1
933.8544	2027.2935	1949.9	1070.7
933.9917	2028.8674	1944.7	1065.95
934.129	2030.4406	1950.6	1073.3
934.2662	2032.0131	1940.85	1062.3
934.4034	2033.5849	1941.65	1059.05
934.5406	2035.1559	1927.8	1050.6
934.6778	2036.7261	1932.2	1051.2
934.8149	2038.2957	1941.65	1062.15
934.952	2039.8645	1929.95	1049.4
935.0891	2041.4325	1936.7	1049.85
935.2262	2042.9998	1927.25	1047.7
935.3632	2044.5664	1926.9	1044.15
935.5002	2046.1323	1912.8	1032.45
935.6372	2047.6974	1914.3	1034.75
935.7742	2049.2617	1908.3	1030.25
935.9111	2050.8254	1919.75	1034.85
936.048	2052.3883	1924.85	1044.65
936.1849	2053.9504	1904.8	1023.6
936.3218	2055.5118	1908.95	1026.7
936.4586	2057.0725	1902.65	1017.6
936.5955	2058.6325	1899.05	1018.75
936.7323	2060.1917	1890.8	1012.25
936.869	2061.7502	1898.25	1016.55
937.0058	2063.3079	1890.7	1012.6
937.1425	2064.8649	1893.7	1010.75
937.2792	2066.4212	1893.8	1014.7
937.4159	2067.9767	1884.8	1004.15
937.5525	2069.5315	1883.55	1003.25
937.6891	2071.0856	1877.2	996.45
937.8257	2072.6389	1880.95	1002.5
937.9623	2074.1915	1862.95	986.25
938.0989	2075.7433	1869.95	988.7
938.2354	2077.2945	1859.6	980
938.3719	2078.8448	1860.65	979.85
938.5084	2080.3945	1853.05	972.55
938.6448	2081.9434	1859.7	978.4
938.7812	2083.4916	1854.9	973.95
938.9176	2085.039	1849.8	964.1
939.054	2086.5857	1845.25	960.55
939.1903	2088.1317	1846.55	963.65
939.3267	2089.677	1853.95	967.8
939.463	2091.2215	1845.1	960.8
939.5992	2092.7652	1839.5	954
939.7355	2094.3083	1839.05	953.25
939.8717	2095.8506	1830.6	948.6
940.0079	2097.3921	1841.5	960.1
940.1441	2098.933	1833.9	951.1
940.2802	2100.4731	1835.85	953.75
940.4163	2102.0124	1844.75	945.5
940.5524	2103.5511	1821.25	940.1
940.6885	2105.089	1824.6	940.8
940.8245	2106.6261	1826.3	943.2
940.9606	2108.1626	1824.15	939.45
941.0965	2109.6983	1845.15	933.1
941.2325	2111.2332	1825.9	942.85
941.3684	2112.7675	1815.95	930.25
941.5044	2114.301	1812.15	926.75
941.6403	2115.8337	1814.1	932.05
941.7761	2117.3657	1818.45	934.5
941.912	2118.897	1812.55	928.05
942.0478	2120.4276	1808.2	917.55
942.1835	2121.9575	1799.1	915.4
942.3193	2123.4866	1801.2	912.4
942.455	2125.0149	1802.45	916.3
942.5907	2126.5426	1789.8	908.45
942.7264	2128.0695	1788.7	905
942.8621	2129.5956	1780.35	903.6
942.9977	2131.1211	1785.75	898.9
943.1333	2132.6458	1787.15	904.3
943.2689	2134.1698	1792	906.9
943.4044	2135.693	1777.75	891.25
943.54	2137.2155	1781.35	896.15
943.6755	2138.7373	1781.2	899.2
943.8109	2140.2584	1769.6	886.55
943.9464	2141.7787	1770.75	884.4
944.0818	2143.2983	1764.3	885.45
944.2172	2144.8171	1766.2	887.95
944.3526	2146.3353	1756	870.85
944.4879	2147.8527	1746.85	866.9
944.6232	2149.3693	1767.5	884.2
944.7585	2150.8853	1753.95	870.95
944.8938	2152.4005	1751.3	867.25
945.029	2153.9149	1754.9	868.6
945.1642	2155.4287	1748.85	866
945.2994	2156.9417	1744.4	859.75
945.4346	2158.454	1746	861.05
945.5697	2159.9655	1735.6	854.75
945.7048	2161.4764	1740.9	858.05
945.8399	2162.9865	1732.45	850.35
945.9749	2164.4958	1730.2	847.25
946.1099	2166.0045	1722.9	838.85
946.2449	2167.5124	1739.4	858.7
946.3799	2169.0195	1726.2	845.65
946.5148	2170.526	1728.15	843.85
946.6498	2172.0317	1726.35	843
946.7846	2173.5367	1725.7	841.45
946.9195	2175.0409	1710.95	827.8
947.0543	2176.5445	1719.95	838.15
947.1891	2178.0473	1713.45	829.65
947.3239	2179.5494	1722.6	836.35
947.4587	2181.0507	1719.25	835.95
947.5934	2182.5513	1718.1	835.6
947.7281	2184.0512	1710.2	825.1
947.8628	2185.5504	1718.8	836
947.9974	2187.0488	1698.8	815.35
948.132	2188.5465	1703.8	823.3
948.2666	2190.0435	1697.35	815.85
948.4012	2191.5397	1700.3	818.4
948.5357	2193.0353	1701.55	816.45
948.6702	2194.5301	1697.7	810.75
948.8047	2196.0241	1695.2	808.5
948.9392	2197.5175	1696.1	812.05
949.0736	2199.0101	1692.55	803.4
949.208	2200.502	1682.25	799.6
949.3424	2201.9931	1685.1	804.35
949.4767	2203.4835	1686.6	802.1
949.611	2204.9733	1688.4	790.3
949.7453	2206.4622	1676.45	795.75
949.8796	2207.9505	1682.8	799.95
950.0138	2209.438	1665.65	785
950.148	2210.9248	1671.7	790.55
950.2822	2212.4109	1670.3	788.15
950.4164	2213.8962	1666.7	780.1
950.5505	2215.3809	1664.45	776.7
950.6846	2216.8648	1664.15	775.3
950.8186	2218.3479	1674.5	783.05
950.9527	2219.8304	1664.95	776.45
951.0867	2221.3121	1660.55	771.95
951.2207	2222.7931	1654.3	771.35
951.3546	2224.2733	1655	769.45
951.4886	2225.7529	1651.3	770.85
951.6225	2227.2317	1649.95	761.2
951.7563	2228.7098	1640	758.05
951.8902	2230.1872	1638.65	757.55
952.024	2231.6638	1629.15	748.75
952.1578	2233.1397	1635.85	749
952.2916	2234.6149	1623.45	741.45
952.4253	2236.0894	1633.45	751.15
952.559	2237.5632	1637.55	745.75
952.6927	2239.0362	1627.55	746.55
952.8263	2240.5085	1611.35	726.3
952.9599	2241.9801	1618.8	733.8
953.0935	2243.4509	1613.25	730.25
953.2271	2244.921	1617.35	731.85
953.3606	2246.3904	1619.9	731.1
953.4941	2247.8591	1614.15	730.35
953.6276	2249.3271	1607.2	722.15
953.7611	2250.7943	1608.55	723.4
953.8945	2252.2608	1604.95	720.1
954.0279	2253.7266	1599.35	717.35
954.1612	2255.1917	1606.95	722.25
954.2946	2256.656	1601.1	718.65
954.4279	2258.1197	1583.1	701.05
954.5612	2259.5826	1593.6	708.7
954.6944	2261.0447	1595.3	711.1
954.8276	2262.5062	1589.2	701.15
954.9608	2263.9669	1587.7	702.95
955.094	2265.4269	1576.3	692.4
955.2271	2266.8862	1576.65	693.85
955.3602	2268.3448	1578.55	693.25
955.4933	2269.8026	1576.65	693.75
955.6264	2271.2598	1575.25	690.35
955.7594	2272.7162	1584.95	702.6
955.8924	2274.1719	1583.1	698.65
956.0253	2275.6268	1573.2	688.05
956.1583	2277.0811	1577.3	691.3
956.2912	2278.5346	1573.35	691.4
956.4241	2279.9874	1568.6	685.15
956.5569	2281.4395	1573.45	691.35
956.6897	2282.8908	1573.2	684.9
956.8225	2284.3414	1569.2	682.6
956.9553	2285.7914	1563.5	678
957.088	2287.2406	1561.45	675.1
957.2207	2288.689	1574.3	688.75
957.3534	2290.1368	1566.15	677.15
957.486	2291.5838	1568.65	680.4
957.6186	2293.0302	1566.9	679.75
957.7512	2294.4758	1563.15	676.7
957.8838	2295.9206	1560.5	674.15
958.0163	2297.3648	1558.05	673.75
958.1488	2298.8082	1555.75	671.45
958.2813	2300.251	1556.75	673.6
958.4137	2301.693	1553.1	665.7
958.5461	2303.1343	1544	656.55
958.6785	2304.5748	1548.5	665.6
958.8108	2306.0147	1545.05	661.6
958.9432	2307.4538	1548.4	663.7
959.0754	2308.8922	1542.7	662.2
959.2077	2310.3299	1544.95	661.1
959.3399	2311.7669	1537.55	654.15
959.4721	2313.2031	1539.15	654.15
959.6043	2314.6387	1539	654.4
959.7365	2316.0735	1532.15	649
959.8686	2317.5076	1532.3	648.05
960.0006	2318.941	1530.55	647.3
960.1327	2320.3737	1533	645.1
960.2647	2321.8056	1530.4	642
960.3967	2323.2369	1528.5	642.95
960.5287	2324.6674	1529.55	642.15
960.6606	2326.0972	1528.9	642.2
960.7925	2327.5263	1522.45	636.8
960.9244	2328.9547	1516.9	630.6
961.0562	2330.3823	1519.95	632.4
961.1881	2331.8092	1524.1	633.9
961.3198	2333.2355	1524.3	641.1
961.4516	2334.661	1517.4	631.65
961.5833	2336.0858	1520.1	633.75
961.715	2337.5098	1517.55	631.05
961.8467	2338.9332	1507.55	624.1
961.9783	2340.3558	1511.35	622.8
962.1099	2341.7778	1503.95	621.25
962.2415	2343.199	1506	619
962.373	2344.6195	1504.4	619.3
962.5045	2346.0393	1495.7	611.8
962.636	2347.4583	1502.15	616.55
962.7675	2348.8767	1504.95	618.9
962.8989	2350.2943	1504.5	619.35
963.0303	2351.7113	1502.95	615.9
963.1617	2353.1275	1504.85	617.5
963.293	2354.543	1526.3	615.75
963.4243	2355.9578	1502.6	614.65
963.5556	2357.3718	1492.1	607.85
963.6868	2358.7852	1489.8	603
963.818	2360.1978	1491	606.75
963.9492	2361.6098	1488.9	606.05
964.0803	2363.021	1492.8	604.4
964.2114	2364.4315	1488	602.75
964.3425	2365.8413	1491.45	606.4
964.4736	2367.2504	1482.55	598.2
964.6046	2368.6587	1481	596.05
964.7356	2370.0664	1480.95	598.4
964.8666	2371.4733	1480.4	595.2
964.9975	2372.8795	1484.8	600.5
965.1284	2374.285	1475.25	589.55
965.2593	2375.6899	1475.55	590.85
965.3901	2377.0939	1475.9	592.25
965.5209	2378.4973	1470.2	587
965.6517	2379.9	1474.4	588.25
965.7825	2381.3019	1466.8	582
965.9132	2382.7032	1464.3	582.15
966.0439	2384.1037	1466	584.25
966.1745	2385.5035	1464.85	581.7
966.3051	2386.9027	1454.95	573.4
966.4357	2388.3011	1466.05	579.8
966.5663	2389.6987	1464.6	582
966.6968	2391.0957	1455.95	573.1
966.8273	2392.492	1452.8	568.85
966.9578	2393.8876	1451.95	565.05
967.0882	2395.2824	1454.1	568.85
967.2186	2396.6765	1448.5	565.05
967.349	2398.07	1446.45	563.3
967.4793	2399.4627	1444.15	557.35
967.6097	2400.8547	1442.2	559.6
967.7399	2402.246	1447.95	556
967.8702	2403.6366	1438.95	553.25
968.0004	2405.0265	1436.25	553.7
968.1306	2406.4156	1436.25	548.45
968.2607	2407.8041	1431.4	541.8
968.3909	2409.1918	1433.4	545.9
968.521	2410.5789	1430.7	543.05
968.651	2411.9652	1438.6	549.6
968.781	2413.3508	1431.1	546.05
968.911	2414.7358	1429.45	544
969.041	2416.12	1427.15	542.7
969.1709	2417.5035	1421.55	538.6
969.3008	2418.8863	1430.6	545.6
969.4307	2420.2684	1429.75	545.5
969.5606	2421.6497	1422.3	536.25
969.6904	2423.0304	1420.3	536.4
969.8201	2424.4104	1418.5	532.05
969.9499	2425.7896	1430.45	538.55
970.0796	2427.1682	1421.45	537.9
970.2093	2428.546	1422.95	538.65
970.3389	2429.9232	1418.95	534.65
970.4685	2431.2996	1412.9	526.3
970.5981	2432.6753	1410.1	524.65
970.7277	2434.0503	1409.65	526.1
970.8572	2435.4246	1409	523.65
970.9867	2436.7982	1409.65	522.8
971.1161	2438.1711	1402.6	520.15
971.2456	2439.5433	1408.05	522.25
971.375	2440.9148	1412.8	522.95
971.5043	2442.2856	1392.5	508.95
971.6336	2443.6557	1394.95	508.55
971.7629	2445.025	1397.6	513.2
971.8922	2446.3937	1394.4	509.25
972.0214	2447.7617	1395.1	511.05
972.1506	2449.1289	1399	514.6
972.2798	2450.4955	1395.5	508.55
972.4089	2451.8613	1386.55	504.7
972.538	2453.2265	1391.05	505.4
972.6671	2454.5909	1389.45	504.55
972.7961	2455.9546	1384.8	499.5
972.9251	2457.3177	1385.8	502.4
973.0541	2458.68	1388.3	503.55
973.1831	2460.0416	1387.2	500.85
973.312	2461.4025	1383.75	496.45
973.4408	2462.7627	1387.45	493
973.5697	2464.1222	1378.65	496.45
973.6985	2465.4811	1380.7	496.9
973.8273	2466.8392	1381.95	497.85
973.956	2468.1966	1380.8	493.85
974.0847	2469.5533	1385.25	498.15
974.2134	2470.9093	1384.35	500.05
974.3421	2472.2645	1378.45	492.65
974.4707	2473.6191	1377.2	492.5
974.5993	2474.973	1373.35	488.6
974.7278	2476.3262	1375.4	488.4
974.8563	2477.6787	1378.3	495.05
974.9848	2479.0305	1373.85	490.7
975.1132	2480.3816	1377.7	491.75
975.2417	2481.7319	1375	491.2
975.37	2483.0816	1378.65	492.95
975.4984	2484.4306	1379.2	494.15
975.6267	2485.7789	1365.7	483.85
975.755	2487.1264	1373.4	489.3
975.8833	2488.4733	1364.05	482.6
976.0115	2489.8195	1377.35	475.8
976.1397	2491.165	1367.75	476.95
976.2678	2492.5097	1362.2	477.35
976.3959	2493.8538	1360.05	476.95
976.524	2495.1972	1358.3	472.75
976.6521	2496.5398	1365.55	482.1
976.7801	2497.8818	1361.35	473.25
976.9081	2499.2231	1355.85	470.8
977.036	2500.5637	1356.35	469.95
977.164	2501.9035	1357.7	470.8
977.2918	2503.2427	1361	473.1
977.4197	2504.5812	1356.65	472.65
977.5475	2505.919	1353.5	467.3
977.6753	2507.256	1356.75	471
977.8031	2508.5924	1350.7	465.8
977.9308	2509.9281	1353.55	462.2
978.0585	2511.2631	1347.55	461.55
978.1861	2512.5974	1346.9	463.55
978.3137	2513.9309	1344.6	460.65
978.4413	2515.2638	1365.65	451.9
978.5689	2516.596	1348.45	462.3
978.6964	2517.9275	1336.85	449.3
978.8239	2519.2583	1343	458.75
978.9513	2520.5884	1332.6	447.2
979.0788	2521.9178	1336.8	451.7
979.2062	2523.2465	1335.25	450.05
979.3335	2524.5745	1332.7	449.1
979.4608	2525.9018	1334.75	451.6
979.5881	2527.2284	1337.1	454.1
979.7154	2528.5543	1331.3	447.65
979.8426	2529.8796	1339.15	455.55
979.9698	2531.2041	1336.3	452.85
980.0969	2532.5279	1337.55	455.35
980.224	2533.851	1325.5	443.1
980.3511	2535.1735	1335.2	452.45
980.4781	2536.4952	1328.05	442.05
980.6052	2537.8163	1338.2	454.55
980.7321	2539.1366	1336.65	452.25
980.8591	2540.4562	1325.25	438.6
980.986	2541.7752	1325.9	443.85
981.1129	2543.0935	1324.6	440.65
981.2397	2544.411	1329.5	442.85
981.3665	2545.7279	1331.6	448.8
981.4933	2547.0441	1328.7	444
981.62	2548.3596	1327.5	439.25
981.7467	2549.6744	1327.3	443.05
981.8734	2550.9885	1334.85	444.3
982.0001	2552.3019	1322.4	438.4
982.1267	2553.6146	1314.7	429.6
982.2532	2554.9266	1316.75	433.65
982.3798	2556.2379	1321.45	434.6
982.5063	2557.5485	1322.75	439.9
982.6327	2558.8585	1331.8	439.65
982.7592	2560.1677	1328.85	437.75
982.8856	2561.4762	1316	429.25
983.0119	2562.7841	1328.6	441.15
983.1383	2564.0913	1318.65	438.1
983.2646	2565.3977	1315	430.55
983.3908	2566.7035	1320.5	436.4
983.517	2568.0086	1318.45	433.7
983.6432	2569.313	1321.3	434.7
983.7694	2570.6167	1322.75	433.9
983.8955	2571.9197	1315.85	433.25
984.0216	2573.222	1320.9	432.7
984.1476	2574.5236	1313.85	428.75
984.2737	2575.8246	1320.25	434
984.3996	2577.1248	1320.5	435.6
984.5256	2578.4244	1308.25	423.2
984.6515	2579.7232	1310.35	426.3
984.7774	2581.0214	1339.9	428.5
984.9032	2582.3189	1312.8	431.55
985.029	2583.6157	1320.7	432.8
985.1548	2584.9118	1312.6	429.1
985.2806	2586.2072	1317.75	434.25
985.4063	2587.5019	1315.9	433.25
985.5319	2588.7959	1314.5	429.7
985.6576	2590.0893	1318.6	432.1
985.7832	2591.3819	1319.45	435.95
985.9087	2592.6739	1310.05	425.15
986.0343	2593.9652	1325.55	440.5
986.1597	2595.2557	1320.4	436.1
986.2852	2596.5456	1317	433.8
986.4106	2597.8348	1319	437.05
986.536	2599.1234	1311.6	430.65
986.6614	2600.4112	1314	430.7
986.7867	2601.6983	1319.3	431.35
986.912	2602.9848	1323.55	440.4
987.0372	2604.2705	1329.8	439.2
987.1624	2605.5556	1315.2	432.7
987.2876	2606.84	1316	433.25
987.4128	2608.1237	1318.2	435.35
987.5379	2609.4067	1314.55	433
987.6629	2610.689	1327.9	437.3
987.788	2611.9707	1308.95	424.35
987.913	2613.2516	1310.65	423.55
988.0379	2614.5319	1306.1	423.6
988.1629	2615.8115	1306.45	421.85
988.2878	2617.0903	1298.5	414.9
988.4126	2618.3685	1297.75	414.45
988.5375	2619.6461	1288.7	407.25
988.6622	2620.9229	1292.9	411.1
988.787	2622.199	1300.6	418.2
988.9117	2623.4745	1299.9	417.4
989.0364	2624.7493	1298.7	416.35
989.161	2626.0234	1296	413.35
989.2857	2627.2968	1290.1	406.5
989.4102	2628.5695	1292.85	410.15
989.5348	2629.8415	1287.25	403.95
989.6593	2631.1128	1293.6	409.25
989.7837	2632.3835	1291.8	411.4
989.9082	2633.6535	1291.4	407.75
990.0326	2634.9228	1291.3	409.7
990.1569	2636.1914	1283.2	401.75
990.2812	2637.4593	1286.85	401.5
990.4055	2638.7265	1286.35	402.45
990.5298	2639.9931	1285.25	401.15
990.654	2641.259	1282.85	399.65
990.7782	2642.5242	1282.35	400
990.9023	2643.7887	1281.05	399.85
991.0264	2645.0525	1279.75	396.85
991.1505	2646.3156	1277.15	393.4
991.2745	2647.5781	1276.65	394.5
991.3985	2648.8398	1280.75	399.85
991.5225	2650.1009	1315.65	394.6
991.6464	2651.3613	1275.75	393.75
991.7703	2652.6211	1281.1	399.2
991.8942	2653.8801	1279.95	397.35
992.018	2655.1385	1273.45	386.75
992.1418	2656.3961	1272.55	390.95
992.2655	2657.6531	1271.95	389.4
992.3892	2658.9094	1282.45	400.55
992.5129	2660.1651	1273.85	393.75
992.6366	2661.42	1278.65	396.95
992.7602	2662.6743	1286.2	403.35
992.8837	2663.9279	1279.3	395.75
993.0073	2665.1808	1280.3	398.25
993.1307	2666.433	1284.95	400.65
993.2542	2667.6846	1284.45	404.35
993.3776	2668.9354	1289	405.15
993.501	2670.1856	1289.7	406.1
993.6244	2671.4351	1290.05	409.6
993.7477	2672.6839	1290.4	408.4
993.8709	2673.9321	1293	411.55
993.9942	2675.1795	1295.35	414.25
994.1174	2676.4263	1295.45	412.95
994.2405	2677.6724	1291.3	409.85
994.3637	2678.9179	1302.15	419.75
994.4868	2680.1626	1294	411.7
994.6098	2681.4067	1291.6	409.85
994.7328	2682.6501	1300.65	416.25
994.8558	2683.8928	1292.6	410.35
994.9788	2685.1348	1289	407.6
995.1017	2686.3761	1291	406.1
995.2245	2687.6168	1289.5	405.85
995.3474	2688.8568	1283.95	403
995.4702	2690.0961	1275.75	395.45
995.5929	2691.3348	1279.55	396.95
995.7156	2692.5727	1274.7	392.55
995.8383	2693.81	1270.65	388.75
995.961	2695.0466	1274.65	391.05
996.0836	2696.2826	1277.4	395.65
996.2062	2697.5178	1297.05	395.5
996.3287	2698.7524	1282.1	399.85
996.4512	2699.9863	1281.95	397.55
996.5737	2701.2195	1280.05	397.95
996.6961	2702.452	1286.1	402.3
996.8185	2703.6839	1289	404.45
996.9408	2704.9151	1287.75	406.4
997.0631	2706.1456	1290.1	408.8
997.1854	2707.3755	1302.85	420.85
997.3077	2708.6046	1312.55	427.3
997.4299	2709.8331	1310.3	427.95
997.552	2711.0609	1316.25	435.1
997.6742	2712.2881	1321.95	440
997.7963	2713.5145	1329.1	445.7
997.9183	2714.7403	1340.25	460.85
998.0403	2715.9654	1340	458.7
998.1623	2717.1899	1360.6	464.5
998.2842	2718.4136	1361.95	481.95
998.4062	2719.6367	1371.3	489.4
998.528	2720.8591	1391.4	503.65
998.6498	2722.0809	1389.65	507.5
998.7716	2723.3019	1400.7	515.05
998.8934	2724.5223	1411.85	528.05
999.0151	2725.7421	1410.6	527.9
999.1368	2726.9611	1412.4	528.1
999.2584	2728.1795	1410.9	525.65
999.38	2729.3972	1401.4	519.15
999.5016	2730.6142	1401.55	510.9
999.6231	2731.8306	1386.9	504.65
999.7446	2733.0462	1365.5	480.45
999.8661	2734.2612	1368.15	484.9
999.9875	2735.4756	1348.85	466.65
1000.1089	2736.6892	1332.8	452.35
1000.2302	2737.9022	1325.05	444.25
1000.3515	2739.1145	1314.25	433.2
1000.4728	2740.3262	1312.35	423.45
1000.594	2741.5372	1296.75	416.05
1000.7152	2742.7475	1289.2	406.5
1000.8363	2743.9571	1278.1	394.7
1000.9575	2745.1661	1283.8	396.7
1001.0785	2746.3744	1266.55	384.2
1001.1996	2747.582	1265	382.9
1001.3206	2748.7889	1256.6	374.55
1001.4415	2749.9952	1251.45	369.4
1001.5625	2751.2008	1243.15	362.1
1001.6833	2752.4057	1244.1	361.55
1001.8042	2753.61	1239.45	357.9
1001.925	2754.8136	1239.7	356.2
1002.0458	2756.0165	1232.85	353.6
1002.1665	2757.2188	1236.75	355.8
1002.2872	2758.4204	1235.2	353.7
1002.4078	2759.6213	1237.7	353.45
1002.5285	2760.8215	1239.4	352.95
1002.649	2762.0211	1236.6	353.25
1002.7696	2763.22	1240.6	355.6
1002.8901	2764.4182	1241.45	358.15
1003.0106	2765.6158	1227.1	346
1003.131	2766.8127	1227.4	347
1003.2514	2768.009	1224.7	342.7
1003.3717	2769.2045	1221.8	341.25
1003.492	2770.3994	1229.4	345.95
1003.6123	2771.5936	1219.45	337.95
1003.7325	2772.7872	1214.75	333.9
1003.8527	2773.9801	1213.25	331.5
1003.9729	2775.1723	1228.7	331.8
1004.093	2776.3639	1215.9	338.3
1004.2131	2777.5548	1213.85	330.75
1004.3331	2778.745	1214.45	332.65
1004.4531	2779.9346	1217.25	336.2
1004.5731	2781.1235	1214.95	334.55
1004.693	2782.3117	1215.85	334.15
1004.8129	2783.4992	1217	338.5
1004.9328	2784.6861	1222.55	341.9
1005.0526	2785.8723	1226.2	343.35
1005.1723	2787.0579	1226.85	345.3
1005.2921	2788.2428	1231.2	350.05
1005.4118	2789.427	1231.05	352.3
1005.5314	2790.6106	1236	355.85
1005.651	2791.7935	1240.1	357.75
1005.7706	2792.9757	1242.1	362.7
1005.8902	2794.1573	1250.2	366.8
1006.0097	2795.3382	1257.2	376.95
1006.1291	2796.5184	1258.35	376.9
1006.2485	2797.698	1269.3	387.1
1006.3679	2798.8769	1280.5	401.9
1006.4873	2800.0551	1285.65	403.65
1006.6066	2801.2327	1297.55	414.65
1006.7258	2802.4096	1304.65	424.05
1006.8451	2803.5859	1320.5	438.5
1006.9642	2804.7615	1332.8	450.7
1007.0834	2805.9364	1342.25	462
1007.2025	2807.1106	1361.1	481.35
1007.3216	2808.2842	1370.25	488.1
1007.4406	2809.4572	1395.6	516.25
1007.5596	2810.6294	1421.85	542.5
1007.6785	2811.801	1447.2	568
1007.7975	2812.972	1474.3	595.15
1007.9163	2814.1423	1505.05	626
1008.0352	2815.3119	1550.75	669.8
1008.154	2816.4808	1582.4	702.75
1008.2727	2817.6491	1630.95	751.6
1008.3914	2818.8167	1670.45	791.45
1008.5101	2819.9837	1728.15	843.55
1008.6288	2821.15	1768.05	890.05
1008.7474	2822.3157	1818.2	936.95
1008.8659	2823.4807	1875.35	995.4
1008.9844	2824.645	1928.3	1047.35
1009.1029	2825.8086	1976.5	1095.8
1009.2214	2826.9716	2014.45	1134.4
1009.3398	2828.134	2063.15	1184.1
1009.4581	2829.2957	2109.3	1229.45
1009.5764	2830.4567	2142.05	1261.25
1009.6947	2831.617	2161.65	1282.25
1009.813	2832.7767	2181.1	1302.3
1009.9312	2833.9358	2175.75	1296.35
1010.0493	2835.0941	2162.95	1279.65
1010.1675	2836.2519	2152.3	1272.65
1010.2855	2837.4089	2138.95	1260
1010.4036	2838.5653	2125.35	1244.7
1010.5216	2839.7211	2104.3	1225.7
1010.6396	2840.8761	2102.1	1221.3
1010.7575	2842.0306	2107.9	1227
1010.8754	2843.1843	2124.8	1244.7
1010.9932	2844.3374	2147.6	1268.1
1011.111	2845.4899	2169	1287.25
1011.2288	2846.6417	2218.4	1338
1011.3465	2847.7928	2255.25	1373.7
1011.4642	2848.9433	2302.25	1420.65
1011.5818	2850.0931	2356.4	1476.6
1011.6995	2851.2422	2397.25	1515.65
1011.817	2852.3907	2442.65	1562.1
1011.9345	2853.5385	2488.8	1608.15
1012.052	2854.6857	2552.3	1646.7
1012.1695	2855.8323	2562.3	1682.15
1012.2869	2856.9781	2604.2	1725.35
1012.4042	2858.1233	2660.05	1780.1
1012.5216	2859.2679	2692.3	1813.85
1012.6389	2860.4118	2728.7	1849.8
1012.7561	2861.555	2772.85	1888.35
1012.8733	2862.6976	2820	1939.95
1012.9905	2863.8395	2837.5	1957.85
1013.1076	2864.9808	2865.75	1986.75
1013.2247	2866.1214	2881.55	2003.8
1013.3417	2867.2614	2909.45	2029.35
1013.4587	2868.4007	2908.45	2027.2
1013.5757	2869.5393	2932.5	2051.15
1013.6926	2870.6773	2934.75	2051.9
1013.8095	2871.8146	2946.35	2063.2
1013.9263	2872.9513	2947.25	2065
1014.0431	2874.0874	2946.6	2066.15
1014.1599	2875.2227	2933.9	2052.9
1014.2766	2876.3574	2930.55	2049.65
1014.3933	2877.4915	2902.65	2025.95
1014.51	2878.6249	2891.65	2013.7
1014.6266	2879.7577	2851.45	1970.75
1014.7431	2880.8898	2852.9	1961.45
1014.8596	2882.0212	2838	1960.05
1014.9761	2883.152	2825.9	1945.8
1015.0925	2884.2821	2824.25	1946.8
1015.2089	2885.4116	2822.1	1942
1015.3253	2886.5405	2832.35	1953.45
1015.4416	2887.6686	2835.4	1953.75
1015.5579	2888.7962	2834.95	1958.4
1015.6741	2889.923	2847.3	1969.7
1015.7903	2891.0493	2846.45	1966.6
1015.9065	2892.1748	2860.9	1981.15
1016.0226	2893.2997	2869.45	1987.25
1016.1387	2894.424	2873.4	1995.4
1016.2547	2895.5476	2877.65	1998.3
1016.3707	2896.6706	2905.8	2028.25
1016.4866	2897.7929	2922.05	2043.1
1016.6025	2898.9145	2939.45	2058.3
1016.7184	2900.0355	2965.45	2086.4
1016.8342	2901.1559	2980.3	2099.6
1016.95	2902.2756	2998.35	2118.4
1017.0658	2903.3946	3036.2	2156.9
1017.1815	2904.513	3053.35	2172.55
1017.2971	2905.6308	3076.9	2198.05
1017.4127	2906.7479	3097.05	2215.9
1017.5283	2907.8643	3124.1	2245.3
1017.6439	2908.9801	3132.6	2253.1
1017.7594	2910.0953	3125.15	2245.8
1017.8748	2911.2098	3120	2235.85
1017.9902	2912.3236	3116.65	2230.1
1018.1056	2913.4368	3103.75	2220.35
1018.2209	2914.5494	3075.4	2197.1
1018.3362	2915.6613	3070.1	2183.9
1018.4515	2916.7725	3047.2	2165.5
1018.5667	2917.8831	3018.05	2136.8
1018.6819	2918.9931	2997.05	2117.05
1018.797	2920.1024	2963.45	2084.25
1018.9121	2921.211	2932.2	2055.75
1019.0271	2922.319	2946.15	2065.9
1019.1421	2923.4264	2930.45	2053.8
1019.2571	2924.5331	2916.75	2038.9
1019.372	2925.6391	2920.95	2041.55
1019.4869	2926.7445	2905.85	2027.35
1019.6017	2927.8493	2917.7	2039.55
1019.7165	2928.9534	2929	2050.3
1019.8313	2930.0569	2941.55	2060.05
1019.946	2931.1597	2949.7	2069.1
1020.0606	2932.2619	2944.3	2063.7
1020.1753	2933.3634	2945.2	2067.7
1020.2899	2934.4643	2969.75	2085.15
1020.4044	2935.5645	2959.35	2072.55
1020.5189	2936.6641	2944.75	2060.05
1020.6334	2937.763	2918.65	2041.25
1020.7478	2938.8613	2886.15	2007.25
1020.8622	2939.959	2868.05	1985.4
1020.9765	2941.056	2806.2	1928.3
1021.0908	2942.1523	2764.5	1885.35
1021.2051	2943.248	2697.6	1819.2
1021.3193	2944.3431	2625.85	1746.65
1021.4334	2945.4375	2546.45	1664.6
1021.5476	2946.5313	2455.5	1578.2
1021.6617	2947.6244	2385.5	1507.7
1021.7757	2948.7169	2307.25	1425.75
1021.8897	2949.8087	2235.5	1357.65
1022.0037	2950.8999	2156.05	1275.9
1022.1176	2951.9904	2091.85	1213.75
1022.2315	2953.0803	2025.4	1146.4
1022.3453	2954.1696	1979.95	1100.85
1022.4591	2955.2582	1944.05	1063.35
1022.5728	2956.3462	1911.5	1034.2
1022.6865	2957.4335	1873	992.7
1022.8002	2958.5202	1850.15	970.15
1022.9138	2959.6062	1828.75	950.2
1023.0274	2960.6916	1800.2	919.7
1023.141	2961.7764	1786.05	907.95
1023.2545	2962.8605	1783.05	902.9
1023.3679	2963.9439	1772.8	896.5
1023.4813	2965.0267	1757.75	878.2
1023.5947	2966.1089	1779.9	877.1
1023.708	2967.1905	1747.1	869.15
1023.8213	2968.2714	1741.45	860.15
1023.9346	2969.3516	1746.65	867.75
1024.0478	2970.4312	1754.75	868.85
1024.1609	2971.5102	1749.35	872.8
1024.274	2972.5885	1761.8	883.6
1024.3871	2973.6662	1768.65	885.3
1024.5002	2974.7432	1764.15	885.75
1024.6132	2975.8196	1760	882.05
1024.7261	2976.8954	1747.55	869.7
1024.839	2977.9705	1748.35	870.15
1024.9519	2979.045	1738.15	860.25
1025.0647	2980.1188	1729.2	850
1025.1775	2981.192	1718.1	839.35
1025.2902	2982.2645	1703.8	824
1025.4029	2983.3364	1680.35	801.35
1025.5156	2984.4077	1663.05	783.25
1025.6282	2985.4783	1644.15	762
1025.7407	2986.5483	1622.45	745.05
1025.8532	2987.6177	1593.3	714.6
1025.9657	2988.6864	1566.85	689.05
1026.0782	2989.7545	1539.6	660.8
1026.1906	2990.8219	1512.5	635.75
1026.3029	2991.8887	1484.4	604.7
1026.4152	2992.9548	1459.2	578.8
1026.5275	2994.0204	1430.3	552.2
1026.6397	2995.0852	1408.7	532
1026.7519	2996.1495	1387.35	507.95
1026.864	2997.2131	1364.65	487.3
1026.9761	2998.276	1335.4	457.35
1027.0882	2999.3383	1331.45	450.9
1027.2002	3000.4	1306.55	428.05
1027.3122	3001.4611	1290.25	411.05
1027.4241	3002.5215	1276.25	395.15
1027.536	3003.5812	1268.9	389.5
1027.6478	3004.6404	1254.1	374.25
1027.7596	3005.6989	1245.85	365.1
1027.8714	3006.7567	1230.85	353
1027.9831	3007.8139	1250.25	345.95
1028.0947	3008.8705	1215.55	337.25
1028.2064	3009.9264	1210.2	327.8
1028.3179	3010.9818	1205.95	325.3
1028.4295	3012.0364	1194.9	315.6
1028.541	3013.0905	1187.9	309.2
1028.6524	3014.1439	1189	310.8
1028.7638	3015.1966	1180.1	303.65
1028.8752	3016.2487	1176.55	298.65
1028.9865	3017.3002	1174.5	291.05
1029.0978	3018.3511	1162.7	286.45
1029.209	3019.4013	1159.9	282.55
1029.3202	3020.4509	1165.65	288.3
1029.4314	3021.4998	1164.7	285
1029.5425	3022.5481	1158.75	280.8
1029.6535	3023.5958	1161.4	285.1
1029.7645	3024.6428	1158.85	279.35
1029.8755	3025.6892	1156.3	279.45
1029.9864	3026.735	1154.45	276.4
1030.0973	3027.7802	1154.6	276.2
1030.2082	3028.8247	1153.65	274.8
1030.319	3029.8685	1155.15	277.25
1030.4297	3030.9118	1156.15	278.35
1030.5404	3031.9544	1150.65	271.85
1030.6511	3032.9963	1156	277.15
1030.7617	3034.0376	1155.75	279.05
1030.8723	3035.0783	1161.75	282.7
1030.9829	3036.1184	1161.8	283.7
1031.0934	3037.1578	1165.5	289.15
1031.2038	3038.1966	1158.3	277.85
1031.3142	3039.2348	1160.5	283.45
1031.4246	3040.2723	1172.4	285.8
1031.5349	3041.3092	1162.55	286.35
1031.6452	3042.3455	1171.55	294.7
1031.7554	3043.3811	1173.05	294.65
1031.8656	3044.4161	1164.25	284.3
1031.9758	3045.4505	1161.8	284.6
1032.0859	3046.4842	1165.4	285.55
1032.1959	3047.5173	1158.95	281.8
1032.3059	3048.5498	1162.85	281.5
1032.4159	3049.5816	1158.8	281.15
1032.5258	3050.6128	1157.8	277.45
1032.6357	3051.6434	1157.7	278.4
1032.7455	3052.6734	1156.9	279.9
1032.8553	3053.7027	1156.35	279.35
1032.9651	3054.7314	1154.45	277.3
1033.0748	3055.7594	1147.25	270.3
1033.1845	3056.7868	1151.15	271.55
1033.2941	3057.8136	1148.2	269.75
1033.4037	3058.8398	1148.05	271
1033.5132	3059.8653	1145.75	267.75
1033.6227	3060.8902	1143.5	265.5
1033.7321	3061.9145	1141.05	263.15
1033.8415	3062.9381	1139.6	263.25
1033.9509	3063.9612	1160.45	267.15
1034.0602	3064.9835	1139	261.15
1034.1694	3066.0053	1138.15	257.65
1034.2787	3067.0264	1137.4	258.8
1034.3878	3068.0469	1131.3	252.4
1034.497	3069.0668	1134.55	254.75
1034.6061	3070.086	1126.3	247.75
1034.7151	3071.1046	1122.5	245.35
1034.8241	3072.1226	1117.85	238.1
1034.9331	3073.1399	1116.55	238.5
1035.042	3074.1567	1107.25	229.8
1035.1508	3075.1727	1108.8	229.7
1035.2597	3076.1882	1094.05	217.35
1035.3684	3077.203	1089.55	211.55
1035.4772	3078.2173	1094.5	213.75
1035.5859	3079.2308	1088.15	208.45
1035.6945	3080.2438	1082.95	202.65
1035.8031	3081.2561	1076.2	200.5
1035.9117	3082.2678	1066.5	188.1
1036.0202	3083.2789	1067.6	189
1036.1286	3084.2893	1057	180.45
1036.2371	3085.2991	1058.3	180
1036.3454	3086.3083	1060.45	180.25
1036.4538	3087.3169	1053.2	173.05
1036.562	3088.3248	1050.5	171.9
1036.6703	3089.3321	1040.8	161.9
1036.7785	3090.3388	1034.9	156.75
1036.8866	3091.3449	1039.05	161.25
1036.9948	3092.3503	1039.65	158.85
1037.1028	3093.3551	1033.55	156.25
1037.2108	3094.3593	1026.05	149.35
1037.3188	3095.3629	1024.5	147.9
1037.4267	3096.3658	1025.8	146.35
1037.5346	3097.3681	1027.25	149.15
1037.6425	3098.3698	1021.05	141.7
1037.7503	3099.3708	1027.45	144.55
1037.858	3100.3713	1012.65	134.9
1037.9657	3101.3711	1013.65	136.9
1038.0734	3102.3702	1125.15	132.6
1038.181	3103.3688	1008.9	130.15
1038.2886	3104.3667	1010.9	135.1
1038.3961	3105.364	1005.6	127.7
1038.5036	3106.3607	1008.45	129.85
1038.611	3107.3568	1005.8	127
1038.7184	3108.3522	1000.2	123.45
1038.8257	3109.347	1000.85	124.25
1038.933	3110.3412	1000.4	119.85
1039.0403	3111.3348	996.9	120.85
1039.1475	3112.3277	997.15	120.8
1039.2547	3113.32	989.6	114.1
1039.3618	3114.3117	989.8	112.25
1039.4689	3115.3028	990.6	112.55
1039.5759	3116.2932	989.45	109.5
1039.6829	3117.2831	994.85	111.2
1039.7898	3118.2723	988.15	110.9
1039.8967	3119.2608	983.35	104.65
1040.0035	3120.2488	983.75	105.55
1040.1103	3121.2361	983.35	104.6
1040.2171	3122.2229	982.45	103.4
1040.3238	3123.209	977.4	98.35
1040.4305	3124.1944	977.6	101.55
1040.5371	3125.1793	978.85	98.65
1040.6437	3126.1635	974.85	97.25
1040.7502	3127.1471	979.25	102.45
1040.8567	3128.1301	971.8	92.35
1040.9631	3129.1125	974.4	97.1
1041.0695	3130.0942	971.2	93.8
1041.1759	3131.0753	979.45	91.95
1041.2822	3132.0558	970.7	89.95
1041.3884	3133.0357	973	96.1
1041.4946	3134.015	969.9	91.65
1041.6008	3134.9936	969.6	90.8
1041.7069	3135.9716	986.4	88
1041.813	3136.949	964.2	85.8
1041.919	3137.9258	988.05	92.2
1042.025	3138.902	967.9	84.95
1042.1309	3139.8775	960.75	84.6
1042.2368	3140.8524	961.95	85.65
1042.3427	3141.8267	960.45	81.15
1042.4485	3142.8004	959.75	81.75
1042.5542	3143.7735	969.05	85.85
1042.6599	3144.7459	965.4	86.95
1042.7656	3145.7178	964.1	85.85
1042.8712	3146.689	956.45	82.3
1042.9768	3147.6596	959.05	80.6
1043.0823	3148.6295	958.75	81.3
1043.1878	3149.5989	954.65	75.35
1043.2932	3150.5676	954.9	78.35
1043.3986	3151.5357	955.05	78.75
1043.5039	3152.5032	956.2	78.85
1043.6092	3153.4701	954.8	78.25
1043.7145	3154.4364	958.95	80.9
1043.8197	3155.402	952.7	75.75
1043.9248	3156.367	954.85	74.8
1044.03	3157.3315	986.2	71.85
1044.135	3158.2952	952.3	75.9
1044.24	3159.2584	950.05	73.2
1044.345	3160.221	950.5	72.85
1044.4499	3161.1829	948.4	71.6
1044.5548	3162.1442	951.2	75.05
1044.6596	3163.105	951.7	73.35
1044.7644	3164.065	953.6	75.65
1044.8692	3165.0245	950.75	70.95
1044.9739	3165.9834	946.95	70.8
1045.0785	3166.9416	944.35	67.5
1045.1831	3167.8993	947.65	69.05
1045.2877	3168.8563	950.65	73.85
1045.3922	3169.8127	942.8	66.55
1045.4966	3170.7684	945.5	69.35
1045.6011	3171.7236	945.4	67.3
1045.7054	3172.6782	943.55	66.45
1045.8098	3173.6321	943.45	64.4
1045.914	3174.5854	949.35	68.05
1046.0183	3175.5381	943.9	64.9
1046.1224	3176.4902	939.15	63.2
1046.2266	3177.4417	943.15	66.6
1046.3307	3178.3926	940.25	63.1
1046.4347	3179.3428	941.45	65
1046.5387	3180.2924	943.8	68.25
1046.6427	3181.2415	940.5	63.4
1046.7466	3182.1899	939.05	60.45
1046.8504	3183.1377	938.55	62.8
1046.9542	3184.0848	941.2	59.15
1047.058	3185.0314	937.85	59.55
1047.1617	3185.9773	938.05	59.9
1047.2654	3186.9227	939.8	62.65
1047.369	3187.8674	936.35	59.6
1047.4726	3188.8115	938.85	57.5
1047.5761	3189.755	937.5	59.7
1047.6796	3190.6979	935.05	58.65
1047.783	3191.6402	934.85	58.7
1047.8864	3192.5818	934.5	55.7
1047.9898	3193.5229	948.65	58.25
1048.0931	3194.4633	935.2	58.8
1048.1963	3195.4031	933.55	56.2
1048.2995	3196.3423	931.8	57.75
1048.4027	3197.2809	930.55	53.55
1048.5058	3198.2189	934.6	56.7
1048.6089	3199.1563	951.55	57.55
1048.7119	3200.0931	932.05	55.55
1048.8148	3201.0292	930.85	54.45
1048.9178	3201.9648	931.15	54.15
1049.0206	3202.8997	934.15	53.95
1049.1235	3203.834	932.4	54.8
1049.2262	3204.7677	928.3	54.35
1049.329	3205.7008	933.55	56.5
1049.4317	3206.6333	928.8	53.65
1049.5343	3207.5652	930.15	53.1
1049.6369	3208.4964	928.15	49.65
1049.7394	3209.4271	928.4	50.65
1049.8419	3210.3571	929.75	53.65
1049.9444	3211.2865	932.05	53.5
1050.0468	3212.2154	932.55	53.45
1050.1491	3213.1436	927.8	46.65
1050.2514	3214.0712	936.35	53.05
1050.3537	3214.9982	927.85	50.9
1050.4559	3215.9246	926	47.35
1050.5581	3216.8503	922.35	47.95
1050.6602	3217.7755	926.75	49.35
1050.7623	3218.7001	926.1	49.75
1050.8643	3219.624	924.05	45.25
1050.9663	3220.5473	925.85	49.85
1051.0682	3221.4701	927.5	48.65
1051.1701	3222.3922	927.5	48.75
1051.2719	3223.3137	928.15	50.9
1051.3737	3224.2346	924.5	47.65
1051.4754	3225.1549	925.55	50
1051.5771	3226.0746	923.7	47.55
1051.6788	3226.9937	923.55	47.4
1051.7804	3227.9121	922	47.05
1051.8819	3228.83	921	45.55
1051.9834	3229.7473	923.1	47.2
1052.0849	3230.6639	921.15	43.4
1052.1863	3231.5799	922.4	44.5
1052.2876	3232.4954	921.4	44
1052.3889	3233.4102	918	42.4
1052.4902	3234.3244	921.5	43.35
1052.5914	3235.238	919.55	43.8
1052.6926	3236.151	942.75	40.05
1052.7937	3237.0634	918.6	43.5
1052.8948	3237.9752	920.8	44.95
1052.9958	3238.8864	919.6	41.3
1053.0968	3239.797	920	43.1
1053.1977	3240.7069	919.05	41.25
1053.2986	3241.6163	920.05	43.15
1053.3994	3242.5251	917.4	40.7
1053.5002	3243.4332	915.5	38.9
1053.6009	3244.3408	917.85	41.8
1053.7016	3245.2477	917.25	40.3
1053.8022	3246.154	917.9	39.75
1053.9028	3247.0598	918.5	42.1
1054.0034	3247.9649	915.75	38.8
1054.1039	3248.8694	915.95	39.55
1054.2043	3249.7733	915.45	37.55
1054.3047	3250.6766	915.1	37.35
1054.4051	3251.5793	915.4	36.85
1054.5054	3252.4814	913.15	37.6
1054.6056	3253.3829	912.75	37.45
1054.7058	3254.2838	914.35	38.8
1054.806	3255.1841	913.4	37.7
1054.9061	3256.0838	913.05	36.35
1055.0061	3256.9829	912.1	35.8
1055.1062	3257.8814	912.3	32.85
1055.2061	3258.7792	911.7	33.6
1055.306	3259.6765	910.9	33.25
1055.4059	3260.5731	911.3	36.8
1055.5057	3261.4692	911.45	33.95
1055.6055	3262.3647	910.9	34
1055.7052	3263.2595	909.4	32.4
1055.8049	3264.1538	908.2	29.9
1055.9045	3265.0474	908.05	29.1
1056.0041	3265.9404	905.6	30.1
1056.1036	3266.8329	906.25	30.75
1056.2031	3267.7247	914.75	28.85
1056.3025	3268.616	905.5	31.1
1056.4019	3269.5066	904.3	25.85
1056.5013	3270.3966	907.85	30.8
1056.6005	3271.286	901.35	24.55
