Software Version:	3.9.2.0
Unit SN:	10000200
Spectrometer SN:	6960
Date:	3/8/2024 12:55:46 PM
Data Line Index:	25
Spectral Points:	2048
Integration time (ms):	125
Averages:	20
Delay (ms):	30000
Sequence Number:	1
Processing:	dark subtract
Laser Power (mW):	305
Laser Current (mA):	825
Laser Diode Temp (C):	25
Laser Case Temp (C):	26.1
System Temp (C):	26.1
Spectrometer Temp (C):	23.9
CCD Temp (C):	0.012
Secondary Temp (C):	20.006
Heatsink Temp (C):	20.289
CCDPCB Temp (C):	36.051
SecondaryPCB Temp (C):	30.015

Wavelength	RamanShift	Raw Counts	Dark Subtracted
787.061	30.1047	454.4	45.6
787.2016	32.3739	455.35	49.25
787.3422	34.6426	459.25	53.9
787.4828	36.9109	465.5	57.65
787.6235	39.1787	475.5	62.1
787.7642	41.4461	486.35	68.3
787.9049	43.7131	495.7	75.05
788.0456	45.9796	500.7	78.2
788.1863	48.2456	511.65	83.65
788.3271	50.5112	520.45	89.4
788.4679	52.7764	530.45	94.8
788.6087	55.0411	539.2	97.35
788.7496	57.3054	549.4	101.4
788.8904	59.5692	559.85	114.35
789.0313	61.8326	570.6	120.55
789.1722	64.0955	581.65	128.8
789.3132	66.3579	598.2	138.1
789.4541	68.6199	622.25	161.1
789.5951	70.8815	658.15	191.15
789.7361	73.1426	737.4	264.3
789.8771	75.4032	949.2	473.35
790.0181	77.6634	1486.45	1004.75
790.1592	79.9231	2702.8	2212
790.3003	82.1824	5392.3	4884.7
790.4414	84.4412	10144.4	9602.7
790.5825	86.6995	16675.85	16090.5
790.7237	88.9574	22956.4	22334.25
790.8648	91.2148	27186.1	26532.3
791.006	93.4717	29046.6	28380.65
791.1472	95.7282	29325.75	28649
791.2885	97.9842	28992.3	28313.05
791.4297	100.2398	28225.8	27546.15
791.571	102.4949	27393.4	26709.25
791.7123	104.7495	26482.85	25803.65
791.8536	107.0036	25533	24847.9
791.9949	109.2573	24706.25	24019.75
792.1363	111.5105	23898.8	23209.1
792.2777	113.7632	23152.7	22460.2
792.4191	116.0154	22568.95	21869.1
792.5605	118.2672	22133.65	21436.15
792.7019	120.5185	21705.5	21008.2
792.8434	122.7693	21354.85	20654.15
792.9849	125.0197	21073.8	20370.85
793.1264	127.2696	20798.95	20086.55
793.2679	129.519	20595.2	19881.25
793.4094	131.7679	20298.35	19584.35
793.551	134.0163	20041.25	19323.95
793.6926	136.2642	19686.45	18961.55
793.8342	138.5117	19357.15	18625.1
793.9758	140.7587	19021	18294.25
794.1175	143.0052	18660.8	17927.9
794.2591	145.2512	18293.5	17564.2
794.4008	147.4967	18009.7	17279.6
794.5425	149.7417	17782.55	17049.95
794.6842	151.9863	17599.7	16864.75
794.826	154.2304	17470.8	16724.55
794.9677	156.4739	17318.15	16568.55
795.1095	158.717	17245.55	16497.25
795.2513	160.9596	17074	16327.2
795.3931	163.2017	16794	16040.9
795.535	165.4433	16474.8	15719.9
795.6768	167.6844	16148	15387.85
795.8187	169.925	15820.6	15063.85
795.9606	172.1651	15438.25	14679.4
796.1025	174.4047	15165.45	14402.5
796.2445	176.6439	14901.35	14140.2
796.3864	178.8825	14669.5	13902.2
796.5284	181.1206	14517.35	13739.5
796.6704	183.3582	14357	13579.55
796.8124	185.5954	14292.85	13511.6
796.9544	187.832	14204.25	13420.65
797.0965	190.0681	14167.8	13382.6
797.2386	192.3037	14183.55	13393.45
797.3806	194.5388	14176.9	13384.8
797.5228	196.7734	14179.45	13386.45
797.6649	199.0075	14246.9	13449.9
797.807	201.2411	14385.5	13589.5
797.9492	203.4742	14459.4	13659.05
798.0914	205.7068	14612.25	13808.9
798.2336	207.9389	14731.7	13927.85
798.3758	210.1704	14895.8	14101.9
798.518	212.4015	15014.05	14230.85
798.6603	214.632	15133.8	14354.3
798.8025	216.862	15301.2	14520.3
798.9448	219.0915	15427.65	14644.4
799.0871	221.3205	15550.75	14766.15
799.2294	223.549	15711.15	14936.2
799.3718	225.777	15861.15	15077.8
799.5141	228.0044	16040.95	15252.1
799.6565	230.2314	16294.5	15506.65
799.7989	232.4578	16458.65	15666.6
799.9413	234.6837	16680.15	15885.7
800.0837	236.909	16811.55	16009.65
800.2262	239.1339	16812.6	15986.15
800.3687	241.3582	16679.95	15864.25
800.5111	243.582	16525.4	15680.75
800.6536	245.8053	16364	15535.65
800.7961	248.0281	16258.25	15432.05
800.9387	250.2503	16161.2	15330.55
801.0812	252.472	16155.2	15323.75
801.2238	254.6932	16262.1	15434.05
801.3664	256.9139	16331.75	15505
801.509	259.134	16467.05	15630.5
801.6516	261.3536	16641.9	15805.7
801.7942	263.5727	16914	16079.9
801.9369	265.7912	17135.75	16303.1
802.0795	268.0092	17386.55	16553.25
802.2222	270.2267	17503.05	16669.7
802.3649	272.4436	17593.65	16758.1
802.5076	274.6601	17594.35	16749.1
802.6504	276.8759	17515.1	16677.35
802.7931	279.0913	17413.7	16565.8
802.9359	281.3061	17259.95	16414.9
803.0787	283.5204	17221.45	16367.2
803.2215	285.7341	17228.8	16378
803.3643	287.9473	17285.5	16426.3
803.5071	290.16	17382.85	16527
803.6499	292.3721	17534.2	16686
803.7928	294.5837	17816.4	16964.75
803.9357	296.7947	18077.55	17227.55
804.0786	299.0052	18257.2	17412.55
804.2215	301.2152	18219.5	17367.2
804.3644	303.4246	17978.45	17133.25
804.5074	305.6334	17554.1	16707.6
804.6503	307.8418	17116.55	16266.5
804.7933	310.0495	16674.4	15818.85
804.9363	312.2568	16245.65	15387.35
805.0793	314.4635	15927.05	15067.45
805.2223	316.6696	15657.75	14798
805.3653	318.8752	15472.65	14607.4
805.5084	321.0802	15457.6	14595.35
805.6514	323.2847	15456.9	14596.5
805.7945	325.4887	15490.35	14625.85
805.9376	327.692	15470.55	14601.55
806.0807	329.8949	15430.05	14567.85
806.2238	332.0972	15206.2	14340.6
806.367	334.2989	14981.25	14112.1
806.5101	336.5001	14704.05	13837.6
806.6533	338.7007	14504.2	13633.65
806.7965	340.9008	14367.15	13496.8
806.9397	343.1003	14192.4	13318.3
807.0829	345.2992	14101.4	13227.4
807.2261	347.4976	13994.45	13122.6
807.3693	349.6955	13952.5	13071.55
807.5126	351.8927	13973.95	13093.5
807.6559	354.0895	13911.6	13020.3
807.7991	356.2856	13897.2	13016
807.9424	358.4812	13839.8	12960.3
808.0857	360.6763	13857.55	12971.95
808.2291	362.8707	13846	12959.85
808.3724	365.0646	13877.1	12994.75
808.5158	367.258	13930.7	13039.4
808.6591	369.4508	14002	13115.1
808.8025	371.643	14114.8	13221.25
808.9459	373.8346	14180.6	13283.8
809.0893	376.0257	14257.05	13360.9
809.2327	378.2162	14247.25	13351.8
809.3762	380.4062	14182.4	13293.35
809.5196	382.5956	14060.3	13170.3
809.6631	384.7844	13967.4	13082.9
809.8066	386.9726	13817.1	12936.5
809.9501	389.1603	13767.75	12886.65
810.0936	391.3474	13717.55	12813
810.2371	393.5339	13657.55	12770.75
810.3806	395.7199	13627.6	12742.3
810.5241	397.9052	13672.85	12790.05
810.6677	400.09	13737.75	12852.2
810.8113	402.2743	13892.25	13007.9
810.9548	404.4579	14017.35	13130.7
811.0984	406.641	14224.25	13334.8
811.2421	408.8235	14426.15	13540.55
811.3857	411.0054	14629.65	13737.75
811.5293	413.1868	14878.45	13978.2
811.673	415.3675	15014.8	14114.85
811.8166	417.5477	15094.7	14195.8
811.9603	419.7273	15066.8	14169.95
812.104	421.9064	14974.2	14067.35
812.2477	424.0848	14885.7	13986.45
812.3914	426.2627	14715.65	13816.15
812.5351	428.4399	14452.05	13545.7
812.6788	430.6166	14112.35	13206.75
812.8226	432.7928	13766.3	12862.2
812.9663	434.9683	13461.55	12558.25
813.1101	437.1432	13241.6	12337.55
813.2539	439.3176	13050.75	12155.85
813.3977	441.4914	12945.65	12054.3
813.5415	443.6645	12909.4	12013.2
813.6853	445.8371	12824.15	11926.55
813.8291	448.0091	12786.45	11886.85
813.973	450.1806	12769.3	11869.45
814.1168	452.3514	12727.9	11830.55
814.2607	454.5216	12798.15	11894.75
814.4046	456.6913	12755.65	11854.05
814.5485	458.8603	12795.45	11897.9
814.6924	461.0288	12856.6	11961.2
814.8363	463.1967	12855.95	11962.45
814.9802	465.3639	12892.1	11999.05
815.1241	467.5306	12918.05	12016.55
815.2681	469.6967	12947.15	12051.7
815.412	471.8622	12993.45	12101.8
815.556	474.0271	13072.35	12174.1
815.7	476.1914	13124.3	12218.1
815.844	478.3551	13169.25	12267.7
815.988	480.5182	13191.05	12295.95
816.132	482.6807	13265.4	12374.6
816.276	484.8426	13400.6	12520.4
816.4201	487.0039	13755.7	12871.1
816.5641	489.1647	14161.25	13264.7
816.7082	491.3248	14488.3	13585.8
816.8522	493.4843	14679.85	13782.55
816.9963	495.6432	14622.7	13727.45
817.1404	497.8015	14490.35	13582.3
817.2845	499.9592	14411.8	13494.7
817.4286	502.1163	14251.25	13338.65
817.5727	504.2728	13957.05	13056.1
817.7168	506.4287	13638.05	12749.55
817.861	508.5839	13290.05	12397.15
818.0051	510.7386	13056.8	12156
818.1493	512.8927	12941.7	12028.05
818.2935	515.0461	12928.4	12019.3
818.4377	517.199	12938.3	12028.05
818.5818	519.3512	13072.8	12156.45
818.726	521.5029	13309.8	12396.6
818.8703	523.6539	13515.9	12606.45
819.0145	525.8043	13626.2	12714.25
819.1587	527.9541	13587.2	12674.7
819.303	530.1033	13429.45	12518.65
819.4472	532.2519	13320.1	12407.55
819.5915	534.3999	13307.75	12393.35
819.7357	536.5472	13424.1	12514.15
819.88	538.694	13695.2	12792.6
820.0243	540.8401	14039.75	13128.9
820.1686	542.9856	14350.4	13424
820.3129	545.1305	14419.45	13489.8
820.4572	547.2748	14365.8	13432.6
820.6016	549.4185	14093.6	13162.9
820.7459	551.5615	13932.85	13004.5
820.8902	553.704	13883.25	12956.7
821.0346	555.8458	13910.4	12987.95
821.1789	557.987	14063.95	13143.25
821.3233	560.1276	14238.1	13315.6
821.4677	562.2675	14558.1	13632.7
821.6121	564.4069	14966.05	14037.3
821.7565	566.5456	15331.25	14409.05
821.9009	568.6837	15429.25	14508.9
822.0453	570.8212	15018.7	14099.2
822.1897	572.958	14437.6	13519.25
822.3342	575.0942	13875.35	12959.25
822.4786	577.2299	13465.35	12552.3
822.6231	579.3648	13301.2	12399.95
822.7675	581.4992	13222.15	12331.45
822.912	583.6329	13351.2	12459.55
823.0565	585.766	13559.2	12661.2
823.201	587.8985	13681.2	12780.75
823.3454	590.0304	13760.7	12822.4
823.4899	592.1616	13740.1	12820.3
823.6345	594.2922	13608.35	12686.8
823.779	596.4222	13403.35	12475.5
823.9235	598.5515	13181.3	12251.3
824.068	600.6802	12994.65	12066.35
824.2126	602.8083	12856.85	11936.6
824.3571	604.9358	12813.45	11889.95
824.5017	607.0626	12825	11896.5
824.6462	609.1888	12886.4	11951.85
824.7908	611.3144	13005.4	12070.4
824.9354	613.4393	13078.45	12147.2
825.08	615.5636	13135.05	12204.25
825.2246	617.6873	13127.15	12193.3
825.3692	619.8103	13073.8	12137.95
825.5138	621.9327	12872.95	11942.5
825.6584	624.0544	12712.45	11788.2
825.803	626.1756	12548.25	11623.05
825.9477	628.2961	12456.45	11525.65
826.0923	630.4159	12337.65	11401.25
826.237	632.5351	12315.45	11382.75
826.3816	634.6537	12285.6	11350.95
826.5263	636.7716	12306.3	11368.2
826.6709	638.8889	12318.6	11375
826.8156	641.0056	12366.75	11427.3
826.9603	643.1216	12345.95	11405.95
827.105	645.237	12322.6	11383.4
827.2497	647.3518	12218.15	11289
827.3944	649.4659	12213	11288.25
827.5391	651.5793	12154.25	11230.15
827.6838	653.6922	12100.2	11172.95
827.8285	655.8043	12105.65	11176.2
827.9733	657.9159	12092.8	11160
828.118	660.0268	12053.1	11124
828.2627	662.137	12057.15	11124.2
828.4075	664.2466	12064.15	11121.7
828.5522	666.3556	12048.35	11109
828.697	668.4639	12015.65	11083.1
828.8418	670.5716	11989.75	11063.95
828.9865	672.6786	11985.15	11049.6
829.1313	674.785	11965.3	11023.4
829.2761	676.8907	11931	10996.4
829.4209	678.9958	11992.25	11060
829.5657	681.1002	11978.65	11044.7
829.7105	683.204	11960	11018.4
829.8553	685.3072	11912.7	10970.55
830.0001	687.4097	11905	10968.3
830.1449	689.5115	11878.6	10937.35
830.2898	691.6127	11867.6	10929.3
830.4346	693.7132	11811.35	10879.2
830.5794	695.8131	11840.5	10891.4
830.7243	697.9123	11861.9	10918.55
830.8691	700.0109	11863.75	10917.25
831.014	702.1089	11920.55	10982.35
831.1588	704.2061	11926.15	10986.85
831.3037	706.3028	11978.95	11036.85
831.4486	708.3987	12039.95	11094.35
831.5935	710.4941	12071.65	11131.1
831.7383	712.5887	12135.1	11196.1
831.8832	714.6827	12280.15	11336.55
832.0281	716.7761	12461.05	11528.1
832.173	718.8688	12682.05	11742.65
832.3179	720.9608	12838.45	11891.9
832.4628	723.0522	12979.7	12026.6
832.6077	725.1429	12997.65	12050.85
832.7527	727.233	12948.9	12006.35
832.8976	729.3224	12949.45	12006.75
833.0425	731.4112	12842.45	11897.85
833.1874	733.4993	12711.05	11761.65
833.3324	735.5867	12463.35	11520.55
833.4773	737.6735	12273.7	11329.95
833.6222	739.7596	12100.25	11152.5
833.7672	741.845	11979.4	11035.95
833.9122	743.9298	11910.2	10961.85
834.0571	746.014	11874.1	10928.8
834.2021	748.0974	11883.4	10928.7
834.347	750.1802	11878.6	10926.3
834.492	752.2624	11893.3	10942
834.637	754.3439	11958.6	11010.05
834.782	756.4247	12070.8	11114.15
834.9269	758.5048	12247.65	11297.9
835.0719	760.5843	12526	11571.55
835.2169	762.6631	12913.35	11958.45
835.3619	764.7413	13488.6	12538.15
835.5069	766.8188	14173.95	13224.65
835.6519	768.8956	14763.45	13809.35
835.7969	770.9718	15143	14192.65
835.9419	773.0473	15039.55	14092.5
836.0869	775.1221	14777.5	13828
836.232	777.1962	14461.6	13510.45
836.377	779.2697	14306.8	13354.65
836.522	781.3426	14368.9	13407.25
836.667	783.4147	14509.7	13555.7
836.8121	785.4862	14652.2	13702.25
836.9571	787.557	14485.65	13532.2
837.1021	789.6271	14067.2	13114.1
837.2472	791.6966	13448.2	12495.1
837.3922	793.7654	12872.35	11916.6
837.5373	795.8335	12469.15	11520.1
837.6823	797.901	12184.05	11231.05
837.8274	799.9678	12010.1	11056.35
837.9724	802.0339	11940.25	10987.1
838.1175	804.0993	11928.25	10962.55
838.2626	806.1641	11857.05	10904.75
838.4076	808.2282	11794.4	10841.25
838.5527	810.2916	11693.95	10741.25
838.6978	812.3544	11641.45	10692.9
838.8428	814.4164	11579.15	10627
838.9879	816.4778	11588.15	10631.2
839.133	818.5385	11631.6	10674.5
839.2781	820.5986	11758.6	10801.8
839.4232	822.658	11959.4	11000.15
839.5682	824.7166	12266.75	11309.5
839.7133	826.7747	12732.85	11781.05
839.8584	828.832	13192	12237.45
840.0035	830.8886	13563.6	12604.5
840.1486	832.9446	13748.05	12791.75
840.2937	834.9999	13608	12652.35
840.4388	837.0545	13384.45	12425.8
840.5839	839.1085	13090.9	12131.15
840.729	841.1618	12858.3	11898.65
840.8741	843.2143	12641.7	11686.25
841.0192	845.2662	12504.2	11544.4
841.1643	847.3175	12351.15	11396.1
841.3095	849.368	12218.5	11261.2
841.4546	851.4179	12136.45	11177.7
841.5997	853.467	12027.6	11071.2
841.7448	855.5155	11941.6	10982.65
841.8899	857.5633	11854.75	10897.45
842.0351	859.6105	11751.2	10794.45
842.1802	861.6569	11689.05	10730.5
842.3253	863.7027	11600.4	10643.45
842.4704	865.7478	11568.65	10609.95
842.6156	867.7922	11539.55	10578.4
842.7607	869.8359	11530.45	10568.45
842.9058	871.8789	11567.95	10608.45
843.0509	873.9212	11697.35	10704.3
843.1961	875.9629	11791.65	10830.6
843.3412	878.0039	11933.85	10971.8
843.4863	880.0441	12005	11048.3
843.6315	882.0837	12079	11124.8
843.7766	884.1226	12074.1	11116.7
843.9218	886.1609	12097.2	11139.15
844.0669	888.1984	12169.2	11208.9
844.212	890.2352	12249.65	11289.4
844.3572	892.2714	12278.15	11313.2
844.5023	894.3069	12215.85	11255.65
844.6475	896.3416	12075.75	11117.9
844.7926	898.3757	11931.6	10967.85
844.9377	900.4091	11852.4	10892.45
845.0829	902.4418	11881.25	10912.9
845.228	904.4739	11892.95	10927.1
845.3732	906.5052	11953.3	10989
845.5183	908.5358	11878.5	10914.45
845.6635	910.5658	11738.05	10775.9
845.8086	912.595	11562.9	10599.5
845.9538	914.6236	11353	10392.4
846.0989	916.6515	11221.65	10258.8
846.2441	918.6786	11171.3	10211.15
846.3892	920.7051	11173.95	10209.6
846.5344	922.7309	11244.85	10282.5
846.6795	924.756	11255.35	10298.1
846.8246	926.7804	11343.2	10377
846.9698	928.8041	11316.3	10350.7
847.1149	930.8272	11380.8	10418.65
847.2601	932.8495	11383.35	10421.85
847.4052	934.8711	11355.2	10391.35
847.5504	936.892	11265.5	10304.35
847.6955	938.9123	11215.6	10252.55
847.8407	940.9318	11192.65	10232
847.9858	942.9506	11163.75	10200.2
848.131	944.9688	11090.55	10126.5
848.2761	946.9862	11014	10054.65
848.4213	949.003	10895.8	9936.15
848.5664	951.019	10829.95	9870.9
848.7115	953.0344	10781.55	9818.55
848.8567	955.0491	10774.7	9814.3
849.0018	957.063	10841.65	9879.8
849.147	959.0763	10922.5	9964.2
849.2921	961.0888	10941.05	9977.4
849.4373	963.1007	11021.1	10065.05
849.5824	965.1119	11041.2	10091.7
849.7275	967.1223	11031.05	10086.65
849.8727	969.1321	11025.85	10083.75
850.0178	971.1412	11041.75	10087.55
850.1629	973.1495	11007.8	10047.05
850.3081	975.1572	11083.55	10076.6
850.4532	977.1641	11075.85	10113.4
850.5983	979.1704	11060.8	10099.5
850.7435	981.1759	11013.35	10047.35
850.8886	983.1808	11043.55	10079.2
851.0337	985.1849	11110.05	10136.7
851.1788	987.1884	11197.75	10239.3
851.324	989.1911	11307.85	10349.1
851.4691	991.1932	11388.5	10427.95
851.6142	993.1945	11403.45	10444.15
851.7593	995.1951	11366.35	10403.85
851.9045	997.1951	11331.35	10362.1
852.0496	999.1943	11294.5	10333.95
852.1947	1001.1928	11292.15	10329.05
852.3398	1003.1906	11317.1	10356
852.4849	1005.1877	11402	10440.6
852.63	1007.1841	11473.75	10514.55
852.7751	1009.1798	11479.8	10520.75
852.9202	1011.1748	11373.25	10416.7
853.0653	1013.1691	11210.55	10248.05
853.2104	1015.1627	11007.65	10049.95
853.3555	1017.1556	10797.75	9837.85
853.5006	1019.1477	10671.8	9718.75
853.6457	1021.1392	10569.8	9618
853.7908	1023.1299	10537.4	9590.25
853.9359	1025.12	10527.1	9587.4
854.081	1027.1093	10586.25	9656.85
854.2261	1029.0979	10707.65	9778.65
854.3712	1031.0859	10801.9	9870.25
854.5163	1033.0731	10833.1	9888.75
854.6613	1035.0596	10784.9	9837.55
854.8064	1037.0454	10677.1	9724.55
854.9515	1039.0304	10579.05	9624.15
855.0965	1041.0148	10445.4	9486.95
855.2416	1042.9985	10369.8	9410.05
855.3867	1044.9814	10308.3	9351.35
855.5317	1046.9636	10253.9	9298.8
855.6768	1048.9452	10206	9250.55
855.8219	1050.926	10261.55	9305.45
855.9669	1052.9061	10282.2	9326.1
856.112	1054.8855	10308.95	9351.6
856.257	1056.8642	10338.75	9384.2
856.4021	1058.8421	10405.45	9442.75
856.5471	1060.8194	10455.5	9498.9
856.6921	1062.7959	10479.35	9520.1
856.8372	1064.7717	10539.45	9579.05
856.9822	1066.7469	10615.2	9657.15
857.1272	1068.7213	10643.55	9680.05
857.2723	1070.695	10728.25	9771
857.4173	1072.6679	10743.15	9784.85
857.5623	1074.6402	10750.3	9790.5
857.7073	1076.6117	10703.2	9739.05
857.8523	1078.5826	10626.95	9668.3
857.9973	1080.5527	10497.65	9537.15
858.1423	1082.5221	10449.2	9489.55
858.2873	1084.4908	10480.35	9519.55
858.4323	1086.4587	10545.85	9586.6
858.5773	1088.426	10622.15	9662.35
858.7223	1090.3925	10627.85	9664.65
858.8673	1092.3584	10650.25	9691.45
859.0123	1094.3235	10624.2	9668.45
859.1573	1096.2879	10660.4	9704.3
859.3022	1098.2515	10756.8	9799.5
859.4472	1100.2145	10919.5	9963.95
859.5922	1102.1767	11087.4	10129.8
859.7371	1104.1382	11313.5	10355.95
859.8821	1106.099	11570.9	10612.25
860.027	1108.0591	11808.6	10853.1
860.172	1110.0185	11939.05	10982.75
860.3169	1111.9771	12019.55	11063.25
860.4619	1113.9351	11914.45	10954.45
860.6068	1115.8923	11735.5	10780.8
860.7517	1117.8488	11539.35	10580.95
860.8967	1119.8045	11331.15	10377.3
861.0416	1121.7596	11195.4	10237.15
861.1865	1123.7139	11070.4	10118.1
861.3314	1125.6675	11041.75	10089.45
861.4763	1127.6204	11068.15	10113.5
861.6212	1129.5726	11040.35	10083.05
861.7661	1131.524	10979.55	10021.6
861.911	1133.4748	10837.85	9882.75
862.0559	1135.4248	10702.95	9745.35
862.2008	1137.3741	10562.5	9608.05
862.3457	1139.3226	10463.6	9507.1
862.4905	1141.2705	10420.95	9465.4
862.6354	1143.2176	10318.05	9355.05
862.7803	1145.164	10282.25	9324.25
862.9251	1147.1097	10238.85	9286
863.07	1149.0546	10155.35	9197.2
863.2148	1150.9989	10048.6	9094.2
863.3597	1152.9424	9966.6	9008
863.5045	1154.8852	9858.1	8900
863.6493	1156.8272	9798.75	8844.05
863.7942	1158.7686	9806	8839.65
863.939	1160.7092	9806.3	8849.2
864.0838	1162.6491	9830.15	8874
864.2286	1164.5883	9920.7	8965.35
864.3734	1166.5267	10039.4	9083.15
864.5182	1168.4644	10209.75	9256.45
864.663	1170.4014	10405.2	9446.85
864.8078	1172.3377	10654.9	9707.55
864.9526	1174.2732	10951.75	10001.2
865.0974	1176.2081	11341.45	10388.4
865.2421	1178.1421	11815.75	10855.55
865.3869	1180.0755	12306.35	11348.15
865.5317	1182.0082	12600.4	11647.2
865.6764	1183.9401	12767.4	11816.1
865.8212	1185.8713	12647.1	11701.55
865.9659	1187.8017	12321.15	11382.6
866.1106	1189.7315	11945.45	11018.4
866.2554	1191.6605	11585.4	10657.15
866.4001	1193.5888	11307.45	10372.1
866.5448	1195.5163	11145.6	10201.85
866.6895	1197.4432	11050.6	10100.3
866.8342	1199.3693	10998	10047.1
866.9789	1201.2947	10983.4	10023.55
867.1236	1203.2193	10931.1	9978.4
867.2683	1205.1432	10943.3	9992.3
867.413	1207.0664	10927.25	9975.05
867.5576	1208.9889	10895.5	9944.15
867.7023	1210.9106	10890.15	9937.5
867.847	1212.8316	10918.35	9969.45
867.9916	1214.7519	10975	10015.25
868.1363	1216.6715	10977.4	10024.2
868.2809	1218.5903	11053.45	10102.7
868.4255	1220.5084	11096.4	10147.2
868.5701	1222.4257	11183.5	10230.8
868.7148	1224.3424	11202.05	10255.6
868.8594	1226.2583	11304.9	10354.55
869.004	1228.1735	11449.35	10497.85
869.1486	1230.0879	11578	10625.4
869.2932	1232.0016	11784.6	10833.55
869.4377	1233.9146	11872.45	10920.95
869.5823	1235.8269	11868.4	10917.1
869.7269	1237.7384	11809.3	10860.35
869.8715	1239.6492	11657.15	10706.55
870.016	1241.5592	11627.1	10676.4
870.1606	1243.4686	11625.25	10676.15
870.3051	1245.3772	11745.9	10796.65
870.4496	1247.285	11909.85	10959.35
870.5941	1249.1922	12066.05	11112.55
870.7387	1251.0986	12184.3	11237.4
870.8832	1253.0042	12221.9	11273.7
871.0277	1254.9092	12325.9	11379.1
871.1722	1256.8134	12418.15	11471.6
871.3167	1258.7169	12581.75	11633.95
871.4611	1260.6196	12738.95	11792.35
871.6056	1262.5216	12974.2	12020.15
871.7501	1264.4229	13175.3	12227.6
871.8945	1266.3234	13415.05	12466.1
872.039	1268.2232	13509.25	12560.9
872.1834	1270.1223	13561.75	12612.75
872.3278	1272.0207	13584.9	12633.4
872.4723	1273.9183	13585.95	12629.3
872.6167	1275.8151	13530.5	12584.55
872.7611	1277.7113	13498.5	12551.75
872.9055	1279.6067	13535.5	12588.9
873.0499	1281.5014	13713.45	12763.75
873.1943	1283.3953	14028.8	13078.85
873.3386	1285.2885	14432.65	13489.8
873.483	1287.181	14843.75	13898.3
873.6274	1289.0727	15260.9	14319.4
873.7717	1290.9637	15540	14593.05
873.9161	1292.854	15740.75	14790.4
874.0604	1294.7435	15739.2	14791.45
874.2047	1296.6323	15702.5	14756.45
874.349	1298.5204	15645.25	14694.75
874.4933	1300.4077	15517.3	14567.8
874.6376	1302.2943	15359.7	14411.65
874.7819	1304.1802	15133.55	14186.4
874.9262	1306.0653	14747.3	13799.9
875.0705	1307.9497	14321.4	13371.9
875.2147	1309.8333	13919.45	12973.35
875.359	1311.7162	13635.6	12687.3
875.5032	1313.5984	13465.35	12516.9
875.6475	1315.4798	13360.35	12399.55
875.7917	1317.3605	13295.05	12329.55
875.9359	1319.2405	13215.85	12264.55
876.0801	1321.1197	12999.7	12048.9
876.2243	1322.9982	12708.45	11756.1
876.3685	1324.876	12476.1	11530.4
876.5127	1326.753	12210.9	11262.05
876.6569	1328.6293	12039.45	11091.4
876.801	1330.5048	11899.05	10948.2
876.9452	1332.3796	11760.7	10812.45
877.0893	1334.2537	11706	10735.2
877.2335	1336.127	11588.75	10640.6
877.3776	1337.9996	11571.5	10623
877.5217	1339.8714	11556.45	10609.75
877.6658	1341.7426	11596.6	10603.85
877.8099	1343.6129	11580.1	10629.35
877.954	1345.4826	11579.2	10629.8
878.0981	1347.3515	11592.4	10640.05
878.2422	1349.2196	11541	10590.4
878.3862	1351.087	11592.65	10642.3
878.5303	1352.9537	11620.9	10670.5
878.6743	1354.8197	11744.9	10793.05
878.8184	1356.6849	11918.4	10969.05
878.9624	1358.5493	12083.6	11135.3
879.1064	1360.4131	12260	11312.6
879.2504	1362.276	12354.15	11409.9
879.3944	1364.1383	12315.45	11366.9
879.5384	1365.9998	12125.65	11174.15
879.6823	1367.8606	11764.75	10818.2
879.8263	1369.7206	11419.35	10472.15
879.9702	1371.5799	11071.5	10121.6
880.1142	1373.4384	10828.1	9877.95
880.2581	1375.2962	10572.75	9624.8
880.402	1377.1533	10264.3	9318.5
880.5459	1379.0096	9888.95	8946.7
880.6898	1380.8652	9538	8599.8
880.8337	1382.7201	9251.9	8309
880.9776	1384.5742	9012.45	8065.35
881.1215	1386.4275	8817.3	7871.6
881.2653	1388.2802	8655.9	7710.6
881.4092	1390.132	8539.95	7592.05
881.553	1391.9832	8460.05	7513.45
881.6968	1393.8336	8377.2	7430.3
881.8406	1395.6832	8347.7	7397.95
881.9844	1397.5322	8305.85	7360.05
882.1282	1399.3803	8274.5	7326.05
882.272	1401.2278	8241.85	7298.55
882.4158	1403.0745	8230.8	7287.85
882.5595	1404.9204	8225.05	7284.9
882.7033	1406.7656	8222.6	7279.95
882.847	1408.6101	8235.35	7289.2
882.9908	1410.4538	8288.05	7342.35
883.1345	1412.2968	8344.7	7398.1
883.2782	1414.139	8385.85	7442.5
883.4219	1415.9805	8451.5	7508.05
883.5656	1417.8213	8536.15	7585.9
883.7092	1419.6613	8632.45	7687.95
883.8529	1421.5006	8772.95	7829.2
883.9965	1423.3391	8999.7	8055.5
884.1402	1425.1769	9310.15	8365.95
884.2838	1427.0139	9754.05	8810.65
884.4274	1428.8502	10314.2	9370.3
884.571	1430.6858	10846.35	9904.45
884.7146	1432.5206	11247.6	10306.65
884.8582	1434.3547	11492.4	10548.85
885.0018	1436.188	11522.35	10577.85
885.1453	1438.0206	11451.6	10511.15
885.2889	1439.8524	11250.2	10305.4
885.4324	1441.6835	11153.35	10210.6
885.5759	1443.5139	11063.8	10118.7
885.7194	1445.3435	10953.25	10011.2
885.8629	1447.1724	10934.45	9994.5
886.0064	1449.0005	10893.3	9954.35
886.1499	1450.8279	10820.8	9881.55
886.2933	1452.6545	10796.95	9857.65
886.4368	1454.4804	10829.55	9889.95
886.5802	1456.3056	10823.25	9878.35
886.7237	1458.13	10738.9	9799
886.8671	1459.9536	10563	9622.85
887.0105	1461.7766	10268.8	9329.15
887.1539	1463.5987	9929.45	8984.3
887.2972	1465.4202	9616.2	8673.15
887.4406	1467.2409	9239.25	8298.95
887.584	1469.0608	8958.6	8019.85
887.7273	1470.88	8662.95	7721.85
887.8706	1472.6984	8441.25	7501.65
888.0139	1474.5161	8232	7288.8
888.1572	1476.3331	8092.15	7152.85
888.3005	1478.1493	7971.4	7030.75
888.4438	1479.9648	7868.85	6928.85
888.5871	1481.7795	7753.65	6810.65
888.7303	1483.5935	7690.55	6753.5
888.8736	1485.4067	7652.55	6712.05
889.0168	1487.2192	7600.1	6659.6
889.16	1489.031	7566.25	6622.15
889.3032	1490.842	7511.6	6572.3
889.4464	1492.6522	7486.15	6548.1
889.5896	1494.4618	7447.05	6507.3
889.7327	1496.2705	7424.75	6486.15
889.8759	1498.0785	7372.95	6434.3
890.019	1499.8858	7339.85	6399.8
890.1622	1501.6924	7281.05	6340.05
890.3053	1503.4981	7252.6	6310.95
890.4484	1505.3032	7219.8	6281.2
890.5914	1507.1075	7174.6	6234.65
890.7345	1508.911	7129.8	6192.7
890.8776	1510.7138	7089	6153.4
891.0206	1512.5159	7034.55	6092.85
891.1637	1514.3172	7005.45	6072.15
891.3067	1516.1178	6945.15	6011.85
891.4497	1517.9176	6915.05	5976.85
891.5927	1519.7166	6884.1	5947.1
891.7357	1521.515	6852.05	5908.95
891.8786	1523.3126	6809.25	5873.55
892.0216	1525.1094	6758.4	5821.85
892.1645	1526.9055	6768.3	5833.9
892.3074	1528.7008	6755.65	5822
892.4503	1530.4954	6697.65	5763.05
892.5932	1532.2893	6698.2	5768.35
892.7361	1534.0824	6662.85	5727.15
892.879	1535.8747	6673.85	5740.7
893.0218	1537.6663	6664.45	5733.75
893.1647	1539.4572	6651.4	5720.85
893.3075	1541.2473	6674.8	5744.1
893.4503	1543.0367	6664.4	5732.8
893.5931	1544.8253	6653.25	5717.95
893.7359	1546.6132	6683.65	5749.35
893.8787	1548.4003	6711.35	5769.9
894.0214	1550.1867	6762.9	5823.85
894.1642	1551.9723	6809.95	5876.7
894.3069	1553.7572	6903.55	5973.55
894.4496	1555.5414	6999.15	6073.1
894.5923	1557.3247	7139.8	6212.75
894.735	1559.1074	7277	6353.2
894.8777	1560.8893	7455.6	6530.25
895.0204	1562.6705	7566.05	6640.45
895.163	1564.4509	7702.8	6777.6
895.3056	1566.2305	7758.15	6838.75
895.4482	1568.0094	7822.9	6904
895.5908	1569.7876	7808.55	6888.4
895.7334	1571.565	7798.7	6873.85
895.876	1573.3417	7812.75	6888
896.0186	1575.1176	7785.5	6862.85
896.1611	1576.8928	7747.85	6831.3
896.3036	1578.6672	7759.1	6844.9
896.4461	1580.4409	7729.45	6817.1
896.5886	1582.2138	7748.5	6830.7
896.7311	1583.986	7775.15	6857.75
896.8736	1585.7575	7807.15	6887.8
897.0161	1587.5282	7858.35	6944.45
897.1585	1589.2981	7946.95	7032.7
897.3009	1591.0673	8013.2	7100.35
897.4433	1592.8358	8108.45	7195.65
897.5857	1594.6035	8196.65	7278.55
897.7281	1596.3704	8268.25	7349.1
897.8705	1598.1366	8354.4	7438.8
898.0128	1599.9021	8472.15	7558.15
898.1551	1601.6668	8566.65	7647.05
898.2975	1603.4308	8694.9	7775.2
898.4398	1605.194	8875.65	7953.55
898.5821	1606.9564	9030.7	8118.65
898.7243	1608.7182	9314	8405.4
898.8666	1610.4791	9588.9	8684.9
899.0088	1612.2394	9849.85	8949.6
899.1511	1613.9988	10143.95	9240.5
899.2933	1615.7576	10418.4	9511
899.4355	1617.5156	10652.75	9731.2
899.5776	1619.2728	10750.65	9830.5
899.7198	1621.0293	10741.45	9826.7
899.862	1622.785	10532.8	9615.9
900.0041	1624.54	10233.6	9322.25
900.1462	1626.2942	9930.3	9019.75
900.2883	1628.0477	9549.65	8637.7
900.4304	1629.8005	9210.75	8296
900.5725	1631.5525	8869.75	7959.3
900.7145	1633.3037	8620.35	7712.3
900.8566	1635.0542	8412.2	7503.05
900.9986	1636.804	8230.55	7320.8
901.1406	1638.553	8223.3	7224.9
901.2826	1640.3013	8091.3	7180.2
901.4245	1642.0488	8032.2	7122.15
901.5665	1643.7955	8062.85	7155.5
901.7085	1645.5416	8115.6	7208.2
901.8504	1647.2868	8217	7309.6
901.9923	1649.0313	8357.1	7445.15
902.1342	1650.7751	8523.15	7609.35
902.2761	1652.5181	8668.9	7764.5
902.4179	1654.2604	8830.5	7923.35
902.5598	1656.0019	9071.85	8166.75
902.7016	1657.7427	9340.05	8432.5
902.8434	1659.4828	9602.55	8692.55
902.9852	1661.222	9780.75	8868.7
903.127	1662.9606	9758.6	8847.25
903.2687	1664.6984	9514.6	8600.8
903.4105	1666.4354	9080.15	8168.2
903.5522	1668.1717	8516.25	7603.55
903.6939	1669.9072	7961.15	7046.4
903.8356	1671.642	7465	6546.5
903.9773	1673.3761	7047.15	6135.15
904.119	1675.1094	6703.75	5794.05
904.2606	1676.8419	6468.05	5559.75
904.4022	1678.5737	6246.7	5336.2
904.5439	1680.3048	6088.15	5175.65
904.6855	1682.0351	5945.4	5035.4
904.827	1683.7646	5825.75	4909.95
904.9686	1685.4934	5747.3	4836.35
905.1101	1687.2215	5670.2	4761.25
905.2517	1688.9488	5600.85	4692.95
905.3932	1690.6754	5532.35	4623.25
905.5347	1692.4012	5498.95	4590.7
905.6761	1694.1263	5424.45	4513.45
905.8176	1695.8506	5402.25	4493.35
905.9591	1697.5742	5347.8	4439.65
906.1005	1699.297	5298.9	4397.25
906.2419	1701.0191	5250.1	4347.7
906.3833	1702.7404	5213.4	4312.85
906.5246	1704.461	5173.9	4268.4
906.666	1706.1808	5165.4	4258
906.8073	1707.8999	5123.15	4219.65
906.9487	1709.6182	5095.2	4195.65
907.09	1711.3358	5051.8	4151.85
907.2313	1713.0527	5036.3	4137.15
907.3725	1714.7688	5028.15	4120.6
907.5138	1716.4841	4995.15	4088.8
907.655	1718.1987	4988.9	4082
907.7962	1719.9126	4931.65	4031.15
907.9374	1721.6257	4928.8	4027.45
908.0786	1723.338	4927.25	4029.05
908.2198	1725.0496	4894.55	3992.05
908.3609	1726.7605	4901.95	3998.45
908.502	1728.4706	4877.45	3976.1
908.6431	1730.18	4850.6	3949.1
908.7842	1731.8886	4841.9	3945.6
908.9253	1733.5964	4832.15	3911.75
909.0664	1735.3036	4810.8	3907.75
909.2074	1737.0099	4789.75	3889.95
909.3484	1738.7156	4762.15	3865.05
909.4894	1740.4204	4737.15	3832.2
909.6304	1742.1246	4710.85	3803.65
909.7714	1743.8279	4687.75	3785.3
909.9123	1745.5306	4665	3765.95
910.0532	1747.2325	4630.4	3732.35
910.1941	1748.9336	4624.35	3724.65
910.335	1750.634	4610.2	3708.9
910.4759	1752.3336	4600.95	3701.85
910.6168	1754.0325	4583.1	3685.6
910.7576	1755.7307	4552.75	3655.25
910.8984	1757.4281	4568.1	3666.6
911.0392	1759.1247	4567.5	3655.65
911.18	1760.8206	4539.05	3629.5
911.3208	1762.5158	4544.1	3636.35
911.4615	1764.2102	4529.4	3625.25
911.6022	1765.9039	4496.1	3596.6
911.7429	1767.5968	4492.6	3597.65
911.8836	1769.289	4474.15	3576.8
912.0243	1770.9804	4459.5	3556.05
912.1649	1772.6711	4452.6	3546.65
912.3056	1774.361	4463.2	3556.85
912.4462	1776.0502	4426.7	3524.25
912.5868	1777.7386	4443	3538.55
912.7274	1779.4263	4428	3527.05
912.8679	1781.1132	4412.1	3516.7
913.0084	1782.7994	4398.85	3501.7
913.149	1784.4849	4387.1	3492.5
913.2895	1786.1696	4395.25	3479.25
913.4299	1787.8535	4372.55	3478.25
913.5704	1789.5367	4363.15	3470.25
913.7108	1791.2192	4354.55	3459.45
913.8513	1792.9009	4350.85	3426.95
913.9917	1794.5818	4329.85	3427.65
914.132	1796.2621	4320.55	3419.9
914.2724	1797.9415	4339.3	3438.15
914.4128	1799.6202	4291	3391.55
914.5531	1801.2982	4304.55	3402.15
914.6934	1802.9755	4284.1	3381.85
914.8337	1804.6519	4288.8	3388.7
914.9739	1806.3277	4257.9	3362.3
915.1142	1808.0027	4242.45	3346.9
915.2544	1809.6769	4252.05	3360.1
915.3946	1811.3504	4236	3341.9
915.5348	1813.0231	4231.25	3336.15
915.675	1814.6951	4231.6	3337.4
915.8151	1816.3664	4226.8	3325.55
915.9553	1818.0369	4198.9	3299
916.0954	1819.7067	4206.2	3307.9
916.2355	1821.3757	4197.85	3295.4
916.3755	1823.044	4205.6	3306.8
916.5156	1824.7115	4175.05	3273.3
916.6556	1826.3783	4167.4	3269.7
916.7956	1828.0443	4150.8	3255.75
916.9356	1829.7096	4142.2	3243.25
917.0756	1831.3741	4152.6	3250.35
917.2155	1833.0379	4136.45	3239.85
917.3555	1834.701	4118.5	3225.3
917.4954	1836.3633	4118.7	3225.65
917.6353	1838.0248	4106.65	3211
917.7751	1839.6856	4112.9	3216.1
917.915	1841.3457	4112.85	3215.4
918.0548	1843.005	4099.4	3199.9
918.1946	1844.6636	4082.25	3183.7
918.3344	1846.3214	4073.75	3174.8
918.4742	1847.9785	4078.5	3181.75
918.6139	1849.6349	4082.8	3181.4
918.7537	1851.2904	4087.7	3176.45
918.8934	1852.9453	4046.5	3144.95
919.0331	1854.5994	4051.55	3150.2
919.1727	1856.2528	4048.55	3145.2
919.3124	1857.9054	4033.8	3135.7
919.452	1859.5572	4036.6	3139.55
919.5916	1861.2083	4033.15	3134.75
919.7312	1862.8587	4018.75	3119.25
919.8708	1864.5084	4003.8	3102.45
920.0103	1866.1572	3998.8	3098.15
920.1498	1867.8054	3983.85	3081.3
920.2893	1869.4528	3978	3075.5
920.4288	1871.0994	3971.35	3070.35
920.5683	1872.7453	3972.25	3071.05
920.7077	1874.3905	3969.05	3064.85
920.8471	1876.0349	3944.2	3041.7
920.9865	1877.6786	3954.35	3052.05
921.1259	1879.3215	3945.9	3043.55
921.2653	1880.9637	3951.3	3052.35
921.4046	1882.6051	3938	3039.75
921.5439	1884.2458	3924.1	3025.45
921.6832	1885.8858	3895.3	2997.85
921.8225	1887.525	3900.9	3000.15
921.9617	1889.1634	3883.9	2985.1
922.101	1890.8011	3871.95	2972.3
922.2402	1892.4381	3863.9	2965.8
922.3794	1894.0743	3860.3	2964.8
922.5185	1895.7098	3847.5	2948.1
922.6577	1897.3446	3850.65	2953.45
922.7968	1898.9786	3847	2944.85
922.9359	1900.6118	3843.2	2945.95
923.075	1902.2443	3833.15	2932.45
923.214	1903.8761	3820.6	2922.5
923.3531	1905.5071	3796.65	2900.2
923.4921	1907.1374	3776.35	2882.95
923.6311	1908.7669	3791	2895.45
923.77	1910.3957	3756.8	2860.45
923.909	1912.0237	3754.4	2858
924.0479	1913.651	3765.7	2867
924.1868	1915.2776	3747.95	2851.4
924.3257	1916.9034	3735.7	2840.15
924.4646	1918.5285	3701.2	2807.55
924.6034	1920.1528	3694.3	2797.3
924.7422	1921.7764	3705.45	2810.1
924.881	1923.3992	3704.7	2808.9
925.0198	1925.0213	3682.3	2784.7
925.1586	1926.6427	3659.3	2765.45
925.2973	1928.2633	3722.15	2745.9
925.436	1929.8832	3674.35	2774.85
925.5747	1931.5023	3654.65	2756.85
925.7134	1933.1207	3634.35	2737.4
925.852	1934.7383	3626.5	2729.85
925.9906	1936.3552	3615.4	2719.25
926.1292	1937.9714	3612.1	2716.5
926.2678	1939.5868	3599.25	2701.6
926.4064	1941.2015	3587.65	2689.15
926.5449	1942.8154	3581.2	2683.35
926.6834	1944.4286	3558.45	2661.25
926.8219	1946.041	3578.25	2663.7
926.9604	1947.6528	3553	2651.6
927.0988	1949.2637	3553.4	2658.3
927.2372	1950.8739	3517.35	2620.6
927.3756	1952.4834	3524.85	2629.2
927.514	1954.0921	3515.9	2621.4
927.6523	1955.7001	3515.85	2615.05
927.7907	1957.3074	3503.05	2612.15
927.929	1958.9139	3468.1	2576.2
928.0673	1960.5197	3482.05	2586.3
928.2055	1962.1247	3454.45	2560.25
928.3438	1963.729	3439.55	2550
928.482	1965.3325	3440.35	2543.5
928.6202	1966.9353	3429.2	2538.6
928.7584	1968.5374	3415	2523
928.8965	1970.1387	3412.55	2518.15
929.0346	1971.7393	3404.55	2512.4
929.1727	1973.3392	3402	2510.05
929.3108	1974.9383	3388.75	2498.45
929.4489	1976.5366	3365	2474.5
929.5869	1978.1342	3364.85	2474.7
929.7249	1979.7311	3362.55	2473.9
929.8629	1981.3273	3353.4	2464.85
930.0009	1982.9227	3355.4	2465.4
930.1388	1984.5173	3345.65	2458.6
930.2767	1986.1112	3323.9	2435.55
930.4146	1987.7044	3322.8	2436
930.5525	1989.2968	3321.55	2430.55
930.6904	1990.8885	3310.7	2418.5
930.8282	1992.4795	3303.4	2415.1
930.966	1994.0697	3292.75	2406.85
931.1038	1995.6592	3285.95	2399.1
931.2415	1997.2479	3285.25	2394.95
931.3793	1998.8359	3275	2387.65
931.517	2000.4232	3262.9	2381.4
931.6547	2002.0097	3255.25	2374
931.7923	2003.5955	3247.15	2363.9
931.93	2005.1805	3230.75	2345.1
932.0676	2006.7648	3237.1	2354.95
932.2052	2008.3484	3238.55	2353.4
932.3427	2009.9312	3227.75	2343.8
932.4803	2011.5133	3211.45	2331.35
932.6178	2013.0946	3212.05	2330.05
932.7553	2014.6752	3204.65	2321.65
932.8928	2016.2551	3197.35	2309.85
933.0302	2017.8342	3191.15	2306.75
933.1676	2019.4126	3188.9	2307.7
933.305	2020.9902	3178.4	2297.55
933.4424	2022.5672	3166.8	2286.9
933.5798	2024.1433	3165.2	2278.75
933.7171	2025.7188	3153.1	2272.85
933.8544	2027.2935	3143.05	2262.35
933.9917	2028.8674	3134.4	2254.7
934.129	2030.4406	3138.05	2259.4
934.2662	2032.0131	3117.8	2240.7
934.4034	2033.5849	3105.15	2224.4
934.5406	2035.1559	3105.3	2225.7
934.6778	2036.7261	3116.5	2235.65
934.8149	2038.2957	3093.7	2206.65
934.952	2039.8645	3088.45	2203.7
935.0891	2041.4325	3103.7	2214.4
935.2262	2042.9998	3085.8	2199.9
935.3632	2044.5664	3091.5	2206.2
935.5002	2046.1323	3070.25	2189.3
935.6372	2047.6974	3070.75	2189.25
935.7742	2049.2617	3061.7	2180.7
935.9111	2050.8254	3072.55	2166.95
936.048	2052.3883	3060.35	2173.8
936.1849	2053.9504	3050.2	2165.15
936.3218	2055.5118	3051.4	2164.15
936.4586	2057.0725	3044.05	2157.45
936.5955	2058.6325	3027.25	2145.05
936.7323	2060.1917	3030.55	2147.65
936.869	2061.7502	3011.45	2127.45
937.0058	2063.3079	3003.3	2123.35
937.1425	2064.8649	2994.9	2109.65
937.2792	2066.4212	2993.05	2109.2
937.4159	2067.9767	3007.1	2123.85
937.5525	2069.5315	2982.5	2099.9
937.6891	2071.0856	2961.75	2079.05
937.8257	2072.6389	2960.3	2077.75
937.9623	2074.1915	2957.85	2078.95
938.0989	2075.7433	2950	2067.15
938.2354	2077.2945	2939.9	2059.05
938.3719	2078.8448	2930.05	2042.85
938.5084	2080.3945	2940.7	2055.5
938.6448	2081.9434	2924.25	2037.85
938.7812	2083.4916	2919.05	2030.3
938.9176	2085.039	2919.7	2027.5
939.054	2086.5857	2923.05	2028.1
939.1903	2088.1317	2923.65	2031.15
939.3267	2089.677	2918.5	2027.15
939.463	2091.2215	2900.95	2007.75
939.5992	2092.7652	2898	2003.35
939.7355	2094.3083	2890.85	1997.85
939.8717	2095.8506	2875.6	1988.35
940.0079	2097.3921	2873.4	1986.7
940.1441	2098.933	2871.75	1983.55
940.2802	2100.4731	2864.4	1976.05
940.4163	2102.0124	2862.85	1962.55
940.5524	2103.5511	2862.35	1973.1
940.6885	2105.089	2865.55	1975.6
940.8245	2106.6261	2847.6	1960.4
940.9606	2108.1626	2845.7	1955.95
941.0965	2109.6983	2872.3	1955.75
941.2325	2111.2332	2839	1948.55
941.3684	2112.7675	2840	1946.8
941.5044	2114.301	2823.6	1934.35
941.6403	2115.8337	2830.75	1942.55
941.7761	2117.3657	2812.65	1924.05
941.912	2118.897	2818.2	1928.15
942.0478	2120.4276	2802.65	1906.95
942.1835	2121.9575	2800.7	1908.45
942.3193	2123.4866	2809.5	1917.35
942.455	2125.0149	2782.75	1890.95
942.5907	2126.5426	2763.95	1879.3
942.7264	2128.0695	2775.35	1888.55
942.8621	2129.5956	2750.35	1868.9
942.9977	2131.1211	2769.6	1883.3
943.1333	2132.6458	2759.35	1871
943.2689	2134.1698	2753.65	1862.75
943.4044	2135.693	2753.25	1860
943.54	2137.2155	2746.95	1853.35
943.6755	2138.7373	2734.85	1845.6
943.8109	2140.2584	2738.45	1852.1
943.9464	2141.7787	2731.1	1843.05
944.0818	2143.2983	2716.2	1836.3
944.2172	2144.8171	2706.9	1825.55
944.3526	2146.3353	2698.5	1812.55
944.4879	2147.8527	2703.85	1819.95
944.6232	2149.3693	2711.9	1822.65
944.7585	2150.8853	2696.25	1802.9
944.8938	2152.4005	2698.65	1807.4
945.029	2153.9149	2683.2	1790.9
945.1642	2155.4287	2694.35	1803.35
945.2994	2156.9417	2666.05	1776.4
945.4346	2158.454	2676.8	1787.6
945.5697	2159.9655	2665.35	1778.9
945.7048	2161.4764	2655.4	1768.9
945.8399	2162.9865	2643.05	1755.85
945.9749	2164.4958	2640.3	1756.1
946.1099	2166.0045	2647.8	1760.6
946.2449	2167.5124	2641.5	1755.7
946.3799	2169.0195	2635.75	1746.55
946.5148	2170.526	2631.5	1742.1
946.6498	2172.0317	2630	1741.95
946.7846	2173.5367	2623.3	1735.15
946.9195	2175.0409	2617.9	1732.05
947.0543	2176.5445	2620.4	1731.55
947.1891	2178.0473	2611.3	1720.25
947.3239	2179.5494	2614.85	1721
947.4587	2181.0507	2595.7	1707.6
947.5934	2182.5513	2601.75	1714.8
947.7281	2184.0512	2602.75	1713.2
947.8628	2185.5504	2591.2	1703.9
947.9974	2187.0488	2562	1677.55
948.132	2188.5465	2572.65	1688.65
948.2666	2190.0435	2569.55	1682.4
948.4012	2191.5397	2566.85	1676.15
948.5357	2193.0353	2572.65	1682.9
948.6702	2194.5301	2561.25	1666.2
948.8047	2196.0241	2560.8	1668.1
948.9392	2197.5175	2552.45	1658.95
949.0736	2199.0101	2557.75	1660.85
949.208	2200.502	2542.4	1651.75
949.3424	2201.9931	2529.25	1643.5
949.4767	2203.4835	2531.5	1644.3
949.611	2204.9733	2529.35	1629.25
949.7453	2206.4622	2520.5	1634.95
949.8796	2207.9505	2504.9	1619.25
950.0138	2209.438	2482.05	1599.45
950.148	2210.9248	2495.25	1609.15
950.2822	2212.4109	2485.85	1598.35
950.4164	2213.8962	2484.45	1589.7
950.5505	2215.3809	2482.7	1588.55
950.6846	2216.8648	2482.4	1587.3
950.8186	2218.3479	2489.45	1590.25
950.9527	2219.8304	2464.65	1564.3
951.0867	2221.3121	2465.75	1570.2
951.2207	2222.7931	2454.5	1561.5
951.3546	2224.2733	2449.1	1557.7
951.4886	2225.7529	2436.05	1543.9
951.6225	2227.2317	2429.5	1538.45
951.7563	2228.7098	2420.2	1535.55
951.8902	2230.1872	2424.35	1537.85
952.024	2231.6638	2426.85	1542.1
952.1578	2233.1397	2414.7	1525.9
952.2916	2234.6149	2416.7	1531.4
952.4253	2236.0894	2412.05	1524.55
952.559	2237.5632	2409.8	1512.15
952.6927	2239.0362	2396.95	1511.7
952.8263	2240.5085	2392.25	1504.85
952.9599	2241.9801	2397.55	1507.7
953.0935	2243.4509	2387.05	1494.45
953.2271	2244.921	2372.45	1479.15
953.3606	2246.3904	2376.75	1481.5
953.4941	2247.8591	2379.75	1488.25
953.6276	2249.3271	2363.8	1471.1
953.7611	2250.7943	2354.65	1462.1
953.8945	2252.2608	2341.3	1451.3
954.0279	2253.7266	2350.05	1461
954.1612	2255.1917	2359.35	1471.6
954.2946	2256.656	2330.5	1443.05
954.4279	2258.1197	2332	1445.3
954.5612	2259.5826	2324.05	1435.8
954.6944	2261.0447	2337	1444.15
954.8276	2262.5062	2326.4	1431.55
954.9608	2263.9669	2325.25	1431.05
955.094	2265.4269	2321.15	1429.75
955.2271	2266.8862	2318.25	1428.9
955.3602	2268.3448	2305.25	1415.4
955.4933	2269.8026	2305.15	1419
955.6264	2271.2598	2305.1	1417.25
955.7594	2272.7162	2293.75	1404.8
955.8924	2274.1719	2306.2	1415
956.0253	2275.6268	2299.85	1403.85
956.1583	2277.0811	2300	1406.7
956.2912	2278.5346	2295.6	1407.05
956.4241	2279.9874	2288.3	1402.3
956.5569	2281.4395	2283.1	1397.8
956.6897	2282.8908	2278.5	1385.5
956.8225	2284.3414	2264.75	1374.7
956.9553	2285.7914	2272.85	1382.3
957.088	2287.2406	2275.4	1382.2
957.2207	2288.689	2278.1	1384.5
957.3534	2290.1368	2265.95	1369.6
957.486	2291.5838	2276.3	1378.9
957.6186	2293.0302	2265.65	1371.9
957.7512	2294.4758	2254.55	1360.9
957.8838	2295.9206	2249.75	1358.3
958.0163	2297.3648	2244.85	1355.05
958.1488	2298.8082	2239.35	1350.2
958.2813	2300.251	2231.25	1339.9
958.4137	2301.693	2235.85	1338.45
958.5461	2303.1343	2237.95	1346.6
958.6785	2304.5748	2226.25	1336.1
958.8108	2306.0147	2217.05	1331
958.9432	2307.4538	2210.75	1325.35
959.0754	2308.8922	2206.3	1323.4
959.2077	2310.3299	2207.3	1320.45
959.3399	2311.7669	2201	1311.75
959.4721	2313.2031	2206.2	1316.4
959.6043	2314.6387	2195.05	1305.8
959.7365	2316.0735	2188.9	1299.35
959.8686	2317.5076	2185.35	1293.9
960.0006	2318.941	2181.15	1291.05
960.1327	2320.3737	2178	1285.75
960.2647	2321.8056	2177.3	1281
960.3967	2323.2369	2170.5	1278.4
960.5287	2324.6674	2174.3	1281.55
960.6606	2326.0972	2165.75	1271.85
960.7925	2327.5263	2163.8	1273.8
960.9244	2328.9547	2165.35	1274.4
961.0562	2330.3823	2152.6	1256.3
961.1881	2331.8092	2164.9	1266.05
961.3198	2333.2355	2148.45	1253.85
961.4516	2334.661	2145.7	1251.1
961.5833	2336.0858	2152.05	1257.5
961.715	2337.5098	2137.75	1246
961.8467	2338.9332	2140.95	1248.85
961.9783	2340.3558	2138.15	1243.95
962.1099	2341.7778	2121.7	1231.75
962.2415	2343.199	2124.35	1232.85
962.373	2344.6195	2122.7	1230.6
962.5045	2346.0393	2117.5	1228.3
962.636	2347.4583	2113.5	1223.15
962.7675	2348.8767	2116.4	1222.65
962.8989	2350.2943	2122.95	1228.2
963.0303	2351.7113	2130.1	1234.9
963.1617	2353.1275	2122.95	1227.3
963.293	2354.543	2123.5	1219.25
963.4243	2355.9578	2105.2	1213.1
963.5556	2357.3718	2095.5	1205.35
963.6868	2358.7852	2091.05	1198.25
963.818	2360.1978	2088.45	1200.25
963.9492	2361.6098	2080.65	1188.5
964.0803	2363.021	2092.95	1199.2
964.2114	2364.4315	2084.3	1192.1
964.3425	2365.8413	2077.8	1186.5
964.4736	2367.2504	2062.65	1174.7
964.6046	2368.6587	2067.25	1179.5
964.7356	2370.0664	2051.75	1161.25
964.8666	2371.4733	2063.15	1171.75
964.9975	2372.8795	2054.1	1162.1
965.1284	2374.285	2050.4	1158.75
965.2593	2375.6899	2038.75	1149.95
965.3901	2377.0939	2048.55	1159.8
965.5209	2378.4973	2040.3	1150.45
965.6517	2379.9	2041	1152.65
965.7825	2381.3019	2027.7	1140.7
965.9132	2382.7032	2022.6	1137.25
966.0439	2384.1037	2028	1143.3
966.1745	2385.5035	2013.85	1128.8
966.3051	2386.9027	2010.55	1123.6
966.4357	2388.3011	2015.3	1126.4
966.5663	2389.6987	2012.4	1124.95
966.6968	2391.0957	2011.85	1123.75
966.8273	2392.492	1991.65	1104
966.9578	2393.8876	1983.75	1096.15
967.0882	2395.2824	1995.5	1107.75
967.2186	2396.6765	1992.1	1101.65
967.349	2398.07	1968.4	1075.95
967.4793	2399.4627	1984.65	1093.45
967.6097	2400.8547	1981.1	1089.7
967.7399	2402.246	1974.5	1078.55
967.8702	2403.6366	1975.5	1084.4
968.0004	2405.0265	1956.75	1069.3
968.1306	2406.4156	1964.85	1074.05
968.2607	2407.8041	1964.75	1070
968.3909	2409.1918	1953.95	1061.35
968.521	2410.5789	1954.7	1062.1
968.651	2411.9652	1951	1058
968.781	2413.3508	1956.5	1066.7
968.911	2414.7358	1940.25	1053.35
969.041	2416.12	1934.3	1044.75
969.1709	2417.5035	1936.55	1048.95
969.3008	2418.8863	1933.6	1042.45
969.4307	2420.2684	1929.8	1039.95
969.5606	2421.6497	1922.25	1031.35
969.6904	2423.0304	1933.35	1042.6
969.8201	2424.4104	1927.45	1038.3
969.9499	2425.7896	1907.9	1017.35
970.0796	2427.1682	1916.9	1026.6
970.2093	2428.546	1910.65	1018.45
970.3389	2429.9232	1909.15	1017.85
970.4685	2431.2996	1906.1	1014.45
970.5981	2432.6753	1909.75	1019.3
970.7277	2434.0503	1908.75	1018.7
970.8572	2435.4246	1901.9	1012.45
970.9867	2436.7982	1901.8	1008.2
971.1161	2438.1711	1899.6	1010.7
971.2456	2439.5433	1891.45	999.4
971.375	2440.9148	1881.35	987.85
971.5043	2442.2856	1876.15	985.75
971.6336	2443.6557	1881.05	991.2
971.7629	2445.025	1872.05	980.05
971.8922	2446.3937	1875.25	984.2
972.0214	2447.7617	1862.95	971.65
972.1506	2449.1289	1863.45	974
972.2798	2450.4955	1863.9	973.05
972.4089	2451.8613	1862.95	973.65
972.538	2453.2265	1859.75	970.35
972.6671	2454.5909	1858.3	966.85
972.7961	2455.9546	1859.4	968.65
972.9251	2457.3177	1843.25	953.05
973.0541	2458.68	1854.05	963.65
973.1831	2460.0416	1851.85	961.3
973.312	2461.4025	1852.5	962.1
973.4408	2462.7627	1856.15	956.25
973.5697	2464.1222	1830.35	945.15
973.6985	2465.4811	1829.55	940.35
973.8273	2466.8392	1836.65	949
973.956	2468.1966	1834.85	942.5
974.0847	2469.5533	1838.1	946.9
974.2134	2470.9093	1833.5	944.6
974.3421	2472.2645	1830.5	940.25
974.4707	2473.6191	1827.7	939.95
974.5993	2474.973	1823.05	930.7
974.7278	2476.3262	1819.8	929.35
974.8563	2477.6787	1818.2	927.9
974.9848	2479.0305	1813.9	927.7
975.1132	2480.3816	1810.05	918.95
975.2417	2481.7319	1804.9	916.2
975.37	2483.0816	1810.3	920.35
975.4984	2484.4306	1806.9	917.2
975.6267	2485.7789	1806.05	919
975.755	2487.1264	1797.6	908.05
975.8833	2488.4733	1786.6	899.85
976.0115	2489.8195	1793.6	896.2
976.1397	2491.165	1785.6	893.8
976.2678	2492.5097	1783.1	891.25
976.3959	2493.8538	1784.2	896.45
976.524	2495.1972	1772.9	882.9
976.6521	2496.5398	1768.4	877.7
976.7801	2497.8818	1767	874.75
976.9081	2499.2231	1772.95	881.05
977.036	2500.5637	1769.35	876.7
977.164	2501.9035	1769.75	877.9
977.2918	2503.2427	1772.65	878.7
977.4197	2504.5812	1761.5	869.8
977.5475	2505.919	1759.05	866.95
977.6753	2507.256	1758.1	866
977.8031	2508.5924	1753.1	863.05
977.9308	2509.9281	1750.85	856.75
978.0585	2511.2631	1745.95	855.2
978.1861	2512.5974	1745.65	856.3
978.3137	2513.9309	1740.1	852.5
978.4413	2515.2638	1761.75	844.8
978.5689	2516.596	1735.4	847.9
978.6964	2517.9275	1732.9	842.5
978.8239	2519.2583	1738.4	848.4
978.9513	2520.5884	1735.55	845.2
979.0788	2521.9178	1723.35	833.8
979.2062	2523.2465	1730.35	842.4
979.3335	2524.5745	1720.75	832.4
979.4608	2525.9018	1714.5	823.05
979.5881	2527.2284	1712.15	821.85
979.7154	2528.5543	1718.75	829.05
979.8426	2529.8796	1714.2	824.95
979.9698	2531.2041	1710.1	821.25
980.0969	2532.5279	1718.75	831
980.224	2533.851	1715.75	827.3
980.3511	2535.1735	1705.7	816.35
980.4781	2536.4952	1708.8	821.6
980.6052	2537.8163	1716.05	825.4
980.7321	2539.1366	1711.45	821.3
980.8591	2540.4562	1696.6	804.55
980.986	2541.7752	1702.55	808.35
981.1129	2543.0935	1698.8	807.8
981.2397	2544.411	1704.7	814.65
981.3665	2545.7279	1696.95	806.45
981.4933	2547.0441	1699.1	809.25
981.62	2548.3596	1699.3	803.1
981.7467	2549.6744	1698.1	807.8
981.8734	2550.9885	1695.45	803
982.0001	2552.3019	1692.4	802.45
982.1267	2553.6146	1692.6	802.15
982.2532	2554.9266	1685.9	795.7
982.3798	2556.2379	1685.6	795.55
982.5063	2557.5485	1679.2	791.2
982.6327	2558.8585	1685.05	787.5
982.7592	2560.1677	1683.05	788.9
982.8856	2561.4762	1672.9	782.2
983.0119	2562.7841	1681	789.05
983.1383	2564.0913	1678.15	791.8
983.2646	2565.3977	1673.7	785.25
983.3908	2566.7035	1674.75	783.6
983.517	2568.0086	1678.9	786.9
983.6432	2569.313	1666.4	774.85
983.7694	2570.6167	1663.75	767.55
983.8955	2571.9197	1659.65	770.1
984.0216	2573.222	1669.15	774.8
984.1476	2574.5236	1663.2	772.2
984.2737	2575.8246	1660	769.9
984.3996	2577.1248	1664.25	769.85
984.5256	2578.4244	1660.95	772.05
984.6515	2579.7232	1663.95	774.5
984.7774	2581.0214	1688.9	772.6
984.9032	2582.3189	1662.45	772.6
985.029	2583.6157	1657.85	763
985.1548	2584.9118	1660.15	770.6
985.2806	2586.2072	1656.95	765.95
985.4063	2587.5019	1655.25	767.3
985.5319	2588.7959	1661.75	773.2
985.6576	2590.0893	1660.45	768.15
985.7832	2591.3819	1653.45	765.9
985.9087	2592.6739	1656.15	765.8
986.0343	2593.9652	1657.9	767.7
986.1597	2595.2557	1652.55	766.55
986.2852	2596.5456	1651.4	759.3
986.4106	2597.8348	1649.15	759.25
986.536	2599.1234	1651.75	764.15
986.6614	2600.4112	1651.3	761.6
986.7867	2601.6983	1654.1	761.6
986.912	2602.9848	1648.7	757.95
987.0372	2604.2705	1655	759.2
987.1624	2605.5556	1643.5	752.9
987.2876	2606.84	1636.4	750.15
987.4128	2608.1237	1651.45	760.85
987.5379	2609.4067	1628.3	739.25
987.6629	2610.689	1640.05	741.75
987.788	2611.9707	1632.3	741.45
987.913	2613.2516	1631.3	739.45
988.0379	2614.5319	1622	735.65
988.1629	2615.8115	1626.45	738.2
988.2878	2617.0903	1621.35	731.85
988.4126	2618.3685	1615.65	727.25
988.5375	2619.6461	1616	726.45
988.6622	2620.9229	1616.3	728.5
988.787	2622.199	1613.15	724.65
988.9117	2623.4745	1617.8	730.65
989.0364	2624.7493	1604.25	717.35
989.161	2626.0234	1612.15	725.9
989.2857	2627.2968	1608.25	721.55
989.4102	2628.5695	1605.75	715.6
989.5348	2629.8415	1596.6	710.05
989.6593	2631.1128	1601.2	709.85
989.7837	2632.3835	1594.6	707.75
989.9082	2633.6535	1598.45	709.5
990.0326	2634.9228	1604.05	718.8
990.1569	2636.1914	1586.7	699.1
990.2812	2637.4593	1594.35	705.75
990.4055	2638.7265	1586.35	698.1
990.5298	2639.9931	1585.85	700.05
990.654	2641.259	1588.9	701
990.7782	2642.5242	1582.65	693.8
990.9023	2643.7887	1578.1	688.25
991.0264	2645.0525	1583.4	695.35
991.1505	2646.3156	1573.85	687.1
991.2745	2647.5781	1575.45	687.4
991.3985	2648.8398	1574.7	686.55
991.5225	2650.1009	1608.55	683.35
991.6464	2651.3613	1570.3	684.4
991.7703	2652.6211	1574.25	685.25
991.8942	2653.8801	1565.05	679.95
992.018	2655.1385	1565.9	675.95
992.1418	2656.3961	1565.05	679.65
992.2655	2657.6531	1572.65	683.85
992.3892	2658.9094	1567.65	677.8
992.5129	2660.1651	1562.8	675.3
992.6366	2661.42	1570.85	683.1
992.7602	2662.6743	1566.4	676.85
992.8837	2663.9279	1565.9	678.55
993.0073	2665.1808	1566.6	677.75
993.1307	2666.433	1566.45	676.4
993.2542	2667.6846	1561.65	676.5
993.3776	2668.9354	1572.2	680.95
993.501	2670.1856	1577	689.15
993.6244	2671.4351	1579.1	690.9
993.7477	2672.6839	1583.25	694.8
993.8709	2673.9321	1582.55	695.5
993.9942	2675.1795	1584.15	696.05
994.1174	2676.4263	1582.95	697.35
994.2405	2677.6724	1588.1	703.6
994.3637	2678.9179	1585.7	698.85
994.4868	2680.1626	1589.65	702.2
994.6098	2681.4067	1569.75	682.7
994.7328	2682.6501	1566.25	678.85
994.8558	2683.8928	1576.6	689.35
994.9788	2685.1348	1568.65	682.4
995.1017	2686.3761	1559.95	672.25
995.2245	2687.6168	1561.5	674.7
995.3474	2688.8568	1556.9	666.05
995.4702	2690.0961	1546.2	660.25
995.5929	2691.3348	1554.95	667.3
995.7156	2692.5727	1548.35	663.05
995.8383	2693.81	1540.8	653.2
995.961	2695.0466	1546.4	661.35
996.0836	2696.2826	1537.4	650.5
996.2062	2697.5178	1565.85	657.75
996.3287	2698.7524	1544.7	658.7
996.4512	2699.9863	1546.9	658.9
996.5737	2701.2195	1549.2	661.95
996.6961	2702.452	1555.05	667.1
996.8185	2703.6839	1559.6	671.1
996.9408	2704.9151	1566.65	681.45
997.0631	2706.1456	1567.8	680.45
997.1854	2707.3755	1564.65	677.05
997.3077	2708.6046	1568.85	680.5
997.4299	2709.8331	1568.7	680.05
997.552	2711.0609	1580.75	693.3
997.6742	2712.2881	1586.7	700.45
997.7963	2713.5145	1597.75	708.05
997.9183	2714.7403	1601.3	716.25
998.0403	2715.9654	1612.5	725.15
998.1623	2717.1899	1642.65	740.95
998.2842	2718.4136	1639.15	755.35
998.4062	2719.6367	1643.85	756.2
998.528	2720.8591	1667.5	776
998.6498	2722.0809	1671.5	786.7
998.7716	2723.3019	1681.35	792.3
998.8934	2724.5223	1698.55	810.75
999.0151	2725.7421	1690.85	802.15
999.1368	2726.9611	1698.75	809.65
999.2584	2728.1795	1692.6	801.75
999.38	2729.3972	1677.55	790.3
999.5016	2730.6142	1680.7	781
999.6231	2731.8306	1660.3	772
999.7446	2733.0462	1644.45	756.25
999.8661	2734.2612	1633.45	744.25
999.9875	2735.4756	1614.45	727.95
1000.1089	2736.6892	1599.65	712.1
1000.2302	2737.9022	1580.25	692.9
1000.3515	2739.1145	1573.3	688.05
1000.4728	2740.3262	1560.2	667.2
1000.594	2741.5372	1548.4	660.05
1000.7152	2742.7475	1538.05	649.9
1000.8363	2743.9571	1521.3	633.95
1000.9575	2745.1661	1511.15	623.5
1001.0785	2746.3744	1511.6	627
1001.1996	2747.582	1495.5	610.1
1001.3206	2748.7889	1493.65	606.35
1001.4415	2749.9952	1479.85	593.1
1001.5625	2751.2008	1477.45	590.95
1001.6833	2752.4057	1474.05	586.3
1001.8042	2753.61	1462.65	575.95
1001.925	2754.8136	1466.1	580.4
1002.0458	2756.0165	1463.45	577.55
1002.1665	2757.2188	1459.5	574.75
1002.2872	2758.4204	1458	572.4
1002.4078	2759.6213	1454.4	566.95
1002.5285	2760.8215	1464.85	575.75
1002.649	2762.0211	1459.15	571.15
1002.7696	2763.22	1458.85	570.4
1002.8901	2764.4182	1452.6	563.8
1003.0106	2765.6158	1444.6	559.35
1003.131	2766.8127	1450.9	566.1
1003.2514	2768.009	1445.25	561.15
1003.3717	2769.2045	1442.55	557.8
1003.492	2770.3994	1445.05	559.1
1003.6123	2771.5936	1435.65	549.65
1003.7325	2772.7872	1433.95	549.55
1003.8527	2773.9801	1437.5	550.95
1003.9729	2775.1723	1447.25	546.2
1004.093	2776.3639	1419.75	534.05
1004.2131	2777.5548	1431.7	547.05
1004.3331	2778.745	1426.5	540.5
1004.4531	2779.9346	1426.8	542.95
1004.5731	2781.1235	1419.8	532.5
1004.693	2782.3117	1432.1	549.3
1004.8129	2783.4992	1433.15	549.9
1004.9328	2784.6861	1439.9	557.1
1005.0526	2785.8723	1443.7	558.45
1005.1723	2787.0579	1445.4	558.25
1005.2921	2788.2428	1447.8	561.9
1005.4118	2789.427	1446.7	564.25
1005.5314	2790.6106	1456.85	573
1005.651	2791.7935	1467.05	582.85
1005.7706	2792.9757	1465.95	582.3
1005.8902	2794.1573	1487.5	601.75
1006.0097	2795.3382	1487.85	604.05
1006.1291	2796.5184	1495	611.9
1006.2485	2797.698	1508.25	623.6
1006.3679	2798.8769	1520.5	637.3
1006.4873	2800.0551	1533.15	648.75
1006.6066	2801.2327	1545.55	658.2
1006.7258	2802.4096	1561.6	678.85
1006.8451	2803.5859	1573.4	689.35
1006.9642	2804.7615	1594.65	711.2
1007.0834	2805.9364	1612.05	730.85
1007.2025	2807.1106	1631.1	747.55
1007.3216	2808.2842	1658.5	774.1
1007.4406	2809.4572	1682.3	800.6
1007.5596	2810.6294	1723.8	839.65
1007.6785	2811.801	1755.75	875.7
1007.7975	2812.972	1785.1	903.15
1007.9163	2814.1423	1830.2	946.05
1008.0352	2815.3119	1874.15	989.2
1008.154	2816.4808	1910.65	1026.7
1008.2727	2817.6491	1967.45	1082.25
1008.3914	2818.8167	2015.05	1132.4
1008.5101	2819.9837	2085.2	1197.5
1008.6288	2821.15	2133.8	1250.95
1008.7474	2822.3157	2169	1288.1
1008.8659	2823.4807	2238.2	1355.2
1008.9844	2824.645	2307.6	1421.8
1009.1029	2825.8086	2348.25	1464.8
1009.2214	2826.9716	2408.55	1527.95
1009.3398	2828.134	2455.65	1573.2
1009.4581	2829.2957	2505	1623.8
1009.5764	2830.4567	2534.6	1653.15
1009.6947	2831.617	2574.35	1690.5
1009.813	2832.7767	2587.6	1704.15
1009.9312	2833.9358	2579.35	1696.15
1010.0493	2835.0941	2583.7	1699.05
1010.1675	2836.2519	2574.2	1691.6
1010.2855	2837.4089	2545.05	1659.65
1010.4036	2838.5653	2528.2	1645.65
1010.5216	2839.7211	2519.1	1637.05
1010.6396	2840.8761	2513.15	1629.25
1010.7575	2842.0306	2529.6	1649.6
1010.8754	2843.1843	2553.85	1670.55
1010.9932	2844.3374	2601.2	1719.4
1011.111	2845.4899	2623.15	1739.45
1011.2288	2846.6417	2693.9	1811.25
1011.3465	2847.7928	2742.1	1859.4
1011.4642	2848.9433	2819.1	1935.75
1011.5818	2850.0931	2885.2	2004.7
1011.6995	2851.2422	2940.2	2055.2
1011.817	2852.3907	3005.6	2120.9
1011.9345	2853.5385	3056.8	2170.85
1012.052	2854.6857	3117.55	2222.75
1012.1695	2855.8323	3157.1	2274.2
1012.2869	2856.9781	3208.75	2325.3
1012.4042	2858.1233	3265.9	2384.4
1012.5216	2859.2679	3316.45	2433.85
1012.6389	2860.4118	3383.4	2499.15
1012.7561	2861.555	3412.95	2525.1
1012.8733	2862.6976	3446.8	2562
1012.9905	2863.8395	3497.85	2613.6
1013.1076	2864.9808	3527.9	2644.45
1013.2247	2866.1214	3540.9	2658.65
1013.3417	2867.2614	3570.75	2691.25
1013.4587	2868.4007	3572.6	2689.45
1013.5757	2869.5393	3583.1	2698.45
1013.6926	2870.6773	3606	2722.2
1013.8095	2871.8146	3622.6	2735.4
1013.9263	2872.9513	3623.55	2736.85
1014.0431	2874.0874	3605.35	2722.3
1014.1599	2875.2227	3605.55	2720.85
1014.2766	2876.3574	3576.4	2692.5
1014.3933	2877.4915	3549.95	2667.05
1014.51	2878.6249	3526.6	2643.55
1014.6266	2879.7577	3499.8	2616.6
1014.7431	2880.8898	3489.25	2595.8
1014.8596	2882.0212	3460.4	2580.3
1014.9761	2883.152	3450.45	2568
1015.0925	2884.2821	3449.1	2568.6
1015.2089	2885.4116	3439	2557.3
1015.3253	2886.5405	3439.1	2557.15
1015.4416	2887.6686	3446	2558.25
1015.5579	2888.7962	3443.9	2564.95
1015.6741	2889.923	3461.15	2582.3
1015.7903	2891.0493	3461.45	2583.15
1015.9065	2892.1748	3477.05	2596.25
1016.0226	2893.2997	3483	2601.9
1016.1387	2894.424	3500.65	2620.3
1016.2547	2895.5476	3529.05	2648.15
1016.3707	2896.6706	3538.25	2658.9
1016.4866	2897.7929	3565.4	2683.65
1016.6025	2898.9145	3586.15	2707.05
1016.7184	2900.0355	3616.55	2731.95
1016.8342	2901.1559	3648.75	2765.65
1016.95	2902.2756	3688.4	2802.7
1017.0658	2903.3946	3701.75	2820.85
1017.1815	2904.513	3727.45	2840.5
1017.2971	2905.6308	3762.5	2881.55
1017.4127	2906.7479	3794.8	2910.6
1017.5283	2907.8643	3814	2933.05
1017.6439	2908.9801	3831.6	2950.1
1017.7594	2910.0953	3831.3	2949.9
1017.8748	2911.2098	3830.3	2945.15
1017.9902	2912.3236	3839.6	2951.75
1018.1056	2913.4368	3819.4	2936
1018.2209	2914.5494	3793.6	2913.1
1018.3362	2915.6613	3771.2	2884
1018.4515	2916.7725	3726.15	2843.05
1018.5667	2917.8831	3712.05	2829.95
1018.6819	2918.9931	3674.15	2792.35
1018.797	2920.1024	3641.3	2759.15
1018.9121	2921.211	3611.95	2731.2
1019.0271	2922.319	3588.3	2705.85
1019.1421	2923.4264	3591.25	2712.4
1019.2571	2924.5331	3584.85	2704.65
1019.372	2925.6391	3590.25	2707.8
1019.4869	2926.7445	3585.1	2704.4
1019.6017	2927.8493	3589.75	2707.4
1019.7165	2928.9534	3592.05	2710.8
1019.8313	2930.0569	3577.7	2692.55
1019.946	2931.1597	3583.3	2700.35
1020.0606	2932.2619	3582.45	2701.25
1020.1753	2933.3634	3580.6	2701.4
1020.2899	2934.4643	3586.9	2699.5
1020.4044	2935.5645	3575.1	2689.5
1020.5189	2936.6641	3561.1	2675.45
1020.6334	2937.763	3516.3	2638.2
1020.7478	2938.8613	3487.25	2605.55
1020.8622	2939.959	3431.7	2545.3
1020.9765	2941.056	3375.7	2496.45
1021.0908	2942.1523	3295.05	2412.25
1021.2051	2943.248	3216.95	2336.2
1021.3193	2944.3431	3133.75	2251.75
1021.4334	2945.4375	3021.3	2138.7
1021.5476	2946.5313	2924.95	2047.65
1021.6617	2947.6244	2822.2	1941.65
1021.7757	2948.7169	2729.75	1846.8
1021.8897	2949.8087	2629.25	1749.25
1022.0037	2950.8999	2545.3	1663.45
1022.1176	2951.9904	2457.75	1577.8
1022.2315	2953.0803	2396.15	1515.4
1022.3453	2954.1696	2327.2	1446.5
1022.4591	2955.2582	2278.25	1398.35
1022.5728	2956.3462	2231.85	1350.95
1022.6865	2957.4335	2186.05	1305.7
1022.8002	2958.5202	2159.25	1276
1022.9138	2959.6062	2125.75	1247.6
1023.0274	2960.6916	2097.2	1217.8
1023.141	2961.7764	2075.8	1194.65
1023.2545	2962.8605	2069.55	1189.35
1023.3679	2963.9439	2046.55	1167.6
1023.4813	2965.0267	2033.35	1152.9
1023.5947	2966.1089	2053.95	1153.2
1023.708	2967.1905	2023.9	1143.85
1023.8213	2968.2714	2014.05	1135.6
1023.9346	2969.3516	2017.2	1135
1024.0478	2970.4312	2029.25	1142.6
1024.1609	2971.5102	2017.55	1138.15
1024.274	2972.5885	2014.8	1133.25
1024.3871	2973.6662	2021.45	1137.45
1024.5002	2974.7432	2018	1137.5
1024.6132	2975.8196	2011.8	1133.35
1024.7261	2976.8954	2026.2	1146.15
1024.839	2977.9705	2009.2	1130
1024.9519	2979.045	1992.8	1115.05
1025.0647	2980.1188	1968.2	1089.8
1025.1775	2981.192	1955.9	1078.6
1025.2902	2982.2645	1938.95	1059.8
1025.4029	2983.3364	1923.45	1044.7
1025.5156	2984.4077	1892.7	1013.05
1025.6282	2985.4783	1874.25	989.5
1025.7407	2986.5483	1833.9	954.8
1025.8532	2987.6177	1810.95	934.05
1025.9657	2988.6864	1772.35	892.75
1026.0782	2989.7545	1740.8	861.65
1026.1906	2990.8219	1701.75	822
1026.3029	2991.8887	1666.5	784.3
1026.4152	2992.9548	1635.2	755.4
1026.5275	2994.0204	1604.45	726.8
1026.6397	2995.0852	1572.1	694.1
1026.7519	2996.1495	1551.35	672.2
1026.864	2997.2131	1523.55	642.35
1026.9761	2998.276	1502.7	625.35
1027.0882	2999.3383	1477.9	598.25
1027.2002	3000.4	1458.8	578.55
1027.3122	3001.4611	1444.1	564.2
1027.4241	3002.5215	1422.9	542.7
1027.536	3003.5812	1405.4	526.8
1027.6478	3004.6404	1391	511.35
1027.7596	3005.6989	1382.6	502.3
1027.8714	3006.7567	1369.65	488.7
1027.9831	3007.8139	1391.1	479.1
1028.0947	3008.8705	1355.1	477.4
1028.2064	3009.9264	1350.2	468.05
1028.3179	3010.9818	1335	453.1
1028.4295	3012.0364	1328	448.85
1028.541	3013.0905	1316.85	436.95
1028.6524	3014.1439	1314.9	434.1
1028.7638	3015.1966	1314.6	437.35
1028.8752	3016.2487	1310.4	432.15
1028.9865	3017.3002	1308.45	422.7
1029.0978	3018.3511	1299.85	421.05
1029.209	3019.4013	1306.7	428.35
1029.3202	3020.4509	1297.4	418.5
1029.4314	3021.4998	1298.8	419.4
1029.5425	3022.5481	1291.05	411
1029.6535	3023.5958	1290.25	410.3
1029.7645	3024.6428	1293.95	412.85
1029.8755	3025.6892	1294.9	417.4
1029.9864	3026.735	1290	410.35
1030.0973	3027.7802	1286.95	408.6
1030.2082	3028.8247	1290.5	414
1030.319	3029.8685	1284.75	406.65
1030.4297	3030.9118	1289.85	409.15
1030.5404	3031.9544	1297.1	417.05
1030.6511	3032.9963	1299.85	420.45
1030.7617	3034.0376	1299.7	420.75
1030.8723	3035.0783	1304.1	423.95
1030.9829	3036.1184	1308.15	430.75
1031.0934	3037.1578	1308.45	430.35
1031.2038	3038.1966	1310.25	430.65
1031.3142	3039.2348	1312.15	432.6
1031.4246	3040.2723	1317.75	430.25
1031.5349	3041.3092	1313.8	437
1031.6452	3042.3455	1308.7	430.15
1031.7554	3043.3811	1306.4	425.95
1031.8656	3044.4161	1301.5	422.55
1031.9758	3045.4505	1303.75	427.1
1032.0859	3046.4842	1300.8	419.1
1032.1959	3047.5173	1295.05	417.45
1032.3059	3048.5498	1296.35	419.25
1032.4159	3049.5816	1290.35	410.05
1032.5258	3050.6128	1291.75	411.65
1032.6357	3051.6434	1287.75	406.75
1032.7455	3052.6734	1278.85	400.25
1032.8553	3053.7027	1274.35	396.35
1032.9651	3054.7314	1277.1	397.9
1033.0748	3055.7594	1271.3	393.85
1033.1845	3056.7868	1270.85	392.6
1033.2941	3057.8136	1263.85	384.05
1033.4037	3058.8398	1262.25	386.9
1033.5132	3059.8653	1252.85	372.55
1033.6227	3060.8902	1255.35	376.95
1033.7321	3061.9145	1254.5	374.55
1033.8415	3062.9381	1247.6	370.75
1033.9509	3063.9612	1262.65	367.65
1034.0602	3064.9835	1242.05	363.9
1034.1694	3066.0053	1243.25	363.95
1034.2787	3067.0264	1225.65	349.4
1034.3878	3068.0469	1231.75	352.8
1034.497	3069.0668	1228.4	347.6
1034.6061	3070.086	1217	340.45
1034.7151	3071.1046	1214.1	334.75
1034.8241	3072.1226	1208.65	329.45
1034.9331	3073.1399	1200.05	323.2
1035.042	3074.1567	1194.85	318.25
1035.1508	3075.1727	1182.2	301.95
1035.2597	3076.1882	1181.35	304.3
1035.3684	3077.203	1170.1	293.3
1035.4772	3078.2173	1166.8	287.6
1035.5859	3079.2308	1161.75	278.25
1035.6945	3080.2438	1155.35	275.8
1035.8031	3081.2561	1144.7	266.9
1035.9117	3082.2678	1139.75	262.15
1036.0202	3083.2789	1130	251.8
1036.1286	3084.2893	1124.7	246.25
1036.2371	3085.2991	1121.6	241.7
1036.3454	3086.3083	1120.5	239.7
1036.4538	3087.3169	1116.3	234.35
1036.562	3088.3248	1107	227.6
1036.6703	3089.3321	1107.8	228.8
1036.7785	3090.3388	1097.2	219.65
1036.8866	3091.3449	1092.4	213.3
1036.9948	3092.3503	1091.4	211.9
1037.1028	3093.3551	1086.7	211.4
1037.2108	3094.3593	1085.55	210.45
1037.3188	3095.3629	1076.5	199.65
1037.4267	3096.3658	1082.1	202.65
1037.5346	3097.3681	1078.25	199.7
1037.6425	3098.3698	1068.8	190.8
1037.7503	3099.3708	1075.05	189.75
1037.858	3100.3713	1064.3	188.75
1037.9657	3101.3711	1065.25	186.2
1038.0734	3102.3702	1177.9	181.1
1038.181	3103.3688	1064.45	185.65
1038.2886	3104.3667	1059.3	183.75
1038.3961	3105.364	1053.85	176.55
1038.5036	3106.3607	1053.35	173.9
1038.611	3107.3568	1052.1	174.8
1038.7184	3108.3522	1046.35	170.05
1038.8257	3109.347	1043.85	166.8
1038.933	3110.3412	1052.8	172
1039.0403	3111.3348	1041.4	164.3
1039.1475	3112.3277	1040.8	162.95
1039.2547	3113.32	1037.5	161.3
1039.3618	3114.3117	1036.35	157.3
1039.4689	3115.3028	1034.15	157.15
1039.5759	3116.2932	1037.45	155.7
1039.6829	3117.2831	1042.7	160.7
1039.7898	3118.2723	1029.1	151.45
1039.8967	3119.2608	1025.7	148.35
1040.0035	3120.2488	1030	153.35
1040.1103	3121.2361	1024.8	147.1
1040.2171	3122.2229	1025.9	147.2
1040.3238	3123.209	1023.85	145.3
1040.4305	3124.1944	1020.5	143.35
1040.5371	3125.1793	1023.55	143.8
1040.6437	3126.1635	1018.65	142.4
1040.7502	3127.1471	1018.3	141.4
1040.8567	3128.1301	1015.15	137.05
1040.9631	3129.1125	1017.45	138.7
1041.0695	3130.0942	1013.65	135.9
1041.1759	3131.0753	1023.25	139.15
1041.2822	3132.0558	1013.75	137.3
1041.3884	3133.0357	1012.95	134
1041.4946	3134.015	1008.1	131.65
1041.6008	3134.9936	1006.85	128.7
1041.7069	3135.9716	1030.75	130.75
1041.813	3136.949	1001.55	125.65
1041.919	3137.9258	1022.7	127.2
1042.025	3138.902	1011.1	128.05
1042.1309	3139.8775	1001.9	125.6
1042.2368	3140.8524	999.35	121.45
1042.3427	3141.8267	1002	121.85
1042.4485	3142.8004	1000.85	122.3
1042.5542	3143.7735	1005.6	123.95
1042.6599	3144.7459	1003.9	125
1042.7656	3145.7178	997.4	120.05
1042.8712	3146.689	994.8	119.3
1042.9768	3147.6596	996.15	118.15
1043.0823	3148.6295	992.05	114.1
1043.1878	3149.5989	989.1	111.2
1043.2932	3150.5676	990.55	116.6
1043.3986	3151.5357	987.4	111.25
1043.5039	3152.5032	991.65	115.45
1043.6092	3153.4701	993.05	118.3
1043.7145	3154.4364	990.5	110.55
1043.8197	3155.402	987.5	111.5
1043.9248	3156.367	988.6	109.1
1044.03	3157.3315	1023.6	108.65
1044.135	3158.2952	981.5	103
1044.24	3159.2584	986.05	108.65
1044.345	3160.221	984.8	105.9
1044.4499	3161.1829	985.4	109.45
1044.5548	3162.1442	980.4	101.25
1044.6596	3163.105	984.45	109
1044.7644	3164.065	980.15	103.8
1044.8692	3165.0245	983.05	103.35
1044.9739	3165.9834	977.35	101.7
1045.0785	3166.9416	978.6	101.65
1045.1831	3167.8993	978.85	102.1
1045.2877	3168.8563	976.7	99.6
1045.3922	3169.8127	975.4	98.2
1045.4966	3170.7684	975.2	99.95
1045.6011	3171.7236	974.7	97.05
1045.7054	3172.6782	977.5	101.65
1045.8098	3173.6321	974.95	98.8
1045.914	3174.5854	978.3	96.45
1046.0183	3175.5381	971.05	93.7
1046.1224	3176.4902	974.1	98.6
1046.2266	3177.4417	972.85	97.3
1046.3307	3178.3926	970.45	94.5
1046.4347	3179.3428	969.05	94.05
1046.5387	3180.2924	969.6	94.05
1046.6427	3181.2415	968.3	90.95
1046.7466	3182.1899	968.45	89.95
1046.8504	3183.1377	967.3	91.45
1046.9542	3184.0848	971.2	92.1
1047.058	3185.0314	966.15	89.8
1047.1617	3185.9773	964.15	88.9
1047.2654	3186.9227	967.8	89.2
1047.369	3187.8674	964.4	87.85
1047.4726	3188.8115	969.75	88.85
1047.5761	3189.755	962.75	84.25
1047.6796	3190.6979	964.25	87.6
1047.783	3191.6402	963.3	88.15
1047.8864	3192.5818	964.65	87.45
1047.9898	3193.5229	966.9	87.55
1048.0931	3194.4633	963.35	86.3
1048.1963	3195.4031	962.25	85.85
1048.2995	3196.3423	957.7	81.8
1048.4027	3197.2809	958.6	83.55
1048.5058	3198.2189	955.55	82.6
1048.6089	3199.1563	964.6	80.95
1048.7119	3200.0931	958.55	82.85
1048.8148	3201.0292	956.55	81.75
1048.9178	3201.9648	956.45	78.95
1049.0206	3202.8997	959.65	79
1049.1235	3203.834	956.4	80.8
1049.2262	3204.7677	955.45	78.95
1049.329	3205.7008	956.05	76.6
1049.4317	3206.6333	953.1	78.05
1049.5343	3207.5652	960.85	81.75
1049.6369	3208.4964	955.2	79.75
1049.7394	3209.4271	952.95	77.95
1049.8419	3210.3571	953.4	78.35
1049.9444	3211.2865	950.75	73.2
1050.0468	3212.2154	954.7	79.5
1050.1491	3213.1436	955.3	76.45
1050.2514	3214.0712	960.8	80.05
1050.3537	3214.9982	951.7	74.65
1050.4559	3215.9246	953.1	74.8
1050.5581	3216.8503	949.35	73.9
1050.6602	3217.7755	951.4	74.55
1050.7623	3218.7001	946.5	70.25
1050.8643	3219.624	947.05	70.2
1050.9663	3220.5473	949.4	73.7
1051.0682	3221.4701	945.55	69.25
1051.1701	3222.3922	945.75	66.75
1051.2719	3223.3137	946.5	72.25
1051.3737	3224.2346	946.65	72.05
1051.4754	3225.1549	948	72.7
1051.5771	3226.0746	946.25	70.9
1051.6788	3226.9937	945.1	67.75
1051.7804	3227.9121	943.4	68.35
1051.8819	3228.83	943.9	68.5
1051.9834	3229.7473	945.9	68.8
1052.0849	3230.6639	941.5	66.7
1052.1863	3231.5799	946.45	70.4
1052.2876	3232.4954	942.15	64.75
1052.3889	3233.4102	943.3	68.6
1052.4902	3234.3244	943.95	67.6
1052.5914	3235.238	940.9	66.35
1052.6926	3236.151	962.75	61.9
1052.7937	3237.0634	939.4	66.35
1052.8948	3237.9752	938.05	61.9
1052.9958	3238.8864	938.55	59.9
1053.0968	3239.797	937.05	60.25
1053.1977	3240.7069	941.65	62.55
1053.2986	3241.6163	940.55	63.3
1053.3994	3242.5251	938.45	64.3
1053.5002	3243.4332	935.15	59.8
1053.6009	3244.3408	938.4	63.15
1053.7016	3245.2477	933.45	57.5
1053.8022	3246.154	934.35	56.9
1053.9028	3247.0598	937.6	62.8
1054.0034	3247.9649	934.55	57.55
1054.1039	3248.8694	936.35	60.55
1054.2043	3249.7733	931.75	55.7
1054.3047	3250.6766	935.25	59.55
1054.4051	3251.5793	934.35	58.55
1054.5054	3252.4814	929.75	55.3
1054.6056	3253.3829	930.3	55.25
1054.7058	3254.2838	930.7	56.6
1054.806	3255.1841	932.8	58.8
1054.9061	3256.0838	931.25	56.45
1055.0061	3256.9829	931.15	56.2
1055.1062	3257.8814	932.4	53.6
1055.2061	3258.7792	929.85	51.45
1055.306	3259.6765	931.55	54.7
1055.4059	3260.5731	926	51.35
1055.5057	3261.4692	927	49.4
1055.6055	3262.3647	927.5	51.75
1055.7052	3263.2595	923.65	49.1
1055.8049	3264.1538	923.05	46.5
1055.9045	3265.0474	924.45	48.8
1056.0041	3265.9404	923.45	50.15
1056.1036	3266.8329	922.25	47.7
1056.2031	3267.7247	930.2	44.75
1056.3025	3268.616	917.45	42.55
1056.4019	3269.5066	917.05	42.05
1056.5013	3270.3966	921.1	42.8
1056.6005	3271.286	913.9	41.35
