Software Version:	3.9.2.0
Unit SN:	10000200
Spectrometer SN:	6960
Date:	3/8/2024 12:46:19 PM
Data Line Index:	25
Spectral Points:	2048
Integration time (ms):	125
Averages:	20
Delay (ms):	30000
Sequence Number:	1
Processing:	dark subtract
Laser Power (mW):	300
Laser Current (mA):	822
Laser Diode Temp (C):	25
Laser Case Temp (C):	26.1
System Temp (C):	26.1
Spectrometer Temp (C):	24
CCD Temp (C):	0.001
Secondary Temp (C):	20.011
Heatsink Temp (C):	21.101
CCDPCB Temp (C):	35.829
SecondaryPCB Temp (C):	29.548

Wavelength	RamanShift	Raw Counts	Dark Subtracted
787.061	30.1047	453.25	43.7
787.2016	32.3739	453.35	47.15
787.3422	34.6426	460.8	51.75
787.4828	36.9109	463.5	50.5
787.6235	39.1787	471.4	56.85
787.7642	41.4461	480.8	61.2
787.9049	43.7131	487.55	65.85
788.0456	45.9796	498.6	72.25
788.1863	48.2456	510.6	82.75
788.3271	50.5112	517.35	84.4
788.4679	52.7764	523.9	88.3
788.6087	55.0411	534.1	92.2
788.7496	57.3054	546.05	101.25
788.8904	59.5692	556	108.1
789.0313	61.8326	562.35	111.35
789.1722	64.0955	579.45	126.05
789.3132	66.3579	590	131.75
789.4541	68.6199	608.55	144.75
789.5951	70.8815	645.15	176.9
789.7361	73.1426	730.65	259.1
789.8771	75.4032	934.65	459.5
790.0181	77.6634	1449.8	967.45
790.1592	79.9231	2636.65	2145.95
790.3003	82.1824	5215.6	4705.8
790.4414	84.4412	9808.05	9260.15
790.5825	86.6995	16056.45	15462.6
790.7237	88.9574	22079	21447.7
790.8648	91.2148	26174.35	25512.8
791.006	93.4717	27979.4	27304.7
791.1472	95.7282	28184.8	27502.9
791.2885	97.9842	27894.25	27204
791.4297	100.2398	27087	26395.15
791.571	102.4949	26270.3	25573.6
791.7123	104.7495	25352.05	24655.55
791.8536	107.0036	24436.2	23740.95
791.9949	109.2573	23559.9	22863.35
792.1363	111.5105	22803.7	22103.4
792.2777	113.7632	22144.6	21439.8
792.4191	116.0154	21596.7	20884.1
792.5605	118.2672	21170.35	20459.95
792.7019	120.5185	20774.65	20062.45
792.8434	122.7693	20478.05	19762.05
792.9849	125.0197	20224.15	19506.95
793.1264	127.2696	19941.9	19221.15
793.2679	129.519	19773.25	19050.75
793.4094	131.7679	19476.35	18749.9
793.551	134.0163	19165.6	18434.8
793.6926	136.2642	18834.55	18098.8
793.8342	138.5117	18491.6	17748
793.9758	140.7587	18111.15	17373.1
794.1175	143.0052	17760.2	17019.65
794.2591	145.2512	17391.15	16653.95
794.4008	147.4967	17110.4	16369.7
794.5425	149.7417	16865.85	16122
794.6842	151.9863	16696.85	15950.5
794.826	154.2304	16601.8	15849.65
794.9677	156.4739	16394.3	15637.15
795.1095	158.717	16290.7	15533.25
795.2513	160.9596	16112.65	15346.55
795.3931	163.2017	15854.8	15089
795.535	165.4433	15592	14823.55
795.6768	167.6844	15265.85	14496.85
795.8187	169.925	14962	14194.75
795.9606	172.1651	14605.05	13837.25
796.1025	174.4047	14346.9	13574.6
796.2445	176.6439	14096.1	13317.15
796.3864	178.8825	13879.15	13100.75
796.5284	181.1206	13724.25	12943.1
796.6704	183.3582	13615.45	12831.2
796.8124	185.5954	13513.3	12724.5
796.9544	187.832	13446.9	12652.65
797.0965	190.0681	13430.55	12636
797.2386	192.3037	13425.6	12629.15
797.3806	194.5388	13397	12595.8
797.5228	196.7734	13426.1	12622.1
797.6649	199.0075	13484.55	12676.85
797.807	201.2411	13635.5	12828.15
797.9492	203.4742	13701.75	12897.35
798.0914	205.7068	13848.45	13029.4
798.2336	207.9389	13973.9	13155.3
798.3758	210.1704	14120.05	13306.65
798.518	212.4015	14225.35	13424.1
798.6603	214.632	14355.6	13562.4
798.8025	216.862	14512.15	13719.9
798.9448	219.0915	14614.65	13822.25
799.0871	221.3205	14719.55	13920.9
799.2294	223.549	14807.5	14016.9
799.3718	225.777	14884.9	14095.25
799.5141	228.0044	15009.95	14209.95
799.6565	230.2314	15154.6	14358.1
799.7989	232.4578	15289.85	14488.05
799.9413	234.6837	15405.8	14597.7
800.0837	236.909	15504.25	14689.1
800.2262	239.1339	15526.55	14686.9
800.3687	241.3582	15422.1	14596.95
800.5111	243.582	15311.8	14459.65
800.6536	245.8053	15224.35	14382.15
800.7961	248.0281	15137.7	14308.8
800.9387	250.2503	15135.35	14297.75
801.0812	252.472	15182.45	14340.7
801.2238	254.6932	15295.7	14457.1
801.3664	256.9139	15426.75	14589.1
801.509	259.134	15602.6	14758.05
801.6516	261.3536	15796.7	14952.15
801.7942	263.5727	16108.5	15262.8
801.9369	265.7912	16338.05	15493
802.0795	268.0092	16625.55	15776.05
802.2222	270.2267	16824.2	15980.4
802.3649	272.4436	16915.7	16069.95
802.5076	274.6601	16939.55	16086
802.6504	276.8759	16860.45	16010.7
802.7931	279.0913	16786.7	15932.6
802.9359	281.3061	16659.25	15808.2
803.0787	283.5204	16599	15740.9
803.2215	285.7341	16584.65	15724.3
803.3643	287.9473	16615	15743.25
803.5071	290.16	16637.7	15776.3
803.6499	292.3721	16755.2	15898.15
803.7928	294.5837	16993.4	16133.7
803.9357	296.7947	17206.1	16344.9
804.0786	299.0052	17367.3	16510.45
804.2215	301.2152	17339.75	16477.05
804.3644	303.4246	17176.95	16319.25
804.5074	305.6334	16828.85	15973.1
804.6503	307.8418	16398.1	15537.85
804.7933	310.0495	16014.05	15153.7
804.9363	312.2568	15600.7	14733.4
805.0793	314.4635	15198.9	14328.6
805.2223	316.6696	14932.85	14065.2
805.3653	318.8752	14693.35	13812.5
805.5084	321.0802	14617.6	13744.75
805.6514	323.2847	14652.7	13778.75
805.7945	325.4887	14669.3	13793.25
805.9376	327.692	14674.3	13797.75
806.0807	329.8949	14615.15	13734.55
806.2238	332.0972	14395.8	13516.4
806.367	334.2989	14230.95	13350.05
806.5101	336.5001	13968.65	13085.7
806.6533	338.7007	13772.5	12895.3
806.7965	340.9008	13618.75	12735.95
806.9397	343.1003	13463.2	12577.5
807.0829	345.2992	13325.1	12440.25
807.2261	347.4976	13239.3	12352.35
807.3693	349.6955	13181.85	12291.75
807.5126	351.8927	13183.6	12287.2
807.6559	354.0895	13083.65	12180.05
807.7991	356.2856	13065.95	12173.45
807.9424	358.4812	13003.45	12107.3
808.0857	360.6763	13007.2	12112.1
808.2291	362.8707	13012.95	12113.35
808.3724	365.0646	13058.3	12160.8
808.5158	367.258	13063.95	12166.05
808.6591	369.4508	13125.45	12224.05
808.8025	371.643	13286.55	12382.75
808.9459	373.8346	13350	12445.9
809.0893	376.0257	13414.1	12503.1
809.2327	378.2162	13446.15	12540.65
809.3762	380.4062	13455.45	12553.5
809.5196	382.5956	13297.45	12394.5
809.6631	384.7844	13231.8	12336.55
809.8066	386.9726	13104.8	12213.7
809.9501	389.1603	12988.4	12101.6
810.0936	391.3474	12952.85	12031.7
810.2371	393.5339	12916.9	12016.95
810.3806	395.7199	12882.05	11986.9
810.5241	397.9052	12910.05	12015.9
810.6677	400.09	12974.95	12079.9
810.8113	402.2743	13149.8	12254.4
810.9548	404.4579	13292.35	12392.35
811.0984	406.641	13498.3	12600.6
811.2421	408.8235	13691	12788.7
811.3857	411.0054	13852.9	12954.85
811.5293	413.1868	14025.85	13116.15
811.673	415.3675	14079.3	13168.75
811.8166	417.5477	14090	13179.9
811.9603	419.7273	14045.1	13132.75
812.104	421.9064	13975.75	13060.4
812.2477	424.0848	13918.2	13008
812.3914	426.2627	13739.2	12828.4
812.5351	428.4399	13491.95	12578.55
812.6788	430.6166	13204.4	12289.7
812.8226	432.7928	12888.1	11969.25
812.9663	434.9683	12591	11674.6
813.1101	437.1432	12358.05	11447.95
813.2539	439.3176	12199.8	11296.35
813.3977	441.4914	12082.05	11176.55
813.5415	443.6645	12044.65	11137
813.6853	445.8371	11999.7	11089.7
813.8291	448.0091	11945.3	11028.9
813.973	450.1806	11937.5	11034.05
814.1168	452.3514	11923.65	11016.85
814.2607	454.5216	11961	11042.1
814.4046	456.6913	11933.35	11020.8
814.5485	458.8603	11979.95	11070.05
814.6924	461.0288	12031.3	11131.5
814.8363	463.1967	11992.75	11093.65
814.9802	465.3639	12039.8	11137.35
815.1241	467.5306	12020.6	11116.5
815.2681	469.6967	12047.25	11142.05
815.412	471.8622	12083.15	11183.45
815.556	474.0271	12118.9	11212.6
815.7	476.1914	12167.6	11253.4
815.844	478.3551	12169	11257.9
815.988	480.5182	12215.85	11311.6
816.132	482.6807	12284.3	11382.8
816.276	484.8426	12462.25	11573.35
816.4201	487.0039	12783.15	11880.8
816.5641	489.1647	13151.4	12244.4
816.7082	491.3248	13501.4	12590.2
816.8522	493.4843	13601.15	12694.45
816.9963	495.6432	13583.35	12677.75
817.1404	497.8015	13465.8	12544.65
817.2845	499.9592	13324.85	12399.1
817.4286	502.1163	13127.35	12205.05
817.5727	504.2728	12834	11920.15
817.7168	506.4287	12565.65	11665
817.861	508.5839	12237.85	11333.7
818.0051	510.7386	12054.45	11144.4
818.1493	512.8927	11946.65	11022.7
818.2935	515.0461	11917.75	11002.1
818.4377	517.199	12015.85	11094.25
818.5818	519.3512	12145.8	11225.25
818.726	521.5029	12417.55	11493.45
818.8703	523.6539	12672	11757
819.0145	525.8043	12767.45	11846.15
819.1587	527.9541	12689.55	11765.9
819.303	530.1033	12514.85	11595.4
819.4472	532.2519	12365.75	11448.25
819.5915	534.3999	12321.2	11400.95
819.7357	536.5472	12387.9	11474.85
819.88	538.694	12572.5	11660.2
820.0243	540.8401	12889.85	11972.25
820.1686	542.9856	13118.15	12185.6
820.3129	545.1305	13166.7	12228.65
820.4572	547.2748	13054.4	12114.35
820.6016	549.4185	12868.85	11926.4
820.7459	551.5615	12739.75	11796.1
820.8902	553.704	12755.65	11818.35
821.0346	555.8458	12837.2	11903.7
821.1789	557.987	12963.5	12033.5
821.3233	560.1276	13193.9	12258.65
821.4677	562.2675	13559.7	12624.55
821.6121	564.4069	14041.45	13108.2
821.7565	566.5456	14495.8	13564.1
821.9009	568.6837	14650.7	13716.55
822.0453	570.8212	14242.35	13311.45
822.1897	572.958	13602.7	12669.8
822.3342	575.0942	12953	12024.25
822.4786	577.2299	12511.55	11588.8
822.6231	579.3648	12323.3	11415.25
822.7675	581.4992	12266.6	11368.1
822.912	583.6329	12348.2	11453.05
823.0565	585.766	12498.55	11593.55
823.201	587.8985	12670	11753.9
823.3454	590.0304	12728.6	11784.7
823.4899	592.1616	12660.35	11729.1
823.6345	594.2922	12570.35	11629.6
823.779	596.4222	12378.2	11436.65
823.9235	598.5515	12147.2	11208.05
824.068	600.6802	11984.65	11042.65
824.2126	602.8083	11840.8	10908.65
824.3571	604.9358	11826.65	10886.75
824.5017	607.0626	11844.9	10904.15
824.6462	609.1888	11941.4	10995.35
824.7908	611.3144	12065.25	11117.4
824.9354	613.4393	12199.85	11258.6
825.08	615.5636	12302.3	11358.75
825.2246	617.6873	12339.45	11395.7
825.3692	619.8103	12271	11330.1
825.5138	621.9327	12058.3	11118.8
825.6584	624.0544	11853.15	10915
825.803	626.1756	11679.3	10746.15
825.9477	628.2961	11526.2	10583
826.0923	630.4159	11443.8	10500.25
826.237	632.5351	11432.85	10489.45
826.3816	634.6537	11402.6	10457.3
826.5263	636.7716	11416.5	10468
826.6709	638.8889	11457.45	10505.9
826.8156	641.0056	11483.3	10530.2
826.9603	643.1216	11429.05	10480.1
827.105	645.237	11408.35	10462.6
827.2497	647.3518	11333.9	10394.15
827.3944	649.4659	11250.35	10315.15
827.5391	651.5793	11214.15	10283.05
827.6838	653.6922	11180.15	10246.85
827.8285	655.8043	11160.55	10220.35
827.9733	657.9159	11149.2	10207.6
828.118	660.0268	11150.5	10212.95
828.2627	662.137	11142.25	10200.75
828.4075	664.2466	11140.1	10184.65
828.5522	666.3556	11139.4	10189.95
828.697	668.4639	11095.3	10155.2
828.8418	670.5716	11040.1	10100
828.9865	672.6786	11023.2	10077.4
829.1313	674.785	10971.2	10019.85
829.2761	676.8907	10937.1	9990.2
829.4209	678.9958	10955.05	10016.2
829.5657	681.1002	10898.65	9951.75
829.7105	683.204	10914.2	9956.9
829.8553	685.3072	10916.05	9964.7
830.0001	687.4097	10878.45	9927.7
830.1449	689.5115	10880.4	9931.75
830.2898	691.6127	10875.7	9930.35
830.4346	693.7132	10845.9	9904.2
830.5794	695.8131	10853.55	9887.05
830.7243	697.9123	10874.75	9914.4
830.8691	700.0109	10903.95	9951.5
831.014	702.1089	10941.7	9992.45
831.1588	704.2061	11008.9	10056.75
831.3037	706.3028	11066.55	10112.9
831.4486	708.3987	11101	10147.3
831.5935	710.4941	11101.1	10151.15
831.7383	712.5887	11158.6	10209.35
831.8832	714.6827	11266.55	10317.15
832.0281	716.7761	11393.15	10444.4
832.173	718.8688	11547.05	10596.9
832.3179	720.9608	11701.1	10739.5
832.4628	723.0522	11848.6	10884.75
832.6077	725.1429	11879.65	10923.65
832.7527	727.233	11940.55	10985.4
832.8976	729.3224	11999.7	11043.4
833.0425	731.4112	11909	10955.95
833.1874	733.4993	11789.5	10832.5
833.3324	735.5867	11556.75	10603.05
833.4773	737.6735	11372.85	10415.45
833.6222	739.7596	11163.3	10205.1
833.7672	741.845	11037.25	10083.5
833.9122	743.9298	10928.65	9972.25
834.0571	746.014	10886.6	9933.7
834.2021	748.0974	10904.3	9942.7
834.347	750.1802	10895.75	9932.05
834.492	752.2624	10912.8	9947.45
834.637	754.3439	10974.2	10009.55
834.782	756.4247	11067.65	10099.15
834.9269	758.5048	11244.45	10285.45
835.0719	760.5843	11526.1	10564.05
835.2169	762.6631	11946.25	10981.3
835.3619	764.7413	12485.85	11527.15
835.5069	766.8188	13168.55	12205.85
835.6519	768.8956	13758.6	12796.3
835.7969	770.9718	14137.7	13175.55
835.9419	773.0473	14067.05	13107.75
836.0869	775.1221	13824.9	12865.7
836.232	777.1962	13541.3	12579.5
836.377	779.2697	13457.25	12493.65
836.522	781.3426	13503.6	12529.15
836.667	783.4147	13605.15	12640.9
836.8121	785.4862	13697.1	12735.3
836.9571	787.557	13510.95	12545.65
837.1021	789.6271	13059.65	12091.95
837.2472	791.6966	12440.05	11478.15
837.3922	793.7654	11828.5	10863.2
837.5373	795.8335	11416.35	10452.6
837.6823	797.901	11125.45	10168.4
837.8274	799.9678	10974.1	10004.85
837.9724	802.0339	10891.05	9928.3
838.1175	804.0993	10880.8	9907.7
838.2626	806.1641	10792.35	9825.25
838.4076	808.2282	10717	9756.1
838.5527	810.2916	10638.65	9671.95
838.6978	812.3544	10564.3	9605.8
838.8428	814.4164	10510.05	9551.3
838.9879	816.4778	10586.2	9619.45
839.133	818.5385	10581	9613.8
839.2781	820.5986	10750	9780.35
839.4232	822.658	10971.8	10000.7
839.5682	824.7166	11306.7	10343
839.7133	826.7747	11791.95	10825.25
839.8584	828.832	12319.45	11350.65
840.0035	830.8886	12712.85	11741.2
840.1486	832.9446	12866.45	11897.75
840.2937	834.9999	12744.65	11778.5
840.4388	837.0545	12453.9	11486.4
840.5839	839.1085	12139.45	11169.9
840.729	841.1618	11792.25	10820.15
840.8741	843.2143	11566.35	10600.1
841.0192	845.2662	11338.4	10371.25
841.1643	847.3175	11263.9	10293.65
841.3095	849.368	11091.9	10121.95
841.4546	851.4179	10985.8	10020.35
841.5997	853.467	10906.3	9939.9
841.7448	855.5155	10887.7	9919.95
841.8899	857.5633	10787.4	9818.85
842.0351	859.6105	10684.55	9712.75
842.1802	861.6569	10617.4	9648
842.3253	863.7027	10545.9	9575.05
842.4704	865.7478	10497.55	9525.35
842.6156	867.7922	10473.25	9503.65
842.7607	869.8359	10433.2	9458.25
842.9058	871.8789	10463.45	9494.1
843.0509	873.9212	10560.1	9556.05
843.1961	875.9629	10636.15	9662.4
843.3412	878.0039	10744.9	9774.15
843.4863	880.0441	10832.95	9865
843.6315	882.0837	10890.4	9922.45
843.7766	884.1226	10900	9930.65
843.9218	886.1609	10961.95	9996.9
844.0669	888.1984	11062.85	10091.25
844.212	890.2352	11195.25	10228.75
844.3572	892.2714	11214.4	10239.25
844.5023	894.3069	11170.35	10198.45
844.6475	896.3416	11027.05	10057.1
844.7926	898.3757	10860.95	9891.65
844.9377	900.4091	10765.7	9789.2
845.0829	902.4418	10754	9776.4
845.228	904.4739	10758.45	9784.95
845.3732	906.5052	10820.3	9844.65
845.5183	908.5358	10804.15	9828.55
845.6635	910.5658	10675.65	9696.9
845.8086	912.595	10473	9497.75
845.9538	914.6236	10252.7	9280.4
846.0989	916.6515	10124.2	9148.65
846.2441	918.6786	10035	9063.25
846.3892	920.7051	10046.45	9068.4
846.5344	922.7309	10083.4	9111.45
846.6795	924.756	10118.1	9146.2
846.8246	926.7804	10175.2	9203.45
846.9698	928.8041	10158.5	9185.8
847.1149	930.8272	10235	9260.4
847.2601	932.8495	10212.95	9237.1
847.4052	934.8711	10202.85	9224.85
847.5504	936.892	10163.35	9188.8
847.6955	938.9123	10128.05	9156.75
847.8407	940.9318	10144.3	9168.75
847.9858	942.9506	10141.55	9166.8
848.131	944.9688	10094.05	9120.85
848.2761	946.9862	9997.15	9026.3
848.4213	949.003	9890.15	8918.05
848.5664	951.019	9761.7	8786.6
848.7115	953.0344	9717.1	8741.2
848.8567	955.0491	9707	8729.35
849.0018	957.063	9743.8	8768.15
849.147	959.0763	9811.45	8837.35
849.2921	961.0888	9846.4	8873.25
849.4373	963.1007	9896.25	8932.15
849.5824	965.1119	9907.5	8946.95
849.7275	967.1223	9905.65	8952.65
849.8727	969.1321	9863.75	8912.15
850.0178	971.1412	9842.2	8882.05
850.1629	973.1495	9867.55	8901.85
850.3081	975.1572	9891.95	8874.45
850.4532	977.1641	9886.8	8916.2
850.5983	979.1704	9862.15	8889.6
850.7435	981.1759	9875.3	8901.75
850.8886	983.1808	9894.55	8922.3
851.0337	985.1849	9900.3	8917.65
851.1788	987.1884	9941.9	8966.5
851.324	989.1911	10035	9065.95
851.4691	991.1932	10114.2	9143.4
851.6142	993.1945	10112.85	9143.85
851.7593	995.1951	10066.5	9099
851.9045	997.1951	10052	9072.85
852.0496	999.1943	10030.8	9059
852.1947	1001.1928	10004.95	9028.8
852.3398	1003.1906	10047.35	9076.35
852.4849	1005.1877	10156.55	9184.8
852.63	1007.1841	10255.25	9283.05
852.7751	1009.1798	10289.4	9320.45
852.9202	1011.1748	10210.95	9240.3
853.0653	1013.1691	10062.35	9091.75
853.2104	1015.1627	9850.85	8881.55
853.3555	1017.1556	9640.15	8673.25
853.5006	1019.1477	9529.15	8559.05
853.6457	1021.1392	9407	8447.4
853.7908	1023.1299	9370.55	8414.7
853.9359	1025.12	9392.95	8442.95
854.081	1027.1093	9455.5	8518.85
854.2261	1029.0979	9551.5	8616.95
854.3712	1031.0859	9652.9	8710.65
854.5163	1033.0731	9676.4	8722.2
854.6613	1035.0596	9661.4	8703.15
854.8064	1037.0454	9531.45	8569.2
854.9515	1039.0304	9437	8468.95
855.0965	1041.0148	9318.85	8353.3
855.2416	1042.9985	9212	8243.85
855.3867	1044.9814	9199.3	8232.45
855.5317	1046.9636	9148.65	8180
855.6768	1048.9452	9139.2	8175.1
855.8219	1050.926	9173.9	8207.45
855.9669	1052.9061	9153.95	8189.8
856.112	1054.8855	9240.3	8272.35
856.257	1056.8642	9245.55	8276.25
856.4021	1058.8421	9297.7	8321.95
856.5471	1060.8194	9290.3	8319.65
856.6921	1062.7959	9384.05	8415.7
856.8372	1064.7717	9423.5	8458.1
856.9822	1066.7469	9511.7	8543.2
857.1272	1068.7213	9583.8	8614.85
857.2723	1070.695	9665.15	8698.85
857.4173	1072.6679	9682.6	8716.15
857.5623	1074.6402	9736.7	8768.1
857.7073	1076.6117	9660.6	8689.55
857.8523	1078.5826	9591.05	8622.25
857.9973	1080.5527	9431.4	8455.7
858.1423	1082.5221	9359.95	8394.25
858.2873	1084.4908	9361.5	8394.9
858.4323	1086.4587	9369.55	8402.4
858.5773	1088.426	9380.05	8410.85
858.7223	1090.3925	9409.75	8436.5
858.8673	1092.3584	9446.55	8478.75
859.0123	1094.3235	9462.1	8494.8
859.1573	1096.2879	9525.8	8558.5
859.3022	1098.2515	9654.15	8686.35
859.4472	1100.2145	9796.75	8829.55
859.5922	1102.1767	9994.95	9026.9
859.7371	1104.1382	10211.4	9246.05
859.8821	1106.099	10466	9501.1
860.027	1108.0591	10704.35	9736.1
860.172	1110.0185	10836.05	9870.75
860.3169	1111.9771	10907.4	9941.35
860.4619	1113.9351	10820.9	9853.25
860.6068	1115.8923	10717.55	9749.35
860.7517	1117.8488	10558.85	9589.3
860.8967	1119.8045	10368.2	9404.4
861.0416	1121.7596	10246.55	9282.75
861.1865	1123.7139	10115.65	9149.65
861.3314	1125.6675	10061.3	9099.35
861.4763	1127.6204	10101.4	9135
861.6212	1129.5726	10026	9057.15
861.7661	1131.524	9933.4	8968.25
861.911	1133.4748	9811.95	8847.75
862.0559	1135.4248	9646.4	8681.25
862.2008	1137.3741	9499.7	8538.3
862.3457	1139.3226	9364.3	8398.65
862.4905	1141.2705	9317.1	8352.25
862.6354	1143.2176	9254.45	8282.85
862.7803	1145.164	9234.05	8262.95
862.9251	1147.1097	9144.45	8180.2
863.07	1149.0546	9052.05	8084.35
863.2148	1150.9989	8947.45	7985.2
863.3597	1152.9424	8839.9	7871.1
863.5045	1154.8852	8769.35	7803.05
863.6493	1156.8272	8718.1	7753.75
863.7942	1158.7686	8744.1	7771.15
863.939	1160.7092	8730.6	7764.5
864.0838	1162.6491	8781.6	7814.7
864.2286	1164.5883	8890.9	7926.45
864.3734	1166.5267	9010.5	8045.6
864.5182	1168.4644	9168.5	8206.45
864.663	1170.4014	9383.7	8420.3
864.8078	1172.3377	9605.55	8642.6
864.9526	1174.2732	9917.95	8957.1
865.0974	1176.2081	10340.05	9375.45
865.2421	1178.1421	10831.6	9865
865.3869	1180.0755	11347.95	10385.05
865.5317	1182.0082	11698.5	10739.05
865.6764	1183.9401	11884.65	10925.15
865.8212	1185.8713	11734.4	10779.35
865.9659	1187.8017	11415.75	10468.3
866.1106	1189.7315	11012.2	10074.6
866.2554	1191.6605	10623.8	9688.1
866.4001	1193.5888	10339.2	9396
866.5448	1195.5163	10158.75	9207.6
866.6895	1197.4432	10093.4	9134.95
866.8342	1199.3693	10042.6	9085.05
866.9789	1201.2947	9998.65	9034.6
867.1236	1203.2193	9959.5	8998.5
867.2683	1205.1432	9971.9	9011.85
867.413	1207.0664	9918.15	8961.85
867.5576	1208.9889	9914.2	8951.65
867.7023	1210.9106	9908.25	8951.25
867.847	1212.8316	9906.6	8950
867.9916	1214.7519	9945.65	8978.2
868.1363	1216.6715	9959.15	8999.8
868.2809	1218.5903	10031.5	9069.05
868.4255	1220.5084	10103.6	9143.1
868.5701	1222.4257	10213.45	9256
868.7148	1224.3424	10251.6	9295.9
868.8594	1226.2583	10369	9409.95
869.004	1228.1735	10508.1	9551.6
869.1486	1230.0879	10670.65	9712.55
869.2932	1232.0016	10875.2	9915.75
869.4377	1233.9146	11005.25	10045.2
869.5823	1235.8269	10992.9	10031.75
869.7269	1237.7384	10978.5	10021.9
869.8715	1239.6492	10858.15	9902.3
870.016	1241.5592	10848.6	9890.35
870.1606	1243.4686	10901.85	9944.65
870.3051	1245.3772	11060.85	10103.4
870.4496	1247.285	11294.4	10337.5
870.5941	1249.1922	11496.25	10538.2
870.7387	1251.0986	11618.2	10659.25
870.8832	1253.0042	11715.4	10757.95
871.0277	1254.9092	11834.05	10878.15
871.1722	1256.8134	11938.85	10983.9
871.3167	1258.7169	12094.2	11136.3
871.4611	1260.6196	12223.15	11269.15
871.6056	1262.5216	12457.3	11501
871.7501	1264.4229	12661.85	11707.25
871.8945	1266.3234	12855.6	11899.3
872.039	1268.2232	12987.4	12030.3
872.1834	1270.1223	13076	12114.8
872.3278	1272.0207	13099.35	12140.55
872.4723	1273.9183	13086.35	12126.3
872.6167	1275.8151	13029.95	12074.6
872.7611	1277.7113	12999.7	12046.45
872.9055	1279.6067	13066.9	12110.7
873.0499	1281.5014	13346.8	12388.65
873.1943	1283.3953	13722.15	12760.7
873.3386	1285.2885	14265.05	13310.85
873.483	1287.181	14810.6	13854.65
873.6274	1289.0727	15281.3	14331.5
873.7717	1290.9637	15618.9	14664.6
873.9161	1292.854	15831.6	14875.05
874.0604	1294.7435	15834.9	14877.9
874.2047	1296.6323	15721.45	14769.3
874.349	1298.5204	15567.05	14609.05
874.4933	1300.4077	15340.25	14382.85
874.6376	1302.2943	15092	14133.1
874.7819	1304.1802	14755.35	13801.65
874.9262	1306.0653	14287.35	13330.6
875.0705	1307.9497	13793.15	12840.35
875.2147	1309.8333	13358.75	12407.15
875.359	1311.7162	13033.1	12078.5
875.5032	1313.5984	12874.45	11916.95
875.6475	1315.4798	12720.6	11754.8
875.7917	1317.3605	12585	11624.85
875.9359	1319.2405	12480.75	11523.75
876.0801	1321.1197	12237	11280.15
876.2243	1322.9982	11929.35	10968.35
876.3685	1324.876	11650.75	10701.45
876.5127	1326.753	11323.1	10369.4
876.6569	1328.6293	11112.65	10155
876.801	1330.5048	10941.9	9984
876.9452	1332.3796	10777.35	9819.8
877.0893	1334.2537	10699.6	9719.9
877.2335	1336.127	10595.75	9639.5
877.3776	1337.9996	10536.5	9585.05
877.5217	1339.8714	10524.95	9571.55
877.6658	1341.7426	10558	9555.4
877.8099	1343.6129	10573.35	9616.5
877.954	1345.4826	10545.2	9586.8
878.0981	1347.3515	10568.35	9607.75
878.2422	1349.2196	10543.55	9586.8
878.3862	1351.087	10580.5	9623.15
878.5303	1352.9537	10623.1	9668.2
878.6743	1354.8197	10728.6	9771.1
878.8184	1356.6849	10904.35	9948.35
878.9624	1358.5493	11039.75	10085.25
879.1064	1360.4131	11227.65	10275
879.2504	1362.276	11369.75	10413.05
879.3944	1364.1383	11399.45	10445.45
879.5384	1365.9998	11224.7	10261.5
879.6823	1367.8606	10891.3	9937.75
879.8263	1369.7206	10535.6	9579.2
879.9702	1371.5799	10209.7	9251.65
880.1142	1373.4384	9935.7	8980.85
880.2581	1375.2962	9668.25	8710.1
880.402	1377.1533	9378.25	8427.45
880.5459	1379.0096	9021.9	8071.65
880.6898	1380.8652	8704.05	7756.9
880.8337	1382.7201	8413.25	7463.45
880.9776	1384.5742	8161.95	7211.3
881.1215	1386.4275	7980.8	7027.3
881.2653	1388.2802	7823.1	6867.8
881.4092	1390.132	7713.25	6761.05
881.553	1391.9832	7636.5	6681.55
881.6968	1393.8336	7567.3	6613.6
881.8406	1395.6832	7556.1	6603.2
881.9844	1397.5322	7486.25	6536.4
882.1282	1399.3803	7459.5	6502.25
882.272	1401.2278	7428.65	6476.8
882.4158	1403.0745	7416.95	6467.45
882.5595	1404.9204	7404.1	6456.95
882.7033	1406.7656	7422.6	6468.85
882.847	1408.6101	7415.55	6458.15
882.9908	1410.4538	7472.8	6520.4
883.1345	1412.2968	7496.7	6544.85
883.2782	1414.139	7556.7	6606.7
883.4219	1415.9805	7607.7	6658.05
883.5656	1417.8213	7660.55	6700.75
883.7092	1419.6613	7773.5	6827.6
883.8529	1421.5006	7919.1	6966.85
883.9965	1423.3391	8111.9	7158.3
884.1402	1425.1769	8369.7	7419.55
884.2838	1427.0139	8808.2	7856.15
884.4274	1428.8502	9336.25	8383.4
884.571	1430.6858	9858.55	8907.85
884.7146	1432.5206	10229.9	9282.35
884.8582	1434.3547	10465.7	9515.5
885.0018	1436.188	10483.75	9533.8
885.1453	1438.0206	10388.15	9436.55
885.2889	1439.8524	10233.8	9282.25
885.4324	1441.6835	10106.7	9157
885.5759	1443.5139	10018.65	9066.7
885.7194	1445.3435	9933.95	8983.95
885.8629	1447.1724	9905.4	8957.6
886.0064	1449.0005	9865.65	8918.35
886.1499	1450.8279	9839.2	8889.95
886.2933	1452.6545	9809.45	8862.65
886.4368	1454.4804	9833.65	8887.2
886.5802	1456.3056	9836.55	8883.75
886.7237	1458.13	9765.55	8820.8
886.8671	1459.9536	9599.35	8651.45
887.0105	1461.7766	9340.85	8392
887.1539	1463.5987	9038.1	8086.45
887.2972	1465.4202	8720.35	7773.5
887.4406	1467.2409	8401.9	7454.35
887.584	1469.0608	8114.15	7168.15
887.7273	1470.88	7861.9	6913.4
887.8706	1472.6984	7614.4	6669.2
888.0139	1474.5161	7431.95	6482.1
888.1572	1476.3331	7293.2	6344.95
888.3005	1478.1493	7175.85	6227.05
888.4438	1479.9648	7106.7	6157.2
888.5871	1481.7795	7025.5	6078.45
888.7303	1483.5935	6964.75	6017.8
888.8736	1485.4067	6916.75	5969.35
889.0168	1487.2192	6857.65	5911.5
889.16	1489.031	6822.1	5873.5
889.3032	1490.842	6804.85	5858
889.4464	1492.6522	6759.55	5812.9
889.5896	1494.4618	6728.35	5780.9
889.7327	1496.2705	6709.45	5762.75
889.8759	1498.0785	6651.05	5708.25
890.019	1499.8858	6596.95	5651.15
890.1622	1501.6924	6569.4	5622
890.3053	1503.4981	6535.8	5588.4
890.4484	1505.3032	6489.95	5542.4
890.5914	1507.1075	6456.75	5511.3
890.7345	1508.911	6409.3	5463.25
890.8776	1510.7138	6372.4	5427.05
891.0206	1512.5159	6323.85	5378.85
891.1637	1514.3172	6278.1	5333.9
891.3067	1516.1178	6229.8	5286.95
891.4497	1517.9176	6211.45	5263.65
891.5927	1519.7166	6175.65	5234.35
891.7357	1521.515	6144.95	5198.05
891.8786	1523.3126	6125.5	5180.95
892.0216	1525.1094	6107.5	5162.2
892.1645	1526.9055	6071.4	5129.4
892.3074	1528.7008	6050.05	5106.6
892.4503	1530.4954	6026.4	5080.5
892.5932	1532.2893	6012.05	5073.05
892.7361	1534.0824	5979.55	5036
892.879	1535.8747	5982.3	5047.35
893.0218	1537.6663	5971.25	5037
893.1647	1539.4572	5980.05	5039
893.3075	1541.2473	5975.5	5037.65
893.4503	1543.0367	5981.45	5045.6
893.5931	1544.8253	5994.6	5049.45
893.7359	1546.6132	6013.35	5069.35
893.8787	1548.4003	6068.15	5120.4
894.0214	1550.1867	6106.8	5159
894.1642	1551.9723	6181.75	5242.05
894.3069	1553.7572	6248.55	5316.15
894.4496	1555.5414	6362.15	5430
894.5923	1557.3247	6509.45	5576.2
894.735	1559.1074	6686.65	5755.65
894.8777	1560.8893	6859.75	5927.35
895.0204	1562.6705	6986.6	6055.65
895.163	1564.4509	7139.8	6212.25
895.3056	1566.2305	7216.35	6291.15
895.4482	1568.0094	7266.25	6338.95
895.5908	1569.7876	7238.95	6310.5
895.7334	1571.565	7241.25	6309.95
895.876	1573.3417	7237.8	6305.2
896.0186	1575.1176	7205.2	6277.15
896.1611	1576.8928	7225.7	6302.05
896.3036	1578.6672	7235.5	6316.5
896.4461	1580.4409	7244.35	6326.3
896.5886	1582.2138	7283.8	6359.2
896.7311	1583.986	7334.3	6408.5
896.8736	1585.7575	7420.2	6491.9
897.0161	1587.5282	7486.75	6565.1
897.1585	1589.2981	7610.65	6691.45
897.3009	1591.0673	7691	6772.4
897.4433	1592.8358	7831.05	6911.1
897.5857	1594.6035	7943.65	7016.4
897.7281	1596.3704	8015.45	7087.85
897.8705	1598.1366	8126.15	7201.35
898.0128	1599.9021	8230.5	7311.85
898.1551	1601.6668	8292.4	7367.65
898.2975	1603.4308	8456.75	7531.55
898.4398	1605.194	8627.5	7702
898.5821	1606.9564	8827.25	7914.3
898.7243	1608.7182	9074.75	8162.55
898.8666	1610.4791	9372.75	8466.2
899.0088	1612.2394	9688.45	8783.7
899.1511	1613.9988	10007.65	9100.4
899.2933	1615.7576	10293.2	9380.8
899.4355	1617.5156	10476.4	9548.05
899.5776	1619.2728	10565.25	9644
899.7198	1621.0293	10474.75	9552.25
899.862	1622.785	10256	9336.2
900.0041	1624.54	9901.65	8985.85
900.1462	1626.2942	9526.05	8611
900.2883	1628.0477	9126.6	8211.5
900.4304	1629.8005	8730	7812.85
900.5725	1631.5525	8394.55	7479.8
900.7145	1633.3037	8125	7215
900.8566	1635.0542	7885.3	6971.2
900.9986	1636.804	7700.75	6787.45
901.1406	1638.553	7644.85	6640.95
901.2826	1640.3013	7525.5	6608.35
901.4245	1642.0488	7466.55	6549.55
901.5665	1643.7955	7481.5	6570.35
901.7085	1645.5416	7540.4	6629.55
901.8504	1647.2868	7613.75	6699.25
901.9923	1649.0313	7703.9	6789.05
902.1342	1650.7751	7863.8	6947.3
902.2761	1652.5181	8005.1	7092.85
902.4179	1654.2604	8190.15	7278.95
902.5598	1656.0019	8413.4	7500.15
902.7016	1657.7427	8647.6	7732.95
902.8434	1659.4828	8894.9	7980.35
902.9852	1661.222	9069.05	8153.6
903.127	1662.9606	9024.85	8106.8
903.2687	1664.6984	8819.85	7904.3
903.4105	1666.4354	8398.7	7479.7
903.5522	1668.1717	7858.2	6938.35
903.6939	1669.9072	7299.6	6382.4
903.8356	1671.642	6838.75	5917.75
903.9773	1673.3761	6451	5533.65
904.119	1675.1094	6121.55	5205.2
904.2606	1676.8419	5866.1	4951.5
904.4022	1678.5737	5690.45	4776.4
904.5439	1680.3048	5532.6	4613.85
904.6855	1682.0351	5378.95	4462.4
904.827	1683.7646	5286.65	4366.75
904.9686	1685.4934	5200.25	4287.25
905.1101	1687.2215	5117.2	4202.05
905.2517	1688.9488	5037.15	4124.35
905.3932	1690.6754	4967.5	4054.25
905.5347	1692.4012	4943	4028.25
905.6761	1694.1263	4892.4	3978.2
905.8176	1695.8506	4852.8	3940.95
905.9591	1697.5742	4802.75	3892.05
906.1005	1699.297	4766.8	3858.4
906.2419	1701.0191	4722.9	3817.3
906.3833	1702.7404	4674.5	3768.3
906.5246	1704.461	4636.1	3727.05
906.666	1706.1808	4609.55	3696.85
906.8073	1707.8999	4581.55	3673.5
906.9487	1709.6182	4554.65	3649.85
907.09	1711.3358	4523.25	3619.1
907.2313	1713.0527	4491.6	3589.2
907.3725	1714.7688	4485.8	3573.1
907.5138	1716.4841	4456.2	3547.65
907.655	1718.1987	4455.75	3540.45
907.7962	1719.9126	4428.65	3522.65
907.9374	1721.6257	4400.7	3496.4
908.0786	1723.338	4389.4	3484.95
908.2198	1725.0496	4379.4	3472.7
908.3609	1726.7605	4374.8	3466.75
908.502	1728.4706	4365.4	3457.25
908.6431	1730.18	4322.65	3419.95
908.7842	1731.8886	4328.75	3425.5
908.9253	1733.5964	4325.2	3400.85
909.0664	1735.3036	4284.25	3374.4
909.2074	1737.0099	4277.95	3370.85
909.3484	1738.7156	4260.5	3356.45
909.4894	1740.4204	4213.65	3307.35
909.6304	1742.1246	4202.05	3294.75
909.7714	1743.8279	4181.1	3276.35
909.9123	1745.5306	4156.1	3251
910.0532	1747.2325	4150.4	3248.55
910.1941	1748.9336	4126.5	3220.8
910.335	1750.634	4115.3	3206.7
910.4759	1752.3336	4113.6	3208.15
910.6168	1754.0325	4082.45	3182.25
910.7576	1755.7307	4071.55	3170.8
910.8984	1757.4281	4078.7	3173.1
911.0392	1759.1247	4066.1	3150.5
911.18	1760.8206	4071.35	3156.7
911.3208	1762.5158	4056.2	3144.7
911.4615	1764.2102	4026.2	3117.35
911.6022	1765.9039	4021	3115.9
911.7429	1767.5968	4011.4	3111.5
911.8836	1769.289	3985.6	3084.05
912.0243	1770.9804	3988.15	3081.95
912.1649	1772.6711	3981.7	3071.85
912.3056	1774.361	3967.55	3058.9
912.4462	1776.0502	3968.85	3058.9
912.5868	1777.7386	3943.9	3032.5
912.7274	1779.4263	3945.65	3040.8
912.8679	1781.1132	3943.55	3041.45
913.0084	1782.7994	3936.1	3036.85
913.149	1784.4849	3929.1	3030
913.2895	1786.1696	3921.7	3000.45
913.4299	1787.8535	3885.7	2986.55
913.5704	1789.5367	3897.9	3001.55
913.7108	1791.2192	3895.75	2996.65
913.8513	1792.9009	3900.05	2970.7
913.9917	1794.5818	3864.45	2954.85
914.132	1796.2621	3865.75	2960.7
914.2724	1797.9415	3867.55	2961.9
914.4128	1799.6202	3846.6	2941.9
914.5531	1801.2982	3838.1	2931.1
914.6934	1802.9755	3823.1	2916.95
914.8337	1804.6519	3819.35	2914.35
914.9739	1806.3277	3802.85	2901.25
915.1142	1808.0027	3787.4	2888.15
915.2544	1809.6769	3782.45	2882.2
915.3946	1811.3504	3774.2	2875.95
915.5348	1813.0231	3779.05	2877.75
915.675	1814.6951	3762.15	2860.95
915.8151	1816.3664	3778.4	2873.1
915.9553	1818.0369	3763.3	2858.6
916.0954	1819.7067	3748.8	2845.6
916.2355	1821.3757	3751.25	2845.9
916.3755	1823.044	3748.35	2843.4
916.5156	1824.7115	3743.65	2838.4
916.6556	1826.3783	3729.2	2824.25
916.7956	1828.0443	3724.35	2822.3
916.9356	1829.7096	3714.75	2811.3
917.0756	1831.3741	3716.3	2810.6
917.2155	1833.0379	3706.4	2805.5
917.3555	1834.701	3690.5	2790.35
917.4954	1836.3633	3670.65	2774.4
917.6353	1838.0248	3667.15	2765.5
917.7751	1839.6856	3654.25	2749
917.915	1841.3457	3659.65	2758.1
918.0548	1843.005	3653	2750
918.1946	1844.6636	3665.85	2760.7
918.3344	1846.3214	3654.15	2750.45
918.4742	1847.9785	3644.65	2744
918.6139	1849.6349	3630.35	2724.1
918.7537	1851.2904	3639.5	2726.15
918.8934	1852.9453	3631.5	2725
919.0331	1854.5994	3631.25	2723.4
919.1727	1856.2528	3632.65	2725.35
919.3124	1857.9054	3614.8	2708.65
919.452	1859.5572	3605.8	2703.3
919.5916	1861.2083	3596.1	2692.3
919.7312	1862.8587	3606.05	2702.25
919.8708	1864.5084	3588.4	2681.55
920.0103	1866.1572	3572.35	2667.4
920.1498	1867.8054	3575	2668.95
920.2893	1869.4528	3552.1	2643.85
920.4288	1871.0994	3542.4	2635.85
920.5683	1872.7453	3539	2633.7
920.7077	1874.3905	3556.65	2645.55
920.8471	1876.0349	3526.5	2624.4
920.9865	1877.6786	3536.5	2630.45
921.1259	1879.3215	3518.75	2615.9
921.2653	1880.9637	3522.4	2618.7
921.4046	1882.6051	3522.2	2620.05
921.5439	1884.2458	3504.55	2602
921.6832	1885.8858	3505.25	2603.65
921.8225	1887.525	3500.05	2595.8
921.9617	1889.1634	3494.9	2588.25
922.101	1890.8011	3472.1	2566.2
922.2402	1892.4381	3463.55	2558.75
922.3794	1894.0743	3461.8	2558.3
922.5185	1895.7098	3464.85	2562.2
922.6577	1897.3446	3450.8	2549.15
922.7968	1898.9786	3428.35	2521.6
922.9359	1900.6118	3432.45	2532.4
923.075	1902.2443	3414.4	2513.5
923.214	1903.8761	3412.2	2512.6
923.3531	1905.5071	3393.6	2490.75
923.4921	1907.1374	3380.05	2475.1
923.6311	1908.7669	3386.6	2486.05
923.77	1910.3957	3386.95	2486.4
923.909	1912.0237	3363.1	2463.95
924.0479	1913.651	3356.3	2453
924.1868	1915.2776	3359	2459.35
924.3257	1916.9034	3352.3	2450.85
924.4646	1918.5285	3348.65	2449.35
924.6034	1920.1528	3324	2422.3
924.7422	1921.7764	3324.95	2423.8
924.881	1923.3992	3320.5	2418.65
925.0198	1925.0213	3303.05	2401.15
925.1586	1926.6427	3297.05	2398.7
925.2973	1928.2633	3347.25	2368.25
925.436	1929.8832	3291.15	2387.85
925.5747	1931.5023	3267.95	2364.8
925.7134	1933.1207	3263.7	2363.1
925.852	1934.7383	3264.3	2362.25
925.9906	1936.3552	3243.55	2344.05
926.1292	1937.9714	3236.5	2335.25
926.2678	1939.5868	3243.55	2341.05
926.4064	1941.2015	3223.05	2319.4
926.5449	1942.8154	3205.75	2302.85
926.6834	1944.4286	3212.65	2307.25
926.8219	1946.041	3212.15	2291.35
926.9604	1947.6528	3207.3	2299.45
927.0988	1949.2637	3177.65	2276.05
927.2372	1950.8739	3159.7	2257
927.3756	1952.4834	3149.85	2249.35
927.514	1954.0921	3151.85	2249.75
927.6523	1955.7001	3154.05	2250.7
927.7907	1957.3074	3148.25	2252.7
927.929	1958.9139	3137.25	2242.05
928.0673	1960.5197	3121.25	2222.2
928.2055	1962.1247	3115.5	2217.7
928.3438	1963.729	3107.05	2211.2
928.482	1965.3325	3100	2198
928.6202	1966.9353	3089.25	2194.4
928.7584	1968.5374	3090.45	2191.7
928.8965	1970.1387	3077.7	2178.95
929.0346	1971.7393	3070.05	2173.45
929.1727	1973.3392	3065.95	2170
929.3108	1974.9383	3051.6	2157.95
929.4489	1976.5366	3031.05	2137.1
929.5869	1978.1342	3045.5	2151.6
929.7249	1979.7311	3025.05	2131.8
929.8629	1981.3273	3018.4	2124.1
930.0009	1982.9227	3022.1	2127.65
930.1388	1984.5173	3018.2	2126.25
930.2767	1986.1112	2995.55	2105
930.4146	1987.7044	3004.9	2113.6
930.5525	1989.2968	2989.55	2093.25
930.6904	1990.8885	2991.2	2093.75
930.8282	1992.4795	2980.35	2087
930.966	1994.0697	2972.9	2083.15
931.1038	1995.6592	2964.8	2072.35
931.2415	1997.2479	2953.95	2061.55
931.3793	1998.8359	2943.25	2052.6
931.517	2000.4232	2933.75	2046.85
931.6547	2002.0097	2936.9	2050.55
931.7923	2003.5955	2921	2035.15
931.93	2005.1805	2937.55	2048.25
932.0676	2006.7648	2912.7	2024.95
932.2052	2008.3484	2904.65	2016.75
932.3427	2009.9312	2913.8	2027.9
932.4803	2011.5133	2887.15	2004.7
932.6178	2013.0946	2904.45	2017.55
932.7553	2014.6752	2893.6	2005.85
932.8928	2016.2551	2889.3	2000.85
933.0302	2017.8342	2873.35	1985.2
933.1676	2019.4126	2875.05	1988.3
933.305	2020.9902	2851.25	1967.45
933.4424	2022.5672	2870.25	1984.2
933.5798	2024.1433	2856.45	1966
933.7171	2025.7188	2847.15	1964.25
933.8544	2027.2935	2843.25	1958.1
933.9917	2028.8674	2821.6	1938.8
934.129	2030.4406	2828.5	1946.1
934.2662	2032.0131	2818.95	1937.7
934.4034	2033.5849	2813.05	1928.65
934.5406	2035.1559	2807	1922.8
934.6778	2036.7261	2821.75	1935.95
934.8149	2038.2957	2809.25	1917.9
934.952	2039.8645	2806.75	1913.45
935.0891	2041.4325	2807.9	1913
935.2262	2042.9998	2794.35	1906.65
935.3632	2044.5664	2784.7	1897.2
935.5002	2046.1323	2780.15	1897.25
935.6372	2047.6974	2770.6	1888
935.7742	2049.2617	2765.9	1884.85
935.9111	2050.8254	2784.3	1874.75
936.048	2052.3883	2778.4	1889.75
936.1849	2053.9504	2759.15	1870.7
936.3218	2055.5118	2755.95	1866.5
936.4586	2057.0725	2747.8	1856.85
936.5955	2058.6325	2735.85	1849.1
936.7323	2060.1917	2722.3	1836.15
936.869	2061.7502	2724.6	1837.45
937.0058	2063.3079	2727.65	1845.65
937.1425	2064.8649	2723.95	1836.15
937.2792	2066.4212	2711.65	1823.1
937.4159	2067.9767	2706.2	1818.75
937.5525	2069.5315	2705.3	1818.35
937.6891	2071.0856	2697.5	1810.4
937.8257	2072.6389	2689.75	1802.4
937.9623	2074.1915	2667.8	1784.55
938.0989	2075.7433	2674.95	1786.9
938.2354	2077.2945	2667.05	1780.4
938.3719	2078.8448	2670.6	1779.3
938.5084	2080.3945	2661.15	1770.3
938.6448	2081.9434	2666.6	1776.1
938.7812	2083.4916	2655	1764.15
938.9176	2085.039	2648.75	1750.65
939.054	2086.5857	2646.8	1746.4
939.1903	2088.1317	2645.2	1748.95
939.3267	2089.677	2629.95	1730.5
939.463	2091.2215	2632.05	1731.65
939.5992	2092.7652	2623.95	1722.45
939.7355	2094.3083	2631.45	1736.15
939.8717	2095.8506	2606.1	1714
940.0079	2097.3921	2607.65	1717.95
940.1441	2098.933	2604.1	1711.7
940.2802	2100.4731	2603.55	1708.9
940.4163	2102.0124	2618.75	1709.45
940.5524	2103.5511	2596.4	1702.9
940.6885	2105.089	2590.15	1695.7
940.8245	2106.6261	2590.6	1697.35
940.9606	2108.1626	2567.4	1674.95
941.0965	2109.6983	2613.85	1693.3
941.2325	2111.2332	2578.9	1685.9
941.3684	2112.7675	2581.45	1687.3
941.5044	2114.301	2557.2	1660.9
941.6403	2115.8337	2571.2	1676.05
941.7761	2117.3657	2574.15	1681.05
941.912	2118.897	2558.2	1662.65
942.0478	2120.4276	2562.45	1660.35
942.1835	2121.9575	2540.35	1645.1
942.3193	2123.4866	2545.8	1650.2
942.455	2125.0149	2536.85	1641.35
942.5907	2126.5426	2512.45	1623.2
942.7264	2128.0695	2508.55	1620.15
942.8621	2129.5956	2510.2	1627.15
942.9977	2131.1211	2517.25	1627.45
943.1333	2132.6458	2513.3	1621.95
943.2689	2134.1698	2514.95	1619.35
943.4044	2135.693	2510.85	1612.25
943.54	2137.2155	2504.4	1605.4
943.6755	2138.7373	2494.2	1603.1
943.8109	2140.2584	2483.55	1595.25
943.9464	2141.7787	2480.15	1589.85
944.0818	2143.2983	2466.8	1584
944.2172	2144.8171	2464.25	1581.45
944.3526	2146.3353	2469.35	1579.25
944.4879	2147.8527	2455	1567.15
944.6232	2149.3693	2452.45	1561.15
944.7585	2150.8853	2462.25	1566.3
944.8938	2152.4005	2456.75	1561.75
945.029	2153.9149	2458.4	1561.75
945.1642	2155.4287	2442.2	1547.65
945.2994	2156.9417	2439.95	1546.15
945.4346	2158.454	2437.65	1545.85
945.5697	2159.9655	2432.95	1544.4
945.7048	2161.4764	2419.55	1530.55
945.8399	2162.9865	2410.7	1521.4
945.9749	2164.4958	2414.7	1524.8
946.1099	2166.0045	2410.05	1518.2
946.2449	2167.5124	2416.6	1526.6
946.3799	2169.0195	2413.7	1519.8
946.5148	2170.526	2398.05	1503.5
946.6498	2172.0317	2407.35	1513.45
946.7846	2173.5367	2393.25	1499.05
946.9195	2175.0409	2385.1	1494.1
947.0543	2176.5445	2387.7	1494.35
947.1891	2178.0473	2389.3	1494.85
947.3239	2179.5494	2383.6	1486.95
947.4587	2181.0507	2381.8	1488.5
947.5934	2182.5513	2371.6	1477.9
947.7281	2184.0512	2365.2	1470.6
947.8628	2185.5504	2359.8	1468.5
947.9974	2187.0488	2350.75	1463.3
948.132	2188.5465	2346.6	1457.3
948.2666	2190.0435	2347.8	1455.4
948.4012	2191.5397	2338.75	1445.2
948.5357	2193.0353	2345	1451
948.6702	2194.5301	2345.35	1447.55
948.8047	2196.0241	2351.85	1455.5
948.9392	2197.5175	2344.55	1446.3
949.0736	2199.0101	2331.35	1428.3
949.208	2200.502	2319.9	1427.9
949.3424	2201.9931	2319.35	1430.5
949.4767	2203.4835	2304.75	1416.4
949.611	2204.9733	2314.9	1410.45
949.7453	2206.4622	2295.45	1408.4
949.8796	2207.9505	2294.65	1405.85
950.0138	2209.438	2279.9	1395.9
950.148	2210.9248	2280.45	1389.7
950.2822	2212.4109	2274.9	1385.1
950.4164	2213.8962	2282	1384.8
950.5505	2215.3809	2275.05	1378.6
950.6846	2216.8648	2288.9	1390
950.8186	2218.3479	2279.85	1374.95
950.9527	2219.8304	2267.8	1366.45
951.0867	2221.3121	2253.15	1351.95
951.2207	2222.7931	2253.2	1353.65
951.3546	2224.2733	2248.65	1354.15
951.4886	2225.7529	2248.65	1354.2
951.6225	2227.2317	2241.65	1347.25
951.7563	2228.7098	2232.1	1343.45
951.8902	2230.1872	2219.05	1329
952.024	2231.6638	2220.45	1332.8
952.1578	2233.1397	2214	1320.05
952.2916	2234.6149	2209.65	1320.25
952.4253	2236.0894	2199.45	1309.65
952.559	2237.5632	2221.6	1322.5
952.6927	2239.0362	2208.25	1316.5
952.8263	2240.5085	2205.65	1313.3
952.9599	2241.9801	2198.4	1304.2
953.0935	2243.4509	2190.65	1295.65
953.2271	2244.921	2190	1292.75
953.3606	2246.3904	2185.8	1287.95
953.4941	2247.8591	2175.15	1280
953.6276	2249.3271	2171.45	1278.9
953.7611	2250.7943	2166.7	1271.85
953.8945	2252.2608	2172.1	1275.7
954.0279	2253.7266	2155.8	1259.4
954.1612	2255.1917	2149.25	1254.75
954.2946	2256.656	2147.55	1254.35
954.4279	2258.1197	2134.65	1244.8
954.5612	2259.5826	2142.45	1250.1
954.6944	2261.0447	2130.85	1236.45
954.8276	2262.5062	2136.3	1239.7
954.9608	2263.9669	2130.4	1231.25
955.094	2265.4269	2132.15	1236
955.2271	2266.8862	2126.3	1232.4
955.3602	2268.3448	2122.85	1232.3
955.4933	2269.8026	2119.8	1229
955.6264	2271.2598	2120	1227.55
955.7594	2272.7162	2104.1	1211.9
955.8924	2274.1719	2119.8	1224.85
956.0253	2275.6268	2116.3	1221
956.1583	2277.0811	2105.45	1208.45
956.2912	2278.5346	2102.8	1211.7
956.4241	2279.9874	2101.2	1212.35
956.5569	2281.4395	2091.05	1201.45
956.6897	2282.8908	2097.45	1202.05
956.8225	2284.3414	2094.25	1199.75
956.9553	2285.7914	2097.85	1205.1
957.088	2287.2406	2096.7	1199.2
957.2207	2288.689	2087.75	1189.95
957.3534	2290.1368	2092.9	1195.55
957.486	2291.5838	2096.8	1192.9
957.6186	2293.0302	2084.05	1181.95
957.7512	2294.4758	2071.65	1173.75
957.8838	2295.9206	2073.55	1176.55
958.0163	2297.3648	2068.7	1175.65
958.1488	2298.8082	2071.75	1176
958.2813	2300.251	2063.75	1167.5
958.4137	2301.693	2066.3	1167.65
958.5461	2303.1343	2055.4	1158.6
958.6785	2304.5748	2051.4	1159.55
958.8108	2306.0147	2044.5	1151.8
958.9432	2307.4538	2038.95	1146.8
959.0754	2308.8922	2032.9	1145.2
959.2077	2310.3299	2039.95	1151.25
959.3399	2311.7669	2028.05	1137.45
959.4721	2313.2031	2031.25	1137.15
959.6043	2314.6387	2028.5	1134
959.7365	2316.0735	2033.05	1138.95
959.8686	2317.5076	2021	1125.2
960.0006	2318.941	2010.6	1115.65
960.1327	2320.3737	2015	1116.5
960.2647	2321.8056	2011.7	1112.6
960.3967	2323.2369	2015.2	1118.4
960.5287	2324.6674	2001.25	1105.85
960.6606	2326.0972	2011.45	1118
960.7925	2327.5263	1998.3	1104.85
960.9244	2328.9547	1999.4	1103
961.0562	2330.3823	1999.85	1102.4
961.1881	2331.8092	1997.95	1097.9
961.3198	2333.2355	1993.05	1095
961.4516	2334.661	1991	1093.35
961.5833	2336.0858	1989.35	1089.8
961.715	2337.5098	1975.05	1077.2
961.8467	2338.9332	1985.25	1089.7
961.9783	2340.3558	1977.15	1081.55
962.1099	2341.7778	1969.45	1076.05
962.2415	2343.199	1959.8	1066.2
962.373	2344.6195	1967.15	1074.3
962.5045	2346.0393	1956.8	1063.1
962.636	2347.4583	1960.95	1067.8
962.7675	2348.8767	1964.6	1069.6
962.8989	2350.2943	1961.45	1061.7
963.0303	2351.7113	1970.6	1067.55
963.1617	2353.1275	1959.8	1063
963.293	2354.543	1967	1060.05
963.4243	2355.9578	1961	1064.55
963.5556	2357.3718	1940.4	1047
963.6868	2358.7852	1940.65	1046.95
963.818	2360.1978	1933.05	1036.9
963.9492	2361.6098	1937.65	1043.25
964.0803	2363.021	1938.7	1038.6
964.2114	2364.4315	1929.75	1035.9
964.3425	2365.8413	1929.85	1033.65
964.4736	2367.2504	1924.45	1031.3
964.6046	2368.6587	1922.65	1029.55
964.7356	2370.0664	1912.9	1018.8
964.8666	2371.4733	1911.9	1017.75
964.9975	2372.8795	1912.15	1016.9
965.1284	2374.285	1913.1	1017.15
965.2593	2375.6899	1903.8	1009.8
965.3901	2377.0939	1890.75	997.55
965.5209	2378.4973	1889.1	994.5
965.6517	2379.9	1895.1	1001.1
965.7825	2381.3019	1888.9	994.55
965.9132	2382.7032	1889.6	998.75
966.0439	2384.1037	1880.4	991.1
966.1745	2385.5035	1874.25	983.8
966.3051	2386.9027	1882.25	990.85
966.4357	2388.3011	1871.5	978.35
966.5663	2389.6987	1872.2	979.6
966.6968	2391.0957	1857.35	965.2
966.8273	2392.492	1859.8	968.85
966.9578	2393.8876	1859	966
967.0882	2395.2824	1859.35	968
967.2186	2396.6765	1857.65	965.65
967.349	2398.07	1852.15	956.75
967.4793	2399.4627	1846.2	952.45
967.6097	2400.8547	1844.4	950.95
967.7399	2402.246	1841.75	942.8
967.8702	2403.6366	1828.8	936.25
968.0004	2405.0265	1830.5	937.7
968.1306	2406.4156	1832.6	935.2
968.2607	2407.8041	1838.55	943.25
968.3909	2409.1918	1829.6	931.7
968.521	2410.5789	1826.65	932.95
968.651	2411.9652	1818.45	920.8
968.781	2413.3508	1806.45	911.25
968.911	2414.7358	1818.15	923.3
969.041	2416.12	1802.7	910.15
969.1709	2417.5035	1808.35	914.25
969.3008	2418.8863	1808.8	912.25
969.4307	2420.2684	1799.45	904.7
969.5606	2421.6497	1807.85	910.1
969.6904	2423.0304	1797.8	904.15
969.8201	2424.4104	1778.7	884.75
969.9499	2425.7896	1800.4	902.2
970.0796	2427.1682	1790.3	897.5
970.2093	2428.546	1789.45	895.2
970.3389	2429.9232	1779.4	882.85
970.4685	2431.2996	1789.35	895.05
970.5981	2432.6753	1785.5	890.8
970.7277	2434.0503	1780.8	885.55
970.8572	2435.4246	1776.85	882.55
970.9867	2436.7982	1773.05	877.25
971.1161	2438.1711	1772.1	877.4
971.2456	2439.5433	1768.35	874.25
971.375	2440.9148	1764.65	866.15
971.5043	2442.2856	1764.9	870.9
971.6336	2443.6557	1762.3	867.8
971.7629	2445.025	1753	859.6
971.8922	2446.3937	1761.3	867.55
972.0214	2447.7617	1743.65	847.95
972.1506	2449.1289	1743.55	849.35
972.2798	2450.4955	1758.65	862.55
972.4089	2451.8613	1744.95	852.45
972.538	2453.2265	1748.8	853.2
972.6671	2454.5909	1734.95	841
972.7961	2455.9546	1735.3	840.85
972.9251	2457.3177	1730.75	837.65
973.0541	2458.68	1724.9	830.8
973.1831	2460.0416	1735.45	840.65
973.312	2461.4025	1734.9	841.25
973.4408	2462.7627	1731.85	827.85
973.5697	2464.1222	1728.8	839.15
973.6985	2465.4811	1717.4	827.45
973.8273	2466.8392	1714.25	822.75
973.956	2468.1966	1727.45	830.05
974.0847	2469.5533	1722.25	825.9
974.2134	2470.9093	1715.45	821.5
974.3421	2472.2645	1712.65	816.95
974.4707	2473.6191	1713.3	820.2
974.5993	2474.973	1710.2	817.35
974.7278	2476.3262	1702.55	808.75
974.8563	2477.6787	1702.3	809.35
974.9848	2479.0305	1705.2	811.15
975.1132	2480.3816	1711.25	818.25
975.2417	2481.7319	1704.9	812.65
975.37	2483.0816	1697.55	803.15
975.4984	2484.4306	1695.8	802.45
975.6267	2485.7789	1691.85	799.8
975.755	2487.1264	1689.4	795.85
975.8833	2488.4733	1677.45	785.1
976.0115	2489.8195	1683.9	785.4
976.1397	2491.165	1685.2	791
976.2678	2492.5097	1674.7	780.45
976.3959	2493.8538	1680.4	789.55
976.524	2495.1972	1668.1	777.35
976.6521	2496.5398	1675.8	780.2
976.7801	2497.8818	1670.25	773.7
976.9081	2499.2231	1663.5	767.45
977.036	2500.5637	1664.15	768.95
977.164	2501.9035	1661.3	766.3
977.2918	2503.2427	1664.85	769
977.4197	2504.5812	1656.6	764.95
977.5475	2505.919	1661.35	762.65
977.6753	2507.256	1659.45	764.65
977.8031	2508.5924	1653.8	759.55
977.9308	2509.9281	1654.8	756.35
978.0585	2511.2631	1648.3	755.7
978.1861	2512.5974	1645	751.75
978.3137	2513.9309	1645.5	751.4
978.4413	2515.2638	1663.9	744.3
978.5689	2516.596	1641.45	750.35
978.6964	2517.9275	1638.4	742.75
978.8239	2519.2583	1638.95	746.1
978.9513	2520.5884	1632.45	740.75
979.0788	2521.9178	1627.45	730.5
979.2062	2523.2465	1634.1	740.75
979.3335	2524.5745	1619.45	727.95
979.4608	2525.9018	1629.2	737.8
979.5881	2527.2284	1614.1	720.7
979.7154	2528.5543	1612.7	721.8
979.8426	2529.8796	1620.7	730.15
979.9698	2531.2041	1622.9	731.95
980.0969	2532.5279	1616.6	725.3
980.224	2533.851	1616.05	721.6
980.3511	2535.1735	1609.5	716.9
980.4781	2536.4952	1618.85	724.1
980.6052	2537.8163	1613.85	719.25
980.7321	2539.1366	1614.8	717.6
980.8591	2540.4562	1608.2	714.15
980.986	2541.7752	1607.7	715.1
981.1129	2543.0935	1612.8	718.15
981.2397	2544.411	1612.2	718.05
981.3665	2545.7279	1615.5	723
981.4933	2547.0441	1607.55	714.05
981.62	2548.3596	1600.5	702.15
981.7467	2549.6744	1604.85	709.75
981.8734	2550.9885	1597.5	703.55
982.0001	2552.3019	1593.25	698.35
982.1267	2553.6146	1599.15	704.85
982.2532	2554.9266	1591.45	698.6
982.3798	2556.2379	1591	695.35
982.5063	2557.5485	1591.15	698.65
982.6327	2558.8585	1597.35	696.75
982.7592	2560.1677	1598.4	700.25
982.8856	2561.4762	1587.25	693.4
983.0119	2562.7841	1592.65	695.75
983.1383	2564.0913	1582.7	691.8
983.2646	2565.3977	1583.7	690.1
983.3908	2566.7035	1588.85	696
983.517	2568.0086	1587.65	691.25
983.6432	2569.313	1578.05	682.5
983.7694	2570.6167	1581.9	683.65
983.8955	2571.9197	1581.6	689.2
984.0216	2573.222	1581.85	688.1
984.1476	2574.5236	1580.05	685.35
984.2737	2575.8246	1575.9	680.35
984.3996	2577.1248	1570.35	675.15
984.5256	2578.4244	1570.85	676.1
984.6515	2579.7232	1575.2	682.6
984.7774	2581.0214	1596.55	675.4
984.9032	2582.3189	1566	674.15
985.029	2583.6157	1573.6	676.05
985.1548	2584.9118	1566.5	672.75
985.2806	2586.2072	1572.05	678.2
985.4063	2587.5019	1566.5	674.95
985.5319	2588.7959	1573.05	678.45
985.6576	2590.0893	1569.6	675.25
985.7832	2591.3819	1568.7	675.05
985.9087	2592.6739	1567.15	675.8
986.0343	2593.9652	1568.65	674.6
986.1597	2595.2557	1572.45	680.85
986.2852	2596.5456	1574.25	679.25
986.4106	2597.8348	1573.55	682.4
986.536	2599.1234	1574.15	682.55
986.6614	2600.4112	1575.6	682.5
986.7867	2601.6983	1566.2	671.5
986.912	2602.9848	1566.3	672.75
987.0372	2604.2705	1574	672.6
987.1624	2605.5556	1563.3	669.6
987.2876	2606.84	1561.1	670.05
987.4128	2608.1237	1560.4	667.95
987.5379	2609.4067	1552	659.15
987.6629	2610.689	1560.35	660.1
987.788	2611.9707	1556.55	661.45
987.913	2613.2516	1553.45	657.4
988.0379	2614.5319	1546.25	656.05
988.1629	2615.8115	1541.35	649.5
988.2878	2617.0903	1541.15	645.3
988.4126	2618.3685	1536.3	643.45
988.5375	2619.6461	1535.5	643.85
988.6622	2620.9229	1529.5	637
988.787	2622.199	1537.9	647.25
988.9117	2623.4745	1520.6	629.55
989.0364	2624.7493	1528.35	636.35
989.161	2626.0234	1527.45	637.75
989.2857	2627.2968	1529.75	637.25
989.4102	2628.5695	1529.5	637.45
989.5348	2629.8415	1523.35	633
989.6593	2631.1128	1521.2	627.3
989.7837	2632.3835	1521.15	628.85
989.9082	2633.6535	1515.45	625.85
990.0326	2634.9228	1513.2	623.75
990.1569	2636.1914	1509.25	618.95
990.2812	2637.4593	1513.9	621.55
990.4055	2638.7265	1512.6	621.6
990.5298	2639.9931	1509.35	616.4
990.654	2641.259	1514.95	620.8
990.7782	2642.5242	1511.65	620.3
990.9023	2643.7887	1502.8	609.75
991.0264	2645.0525	1505.55	614.6
991.1505	2646.3156	1497.85	609
991.2745	2647.5781	1495.6	608.2
991.3985	2648.8398	1495.1	604.65
991.5225	2650.1009	1529.3	601.3
991.6464	2651.3613	1498.65	607.6
991.7703	2652.6211	1487.45	597.75
991.8942	2653.8801	1496.95	606.85
992.018	2655.1385	1491.75	598.55
992.1418	2656.3961	1484.7	594.8
992.2655	2657.6531	1491.35	600.95
992.3892	2658.9094	1489.15	598.95
992.5129	2660.1651	1491.1	601.5
992.6366	2661.42	1494.85	603.05
992.7602	2662.6743	1492.55	601.3
992.8837	2663.9279	1491.45	603.25
993.0073	2665.1808	1486.45	594.1
993.1307	2666.433	1496	603.9
993.2542	2667.6846	1500.1	609.65
993.3776	2668.9354	1494.45	600.35
993.501	2670.1856	1508.2	615.2
993.6244	2671.4351	1505.95	617.2
993.7477	2672.6839	1512.75	621.15
993.8709	2673.9321	1506.75	616.1
993.9942	2675.1795	1504	613.9
994.1174	2676.4263	1507.3	617.6
994.2405	2677.6724	1515.35	626.4
994.3637	2678.9179	1508.1	618.55
994.4868	2680.1626	1504.1	615.55
994.6098	2681.4067	1511.9	620.4
994.7328	2682.6501	1502.45	611.5
994.8558	2683.8928	1496.3	607.45
994.9788	2685.1348	1497.75	607.15
995.1017	2686.3761	1490.2	600.1
995.2245	2687.6168	1490.7	600.85
995.3474	2688.8568	1491.95	601.45
995.4702	2690.0961	1479.95	593.35
995.5929	2691.3348	1482.45	592.25
995.7156	2692.5727	1485.7	595
995.8383	2693.81	1478.85	589.4
995.961	2695.0466	1470.8	581.95
996.0836	2696.2826	1473.15	582.85
996.2062	2697.5178	1483.65	589.75
996.3287	2698.7524	1473.05	584.4
996.4512	2699.9863	1483.25	592.3
996.5737	2701.2195	1476.05	587.6
996.6961	2702.452	1486.3	595
996.8185	2703.6839	1486.05	593.6
996.9408	2704.9151	1495.75	607.05
997.0631	2706.1456	1500.05	609.3
997.1854	2707.3755	1502.45	609.25
997.3077	2708.6046	1511.15	619.5
997.4299	2709.8331	1507.35	617.8
997.552	2711.0609	1518.35	630
997.6742	2712.2881	1523.85	636.3
997.7963	2713.5145	1532.9	640.2
997.9183	2714.7403	1546.4	658.45
998.0403	2715.9654	1543.05	653.95
998.1623	2717.1899	1565.45	661.1
998.2842	2718.4136	1562.1	671.55
998.4062	2719.6367	1579.15	688.6
998.528	2720.8591	1592.15	697.55
998.6498	2722.0809	1595.35	706.95
998.7716	2723.3019	1605.85	714.45
998.8934	2724.5223	1615.35	724.95
999.0151	2725.7421	1621.7	730.35
999.1368	2726.9611	1628.45	736.75
999.2584	2728.1795	1619.85	726.3
999.38	2729.3972	1603.95	715.15
999.5016	2730.6142	1617.35	714.4
999.6231	2731.8306	1594.2	704.25
999.7446	2733.0462	1572.45	683.45
999.8661	2734.2612	1560.75	665.6
999.9875	2735.4756	1544.45	653.75
1000.1089	2736.6892	1523.1	633.35
1000.2302	2737.9022	1506.7	619.6
1000.3515	2739.1145	1500.45	612
1000.4728	2740.3262	1498.95	604.05
1000.594	2741.5372	1479.15	590.25
1000.7152	2742.7475	1466.8	576.1
1000.8363	2743.9571	1460	569.6
1000.9575	2745.1661	1450.85	557.95
1001.0785	2746.3744	1442.75	554.3
1001.1996	2747.582	1437.8	550.45
1001.3206	2748.7889	1430.4	540.55
1001.4415	2749.9952	1420.15	531.55
1001.5625	2751.2008	1419.95	530.4
1001.6833	2752.4057	1409.55	518.6
1001.8042	2753.61	1409.25	519.05
1001.925	2754.8136	1407.7	517.05
1002.0458	2756.0165	1407.5	518
1002.1665	2757.2188	1404.85	517.4
1002.2872	2758.4204	1401.3	511.1
1002.4078	2759.6213	1399.5	509.7
1002.5285	2760.8215	1403.65	512.35
1002.649	2762.0211	1406.5	517.15
1002.7696	2763.22	1402.8	514.85
1002.8901	2764.4182	1393.95	503.2
1003.0106	2765.6158	1397.6	511.1
1003.131	2766.8127	1394	506.55
1003.2514	2768.009	1386.6	496.5
1003.3717	2769.2045	1393.25	503.1
1003.492	2770.3994	1394.85	506.55
1003.6123	2771.5936	1378.45	492.05
1003.7325	2772.7872	1377.15	492.25
1003.8527	2773.9801	1377.9	489.05
1003.9729	2775.1723	1390.95	488.45
1004.093	2776.3639	1369.1	482
1004.2131	2777.5548	1370.15	481.5
1004.3331	2778.745	1376.25	485.95
1004.4531	2779.9346	1375.25	487.5
1004.5731	2781.1235	1381.6	493.6
1004.693	2782.3117	1374.85	491.05
1004.8129	2783.4992	1376.75	490.4
1004.9328	2784.6861	1382.65	495.25
1005.0526	2785.8723	1377.4	489.55
1005.1723	2787.0579	1384	495.5
1005.2921	2788.2428	1393.4	505.65
1005.4118	2789.427	1393.3	507.75
1005.5314	2790.6106	1400.8	512.9
1005.651	2791.7935	1407.7	519.35
1005.7706	2792.9757	1410.85	524.5
1005.8902	2794.1573	1423.1	533.05
1006.0097	2795.3382	1424.9	538.5
1006.1291	2796.5184	1425.05	539.9
1006.2485	2797.698	1441.45	555.25
1006.3679	2798.8769	1453.2	566.35
1006.4873	2800.0551	1463.4	577.7
1006.6066	2801.2327	1479.15	590.45
1006.7258	2802.4096	1492.65	606.2
1006.8451	2803.5859	1491.15	605
1006.9642	2804.7615	1511.95	626.5
1007.0834	2805.9364	1537.05	650.6
1007.2025	2807.1106	1544	657.4
1007.3216	2808.2842	1578.7	691.4
1007.4406	2809.4572	1601	715.3
1007.5596	2810.6294	1628.8	742
1007.6785	2811.801	1655.95	771.5
1007.7975	2812.972	1693.75	807.7
1007.9163	2814.1423	1729	843.65
1008.0352	2815.3119	1776.3	888.45
1008.154	2816.4808	1809.2	924
1008.2727	2817.6491	1859.55	970.95
1008.3914	2818.8167	1920.6	1034.8
1008.5101	2819.9837	1972.9	1081.8
1008.6288	2821.15	2014.8	1129.15
1008.7474	2822.3157	2072.7	1185.85
1008.8659	2823.4807	2124.85	1239
1008.9844	2824.645	2183.2	1296.05
1009.1029	2825.8086	2240.55	1355.6
1009.2214	2826.9716	2278.75	1391.5
1009.3398	2828.134	2346.75	1460.5
1009.4581	2829.2957	2384.8	1499.5
1009.5764	2830.4567	2416.45	1532.55
1009.6947	2831.617	2439.75	1555.4
1009.813	2832.7767	2453.35	1568.35
1009.9312	2833.9358	2450.75	1563.8
1010.0493	2835.0941	2456	1569.2
1010.1675	2836.2519	2430.55	1545.35
1010.2855	2837.4089	2417.2	1530.9
1010.4036	2838.5653	2393.7	1508
1010.5216	2839.7211	2385.05	1500.35
1010.6396	2840.8761	2393.5	1507.95
1010.7575	2842.0306	2398.7	1515.25
1010.8754	2843.1843	2420.1	1536.5
1010.9932	2844.3374	2444.45	1560.6
1011.111	2845.4899	2487.6	1599.95
1011.2288	2846.6417	2521.45	1637.75
1011.3465	2847.7928	2597.5	1711.2
1011.4642	2848.9433	2647.75	1761.05
1011.5818	2850.0931	2695.4	1810.35
1011.6995	2851.2422	2765.1	1876.1
1011.817	2852.3907	2818.45	1932.75
1011.9345	2853.5385	2868.35	1981.75
1012.052	2854.6857	2941.1	2030.9
1012.1695	2855.8323	2970.45	2086.3
1012.2869	2856.9781	3008.2	2122.7
1012.4042	2858.1233	3066.9	2181.75
1012.5216	2859.2679	3111.45	2229.1
1012.6389	2860.4118	3157.5	2274.55
1012.7561	2861.555	3203.85	2317.65
1012.8733	2862.6976	3241.25	2352.05
1012.9905	2863.8395	3276.35	2391.8
1013.1076	2864.9808	3308.85	2422.95
1013.2247	2866.1214	3317.5	2433
1013.3417	2867.2614	3351.55	2465.3
1013.4587	2868.4007	3359.55	2471.1
1013.5757	2869.5393	3383.1	2496.45
1013.6926	2870.6773	3386.15	2496.85
1013.8095	2871.8146	3397.5	2506.6
1013.9263	2872.9513	3400.35	2510.9
1014.0431	2874.0874	3390.65	2503.7
1014.1599	2875.2227	3380.75	2493.8
1014.2766	2876.3574	3352.6	2466.95
1014.3933	2877.4915	3337.3	2454.5
1014.51	2878.6249	3313.15	2428.5
1014.6266	2879.7577	3286.75	2400.9
1014.7431	2880.8898	3281.05	2386.5
1014.8596	2882.0212	3259.8	2377
1014.9761	2883.152	3238.2	2353.9
1015.0925	2884.2821	3230.05	2347.65
1015.2089	2885.4116	3227.75	2344.15
1015.3253	2886.5405	3234.2	2351.65
1015.4416	2887.6686	3243.05	2354.65
1015.5579	2888.7962	3241.3	2356.4
1015.6741	2889.923	3247.85	2364.6
1015.7903	2891.0493	3269.55	2385.8
1015.9065	2892.1748	3271.6	2386.3
1016.0226	2893.2997	3271.9	2385.6
1016.1387	2894.424	3286.05	2402
1016.2547	2895.5476	3314.1	2431.5
1016.3707	2896.6706	3323.15	2440.15
1016.4866	2897.7929	3350.9	2466.05
1016.6025	2898.9145	3376.55	2494.9
1016.7184	2900.0355	3394.05	2509.1
1016.8342	2901.1559	3419.6	2535.55
1016.95	2902.2756	3452.6	2563.3
1017.0658	2903.3946	3480.65	2598.2
1017.1815	2904.513	3505.75	2620.75
1017.2971	2905.6308	3520.45	2638.3
1017.4127	2906.7479	3561.4	2677.2
1017.5283	2907.8643	3569.1	2685.45
1017.6439	2908.9801	3587.05	2702.45
1017.7594	2910.0953	3608.75	2725.3
1017.8748	2911.2098	3614.05	2726.9
1017.9902	2912.3236	3586.55	2693.6
1018.1056	2913.4368	3570.3	2682.25
1018.2209	2914.5494	3570.1	2686.35
1018.3362	2915.6613	3537.35	2648.3
1018.4515	2916.7725	3501.7	2617.15
1018.5667	2917.8831	3478	2592.8
1018.6819	2918.9931	3443.4	2558.55
1018.797	2920.1024	3417.8	2531.3
1018.9121	2921.211	3388.05	2504.9
1019.0271	2922.319	3370.75	2484.6
1019.1421	2923.4264	3370.5	2485.85
1019.2571	2924.5331	3353.8	2472.05
1019.372	2925.6391	3364.1	2480.9
1019.4869	2926.7445	3360.55	2479.25
1019.6017	2927.8493	3359.1	2475.3
1019.7165	2928.9534	3362.7	2479.25
1019.8313	2930.0569	3362.45	2474.85
1019.946	2931.1597	3373.8	2488.75
1020.0606	2932.2619	3365.15	2481.75
1020.1753	2933.3634	3373.4	2491.7
1020.2899	2934.4643	3388.35	2496.55
1020.4044	2935.5645	3381.05	2492.95
1020.5189	2936.6641	3341.9	2453.7
1020.6334	2937.763	3310.2	2429.2
1020.7478	2938.8613	3284.85	2401.5
1020.8622	2939.959	3238.5	2348.6
1020.9765	2941.056	3185.95	2303.8
1021.0908	2942.1523	3125.3	2240.15
1021.2051	2943.248	3042.6	2158.2
1021.3193	2944.3431	2963.75	2081.4
1021.4334	2945.4375	2876.8	1994.3
1021.5476	2946.5313	2779.05	1895.7
1021.6617	2947.6244	2674.95	1792.2
1021.7757	2948.7169	2597.7	1713.65
1021.8897	2949.8087	2496.65	1615.4
1022.0037	2950.8999	2415.35	1532.6
1022.1176	2951.9904	2343.35	1459.25
1022.2315	2953.0803	2275.85	1392.1
1022.3453	2954.1696	2213.15	1327.7
1022.4591	2955.2582	2173.3	1290.6
1022.5728	2956.3462	2133.9	1248.75
1022.6865	2957.4335	2080	1197.65
1022.8002	2958.5202	2060.45	1174.15
1022.9138	2959.6062	2035.65	1154.75
1023.0274	2960.6916	2013.3	1132.7
1023.141	2961.7764	1985.85	1102.3
1023.2545	2962.8605	1969.25	1087.45
1023.3679	2963.9439	1959.55	1076.85
1023.4813	2965.0267	1955.55	1071.5
1023.5947	2966.1089	1968.3	1064.8
1023.708	2967.1905	1939.05	1056.35
1023.8213	2968.2714	1930.75	1048.7
1023.9346	2969.3516	1932.65	1050.2
1024.0478	2970.4312	1948.35	1059.05
1024.1609	2971.5102	1936.25	1054.35
1024.274	2972.5885	1937.55	1054.65
1024.3871	2973.6662	1947.8	1060.1
1024.5002	2974.7432	1942.4	1060.2
1024.6132	2975.8196	1941.4	1058.6
1024.7261	2976.8954	1934.2	1051.5
1024.839	2977.9705	1923.6	1039.55
1024.9519	2979.045	1919.3	1038.2
1025.0647	2980.1188	1911.9	1031.8
1025.1775	2981.192	1882	1001.95
1025.2902	2982.2645	1874	992.7
1025.4029	2983.3364	1859.25	978.25
1025.5156	2984.4077	1821.4	938.8
1025.6282	2985.4783	1813.3	925.35
1025.7407	2986.5483	1776.7	894.65
1025.8532	2987.6177	1746.25	865.2
1025.9657	2988.6864	1712.9	830.2
1026.0782	2989.7545	1678.15	793.6
1026.1906	2990.8219	1651.6	768.8
1026.3029	2991.8887	1628.3	744.45
1026.4152	2992.9548	1582.6	701.35
1026.5275	2994.0204	1561.3	680.95
1026.6397	2995.0852	1530.1	648.05
1026.7519	2996.1495	1503.5	620.7
1026.864	2997.2131	1484.75	602.75
1026.9761	2998.276	1456.65	573.95
1027.0882	2999.3383	1434.95	551.9
1027.2002	3000.4	1417.3	533.85
1027.3122	3001.4611	1398.25	515.7
1027.4241	3002.5215	1391	509.4
1027.536	3003.5812	1371.3	488.65
1027.6478	3004.6404	1355.45	475.25
1027.7596	3005.6989	1353.5	471.4
1027.8714	3006.7567	1335.5	454.25
1027.9831	3007.8139	1343.8	429.55
1028.0947	3008.8705	1315.4	432.35
1028.2064	3009.9264	1304.85	419.05
1028.3179	3010.9818	1293.15	409.9
1028.4295	3012.0364	1288.9	406.7
1028.541	3013.0905	1288.35	405.25
1028.6524	3014.1439	1282.2	400.1
1028.7638	3015.1966	1278.4	395.9
1028.8752	3016.2487	1268.55	386.4
1028.9865	3017.3002	1267.95	381.35
1029.0978	3018.3511	1266.35	386.05
1029.209	3019.4013	1265.1	383.25
1029.3202	3020.4509	1255.2	372.75
1029.4314	3021.4998	1259.75	379.05
1029.5425	3022.5481	1254.85	371.75
1029.6535	3023.5958	1253.25	370.05
1029.7645	3024.6428	1249.9	369.35
1029.8755	3025.6892	1248.8	368.6
1029.9864	3026.735	1246.7	362.1
1030.0973	3027.7802	1253	372.2
1030.2082	3028.8247	1249.7	367.85
1030.319	3029.8685	1247.75	365.65
1030.4297	3030.9118	1257.15	374.05
1030.5404	3031.9544	1251.6	370.8
1030.6511	3032.9963	1259.4	377.1
1030.7617	3034.0376	1258.1	377.2
1030.8723	3035.0783	1259.35	372.95
1030.9829	3036.1184	1254.1	372.4
1031.0934	3037.1578	1265.1	383.7
1031.2038	3038.1966	1265.3	382.5
1031.3142	3039.2348	1266.55	386.95
1031.4246	3040.2723	1272.8	383.15
1031.5349	3041.3092	1267.05	388.25
1031.6452	3042.3455	1263.95	383.2
1031.7554	3043.3811	1263.25	381.4
1031.8656	3044.4161	1261.85	378.15
1031.9758	3045.4505	1256.45	377.5
1032.0859	3046.4842	1256.95	374.75
1032.1959	3047.5173	1256.5	376.2
1032.3059	3048.5498	1250.8	368
1032.4159	3049.5816	1253.45	371.95
1032.5258	3050.6128	1246.25	363.3
1032.6357	3051.6434	1246.7	365.8
1032.7455	3052.6734	1243.9	361.95
1032.8553	3053.7027	1242.55	360.45
1032.9651	3054.7314	1232.4	351.65
1033.0748	3055.7594	1233.9	352.55
1033.1845	3056.7868	1229.1	347.3
1033.2941	3057.8136	1230.85	349
1033.4037	3058.8398	1223.8	343.45
1033.5132	3059.8653	1228.9	348.85
1033.6227	3060.8902	1223.85	343.75
1033.7321	3061.9145	1223.75	343.25
1033.8415	3062.9381	1220.9	340.8
1033.9509	3063.9612	1234.65	337.2
1034.0602	3064.9835	1217.8	337.35
1034.1694	3066.0053	1209.45	326.65
1034.2787	3067.0264	1207.6	326.7
1034.3878	3068.0469	1203.1	322.5
1034.497	3069.0668	1196.55	314.3
1034.6061	3070.086	1197.65	319.95
1034.7151	3071.1046	1188.7	307.3
1034.8241	3072.1226	1182.1	300.6
1034.9331	3073.1399	1177.95	300.45
1035.042	3074.1567	1168.75	288.15
1035.1508	3075.1727	1167.85	286.25
1035.2597	3076.1882	1152.75	272.65
1035.3684	3077.203	1152.7	272.15
1035.4772	3078.2173	1146.9	264.45
1035.5859	3079.2308	1143.1	259.2
1035.6945	3080.2438	1139.1	257.15
1035.8031	3081.2561	1125.2	244.2
1035.9117	3082.2678	1121.15	242.9
1036.0202	3083.2789	1116.05	235.25
1036.1286	3084.2893	1110	229.6
1036.2371	3085.2991	1104.85	227.3
1036.3454	3086.3083	1106.9	222.1
1036.4538	3087.3169	1094.5	212.8
1036.562	3088.3248	1091.55	209.45
1036.6703	3089.3321	1088.1	205.6
1036.7785	3090.3388	1087.1	207.35
1036.8866	3091.3449	1089	207.65
1036.9948	3092.3503	1083.25	198.65
1037.1028	3093.3551	1075.65	198.75
1037.2108	3094.3593	1071.6	192.85
1037.3188	3095.3629	1068.65	188.8
1037.4267	3096.3658	1069.05	186.9
1037.5346	3097.3681	1064.9	184.3
1037.6425	3098.3698	1062.95	181.2
1037.7503	3099.3708	1067.05	180.7
1037.858	3100.3713	1055.55	176.1
1037.9657	3101.3711	1054.15	173.85
1038.0734	3102.3702	1171.5	178.8
1038.181	3103.3688	1051.1	170.5
1038.2886	3104.3667	1047.25	167.95
1038.3961	3105.364	1041.6	161.65
1038.5036	3106.3607	1043.85	162.35
1038.611	3107.3568	1039.25	157.6
1038.7184	3108.3522	1035.1	156.8
1038.8257	3109.347	1041.7	161.9
1038.933	3110.3412	1042.3	159.7
1039.0403	3111.3348	1037.65	158.05
1039.1475	3112.3277	1032.25	151.2
1039.2547	3113.32	1028.55	149.6
1039.3618	3114.3117	1031.05	149.95
1039.4689	3115.3028	1025.05	144.95
1039.5759	3116.2932	1034.15	152.25
1039.6829	3117.2831	1028.65	142
1039.7898	3118.2723	1021.2	144.4
1039.8967	3119.2608	1019.2	137.75
1040.0035	3120.2488	1019.4	140.75
1040.1103	3121.2361	1017.35	135.7
1040.2171	3122.2229	1020.25	140.4
1040.3238	3123.209	1014.75	134.6
1040.4305	3124.1944	1015.85	135.9
1040.5371	3125.1793	1009.15	128.25
1040.6437	3126.1635	1009.75	129.25
1040.7502	3127.1471	1010.25	130.15
1040.8567	3128.1301	1005.55	128
1040.9631	3129.1125	1009.25	130.85
1041.0695	3130.0942	1008.1	127.4
1041.1759	3131.0753	1015.65	126.4
1041.2822	3132.0558	1005.15	122.5
1041.3884	3133.0357	1003.15	122.85
1041.4946	3134.015	1002	120.95
1041.6008	3134.9936	1001.5	120.15
1041.7069	3135.9716	1021.1	120.15
1041.813	3136.949	997.85	118.5
1041.919	3137.9258	1018.6	118.95
1042.025	3138.902	999.2	114.75
1042.1309	3139.8775	993.25	114.1
1042.2368	3140.8524	997.7	118.7
1042.3427	3141.8267	991.2	109.75
1042.4485	3142.8004	993.85	113.95
1042.5542	3143.7735	999.8	114.6
1042.6599	3144.7459	994.25	112.3
1042.7656	3145.7178	988.45	108.65
1042.8712	3146.689	991.6	111.45
1042.9768	3147.6596	991.65	109.1
1043.0823	3148.6295	990	109.8
1043.1878	3149.5989	984.9	105.65
1043.2932	3150.5676	984.2	106
1043.3986	3151.5357	979.55	98.4
1043.5039	3152.5032	982.9	103.85
1043.6092	3153.4701	984.15	103.25
1043.7145	3154.4364	988	105.25
1043.8197	3155.402	980.3	100.35
1043.9248	3156.367	980.25	99.85
1044.03	3157.3315	1017.15	101.7
1044.135	3158.2952	980.95	100.4
1044.24	3159.2584	977.95	97.3
1044.345	3160.221	980	101.75
1044.4499	3161.1829	976.05	95.25
1044.5548	3162.1442	975.65	95.5
1044.6596	3163.105	975.15	96.65
1044.7644	3164.065	973.7	94.15
1044.8692	3165.0245	975.65	92.6
1044.9739	3165.9834	974.2	94.85
1045.0785	3166.9416	972.1	91.35
1045.1831	3167.8993	975.95	96.85
1045.2877	3168.8563	972.95	88.8
1045.3922	3169.8127	968	90.6
1045.4966	3170.7684	970.4	90.85
1045.6011	3171.7236	971.85	91.35
1045.7054	3172.6782	970	90.95
1045.8098	3173.6321	971.3	91.6
1045.914	3174.5854	976.75	95.55
1046.0183	3175.5381	969.5	91.1
1046.1224	3176.4902	967.85	89.45
1046.2266	3177.4417	965.45	86.25
1046.3307	3178.3926	965.35	85.2
1046.4347	3179.3428	965.1	86.1
1046.5387	3180.2924	966.5	90.05
1046.6427	3181.2415	965.3	85.6
1046.7466	3182.1899	967.95	88.9
1046.8504	3183.1377	967.65	89.2
1046.9542	3184.0848	967	85.7
1047.058	3185.0314	961.25	81.6
1047.1617	3185.9773	961.5	79.5
1047.2654	3186.9227	962.65	81.75
1047.369	3187.8674	960.75	82.35
1047.4726	3188.8115	967.5	84.05
1047.5761	3189.755	959.45	81.3
1047.6796	3190.6979	961.2	84.05
1047.783	3191.6402	959.5	82.75
1047.8864	3192.5818	957.1	77.9
1047.9898	3193.5229	963.85	79.4
1048.0931	3194.4633	957.6	80.35
1048.1963	3195.4031	956.95	77.55
1048.2995	3196.3423	952.65	75.05
1048.4027	3197.2809	955.3	75.6
1048.5058	3198.2189	957	77.05
1048.6089	3199.1563	968.8	73.65
1048.7119	3200.0931	955.95	76.55
1048.8148	3201.0292	952.8	74.85
1048.9178	3201.9648	952.85	72.65
1049.0206	3202.8997	957.05	74.1
1049.1235	3203.834	951.4	72.5
1049.2262	3204.7677	952.25	72.25
1049.329	3205.7008	952.95	75.1
1049.4317	3206.6333	950.3	73.65
1049.5343	3207.5652	952.35	73.05
1049.6369	3208.4964	950.25	72.85
1049.7394	3209.4271	948.35	69.05
1049.8419	3210.3571	949.1	71.9
1049.9444	3211.2865	949.3	69.85
1050.0468	3212.2154	948.9	66.75
1050.1491	3213.1436	949.65	68.35
1050.2514	3214.0712	955.95	70.65
1050.3537	3214.9982	948.3	68.65
1050.4559	3215.9246	946.1	66.65
1050.5581	3216.8503	944.7	66.25
1050.6602	3217.7755	944.35	64.15
1050.7623	3218.7001	945.9	69.95
1050.8643	3219.624	947.05	68.35
1050.9663	3220.5473	943.3	63.7
1051.0682	3221.4701	948.4	68.1
1051.1701	3222.3922	945.8	66.65
1051.2719	3223.3137	942.95	65.05
1051.3737	3224.2346	945.15	64.85
1051.4754	3225.1549	940.45	61.3
1051.5771	3226.0746	941.25	61.45
1051.6788	3226.9937	943.45	66.7
1051.7804	3227.9121	937	58.8
1051.8819	3228.83	941.4	63.2
1051.9834	3229.7473	943.3	66.8
1052.0849	3230.6639	940.6	61.05
1052.1863	3231.5799	938.5	59.45
1052.2876	3232.4954	943.4	63
1052.3889	3233.4102	936.65	56.25
1052.4902	3234.3244	939.45	60
1052.5914	3235.238	938.55	60.6
1052.6926	3236.151	962.35	60.95
1052.7937	3237.0634	935.75	58.55
1052.8948	3237.9752	936.2	56.6
1052.9958	3238.8864	936	58.9
1053.0968	3239.797	936.6	57.9
1053.1977	3240.7069	936.9	58.75
1053.2986	3241.6163	933.05	51.55
1053.3994	3242.5251	932.6	54.8
1053.5002	3243.4332	934.2	57.05
1053.6009	3244.3408	933.2	55.35
1053.7016	3245.2477	932.55	56.15
1053.8022	3246.154	935.35	56.25
1053.9028	3247.0598	934.85	55.9
1054.0034	3247.9649	930.15	53.15
1054.1039	3248.8694	930.9	50.95
1054.2043	3249.7733	931.45	54.8
1054.3047	3250.6766	929	50.3
1054.4051	3251.5793	930.1	50.7
1054.5054	3252.4814	929	51.3
1054.6056	3253.3829	933.1	53.65
1054.7058	3254.2838	929.3	52.8
1054.806	3255.1841	927.25	49
1054.9061	3256.0838	927	51
1055.0061	3256.9829	928.35	50.15
1055.1062	3257.8814	929.3	48.95
1055.2061	3258.7792	929.75	48.25
1055.306	3259.6765	926.4	47.5
1055.4059	3260.5731	924.95	45.7
1055.5057	3261.4692	925.75	47.4
1055.6055	3262.3647	926.75	47
1055.7052	3263.2595	924.05	45.45
1055.8049	3264.1538	922.6	44.85
1055.9045	3265.0474	923.4	42.45
1056.0041	3265.9404	922.65	46.55
1056.1036	3266.8329	915.55	37.1
1056.2031	3267.7247	929.2	40.85
1056.3025	3268.616	915.4	40.15
1056.4019	3269.5066	920.05	40.55
1056.5013	3270.3966	917.8	39.15
1056.6005	3271.286	911.85	34.3
