Software Version:	3.9.2.0
Unit SN:	10000200
Spectrometer SN:	6960
Date:	3/8/2024 2:21:09 PM
Data Line Index:	25
Spectral Points:	2048
Integration time (ms):	125
Averages:	20
Delay (ms):	30000
Sequence Number:	1
Processing:	dark subtract
Laser Power (mW):	305
Laser Current (mA):	825
Laser Diode Temp (C):	25
Laser Case Temp (C):	26.1
System Temp (C):	26.1
Spectrometer Temp (C):	24.1
CCD Temp (C):	0.004
Secondary Temp (C):	20.007
Heatsink Temp (C):	20.957
CCDPCB Temp (C):	36.085
SecondaryPCB Temp (C):	29.615

Wavelength	RamanShift	Raw Counts	Dark Subtracted
787.061	30.1047	459.1	52.6
787.2016	32.3739	460.8	56.45
787.3422	34.6426	468.65	62.65
787.4828	36.9109	474.85	65.35
787.6235	39.1787	478.95	66.4
787.7642	41.4461	494.75	77.55
787.9049	43.7131	501.4	81.45
788.0456	45.9796	508.1	84.9
788.1863	48.2456	515.9	88.3
788.3271	50.5112	525.2	96.3
788.4679	52.7764	535.65	99.9
788.6087	55.0411	549.1	110.05
788.7496	57.3054	562.85	119.7
788.8904	59.5692	569.45	124.35
789.0313	61.8326	581.7	133.75
789.1722	64.0955	592.85	141.6
789.3132	66.3579	612.15	155.55
789.4541	68.6199	629.15	168.6
789.5951	70.8815	668.5	204.2
789.7361	73.1426	748.75	281.55
789.8771	75.4032	962.55	489.85
790.0181	77.6634	1469.35	993.1
790.1592	79.9231	2699.85	2215.8
790.3003	82.1824	5343.4	4840.4
790.4414	84.4412	10076.2	9547.75
790.5825	86.6995	16587.05	16019.35
790.7237	88.9574	22867.1	22266.7
790.8648	91.2148	27203.1	26583.35
791.006	93.4717	29288.45	28654.05
791.1472	95.7282	29782.15	29141.5
791.2885	97.9842	29734.15	29092.5
791.4297	100.2398	29215	28567.7
791.571	102.4949	28644.8	27992.3
791.7123	104.7495	27917.65	27267.05
791.8536	107.0036	27106.65	26452.5
791.9949	109.2573	26398.05	25747.95
792.1363	111.5105	25662.75	25007.95
792.2777	113.7632	24941.05	24283
792.4191	116.0154	24328.8	23655.7
792.5605	118.2672	23876.5	23212.35
792.7019	120.5185	23392.7	22725.25
792.8434	122.7693	23046.35	22379.25
792.9849	125.0197	22727.25	22054
793.1264	127.2696	22447.6	21772.9
793.2679	129.519	22301.6	21622.9
793.4094	131.7679	22081.65	21399.1
793.551	134.0163	21983.55	21299.2
793.6926	136.2642	21837.75	21151.85
793.8342	138.5117	21637.05	20937.45
793.9758	140.7587	21461.2	20768.3
794.1175	143.0052	21237.5	20540.8
794.2591	145.2512	21030.8	20334.85
794.4008	147.4967	20820.35	20123.8
794.5425	149.7417	20664.05	19965.15
794.6842	151.9863	20598.3	19895.1
794.826	154.2304	20512.35	19799.5
794.9677	156.4739	20391.9	19672.55
795.1095	158.717	20308.65	19595.55
795.2513	160.9596	20158.55	19437.55
795.3931	163.2017	19936.8	19214.8
795.535	165.4433	19680.1	18959
795.6768	167.6844	19335.6	18611.85
795.8187	169.925	19088.4	18367.15
795.9606	172.1651	18700.3	17975.45
796.1025	174.4047	18401.2	17670.45
796.2445	176.6439	18131.1	17399.25
796.3864	178.8825	17900.5	17160.6
796.5284	181.1206	17770.15	17029.85
796.6704	183.3582	17598.35	16850.3
796.8124	185.5954	17472.7	16724
796.9544	187.832	17399.15	16645.2
797.0965	190.0681	17390.4	16637.4
797.2386	192.3037	17412.5	16655.5
797.3806	194.5388	17402.2	16643.05
797.5228	196.7734	17462.35	16702.1
797.6649	199.0075	17519.75	16755.8
797.807	201.2411	17684.65	16915.75
797.9492	203.4742	17742.5	16978.9
798.0914	205.7068	17918.9	17145.5
798.2336	207.9389	18028.85	17256.95
798.3758	210.1704	18191.05	17430.4
798.518	212.4015	18293.7	17542.8
798.6603	214.632	18506.1	17757
798.8025	216.862	18712	17964.25
798.9448	219.0915	18901.7	18150.9
799.0871	221.3205	19145.15	18390.7
799.2294	223.549	19418.05	18671.3
799.3718	225.777	19743.55	18992.85
799.5141	228.0044	20106.1	19348.85
799.6565	230.2314	20602.1	19846.6
799.7989	232.4578	21054.15	20294.5
799.9413	234.6837	21448.4	20685.25
800.0837	236.909	21701.55	20927.75
800.2262	239.1339	21705	20902.95
800.3687	241.3582	21484.95	20702.2
800.5111	243.582	21164.1	20352.5
800.6536	245.8053	20764.1	19963.55
800.7961	248.0281	20464.85	19668.95
800.9387	250.2503	20192.5	19396.3
801.0812	252.472	20003.5	19205.25
801.2238	254.6932	19928.15	19133.75
801.3664	256.9139	19805.75	19004.6
801.509	259.134	19844.4	19040.25
801.6516	261.3536	19815.65	19013.7
801.7942	263.5727	19832.95	19026.55
801.9369	265.7912	19731.45	18923.05
802.0795	268.0092	19756.3	18951
802.2222	270.2267	19718.65	18915.45
802.3649	272.4436	19704.6	18904.45
802.5076	274.6601	19660.1	18846.05
802.6504	276.8759	19603.65	18800.65
802.7931	279.0913	19586.65	18775.9
802.9359	281.3061	19549.2	18737.3
803.0787	283.5204	19640.4	18824.55
803.2215	285.7341	19756.85	18938.7
803.3643	287.9473	19919.2	19090.95
803.5071	290.16	20145.45	19325
803.6499	292.3721	20491.85	19672.1
803.7928	294.5837	20956.9	20138.3
803.9357	296.7947	21301.75	20484.7
804.0786	299.0052	21542.75	20724.25
804.2215	301.2152	21422.1	20603.2
804.3644	303.4246	21067.8	20251.35
804.5074	305.6334	20531.8	19716.4
804.6503	307.8418	20048.25	19231
804.7933	310.0495	19630.75	18808.55
804.9363	312.2568	19303.75	18479.4
805.0793	314.4635	19105.75	18279.7
805.2223	316.6696	19035.3	18205.8
805.3653	318.8752	18980.8	18145.4
805.5084	321.0802	19016.35	18184.35
805.6514	323.2847	19136.85	18301.55
805.7945	325.4887	19198.45	18367.7
805.9376	327.692	19187.35	18356.2
806.0807	329.8949	19113.2	18281.45
806.2238	332.0972	18817.55	17982.05
806.367	334.2989	18571.15	17731.9
806.5101	336.5001	18284.3	17445.4
806.6533	338.7007	18109.05	17268.25
806.7965	340.9008	18009.1	17170
806.9397	343.1003	17899.6	17055.8
807.0829	345.2992	17828.5	16984.9
807.2261	347.4976	17805.6	16960.65
807.3693	349.6955	17827.65	16975.5
807.5126	351.8927	17895.7	17047.95
807.6559	354.0895	17877.1	17014.7
807.7991	356.2856	17955.25	17102.95
807.9424	358.4812	17990.8	17134.2
808.0857	360.6763	18014.5	17161.8
808.2291	362.8707	17974.35	17119.3
808.3724	365.0646	18053.55	17196.35
808.5158	367.258	18011.3	17155.4
808.6591	369.4508	18009.25	17144.6
808.8025	371.643	18160.9	17299.4
808.9459	373.8346	18141.7	17279.65
809.0893	376.0257	18129.35	17260.6
809.2327	378.2162	18046.55	17182
809.3762	380.4062	17931.75	17065.15
809.5196	382.5956	17830.4	16967.85
809.6631	384.7844	17762	16908.4
809.8066	386.9726	17647.2	16792.05
809.9501	389.1603	17552.45	16699.05
810.0936	391.3474	17568.55	16689
810.2371	393.5339	17576.6	16714.75
810.3806	395.7199	17509.7	16652.2
810.5241	397.9052	17544.65	16686.2
810.6677	400.09	17557.4	16700.05
810.8113	402.2743	17654.95	16798.8
810.9548	404.4579	17680.55	16825.9
811.0984	406.641	17862.55	17005.8
811.2421	408.8235	18067.9	17209.45
811.3857	411.0054	18420.55	17559.3
811.5293	413.1868	18902.7	18039.85
811.673	415.3675	19238.45	18368.3
811.8166	417.5477	19451.55	18584.4
811.9603	419.7273	19501.25	18627.85
812.104	421.9064	19420.6	18544.5
812.2477	424.0848	19281.55	18412.25
812.3914	426.2627	19070.75	18203.7
812.5351	428.4399	18801.25	17930.55
812.6788	430.6166	18414.9	17536.4
812.8226	432.7928	18059.55	17181.05
812.9663	434.9683	17759.1	16886.75
813.1101	437.1432	17528.75	16659.65
813.2539	439.3176	17399.8	16533.45
813.3977	441.4914	17256.5	16389.25
813.5415	443.6645	17262.85	16397.55
813.6853	445.8371	17184.4	16309.65
813.8291	448.0091	17100.35	16227.85
813.973	450.1806	17089.8	16219.85
814.1168	452.3514	17028.3	16160.85
814.2607	454.5216	17068.35	16186
814.4046	456.6913	16983.85	16111.55
814.5485	458.8603	16998.35	16127.35
814.6924	461.0288	17083.6	16218
814.8363	463.1967	17044.35	16181.35
814.9802	465.3639	17251.4	16382.55
815.1241	467.5306	17351.55	16479.3
815.2681	469.6967	17550.3	16686.25
815.412	471.8622	17667.9	16798.6
815.556	474.0271	17860.95	16989.55
815.7	476.1914	17930.7	17057.65
815.844	478.3551	17939.75	17061.9
815.988	480.5182	17927.7	17055.8
816.132	482.6807	17922.3	17057.85
816.276	484.8426	18021.9	17166.6
816.4201	487.0039	18320.95	17457.05
816.5641	489.1647	18710.7	17839.45
816.7082	491.3248	19155.5	18281.4
816.8522	493.4843	19326.5	18457
816.9963	495.6432	19344	18470.4
817.1404	497.8015	19295.3	18411.2
817.2845	499.9592	19321	18432.4
817.4286	502.1163	19263.45	18375.6
817.5727	504.2728	19052.25	18174.9
817.7168	506.4287	18764.9	17896.25
817.861	508.5839	18330.75	17463.5
818.0051	510.7386	18030.65	17153.5
818.1493	512.8927	17854.05	16971.4
818.2935	515.0461	17736.2	16851.25
818.4377	517.199	17696.15	16812.05
818.5818	519.3512	17672.55	16787.7
818.726	521.5029	17727.85	16838.2
818.8703	523.6539	17764.25	16878.6
819.0145	525.8043	17826.3	16937.6
819.1587	527.9541	17873.3	16983.4
819.303	530.1033	17859.75	16973.3
819.4472	532.2519	17908.45	17018.1
819.5915	534.3999	18065.45	17174.95
819.7357	536.5472	18362.75	17478.7
819.88	538.694	18842.65	17961.95
820.0243	540.8401	19440.2	18552.85
820.1686	542.9856	19990.75	19093.8
820.3129	545.1305	20176.45	19276.05
820.4572	547.2748	20079.25	19175.25
820.6016	549.4185	19685.45	18778.4
820.7459	551.5615	19351.15	18451.3
820.8902	553.704	19217.55	18319.7
821.0346	555.8458	19116.5	18218.75
821.1789	557.987	19123.7	18233.2
821.3233	560.1276	19083.1	18187.15
821.4677	562.2675	19111.35	18214.9
821.6121	564.4069	19079.25	18179.95
821.7565	566.5456	19086.6	18191.4
821.9009	568.6837	18969.45	18072.15
822.0453	570.8212	18744.45	17850.45
822.1897	572.958	18431.9	17535.3
822.3342	575.0942	18171.15	17279.3
822.4786	577.2299	18037.9	17151.3
822.6231	579.3648	17984.7	17106.05
822.7675	581.4992	18054.45	17184.85
822.912	583.6329	18259.05	17391.2
823.0565	585.766	18526.6	17654.35
823.201	587.8985	18661.65	17782.85
823.3454	590.0304	18668.55	17768.4
823.4899	592.1616	18626.55	17730.05
823.6345	594.2922	18521.65	17622.2
823.779	596.4222	18358.6	17456.6
823.9235	598.5515	18217.45	17314.15
824.068	600.6802	18071.1	17170.6
824.2126	602.8083	17854.55	16957.8
824.3571	604.9358	17857.7	16959.2
824.5017	607.0626	17790.6	16890.5
824.6462	609.1888	17747.6	16837.25
824.7908	611.3144	17734.9	16826.1
824.9354	613.4393	17595.05	16686.3
825.08	615.5636	17472.25	16562.15
825.2246	617.6873	17412.05	16503.5
825.3692	619.8103	17341	16434.85
825.5138	621.9327	17250.3	16348.55
825.6584	624.0544	17228.15	16328.8
825.803	626.1756	17239.8	16340.25
825.9477	628.2961	17177.75	16269.2
826.0923	630.4159	17116.75	16208.25
826.237	632.5351	17084.25	16174
826.3816	634.6537	17081.85	16173.35
826.5263	636.7716	17007.95	16093.25
826.6709	638.8889	17069.55	16154.1
826.8156	641.0056	17174.3	16259.2
826.9603	643.1216	17126.55	16217.15
827.105	645.237	17195.85	16284.8
827.2497	647.3518	17155.5	16252.4
827.3944	649.4659	17194	16296.85
827.5391	651.5793	17209.75	16310.35
827.6838	653.6922	17203.45	16303.7
827.8285	655.8043	17199.3	16294.35
827.9733	657.9159	17211.15	16305.6
828.118	660.0268	17127.2	16221.95
828.2627	662.137	17076	16166.35
828.4075	664.2466	17055.75	16139.6
828.5522	666.3556	17065	16153.75
828.697	668.4639	17032.6	16122.7
828.8418	670.5716	17106.5	16202.4
828.9865	672.6786	17216.3	16307.75
829.1313	674.785	17258.1	16345.9
829.2761	676.8907	17326.45	16415.65
829.4209	678.9958	17458.2	16555.9
829.5657	681.1002	17424.55	16515.85
829.7105	683.204	17401.35	16481.4
829.8553	685.3072	17344.85	16428.6
830.0001	687.4097	17290.3	16377.7
830.1449	689.5115	17291.6	16374.25
830.2898	691.6127	17203.4	16291.15
830.4346	693.7132	17127.9	16218.65
830.5794	695.8131	17125.2	16200.5
830.7243	697.9123	17146.25	16223.05
830.8691	700.0109	17078.2	16156.35
831.014	702.1089	17124.85	16207.7
831.1588	704.2061	17120.05	16206.25
831.3037	706.3028	17144.2	16225.95
831.4486	708.3987	17232.2	16312.95
831.5935	710.4941	17321	16403.6
831.7383	712.5887	17523.65	16607.3
831.8832	714.6827	17813.65	16896.15
832.0281	716.7761	18161.95	17252.15
832.173	718.8688	18562.9	17647.9
832.3179	720.9608	18780.95	17857.75
832.4628	723.0522	18832.25	17905.95
832.6077	725.1429	18640.9	17715.75
832.7527	727.233	18366.1	17444.05
832.8976	729.3224	18109.15	17186.95
833.0425	731.4112	17797.15	16879
833.1874	733.4993	17602.75	16681.3
833.3324	735.5867	17458.1	16540.2
833.4773	737.6735	17332.55	16409.7
833.6222	739.7596	17309.25	16391.4
833.7672	741.845	17300.6	16380
833.9122	743.9298	17322	16401.3
834.0571	746.014	17286.6	16369.35
834.2021	748.0974	17336.7	16411
834.347	750.1802	17315.5	16391.4
834.492	752.2624	17341.45	16417.25
834.637	754.3439	17328.35	16402.35
834.782	756.4247	17434	16498.3
834.9269	758.5048	17513.5	16586.6
835.0719	760.5843	17739.85	16808.75
835.2169	762.6631	18005.5	17077.75
835.3619	764.7413	18466.95	17544
835.5069	766.8188	19041	18116.1
835.6519	768.8956	19493.7	18566.95
835.7969	770.9718	19857	18932.15
835.9419	773.0473	19688.45	18763.45
836.0869	775.1221	19391.3	18469.1
836.232	777.1962	19026	18096.9
836.377	779.2697	18853.85	17929.35
836.522	781.3426	18916.6	17970.4
836.667	783.4147	19148.4	18220.7
836.8121	785.4862	19470.4	18543.45
836.9571	787.557	19544.95	18614.5
837.1021	789.6271	19210.25	18283.05
837.2472	791.6966	18673.45	17746.65
837.3922	793.7654	18171.4	17243.05
837.5373	795.8335	17876.45	16949.95
837.6823	797.901	17640.15	16711.75
837.8274	799.9678	17579.2	16645.95
837.9724	802.0339	17624.55	16694.95
838.1175	804.0993	17683.65	16743.9
838.2626	806.1641	17664.3	16733.7
838.4076	808.2282	17637.3	16708.9
838.5527	810.2916	17562.6	16630.55
838.6978	812.3544	17440.95	16513.15
838.8428	814.4164	17384.95	16457.75
838.9879	816.4778	17436	16503.45
839.133	818.5385	17388.85	16457.55
839.2781	820.5986	17480.9	16547.4
839.4232	822.658	17567.95	16631.15
839.5682	824.7166	17688.8	16757.05
839.7133	826.7747	17870.6	16935.1
839.8584	828.832	18057.8	17123.35
840.0035	830.8886	18201.45	17264.65
840.1486	832.9446	18354.15	17418.5
840.2937	834.9999	18387.2	17457.6
840.4388	837.0545	18448.6	17512.15
840.5839	839.1085	18499.2	17564.75
840.729	841.1618	18492.35	17556.95
840.8741	843.2143	18424.9	17490.85
841.0192	845.2662	18325.3	17392.05
841.1643	847.3175	18353	17422.65
841.3095	849.368	18205.55	17273.7
841.4546	851.4179	18102.9	17168.75
841.5997	853.467	17954.4	17023.3
841.7448	855.5155	17878.95	16944.2
841.8899	857.5633	17793.15	16857.2
842.0351	859.6105	17700.45	16762.5
842.1802	861.6569	17620.5	16686.3
842.3253	863.7027	17596.95	16661.65
842.4704	865.7478	17597.85	16662.4
842.6156	867.7922	17641.65	16708.05
842.7607	869.8359	17660.35	16722.5
842.9058	871.8789	17807.75	16866.75
843.0509	873.9212	17978.2	17009.7
843.1961	875.9629	18126.9	17191.4
843.3412	878.0039	18312.4	17374.25
843.4863	880.0441	18452.15	17514.85
843.6315	882.0837	18487.15	17551.95
843.7766	884.1226	18375.4	17435.25
843.9218	886.1609	18248.05	17312.2
844.0669	888.1984	18158.95	17224.7
844.212	890.2352	18183.75	17249.5
844.3572	892.2714	18142.45	17199.2
844.5023	894.3069	18138.25	17198.55
844.6475	896.3416	18084.7	17144.8
844.7926	898.3757	18015.3	17078.85
844.9377	900.4091	18049.6	17109.95
845.0829	902.4418	18113	17166.65
845.228	904.4739	18083.55	17142.85
845.3732	906.5052	18076.8	17139.8
845.5183	908.5358	18008.9	17067.45
845.6635	910.5658	17859.85	16916.1
845.8086	912.595	17717.75	16779.35
845.9538	914.6236	17555.85	16620.4
846.0989	916.6515	17552	16613.35
846.2441	918.6786	17513.75	16574.05
846.3892	920.7051	17624.4	16679.45
846.5344	922.7309	17761.95	16820.25
846.6795	924.756	17774.7	16836.5
846.8246	926.7804	17865.4	16924.05
846.9698	928.8041	17841.25	16904.6
847.1149	930.8272	17901.5	16961.15
847.2601	932.8495	17806.65	16863.95
847.4052	934.8711	17754.05	16812.75
847.5504	936.892	17596.25	16659.2
847.6955	938.9123	17480.55	16540.05
847.8407	940.9318	17363.4	16421.5
847.9858	942.9506	17218.9	16278.35
848.131	944.9688	17163.95	16224.7
848.2761	946.9862	17106.2	16167
848.4213	949.003	17020.35	16079.35
848.5664	951.019	17053.4	16113.9
848.7115	953.0344	17083.3	16141.25
848.8567	955.0491	17071.35	16127.8
849.0018	957.063	17199.9	16259.7
849.147	959.0763	17332.4	16393.3
849.2921	961.0888	17363.6	16422.1
849.4373	963.1007	17495.35	16557.95
849.5824	965.1119	17539.2	16608.1
849.7275	967.1223	17539.7	16614.95
849.8727	969.1321	17572.05	16646.75
850.0178	971.1412	17655	16722.8
850.1629	973.1495	17626.2	16688.7
850.3081	975.1572	17725	16746.15
850.4532	977.1641	17738.1	16799.05
850.5983	979.1704	17704.2	16762.35
850.7435	981.1759	17711.05	16766.2
850.8886	983.1808	17774.2	16834.2
851.0337	985.1849	17867.2	16918.95
851.1788	987.1884	18022.25	17080.65
851.324	989.1911	18195.7	17258.7
851.4691	991.1932	18370.8	17429.05
851.6142	993.1945	18400.15	17461.7
851.7593	995.1951	18341.15	17397.35
851.9045	997.1951	18306.4	17357.9
852.0496	999.1943	18268.9	17330
852.1947	1001.1928	18216.05	17273.45
852.3398	1003.1906	18189.7	17245.4
852.4849	1005.1877	18233.8	17293.95
852.63	1007.1841	18197.7	17260.7
852.7751	1009.1798	18121.55	17182.2
852.9202	1011.1748	17939.55	16995.3
853.0653	1013.1691	17749.25	16809.9
853.2104	1015.1627	17535.2	16598
853.3555	1017.1556	17276.2	16340
853.5006	1019.1477	17198.9	16259.6
853.6457	1021.1392	17102.6	16169.8
853.7908	1023.1299	17090.2	16161.3
853.9359	1025.12	17098.15	16173.45
854.081	1027.1093	17123.55	16211.35
854.2261	1029.0979	17239.85	16331.6
854.3712	1031.0859	17272.55	16354.5
854.5163	1033.0731	17285.15	16358.85
854.6613	1035.0596	17219.4	16288.15
854.8064	1037.0454	17089.25	16157.8
854.9515	1039.0304	16973.95	16037.25
855.0965	1041.0148	16835.45	15897.45
855.2416	1042.9985	16724.45	15787.65
855.3867	1044.9814	16715.5	15778.65
855.5317	1046.9636	16650.45	15714.55
855.6768	1048.9452	16631.5	15696.7
855.8219	1050.926	16641.95	15709.95
855.9669	1052.9061	16628.05	15691.3
856.112	1054.8855	16643.6	15705.45
856.257	1056.8642	16699.3	15762
856.4021	1058.8421	16720.15	15776.65
856.5471	1060.8194	16791.4	15851.85
856.6921	1062.7959	16770.6	15833.15
856.8372	1064.7717	16818.55	15878.55
856.9822	1066.7469	16825.1	15886.05
857.1272	1068.7213	16856.1	15913.55
857.2723	1070.695	16848.9	15910.75
857.4173	1072.6679	16736.85	15801.5
857.5623	1074.6402	16727.4	15789.6
857.7073	1076.6117	16694.9	15750.6
857.8523	1078.5826	16703.4	15759.2
857.9973	1080.5527	16716.9	15776.2
858.1423	1082.5221	16808.35	15868.65
858.2873	1084.4908	16979.3	16041.65
858.4323	1086.4587	17197.25	16257
858.5773	1088.426	17362.75	16426.8
858.7223	1090.3925	17354	16412.95
858.8673	1092.3584	17334.05	16398.2
859.0123	1094.3235	17121.85	16184.75
859.1573	1096.2879	17062.5	16124.6
859.3022	1098.2515	17032.15	16097.7
859.4472	1100.2145	17098.5	16159.3
859.5922	1102.1767	17214.65	16277.4
859.7371	1104.1382	17366.5	16430.7
859.8821	1106.099	17571.25	16633.4
860.027	1108.0591	17758.3	16821.5
860.172	1110.0185	17912.05	16973.95
860.3169	1111.9771	17922.25	16983.85
860.4619	1113.9351	17666.65	16728.05
860.6068	1115.8923	17409.4	16471.35
860.7517	1117.8488	17101.2	16164.25
860.8967	1119.8045	16821.4	15884.1
861.0416	1121.7596	16709.75	15775.35
861.1865	1123.7139	16635.6	15701.45
861.3314	1125.6675	16624.9	15690.1
861.4763	1127.6204	16724.05	15785.7
861.6212	1129.5726	16670.95	15730.65
861.7661	1131.524	16695.7	15756.9
861.911	1133.4748	16684.25	15745.55
862.0559	1135.4248	16662.1	15723.6
862.2008	1137.3741	16648.75	15714.15
862.3457	1139.3226	16651.95	15714.2
862.4905	1141.2705	16625.5	15689.95
862.6354	1143.2176	16523.2	15578.45
862.7803	1145.164	16564.35	15625.65
862.9251	1147.1097	16533.8	15597.15
863.07	1149.0546	16567.65	15632.45
863.2148	1150.9989	16477.45	15539.45
863.3597	1152.9424	16334.45	15396.45
863.5045	1154.8852	16149.9	15211.5
863.6493	1156.8272	16032.9	15092.95
863.7942	1158.7686	15999.45	15054.95
863.939	1160.7092	15925.6	14984.25
864.0838	1162.6491	15930.65	14993.45
864.2286	1164.5883	16003.55	15064.5
864.3734	1166.5267	16080.6	15140.9
864.5182	1168.4644	16222.15	15285.65
864.663	1170.4014	16380	15441.35
864.8078	1172.3377	16605.15	15670.4
864.9526	1174.2732	16843.8	15911.75
865.0974	1176.2081	17114	16178.85
865.2421	1178.1421	17322.9	16384.6
865.3869	1180.0755	17530.45	16595.8
865.5317	1182.0082	17585.35	16652.35
865.6764	1183.9401	17595	16664.65
865.8212	1185.8713	17442.25	16513.9
865.9659	1187.8017	17191.65	16268.95
866.1106	1189.7315	16913.1	15997.3
866.2554	1191.6605	16634.15	15717.3
866.4001	1193.5888	16425.8	15504.85
866.5448	1195.5163	16308.1	15381.85
866.6895	1197.4432	16230.25	15299.5
866.8342	1199.3693	16174.2	15240.25
866.9789	1201.2947	16087	15148.2
867.1236	1203.2193	16062.95	15130.4
867.2683	1205.1432	16106.1	15171.75
867.413	1207.0664	16113.5	15179.35
867.5576	1208.9889	16144.9	15210.8
867.7023	1210.9106	16206.95	15275.6
867.847	1212.8316	16248.7	15318.3
867.9916	1214.7519	16334.2	15391.4
868.1363	1216.6715	16306.4	15374.85
868.2809	1218.5903	16312.6	15380.85
868.4255	1220.5084	16280.55	15347.1
868.5701	1222.4257	16281.3	15346.7
868.7148	1224.3424	16164.3	15235.4
868.8594	1226.2583	16201.45	15268.45
869.004	1228.1735	16313.75	15382.6
869.1486	1230.0879	16415.75	15482.4
869.2932	1232.0016	16505.9	15574.6
869.4377	1233.9146	16559.05	15626.5
869.5823	1235.8269	16461.65	15530.55
869.7269	1237.7384	16338.05	15407.3
869.8715	1239.6492	16149.6	15220.25
870.016	1241.5592	16040.4	15110.6
870.1606	1243.4686	15948.45	15017.8
870.3051	1245.3772	15928.95	14998.7
870.4496	1247.285	15883.9	14954.9
870.5941	1249.1922	15847.25	14916.9
870.7387	1251.0986	15867.15	14935.35
870.8832	1253.0042	15799.7	14867.75
871.0277	1254.9092	15876.2	14945.85
871.1722	1256.8134	15934.75	15007.35
871.3167	1258.7169	16082.65	15151.95
871.4611	1260.6196	16234.5	15307
871.6056	1262.5216	16445.4	15515.65
871.7501	1264.4229	16579.65	15651.4
871.8945	1266.3234	16722.15	15794.85
872.039	1268.2232	16780.85	15851.95
872.1834	1270.1223	16774.4	15840.65
872.3278	1272.0207	16765.05	15832.2
872.4723	1273.9183	16705.95	15771.55
872.6167	1275.8151	16634.35	15705.55
872.7611	1277.7113	16555.3	15624.8
872.9055	1279.6067	16425.85	15498.5
873.0499	1281.5014	16305.95	15373.6
873.1943	1283.3953	16208.95	15278.45
873.3386	1285.2885	16209.75	15281.35
873.483	1287.181	16240	15309.8
873.6274	1289.0727	16291.2	15364.1
873.7717	1290.9637	16365.2	15436.45
873.9161	1292.854	16505.9	15575.85
874.0604	1294.7435	16652.15	15722
874.2047	1296.6323	16834.25	15905.9
874.349	1298.5204	17101.25	16168.2
874.4933	1300.4077	17313.9	16383.65
874.6376	1302.2943	17460.65	16530.55
874.7819	1304.1802	17561.35	16632.8
874.9262	1306.0653	17420.95	16493.15
875.0705	1307.9497	17204.85	16273.3
875.2147	1309.8333	17117.9	16186.55
875.359	1311.7162	17034.85	16108.4
875.5032	1313.5984	17012.6	16076.7
875.6475	1315.4798	17076.25	16138.7
875.7917	1317.3605	17191.25	16245.6
875.9359	1319.2405	17263.55	16331.45
876.0801	1321.1197	17201.05	16271.05
876.2243	1322.9982	17113.95	16181.65
876.3685	1324.876	17046.45	16115.2
876.5127	1326.753	16959.25	16032.2
876.6569	1328.6293	16941.85	16009.45
876.801	1330.5048	16954.45	16023.2
876.9452	1332.3796	16875.9	15943.95
877.0893	1334.2537	16819.6	15863.65
877.2335	1336.127	16770.05	15839.8
877.3776	1337.9996	16707.95	15775.95
877.5217	1339.8714	16682.5	15753.05
877.6658	1341.7426	16659.4	15685.7
877.8099	1343.6129	16616	15685.85
877.954	1345.4826	16546.4	15616.3
878.0981	1347.3515	16521.3	15586.9
878.2422	1349.2196	16470.65	15541.45
878.3862	1351.087	16458.95	15524.9
878.5303	1352.9537	16493.85	15564.1
878.6743	1354.8197	16593.45	15662.85
878.8184	1356.6849	16743.85	15813.25
878.9624	1358.5493	16820.5	15891.65
879.1064	1360.4131	16855.55	15926.4
879.2504	1362.276	16792.75	15865.15
879.3944	1364.1383	16650.55	15724.6
879.5384	1365.9998	16408.1	15471.15
879.6823	1367.8606	16048.7	15119.6
879.8263	1369.7206	15806.75	14877.75
879.9702	1371.5799	15568.2	14638.1
880.1142	1373.4384	15440.35	14509.1
880.2581	1375.2962	15263.9	14333.65
880.402	1377.1533	14986.3	14060.7
880.5459	1379.0096	14657.8	13731.15
880.6898	1380.8652	14404.4	13482.2
880.8337	1382.7201	14140.45	13215.7
880.9776	1384.5742	13917.95	12988.95
881.1215	1386.4275	13748.65	12814.7
881.2653	1388.2802	13610.65	12685.15
881.4092	1390.132	13486.65	12557.7
881.553	1391.9832	13424.1	12494
881.6968	1393.8336	13328.6	12400.65
881.8406	1395.6832	13283.35	12353.15
881.9844	1397.5322	13208.5	12282.55
882.1282	1399.3803	13188.5	12253.95
882.272	1401.2278	13155.25	12226.7
882.4158	1403.0745	13127.25	12200.15
882.5595	1404.9204	13072.3	12144.7
882.7033	1406.7656	13101.55	12173.8
882.847	1408.6101	13112.8	12184.45
882.9908	1410.4538	13094.75	12165
883.1345	1412.2968	13133.4	12206.65
883.2782	1414.139	13145.15	12217.8
883.4219	1415.9805	13208.05	12284.95
883.5656	1417.8213	13261.3	12329
883.7092	1419.6613	13355.65	12431.15
883.8529	1421.5006	13545.15	12617.55
883.9965	1423.3391	13794.15	12868.15
884.1402	1425.1769	14090.1	13162.8
884.2838	1427.0139	14574.65	13645.5
884.4274	1428.8502	15153.2	14227.3
884.571	1430.6858	15684.6	14759.5
884.7146	1432.5206	16093.45	15168.15
884.8582	1434.3547	16359.35	15431.85
885.0018	1436.188	16394.45	15466.55
885.1453	1438.0206	16313.45	15389.65
885.2889	1439.8524	16161.5	15235.5
885.4324	1441.6835	16063.1	15134.65
885.5759	1443.5139	15963.75	15035.8
885.7194	1445.3435	15882.45	14958.1
885.8629	1447.1724	15847.65	14923.55
886.0064	1449.0005	15696.4	14773.45
886.1499	1450.8279	15613.85	14687
886.2933	1452.6545	15557.1	14633.7
886.4368	1454.4804	15600.3	14676.9
886.5802	1456.3056	15573.75	14642.7
886.7237	1458.13	15493.4	14570.5
886.8671	1459.9536	15265.8	14342.5
887.0105	1461.7766	14919.4	13995.15
887.1539	1463.5987	14496.1	13566.95
887.2972	1465.4202	14116.2	13194.2
887.4406	1467.2409	13779.3	12852.25
887.584	1469.0608	13471.3	12545.45
887.7273	1470.88	13207.4	12281.85
887.8706	1472.6984	12960	12034.85
888.0139	1474.5161	12747.85	11820.45
888.1572	1476.3331	12584.5	11661.6
888.3005	1478.1493	12455.3	11531.9
888.4438	1479.9648	12372.55	11447
888.5871	1481.7795	12245.15	11316.05
888.7303	1483.5935	12143.95	11219.6
888.8736	1485.4067	12094.4	11170.6
889.0168	1487.2192	12017.6	11092.05
889.16	1489.031	11965.85	11039.45
889.3032	1490.842	11916.75	10991.4
889.4464	1492.6522	11907.95	10986.65
889.5896	1494.4618	11862.5	10938.55
889.7327	1496.2705	11810.95	10886.5
889.8759	1498.0785	11774.5	10849.15
890.019	1499.8858	11722.8	10798.5
890.1622	1501.6924	11688.9	10765.25
890.3053	1503.4981	11653.35	10728.25
890.4484	1505.3032	11618.1	10692.35
890.5914	1507.1075	11589.15	10666.7
890.7345	1508.911	11571	10650.15
890.8776	1510.7138	11515.4	10592.55
891.0206	1512.5159	11440	10518.25
891.1637	1514.3172	11378.6	10456.15
891.3067	1516.1178	11346.7	10427.2
891.4497	1517.9176	11312.85	10388.55
891.5927	1519.7166	11258.25	10336.85
891.7357	1521.515	11248.65	10321.05
891.8786	1523.3126	11175.6	10253
892.0216	1525.1094	11156.3	10236.6
892.1645	1526.9055	11107.05	10185.65
892.3074	1528.7008	11068.05	10148.1
892.4503	1530.4954	11037.1	10115.75
892.5932	1532.2893	10988.75	10070.65
892.7361	1534.0824	10925.85	10004.15
892.879	1535.8747	10933.6	10021
893.0218	1537.6663	10884.4	9965.7
893.1647	1539.4572	10863.85	9947.3
893.3075	1541.2473	10868.95	9951
893.4503	1543.0367	10859.4	9943.35
893.5931	1544.8253	10832.15	9908.05
893.7359	1546.6132	10807.35	9885.7
893.8787	1548.4003	10804.95	9877.2
894.0214	1550.1867	10808.5	9885.15
894.1642	1551.9723	10814.4	9897.4
894.3069	1553.7572	10841.05	9924.05
894.4496	1555.5414	10858.85	9946.1
894.5923	1557.3247	10892.5	9981.35
894.735	1559.1074	10947.9	10035.5
894.8777	1560.8893	10993.65	10084.7
895.0204	1562.6705	11066.85	10152.45
895.163	1564.4509	11134.6	10226.35
895.3056	1566.2305	11155.65	10247.65
895.4482	1568.0094	11253.85	10347.1
895.5908	1569.7876	11291.9	10379.75
895.7334	1571.565	11310.45	10399.8
895.876	1573.3417	11328.25	10414.85
896.0186	1575.1176	11296.75	10389.35
896.1611	1576.8928	11239.4	10333.3
896.3036	1578.6672	11136.75	10234.7
896.4461	1580.4409	11059.7	10159.45
896.5886	1582.2138	10928.6	10023.3
896.7311	1583.986	10788.6	9881.5
896.8736	1585.7575	10709.95	9801.05
897.0161	1587.5282	10646.95	9744.85
897.1585	1589.2981	10633.6	9733.1
897.3009	1591.0673	10540.45	9639.45
897.4433	1592.8358	10545.95	9642.75
897.5857	1594.6035	10558.25	9652.3
897.7281	1596.3704	10540.75	9633.55
897.8705	1598.1366	10561.65	9655.25
898.0128	1599.9021	10585.55	9682.15
898.1551	1601.6668	10621.75	9717.45
898.2975	1603.4308	10656.4	9749.05
898.4398	1605.194	10766.4	9855.9
898.5821	1606.9564	10862	9964.25
898.7243	1608.7182	10993.9	10098.1
898.8666	1610.4791	11109.15	10219.4
899.0088	1612.2394	11243.2	10355.25
899.1511	1613.9988	11395.65	10501.65
899.2933	1615.7576	11605.65	10706.05
899.4355	1617.5156	11822.25	10911.2
899.5776	1619.2728	12016.7	11110.8
899.7198	1621.0293	12183.9	11280
899.862	1622.785	12195.05	11288.05
900.0041	1624.54	12088.5	11188.65
900.1462	1626.2942	11950.25	11051.85
900.2883	1628.0477	11685.55	10781.8
900.4304	1629.8005	11470.15	10568.8
900.5725	1631.5525	11226.75	10327.55
900.7145	1633.3037	11027.3	10131.8
900.8566	1635.0542	10903.7	10004.6
900.9986	1636.804	10775.65	9877.9
901.1406	1638.553	10778.2	9790
901.2826	1640.3013	10654.45	9755.3
901.4245	1642.0488	10601.25	9704.6
901.5665	1643.7955	10648.65	9755.9
901.7085	1645.5416	10649.85	9753.75
901.8504	1647.2868	10719.55	9820.8
901.9923	1649.0313	10799.5	9898.75
902.1342	1650.7751	10932.7	10030.5
902.2761	1652.5181	11075.45	10178.4
902.4179	1654.2604	11259.85	10364.1
902.5598	1656.0019	11522.95	10627.9
902.7016	1657.7427	11836.1	10938.65
902.8434	1659.4828	12138	11239.25
902.9852	1661.222	12285.8	11386.35
903.127	1662.9606	12322.3	11421.75
903.2687	1664.6984	12135.15	11234.7
903.4105	1666.4354	11749.95	10846.45
903.5522	1668.1717	11289.4	10389.85
903.6939	1669.9072	10764.25	9860.8
903.8356	1671.642	10361.65	9457.35
903.9773	1673.3761	10029.45	9130.8
904.119	1675.1094	9747.05	8846.65
904.2606	1676.8419	9507.7	8608.2
904.4022	1678.5737	9345.4	8447.65
904.5439	1680.3048	9185.2	8287.05
904.6855	1682.0351	9064.35	8166.3
904.827	1683.7646	8959.3	8056.3
904.9686	1685.4934	8914.2	8017.5
905.1101	1687.2215	8826.55	7929.45
905.2517	1688.9488	8753.65	7857
905.3932	1690.6754	8695.25	7801.2
905.5347	1692.4012	8663.45	7766.5
905.6761	1694.1263	8616.95	7717.2
905.8176	1695.8506	8581.95	7684.15
905.9591	1697.5742	8529	7633.45
906.1005	1699.297	8498.6	7605.45
906.2419	1701.0191	8441.9	7549
906.3833	1702.7404	8391.9	7501.1
906.5246	1704.461	8338.85	7444.9
906.666	1706.1808	8325.85	7426.7
906.8073	1707.8999	8296.6	7403.2
906.9487	1709.6182	8252.9	7362.85
907.09	1711.3358	8209.2	7316.85
907.2313	1713.0527	8173.35	7284.95
907.3725	1714.7688	8142.2	7246.25
907.5138	1716.4841	8118.45	7223.4
907.655	1718.1987	8125.1	7226.9
907.7962	1719.9126	8059.25	7171.15
907.9374	1721.6257	8022.3	7131.95
908.0786	1723.338	8005.45	7115.5
908.2198	1725.0496	7955.6	7064.4
908.3609	1726.7605	7961.7	7067.6
908.502	1728.4706	7940.65	7049.2
908.6431	1730.18	7901.55	7009.8
908.7842	1731.8886	7858.75	6970.55
908.9253	1733.5964	7877	6967.65
909.0664	1735.3036	7821.45	6928.65
909.2074	1737.0099	7770.2	6881.4
909.3484	1738.7156	7756.1	6869.65
909.4894	1740.4204	7723.15	6832.35
909.6304	1742.1246	7738.05	6845.85
909.7714	1743.8279	7691.3	6801.55
909.9123	1745.5306	7689.7	6799.45
910.0532	1747.2325	7635.15	6746.95
910.1941	1748.9336	7617.05	6725.35
910.335	1750.634	7574.45	6681.5
910.4759	1752.3336	7566.1	6675.6
910.6168	1754.0325	7564.75	6679.05
910.7576	1755.7307	7542.2	6653.15
910.8984	1757.4281	7542.65	6653.15
911.0392	1759.1247	7534.15	6634.4
911.18	1760.8206	7493.65	6597.2
911.3208	1762.5158	7485	6588.85
911.4615	1764.2102	7463.75	6572.3
911.6022	1765.9039	7445.3	6557.25
911.7429	1767.5968	7416.8	6529.9
911.8836	1769.289	7363.95	6474.5
912.0243	1770.9804	7362.4	6469.95
912.1649	1772.6711	7365.5	6470.15
912.3056	1774.361	7331.8	6437.85
912.4462	1776.0502	7306.9	6414.75
912.5868	1777.7386	7288.6	6395
912.7274	1779.4263	7279.6	6390.55
912.8679	1781.1132	7265.7	6378.1
913.0084	1782.7994	7237.05	6349.55
913.149	1784.4849	7246.7	6363
913.2895	1786.1696	7223.4	6332.8
913.4299	1787.8535	7207.6	6322.15
913.5704	1789.5367	7174.95	6291.25
913.7108	1791.2192	7185.85	6302.6
913.8513	1792.9009	7148.25	6235.9
913.9917	1794.5818	7129.35	6236.55
914.132	1796.2621	7126.6	6238.55
914.2724	1797.9415	7103.9	6214.85
914.4128	1799.6202	7082.75	6192.2
914.5531	1801.2982	7060.05	6170.3
914.6934	1802.9755	7050.55	6160.9
914.8337	1804.6519	7016.3	6126.15
914.9739	1806.3277	7005.85	6120.75
915.1142	1808.0027	6961.55	6078.85
915.2544	1809.6769	6997.6	6113
915.3946	1811.3504	6944.35	6058.9
915.5348	1813.0231	6930.4	6045.4
915.675	1814.6951	6924.25	6040.45
915.8151	1816.3664	6940.5	6051.1
915.9553	1818.0369	6906.35	6016.3
916.0954	1819.7067	6873.15	5984.8
916.2355	1821.3757	6861.6	5971.8
916.3755	1823.044	6849.9	5960.6
916.5156	1824.7115	6837.7	5947.25
916.6556	1826.3783	6825.3	5938.5
916.7956	1828.0443	6793.1	5906.9
916.9356	1829.7096	6768.65	5880.75
917.0756	1831.3741	6768.9	5876.5
917.2155	1833.0379	6758.45	5873.4
917.3555	1834.701	6713.6	5827
917.4954	1836.3633	6710.6	5824.45
917.6353	1838.0248	6715.75	5827.6
917.7751	1839.6856	6683.3	5797.95
917.915	1841.3457	6698.35	5811.05
918.0548	1843.005	6669.4	5781.55
918.1946	1844.6636	6658.1	5771
918.3344	1846.3214	6634.8	5746.4
918.4742	1847.9785	6629.75	5742.45
918.6139	1849.6349	6611.7	5720.45
918.7537	1851.2904	6608.1	5710.3
918.8934	1852.9453	6577.75	5685.15
919.0331	1854.5994	6558.9	5668.85
919.1727	1856.2528	6572.15	5678.15
919.3124	1857.9054	6551.75	5666.1
919.452	1859.5572	6535.1	5648.3
919.5916	1861.2083	6528.35	5640.85
919.7312	1862.8587	6528.4	5641.05
919.8708	1864.5084	6495.2	5604.15
920.0103	1866.1572	6487.75	5597.95
920.1498	1867.8054	6460.2	5568.3
920.2893	1869.4528	6438.1	5543.05
920.4288	1871.0994	6425.15	5533.85
920.5683	1872.7453	6408.1	5518.7
920.7077	1874.3905	6416.6	5508.25
920.8471	1876.0349	6392.55	5503.5
920.9865	1877.6786	6385	5494.9
921.1259	1879.3215	6358.3	5469.8
921.2653	1880.9637	6351.25	5462.25
921.4046	1882.6051	6340.6	5457.3
921.5439	1884.2458	6327.3	5438.15
921.6832	1885.8858	6294.35	5406.05
921.8225	1887.525	6301.05	5412.5
921.9617	1889.1634	6265.8	5376.85
922.101	1890.8011	6252.5	5362.8
922.2402	1892.4381	6239.35	5348.7
922.3794	1894.0743	6223.9	5336.8
922.5185	1895.7098	6209.4	5322.8
922.6577	1897.3446	6175.2	5287.4
922.7968	1898.9786	6173.2	5281.2
922.9359	1900.6118	6151.5	5261.75
923.075	1902.2443	6135.95	5249.25
923.214	1903.8761	6130.95	5244.35
923.3531	1905.5071	6092.4	5202.95
923.4921	1907.1374	6078.45	5191.55
923.6311	1908.7669	6070.9	5183.7
923.77	1910.3957	6055.55	5169.8
923.909	1912.0237	6032.9	5144.05
924.0479	1913.651	6003.4	5115.95
924.1868	1915.2776	6008.4	5124.5
924.3257	1916.9034	6006.25	5121.2
924.4646	1918.5285	5958.65	5073.9
924.6034	1920.1528	5948.9	5061.35
924.7422	1921.7764	5922.15	5036.4
924.881	1923.3992	5906.45	5020.4
925.0198	1925.0213	5865.1	4978.65
925.1586	1926.6427	5840.4	4951.45
925.2973	1928.2633	5910.85	4922.8
925.436	1929.8832	5854.6	4967.15
925.5747	1931.5023	5819.55	4932.5
925.7134	1933.1207	5795.35	4911.85
925.852	1934.7383	5784.25	4898.1
925.9906	1936.3552	5763.45	4877.45
926.1292	1937.9714	5748.15	4860.55
926.2678	1939.5868	5716.95	4828.3
926.4064	1941.2015	5699.2	4809.95
926.5449	1942.8154	5671.4	4783.25
926.6834	1944.4286	5651.7	4764.1
926.8219	1946.041	5652.55	4744.7
926.9604	1947.6528	5615.45	4722.9
927.0988	1949.2637	5585.6	4698.35
927.2372	1950.8739	5576.85	4689.75
927.3756	1952.4834	5575.85	4689.65
927.514	1954.0921	5564.45	4679.05
927.6523	1955.7001	5552.55	4662.75
927.7907	1957.3074	5533.05	4650.1
927.929	1958.9139	5494.15	4611.3
928.0673	1960.5197	5487.2	4600.95
928.2055	1962.1247	5458.05	4576.05
928.3438	1963.729	5460.9	4578.95
928.482	1965.3325	5428.55	4540.35
928.6202	1966.9353	5412.25	4531.2
928.7584	1968.5374	5386.8	4503.95
928.8965	1970.1387	5364.05	4483.75
929.0346	1971.7393	5355.85	4471.2
929.1727	1973.3392	5347.2	4464.05
929.3108	1974.9383	5336.6	4457
929.4489	1976.5366	5304.45	4422.6
929.5869	1978.1342	5294.85	4414.05
929.7249	1979.7311	5290.2	4407
929.8629	1981.3273	5279.2	4398.1
930.0009	1982.9227	5250.6	4369.8
930.1388	1984.5173	5224.7	4345.3
930.2767	1986.1112	5227.25	4347.65
930.4146	1987.7044	5209.25	4330
930.5525	1989.2968	5188.85	4307.85
930.6904	1990.8885	5185.85	4305.3
930.8282	1992.4795	5164.25	4285.15
930.966	1994.0697	5145.8	4268.3
931.1038	1995.6592	5111.1	4232.5
931.2415	1997.2479	5123	4242.8
931.3793	1998.8359	5107.6	4227.4
931.517	2000.4232	5087.4	4213.15
931.6547	2002.0097	5077	4204
931.7923	2003.5955	5067.2	4191.4
931.93	2005.1805	5065.45	4188.9
932.0676	2006.7648	5032.5	4154.65
932.2052	2008.3484	5042.15	4163.9
932.3427	2009.9312	5023.65	4146.55
932.4803	2011.5133	4998.65	4123.9
932.6178	2013.0946	4990.6	4116
932.7553	2014.6752	4961.3	4086.7
932.8928	2016.2551	4969.75	4094.15
933.0302	2017.8342	4949.1	4072.15
933.1676	2019.4126	4932.65	4058.95
933.305	2020.9902	4908.45	4035.95
933.4424	2022.5672	4911.5	4036.25
933.5798	2024.1433	4898.65	4018.2
933.7171	2025.7188	4886.3	4014.15
933.8544	2027.2935	4855.25	3979.15
933.9917	2028.8674	4850.3	3977.65
934.129	2030.4406	4821.8	3947.8
934.2662	2032.0131	4815	3942.05
934.4034	2033.5849	4825.2	3944.1
934.5406	2035.1559	4815.95	3944
934.6778	2036.7261	4821.8	3946.15
934.8149	2038.2957	4778.35	3899.7
934.952	2039.8645	4775.2	3896.45
935.0891	2041.4325	4776.65	3894.8
935.2262	2042.9998	4755.35	3879.5
935.3632	2044.5664	4747.3	3871.05
935.5002	2046.1323	4730.45	3854.75
935.6372	2047.6974	4722.55	3848.6
935.7742	2049.2617	4725.2	3850.95
935.9111	2050.8254	4703	3822.15
936.048	2052.3883	4705.7	3828.65
936.1849	2053.9504	4691.1	3813.75
936.3218	2055.5118	4680.4	3798.8
936.4586	2057.0725	4662.35	3782.9
936.5955	2058.6325	4641.75	3765.2
936.7323	2060.1917	4617.6	3745
936.869	2061.7502	4617.5	3740.45
937.0058	2063.3079	4600.15	3728.65
937.1425	2064.8649	4582.35	3704.3
937.2792	2066.4212	4584.4	3707.3
937.4159	2067.9767	4566.95	3690.35
937.5525	2069.5315	4564.05	3685.95
937.6891	2071.0856	4542	3665.4
937.8257	2072.6389	4534.1	3656.1
937.9623	2074.1915	4493	3620.35
938.0989	2075.7433	4476.9	3601.7
938.2354	2077.2945	4466.2	3589.75
938.3719	2078.8448	4459.95	3579.9
938.5084	2080.3945	4461.55	3582.1
938.6448	2081.9434	4443.35	3564.5
938.7812	2083.4916	4448.8	3565
938.9176	2085.039	4442.3	3557.15
939.054	2086.5857	4428.75	3541.3
939.1903	2088.1317	4408.25	3524.65
939.3267	2089.677	4391.1	3505.8
939.463	2091.2215	4389.05	3503.85
939.5992	2092.7652	4376.05	3492.75
939.7355	2094.3083	4380.75	3495.65
939.8717	2095.8506	4349.95	3469.5
940.0079	2097.3921	4353.95	3473.3
940.1441	2098.933	4340	3459.65
940.2802	2100.4731	4337.9	3458
940.4163	2102.0124	4344.55	3444.9
940.5524	2103.5511	4335.15	3454.3
940.6885	2105.089	4302.1	3419.35
940.8245	2106.6261	4308.55	3428.15
940.9606	2108.1626	4286.4	3404.3
941.0965	2109.6983	4311.55	3403.7
941.2325	2111.2332	4287.1	3406.9
941.3684	2112.7675	4276	3393.3
941.5044	2114.301	4266	3381.85
941.6403	2115.8337	4249	3369.6
941.7761	2117.3657	4244.6	3362.75
941.912	2118.897	4238.75	3357.9
942.0478	2120.4276	4229.85	3342.95
942.1835	2121.9575	4206.05	3323.95
942.3193	2123.4866	4199.15	3303.8
942.455	2125.0149	4182.5	3297.55
942.5907	2126.5426	4152.1	3273.4
942.7264	2128.0695	4144.1	3261.85
942.8621	2129.5956	4154.05	3278.9
942.9977	2131.1211	4139.3	3255.75
943.1333	2132.6458	4119.2	3237.8
943.2689	2134.1698	4121.6	3240.15
943.4044	2135.693	4135.55	3250.3
943.54	2137.2155	4113.4	3229
943.6755	2138.7373	4105.5	3226.45
943.8109	2140.2584	4092.5	3213.85
943.9464	2141.7787	4090.7	3208.75
944.0818	2143.2983	4058.9	3183.5
944.2172	2144.8171	4034.35	3161.5
944.3526	2146.3353	4031.55	3151.75
944.4879	2147.8527	4017.35	3139
944.6232	2149.3693	4037.05	3157
944.7585	2150.8853	4007.2	3124.8
944.8938	2152.4005	4002.5	3120.5
945.029	2153.9149	3997.25	3113.75
945.1642	2155.4287	3981.3	3097.5
945.2994	2156.9417	3982.95	3103.7
945.4346	2158.454	3967.9	3085.35
945.5697	2159.9655	3963.35	3085.9
945.7048	2161.4764	3964.2	3085.45
945.8399	2162.9865	3934.45	3056.05
945.9749	2164.4958	3927.65	3049.45
946.1099	2166.0045	3928.2	3046.5
946.2449	2167.5124	3923.05	3043.2
946.3799	2169.0195	3908.55	3029.3
946.5148	2170.526	3909.35	3027.9
946.6498	2172.0317	3883.4	3001.3
946.7846	2173.5367	3881.15	2999.9
946.9195	2175.0409	3863.1	2984.85
947.0543	2176.5445	3875.95	2995.95
947.1891	2178.0473	3866.4	2980.15
947.3239	2179.5494	3851.9	2965.3
947.4587	2181.0507	3837.3	2956.55
947.5934	2182.5513	3821.25	2939.55
947.7281	2184.0512	3828	2945.55
947.8628	2185.5504	3818.6	2937.55
947.9974	2187.0488	3780.8	2901.3
948.132	2188.5465	3777.55	2898.8
948.2666	2190.0435	3774.4	2894.75
948.4012	2191.5397	3761.3	2880.2
948.5357	2193.0353	3756.9	2875.35
948.6702	2194.5301	3746.1	2858.85
948.8047	2196.0241	3749.85	2864.95
948.9392	2197.5175	3744.75	2858.85
949.0736	2199.0101	3732.45	2843.5
949.208	2200.502	3707.05	2824.8
949.3424	2201.9931	3701.8	2820.35
949.4767	2203.4835	3688.05	2808.25
949.611	2204.9733	3675.6	2791.25
949.7453	2206.4622	3662.15	2786.3
949.8796	2207.9505	3652.05	2771.5
950.0138	2209.438	3638.95	2764.9
950.148	2210.9248	3635	2757
950.2822	2212.4109	3621.35	2740.8
950.4164	2213.8962	3617.3	2732.3
950.5505	2215.3809	3615.15	2728.65
950.6846	2216.8648	3605.55	2719
950.8186	2218.3479	3598.95	2706.95
950.9527	2219.8304	3580.05	2691.75
951.0867	2221.3121	3584.85	2694.85
951.2207	2222.7931	3566.2	2679
951.3546	2224.2733	3552.9	2667.7
951.4886	2225.7529	3544.9	2661.3
951.6225	2227.2317	3525.65	2644.2
951.7563	2228.7098	3528.55	2650.8
951.8902	2230.1872	3505.85	2628.9
952.024	2231.6638	3505.75	2628.3
952.1578	2233.1397	3500.2	2615.1
952.2916	2234.6149	3484.1	2605.7
952.4253	2236.0894	3487.2	2607.2
952.559	2237.5632	3480.3	2597.65
952.6927	2239.0362	3464.3	2582.5
952.8263	2240.5085	3453.5	2571.5
952.9599	2241.9801	3438	2555.55
953.0935	2243.4509	3431.75	2549.45
953.2271	2244.921	3422.4	2538.65
953.3606	2246.3904	3410.7	2522.7
953.4941	2247.8591	3412.85	2530.3
953.6276	2249.3271	3400.5	2519.3
953.7611	2250.7943	3385.95	2501.2
953.8945	2252.2608	3372.6	2489.45
954.0279	2253.7266	3358.05	2475
954.1612	2255.1917	3370.25	2490.65
954.2946	2256.656	3346.75	2464.5
954.4279	2258.1197	3335.15	2458.05
954.5612	2259.5826	3352.3	2472.15
954.6944	2261.0447	3336.55	2452.4
954.8276	2262.5062	3323.7	2438.2
954.9608	2263.9669	3322.45	2436.3
955.094	2265.4269	3316.9	2433.8
955.2271	2266.8862	3303.5	2422.65
955.3602	2268.3448	3298.15	2416.7
955.4933	2269.8026	3287.4	2405.95
955.6264	2271.2598	3277.2	2395.4
955.7594	2272.7162	3279.35	2399.6
955.8924	2274.1719	3278.75	2394.2
956.0253	2275.6268	3275.5	2392.4
956.1583	2277.0811	3261.6	2377.75
956.2912	2278.5346	3252.95	2373.1
956.4241	2279.9874	3254.75	2374.65
956.5569	2281.4395	3245.15	2364.55
956.6897	2282.8908	3227.05	2339.7
956.8225	2284.3414	3236.6	2354.15
956.9553	2285.7914	3228.5	2349.55
957.088	2287.2406	3223.3	2337.95
957.2207	2288.689	3227.05	2342.1
957.3534	2290.1368	3200.35	2311.7
957.486	2291.5838	3202.3	2312.65
957.6186	2293.0302	3200.55	2310.8
957.7512	2294.4758	3180.7	2295.95
957.8838	2295.9206	3168.3	2283.45
958.0163	2297.3648	3146.55	2266.2
958.1488	2298.8082	3151.8	2268.45
958.2813	2300.251	3154.3	2271.15
958.4137	2301.693	3143.6	2256.2
958.5461	2303.1343	3149.35	2264.85
958.6785	2304.5748	3135.45	2252.4
958.8108	2306.0147	3128.85	2247.9
958.9432	2307.4538	3120.1	2238.55
959.0754	2308.8922	3094.55	2215.75
959.2077	2310.3299	3092.95	2213.25
959.3399	2311.7669	3097	2215
959.4721	2313.2031	3096.75	2216.7
959.6043	2314.6387	3080.85	2196.7
959.7365	2316.0735	3066.1	2186.15
959.8686	2317.5076	3057.45	2173.45
960.0006	2318.941	3051.55	2167.3
960.1327	2320.3737	3058.1	2173.5
960.2647	2321.8056	3049.6	2161.45
960.3967	2323.2369	3030	2144.9
960.5287	2324.6674	3019.85	2135.3
960.6606	2326.0972	3013.6	2128
960.7925	2327.5263	3026	2142.5
960.9244	2328.9547	3013.5	2130.95
961.0562	2330.3823	3007.3	2119.2
961.1881	2331.8092	3003.85	2114.95
961.3198	2333.2355	2990.4	2103.8
961.4516	2334.661	2985.65	2100.1
961.5833	2336.0858	2978.1	2091.65
961.715	2337.5098	2968.2	2083.35
961.8467	2338.9332	2952.8	2069.4
961.9783	2340.3558	2966.45	2079.55
962.1099	2341.7778	2955.4	2075.25
962.2415	2343.199	2951.65	2069.7
962.373	2344.6195	2940.95	2062.55
962.5045	2346.0393	2946.4	2066.95
962.636	2347.4583	2935.9	2053.25
962.7675	2348.8767	2928.85	2045.8
962.8989	2350.2943	2927.75	2042.95
963.0303	2351.7113	2927.3	2039.2
963.1617	2353.1275	2909.6	2021.2
963.293	2354.543	2926.1	2018.85
963.4243	2355.9578	2903.95	2017.1
963.5556	2357.3718	2891.3	2009.3
963.6868	2358.7852	2879.5	1997.25
963.818	2360.1978	2871.7	1990.1
963.9492	2361.6098	2867.25	1987.65
964.0803	2363.021	2864.05	1976.35
964.2114	2364.4315	2854	1972.2
964.3425	2365.8413	2855.85	1975.1
964.4736	2367.2504	2839.3	1958.25
964.6046	2368.6587	2822.2	1942.2
964.7356	2370.0664	2823.55	1944.2
964.8666	2371.4733	2816.35	1936.2
964.9975	2372.8795	2822.15	1942.5
965.1284	2374.285	2803.2	1923.25
965.2593	2375.6899	2794.85	1913.8
965.3901	2377.0939	2785.8	1907.1
965.5209	2378.4973	2778.7	1899.2
965.6517	2379.9	2763.7	1883.05
965.7825	2381.3019	2773.9	1895.7
965.9132	2382.7032	2762.75	1885.4
966.0439	2384.1037	2753.9	1877.25
966.1745	2385.5035	2740.85	1863.9
966.3051	2386.9027	2736	1859.85
966.4357	2388.3011	2732.65	1853.05
966.5663	2389.6987	2728.3	1850.95
966.6968	2391.0957	2709.6	1831.05
966.8273	2392.492	2708.3	1830.45
966.9578	2393.8876	2688.3	1810.95
967.0882	2395.2824	2700.1	1821.55
967.2186	2396.6765	2689.9	1814.1
967.349	2398.07	2686.65	1809.55
967.4793	2399.4627	2672.35	1790.4
967.6097	2400.8547	2671.45	1791.4
967.7399	2402.246	2666.8	1781.45
967.8702	2403.6366	2645.35	1768.65
968.0004	2405.0265	2643.1	1765.25
968.1306	2406.4156	2647.75	1767.45
968.2607	2407.8041	2639	1758.6
968.3909	2409.1918	2639.7	1757.95
968.521	2410.5789	2624.85	1747.1
968.651	2411.9652	2616.8	1735.6
968.781	2413.3508	2605.25	1724.25
968.911	2414.7358	2607.85	1728.85
969.041	2416.12	2596.7	1717.15
969.1709	2417.5035	2586.4	1705.85
969.3008	2418.8863	2582.7	1703.6
969.4307	2420.2684	2582.6	1703.65
969.5606	2421.6497	2576.7	1696.5
969.6904	2423.0304	2558.45	1681.2
969.8201	2424.4104	2570.7	1688.9
969.9499	2425.7896	2562.05	1681.25
970.0796	2427.1682	2538.95	1661.5
970.2093	2428.546	2541.7	1663.75
970.3389	2429.9232	2537.05	1655.8
970.4685	2431.2996	2542.4	1662.65
970.5981	2432.6753	2532.3	1651.4
970.7277	2434.0503	2526.5	1647.25
970.8572	2435.4246	2517	1638.15
970.9867	2436.7982	2508.7	1626.6
971.1161	2438.1711	2511.95	1632.9
971.2456	2439.5433	2510.1	1629.45
971.375	2440.9148	2504.3	1618.15
971.5043	2442.2856	2496.15	1616.2
971.6336	2443.6557	2487.05	1606.2
971.7629	2445.025	2472.6	1593.55
971.8922	2446.3937	2477.35	1594.55
972.0214	2447.7617	2460.95	1580.55
972.1506	2449.1289	2469.5	1590.25
972.2798	2450.4955	2479.45	1595.2
972.4089	2451.8613	2460.5	1581.5
972.538	2453.2265	2460.6	1582.65
972.6671	2454.5909	2449.3	1567.65
972.7961	2455.9546	2451	1571.75
972.9251	2457.3177	2436.7	1556.6
973.0541	2458.68	2426.55	1543.5
973.1831	2460.0416	2439.55	1560.2
973.312	2461.4025	2425.45	1544.35
973.4408	2462.7627	2435.15	1543.95
973.5697	2464.1222	2426.45	1551.05
973.6985	2465.4811	2417.75	1538.45
973.8273	2466.8392	2403.6	1524.85
973.956	2468.1966	2420.3	1538.35
974.0847	2469.5533	2417.1	1537.6
974.2134	2470.9093	2407.2	1525.95
974.3421	2472.2645	2395.6	1514.75
974.4707	2473.6191	2390.05	1510.3
974.5993	2474.973	2386.2	1507.35
974.7278	2476.3262	2396.35	1516.1
974.8563	2477.6787	2376.6	1499.9
974.9848	2479.0305	2376.65	1496.75
975.1132	2480.3816	2372.3	1491.8
975.2417	2481.7319	2368	1486.6
975.37	2483.0816	2353.45	1473.55
975.4984	2484.4306	2349.55	1468.9
975.6267	2485.7789	2333.45	1454.85
975.755	2487.1264	2339.1	1459.9
975.8833	2488.4733	2335.65	1456.65
976.0115	2489.8195	2325.15	1439.65
976.1397	2491.165	2322.55	1440.45
976.2678	2492.5097	2307.75	1426.9
976.3959	2493.8538	2308	1430.3
976.524	2495.1972	2300.45	1417.9
976.6521	2496.5398	2294.15	1411.65
976.7801	2497.8818	2294.65	1412.8
976.9081	2499.2231	2291.55	1410.2
977.036	2500.5637	2285	1402.95
977.164	2501.9035	2292.25	1410.25
977.2918	2503.2427	2273.1	1388.7
977.4197	2504.5812	2275.25	1394.8
977.5475	2505.919	2264.5	1381.9
977.6753	2507.256	2269.75	1386.8
977.8031	2508.5924	2261.65	1380.2
977.9308	2509.9281	2262	1376.5
978.0585	2511.2631	2254	1375.6
978.1861	2512.5974	2246.35	1365.4
978.3137	2513.9309	2234.9	1356.05
978.4413	2515.2638	2251.9	1344.2
978.5689	2516.596	2230.8	1349.8
978.6964	2517.9275	2229.6	1348.4
978.8239	2519.2583	2225.95	1343.85
978.9513	2520.5884	2215.3	1334
979.0788	2521.9178	2218.6	1338.85
979.2062	2523.2465	2201.05	1323.1
979.3335	2524.5745	2200.85	1320.2
979.4608	2525.9018	2194.05	1313.7
979.5881	2527.2284	2179.85	1300.35
979.7154	2528.5543	2189.8	1309.75
979.8426	2529.8796	2191.55	1311
979.9698	2531.2041	2191.85	1311.65
980.0969	2532.5279	2167.95	1289.15
980.224	2533.851	2189.3	1309.15
980.3511	2535.1735	2176.9	1298.05
980.4781	2536.4952	2177.85	1298.45
980.6052	2537.8163	2169.5	1288.45
980.7321	2539.1366	2167.8	1286.65
980.8591	2540.4562	2162.75	1281.15
980.986	2541.7752	2161.9	1281.65
981.1129	2543.0935	2162.5	1279.45
981.2397	2544.411	2161.05	1278.55
981.3665	2545.7279	2147.35	1265.05
981.4933	2547.0441	2159.75	1279.4
981.62	2548.3596	2147.9	1264.35
981.7467	2549.6744	2143.05	1263.35
981.8734	2550.9885	2139.15	1249.35
982.0001	2552.3019	2131.95	1252.3
982.1267	2553.6146	2127.6	1247.5
982.2532	2554.9266	2123.05	1242.7
982.3798	2556.2379	2124.85	1243.55
982.5063	2557.5485	2125.9	1246
982.6327	2558.8585	2115.8	1227.25
982.7592	2560.1677	2120.7	1237.85
982.8856	2561.4762	2104.8	1224.05
983.0119	2562.7841	2097.95	1214
983.1383	2564.0913	2094.9	1216.6
983.2646	2565.3977	2103.3	1222.05
983.3908	2566.7035	2091.2	1210.1
983.517	2568.0086	2087.95	1206.05
983.6432	2569.313	2087.25	1204.5
983.7694	2570.6167	2102.25	1217.45
983.8955	2571.9197	2084.45	1203.5
984.0216	2573.222	2083.15	1200.15
984.1476	2574.5236	2087.7	1207
984.2737	2575.8246	2075.2	1193.4
984.3996	2577.1248	2084.3	1199
984.5256	2578.4244	2078.25	1198.45
984.6515	2579.7232	2079.3	1195.55
984.7774	2581.0214	2097.75	1191.7
984.9032	2582.3189	2072.2	1194.35
985.029	2583.6157	2080.85	1194.2
985.1548	2584.9118	2070.15	1187.25
985.2806	2586.2072	2063.25	1183.7
985.4063	2587.5019	2056.65	1176.05
985.5319	2588.7959	2061.35	1179.15
985.6576	2590.0893	2061	1178.75
985.7832	2591.3819	2064.65	1184.8
985.9087	2592.6739	2049.8	1170.7
986.0343	2593.9652	2067.35	1183.05
986.1597	2595.2557	2056.15	1174.45
986.2852	2596.5456	2056.45	1173.15
986.4106	2597.8348	2057.9	1177.55
986.536	2599.1234	2046.35	1164.25
986.6614	2600.4112	2041.95	1159
986.7867	2601.6983	2044.3	1159.2
986.912	2602.9848	2045.75	1164
987.0372	2604.2705	2039.4	1152.65
987.1624	2605.5556	2041.45	1161.2
987.2876	2606.84	2021.75	1142.35
987.4128	2608.1237	2017.15	1136.8
987.5379	2609.4067	2023.8	1143.2
987.6629	2610.689	2033.75	1144.65
987.788	2611.9707	2014.5	1128.3
987.913	2613.2516	2018.1	1133.15
988.0379	2614.5319	2003.5	1122.9
988.1629	2615.8115	2008.65	1125.4
988.2878	2617.0903	1999.15	1117
988.4126	2618.3685	1991.75	1111.15
988.5375	2619.6461	1996.7	1117.3
988.6622	2620.9229	1984.8	1105.25
988.787	2622.199	1985.8	1105.05
988.9117	2623.4745	1985.15	1105.35
989.0364	2624.7493	1977.85	1096.7
989.161	2626.0234	1976.45	1096.4
989.2857	2627.2968	1972.6	1092.7
989.4102	2628.5695	1961.95	1080.4
989.5348	2629.8415	1963.75	1084
989.6593	2631.1128	1968.8	1087.25
989.7837	2632.3835	1959.75	1081.85
989.9082	2633.6535	1953.75	1071.45
990.0326	2634.9228	1961.5	1082.85
990.1569	2636.1914	1945.7	1064.55
990.2812	2637.4593	1960.75	1078.6
990.4055	2638.7265	1945.55	1063.85
990.5298	2639.9931	1942.55	1062.1
990.654	2641.259	1942	1059.25
990.7782	2642.5242	1938.5	1056.25
990.9023	2643.7887	1929.1	1048.05
991.0264	2645.0525	1923.15	1042.8
991.1505	2646.3156	1917.1	1034.7
991.2745	2647.5781	1919.4	1039.2
991.3985	2648.8398	1916.6	1037.1
991.5225	2650.1009	1923.8	1035.3
991.6464	2651.3613	1916.5	1035.25
991.7703	2652.6211	1915.45	1032.65
991.8942	2653.8801	1907.2	1028.25
992.018	2655.1385	1904	1020.45
992.1418	2656.3961	1907.85	1025.05
992.2655	2657.6531	1891.9	1010.15
992.3892	2658.9094	1889.8	1008.75
992.5129	2660.1651	1892.8	1014.75
992.6366	2661.42	1899.55	1019.25
992.7602	2662.6743	1891.05	1010
992.8837	2663.9279	1892.8	1013.2
993.0073	2665.1808	1891.85	1008.45
993.1307	2666.433	1894.45	1013.5
993.2542	2667.6846	1891.7	1010.65
993.3776	2668.9354	1902	1017.85
993.501	2670.1856	1891.15	1009.9
993.6244	2671.4351	1892.6	1011.85
993.7477	2672.6839	1897.9	1015.9
993.8709	2673.9321	1901.1	1021.55
993.9942	2675.1795	1893.35	1013.15
994.1174	2676.4263	1894.9	1015.85
994.2405	2677.6724	1894.8	1015.25
994.3637	2678.9179	1891.25	1007.6
994.4868	2680.1626	1889.7	1010.7
994.6098	2681.4067	1890.1	1009.15
994.7328	2682.6501	1886.85	1006.75
994.8558	2683.8928	1886.45	1005.65
994.9788	2685.1348	1881	1000.55
995.1017	2686.3761	1878.2	998.15
995.2245	2687.6168	1866.45	986.55
995.3474	2688.8568	1867.75	986.7
995.4702	2690.0961	1865.75	988.1
995.5929	2691.3348	1852.35	972.2
995.7156	2692.5727	1844.95	964.95
995.8383	2693.81	1846.8	968.15
995.961	2695.0466	1839.5	959.45
996.0836	2696.2826	1849.25	968.8
996.2062	2697.5178	1840.45	955.45
996.3287	2698.7524	1843.9	964.7
996.4512	2699.9863	1838.5	956.25
996.5737	2701.2195	1835.75	956.9
996.6961	2702.452	1839.3	958.9
996.8185	2703.6839	1840.75	959.9
996.9408	2704.9151	1853.35	975.3
997.0631	2706.1456	1852.2	970.65
997.1854	2707.3755	1850.55	969.4
997.3077	2708.6046	1864.25	983.15
997.4299	2709.8331	1866.15	982.1
997.552	2711.0609	1865.9	985.25
997.6742	2712.2881	1877.3	996.7
997.7963	2713.5145	1885.75	1006.35
997.9183	2714.7403	1887.05	1008
998.0403	2715.9654	1894.4	1012.55
998.1623	2717.1899	1910.5	1017.25
998.2842	2718.4136	1911.45	1034.6
998.4062	2719.6367	1914.55	1033.35
998.528	2720.8591	1937.55	1052.05
998.6498	2722.0809	1939.7	1060.15
998.7716	2723.3019	1948.9	1063.9
998.8934	2724.5223	1949.65	1069.95
999.0151	2725.7421	1969	1086.55
999.1368	2726.9611	1959.95	1078.6
999.2584	2728.1795	1965.9	1081.8
999.38	2729.3972	1951.65	1072.85
999.5016	2730.6142	1944.75	1053.4
999.6231	2731.8306	1923.15	1042.55
999.7446	2733.0462	1901.4	1025.15
999.8661	2734.2612	1886.35	1000.95
999.9875	2735.4756	1873.9	995.55
1000.1089	2736.6892	1843.1	963.1
1000.2302	2737.9022	1829.8	949.65
1000.3515	2739.1145	1813.1	932
1000.4728	2740.3262	1802.65	914.55
1000.594	2741.5372	1793.7	913.75
1000.7152	2742.7475	1782.1	902.7
1000.8363	2743.9571	1766	882.9
1000.9575	2745.1661	1769.35	887.9
1001.0785	2746.3744	1743.9	863.1
1001.1996	2747.582	1732.5	856
1001.3206	2748.7889	1726.65	845.6
1001.4415	2749.9952	1722.45	842.85
1001.5625	2751.2008	1715.7	832.05
1001.6833	2752.4057	1714.45	834.3
1001.8042	2753.61	1707.55	826.4
1001.925	2754.8136	1704.2	823.25
1002.0458	2756.0165	1697	819.6
1002.1665	2757.2188	1700.35	822.95
1002.2872	2758.4204	1686.35	809.45
1002.4078	2759.6213	1693.85	811
1002.5285	2760.8215	1688	804.85
1002.649	2762.0211	1692.05	814.05
1002.7696	2763.22	1693.05	809.45
1002.8901	2764.4182	1687.45	807.5
1003.0106	2765.6158	1674.8	795
1003.131	2766.8127	1670.5	789.5
1003.2514	2768.009	1661.7	783.9
1003.3717	2769.2045	1661.7	780.85
1003.492	2770.3994	1661	782.35
1003.6123	2771.5936	1659.2	782.2
1003.7325	2772.7872	1653.05	774.8
1003.8527	2773.9801	1652.4	771.95
1003.9729	2775.1723	1669.4	774
1004.093	2776.3639	1648.6	771.05
1004.2131	2777.5548	1646.65	766.05
1004.3331	2778.745	1646.65	766.9
1004.4531	2779.9346	1653.6	777.6
1004.5731	2781.1235	1640.55	762.1
1004.693	2782.3117	1648.05	770.55
1004.8129	2783.4992	1646.35	767.9
1004.9328	2784.6861	1646.25	768.75
1005.0526	2785.8723	1659.85	782.35
1005.1723	2787.0579	1660.5	782.7
1005.2921	2788.2428	1668.45	789.7
1005.4118	2789.427	1676.65	799.25
1005.5314	2790.6106	1681	804.6
1005.651	2791.7935	1688.75	808.3
1005.7706	2792.9757	1698.5	820.9
1005.8902	2794.1573	1709.7	828.1
1006.0097	2795.3382	1722.05	847.05
1006.1291	2796.5184	1728.25	852.3
1006.2485	2797.698	1749.15	871.3
1006.3679	2798.8769	1758	879.55
1006.4873	2800.0551	1786	908.65
1006.6066	2801.2327	1803.8	924.35
1006.7258	2802.4096	1814.05	936.4
1006.8451	2803.5859	1829.55	950.05
1006.9642	2804.7615	1851.75	971.65
1007.0834	2805.9364	1869.55	994
1007.2025	2807.1106	1901.25	1021.7
1007.3216	2808.2842	1929.85	1051.2
1007.4406	2809.4572	1943.65	1065.55
1007.5596	2810.6294	1996.6	1117.3
1007.6785	2811.801	2029.55	1151.75
1007.7975	2812.972	2073.25	1196.35
1007.9163	2814.1423	2101.3	1223.7
1008.0352	2815.3119	2141.4	1261.5
1008.154	2816.4808	2199.9	1321.25
1008.2727	2817.6491	2250.4	1374.55
1008.3914	2818.8167	2289.85	1412
1008.5101	2819.9837	2344.75	1463.5
1008.6288	2821.15	2383.25	1503.75
1008.7474	2822.3157	2436.95	1560.35
1008.8659	2823.4807	2480.15	1601.35
1008.9844	2824.645	2516.6	1636.6
1009.1029	2825.8086	2571.85	1695.45
1009.2214	2826.9716	2616.2	1739.4
1009.3398	2828.134	2662.3	1784.25
1009.4581	2829.2957	2686.5	1809.6
1009.5764	2830.4567	2719.5	1844
1009.6947	2831.617	2730.65	1851.25
1009.813	2832.7767	2748.95	1871.15
1009.9312	2833.9358	2761.65	1885.7
1010.0493	2835.0941	2745.55	1867.1
1010.1675	2836.2519	2733.1	1856.05
1010.2855	2837.4089	2724.95	1846.2
1010.4036	2838.5653	2724.75	1848.7
1010.5216	2839.7211	2726.55	1851.3
1010.6396	2840.8761	2728.6	1848.75
1010.7575	2842.0306	2749.85	1871.45
1010.8754	2843.1843	2778.1	1900.5
1010.9932	2844.3374	2827.1	1949.5
1011.111	2845.4899	2885.85	2008.2
1011.2288	2846.6417	2945.65	2068.45
1011.3465	2847.7928	3035.45	2158.3
1011.4642	2848.9433	3106.45	2230.6
1011.5818	2850.0931	3183.6	2307.6
1011.6995	2851.2422	3253.55	2376
1011.817	2852.3907	3338.5	2459.85
1011.9345	2853.5385	3391.3	2511.95
1012.052	2854.6857	3473.55	2568.95
1012.1695	2855.8323	3486.85	2610.15
1012.2869	2856.9781	3535.1	2659.4
1012.4042	2858.1233	3584.4	2705.25
1012.5216	2859.2679	3645	2769.65
1012.6389	2860.4118	3675.45	2798.35
1012.7561	2861.555	3724.3	2845.2
1012.8733	2862.6976	3757.45	2879.15
1012.9905	2863.8395	3781.8	2906.1
1013.1076	2864.9808	3808.2	2930.4
1013.2247	2866.1214	3829.9	2953.6
1013.3417	2867.2614	3842.85	2967.9
1013.4587	2868.4007	3835.4	2958.7
1013.5757	2869.5393	3856.4	2977.2
1013.6926	2870.6773	3869.8	2990.7
1013.8095	2871.8146	3900.75	3019.7
1013.9263	2872.9513	3893.05	3013.6
1014.0431	2874.0874	3888.5	3012.05
1014.1599	2875.2227	3871.2	2992.55
1014.2766	2876.3574	3858.8	2982.5
1014.3933	2877.4915	3834.85	2957.35
1014.51	2878.6249	3809.55	2932.2
1014.6266	2879.7577	3792.6	2915.45
1014.7431	2880.8898	3771.7	2885.6
1014.8596	2882.0212	3746.05	2870.9
1014.9761	2883.152	3734.1	2858.2
1015.0925	2884.2821	3726.9	2852.35
1015.2089	2885.4116	3699.85	2823.75
1015.3253	2886.5405	3693.65	2817.25
1015.4416	2887.6686	3723.75	2843.7
1015.5579	2888.7962	3711.55	2836.9
1015.6741	2889.923	3737.95	2862.7
1015.7903	2891.0493	3742.2	2868.35
1015.9065	2892.1748	3741.8	2866.65
1016.0226	2893.2997	3757.85	2880.25
1016.1387	2894.424	3784.85	2911.05
1016.2547	2895.5476	3800.1	2925.6
1016.3707	2896.6706	3821.75	2947.6
1016.4866	2897.7929	3849.15	2973.3
1016.6025	2898.9145	3876.1	2999
1016.7184	2900.0355	3904.05	3027.35
1016.8342	2901.1559	3918.6	3040.1
1016.95	2902.2756	3962.85	3088.7
1017.0658	2903.3946	3997.05	3121.7
1017.1815	2904.513	4020.45	3141.2
1017.2971	2905.6308	4054.4	3180.95
1017.4127	2906.7479	4070.5	3193.4
1017.5283	2907.8643	4097.3	3221.9
1017.6439	2908.9801	4114.25	3239.9
1017.7594	2910.0953	4117.25	3244
1017.8748	2911.2098	4117.2	3236.75
1017.9902	2912.3236	4127.5	3245.05
1018.1056	2913.4368	4104.05	3224.05
1018.2209	2914.5494	4087.5	3213.1
1018.3362	2915.6613	4062.45	3180.4
1018.4515	2916.7725	4029.55	3150.7
1018.5667	2917.8831	3994.55	3117.85
1018.6819	2918.9931	3969.15	3092.4
1018.797	2920.1024	3934.2	3056.15
1018.9121	2921.211	3911.55	3036.8
1019.0271	2922.319	3887.9	3012
1019.1421	2923.4264	3868.85	2996.2
1019.2571	2924.5331	3867.15	2990.8
1019.372	2925.6391	3830.05	2952.7
1019.4869	2926.7445	3836.7	2961.55
1019.6017	2927.8493	3828.8	2954.75
1019.7165	2928.9534	3834.3	2957.7
1019.8313	2930.0569	3802.05	2924.9
1019.946	2931.1597	3807.95	2929.1
1020.0606	2932.2619	3796.2	2921.1
1020.1753	2933.3634	3811.25	2938.2
1020.2899	2934.4643	3791.05	2907.2
1020.4044	2935.5645	3767.65	2885.5
1020.5189	2936.6641	3743.55	2862.7
1020.6334	2937.763	3681.6	2807.75
1020.7478	2938.8613	3642	2766.35
1020.8622	2939.959	3585.65	2703.8
1020.9765	2941.056	3522.3	2649.45
1021.0908	2942.1523	3439.9	2563
1021.2051	2943.248	3340.6	2464.35
1021.3193	2944.3431	3238.25	2364.55
1021.4334	2945.4375	3140.4	2265.1
1021.5476	2946.5313	3048.95	2174.75
1021.6617	2947.6244	2946.05	2070.65
1021.7757	2948.7169	2836.85	1961.25
1021.8897	2949.8087	2752.65	1874.05
1022.0037	2950.8999	2652.35	1775.9
1022.1176	2951.9904	2576.25	1701.5
1022.2315	2953.0803	2496.1	1621.6
1022.3453	2954.1696	2443	1566.9
1022.4591	2955.2582	2379	1502.95
1022.5728	2956.3462	2342.25	1467.2
1022.6865	2957.4335	2298.65	1424.25
1022.8002	2958.5202	2262.45	1384.85
1022.9138	2959.6062	2229.45	1353.35
1023.0274	2960.6916	2209.8	1334.05
1023.141	2961.7764	2183.25	1306.3
1023.2545	2962.8605	2174.45	1299.2
1023.3679	2963.9439	2156.4	1280.05
1023.4813	2965.0267	2139.1	1264.15
1023.5947	2966.1089	2158.9	1265.5
1023.708	2967.1905	2139.45	1267.2
1023.8213	2968.2714	2125.45	1248.95
1023.9346	2969.3516	2125.6	1250.85
1024.0478	2970.4312	2132.45	1248.95
1024.1609	2971.5102	2108.45	1233.2
1024.274	2972.5885	2119.35	1244.3
1024.3871	2973.6662	2132	1253.15
1024.5002	2974.7432	2115.75	1241.55
1024.6132	2975.8196	2095.15	1221.95
1024.7261	2976.8954	2092.5	1217.9
1024.839	2977.9705	2084.8	1212.4
1024.9519	2979.045	2074.8	1199.85
1025.0647	2980.1188	2053.85	1181.3
1025.1775	2981.192	2042.65	1169.7
1025.2902	2982.2645	2015.4	1140.6
1025.4029	2983.3364	1998.4	1121.05
1025.5156	2984.4077	1963.8	1087.75
1025.6282	2985.4783	1941	1060.05
1025.7407	2986.5483	1901.6	1028.25
1025.8532	2987.6177	1866.15	992.9
1025.9657	2988.6864	1833.85	958.3
1026.0782	2989.7545	1799.45	923.65
1026.1906	2990.8219	1765.75	890
1026.3029	2991.8887	1733.25	857.55
1026.4152	2992.9548	1706.5	830.7
1026.5275	2994.0204	1671.4	797.95
1026.6397	2995.0852	1638.8	766.2
1026.7519	2996.1495	1619.5	743.85
1026.864	2997.2131	1592.6	717.7
1026.9761	2998.276	1568.6	692.95
1027.0882	2999.3383	1543.65	668.45
1027.2002	3000.4	1528.3	653.95
1027.3122	3001.4611	1513.2	638.85
1027.4241	3002.5215	1494.85	621.4
1027.536	3003.5812	1476.75	602.45
1027.6478	3004.6404	1466.85	593.7
1027.7596	3005.6989	1458.75	581.55
1027.8714	3006.7567	1457.9	583.55
1027.9831	3007.8139	1474.7	569
1028.0947	3008.8705	1436.7	562.1
1028.2064	3009.9264	1438.2	561.5
1028.3179	3010.9818	1425.2	549.2
1028.4295	3012.0364	1420.55	544.85
1028.541	3013.0905	1414.25	539.3
1028.6524	3014.1439	1417.4	544.4
1028.7638	3015.1966	1409.25	535.45
1028.8752	3016.2487	1411.15	537.6
1028.9865	3017.3002	1408.15	528.35
1029.0978	3018.3511	1405.7	531.75
1029.209	3019.4013	1395.75	523.7
1029.3202	3020.4509	1401.3	526.8
1029.4314	3021.4998	1401.1	526.45
1029.5425	3022.5481	1405.4	530.95
1029.6535	3023.5958	1397.7	524
1029.7645	3024.6428	1406.75	532.4
1029.8755	3025.6892	1399.05	525.4
1029.9864	3026.735	1407.85	533.4
1030.0973	3027.7802	1405.05	531.5
1030.2082	3028.8247	1408.85	533.25
1030.319	3029.8685	1410.25	536.6
1030.4297	3030.9118	1414.7	541.1
1030.5404	3031.9544	1411.35	536.7
1030.6511	3032.9963	1420.8	547.6
1030.7617	3034.0376	1425.5	553.7
1030.8723	3035.0783	1427.05	550.5
1030.9829	3036.1184	1427.55	553.15
1031.0934	3037.1578	1429.8	556.5
1031.2038	3038.1966	1436.35	561.85
1031.3142	3039.2348	1436.2	561.95
1031.4246	3040.2723	1444.05	560.15
1031.5349	3041.3092	1430.05	556.85
1031.6452	3042.3455	1434	557.85
1031.7554	3043.3811	1431.4	555
1031.8656	3044.4161	1431.2	556.95
1031.9758	3045.4505	1418.9	545.45
1032.0859	3046.4842	1415.9	541.75
1032.1959	3047.5173	1412.3	538.75
1032.3059	3048.5498	1404.5	529.4
1032.4159	3049.5816	1394.7	521.05
1032.5258	3050.6128	1386.65	510.95
1032.6357	3051.6434	1383.4	509.4
1032.7455	3052.6734	1376.85	503.25
1032.8553	3053.7027	1365.7	493.35
1032.9651	3054.7314	1369.6	497.55
1033.0748	3055.7594	1352.75	479.15
1033.1845	3056.7868	1356.25	480.95
1033.2941	3057.8136	1345.9	469.1
1033.4037	3058.8398	1347.7	473.55
1033.5132	3059.8653	1331.55	457.9
1033.6227	3060.8902	1333.25	459.95
1033.7321	3061.9145	1325.15	451.6
1033.8415	3062.9381	1322.35	449.65
1033.9509	3063.9612	1335	445.85
1034.0602	3064.9835	1310.3	434.85
1034.1694	3066.0053	1302.1	426.35
1034.2787	3067.0264	1299	425.85
1034.3878	3068.0469	1290.8	415.6
1034.497	3069.0668	1283.5	407.25
1034.6061	3070.086	1275.05	405.2
1034.7151	3071.1046	1267.4	393.6
1034.8241	3072.1226	1254.55	380.4
1034.9331	3073.1399	1247.75	375.1
1035.042	3074.1567	1241.5	366.9
1035.1508	3075.1727	1230.3	353.9
1035.2597	3076.1882	1223.45	351.15
1035.3684	3077.203	1220.7	347.55
1035.4772	3078.2173	1205.25	331.75
1035.5859	3079.2308	1203.9	329.6
1035.6945	3080.2438	1189.75	314.75
1035.8031	3081.2561	1180.5	307.5
1035.9117	3082.2678	1174.1	302.35
1036.0202	3083.2789	1174.6	302.4
1036.1286	3084.2893	1161.35	288.6
1036.2371	3085.2991	1164.75	292.35
1036.3454	3086.3083	1162.55	286.7
1036.4538	3087.3169	1150.45	273.85
1036.562	3088.3248	1147	271.55
1036.6703	3089.3321	1142.35	267
1036.7785	3090.3388	1135	263.7
1036.8866	3091.3449	1128.55	258.65
1036.9948	3092.3503	1126.15	249.6
1037.1028	3093.3551	1116.15	243.5
1037.2108	3094.3593	1117.8	244.9
1037.3188	3095.3629	1111.4	238.5
1037.4267	3096.3658	1121.2	246.35
1037.5346	3097.3681	1108.6	236.1
1037.6425	3098.3698	1107.95	233.35
1037.7503	3099.3708	1106.05	227.55
1037.858	3100.3713	1102.2	228.5
1037.9657	3101.3711	1098.45	224.5
1038.0734	3102.3702	1213.8	220.6
1038.181	3103.3688	1095.6	222.1
1038.2886	3104.3667	1087.65	215.05
1038.3961	3105.364	1089.7	215.95
1038.5036	3106.3607	1085.7	209.35
1038.611	3107.3568	1082.05	207.45
1038.7184	3108.3522	1080.05	207.15
1038.8257	3109.347	1083.3	209.7
1038.933	3110.3412	1079.25	202.8
1039.0403	3111.3348	1078.5	206.35
1039.1475	3112.3277	1069.65	197.2
1039.2547	3113.32	1069.8	196.9
1039.3618	3114.3117	1071.55	196.9
1039.4689	3115.3028	1066.85	194.6
1039.5759	3116.2932	1069.25	196
1039.6829	3117.2831	1070.15	190.7
1039.7898	3118.2723	1060.3	187.35
1039.8967	3119.2608	1061.8	187.85
1040.0035	3120.2488	1062	189.8
1040.1103	3121.2361	1062	189.2
1040.2171	3122.2229	1056.8	186
1040.3238	3123.209	1056.3	182.5
1040.4305	3124.1944	1055.55	185.1
1040.5371	3125.1793	1054.8	179.7
1040.6437	3126.1635	1050.9	179.35
1040.7502	3127.1471	1050.85	178.25
1040.8567	3128.1301	1046.75	173.75
1040.9631	3129.1125	1046.95	174.4
1041.0695	3130.0942	1046.5	175.4
1041.1759	3131.0753	1055.85	175.75
1041.2822	3132.0558	1044.9	169.05
1041.3884	3133.0357	1044.35	172.15
1041.4946	3134.015	1039.55	165.4
1041.6008	3134.9936	1041.15	167.55
1041.7069	3135.9716	1060	168.95
1041.813	3136.949	1040.9	167.65
1041.919	3137.9258	1059.1	167.1
1042.025	3138.902	1040.55	162.15
1042.1309	3139.8775	1032.5	159.35
1042.2368	3140.8524	1031.8	159.85
1042.3427	3141.8267	1033.9	160.45
1042.4485	3142.8004	1030.4	159.2
1042.5542	3143.7735	1038.3	160.4
1042.6599	3144.7459	1029.4	154.1
1042.7656	3145.7178	1027.65	154.4
1042.8712	3146.689	1025.5	153.8
1042.9768	3147.6596	1024	148.2
1043.0823	3148.6295	1024.5	151.95
1043.1878	3149.5989	1022.8	148.05
1043.2932	3150.5676	1021.35	149.55
1043.3986	3151.5357	1019.25	146.8
1043.5039	3152.5032	1017.3	146.05
1043.6092	3153.4701	1015.95	145.7
1043.7145	3154.4364	1023.1	149.05
1043.8197	3155.402	1016.2	143.85
1043.9248	3156.367	1014.5	140.4
1044.03	3157.3315	1038.9	140.3
1044.135	3158.2952	1012.2	140.65
1044.24	3159.2584	1011.65	140.5
1044.345	3160.221	1013.55	139.4
1044.4499	3161.1829	1007.7	135.7
1044.5548	3162.1442	1009.25	136.75
1044.6596	3163.105	1008.45	136.7
1044.7644	3164.065	1008.7	137.5
1044.8692	3165.0245	1005	133
1044.9739	3165.9834	1005.1	133.1
1045.0785	3166.9416	1007	136.15
1045.1831	3167.8993	1002.4	130.1
1045.2877	3168.8563	1001.75	128.3
1045.3922	3169.8127	999.25	127.7
1045.4966	3170.7684	997.7	124.7
1045.6011	3171.7236	999.9	126.05
1045.7054	3172.6782	997.6	125.7
1045.8098	3173.6321	1000.2	126.8
1045.914	3174.5854	998	121.7
1046.0183	3175.5381	999.05	128.45
1046.1224	3176.4902	993.75	122.8
1046.2266	3177.4417	993.05	122.95
1046.3307	3178.3926	995	122.95
1046.4347	3179.3428	990.65	119.7
1046.5387	3180.2924	991	120.6
1046.6427	3181.2415	989.2	115.8
1046.7466	3182.1899	990	118.15
1046.8504	3183.1377	987.5	117.55
1046.9542	3184.0848	992.1	115.95
1047.058	3185.0314	989	116.75
1047.1617	3185.9773	988.7	117.85
1047.2654	3186.9227	986.95	114.6
1047.369	3187.8674	990.45	118.45
1047.4726	3188.8115	988.45	113.65
1047.5761	3189.755	981.65	109.65
1047.6796	3190.6979	987.55	116.05
1047.783	3191.6402	984.2	112.3
1047.8864	3192.5818	983.1	111.15
1047.9898	3193.5229	986.45	108.85
1048.0931	3194.4633	981.85	110.25
1048.1963	3195.4031	980.45	108.1
1048.2995	3196.3423	980.8	110
1048.4027	3197.2809	976.45	105.1
1048.5058	3198.2189	979.9	109.05
1048.6089	3199.1563	995.1	107.8
1048.7119	3200.0931	975	105.3
1048.8148	3201.0292	974.25	101.1
1048.9178	3201.9648	976.7	103.9
1049.0206	3202.8997	977.05	101.7
1049.1235	3203.834	974.65	103.45
1049.2262	3204.7677	973	103.65
1049.329	3205.7008	976.9	104.9
1049.4317	3206.6333	970.3	99.6
1049.5343	3207.5652	973.65	98.7
1049.6369	3208.4964	971.95	102.1
1049.7394	3209.4271	972.95	100.7
1049.8419	3210.3571	970.05	98.9
1049.9444	3211.2865	972.2	102.25
1050.0468	3212.2154	969.6	95.75
1050.1491	3213.1436	970.85	96.5
1050.2514	3214.0712	971.95	94.75
1050.3537	3214.9982	967.3	97.9
1050.4559	3215.9246	968.2	96.8
1050.5581	3216.8503	968.9	98.8
1050.6602	3217.7755	966.95	94.4
1050.7623	3218.7001	967.15	94.8
1050.8643	3219.624	962.3	89.55
1050.9663	3220.5473	966.85	94.95
1051.0682	3221.4701	968.75	94.15
1051.1701	3222.3922	963.6	91.65
1051.2719	3223.3137	966.65	95.75
1051.3737	3224.2346	962.05	89.75
1051.4754	3225.1549	961.35	89.55
1051.5771	3226.0746	957	85.5
1051.6788	3226.9937	963	91.6
1051.7804	3227.9121	960.2	88.4
1051.8819	3228.83	960.7	90.15
1051.9834	3229.7473	958.55	87.1
1052.0849	3230.6639	961.55	88.3
1052.1863	3231.5799	958.95	86.45
1052.2876	3232.4954	960.1	89.4
1052.3889	3233.4102	956.8	84.75
1052.4902	3234.3244	961.45	90
1052.5914	3235.238	956.75	88.3
1052.6926	3236.151	969.2	82.65
1052.7937	3237.0634	953	83
1052.8948	3237.9752	954	81.4
1052.9958	3238.8864	955.95	83.8
1053.0968	3239.797	953.7	80.1
1053.1977	3240.7069	954.5	81.95
1053.2986	3241.6163	956.05	83.6
1053.3994	3242.5251	953.1	82.1
1053.5002	3243.4332	950.7	82.2
1053.6009	3244.3408	950.55	80
1053.7016	3245.2477	952.85	82.4
1053.8022	3246.154	952.1	79.75
1053.9028	3247.0598	950.25	78.95
1054.0034	3247.9649	947.55	76.9
1054.1039	3248.8694	952.4	80.15
1054.2043	3249.7733	948.5	76.3
1054.3047	3250.6766	945.4	75.3
1054.4051	3251.5793	949.1	79.1
1054.5054	3252.4814	945.15	74.6
1054.6056	3253.3829	945.8	75.6
1054.7058	3254.2838	944.95	74.65
1054.806	3255.1841	941.8	69.95
1054.9061	3256.0838	940.6	70.65
1055.0061	3256.9829	939	69.8
1055.1062	3257.8814	947.75	74.25
1055.2061	3258.7792	946.55	74.9
1055.306	3259.6765	940.6	67.45
1055.4059	3260.5731	938.5	69.45
1055.5057	3261.4692	938.75	67.75
1055.6055	3262.3647	935.35	66.1
1055.7052	3263.2595	935.6	62.5
1055.8049	3264.1538	934.75	65.9
1055.9045	3265.0474	937.3	64.25
1056.0041	3265.9404	931.05	62.1
1056.1036	3266.8329	932	62.45
1056.2031	3267.7247	939.95	58.85
1056.3025	3268.616	927.95	56.65
1056.4019	3269.5066	931.2	61.7
1056.5013	3270.3966	929.25	57.35
1056.6005	3271.286	922.7	53.3
