Software Version:	3.9.2.0
Unit SN:	10000200
Spectrometer SN:	6960
Date:	3/8/2024 12:40:01 PM
Data Line Index:	25
Spectral Points:	2048
Integration time (ms):	125
Averages:	20
Delay (ms):	30000
Sequence Number:	1
Processing:	dark subtract
Laser Power (mW):	305
Laser Current (mA):	822
Laser Diode Temp (C):	25.1
Laser Case Temp (C):	26.1
System Temp (C):	26
Spectrometer Temp (C):	23.9
CCD Temp (C):	0.008
Secondary Temp (C):	20.007
Heatsink Temp (C):	21.102
CCDPCB Temp (C):	36.151
SecondaryPCB Temp (C):	29.304

Wavelength	RamanShift	Raw Counts	Dark Subtracted
787.061	30.1047	451.05	39.65
787.2016	32.3739	450.2	39.85
787.3422	34.6426	456.75	47.4
787.4828	36.9109	464.85	52.55
787.6235	39.1787	474	60.55
787.7642	41.4461	484.6	65.9
787.9049	43.7131	489.65	67.55
788.0456	45.9796	498.8	73.8
788.1863	48.2456	506.35	76.5
788.3271	50.5112	516.55	82.7
788.4679	52.7764	527.7	91.95
788.6087	55.0411	535.8	94.3
788.7496	57.3054	546.8	100.85
788.8904	59.5692	554.9	106.8
789.0313	61.8326	565.05	113.75
789.1722	64.0955	576.8	122.25
789.3132	66.3579	596.35	137.05
789.4541	68.6199	612.65	149.15
789.5951	70.8815	652.6	184.45
789.7361	73.1426	729.8	259.25
789.8771	75.4032	941.55	465.45
790.0181	77.6634	1458.85	976.45
790.1592	79.9231	2663.2	2172.4
790.3003	82.1824	5275.4	4762.9
790.4414	84.4412	9920.8	9373.95
790.5825	86.6995	16202.25	15608.4
790.7237	88.9574	22229.05	21595.45
790.8648	91.2148	26311.3	25648.4
791.006	93.4717	28092	27414.85
791.1472	95.7282	28326.5	27637.75
791.2885	97.9842	27984.15	27291.5
791.4297	100.2398	27206.85	26510.2
791.571	102.4949	26371.1	25673.35
791.7123	104.7495	25425.95	24723.05
791.8536	107.0036	24499.55	23799.9
791.9949	109.2573	23645.9	22948.75
792.1363	111.5105	22893.65	22190.8
792.2777	113.7632	22258.9	21552.55
792.4191	116.0154	21719.75	21002.9
792.5605	118.2672	21344.4	20636.8
792.7019	120.5185	20946.1	20234.7
792.8434	122.7693	20665.3	19946.9
792.9849	125.0197	20458.6	19739.15
793.1264	127.2696	20138.8	19418.25
793.2679	129.519	19973	19247.75
793.4094	131.7679	19720.65	18990
793.551	134.0163	19432.05	18700
793.6926	136.2642	19065	18330.6
793.8342	138.5117	18681.95	17937.6
793.9758	140.7587	18312.5	17571.85
794.1175	143.0052	17955.55	17213.5
794.2591	145.2512	17600.25	16861.3
794.4008	147.4967	17274.75	16530.75
794.5425	149.7417	17062.05	16316.85
794.6842	151.9863	16883.3	16131.9
794.826	154.2304	16739.05	15981.6
794.9677	156.4739	16546.65	15787.35
795.1095	158.717	16460.45	15699.3
795.2513	160.9596	16297.1	15533.85
795.3931	163.2017	16042.2	15277.7
795.535	165.4433	15785.45	15014.2
795.6768	167.6844	15482.95	14713.6
795.8187	169.925	15148.7	14381
795.9606	172.1651	14767.7	13996.4
796.1025	174.4047	14539.35	13761.65
796.2445	176.6439	14341.05	13565.85
796.3864	178.8825	14122.75	13343.9
796.5284	181.1206	13983.55	13196.6
796.6704	183.3582	13860.4	13064.05
796.8124	185.5954	13769.75	12977.25
796.9544	187.832	13727.6	12931.5
797.0965	190.0681	13684.1	12887.25
797.2386	192.3037	13697.85	12893.4
797.3806	194.5388	13680.5	12877.2
797.5228	196.7734	13734.7	12928.25
797.6649	199.0075	13769.15	12960.2
797.807	201.2411	13897.65	13089.25
797.9492	203.4742	13970.45	13159.6
798.0914	205.7068	14102.5	13283.25
798.2336	207.9389	14217.8	13398.75
798.3758	210.1704	14391.95	13581.8
798.518	212.4015	14479.9	13678.25
798.6603	214.632	14635.75	13841.3
798.8025	216.862	14767.1	13974.35
798.9448	219.0915	14846.95	14050.8
799.0871	221.3205	14956.3	14154.75
799.2294	223.549	15029.6	14230.9
799.3718	225.777	15106.5	14310.2
799.5141	228.0044	15182.2	14380.8
799.6565	230.2314	15280.6	14482.65
799.7989	232.4578	15363.6	14562.4
799.9413	234.6837	15412.95	14604.55
800.0837	236.909	15493.45	14682.8
800.2262	239.1339	15500.55	14658.75
800.3687	241.3582	15444	14614.9
800.5111	243.582	15377.05	14519.5
800.6536	245.8053	15320	14477.9
800.7961	248.0281	15283.05	14449.6
800.9387	250.2503	15294.05	14452.25
801.0812	252.472	15364.85	14517.75
801.2238	254.6932	15470.65	14635
801.3664	256.9139	15599.45	14758.85
801.509	259.134	15835.15	14985.05
801.6516	261.3536	16092.8	15247.95
801.7942	263.5727	16416.2	15568.45
801.9369	265.7912	16663.85	15817.35
802.0795	268.0092	17019.3	16174.05
802.2222	270.2267	17202.95	16353.7
802.3649	272.4436	17340.65	16491
802.5076	274.6601	17390.1	16532.4
802.6504	276.8759	17317.5	16465.3
802.7931	279.0913	17241.8	16392.2
802.9359	281.3061	17106.9	16256.8
803.0787	283.5204	17058.95	16202.65
803.2215	285.7341	17027.15	16163.85
803.3643	287.9473	17025.3	16157.05
803.5071	290.16	17070.65	16201.85
803.6499	292.3721	17122.5	16262.15
803.7928	294.5837	17302.3	16438.35
803.9357	296.7947	17482.25	16620.55
804.0786	299.0052	17637	16775.6
804.2215	301.2152	17645.45	16781.5
804.3644	303.4246	17508.7	16652.3
804.5074	305.6334	17211.25	16357.45
804.6503	307.8418	16828.55	15968.1
804.7933	310.0495	16428.1	15565.35
804.9363	312.2568	16038.9	15169.75
805.0793	314.4635	15594.85	14726.9
805.2223	316.6696	15278.65	14408.9
805.3653	318.8752	15035.45	14152.65
805.5084	321.0802	14935.5	14065.15
805.6514	323.2847	14950.35	14073.65
805.7945	325.4887	14991.65	14116.85
805.9376	327.692	14974.75	14099
806.0807	329.8949	14949.7	14073.15
806.2238	332.0972	14795.25	13915.25
806.367	334.2989	14608.2	13725.55
806.5101	336.5001	14372.55	13489.45
806.6533	338.7007	14178	13292.25
806.7965	340.9008	14010.95	13123.4
806.9397	343.1003	13840.4	12958.5
807.0829	345.2992	13720.8	12834.7
807.2261	347.4976	13584.05	12694.8
807.3693	349.6955	13532.5	12643.3
807.5126	351.8927	13484.25	12591.55
807.6559	354.0895	13429.25	12526.35
807.7991	356.2856	13416.6	12524.2
807.9424	358.4812	13334.45	12440.35
808.0857	360.6763	13328	12432.7
808.2291	362.8707	13313.45	12416.2
808.3724	365.0646	13360.55	12462.7
808.5158	367.258	13376.3	12476.45
808.6591	369.4508	13448.95	12547.45
808.8025	371.643	13583.25	12683.45
808.9459	373.8346	13669.95	12765.65
809.0893	376.0257	13771.55	12865.8
809.2327	378.2162	13790.3	12883.3
809.3762	380.4062	13796.2	12894.8
809.5196	382.5956	13700	12797.05
809.6631	384.7844	13570.3	12674.25
809.8066	386.9726	13463.3	12569.4
809.9501	389.1603	13356.8	12464.95
810.0936	391.3474	13311.3	12381.4
810.2371	393.5339	13266.3	12363.8
810.3806	395.7199	13214.7	12315.45
810.5241	397.9052	13307	12408.2
810.6677	400.09	13390.9	12494.75
810.8113	402.2743	13551.3	12650.2
810.9548	404.4579	13704.1	12804.4
811.0984	406.641	13917.5	13017.65
811.2421	408.8235	14059.85	13159.35
811.3857	411.0054	14200.75	13301.35
811.5293	413.1868	14356.85	13448.3
811.673	415.3675	14386.45	13480.3
811.8166	417.5477	14359.1	13446.2
811.9603	419.7273	14314.2	13401.85
812.104	421.9064	14206.5	13290.2
812.2477	424.0848	14137.95	13229
812.3914	426.2627	14023.1	13110.65
812.5351	428.4399	13826.85	12920.65
812.6788	430.6166	13489.6	12573.45
812.8226	432.7928	13162.35	12242.75
812.9663	434.9683	12913.5	12002.65
813.1101	437.1432	12679.25	11767.6
813.2539	439.3176	12468.6	11561.85
813.3977	441.4914	12373.95	11470.15
813.5415	443.6645	12340.5	11434.85
813.6853	445.8371	12288.95	11376.3
813.8291	448.0091	12244.1	11332.15
813.973	450.1806	12221.15	11311.95
814.1168	452.3514	12212.4	11302.7
814.2607	454.5216	12239.6	11317.9
814.4046	456.6913	12260.65	11352.1
814.5485	458.8603	12260.25	11351.5
814.6924	461.0288	12319.55	11414.6
814.8363	463.1967	12288	11392.15
814.9802	465.3639	12319.5	11411.75
815.1241	467.5306	12298.05	11390.8
815.2681	469.6967	12309.6	11405.55
815.412	471.8622	12307.1	11408.55
815.556	474.0271	12337.5	11431.1
815.7	476.1914	12378.7	11461.85
815.844	478.3551	12406.3	11494.2
815.988	480.5182	12442.05	11537.55
816.132	482.6807	12538.4	11638.6
816.276	484.8426	12707.3	11816.2
816.4201	487.0039	13018.4	12117.5
816.5641	489.1647	13424.5	12517.35
816.7082	491.3248	13705.55	12791.6
816.8522	493.4843	13782.85	12875.65
816.9963	495.6432	13757.35	12849.85
817.1404	497.8015	13635.1	12719.3
817.2845	499.9592	13516.4	12592.8
817.4286	502.1163	13296.85	12374.95
817.5727	504.2728	12980.45	12067.5
817.7168	506.4287	12705.5	11801.25
817.861	508.5839	12414.4	11509.9
818.0051	510.7386	12229.1	11318.4
818.1493	512.8927	12169.45	11247
818.2935	515.0461	12163.3	11246.05
818.4377	517.199	12244.5	11323.3
818.5818	519.3512	12420.45	11493.2
818.726	521.5029	12706.3	11781.2
818.8703	523.6539	12935.15	12018.8
819.0145	525.8043	13072.65	12146.3
819.1587	527.9541	13023.7	12100.75
819.303	530.1033	12803.9	11885.2
819.4472	532.2519	12648.3	11727.55
819.5915	534.3999	12546.35	11625.8
819.7357	536.5472	12586.4	11666.6
819.88	538.694	12778.9	11863.55
820.0243	540.8401	12991.8	12069.8
820.1686	542.9856	13174.85	12242.35
820.3129	545.1305	13192.5	12251.75
820.4572	547.2748	13126.45	12185.35
820.6016	549.4185	13004.45	12062.3
820.7459	551.5615	12881.75	11942.75
820.8902	553.704	12900.65	11960.4
821.0346	555.8458	13010.75	12077.6
821.1789	557.987	13167.05	12234.95
821.3233	560.1276	13412.6	12479.4
821.4677	562.2675	13827	12892.7
821.6121	564.4069	14360.4	13427
821.7565	566.5456	14856.5	13922.1
821.9009	568.6837	15010.85	14082.45
822.0453	570.8212	14629	13700.85
822.1897	572.958	13923	12992.3
822.3342	575.0942	13253.15	12326
822.4786	577.2299	12784.7	11862.2
822.6231	579.3648	12545.05	11634.05
822.7675	581.4992	12451.6	11557.4
822.912	583.6329	12535.65	11640.35
823.0565	585.766	12705.45	11801.95
823.201	587.8985	12853.55	11939.95
823.3454	590.0304	12942.7	11994.3
823.4899	592.1616	12874	11939.35
823.6345	594.2922	12764.5	11829.6
823.779	596.4222	12601.6	11666.45
823.9235	598.5515	12393.35	11452.75
824.068	600.6802	12202.2	11262.15
824.2126	602.8083	12035.35	11101.8
824.3571	604.9358	12030.75	11093.25
824.5017	607.0626	12064.85	11125.95
824.6462	609.1888	12183.1	11240.65
824.7908	611.3144	12363.75	11418.05
824.9354	613.4393	12491.25	11545.8
825.08	615.5636	12645.9	11698.85
825.2246	617.6873	12663.15	11721.95
825.3692	619.8103	12579.45	11633.3
825.5138	621.9327	12399.55	11456.3
825.6584	624.0544	12162.45	11226
825.803	626.1756	11947.95	11013.25
825.9477	628.2961	11808.05	10866.25
826.0923	630.4159	11732.3	10789.7
826.237	632.5351	11683.25	10742.2
826.3816	634.6537	11695.75	10754.85
826.5263	636.7716	11713.95	10766.9
826.6709	638.8889	11714.1	10763.4
826.8156	641.0056	11741.65	10792.7
826.9603	643.1216	11685.3	10735.9
827.105	645.237	11682	10737.15
827.2497	647.3518	11578.15	10639.4
827.3944	649.4659	11492.8	10559.25
827.5391	651.5793	11469.95	10537.95
827.6838	653.6922	11404.25	10468.15
827.8285	655.8043	11401.55	10459.35
827.9733	657.9159	11401	10464.45
828.118	660.0268	11365.65	10425.45
828.2627	662.137	11394.05	10448.55
828.4075	664.2466	11387.95	10438
828.5522	666.3556	11400.6	10452.25
828.697	668.4639	11305.35	10359.95
828.8418	670.5716	11290.6	10356.45
828.9865	672.6786	11240.65	10297.8
829.1313	674.785	11169.65	10223.95
829.2761	676.8907	11114.85	10170.45
829.4209	678.9958	11126.05	10187.15
829.5657	681.1002	11096.9	10154.45
829.7105	683.204	11103.05	10147.6
829.8553	685.3072	11091.45	10139.5
830.0001	687.4097	11068.65	10121.05
830.1449	689.5115	11063.9	10112.8
830.2898	691.6127	11074.5	10129.2
830.4346	693.7132	11041.7	10101.45
830.5794	695.8131	11084.35	10125.35
830.7243	697.9123	11106.35	10155.25
830.8691	700.0109	11138.05	10182.3
831.014	702.1089	11200.1	10247.1
831.1588	704.2061	11232.55	10283.2
831.3037	706.3028	11281.1	10329.6
831.4486	708.3987	11351.2	10398.6
831.5935	710.4941	11385.9	10433
831.7383	712.5887	11375.1	10428.4
831.8832	714.6827	11462.15	10510.6
832.0281	716.7761	11537.5	10590.5
832.173	718.8688	11667.95	10720.7
832.3179	720.9608	11780.35	10824.75
832.4628	723.0522	11957.9	10995.8
832.6077	725.1429	12034	11078.25
832.7527	727.233	12152.9	11197.15
832.8976	729.3224	12260.05	11309.45
833.0425	731.4112	12176.75	11223.55
833.1874	733.4993	12037.45	11081.4
833.3324	735.5867	11821.85	10867.35
833.4773	737.6735	11614.1	10661
833.6222	739.7596	11434.95	10481.25
833.7672	741.845	11263.95	10313.2
833.9122	743.9298	11138.8	10180.6
834.0571	746.014	11111.9	10158.75
834.2021	748.0974	11110.5	10148.6
834.347	750.1802	11090.6	10128.6
834.492	752.2624	11117.1	10158.8
834.637	754.3439	11164.5	10207.4
834.782	756.4247	11284.55	10318.05
834.9269	758.5048	11437.15	10477.8
835.0719	760.5843	11720.25	10758.3
835.2169	762.6631	12122.2	11163.35
835.3619	764.7413	12664.1	11705.85
835.5069	766.8188	13363.7	12400.9
835.6519	768.8956	13953.95	12992.1
835.7969	770.9718	14360.25	13402.75
835.9419	773.0473	14320.25	13361.15
836.0869	775.1221	14111.05	13149.5
836.232	777.1962	13820.1	12863.2
836.377	779.2697	13749.9	12784.4
836.522	781.3426	13824.9	12854.4
836.667	783.4147	13931.2	12971.35
836.8121	785.4862	13952.15	12989.45
836.9571	787.557	13748.75	12784.15
837.1021	789.6271	13278.9	12315.5
837.2472	791.6966	12673.5	11710.4
837.3922	793.7654	12047.6	11085.7
837.5373	795.8335	11634.2	10675.25
837.6823	797.901	11333.85	10375.65
837.8274	799.9678	11156.7	10193.25
837.9724	802.0339	11046.05	10081.55
838.1175	804.0993	10990.7	10016
838.2626	806.1641	10944.75	9976.6
838.4076	808.2282	10866.35	9902.5
838.5527	810.2916	10813.4	9846.15
838.6978	812.3544	10733.5	9776.6
838.8428	814.4164	10659.95	9697.85
838.9879	816.4778	10704.85	9739.95
839.133	818.5385	10732.65	9768.35
839.2781	820.5986	10881.55	9915.85
839.4232	822.658	11113.85	10147.6
839.5682	824.7166	11455.15	10493.35
839.7133	826.7747	12026.05	11060.65
839.8584	828.832	12577.75	11614.2
840.0035	830.8886	13015.6	12048
840.1486	832.9446	13174.1	12207.5
840.2937	834.9999	13020.05	12055.25
840.4388	837.0545	12702	11734.5
840.5839	839.1085	12360	11394.55
840.729	841.1618	11980.8	11009.1
840.8741	843.2143	11715.15	10746.65
841.0192	845.2662	11478.55	10511.55
841.1643	847.3175	11365.2	10399.9
841.3095	849.368	11245	10277.4
841.4546	851.4179	11147.55	10183.75
841.5997	853.467	11039.25	10072.8
841.7448	855.5155	10979.9	10012.1
841.8899	857.5633	10909.5	9944.2
842.0351	859.6105	10818	9847.45
842.1802	861.6569	10743.3	9775.9
842.3253	863.7027	10661.9	9692.15
842.4704	865.7478	10624.5	9657.65
842.6156	867.7922	10573.2	9604.4
842.7607	869.8359	10558.6	9590.45
842.9058	871.8789	10549.25	9578.9
843.0509	873.9212	10649.5	9646.7
843.1961	875.9629	10682.25	9712.7
843.3412	878.0039	10819.95	9855.4
843.4863	880.0441	10901.45	9935.3
843.6315	882.0837	10948.25	9983.7
843.7766	884.1226	11009.55	10042.9
843.9218	886.1609	11057.6	10090.95
844.0669	888.1984	11173.05	10207.7
844.212	890.2352	11373	10400.35
844.3572	892.2714	11371.05	10398.75
844.5023	894.3069	11329.1	10355.8
844.6475	896.3416	11171.5	10203.15
844.7926	898.3757	10973.95	10003.45
844.9377	900.4091	10896.15	9925.85
845.0829	902.4418	10868.1	9895.4
845.228	904.4739	10886.15	9910.9
845.3732	906.5052	10950.2	9975.85
845.5183	908.5358	10919.05	9947.3
845.6635	910.5658	10792.7	9817.45
845.8086	912.595	10579.45	9607.95
845.9538	914.6236	10361.15	9388.1
846.0989	916.6515	10234.45	9263.35
846.2441	918.6786	10117.55	9143.15
846.3892	920.7051	10108.35	9133.95
846.5344	922.7309	10169.3	9199.55
846.6795	924.756	10175.15	9204.2
846.8246	926.7804	10227.35	9258
846.9698	928.8041	10220.2	9249.6
847.1149	930.8272	10294.65	9320.2
847.2601	932.8495	10262.6	9292.5
847.4052	934.8711	10269	9295.5
847.5504	936.892	10232.55	9256.45
847.6955	938.9123	10244.4	9269.65
847.8407	940.9318	10265	9291.25
847.9858	942.9506	10302.65	9331.3
848.131	944.9688	10248.55	9282.8
848.2761	946.9862	10141.85	9171.15
848.4213	949.003	9977.3	9004.35
848.5664	951.019	9888.05	8917.5
848.7115	953.0344	9816.9	8844.1
848.8567	955.0491	9815.55	8845.2
849.0018	957.063	9807.7	8835.85
849.147	959.0763	9878.8	8907.75
849.2921	961.0888	9907.45	8938.25
849.4373	963.1007	9977.3	9009.05
849.5824	965.1119	9960.4	9003.25
849.7275	967.1223	9953.4	9003.3
849.8727	969.1321	9902.9	8947.75
850.0178	971.1412	9901.35	8940.4
850.1629	973.1495	9900.15	8935.7
850.3081	975.1572	9949.25	8923
850.4532	977.1641	9918.45	8945.25
850.5983	979.1704	9880.75	8909.25
850.7435	981.1759	9862.45	8885.35
850.8886	983.1808	9881.2	8906.7
851.0337	985.1849	9901.7	8916.6
851.1788	987.1884	9953.35	8981.85
851.324	989.1911	9981.95	9012.65
851.4691	991.1932	10068.8	9103.4
851.6142	993.1945	10068.35	9101.4
851.7593	995.1951	10051.2	9082.05
851.9045	997.1951	10019.85	9043
852.0496	999.1943	9968.2	8996.2
852.1947	1001.1928	9951.85	8981.95
852.3398	1003.1906	10021.5	9051.15
852.4849	1005.1877	10155.85	9182.5
852.63	1007.1841	10254.55	9286.15
852.7751	1009.1798	10284.1	9318.15
852.9202	1011.1748	10210.65	9242.6
853.0653	1013.1691	10056.2	9084.9
853.2104	1015.1627	9872.1	8899.8
853.3555	1017.1556	9670.8	8706.2
853.5006	1019.1477	9563.75	8600.5
853.6457	1021.1392	9451.2	8492.9
853.7908	1023.1299	9382.45	8427.95
853.9359	1025.12	9395.1	8448
854.081	1027.1093	9437.85	8503.15
854.2261	1029.0979	9562.35	8633.1
854.3712	1031.0859	9665.15	8725.2
854.5163	1033.0731	9692.45	8739.55
854.6613	1035.0596	9653.9	8698.65
854.8064	1037.0454	9555.75	8594.4
854.9515	1039.0304	9472.7	8506.3
855.0965	1041.0148	9341.45	8378.7
855.2416	1042.9985	9255.25	8290.7
855.3867	1044.9814	9196.05	8229.35
855.5317	1046.9636	9170.25	8204.65
855.6768	1048.9452	9146.4	8184.85
855.8219	1050.926	9186.6	8224.35
855.9669	1052.9061	9211.95	8248.8
856.112	1054.8855	9247.85	8284.6
856.257	1056.8642	9298.45	8328.6
856.4021	1058.8421	9334.7	8364.65
856.5471	1060.8194	9364.35	8394.7
856.6921	1062.7959	9406.45	8438.2
856.8372	1064.7717	9487.2	8520.45
856.9822	1066.7469	9558.35	8588.7
857.1272	1068.7213	9617.6	8647
857.2723	1070.695	9712.2	8748.85
857.4173	1072.6679	9771.6	8807.6
857.5623	1074.6402	9776.3	8809.45
857.7073	1076.6117	9726.05	8755.45
857.8523	1078.5826	9623	8653.75
857.9973	1080.5527	9477.25	8510.4
858.1423	1082.5221	9366.1	8396.95
858.2873	1084.4908	9306.55	8339.35
858.4323	1086.4587	9313.45	8343.4
858.5773	1088.426	9334.95	8364.55
858.7223	1090.3925	9361.05	8389.4
858.8673	1092.3584	9364.65	8396.95
859.0123	1094.3235	9403.6	8438.5
859.1573	1096.2879	9491.55	8530.2
859.3022	1098.2515	9608.4	8645.55
859.4472	1100.2145	9818.2	8854.55
859.5922	1102.1767	10011.25	9043.95
859.7371	1104.1382	10232.05	9269.05
859.8821	1106.099	10506	9541.55
860.027	1108.0591	10718.5	9751.85
860.172	1110.0185	10854.4	9887.1
860.3169	1111.9771	10937.8	9975.55
860.4619	1113.9351	10862.35	9900.5
860.6068	1115.8923	10766.4	9801.4
860.7517	1117.8488	10642.15	9677.3
860.8967	1119.8045	10461	9497.6
861.0416	1121.7596	10311.05	9346.1
861.1865	1123.7139	10192.05	9231.7
861.3314	1125.6675	10139.95	9178.6
861.4763	1127.6204	10146.85	9183.6
861.6212	1129.5726	10099.2	9134.5
861.7661	1131.524	10008.6	9044.25
861.911	1133.4748	9865.7	8902.05
862.0559	1135.4248	9653.6	8688.45
862.2008	1137.3741	9512.9	8548.35
862.3457	1139.3226	9394.8	8434.75
862.4905	1141.2705	9322.85	8359.95
862.6354	1143.2176	9248.6	8277.35
862.7803	1145.164	9215.05	8250.65
862.9251	1147.1097	9113.65	8151.55
863.07	1149.0546	9033.35	8071.75
863.2148	1150.9989	8917.15	7951.1
863.3597	1152.9424	8833.75	7867.35
863.5045	1154.8852	8760.45	7797.2
863.6493	1156.8272	8708	7746.15
863.7942	1158.7686	8750.45	7781.8
863.939	1160.7092	8800.85	7837.05
864.0838	1162.6491	8825	7861
864.2286	1164.5883	8946.2	7984
864.3734	1166.5267	9034.55	8068.1
864.5182	1168.4644	9195.7	8234.1
864.663	1170.4014	9378.65	8416.7
864.8078	1172.3377	9627.2	8668.45
864.9526	1174.2732	9949.45	8992.7
865.0974	1176.2081	10366.5	9404.8
865.2421	1178.1421	10885.5	9914.45
865.3869	1180.0755	11456.05	10496.25
865.5317	1182.0082	11866.05	10906.6
865.6764	1183.9401	12016.55	11060.5
865.8212	1185.8713	11853.7	10899
865.9659	1187.8017	11522.85	10579.4
866.1106	1189.7315	11091.6	10152.6
866.2554	1191.6605	10690.2	9752.7
866.4001	1193.5888	10386.95	9446.15
866.5448	1195.5163	10228.35	9276.45
866.6895	1197.4432	10116.4	9158.65
866.8342	1199.3693	10043.05	9089
866.9789	1201.2947	10028.35	9062.45
867.1236	1203.2193	9974.45	9018.6
867.2683	1205.1432	9973.6	9016.95
867.413	1207.0664	9923.7	8966.65
867.5576	1208.9889	9912.2	8951.25
867.7023	1210.9106	9871.5	8912.6
867.847	1212.8316	9884.6	8928.85
867.9916	1214.7519	9920.1	8951.1
868.1363	1216.6715	9929.6	8973.15
868.2809	1218.5903	10031.55	9075.95
868.4255	1220.5084	10102.5	9144.6
868.5701	1222.4257	10245.05	9287.85
868.7148	1224.3424	10279.9	9328.3
868.8594	1226.2583	10398.85	9440.55
869.004	1228.1735	10577.4	9623.35
869.1486	1230.0879	10726.3	9768.65
869.2932	1232.0016	10962.2	10006.45
869.4377	1233.9146	11125.35	10167.8
869.5823	1235.8269	11149.3	10196.55
869.7269	1237.7384	11131.35	10175.2
869.8715	1239.6492	11004.1	10051.25
870.016	1241.5592	11015.05	10058.6
870.1606	1243.4686	11089.55	10133.2
870.3051	1245.3772	11308.3	10351.7
870.4496	1247.285	11556.35	10600.25
870.5941	1249.1922	11796.95	10841.8
870.7387	1251.0986	11976.6	11024.9
870.8832	1253.0042	12096.05	11140.05
871.0277	1254.9092	12236.65	11280.15
871.1722	1256.8134	12334.85	11384.95
871.3167	1258.7169	12451.25	11496.35
871.4611	1260.6196	12624.55	11668
871.6056	1262.5216	12823.45	11867.9
871.7501	1264.4229	13006.3	12051.95
871.8945	1266.3234	13220.45	12268.2
872.039	1268.2232	13375	12420.35
872.1834	1270.1223	13432.25	12475.85
872.3278	1272.0207	13458.35	12504.7
872.4723	1273.9183	13457.3	12498.65
872.6167	1275.8151	13417.85	12465.25
872.7611	1277.7113	13420.6	12466.1
872.9055	1279.6067	13533.15	12580.35
873.0499	1281.5014	13837.55	12879.9
873.1943	1283.3953	14305.55	13346.4
873.3386	1285.2885	14906.75	13954.6
873.483	1287.181	15545.85	14594.4
873.6274	1289.0727	16128.75	15180.15
873.7717	1290.9637	16519.1	15565.4
873.9161	1292.854	16757.85	15806.2
874.0604	1294.7435	16734.65	15783.45
874.2047	1296.6323	16591.2	15636.8
874.349	1298.5204	16327.95	15371.65
874.4933	1300.4077	16008.8	15055.8
874.6376	1302.2943	15674.8	14717.8
874.7819	1304.1802	15310.8	14360
874.9262	1306.0653	14793.6	13837.7
875.0705	1307.9497	14254.4	13301.85
875.2147	1309.8333	13731.25	12780.7
875.359	1311.7162	13361.7	12409.95
875.5032	1313.5984	13157.9	12200.75
875.6475	1315.4798	12992.1	12024.95
875.7917	1317.3605	12880.45	11923.3
875.9359	1319.2405	12719.25	11760.9
876.0801	1321.1197	12461.2	11503.25
876.2243	1322.9982	12113.85	11159.1
876.3685	1324.876	11780.55	10826.9
876.5127	1326.753	11467.7	10514.9
876.6569	1328.6293	11190.5	10237.55
876.801	1330.5048	11000.1	10041.85
876.9452	1332.3796	10810.35	9858.15
877.0893	1334.2537	10701.55	9721.4
877.2335	1336.127	10575.85	9623.55
877.3776	1337.9996	10509.6	9556.45
877.5217	1339.8714	10507.05	9552
877.6658	1341.7426	10551.45	9556.25
877.8099	1343.6129	10566.4	9612.2
877.954	1345.4826	10549.6	9592.35
878.0981	1347.3515	10541.95	9586.55
878.2422	1349.2196	10534.4	9583.5
878.3862	1351.087	10558.4	9601.9
878.5303	1352.9537	10603.6	9645.65
878.6743	1354.8197	10691.8	9736
878.8184	1356.6849	10813.5	9857.4
878.9624	1358.5493	11008.45	10056.3
879.1064	1360.4131	11221.75	10269.7
879.2504	1362.276	11388	10437.35
879.3944	1364.1383	11438.55	10486.1
879.5384	1365.9998	11296.3	10337.5
879.6823	1367.8606	10949.55	9995.3
879.8263	1369.7206	10593.55	9636.1
879.9702	1371.5799	10265.3	9309.75
880.1142	1373.4384	9983.9	9029.25
880.2581	1375.2962	9766.45	8816.5
880.402	1377.1533	9449.4	8502.5
880.5459	1379.0096	9050.05	8102.5
880.6898	1380.8652	8728.9	7784.6
880.8337	1382.7201	8444.35	7496.45
880.9776	1384.5742	8202.85	7250.8
881.1215	1386.4275	8033.05	7083.4
881.2653	1388.2802	7878.8	6931.15
881.4092	1390.132	7757.35	6805.25
881.553	1391.9832	7656.65	6705.45
881.6968	1393.8336	7606.8	6655.4
881.8406	1395.6832	7562.85	6611.95
881.9844	1397.5322	7528.6	6575.2
882.1282	1399.3803	7502.55	6545
882.272	1401.2278	7433.4	6484.25
882.4158	1403.0745	7429.1	6481.95
882.5595	1404.9204	7417.25	6471.75
882.7033	1406.7656	7406.8	6454.15
882.847	1408.6101	7417.3	6465.35
882.9908	1410.4538	7449.1	6497.7
883.1345	1412.2968	7483.4	6530.15
883.2782	1414.139	7546.55	6597.75
883.4219	1415.9805	7607.95	6655.95
883.5656	1417.8213	7658.75	6704.75
883.7092	1419.6613	7745.15	6799.7
883.8529	1421.5006	7911.75	6963.45
883.9965	1423.3391	8096.2	7145.45
884.1402	1425.1769	8363.4	7410.45
884.2838	1427.0139	8745.15	7794.65
884.4274	1428.8502	9250.05	8300.45
884.571	1430.6858	9766.3	8819.8
884.7146	1432.5206	10151.6	9204.4
884.8582	1434.3547	10371.7	9421.35
885.0018	1436.188	10399.85	9451.55
885.1453	1438.0206	10295.5	9345.75
885.2889	1439.8524	10121.65	9175.05
885.4324	1441.6835	10030.2	9082
885.5759	1443.5139	9928.75	8983.75
885.7194	1445.3435	9885	8937.9
885.8629	1447.1724	9839.8	8894.45
886.0064	1449.0005	9805.15	8860.05
886.1499	1450.8279	9753.35	8805.25
886.2933	1452.6545	9752.45	8810
886.4368	1454.4804	9750.6	8806.65
886.5802	1456.3056	9764.05	8814.8
886.7237	1458.13	9689.7	8745.9
886.8671	1459.9536	9547.2	8599.7
887.0105	1461.7766	9314.7	8370.75
887.1539	1463.5987	8996.2	8049.55
887.2972	1465.4202	8700.95	7753.95
887.4406	1467.2409	8401.95	7458.5
887.584	1469.0608	8126.85	7180.15
887.7273	1470.88	7849.65	6905.7
887.8706	1472.6984	7638.55	6693.8
888.0139	1474.5161	7455.05	6509.55
888.1572	1476.3331	7315.05	6371.35
888.3005	1478.1493	7195.3	6249.15
888.4438	1479.9648	7116.95	6170.85
888.5871	1481.7795	7057.25	6111.1
888.7303	1483.5935	6992.55	6048
888.8736	1485.4067	6963.75	6017.9
889.0168	1487.2192	6903.5	5961.5
889.16	1489.031	6890.85	5945.4
889.3032	1490.842	6830.85	5887.05
889.4464	1492.6522	6817.9	5873.5
889.5896	1494.4618	6761.35	5812.9
889.7327	1496.2705	6727.25	5782.65
889.8759	1498.0785	6712.75	5764.25
890.019	1499.8858	6642.75	5696.85
890.1622	1501.6924	6605.2	5661.05
890.3053	1503.4981	6564.3	5622.2
890.4484	1505.3032	6535.1	5591.9
890.5914	1507.1075	6482.7	5538
890.7345	1508.911	6439.25	5494.4
890.8776	1510.7138	6399.95	5457.25
891.0206	1512.5159	6336.4	5394.55
891.1637	1514.3172	6295.3	5353.35
891.3067	1516.1178	6262.7	5320.15
891.4497	1517.9176	6239.85	5292.95
891.5927	1519.7166	6203.7	5263.15
891.7357	1521.515	6171.1	5225.25
891.8786	1523.3126	6134.55	5195.5
892.0216	1525.1094	6123.15	5180.35
892.1645	1526.9055	6101.2	5164.25
892.3074	1528.7008	6080.2	5142.75
892.4503	1530.4954	6061.2	5120.85
892.5932	1532.2893	6053.9	5117.35
892.7361	1534.0824	6020.85	5081.45
892.879	1535.8747	6002.1	5066.45
893.0218	1537.6663	5997.15	5057.15
893.1647	1539.4572	5981.7	5042.15
893.3075	1541.2473	6008.55	5070.7
893.4503	1543.0367	6024.8	5088.6
893.5931	1544.8253	6010.55	5068.9
893.7359	1546.6132	6070.2	5128.55
893.8787	1548.4003	6094.05	5149.05
894.0214	1550.1867	6157	5214.8
894.1642	1551.9723	6229.1	5291.95
894.3069	1553.7572	6309.55	5373.6
894.4496	1555.5414	6417.75	5487.6
894.5923	1557.3247	6555.9	5625.9
894.735	1559.1074	6733.95	5805.4
894.8777	1560.8893	6940.5	6012.55
895.0204	1562.6705	7102.25	6173.25
895.163	1564.4509	7245.5	6317
895.3056	1566.2305	7313.95	6391.75
895.4482	1568.0094	7361.8	6438.15
895.5908	1569.7876	7367	6443.85
895.7334	1571.565	7321.7	6392.3
895.876	1573.3417	7332.7	6405.5
896.0186	1575.1176	7325.7	6400.35
896.1611	1576.8928	7310.5	6388.6
896.3036	1578.6672	7360.6	6443.45
896.4461	1580.4409	7384.8	6470.05
896.5886	1582.2138	7437.7	6514.9
896.7311	1583.986	7520.15	6597.5
896.8736	1585.7575	7628.35	6704.4
897.0161	1587.5282	7744.95	6824.85
897.1585	1589.2981	7889.4	6973.7
897.3009	1591.0673	7981.65	7063.75
897.4433	1592.8358	8130.95	7212.4
897.5857	1594.6035	8238.85	7314.65
897.7281	1596.3704	8331.65	7409.95
897.8705	1598.1366	8421.15	7500.9
898.0128	1599.9021	8543.85	7625.6
898.1551	1601.6668	8629.6	7706.85
898.2975	1603.4308	8768.2	7844.5
898.4398	1605.194	8927.65	8003.35
898.5821	1606.9564	9106.8	8193.25
898.7243	1608.7182	9401.85	8491.45
898.8666	1610.4791	9710.2	8806.65
899.0088	1612.2394	10035.8	9132.2
899.1511	1613.9988	10381.95	9474.5
899.2933	1615.7576	10694.4	9781.55
899.4355	1617.5156	10892.05	9966
899.5776	1619.2728	10986.6	10064.85
899.7198	1621.0293	10879	9958.1
899.862	1622.785	10573.95	9656.05
900.0041	1624.54	10201.45	9285.55
900.1462	1626.2942	9786.05	8874.55
900.2883	1628.0477	9309.65	8394.6
900.4304	1629.8005	8918.9	8000.15
900.5725	1631.5525	8549.85	7637.9
900.7145	1633.3037	8227.65	7314.5
900.8566	1635.0542	7974.7	7062.2
900.9986	1636.804	7753.65	6840.3
901.1406	1638.553	7696.9	6694.35
901.2826	1640.3013	7547.45	6633.05
901.4245	1642.0488	7498.65	6585.9
901.5665	1643.7955	7507.1	6598.85
901.7085	1645.5416	7524.9	6615.8
901.8504	1647.2868	7624.95	6713.1
901.9923	1649.0313	7687	6772.8
902.1342	1650.7751	7855.9	6937.3
902.2761	1652.5181	7981.35	7073
902.4179	1654.2604	8153.65	7245.15
902.5598	1656.0019	8343.5	7434
902.7016	1657.7427	8587.9	7676.15
902.8434	1659.4828	8851.15	7940.45
902.9852	1661.222	9007.15	8093.1
903.127	1662.9606	8974.5	8062.1
903.2687	1664.6984	8783.6	7869.25
903.4105	1666.4354	8384.25	7464.3
903.5522	1668.1717	7848.15	6929.1
903.6939	1669.9072	7284.5	6367.95
903.8356	1671.642	6849.8	5931.95
903.9773	1673.3761	6459.9	5545.5
904.119	1675.1094	6143.7	5228.55
904.2606	1676.8419	5896.25	4982.9
904.4022	1678.5737	5699.1	4783.7
904.5439	1680.3048	5534.9	4616.6
904.6855	1682.0351	5404.75	4492.25
904.827	1683.7646	5286.45	4369.4
904.9686	1685.4934	5212.95	4300.85
905.1101	1687.2215	5132.85	4217.4
905.2517	1688.9488	5032.8	4122.9
905.3932	1690.6754	4984.5	4072.15
905.5347	1692.4012	4939.95	4025.95
905.6761	1694.1263	4891.3	3977.65
905.8176	1695.8506	4843.25	3930.8
905.9591	1697.5742	4813.4	3903.1
906.1005	1699.297	4775.75	3868.85
906.2419	1701.0191	4715.7	3808.75
906.3833	1702.7404	4688.4	3780.5
906.5246	1704.461	4647.1	3736.5
906.666	1706.1808	4611.65	3700.85
906.8073	1707.8999	4572.6	3663.95
906.9487	1709.6182	4551.3	3645.35
907.09	1711.3358	4536.7	3634.1
907.2313	1713.0527	4506.55	3605.85
907.3725	1714.7688	4484.25	3574.5
907.5138	1716.4841	4446.65	3537.8
907.655	1718.1987	4439.7	3527.15
907.7962	1719.9126	4421.2	3517.2
907.9374	1721.6257	4400	3497.8
908.0786	1723.338	4403.25	3500.7
908.2198	1725.0496	4381.2	3475.2
908.3609	1726.7605	4354.4	3446
908.502	1728.4706	4351.9	3445.2
908.6431	1730.18	4321.9	3417.65
908.7842	1731.8886	4312.4	3410.6
908.9253	1733.5964	4316.65	3392.2
909.0664	1735.3036	4283.45	3377.1
909.2074	1737.0099	4286.15	3382.3
909.3484	1738.7156	4244.1	3342.7
909.4894	1740.4204	4227.4	3321.7
909.6304	1742.1246	4208.55	3302.15
909.7714	1743.8279	4173.2	3269.1
909.9123	1745.5306	4149.6	3249.15
910.0532	1747.2325	4154.9	3252.4
910.1941	1748.9336	4120.85	3218.5
910.335	1750.634	4107.05	3199.75
910.4759	1752.3336	4092.1	3187.65
910.6168	1754.0325	4087.25	3188.75
910.7576	1755.7307	4054.7	3152.8
910.8984	1757.4281	4048.8	3144.15
911.0392	1759.1247	4067.95	3151.7
911.18	1760.8206	4065.9	3154.95
911.3208	1762.5158	4050.65	3140.1
911.4615	1764.2102	4028.1	3123.3
911.6022	1765.9039	4018.6	3115.1
911.7429	1767.5968	3995.4	3096.75
911.8836	1769.289	3996.9	3097.85
912.0243	1770.9804	3990.95	3086
912.1649	1772.6711	3974.8	3066.6
912.3056	1774.361	3969.95	3061.4
912.4462	1776.0502	3963.8	3056.05
912.5868	1777.7386	3955.35	3047.9
912.7274	1779.4263	3947.05	3043.4
912.8679	1781.1132	3930.85	3032.05
913.0084	1782.7994	3925.7	3024.95
913.149	1784.4849	3905.05	3006.15
913.2895	1786.1696	3918.65	2999.8
913.4299	1787.8535	3886.55	2987.95
913.5704	1789.5367	3877.1	2979.05
913.7108	1791.2192	3876.55	2977.45
913.8513	1792.9009	3874.6	2947.05
913.9917	1794.5818	3860.1	2953.3
914.132	1796.2621	3850.3	2946.1
914.2724	1797.9415	3825.85	2921.7
914.4128	1799.6202	3830.45	2926.75
914.5531	1801.2982	3831.75	2927.55
914.6934	1802.9755	3807.85	2901.05
914.8337	1804.6519	3812.85	2908.95
914.9739	1806.3277	3806.2	2903.35
915.1142	1808.0027	3784.65	2884.5
915.2544	1809.6769	3780.6	2882
915.3946	1811.3504	3757.8	2861.25
915.5348	1813.0231	3769.8	2871.95
915.675	1814.6951	3762.45	2861.65
915.8151	1816.3664	3763.1	2859.6
915.9553	1818.0369	3761.55	2857.6
916.0954	1819.7067	3740.55	2838.95
916.2355	1821.3757	3749.85	2845.45
916.3755	1823.044	3747	2842
916.5156	1824.7115	3717.3	2813.3
916.6556	1826.3783	3700.85	2797.6
916.7956	1828.0443	3693.3	2793.8
916.9356	1829.7096	3693.85	2789.75
917.0756	1831.3741	3712.1	2807.05
917.2155	1833.0379	3696.65	2795.9
917.3555	1834.701	3677.75	2778.95
917.4954	1836.3633	3670.65	2772.25
917.6353	1838.0248	3671.1	2771.55
917.7751	1839.6856	3669.25	2766.9
917.915	1841.3457	3661.4	2760.1
918.0548	1843.005	3658.5	2754.9
918.1946	1844.6636	3656.8	2754.25
918.3344	1846.3214	3634.7	2733.45
918.4742	1847.9785	3644.35	2742.8
918.6139	1849.6349	3638.3	2731.8
918.7537	1851.2904	3651.8	2740.35
918.8934	1852.9453	3638.25	2732.4
919.0331	1854.5994	3621.05	2717.55
919.1727	1856.2528	3639.1	2732.4
919.3124	1857.9054	3597.95	2696.6
919.452	1859.5572	3598.4	2700.15
919.5916	1861.2083	3604.95	2700.15
919.7312	1862.8587	3608.8	2703.9
919.8708	1864.5084	3594.1	2689.25
920.0103	1866.1572	3574.65	2670.6
920.1498	1867.8054	3560.15	2654.7
920.2893	1869.4528	3554.2	2649.65
920.4288	1871.0994	3535.7	2629.8
920.5683	1872.7453	3548.9	2644.1
920.7077	1874.3905	3543.1	2633.55
920.8471	1876.0349	3538.4	2633.7
920.9865	1877.6786	3525.65	2621
921.1259	1879.3215	3509.85	2605.05
921.2653	1880.9637	3520.15	2617.75
921.4046	1882.6051	3524.2	2623.25
921.5439	1884.2458	3498.45	2595.1
921.6832	1885.8858	3476.65	2579.05
921.8225	1887.525	3478.55	2577.45
921.9617	1889.1634	3469.6	2565.35
922.101	1890.8011	3465.05	2559.3
922.2402	1892.4381	3469.8	2565.9
922.3794	1894.0743	3457.65	2556.2
922.5185	1895.7098	3453.7	2551.15
922.6577	1897.3446	3443.25	2539.65
922.7968	1898.9786	3452.05	2546.6
922.9359	1900.6118	3425.4	2525.15
923.075	1902.2443	3413.3	2512.8
923.214	1903.8761	3406.1	2507.35
923.3531	1905.5071	3394.3	2490.6
923.4921	1907.1374	3377.05	2475.75
923.6311	1908.7669	3381.35	2480.7
923.77	1910.3957	3382	2480.8
923.909	1912.0237	3371.55	2472.8
924.0479	1913.651	3367.15	2466.45
924.1868	1915.2776	3363.1	2462
924.3257	1916.9034	3341.4	2442.8
924.4646	1918.5285	3329.85	2431.1
924.6034	1920.1528	3326.4	2425.8
924.7422	1921.7764	3320.95	2420.45
924.881	1923.3992	3306.1	2403.8
925.0198	1925.0213	3293.8	2391.15
925.1586	1926.6427	3286.9	2388.05
925.2973	1928.2633	3359.5	2375.7
925.436	1929.8832	3286.3	2383.2
925.5747	1931.5023	3271.9	2371.7
925.7134	1933.1207	3253.35	2353.65
925.852	1934.7383	3257	2356.1
925.9906	1936.3552	3226	2327.25
926.1292	1937.9714	3228.3	2331.75
926.2678	1939.5868	3229.35	2325.25
926.4064	1941.2015	3209.7	2307.4
926.5449	1942.8154	3212.45	2309.45
926.6834	1944.4286	3216.55	2313.8
926.8219	1946.041	3216.9	2293.3
926.9604	1947.6528	3185.5	2278.85
927.0988	1949.2637	3180.85	2278.95
927.2372	1950.8739	3169.85	2269.35
927.3756	1952.4834	3156.8	2255.65
927.514	1954.0921	3153	2253.65
927.6523	1955.7001	3149.9	2249
927.7907	1957.3074	3138.7	2242.75
927.929	1958.9139	3128.5	2233.45
928.0673	1960.5197	3138.65	2239.75
928.2055	1962.1247	3124.25	2225.45
928.3438	1963.729	3092.2	2199.1
928.482	1965.3325	3094.1	2193.2
928.6202	1966.9353	3085.6	2191.65
928.7584	1968.5374	3076.4	2182.55
928.8965	1970.1387	3069.2	2172.45
929.0346	1971.7393	3062.45	2166.3
929.1727	1973.3392	3053.05	2155.4
929.3108	1974.9383	3051.2	2159.05
929.4489	1976.5366	3040	2145.8
929.5869	1978.1342	3023	2132.6
929.7249	1979.7311	3033.55	2137.85
929.8629	1981.3273	3017.2	2126.5
930.0009	1982.9227	3006.95	2114.45
930.1388	1984.5173	2998.1	2108.05
930.2767	1986.1112	2991.3	2100.45
930.4146	1987.7044	2982.4	2088.65
930.5525	1989.2968	2996.25	2104
930.6904	1990.8885	2976.95	2080.6
930.8282	1992.4795	2975.45	2084.1
930.966	1994.0697	2961.65	2073
931.1038	1995.6592	2963.6	2071.35
931.2415	1997.2479	2945.45	2053.65
931.3793	1998.8359	2950.25	2058.6
931.517	2000.4232	2930.5	2044.55
931.6547	2002.0097	2922.5	2037.1
931.7923	2003.5955	2917.3	2031.05
931.93	2005.1805	2917.9	2027
932.0676	2006.7648	2900.1	2012.3
932.2052	2008.3484	2902.15	2013.55
932.3427	2009.9312	2911.8	2024.8
932.4803	2011.5133	2904.25	2020.3
932.6178	2013.0946	2895.8	2011.7
932.7553	2014.6752	2889.7	2002.75
932.8928	2016.2551	2888.05	2000.75
933.0302	2017.8342	2869.55	1979
933.1676	2019.4126	2863.45	1976.2
933.305	2020.9902	2857.55	1972.95
933.4424	2022.5672	2851.4	1967.05
933.5798	2024.1433	2861.5	1971.7
933.7171	2025.7188	2844.55	1963.65
933.8544	2027.2935	2847.75	1962.9
933.9917	2028.8674	2825.3	1943.05
934.129	2030.4406	2817.55	1936.05
934.2662	2032.0131	2809.15	1928.3
934.4034	2033.5849	2812.8	1930
934.5406	2035.1559	2801.15	1919.15
934.6778	2036.7261	2811.2	1923.95
934.8149	2038.2957	2803.35	1913.8
934.952	2039.8645	2802.2	1910.35
935.0891	2041.4325	2808.15	1916.9
935.2262	2042.9998	2784.85	1898
935.3632	2044.5664	2790.15	1905.3
935.5002	2046.1323	2769.75	1885.4
935.6372	2047.6974	2765.6	1881.95
935.7742	2049.2617	2770.75	1886.2
935.9111	2050.8254	2770	1878.65
936.048	2052.3883	2766.6	1876.15
936.1849	2053.9504	2759.85	1868.75
936.3218	2055.5118	2756.45	1865.85
936.4586	2057.0725	2743.1	1850.55
936.5955	2058.6325	2743.7	1859.65
936.7323	2060.1917	2730.2	1846
936.869	2061.7502	2735.25	1845.65
937.0058	2063.3079	2719.25	1837.15
937.1425	2064.8649	2718.7	1832.85
937.2792	2066.4212	2705.3	1818.55
937.4159	2067.9767	2714.8	1828
937.5525	2069.5315	2698.8	1812.65
937.6891	2071.0856	2699	1811.95
937.8257	2072.6389	2688.75	1801.65
937.9623	2074.1915	2675.4	1791.8
938.0989	2075.7433	2661.7	1775
938.2354	2077.2945	2660.25	1773.65
938.3719	2078.8448	2664.3	1777.4
938.5084	2080.3945	2652.6	1761.2
938.6448	2081.9434	2651.65	1761.3
938.7812	2083.4916	2655.7	1765.2
938.9176	2085.039	2646.5	1749.05
939.054	2086.5857	2648.2	1749.3
939.1903	2088.1317	2653.1	1756.95
939.3267	2089.677	2635.15	1735.75
939.463	2091.2215	2626.35	1729.85
939.5992	2092.7652	2621.5	1722.75
939.7355	2094.3083	2630.2	1733.6
939.8717	2095.8506	2609.2	1717.4
940.0079	2097.3921	2611.15	1720.65
940.1441	2098.933	2621.95	1728.95
940.2802	2100.4731	2601.65	1707.95
940.4163	2102.0124	2617.1	1706.6
940.5524	2103.5511	2601.8	1709.3
940.6885	2105.089	2595.6	1703
940.8245	2106.6261	2588.05	1696.85
940.9606	2108.1626	2575.4	1685.75
941.0965	2109.6983	2597.45	1679.45
941.2325	2111.2332	2572.15	1679.35
941.3684	2112.7675	2581	1688.1
941.5044	2114.301	2568.7	1672.35
941.6403	2115.8337	2571.1	1677.2
941.7761	2117.3657	2545	1652.65
941.912	2118.897	2552.65	1656.95
942.0478	2120.4276	2552.5	1650.65
942.1835	2121.9575	2544.45	1652.4
942.3193	2123.4866	2552.5	1657.15
942.455	2125.0149	2545.2	1649.85
942.5907	2126.5426	2517.95	1629.95
942.7264	2128.0695	2519	1628.95
942.8621	2129.5956	2513.6	1628.6
942.9977	2131.1211	2509.45	1617.6
943.1333	2132.6458	2505	1613.65
943.2689	2134.1698	2510.5	1617.6
943.4044	2135.693	2496.35	1597.95
943.54	2137.2155	2497.9	1599.95
943.6755	2138.7373	2491.6	1602.15
943.8109	2140.2584	2481.2	1593.7
943.9464	2141.7787	2473.95	1582.3
944.0818	2143.2983	2472.85	1591.2
944.2172	2144.8171	2456.45	1574.7
944.3526	2146.3353	2464	1575.3
944.4879	2147.8527	2457.45	1572.25
944.6232	2149.3693	2468.15	1573.35
944.7585	2150.8853	2453	1560.15
944.8938	2152.4005	2442.3	1547.8
945.029	2153.9149	2457	1562.05
945.1642	2155.4287	2439.25	1545.1
945.2994	2156.9417	2442.15	1548.65
945.4346	2158.454	2426.55	1535.05
945.5697	2159.9655	2423.35	1534.5
945.7048	2161.4764	2425.5	1537.55
945.8399	2162.9865	2415.85	1527.15
945.9749	2164.4958	2410.45	1520.9
946.1099	2166.0045	2409.8	1519.15
946.2449	2167.5124	2406.8	1516.5
946.3799	2169.0195	2407.5	1514.2
946.5148	2170.526	2406.5	1513.8
946.6498	2172.0317	2408.5	1517.15
946.7846	2173.5367	2386.55	1495.1
946.9195	2175.0409	2381.8	1492.4
947.0543	2176.5445	2389.6	1499
947.1891	2178.0473	2381.9	1486.1
947.3239	2179.5494	2391.45	1493.55
947.4587	2181.0507	2374.35	1482.35
947.5934	2182.5513	2372.55	1483.85
947.7281	2184.0512	2360.55	1468.35
947.8628	2185.5504	2363.05	1472.95
947.9974	2187.0488	2360.5	1470.9
948.132	2188.5465	2357.2	1472.05
948.2666	2190.0435	2353.9	1465.15
948.4012	2191.5397	2342.55	1452.65
948.5357	2193.0353	2342.3	1447.9
948.6702	2194.5301	2333.85	1435.4
948.8047	2196.0241	2326.25	1426.85
948.9392	2197.5175	2332.45	1436.2
949.0736	2199.0101	2328.3	1426
949.208	2200.502	2323.65	1432.55
949.3424	2201.9931	2296.9	1407
949.4767	2203.4835	2302.95	1413.9
949.611	2204.9733	2317.25	1416.25
949.7453	2206.4622	2294.45	1405.3
949.8796	2207.9505	2287.8	1399.45
950.0138	2209.438	2282.9	1399.75
950.148	2210.9248	2266.15	1377.9
950.2822	2212.4109	2268.15	1377.45
950.4164	2213.8962	2280.65	1382.8
950.5505	2215.3809	2268.25	1369.35
950.6846	2216.8648	2274.3	1375.5
950.8186	2218.3479	2265.3	1361.45
950.9527	2219.8304	2264.8	1362.3
951.0867	2221.3121	2260.65	1358.05
951.2207	2222.7931	2252.95	1357.6
951.3546	2224.2733	2252.5	1360.05
951.4886	2225.7529	2235.4	1342.6
951.6225	2227.2317	2224.55	1331.95
951.7563	2228.7098	2226.3	1337.75
951.8902	2230.1872	2220.5	1330.25
952.024	2231.6638	2213.7	1327
952.1578	2233.1397	2217.3	1326.85
952.2916	2234.6149	2212.7	1324.5
952.4253	2236.0894	2210.8	1318.7
952.559	2237.5632	2211.5	1309.85
952.6927	2239.0362	2196.4	1305.2
952.8263	2240.5085	2193.85	1302.55
952.9599	2241.9801	2193.1	1301.5
953.0935	2243.4509	2190	1296.25
953.2271	2244.921	2186.4	1289.55
953.3606	2246.3904	2182.85	1283.5
953.4941	2247.8591	2168.15	1274.3
953.6276	2249.3271	2178.75	1283.95
953.7611	2250.7943	2152.95	1258.75
953.8945	2252.2608	2150.8	1256.1
954.0279	2253.7266	2153.85	1260
954.1612	2255.1917	2145	1253.65
954.2946	2256.656	2146.6	1256.35
954.4279	2258.1197	2136.3	1247.85
954.5612	2259.5826	2129.9	1239.15
954.6944	2261.0447	2132.7	1237.9
954.8276	2262.5062	2128.55	1231.1
954.9608	2263.9669	2126.05	1228.55
955.094	2265.4269	2122.65	1227.95
955.2271	2266.8862	2122.5	1232
955.3602	2268.3448	2123.65	1233.3
955.4933	2269.8026	2124.2	1236
955.6264	2271.2598	2117.45	1227.75
955.7594	2272.7162	2117.25	1227.2
955.8924	2274.1719	2122.2	1227.35
956.0253	2275.6268	2109.9	1213.45
956.1583	2277.0811	2104.3	1208.55
956.2912	2278.5346	2107.9	1214.65
956.4241	2279.9874	2085.6	1196.3
956.5569	2281.4395	2087.4	1198.85
956.6897	2282.8908	2092.4	1198.4
956.8225	2284.3414	2086.4	1192.1
956.9553	2285.7914	2084.6	1192.35
957.088	2287.2406	2080.55	1186.05
957.2207	2288.689	2089.8	1191.9
957.3534	2290.1368	2084.6	1184.35
957.486	2291.5838	2093.2	1191.65
957.6186	2293.0302	2083.4	1183.85
957.7512	2294.4758	2072.6	1174.9
957.8838	2295.9206	2073.35	1176.65
958.0163	2297.3648	2062.6	1172.45
958.1488	2298.8082	2070.25	1178.05
958.2813	2300.251	2059.5	1163.55
958.4137	2301.693	2069.2	1168.2
958.5461	2303.1343	2058.4	1161.3
958.6785	2304.5748	2039.75	1143.05
958.8108	2306.0147	2042.95	1150.1
958.9432	2307.4538	2035.9	1144.1
959.0754	2308.8922	2041.75	1154.6
959.2077	2310.3299	2033.55	1144.7
959.3399	2311.7669	2023.4	1133
959.4721	2313.2031	2021.8	1129.85
959.6043	2314.6387	2018.85	1125.6
959.7365	2316.0735	2032.4	1140.4
959.8686	2317.5076	2021.2	1126.4
960.0006	2318.941	2015.35	1120.8
960.1327	2320.3737	2019.85	1122.6
960.2647	2321.8056	2012.55	1112.8
960.3967	2323.2369	2008.55	1112.55
960.5287	2324.6674	2000.65	1103.85
960.6606	2326.0972	2004.75	1111.25
960.7925	2327.5263	1993.55	1100.45
960.9244	2328.9547	2001.5	1106.75
961.0562	2330.3823	1999.75	1101.95
961.1881	2331.8092	2001.5	1103.4
961.3198	2333.2355	1981.75	1084.9
961.4516	2334.661	1986.1	1087.65
961.5833	2336.0858	1986.7	1088.9
961.715	2337.5098	1976.8	1081.65
961.8467	2338.9332	1971.5	1078.35
961.9783	2340.3558	1973.6	1077.7
962.1099	2341.7778	1967.85	1075.35
962.2415	2343.199	1969	1073.9
962.373	2344.6195	1959.05	1066.5
962.5045	2346.0393	1969.55	1078.75
962.636	2347.4583	1958.15	1064.5
962.7675	2348.8767	1962.9	1067.05
962.8989	2350.2943	1960.4	1060.95
963.0303	2351.7113	1961.8	1060.2
963.1617	2353.1275	1959.6	1059.85
963.293	2354.543	1958.35	1051.7
963.4243	2355.9578	1956.25	1059.9
963.5556	2357.3718	1945.45	1053.4
963.6868	2358.7852	1938.15	1045.7
963.818	2360.1978	1926.9	1033.45
963.9492	2361.6098	1927.5	1036.95
964.0803	2363.021	1941.05	1042.35
964.2114	2364.4315	1929.4	1035.55
964.3425	2365.8413	1923.35	1029
964.4736	2367.2504	1913.15	1019.95
964.6046	2368.6587	1905.35	1013.95
964.7356	2370.0664	1908.45	1016.85
964.8666	2371.4733	1907.25	1014.7
964.9975	2372.8795	1905.85	1011.95
965.1284	2374.285	1905.05	1011.7
965.2593	2375.6899	1899.25	1004.85
965.3901	2377.0939	1895.75	1001.85
965.5209	2378.4973	1895.45	1000.4
965.6517	2379.9	1895.85	1002
965.7825	2381.3019	1891.1	997.5
965.9132	2382.7032	1886.8	994.55
966.0439	2384.1037	1883.3	995
966.1745	2385.5035	1873.15	984
966.3051	2386.9027	1874.05	984.15
966.4357	2388.3011	1883	987.1
966.5663	2389.6987	1869.2	978.05
966.6968	2391.0957	1852.65	962.6
966.8273	2392.492	1861.15	971.9
966.9578	2393.8876	1851.5	961.35
967.0882	2395.2824	1851.15	960.7
967.2186	2396.6765	1851.45	957.4
967.349	2398.07	1844.2	950.95
967.4793	2399.4627	1849.5	951.7
967.6097	2400.8547	1843.55	949.15
967.7399	2402.246	1843.5	941.5
967.8702	2403.6366	1835.55	943.05
968.0004	2405.0265	1837.25	944.95
968.1306	2406.4156	1831.4	934.5
968.2607	2407.8041	1828.8	931.85
968.3909	2409.1918	1829.7	934.3
968.521	2410.5789	1825.3	931.7
968.651	2411.9652	1817.6	922.3
968.781	2413.3508	1813.6	919.45
968.911	2414.7358	1808.25	912.9
969.041	2416.12	1807.6	915.65
969.1709	2417.5035	1806.3	913.95
969.3008	2418.8863	1807.5	913.3
969.4307	2420.2684	1809.8	916.25
969.5606	2421.6497	1808.75	912.15
969.6904	2423.0304	1800.25	905.6
969.8201	2424.4104	1791.2	895.8
969.9499	2425.7896	1795.8	897.45
970.0796	2427.1682	1794.75	901.05
970.2093	2428.546	1787.8	893.65
970.3389	2429.9232	1786.1	892.1
970.4685	2431.2996	1784.6	891.95
970.5981	2432.6753	1790.4	895.65
970.7277	2434.0503	1783.65	888
970.8572	2435.4246	1775.25	880.75
970.9867	2436.7982	1775.95	881.9
971.1161	2438.1711	1766.75	873.2
971.2456	2439.5433	1770.75	875.5
971.375	2440.9148	1759.4	858.45
971.5043	2442.2856	1765.6	875.9
971.6336	2443.6557	1758.05	864
971.7629	2445.025	1750.35	855.55
971.8922	2446.3937	1752.95	857.35
972.0214	2447.7617	1747.4	850.35
972.1506	2449.1289	1749.1	854.5
972.2798	2450.4955	1743.15	844.8
972.4089	2451.8613	1740.7	848.8
972.538	2453.2265	1730.35	838
972.6671	2454.5909	1742.7	851.3
972.7961	2455.9546	1734.5	839.95
972.9251	2457.3177	1722.3	830.9
973.0541	2458.68	1728.5	832.9
973.1831	2460.0416	1733.9	841.15
973.312	2461.4025	1733.45	836.95
973.4408	2462.7627	1728	825.3
973.5697	2464.1222	1723	833.55
973.6985	2465.4811	1714.75	822.75
973.8273	2466.8392	1721.35	828.05
973.956	2468.1966	1723.6	828.3
974.0847	2469.5533	1726.1	830.1
974.2134	2470.9093	1724.45	830.4
974.3421	2472.2645	1714.2	819
974.4707	2473.6191	1712.6	819.9
974.5993	2474.973	1714.7	823.65
974.7278	2476.3262	1719.65	825.75
974.8563	2477.6787	1706.1	814.05
974.9848	2479.0305	1700.75	808.6
975.1132	2480.3816	1703.15	808.75
975.2417	2481.7319	1693.35	799.25
975.37	2483.0816	1683.65	790.5
975.4984	2484.4306	1691.25	800.05
975.6267	2485.7789	1685.45	795.2
975.755	2487.1264	1682	787.9
975.8833	2488.4733	1679.7	788.55
976.0115	2489.8195	1683.7	784.3
976.1397	2491.165	1685.05	791.15
976.2678	2492.5097	1685.6	791.8
976.3959	2493.8538	1677.15	785.85
976.524	2495.1972	1671.8	779.25
976.6521	2496.5398	1670.9	774.1
976.7801	2497.8818	1663.85	768.3
976.9081	2499.2231	1661.35	767.15
977.036	2500.5637	1671.85	776
977.164	2501.9035	1662.7	767.3
977.2918	2503.2427	1662.55	764.6
977.4197	2504.5812	1661.2	765.5
977.5475	2505.919	1659.65	765.4
977.6753	2507.256	1649	754.95
977.8031	2508.5924	1650.7	759.7
977.9308	2509.9281	1647.5	747.85
978.0585	2511.2631	1645.5	752.95
978.1861	2512.5974	1649.25	758.35
978.3137	2513.9309	1650.1	759.4
978.4413	2515.2638	1665.4	743.5
978.5689	2516.596	1636.5	741.95
978.6964	2517.9275	1638.5	743.95
978.8239	2519.2583	1635.15	742.3
978.9513	2520.5884	1635	739.55
979.0788	2521.9178	1628.3	734.6
979.2062	2523.2465	1629.6	739.35
979.3335	2524.5745	1624.35	732.35
979.4608	2525.9018	1623.55	731.15
979.5881	2527.2284	1618.25	726.1
979.7154	2528.5543	1624.05	733.35
979.8426	2529.8796	1621.85	727.85
979.9698	2531.2041	1619.7	729.4
980.0969	2532.5279	1614.7	722.45
980.224	2533.851	1606.2	711.75
980.3511	2535.1735	1615.1	723.95
980.4781	2536.4952	1618.55	724.25
980.6052	2537.8163	1613.95	720.45
980.7321	2539.1366	1605.9	711.4
980.8591	2540.4562	1612.2	715
980.986	2541.7752	1604.85	711.85
981.1129	2543.0935	1618.2	726.15
981.2397	2544.411	1609.45	712.9
981.3665	2545.7279	1603.05	710.95
981.4933	2547.0441	1603.1	709.1
981.62	2548.3596	1609.45	712.1
981.7467	2549.6744	1603.6	709.65
981.8734	2550.9885	1610.95	709.05
982.0001	2552.3019	1596.6	703.5
982.1267	2553.6146	1600.7	708.65
982.2532	2554.9266	1592.95	700.35
982.3798	2556.2379	1594.15	698.85
982.5063	2557.5485	1590.85	701.45
982.6327	2558.8585	1591.55	693.9
982.7592	2560.1677	1587.85	689.7
982.8856	2561.4762	1594.85	702.15
983.0119	2562.7841	1591.65	693.65
983.1383	2564.0913	1587.05	696.45
983.2646	2565.3977	1586.3	692.95
983.3908	2566.7035	1580.45	686.65
983.517	2568.0086	1577.25	683.3
983.6432	2569.313	1581.7	687.45
983.7694	2570.6167	1582.65	687.35
983.8955	2571.9197	1577	683.35
984.0216	2573.222	1577.8	682.55
984.1476	2574.5236	1575.85	680.7
984.2737	2575.8246	1585.65	689.45
984.3996	2577.1248	1569.75	675.45
984.5256	2578.4244	1578.35	686.95
984.6515	2579.7232	1577.75	684.3
984.7774	2581.0214	1605	682.65
984.9032	2582.3189	1579.7	688.2
985.029	2583.6157	1572.3	676.95
985.1548	2584.9118	1578.05	683.55
985.2806	2586.2072	1569.65	675.9
985.4063	2587.5019	1570.85	680.55
985.5319	2588.7959	1572.5	679.35
985.6576	2590.0893	1563.35	668.25
985.7832	2591.3819	1570.75	676
985.9087	2592.6739	1569.25	677.7
986.0343	2593.9652	1564.25	670.4
986.1597	2595.2557	1564.8	672.65
986.2852	2596.5456	1577.1	682.35
986.4106	2597.8348	1568.5	677.65
986.536	2599.1234	1574.3	682.65
986.6614	2600.4112	1565.15	673.4
986.7867	2601.6983	1566.95	671
986.912	2602.9848	1568.3	675.7
987.0372	2604.2705	1570.95	672.55
987.1624	2605.5556	1561.5	670.45
987.2876	2606.84	1564	672.1
987.4128	2608.1237	1553.75	661.25
987.5379	2609.4067	1551.7	659.8
987.6629	2610.689	1553.15	652.65
987.788	2611.9707	1554.2	659.25
987.913	2613.2516	1557.5	661.6
988.0379	2614.5319	1543.05	653.15
988.1629	2615.8115	1542.1	648.3
988.2878	2617.0903	1539.05	647.1
988.4126	2618.3685	1531.3	641.4
988.5375	2619.6461	1537.6	648.55
988.6622	2620.9229	1527.25	635.9
988.787	2622.199	1536.55	644.85
988.9117	2623.4745	1527.85	636.45
989.0364	2624.7493	1529.4	640.85
989.161	2626.0234	1526.4	637.8
989.2857	2627.2968	1521.1	631.2
989.4102	2628.5695	1517.6	628.9
989.5348	2629.8415	1517.5	627.4
989.6593	2631.1128	1517.55	625.2
989.7837	2632.3835	1519.8	628.35
989.9082	2633.6535	1506.8	617.45
990.0326	2634.9228	1515.8	626.8
990.1569	2636.1914	1512.1	621
990.2812	2637.4593	1518.35	627.25
990.4055	2638.7265	1519.05	626.5
990.5298	2639.9931	1509.55	619.25
990.654	2641.259	1507.65	616.8
990.7782	2642.5242	1508.75	618.7
990.9023	2643.7887	1505.6	616.3
991.0264	2645.0525	1498.55	606.9
991.1505	2646.3156	1492.6	601.4
991.2745	2647.5781	1499.3	608.75
991.3985	2648.8398	1493.7	603.95
991.5225	2650.1009	1531	606.3
991.6464	2651.3613	1494.7	606.75
991.7703	2652.6211	1480.75	589.7
991.8942	2653.8801	1481.95	592
992.018	2655.1385	1489.3	596.05
992.1418	2656.3961	1494.75	607.2
992.2655	2657.6531	1489.5	598.45
992.3892	2658.9094	1490.05	599.85
992.5129	2660.1651	1484.9	595.95
992.6366	2661.42	1485.8	597.7
992.7602	2662.6743	1488.45	598.55
992.8837	2663.9279	1493.15	604.35
993.0073	2665.1808	1496.3	605.7
993.1307	2666.433	1491.15	601.6
993.2542	2667.6846	1501.4	613
993.3776	2668.9354	1493.75	601.8
993.501	2670.1856	1495.6	605.7
993.6244	2671.4351	1495.85	607.8
993.7477	2672.6839	1500.7	608.7
993.8709	2673.9321	1500.5	613.35
993.9942	2675.1795	1503.9	614.9
994.1174	2676.4263	1504.55	615.55
994.2405	2677.6724	1497.6	608.7
994.3637	2678.9179	1505.3	617.3
994.4868	2680.1626	1499.9	613.05
994.6098	2681.4067	1500.55	610.25
994.7328	2682.6501	1498.4	610.3
994.8558	2683.8928	1497.3	608.75
994.9788	2685.1348	1495.35	605.95
995.1017	2686.3761	1483.8	596.25
995.2245	2687.6168	1480.05	592.4
995.3474	2688.8568	1479.85	589.7
995.4702	2690.0961	1480.25	592.85
995.5929	2691.3348	1479.05	591
995.7156	2692.5727	1471.9	582.1
995.8383	2693.81	1471.1	581.85
995.961	2695.0466	1474.25	586.5
996.0836	2696.2826	1473.65	583.6
996.2062	2697.5178	1477.3	584.45
996.3287	2698.7524	1474.25	585.4
996.4512	2699.9863	1480.45	591.35
996.5737	2701.2195	1473.2	586.5
996.6961	2702.452	1472.45	580.8
996.8185	2703.6839	1479.7	589.5
996.9408	2704.9151	1485.8	598.65
997.0631	2706.1456	1490.4	600.7
997.1854	2707.3755	1499.7	611.35
997.3077	2708.6046	1503.9	611.2
997.4299	2709.8331	1501.4	612.1
997.552	2711.0609	1514.25	626.3
997.6742	2712.2881	1527.9	639.8
997.7963	2713.5145	1523.9	633.05
997.9183	2714.7403	1531.4	642.4
998.0403	2715.9654	1543.15	653.65
998.1623	2717.1899	1568.35	665.5
998.2842	2718.4136	1557.35	668.15
998.4062	2719.6367	1573.45	686.05
998.528	2720.8591	1580.25	683.05
998.6498	2722.0809	1586.65	697.8
998.7716	2723.3019	1602.5	710.4
998.8934	2724.5223	1610.65	721.85
999.0151	2725.7421	1605.15	714.6
999.1368	2726.9611	1614.25	723.35
999.2584	2728.1795	1608.05	714.6
999.38	2729.3972	1597.9	708.7
999.5016	2730.6142	1604.3	702.75
999.6231	2731.8306	1569.95	678.2
999.7446	2733.0462	1562.8	673.8
999.8661	2734.2612	1556.75	665.7
999.9875	2735.4756	1535.05	646.55
1000.1089	2736.6892	1514.85	625.9
1000.2302	2737.9022	1509.9	622.2
1000.3515	2739.1145	1483.9	597.3
1000.4728	2740.3262	1488.1	593.15
1000.594	2741.5372	1467.8	579.5
1000.7152	2742.7475	1469.15	580.05
1000.8363	2743.9571	1456.5	565.85
1000.9575	2745.1661	1448.05	556.75
1001.0785	2746.3744	1437.65	549.95
1001.1996	2747.582	1422.85	536.4
1001.3206	2748.7889	1430.2	540.7
1001.4415	2749.9952	1412.4	524.1
1001.5625	2751.2008	1415.95	528.4
1001.6833	2752.4057	1412.75	525.7
1001.8042	2753.61	1405.65	517.45
1001.925	2754.8136	1397.4	508
1002.0458	2756.0165	1400.95	512.3
1002.1665	2757.2188	1398.25	511.2
1002.2872	2758.4204	1397.2	512.4
1002.4078	2759.6213	1399.1	511.4
1002.5285	2760.8215	1410.35	520.05
1002.649	2762.0211	1395.95	507.1
1002.7696	2763.22	1402	511.6
1002.8901	2764.4182	1400.1	511.6
1003.0106	2765.6158	1385.95	498.3
1003.131	2766.8127	1386.15	499.25
1003.2514	2768.009	1388.65	501.2
1003.3717	2769.2045	1385.4	499.05
1003.492	2770.3994	1374.05	485.25
1003.6123	2771.5936	1371.6	484.05
1003.7325	2772.7872	1365.65	479.7
1003.8527	2773.9801	1370.9	482.05
1003.9729	2775.1723	1384.2	480.7
1004.093	2776.3639	1366.85	482.4
1004.2131	2777.5548	1361.5	473.55
1004.3331	2778.745	1361.7	472.45
1004.4531	2779.9346	1366.5	481.45
1004.5731	2781.1235	1366.5	479.55
1004.693	2782.3117	1372.15	487.95
1004.8129	2783.4992	1367.8	480.95
1004.9328	2784.6861	1365.2	479.25
1005.0526	2785.8723	1371.55	485.35
1005.1723	2787.0579	1379.15	492.2
1005.2921	2788.2428	1377.75	491.35
1005.4118	2789.427	1383.75	499.2
1005.5314	2790.6106	1384.05	498.9
1005.651	2791.7935	1390.45	504.45
1005.7706	2792.9757	1395.85	511.2
1005.8902	2794.1573	1405.6	518.8
1006.0097	2795.3382	1411.95	527.05
1006.1291	2796.5184	1417.1	530.35
1006.2485	2797.698	1427.6	540.3
1006.3679	2798.8769	1442.15	555.4
1006.4873	2800.0551	1449.9	565.4
1006.6066	2801.2327	1459.05	570.1
1006.7258	2802.4096	1474	587.65
1006.8451	2803.5859	1476.4	591.85
1006.9642	2804.7615	1498.75	612.9
1007.0834	2805.9364	1506.7	621.4
1007.2025	2807.1106	1529.7	643.2
1007.3216	2808.2842	1552.85	665.95
1007.4406	2809.4572	1581.75	694.45
1007.5596	2810.6294	1608.25	721.75
1007.6785	2811.801	1634	749.95
1007.7975	2812.972	1666.15	782.3
1007.9163	2814.1423	1710.3	825.6
1008.0352	2815.3119	1737	849.25
1008.154	2816.4808	1785.6	899.1
1008.2727	2817.6491	1828.85	941.3
1008.3914	2818.8167	1879.8	996.7
1008.5101	2819.9837	1916.1	1025.65
1008.6288	2821.15	1975.75	1088.65
1008.7474	2822.3157	2039.25	1154.85
1008.8659	2823.4807	2092.7	1209
1008.9844	2824.645	2147.35	1261.05
1009.1029	2825.8086	2196.7	1312.3
1009.2214	2826.9716	2250.85	1364.1
1009.3398	2828.134	2314.65	1429.45
1009.4581	2829.2957	2347.45	1461.8
1009.5764	2830.4567	2372.4	1488.55
1009.6947	2831.617	2409.95	1526.95
1009.813	2832.7767	2417.15	1532
1009.9312	2833.9358	2424.7	1541.8
1010.0493	2835.0941	2407.55	1521.2
1010.1675	2836.2519	2399.95	1513.3
1010.2855	2837.4089	2374.3	1487.8
1010.4036	2838.5653	2376.55	1492.6
1010.5216	2839.7211	2358.15	1476.2
1010.6396	2840.8761	2350.6	1465.15
1010.7575	2842.0306	2357.65	1473.5
1010.8754	2843.1843	2378.85	1494.4
1010.9932	2844.3374	2391.15	1505.3
1011.111	2845.4899	2441.05	1555.1
1011.2288	2846.6417	2477.55	1596.75
1011.3465	2847.7928	2536.5	1653.55
1011.4642	2848.9433	2585.9	1700.15
1011.5818	2850.0931	2640.9	1757.65
1011.6995	2851.2422	2699.9	1813.4
1011.817	2852.3907	2757.35	1873.2
1011.9345	2853.5385	2799.75	1912.15
1012.052	2854.6857	2870.65	1958.4
1012.1695	2855.8323	2891.05	2006.9
1012.2869	2856.9781	2933.25	2050.9
1012.4042	2858.1233	2984	2098.7
1012.5216	2859.2679	3045.35	2160.1
1012.6389	2860.4118	3082.6	2198.4
1012.7561	2861.555	3125.15	2235.8
1012.8733	2862.6976	3165.15	2278.3
1012.9905	2863.8395	3195.15	2311.25
1013.1076	2864.9808	3219.45	2334.75
1013.2247	2866.1214	3246.5	2363.75
1013.3417	2867.2614	3267.15	2384.05
1013.4587	2868.4007	3282.25	2396.4
1013.5757	2869.5393	3292.25	2407.15
1013.6926	2870.6773	3303.95	2416.8
1013.8095	2871.8146	3318.05	2428.55
1013.9263	2872.9513	3315.8	2427.15
1014.0431	2874.0874	3299.75	2412.7
1014.1599	2875.2227	3280.25	2396.65
1014.2766	2876.3574	3272.45	2390
1014.3933	2877.4915	3262.45	2379.55
1014.51	2878.6249	3224.4	2340.15
1014.6266	2879.7577	3201.95	2317.15
1014.7431	2880.8898	3201.55	2305.2
1014.8596	2882.0212	3171	2289.95
1014.9761	2883.152	3163.8	2279.6
1015.0925	2884.2821	3153.85	2272.25
1015.2089	2885.4116	3134.75	2252.7
1015.3253	2886.5405	3139.95	2257
1015.4416	2887.6686	3155.8	2271.2
1015.5579	2888.7962	3159.6	2278.65
1015.6741	2889.923	3170.15	2286.05
1015.7903	2891.0493	3179.35	2295.75
1015.9065	2892.1748	3173.7	2290.1
1016.0226	2893.2997	3194.75	2312.3
1016.1387	2894.424	3210.9	2327.55
1016.2547	2895.5476	3218.65	2337.85
1016.3707	2896.6706	3230.6	2347.35
1016.4866	2897.7929	3268.95	2385.35
1016.6025	2898.9145	3287.6	2404
1016.7184	2900.0355	3298.6	2414.9
1016.8342	2901.1559	3345.05	2461.05
1016.95	2902.2756	3377.95	2489.3
1017.0658	2903.3946	3384.15	2500.25
1017.1815	2904.513	3414.95	2528.45
1017.2971	2905.6308	3437.6	2556.2
1017.4127	2906.7479	3444.8	2563
1017.5283	2907.8643	3484.15	2603.85
1017.6439	2908.9801	3499.1	2615.2
1017.7594	2910.0953	3483.55	2601.25
1017.8748	2911.2098	3491.9	2605.9
1017.9902	2912.3236	3495.6	2605.55
1018.1056	2913.4368	3470.1	2583.85
1018.2209	2914.5494	3466.35	2584.85
1018.3362	2915.6613	3444	2555.9
1018.4515	2916.7725	3416.3	2530.35
1018.5667	2917.8831	3393.35	2507.5
1018.6819	2918.9931	3367.8	2482
1018.797	2920.1024	3328.8	2445.7
1018.9121	2921.211	3304.95	2421.2
1019.0271	2922.319	3299.8	2416.5
1019.1421	2923.4264	3280.75	2399.9
1019.2571	2924.5331	3253.35	2371.7
1019.372	2925.6391	3264	2381.6
1019.4869	2926.7445	3267.85	2386.75
1019.6017	2927.8493	3283.2	2400.4
1019.7165	2928.9534	3273.55	2391.5
1019.8313	2930.0569	3279.45	2393.25
1019.946	2931.1597	3292.3	2408.05
1020.0606	2932.2619	3294.85	2413.7
1020.1753	2933.3634	3297.7	2413.05
1020.2899	2934.4643	3291.15	2402.35
1020.4044	2935.5645	3295.55	2407.35
1020.5189	2936.6641	3267.45	2380.4
1020.6334	2937.763	3233.1	2351.25
1020.7478	2938.8613	3220.6	2338.4
1020.8622	2939.959	3181.35	2293.05
1020.9765	2941.056	3119.5	2238.65
1021.0908	2942.1523	3048.25	2164.25
1021.2051	2943.248	2990.7	2107.55
1021.3193	2944.3431	2903.45	2022
1021.4334	2945.4375	2815.7	1932.2
1021.5476	2946.5313	2722.65	1841.35
1021.6617	2947.6244	2629	1747.4
1021.7757	2948.7169	2529.5	1645.7
1021.8897	2949.8087	2457.8	1576.05
1022.0037	2950.8999	2378.3	1494.9
1022.1176	2951.9904	2314.4	1433.4
1022.2315	2953.0803	2244.4	1360.85
1022.3453	2954.1696	2187.75	1305.85
1022.4591	2955.2582	2130.55	1248.85
1022.5728	2956.3462	2100.65	1216.8
1022.6865	2957.4335	2057.5	1173.8
1022.8002	2958.5202	2030.65	1145.85
1022.9138	2959.6062	1997.55	1116.4
1023.0274	2960.6916	1977.55	1095.55
1023.141	2961.7764	1959.35	1077.05
1023.2545	2962.8605	1938.4	1055.05
1023.3679	2963.9439	1931.95	1051.5
1023.4813	2965.0267	1912.3	1029.05
1023.5947	2966.1089	1943.95	1038.9
1023.708	2967.1905	1918.45	1037.2
1023.8213	2968.2714	1907.8	1025.8
1023.9346	2969.3516	1906.4	1023.75
1024.0478	2970.4312	1912.7	1022.75
1024.1609	2971.5102	1910.7	1030.9
1024.274	2972.5885	1907.55	1025.8
1024.3871	2973.6662	1926.55	1040.05
1024.5002	2974.7432	1927.3	1045.1
1024.6132	2975.8196	1919.35	1037.5
1024.7261	2976.8954	1912.65	1033.65
1024.839	2977.9705	1906.95	1025.45
1024.9519	2979.045	1895.75	1014.5
1025.0647	2980.1188	1874.85	994.7
1025.1775	2981.192	1869.1	990.05
1025.2902	2982.2645	1841.25	958.7
1025.4029	2983.3364	1833.25	950.65
1025.5156	2984.4077	1809.45	928.95
1025.6282	2985.4783	1789.6	902.05
1025.7407	2986.5483	1757.85	874.8
1025.8532	2987.6177	1723.25	842.75
1025.9657	2988.6864	1692.45	809.8
1026.0782	2989.7545	1664.5	781.65
1026.1906	2990.8219	1642.05	760.8
1026.3029	2991.8887	1610.35	726.35
1026.4152	2992.9548	1579.3	697.4
1026.5275	2994.0204	1542.8	662.7
1026.6397	2995.0852	1517.9	636.55
1026.7519	2996.1495	1494.9	613.25
1026.864	2997.2131	1470.45	588.6
1026.9761	2998.276	1453.35	572.9
1027.0882	2999.3383	1429.65	546.85
1027.2002	3000.4	1407.95	525.4
1027.3122	3001.4611	1388.7	506.8
1027.4241	3002.5215	1371.7	489.85
1027.536	3003.5812	1358.75	478.4
1027.6478	3004.6404	1347.7	465.55
1027.7596	3005.6989	1327.45	443.55
1027.8714	3006.7567	1326.8	445.85
1027.9831	3007.8139	1336.7	424.9
1028.0947	3008.8705	1301.95	421.25
1028.2064	3009.9264	1300.3	416.75
1028.3179	3010.9818	1285.05	403.9
1028.4295	3012.0364	1278.55	397.95
1028.541	3013.0905	1273.3	393.2
1028.6524	3014.1439	1268.4	386.6
1028.7638	3015.1966	1257.05	378.65
1028.8752	3016.2487	1257.3	375.35
1028.9865	3017.3002	1264.2	380.25
1029.0978	3018.3511	1252.4	374.1
1029.209	3019.4013	1250.1	368.3
1029.3202	3020.4509	1245.8	366.9
1029.4314	3021.4998	1242.2	359.65
1029.5425	3022.5481	1247.2	368.5
1029.6535	3023.5958	1242.75	361.3
1029.7645	3024.6428	1237.25	354.6
1029.8755	3025.6892	1238.7	359.25
1029.9864	3026.735	1236.65	355.4
1030.0973	3027.7802	1238.2	358.7
1030.2082	3028.8247	1237.65	357.1
1030.319	3029.8685	1234.35	353.3
1030.4297	3030.9118	1243.75	363.8
1030.5404	3031.9544	1237.8	357
1030.6511	3032.9963	1234.9	354.95
1030.7617	3034.0376	1245.55	366.4
1030.8723	3035.0783	1247.55	364.95
1030.9829	3036.1184	1242.5	362.3
1031.0934	3037.1578	1243.9	365.3
1031.2038	3038.1966	1246.3	362.25
1031.3142	3039.2348	1249.55	368.65
1031.4246	3040.2723	1255.25	366.45
1031.5349	3041.3092	1249.25	368
1031.6452	3042.3455	1251.85	372.35
1031.7554	3043.3811	1246.1	364.15
1031.8656	3044.4161	1248.8	366.05
1031.9758	3045.4505	1239.65	359.9
1032.0859	3046.4842	1248.8	367.65
1032.1959	3047.5173	1240.85	361.1
1032.3059	3048.5498	1235.95	353.55
1032.4159	3049.5816	1233	352.2
1032.5258	3050.6128	1238.2	357.8
1032.6357	3051.6434	1238.6	356.55
1032.7455	3052.6734	1229.8	348.05
1032.8553	3053.7027	1228.6	350.35
1032.9651	3054.7314	1224.05	341.45
1033.0748	3055.7594	1220.75	340.9
1033.1845	3056.7868	1224.1	344.95
1033.2941	3057.8136	1219.4	339.65
1033.4037	3058.8398	1216.9	336.55
1033.5132	3059.8653	1217.2	338.3
1033.6227	3060.8902	1216.2	334.5
1033.7321	3061.9145	1209.85	328.05
1033.8415	3062.9381	1213.2	333.4
1033.9509	3063.9612	1225.65	329.45
1034.0602	3064.9835	1205.3	323
1034.1694	3066.0053	1206.05	324.65
1034.2787	3067.0264	1197	317.3
1034.3878	3068.0469	1198.7	315.4
1034.497	3069.0668	1194.35	311.5
1034.6061	3070.086	1186.55	306.95
1034.7151	3071.1046	1182.9	302.75
1034.8241	3072.1226	1174.85	294
1034.9331	3073.1399	1168.6	289.05
1035.042	3074.1567	1165.5	285.2
1035.1508	3075.1727	1165.3	283.65
1035.2597	3076.1882	1155.5	274.6
1035.3684	3077.203	1149.5	270.8
1035.4772	3078.2173	1146.6	264.2
1035.5859	3079.2308	1141.2	256.05
1035.6945	3080.2438	1135.45	254.4
1035.8031	3081.2561	1127.15	245.25
1035.9117	3082.2678	1123.1	243.75
1036.0202	3083.2789	1115.05	233.9
1036.1286	3084.2893	1110.35	231.3
1036.2371	3085.2991	1107.7	230
1036.3454	3086.3083	1103.65	216.85
1036.4538	3087.3169	1105.65	225.65
1036.562	3088.3248	1095.85	214.6
1036.6703	3089.3321	1095.55	214.5
1036.7785	3090.3388	1084.05	204.35
1036.8866	3091.3449	1080.7	201.35
1036.9948	3092.3503	1082.05	200.45
1037.1028	3093.3551	1075.3	196.35
1037.2108	3094.3593	1072.2	193.2
1037.3188	3095.3629	1070.4	190.55
1037.4267	3096.3658	1069.15	189.65
1037.5346	3097.3681	1069.6	190.05
1037.6425	3098.3698	1063.6	185
1037.7503	3099.3708	1064.5	178.8
1037.858	3100.3713	1056.6	177.55
1037.9657	3101.3711	1058.3	177.15
1038.0734	3102.3702	1164.45	168.35
1038.181	3103.3688	1052.9	172.3
1038.2886	3104.3667	1053.05	174.25
1038.3961	3105.364	1043.1	165.35
1038.5036	3106.3607	1046.05	164.45
1038.611	3107.3568	1043.4	164.15
1038.7184	3108.3522	1044.45	163
1038.8257	3109.347	1041.7	162.55
1038.933	3110.3412	1042.35	158.85
1039.0403	3111.3348	1032.7	153.65
1039.1475	3112.3277	1030.2	151.8
1039.2547	3113.32	1032.65	156.55
1039.3618	3114.3117	1034.45	153.6
1039.4689	3115.3028	1032	152.25
1039.5759	3116.2932	1027.05	145.3
1039.6829	3117.2831	1031.2	146.45
1039.7898	3118.2723	1022.65	141.1
1039.8967	3119.2608	1017.6	137.35
1040.0035	3120.2488	1018.75	141.1
1040.1103	3121.2361	1015	134.75
1040.2171	3122.2229	1017.6	139.15
1040.3238	3123.209	1016.45	135.15
1040.4305	3124.1944	1011.15	131.3
1040.5371	3125.1793	1013.85	132.6
1040.6437	3126.1635	1013.85	134.55
1040.7502	3127.1471	1011.75	131
1040.8567	3128.1301	1007.15	129
1040.9631	3129.1125	1009.55	128.85
1041.0695	3130.0942	1008.45	131.9
1041.1759	3131.0753	1016.55	128.65
1041.2822	3132.0558	1004.4	121.55
1041.3884	3133.0357	1003.35	124.25
1041.4946	3134.015	1004	121.55
1041.6008	3134.9936	1004.4	122.75
1041.7069	3135.9716	1017	116.25
1041.813	3136.949	998.75	120.45
1041.919	3137.9258	1016.9	120.55
1042.025	3138.902	1003.6	118.8
1042.1309	3139.8775	994.6	116.9
1042.2368	3140.8524	995.85	117.4
1042.3427	3141.8267	995.65	114.6
1042.4485	3142.8004	992.05	111.85
1042.5542	3143.7735	999.95	112.55
1042.6599	3144.7459	996.75	116.1
1042.7656	3145.7178	992.9	112.2
1042.8712	3146.689	991.55	114.35
1042.9768	3147.6596	990.6	110
1043.0823	3148.6295	989.8	111.65
1043.1878	3149.5989	988.9	109.95
1043.2932	3150.5676	985	108.2
1043.3986	3151.5357	983.7	106.05
1043.5039	3152.5032	986.65	108.15
1043.6092	3153.4701	984.6	105.75
1043.7145	3154.4364	983.8	103.3
1043.8197	3155.402	982.75	103.2
1043.9248	3156.367	984.2	102.3
1044.03	3157.3315	1015.45	100.6
1044.135	3158.2952	980.85	100.15
1044.24	3159.2584	977.75	97.95
1044.345	3160.221	981.05	101.3
1044.4499	3161.1829	977.95	99.3
1044.5548	3162.1442	978.4	100.4
1044.6596	3163.105	975.9	97.85
1044.7644	3164.065	973.75	94.55
1044.8692	3165.0245	980.65	100.2
1044.9739	3165.9834	975.7	100
1045.0785	3166.9416	974.75	96.05
1045.1831	3167.8993	973.75	93.95
1045.2877	3168.8563	974.15	93.9
1045.3922	3169.8127	972.5	93.8
1045.4966	3170.7684	969.85	91.5
1045.6011	3171.7236	972.45	93
1045.7054	3172.6782	970.6	92.15
1045.8098	3173.6321	968.75	89.5
1045.914	3174.5854	972.15	90.2
1046.0183	3175.5381	969.1	88.95
1046.1224	3176.4902	968.2	89.9
1046.2266	3177.4417	966.25	87.95
1046.3307	3178.3926	968.45	90.4
1046.4347	3179.3428	965.2	89.3
1046.5387	3180.2924	963	86.95
1046.6427	3181.2415	966.35	88.6
1046.7466	3182.1899	966.8	87.85
1046.8504	3183.1377	963.25	82.1
1046.9542	3184.0848	966.55	84.35
1047.058	3185.0314	962.4	83.65
1047.1617	3185.9773	961.65	83.2
1047.2654	3186.9227	965.9	86.6
1047.369	3187.8674	960.7	81.75
1047.4726	3188.8115	963.6	78.65
1047.5761	3189.755	962.25	83.95
1047.6796	3190.6979	958.4	78.25
1047.783	3191.6402	958.55	82.1
1047.8864	3192.5818	957.7	76.8
1047.9898	3193.5229	966.75	81.75
1048.0931	3194.4633	957.45	77.6
1048.1963	3195.4031	957.4	78.1
1048.2995	3196.3423	955.05	78.1
1048.4027	3197.2809	953.3	75
1048.5058	3198.2189	957.7	80.35
1048.6089	3199.1563	974.9	80.25
1048.7119	3200.0931	954	76.95
1048.8148	3201.0292	953.85	77.05
1048.9178	3201.9648	951.6	71
1049.0206	3202.8997	956.6	77.25
1049.1235	3203.834	953.9	77.9
1049.2262	3204.7677	954.95	77.35
1049.329	3205.7008	952.5	73
1049.4317	3206.6333	951.05	75.55
1049.5343	3207.5652	950.6	71.65
1049.6369	3208.4964	954.4	76.15
1049.7394	3209.4271	946.4	67.1
1049.8419	3210.3571	949.6	71.7
1049.9444	3211.2865	951.3	71.1
1050.0468	3212.2154	951.55	73.25
1050.1491	3213.1436	953.6	71.3
1050.2514	3214.0712	951.65	64.95
1050.3537	3214.9982	946.85	69
1050.4559	3215.9246	951.6	73.25
1050.5581	3216.8503	945.85	68
1050.6602	3217.7755	946.45	66.9
1050.7623	3218.7001	943.6	67.25
1050.8643	3219.624	944.75	67.9
1050.9663	3220.5473	947.3	69.05
1051.0682	3221.4701	947.5	68.8
1051.1701	3222.3922	946.55	66.55
1051.2719	3223.3137	944.85	66.75
1051.3737	3224.2346	945.6	68.35
1051.4754	3225.1549	945.3	67.25
1051.5771	3226.0746	942.15	65.7
1051.6788	3226.9937	944.15	65.7
1051.7804	3227.9121	941.4	65.8
1051.8819	3228.83	946.25	70.25
1051.9834	3229.7473	939.4	62.65
1052.0849	3230.6639	943.3	63.8
1052.1863	3231.5799	940.4	62.2
1052.2876	3232.4954	940	63.1
1052.3889	3233.4102	939.8	62.6
1052.4902	3234.3244	941.3	62.5
1052.5914	3235.238	935.25	57.15
1052.6926	3236.151	962.6	61.05
1052.7937	3237.0634	937.35	60.7
1052.8948	3237.9752	937.45	58.05
1052.9958	3238.8864	937.7	57.65
1053.0968	3239.797	936.1	57.15
1053.1977	3240.7069	936.8	59.25
1053.2986	3241.6163	938.3	59.1
1053.3994	3242.5251	929.4	51.6
1053.5002	3243.4332	935.1	57.85
1053.6009	3244.3408	933.45	54.35
1053.7016	3245.2477	933.85	55.85
1053.8022	3246.154	934.75	56.7
1053.9028	3247.0598	934.35	55.2
1054.0034	3247.9649	931.95	55.15
1054.1039	3248.8694	931.7	54.1
1054.2043	3249.7733	932.15	56.2
1054.3047	3250.6766	933.05	55
1054.4051	3251.5793	931.4	52.6
1054.5054	3252.4814	928.55	50
1054.6056	3253.3829	931.7	56.25
1054.7058	3254.2838	930.95	53.45
1054.806	3255.1841	932.05	56.05
1054.9061	3256.0838	929.7	50.85
1055.0061	3256.9829	926.55	50.3
1055.1062	3257.8814	931.7	52.6
1055.2061	3258.7792	929.65	50.65
1055.306	3259.6765	925.4	47.95
1055.4059	3260.5731	925.5	48.05
1055.5057	3261.4692	924.65	47.6
1055.6055	3262.3647	924.5	47.4
1055.7052	3263.2595	922.65	46.3
1055.8049	3264.1538	924.35	47.1
1055.9045	3265.0474	925.25	48.05
1056.0041	3265.9404	922	46
1056.1036	3266.8329	919.9	42.8
1056.2031	3267.7247	929.95	42.05
1056.3025	3268.616	918.85	42.2
1056.4019	3269.5066	919.35	40.2
1056.5013	3270.3966	917.8	37.5
1056.6005	3271.286	912.45	35.7
