Software Version:	3.9.2.0
Unit SN:	10000200
Spectrometer SN:	6960
Date:	3/8/2024 12:13:15 PM
Data Line Index:	25
Spectral Points:	2048
Integration time (ms):	125
Averages:	20
Delay (ms):	30000
Sequence Number:	1
Processing:	dark subtract
Laser Power (mW):	305
Laser Current (mA):	822
Laser Diode Temp (C):	25
Laser Case Temp (C):	25.6
System Temp (C):	25.7
Spectrometer Temp (C):	23.6
CCD Temp (C):	0.007
Secondary Temp (C):	20.013
Heatsink Temp (C):	19.795
CCDPCB Temp (C):	34.573
SecondaryPCB Temp (C):	29.048

Wavelength	RamanShift	Raw Counts	Dark Subtracted
787.061	30.1047	434.1	25.95
787.2016	32.3739	434.75	27.7
787.3422	34.6426	436.25	29.1
787.4828	36.9109	440.9	33
787.6235	39.1787	446.8	32.8
787.7642	41.4461	452.9	35.2
787.9049	43.7131	457.35	35.3
788.0456	45.9796	466.7	43.9
788.1863	48.2456	474.5	47.3
788.3271	50.5112	479.05	46.55
788.4679	52.7764	485.85	52.25
788.6087	55.0411	494	53.9
788.7496	57.3054	503.8	57.3
788.8904	59.5692	512.2	64.7
789.0313	61.8326	516.9	68.15
789.1722	64.0955	528.55	78.85
789.3132	66.3579	538.05	82.5
789.4541	68.6199	550.8	88.9
789.5951	70.8815	577.2	110.35
789.7361	73.1426	635.45	163.5
789.8771	75.4032	775	302.3
790.0181	77.6634	1121.25	644.45
790.1592	79.9231	1934.45	1452.75
790.3003	82.1824	3622.2	3127.95
790.4414	84.4412	6570.55	6056.05
790.5825	86.6995	10515.95	9984.9
790.7237	88.9574	14253.05	13701.35
790.8648	91.2148	16743.3	16179.6
791.006	93.4717	17810.25	17240.5
791.1472	95.7282	17854.8	17276.2
791.2885	97.9842	17571	16991.9
791.4297	100.2398	17023.15	16439.85
791.571	102.4949	16401.15	15814.55
791.7123	104.7495	15702.65	15117.75
791.8536	107.0036	15036.75	14445.15
791.9949	109.2573	14433.95	13845.25
792.1363	111.5105	13875.15	13281
792.2777	113.7632	13391.3	12795.75
792.4191	116.0154	12988.2	12380.8
792.5605	118.2672	12679.3	12078.3
792.7019	120.5185	12374.75	11772.85
792.8434	122.7693	12123.75	11521.1
792.9849	125.0197	11975.95	11366.05
793.1264	127.2696	11774.55	11163.75
793.2679	129.519	11653.15	11038.7
793.4094	131.7679	11457.8	10841.65
793.551	134.0163	11249.3	10628.1
793.6926	136.2642	11006.1	10382.45
793.8342	138.5117	10734.15	10102.45
793.9758	140.7587	10454.8	9825.85
794.1175	143.0052	10177.3	9545.2
794.2591	145.2512	9881.15	9251.05
794.4008	147.4967	9648.6	9015.1
794.5425	149.7417	9446.6	8811.15
794.6842	151.9863	9270.35	8629.3
794.826	154.2304	9190.65	8546.8
794.9677	156.4739	9095.75	8449.55
795.1095	158.717	9052.75	8401.55
795.2513	160.9596	8932.8	8279.15
795.3931	163.2017	8786.8	8133.55
795.535	165.4433	8632.5	7976.15
795.6768	167.6844	8418.05	7757.45
795.8187	169.925	8203.3	7540.25
795.9606	172.1651	7942.75	7279.15
796.1025	174.4047	7749.65	7081.2
796.2445	176.6439	7554.3	6885.35
796.3864	178.8825	7434.5	6757.6
796.5284	181.1206	7305.8	6626.45
796.6704	183.3582	7212.35	6530.95
796.8124	185.5954	7132.35	6448
796.9544	187.832	7095.5	6406.55
797.0965	190.0681	7082.8	6395.5
797.2386	192.3037	7072.9	6381.45
797.3806	194.5388	7054.45	6357.5
797.5228	196.7734	7088.7	6393.35
797.6649	199.0075	7116.45	6418.65
797.807	201.2411	7174.95	6474.6
797.9492	203.4742	7238.75	6537.3
798.0914	205.7068	7337	6631.4
798.2336	207.9389	7409.75	6704.55
798.3758	210.1704	7523.65	6822.9
798.518	212.4015	7590.6	6901.25
798.6603	214.632	7716.4	7028.8
798.8025	216.862	7779.3	7096.6
798.9448	219.0915	7864.45	7177.85
799.0871	221.3205	7924.15	7234.55
799.2294	223.549	7959.9	7277.1
799.3718	225.777	7978.25	7295.2
799.5141	228.0044	8011.6	7317.5
799.6565	230.2314	8029.5	7336.65
799.7989	232.4578	8063.25	7364.1
799.9413	234.6837	8056.4	7350.4
800.0837	236.909	8099.35	7389.55
800.2262	239.1339	8067.95	7335.7
800.3687	241.3582	8039.85	7324.05
800.5111	243.582	7997.7	7252.05
800.6536	245.8053	7972.9	7237.7
800.7961	248.0281	7941.15	7209.6
800.9387	250.2503	7965.6	7232
801.0812	252.472	8014.2	7280.3
801.2238	254.6932	8096.95	7362.6
801.3664	256.9139	8168.5	7434.35
801.509	259.134	8307.4	7567.8
801.6516	261.3536	8463.3	7723.05
801.7942	263.5727	8715.2	7977.85
801.9369	265.7912	8922.95	8185.6
802.0795	268.0092	9187.45	8449.05
802.2222	270.2267	9430.5	8687.8
802.3649	272.4436	9606.95	8866.5
802.5076	274.6601	9714.7	8960.9
802.6504	276.8759	9712.1	8964.8
802.7931	279.0913	9663.3	8913.9
802.9359	281.3061	9579.95	8828.8
803.0787	283.5204	9557.25	8803.3
803.2215	285.7341	9562.8	8806.95
803.3643	287.9473	9566.2	8807.25
803.5071	290.16	9567.1	8807.1
803.6499	292.3721	9523.65	8772
803.7928	294.5837	9565.65	8810.65
803.9357	296.7947	9671.1	8916.05
804.0786	299.0052	9801.1	9045.95
804.2215	301.2152	9877.45	9116.5
804.3644	303.4246	9805.45	9048.85
804.5074	305.6334	9651.75	8895.8
804.6503	307.8418	9430.3	8672.4
804.7933	310.0495	9165.7	8403.9
804.9363	312.2568	8866.55	8103.9
805.0793	314.4635	8521.05	7758.1
805.2223	316.6696	8239.1	7472.9
805.3653	318.8752	8004.8	7228.9
805.5084	321.0802	7914	7147.05
805.6514	323.2847	7893.8	7126.85
805.7945	325.4887	7932.65	7163.85
805.9376	327.692	7972.85	7197.1
806.0807	329.8949	7978.6	7207.2
806.2238	332.0972	7920.25	7142.4
806.367	334.2989	7803.35	7026.9
806.5101	336.5001	7646.9	6869.85
806.6533	338.7007	7490.5	6710.65
806.7965	340.9008	7349.55	6570.55
806.9397	343.1003	7180.4	6397.3
807.0829	345.2992	7071.55	6290.5
807.2261	347.4976	6969.45	6184.7
807.3693	349.6955	6882.25	6093.95
807.5126	351.8927	6838.9	6050.7
807.6559	354.0895	6781.95	5980.35
807.7991	356.2856	6726.75	5935
807.9424	358.4812	6666.05	5874.5
808.0857	360.6763	6660.75	5866.6
808.2291	362.8707	6637.5	5841.95
808.3724	365.0646	6654.2	5856.35
808.5158	367.258	6695.35	5896.9
808.6591	369.4508	6754.3	5949.4
808.8025	371.643	6876.4	6077.55
808.9459	373.8346	6943.15	6139.35
809.0893	376.0257	7040.25	6235.65
809.2327	378.2162	7137.15	6328.4
809.3762	380.4062	7138.65	6335.75
809.5196	382.5956	7079.7	6279.45
809.6631	384.7844	7008	6213.3
809.8066	386.9726	6872.7	6076.75
809.9501	389.1603	6793.2	5997
810.0936	391.3474	6774.2	5945.7
810.2371	393.5339	6708.2	5907.85
810.3806	395.7199	6712.65	5915.35
810.5241	397.9052	6791	5993.05
810.6677	400.09	6880	6078.5
810.8113	402.2743	7055.2	6254.75
810.9548	404.4579	7161.65	6359.9
811.0984	406.641	7335.65	6534.1
811.2421	408.8235	7452.45	6648.55
811.3857	411.0054	7546.65	6738.3
811.5293	413.1868	7612.65	6800.85
811.673	415.3675	7636.4	6821.6
811.8166	417.5477	7596.8	6781.55
811.9603	419.7273	7531.7	6714.75
812.104	421.9064	7432	6609
812.2477	424.0848	7391.6	6573.95
812.3914	426.2627	7299.4	6482.85
812.5351	428.4399	7131.55	6315.3
812.6788	430.6166	6907.65	6086.8
812.8226	432.7928	6656.95	5833.15
812.9663	434.9683	6447.1	5626.25
813.1101	437.1432	6271.15	5447.3
813.2539	439.3176	6133.75	5314.9
813.3977	441.4914	6061.1	5247
813.5415	443.6645	6058.55	5239.6
813.6853	445.8371	6025.25	5204.1
813.8291	448.0091	6011.65	5191.3
813.973	450.1806	6021.75	5198.5
814.1168	452.3514	5988.95	5165.6
814.2607	454.5216	6036	5202.95
814.4046	456.6913	6041.3	5217.3
814.5485	458.8603	6058.4	5233.15
814.6924	461.0288	6090.1	5268.4
814.8363	463.1967	6102.65	5282.5
814.9802	465.3639	6094.35	5270.85
815.1241	467.5306	6066.95	5245.3
815.2681	469.6967	6061.85	5240
815.412	471.8622	6042.8	5221
815.556	474.0271	6072	5248.4
815.7	476.1914	6072.7	5241.65
815.844	478.3551	6083.75	5259.65
815.988	480.5182	6114.6	5287.5
816.132	482.6807	6167.1	5342.75
816.276	484.8426	6312.8	5490.75
816.4201	487.0039	6554.85	5731.3
816.5641	489.1647	6832.15	6006.7
816.7082	491.3248	7064.6	6234.05
816.8522	493.4843	7132.15	6302.75
816.9963	495.6432	7083.6	6253.45
817.1404	497.8015	6977.15	6142.65
817.2845	499.9592	6868.25	6033.35
817.4286	502.1163	6700.75	5863.15
817.5727	504.2728	6462.4	5627.7
817.7168	506.4287	6250.6	5418.85
817.861	508.5839	6052.45	5222.9
818.0051	510.7386	5932.25	5103.65
818.1493	512.8927	5878.9	5038.65
818.2935	515.0461	5880	5041.4
818.4377	517.199	5960.4	5123.35
818.5818	519.3512	6104.7	5263.3
818.726	521.5029	6355.1	5511.4
818.8703	523.6539	6617.95	5779.7
819.0145	525.8043	6743.75	5903.05
819.1587	527.9541	6666.2	5825.45
819.303	530.1033	6465.35	5624.7
819.4472	532.2519	6300.7	5457.3
819.5915	534.3999	6217.65	5374.95
819.7357	536.5472	6187.35	5344.4
819.88	538.694	6279.9	5441.35
820.0243	540.8401	6434.65	5593.1
820.1686	542.9856	6550.35	5700.55
820.3129	545.1305	6579.95	5725.2
820.4572	547.2748	6535.1	5685.5
820.6016	549.4185	6448.9	5596.85
820.7459	551.5615	6362.7	5511.55
820.8902	553.704	6401	5546
821.0346	555.8458	6484.65	5635.55
821.1789	557.987	6626.1	5777.7
821.3233	560.1276	6819.7	5969.8
821.4677	562.2675	7152.25	6302.65
821.6121	564.4069	7592.45	6743.95
821.7565	566.5456	8047.6	7201.4
821.9009	568.6837	8182.6	7333.75
822.0453	570.8212	7919.5	7071.65
822.1897	572.958	7370.45	6521.1
822.3342	575.0942	6816.2	5972.55
822.4786	577.2299	6415.1	5569
822.6231	579.3648	6230.75	5390.75
822.7675	581.4992	6165.75	5324.9
822.912	583.6329	6232.7	5394.6
823.0565	585.766	6338.9	5498.9
823.201	587.8985	6473.95	5630.25
823.3454	590.0304	6584.4	5710.65
823.4899	592.1616	6624.2	5772.55
823.6345	594.2922	6556.9	5703.45
823.779	596.4222	6422.2	5564.9
823.9235	598.5515	6235.05	5380
824.068	600.6802	6098.3	5243.3
824.2126	602.8083	5988.85	5132.7
824.3571	604.9358	5969.85	5116.8
824.5017	607.0626	5974.75	5116.75
824.6462	609.1888	6076.4	5216.1
824.7908	611.3144	6222.05	5362.75
824.9354	613.4393	6392.45	5533.45
825.08	615.5636	6542.35	5678.1
825.2246	617.6873	6617.35	5756.55
825.3692	619.8103	6582.7	5723.25
825.5138	621.9327	6425.3	5564.35
825.6584	624.0544	6217.5	5358.05
825.803	626.1756	6020.9	5165.05
825.9477	628.2961	5903.35	5042.5
826.0923	630.4159	5823.95	4962
826.237	632.5351	5810.3	4947.3
826.3816	634.6537	5811	4946.75
826.5263	636.7716	5828.75	4963.2
826.6709	638.8889	5808.75	4942.35
826.8156	641.0056	5836.8	4970.4
826.9603	643.1216	5841.15	4975.55
827.105	645.237	5830.85	4962.25
827.2497	647.3518	5750.35	4889.45
827.3944	649.4659	5674.8	4812.8
827.5391	651.5793	5624.9	4763.45
827.6838	653.6922	5589.15	4725.15
827.8285	655.8043	5582.05	4719.4
827.9733	657.9159	5584.35	4719.4
828.118	660.0268	5571.3	4705.1
828.2627	662.137	5585.8	4719.15
828.4075	664.2466	5602.65	4732.15
828.5522	666.3556	5596.75	4727
828.697	668.4639	5548.1	4677.3
828.8418	670.5716	5508.5	4642.8
828.9865	672.6786	5467.45	4597.75
829.1313	674.785	5417.35	4548.6
829.2761	676.8907	5368.65	4500.55
829.4209	678.9958	5359.3	4495.2
829.5657	681.1002	5350.6	4481.7
829.7105	683.204	5342.6	4467
829.8553	685.3072	5334.15	4462.95
830.0001	687.4097	5313.7	4440.7
830.1449	689.5115	5317.5	4443.8
830.2898	691.6127	5307.65	4436.6
830.4346	693.7132	5324.25	4453.05
830.5794	695.8131	5340.7	4449.8
830.7243	697.9123	5354.25	4478.65
830.8691	700.0109	5382.75	4509.75
831.014	702.1089	5440.55	4568.7
831.1588	704.2061	5495	4622.8
831.3037	706.3028	5567.35	4692.55
831.4486	708.3987	5636.95	4762.4
831.5935	710.4941	5664.65	4792.15
831.7383	712.5887	5678.4	4802.8
831.8832	714.6827	5687.05	4812.6
832.0281	716.7761	5712.15	4838.15
832.173	718.8688	5781	4903.1
832.3179	720.9608	5831.3	4950.8
832.4628	723.0522	5972.1	5091.2
832.6077	725.1429	6074.65	5200
832.7527	727.233	6207.35	5330.15
832.8976	729.3224	6325.05	5445.95
833.0425	731.4112	6353.85	5477.15
833.1874	733.4993	6239.75	5359.25
833.3324	735.5867	6049.3	5170.25
833.4773	737.6735	5849.4	4969.1
833.6222	739.7596	5662.6	4781.5
833.7672	741.845	5535.2	4655.15
833.9122	743.9298	5493.45	4612.9
834.0571	746.014	5466.35	4588
834.2021	748.0974	5445.55	4563.65
834.347	750.1802	5441.5	4560.55
834.492	752.2624	5466.15	4588.1
834.637	754.3439	5488.35	4604.35
834.782	756.4247	5553.9	4662.15
834.9269	758.5048	5649.6	4765.65
835.0719	760.5843	5835.9	4951.3
835.2169	762.6631	6120.95	5235.85
835.3619	764.7413	6520.15	5638
835.5069	766.8188	7053.95	6170.4
835.6519	768.8956	7565.05	6680.65
835.7969	770.9718	7925.65	7041.8
835.9419	773.0473	7947.65	7063.05
836.0869	775.1221	7816.05	6935.95
836.232	777.1962	7637.25	6753.05
836.377	779.2697	7653	6766.6
836.522	781.3426	7817.8	6917.1
836.667	783.4147	7949.75	7063.25
836.8121	785.4862	7986.55	7105.25
836.9571	787.557	7778.4	6895.45
837.1021	789.6271	7398.65	6513.95
837.2472	791.6966	6864.7	5981.75
837.3922	793.7654	6337.6	5454.95
837.5373	795.8335	5971.65	5084.5
837.6823	797.901	5730.8	4847.5
837.8274	799.9678	5583.1	4696.35
837.9724	802.0339	5513.05	4627.3
838.1175	804.0993	5476.25	4581.95
838.2626	806.1641	5434.3	4548.35
838.4076	808.2282	5378.45	4492.75
838.5527	810.2916	5334.1	4445.25
838.6978	812.3544	5266.35	4382.45
838.8428	814.4164	5212.2	4327.1
838.9879	816.4778	5233.75	4340.4
839.133	818.5385	5273.55	4381.55
839.2781	820.5986	5361.45	4473.25
839.4232	822.658	5533.75	4642.55
839.5682	824.7166	5811.3	4922.65
839.7133	826.7747	6227.9	5341.3
839.8584	828.832	6714.35	5824.2
840.0035	830.8886	7107.55	6216.75
840.1486	832.9446	7332.6	6440.9
840.2937	834.9999	7272	6381.1
840.4388	837.0545	7009.4	6116.05
840.5839	839.1085	6674.75	5783.3
840.729	841.1618	6356.3	5462.6
840.8741	843.2143	6112.65	5220.5
841.0192	845.2662	5918.95	5025.35
841.1643	847.3175	5789.1	4897.05
841.3095	849.368	5716	4823.3
841.4546	851.4179	5664.2	4777.1
841.5997	853.467	5602.3	4710.75
841.7448	855.5155	5558.25	4668.95
841.8899	857.5633	5515.95	4625.25
842.0351	859.6105	5478.95	4590.6
842.1802	861.6569	5401.9	4509.45
842.3253	863.7027	5350.35	4455.25
842.4704	865.7478	5290.05	4398.1
842.6156	867.7922	5245.05	4355.6
842.7607	869.8359	5225.35	4331.75
842.9058	871.8789	5209.35	4315.6
843.0509	873.9212	5274.7	4350.6
843.1961	875.9629	5299.9	4407.2
843.3412	878.0039	5374.1	4480.2
843.4863	880.0441	5434.4	4543
843.6315	882.0837	5502.4	4608.05
843.7766	884.1226	5549.8	4656.4
843.9218	886.1609	5609.6	4716.5
844.0669	888.1984	5761.4	4868.95
844.212	890.2352	5912.65	5019.7
844.3572	892.2714	5982.35	5084.75
844.5023	894.3069	5949.45	5055.25
844.6475	896.3416	5788.75	4895.3
844.7926	898.3757	5639.45	4745.6
844.9377	900.4091	5514.95	4618.65
845.0829	902.4418	5491.75	4591.35
845.228	904.4739	5508.65	4607.85
845.3732	906.5052	5582.7	4686.8
845.5183	908.5358	5593.15	4697.25
845.6635	910.5658	5527.15	4628.55
845.8086	912.595	5348.35	4451.55
845.9538	914.6236	5168	4274.7
846.0989	916.6515	5033	4135.8
846.2441	918.6786	4949.4	4050.8
846.3892	920.7051	4946.65	4048
846.5344	922.7309	4980.2	4080.85
846.6795	924.756	4984.1	4087.95
846.8246	926.7804	5041.55	4143.3
846.9698	928.8041	5065.9	4168.95
847.1149	930.8272	5101.45	4205.7
847.2601	932.8495	5103.75	4204.95
847.4052	934.8711	5085.8	4185.9
847.5504	936.892	5073.75	4176.2
847.6955	938.9123	5107.45	4207.4
847.8407	940.9318	5194.35	4298.35
847.9858	942.9506	5243.75	4345.45
848.131	944.9688	5226.85	4330.85
848.2761	946.9862	5157.05	4261.7
848.4213	949.003	5022.75	4123.65
848.5664	951.019	4901.85	4003.05
848.7115	953.0344	4846.6	3947.25
848.8567	955.0491	4803.8	3904.05
849.0018	957.063	4822.4	3920.4
849.147	959.0763	4865.9	3972
849.2921	961.0888	4895.5	3996.95
849.4373	963.1007	4919.95	4023.35
849.5824	965.1119	4928.65	4032.4
849.7275	967.1223	4914.65	4023.55
849.8727	969.1321	4884	3993.25
850.0178	971.1412	4878.85	3986.05
850.1629	973.1495	4864.55	3969.2
850.3081	975.1572	4889.7	3959.55
850.4532	977.1641	4881.8	3980.8
850.5983	979.1704	4862.2	3960.8
850.7435	981.1759	4848.15	3945.35
850.8886	983.1808	4833.25	3932
851.0337	985.1849	4840.15	3930.7
851.1788	987.1884	4871.7	3971.75
851.324	989.1911	4918.15	4018.25
851.4691	991.1932	4960.35	4060.05
851.6142	993.1945	4989.45	4091.55
851.7593	995.1951	4976.65	4077.95
851.9045	997.1951	4950.8	4045.15
852.0496	999.1943	4931.75	4032.2
852.1947	1001.1928	4961.35	4060.45
852.3398	1003.1906	4991.75	4092.7
852.4849	1005.1877	5102.9	4204.85
852.63	1007.1841	5209.4	4312.1
852.7751	1009.1798	5261.8	4361.9
852.9202	1011.1748	5245.15	4348.05
853.0653	1013.1691	5149.25	4249.85
853.2104	1015.1627	5001.25	4103.6
853.3555	1017.1556	4840.3	3942.35
853.5006	1019.1477	4751.75	3853.5
853.6457	1021.1392	4650.65	3757.55
853.7908	1023.1299	4614.85	3723.85
853.9359	1025.12	4622.9	3727.25
854.081	1027.1093	4694.4	3808.5
854.2261	1029.0979	4783.75	3899.85
854.3712	1031.0859	4878.75	3989.7
854.5163	1033.0731	4919.7	4026.5
854.6613	1035.0596	4910.6	4018.55
854.8064	1037.0454	4845.85	3950.65
854.9515	1039.0304	4792.5	3895.05
855.0965	1041.0148	4702.65	3804.75
855.2416	1042.9985	4633.25	3735.4
855.3867	1044.9814	4584.95	3684.4
855.5317	1046.9636	4528.6	3625.3
855.6768	1048.9452	4532	3635.85
855.8219	1050.926	4575.55	3679.5
855.9669	1052.9061	4642.55	3746.45
856.112	1054.8855	4650.25	3753.85
856.257	1056.8642	4666.85	3770.8
856.4021	1058.8421	4692.75	3792.4
856.5471	1060.8194	4713.5	3815.2
856.6921	1062.7959	4750.05	3851.4
856.8372	1064.7717	4803.1	3902.5
856.9822	1066.7469	4867.25	3967.65
857.1272	1068.7213	4917.5	4015.95
857.2723	1070.695	5007.2	4107.45
857.4173	1072.6679	5079.05	4175.35
857.5623	1074.6402	5117.55	4215.95
857.7073	1076.6117	5131.9	4228.15
857.8523	1078.5826	5023.7	4121.25
857.9973	1080.5527	4904.15	4002.2
858.1423	1082.5221	4776.25	3877.05
858.2873	1084.4908	4680.35	3781.5
858.4323	1086.4587	4642.7	3742.55
858.5773	1088.426	4651.1	3751.4
858.7223	1090.3925	4675.85	3771.75
858.8673	1092.3584	4700.75	3800.25
859.0123	1094.3235	4745.8	3845.3
859.1573	1096.2879	4818.45	3917.3
859.3022	1098.2515	4946.85	4047.4
859.4472	1100.2145	5082.85	4184.15
859.5922	1102.1767	5248.6	4349.15
859.7371	1104.1382	5437.25	4539.05
859.8821	1106.099	5647.95	4747.35
860.027	1108.0591	5849.7	4952.7
860.172	1110.0185	6001.9	5102.35
860.3169	1111.9771	6071	5171.1
860.4619	1113.9351	6039.25	5142.05
860.6068	1115.8923	6002.5	5101.35
860.7517	1117.8488	5937.25	5035.05
860.8967	1119.8045	5818.85	4918.35
861.0416	1121.7596	5680.75	4778.35
861.1865	1123.7139	5514.4	4618.2
861.3314	1125.6675	5426.2	4528.15
861.4763	1127.6204	5418	4520.6
861.6212	1129.5726	5435.95	4538.2
861.7661	1131.524	5416.25	4517.85
861.911	1133.4748	5291.2	4390.55
862.0559	1135.4248	5146.45	4245.75
862.2008	1137.3741	4974.4	4075.4
862.3457	1139.3226	4859.95	3958.25
862.4905	1141.2705	4816.4	3917.05
862.6354	1143.2176	4811.65	3906.2
862.7803	1145.164	4799.05	3897.55
862.9251	1147.1097	4736.65	3837.15
863.07	1149.0546	4647.3	3747.55
863.2148	1150.9989	4536.45	3634.4
863.3597	1152.9424	4439.15	3540.15
863.5045	1154.8852	4381.35	3480.6
863.6493	1156.8272	4345.4	3446.6
863.7942	1158.7686	4351.3	3443.5
863.939	1160.7092	4369.05	3468.8
864.0838	1162.6491	4424.25	3521.65
864.2286	1164.5883	4484.3	3585.7
864.3734	1166.5267	4589.85	3687.85
864.5182	1168.4644	4712.6	3813
864.663	1170.4014	4842.75	3939.15
864.8078	1172.3377	5023.8	4125.3
864.9526	1174.2732	5240.9	4344.1
865.0974	1176.2081	5561.15	4661.75
865.2421	1178.1421	6005.4	5103.45
865.3869	1180.0755	6499.85	5602.45
865.5317	1182.0082	6879.4	5980.5
865.6764	1183.9401	7075.75	6176.7
865.8212	1185.8713	6962.85	6066.5
865.9659	1187.8017	6635.5	5741.15
866.1106	1189.7315	6229.3	5340.95
866.2554	1191.6605	5863.15	4975.3
866.4001	1193.5888	5603.45	4710.1
866.5448	1195.5163	5435.5	4541.9
866.6895	1197.4432	5331	4431.45
866.8342	1199.3693	5244.85	4346.95
866.9789	1201.2947	5205.45	4305.25
867.1236	1203.2193	5171.1	4271.85
867.2683	1205.1432	5150.25	4249.7
867.413	1207.0664	5122.7	4222.75
867.5576	1208.9889	5134.45	4235
867.7023	1210.9106	5144.75	4246
867.847	1212.8316	5152.05	4253.15
867.9916	1214.7519	5196.7	4288.55
868.1363	1216.6715	5230.1	4328.85
868.2809	1218.5903	5288.95	4390.9
868.4255	1220.5084	5379.15	4480.4
868.5701	1222.4257	5491.75	4593.2
868.7148	1224.3424	5545.35	4649.3
868.8594	1226.2583	5667.6	4769.35
869.004	1228.1735	5802.55	4901.7
869.1486	1230.0879	5982.95	5080.95
869.2932	1232.0016	6179.45	5280.05
869.4377	1233.9146	6353.6	5453.75
869.5823	1235.8269	6442.7	5545.45
869.7269	1237.7384	6446.5	5548.85
869.8715	1239.6492	6361.2	5463.5
870.016	1241.5592	6361.9	5462.3
870.1606	1243.4686	6422.9	5525.25
870.3051	1245.3772	6586.2	5686.65
870.4496	1247.285	6832.6	5934.8
870.5941	1249.1922	7103.7	6204.5
870.7387	1251.0986	7324.95	6427.55
870.8832	1253.0042	7514.95	6620.9
871.0277	1254.9092	7690.85	6791.4
871.1722	1256.8134	7815.75	6918.55
871.3167	1258.7169	7935.4	7037.5
871.4611	1260.6196	8046.7	7149.8
871.6056	1262.5216	8187.6	7287.6
871.7501	1264.4229	8363.6	7468.9
871.8945	1266.3234	8502.65	7603.65
872.039	1268.2232	8635.75	7736.6
872.1834	1270.1223	8679.2	7779.95
872.3278	1272.0207	8735.1	7838.55
872.4723	1273.9183	8711.3	7809.5
872.6167	1275.8151	8627.95	7730.9
872.7611	1277.7113	8594.75	7695.7
872.9055	1279.6067	8684.9	7788
873.0499	1281.5014	8955.25	8057
873.1943	1283.3953	9468.85	8570.1
873.3386	1285.2885	10105.55	9209.65
873.483	1287.181	10825.5	9929.4
873.6274	1289.0727	11502.85	10605.7
873.7717	1290.9637	11979.35	11083.65
873.9161	1292.854	12320.8	11423.35
874.0604	1294.7435	12343.95	11444.55
874.2047	1296.6323	12155.75	11258.6
874.349	1298.5204	11854.2	10950.55
874.4933	1300.4077	11478.75	10577.9
874.6376	1302.2943	11040.2	10142.05
874.7819	1304.1802	10599.05	9703.5
874.9262	1306.0653	10072.85	9175.85
875.0705	1307.9497	9566.15	8668.65
875.2147	1309.8333	9085.2	8188.65
875.359	1311.7162	8738	7840.5
875.5032	1313.5984	8524.55	7624.95
875.6475	1315.4798	8411.3	7505.4
875.7917	1317.3605	8343	7428.5
875.9359	1319.2405	8255.25	7356.25
876.0801	1321.1197	8071.25	7172
876.2243	1322.9982	7770.85	6867.4
876.3685	1324.876	7460.6	6564.95
876.5127	1326.753	7122.9	6224.7
876.6569	1328.6293	6858.1	5956.95
876.801	1330.5048	6603.15	5702.7
876.9452	1332.3796	6381.4	5484
877.0893	1334.2537	6241.95	5317.5
877.2335	1336.127	6085.5	5185.6
877.3776	1337.9996	6005.6	5107.35
877.5217	1339.8714	5962.6	5065.25
877.6658	1341.7426	5968.95	5027
877.8099	1343.6129	5937.15	5037
877.954	1345.4826	5933.3	5034.1
878.0981	1347.3515	5907.1	5005.05
878.2422	1349.2196	5864.45	4963.2
878.3862	1351.087	5877.9	4978.65
878.5303	1352.9537	5919	5020.75
878.6743	1354.8197	5974.9	5076.5
878.8184	1356.6849	6075.5	5178.35
878.9624	1358.5493	6201.1	5303.75
879.1064	1360.4131	6390.75	5491.95
879.2504	1362.276	6562.6	5667.15
879.3944	1364.1383	6674	5777.65
879.5384	1365.9998	6660.2	5753.85
879.6823	1367.8606	6469.1	5573.35
879.8263	1369.7206	6235.55	5335.15
879.9702	1371.5799	6041	5141.9
880.1142	1373.4384	5845.9	4948.05
880.2581	1375.2962	5672.55	4772.45
880.402	1377.1533	5429.75	4531.05
880.5459	1379.0096	5168.2	4271.15
880.6898	1380.8652	4902.4	4007.65
880.8337	1382.7201	4687.2	3791.25
880.9776	1384.5742	4502.3	3605.6
881.1215	1386.4275	4382.6	3485.35
881.2653	1388.2802	4280.65	3382.2
881.4092	1390.132	4189	3290.25
881.553	1391.9832	4136.05	3236.25
881.6968	1393.8336	4109.2	3211.5
881.8406	1395.6832	4077.1	3178.05
881.9844	1397.5322	4046.9	3147.35
882.1282	1399.3803	4020.5	3117.3
882.272	1401.2278	4005.35	3106.6
882.4158	1403.0745	3970.85	3073.25
882.5595	1404.9204	3937.4	3040.5
882.7033	1406.7656	3932.25	3036.25
882.847	1408.6101	3952.7	3052.65
882.9908	1410.4538	3967.9	3068.3
883.1345	1412.2968	3981.1	3082.4
883.2782	1414.139	4022.55	3126.45
883.4219	1415.9805	4068.75	3172.85
883.5656	1417.8213	4133.1	3215.9
883.7092	1419.6613	4176.3	3277.05
883.8529	1421.5006	4293	3395.65
883.9965	1423.3391	4466.45	3568.2
884.1402	1425.1769	4703.55	3804.35
884.2838	1427.0139	5007.3	4108.85
884.4274	1428.8502	5402.55	4504.25
884.571	1430.6858	5810.2	4913.2
884.7146	1432.5206	6078.1	5182.05
884.8582	1434.3547	6264.55	5369.7
885.0018	1436.188	6302.9	5405.1
885.1453	1438.0206	6240.65	5342.2
885.2889	1439.8524	6133.5	5233.85
885.4324	1441.6835	6047.7	5150.95
885.5759	1443.5139	5978.75	5080
885.7194	1445.3435	5927.4	5030.1
885.8629	1447.1724	5918.1	5024.55
886.0064	1449.0005	5870.95	4974.75
886.1499	1450.8279	5846.35	4949.9
886.2933	1452.6545	5834.15	4940.05
886.4368	1454.4804	5863.35	4969.25
886.5802	1456.3056	5869.7	4966.45
886.7237	1458.13	5826.6	4932.4
886.8671	1459.9536	5729.2	4834.15
887.0105	1461.7766	5551.5	4656.35
887.1539	1463.5987	5339	4441
887.2972	1465.4202	5115.6	4220.35
887.4406	1467.2409	4880.1	3981.3
887.584	1469.0608	4668.05	3770.25
887.7273	1470.88	4492.15	3595.9
887.8706	1472.6984	4297.25	3399.95
888.0139	1474.5161	4160.4	3261.45
888.1572	1476.3331	4047.85	3152.65
888.3005	1478.1493	3979.05	3081.5
888.4438	1479.9648	3906.35	3012.05
888.5871	1481.7795	3850.95	2955.55
888.7303	1483.5935	3821.7	2923.85
888.8736	1485.4067	3817.3	2922.9
889.0168	1487.2192	3796.85	2901.5
889.16	1489.031	3793.45	2895.2
889.3032	1490.842	3759.1	2864.65
889.4464	1492.6522	3741.7	2845.7
889.5896	1494.4618	3722.5	2825.4
889.7327	1496.2705	3709.65	2814.65
889.8759	1498.0785	3687.45	2793.3
890.019	1499.8858	3658.95	2763.75
890.1622	1501.6924	3630.4	2736.75
890.3053	1503.4981	3618.9	2725.15
890.4484	1505.3032	3578.8	2682.9
890.5914	1507.1075	3540.45	2645.7
890.7345	1508.911	3513.2	2617.55
890.8776	1510.7138	3493.25	2599.35
891.0206	1512.5159	3458.65	2564
891.1637	1514.3172	3418.65	2525.85
891.3067	1516.1178	3404.15	2513.9
891.4497	1517.9176	3379.7	2482.3
891.5927	1519.7166	3358.1	2465.15
891.7357	1521.515	3336.05	2435.7
891.8786	1523.3126	3306.85	2409.7
892.0216	1525.1094	3306.1	2409.75
892.1645	1526.9055	3290.95	2398.7
892.3074	1528.7008	3269.75	2376.1
892.4503	1530.4954	3263.65	2371.15
892.5932	1532.2893	3257.55	2366.45
892.7361	1534.0824	3237.1	2339.65
892.879	1535.8747	3231.85	2340.8
893.0218	1537.6663	3238.8	2344.3
893.1647	1539.4572	3223.6	2329.7
893.3075	1541.2473	3248.45	2352.6
893.4503	1543.0367	3245.2	2354.1
893.5931	1544.8253	3275.6	2377.6
893.7359	1546.6132	3283.55	2388.95
893.8787	1548.4003	3330.95	2429.15
894.0214	1550.1867	3361.7	2461.85
894.1642	1551.9723	3412.55	2516
894.3069	1553.7572	3491	2599.3
894.4496	1555.5414	3573.15	2681.7
894.5923	1557.3247	3699.5	2806.5
894.735	1559.1074	3850.9	2962.25
894.8777	1560.8893	3993	3103.1
895.0204	1562.6705	4146.9	3256.65
895.163	1564.4509	4286.05	3395
895.3056	1566.2305	4376.65	3490.2
895.4482	1568.0094	4427.35	3537.55
895.5908	1569.7876	4445.2	3558.3
895.7334	1571.565	4450.7	3560.2
895.876	1573.3417	4446.5	3559.25
896.0186	1575.1176	4478.05	3590.15
896.1611	1576.8928	4496.45	3607.8
896.3036	1578.6672	4583.5	3698.3
896.4461	1580.4409	4628.7	3744.5
896.5886	1582.2138	4714.05	3826.6
896.7311	1583.986	4823.2	3936.15
896.8736	1585.7575	4926.95	4041.45
897.0161	1587.5282	5044.5	4160.25
897.1585	1589.2981	5155.5	4270.1
897.3009	1591.0673	5263.5	4378.8
897.4433	1592.8358	5365.55	4481.6
897.5857	1594.6035	5432.95	4542.65
897.7281	1596.3704	5483.25	4594.55
897.8705	1598.1366	5549.5	4662.6
898.0128	1599.9021	5568.95	4682.5
898.1551	1601.6668	5588	4699.4
898.2975	1603.4308	5644	4756.1
898.4398	1605.194	5716.9	4825.1
898.5821	1606.9564	5830.9	4947.7
898.7243	1608.7182	6027.55	5141.7
898.8666	1610.4791	6281.95	5400
899.0088	1612.2394	6585.35	5703.1
899.1511	1613.9988	6897.6	6014.4
899.2933	1615.7576	7205.5	6320.25
899.4355	1617.5156	7459.8	6568.85
899.5776	1619.2728	7569.65	6685.6
899.7198	1621.0293	7513.9	6628.55
899.862	1622.785	7289.3	6400.95
900.0041	1624.54	6965.05	6079.4
900.1462	1626.2942	6595.1	5709.15
900.2883	1628.0477	6160.85	5275.1
900.4304	1629.8005	5784.65	4896.45
900.5725	1631.5525	5438.65	4553.35
900.7145	1633.3037	5122.8	4239.7
900.8566	1635.0542	4885.65	4003.3
900.9986	1636.804	4682.9	3799.75
901.1406	1638.553	4584.4	3630.75
901.2826	1640.3013	4436.65	3554.4
901.4245	1642.0488	4350.45	3467.15
901.5665	1643.7955	4316.85	3435.2
901.7085	1645.5416	4316.85	3433.9
901.8504	1647.2868	4333.5	3449.45
901.9923	1649.0313	4386	3502.4
902.1342	1650.7751	4448	3560.85
902.2761	1652.5181	4509.7	3625.3
902.4179	1654.2604	4593.2	3710.5
902.5598	1656.0019	4714.4	3830.85
902.7016	1657.7427	4879.9	3997.55
902.8434	1659.4828	5056	4172
902.9852	1661.222	5225.9	4340.6
903.127	1662.9606	5300.85	4418.7
903.2687	1664.6984	5235.3	4352.1
903.4105	1666.4354	5011.35	4125.8
903.5522	1668.1717	4667.3	3783.15
903.6939	1669.9072	4290.15	3404.75
903.8356	1671.642	3946.3	3060.5
903.9773	1673.3761	3671.25	2786.55
904.119	1675.1094	3441.8	2557.75
904.2606	1676.8419	3261.7	2377.1
904.4022	1678.5737	3147.65	2266.25
904.5439	1680.3048	3044.1	2159.9
904.6855	1682.0351	2956.25	2073.1
904.827	1683.7646	2873.95	1987.8
904.9686	1685.4934	2837.05	1956.1
905.1101	1687.2215	2791.95	1907.25
905.2517	1688.9488	2747.55	1864.15
905.3932	1690.6754	2714.5	1833.15
905.5347	1692.4012	2681.95	1799.1
905.6761	1694.1263	2661.5	1779.85
905.8176	1695.8506	2633.15	1749.75
905.9591	1697.5742	2609.35	1728.15
906.1005	1699.297	2585.4	1704.2
906.2419	1701.0191	2556.65	1675.05
906.3833	1702.7404	2535.9	1655.65
906.5246	1704.461	2509.55	1625.65
906.666	1706.1808	2492.95	1607.75
906.8073	1707.8999	2490.95	1607.95
906.9487	1709.6182	2474.5	1593.3
907.09	1711.3358	2447.05	1565.65
907.2313	1713.0527	2433.1	1554
907.3725	1714.7688	2433.25	1548.1
907.5138	1716.4841	2411	1527.25
907.655	1718.1987	2402.65	1515.6
907.7962	1719.9126	2390.25	1512.2
907.9374	1721.6257	2375.35	1492.05
908.0786	1723.338	2380.5	1501.25
908.2198	1725.0496	2367.75	1485.75
908.3609	1726.7605	2371.4	1488.55
908.502	1728.4706	2345.5	1465.85
908.6431	1730.18	2345.3	1464.3
908.7842	1731.8886	2336.25	1453.35
908.9253	1733.5964	2357.6	1457.35
909.0664	1735.3036	2325.1	1440.6
909.2074	1737.0099	2306.85	1425.55
909.3484	1738.7156	2299.25	1418.65
909.4894	1740.4204	2279.65	1395.05
909.6304	1742.1246	2279.8	1397.95
909.7714	1743.8279	2269.8	1389.65
909.9123	1745.5306	2261.6	1379.55
910.0532	1747.2325	2249.55	1369.6
910.1941	1748.9336	2242.2	1361.8
910.335	1750.634	2233.15	1348.3
910.4759	1752.3336	2232.3	1352.3
910.6168	1754.0325	2226.3	1347.4
910.7576	1755.7307	2231.1	1350.45
910.8984	1757.4281	2218.05	1337.35
911.0392	1759.1247	2219.3	1329.45
911.18	1760.8206	2217.85	1332.95
911.3208	1762.5158	2209.9	1324.3
911.4615	1764.2102	2195.55	1314.65
911.6022	1765.9039	2187.15	1305.2
911.7429	1767.5968	2195.55	1316.9
911.8836	1769.289	2188.25	1308.65
912.0243	1770.9804	2185.6	1302.35
912.1649	1772.6711	2184.25	1301.95
912.3056	1774.361	2174.25	1292.75
912.4462	1776.0502	2167.65	1284.7
912.5868	1777.7386	2169.6	1285.5
912.7274	1779.4263	2164.75	1286
912.8679	1781.1132	2166.2	1287.15
913.0084	1782.7994	2158.4	1275.75
913.149	1784.4849	2155.45	1275.85
913.2895	1786.1696	2167.95	1269.65
913.4299	1787.8535	2143.75	1265.1
913.5704	1789.5367	2142.35	1261.5
913.7108	1791.2192	2144.8	1264.25
913.8513	1792.9009	2162.05	1256.85
913.9917	1794.5818	2127.65	1245
914.132	1796.2621	2125.65	1246.1
914.2724	1797.9415	2122.95	1242.7
914.4128	1799.6202	2104.7	1223.8
914.5531	1801.2982	2110.55	1230.4
914.6934	1802.9755	2111.35	1227.6
914.8337	1804.6519	2110.7	1229.2
914.9739	1806.3277	2099	1216.95
915.1142	1808.0027	2093	1215.5
915.2544	1809.6769	2099.65	1221.15
915.3946	1811.3504	2090.5	1208.3
915.5348	1813.0231	2090.6	1209.3
915.675	1814.6951	2089.95	1213.1
915.8151	1816.3664	2086.45	1204.3
915.9553	1818.0369	2079.45	1199.45
916.0954	1819.7067	2077.35	1197.75
916.2355	1821.3757	2075.3	1192.55
916.3755	1823.044	2074.05	1195.9
916.5156	1824.7115	2073.2	1191.1
916.6556	1826.3783	2067.05	1186.1
916.7956	1828.0443	2063.15	1182.1
916.9356	1829.7096	2053.95	1173.7
917.0756	1831.3741	2073.05	1190.15
917.2155	1833.0379	2061	1182.8
917.3555	1834.701	2053.7	1171.9
917.4954	1836.3633	2053.55	1174.25
917.6353	1838.0248	2047.4	1165.05
917.7751	1839.6856	2050.65	1172.75
917.915	1841.3457	2035.2	1156
918.0548	1843.005	2031	1151.5
918.1946	1844.6636	2041.3	1161.5
918.3344	1846.3214	2041.75	1161.25
918.4742	1847.9785	2023.55	1143.7
918.6139	1849.6349	2035.3	1152.75
918.7537	1851.2904	2027.25	1138.75
918.8934	1852.9453	2032.7	1152.8
919.0331	1854.5994	2020.15	1135.85
919.1727	1856.2528	2035.95	1149.1
919.3124	1857.9054	2026.1	1145.65
919.452	1859.5572	2017.45	1138.1
919.5916	1861.2083	2031.9	1150.55
919.7312	1862.8587	2022.4	1140.85
919.8708	1864.5084	2013.75	1133
920.0103	1866.1572	2016.15	1137.25
920.1498	1867.8054	2002.9	1121.05
920.2893	1869.4528	1999.35	1121
920.4288	1871.0994	2003.25	1121
920.5683	1872.7453	1992.3	1110.75
920.7077	1874.3905	2003.8	1115.95
920.8471	1876.0349	1992.9	1111.6
920.9865	1877.6786	1987.05	1106.45
921.1259	1879.3215	1976.95	1098.4
921.2653	1880.9637	1985.2	1103.8
921.4046	1882.6051	1981	1101.35
921.5439	1884.2458	1986.3	1104.05
921.6832	1885.8858	1967.85	1086.7
921.8225	1887.525	1961.3	1081.4
921.9617	1889.1634	1964.9	1084.2
922.101	1890.8011	1959.9	1077.1
922.2402	1892.4381	1962.55	1079.9
922.3794	1894.0743	1949.7	1070.55
922.5185	1895.7098	1953	1073.1
922.6577	1897.3446	1949.95	1067.6
922.7968	1898.9786	1955.2	1069.7
922.9359	1900.6118	1939.7	1061.3
923.075	1902.2443	1938.15	1054.5
923.214	1903.8761	1937.85	1059.85
923.3531	1905.5071	1932.5	1052
923.4921	1907.1374	1921.4	1040.55
923.6311	1908.7669	1926.55	1045.4
923.77	1910.3957	1935.9	1054.8
923.909	1912.0237	1914.65	1034.1
924.0479	1913.651	1924.25	1043.55
924.1868	1915.2776	1921.45	1040.5
924.3257	1916.9034	1912.5	1035.4
924.4646	1918.5285	1903.85	1026.15
924.6034	1920.1528	1898.75	1017.75
924.7422	1921.7764	1895.7	1017.1
924.881	1923.3992	1897.55	1017.75
925.0198	1925.0213	1884.65	1003.45
925.1586	1926.6427	1878.65	1000.65
925.2973	1928.2633	1965.6	999.1
925.436	1929.8832	1889.65	1007.9
925.5747	1931.5023	1866.3	986.7
925.7134	1933.1207	1869.05	986.95
925.852	1934.7383	1863.85	982.7
925.9906	1936.3552	1859.35	982.6
926.1292	1937.9714	1857.15	975
926.2678	1939.5868	1861.25	979.75
926.4064	1941.2015	1854.5	973.05
926.5449	1942.8154	1857.65	977.2
926.6834	1944.4286	1853.55	974
926.8219	1946.041	1868.55	962.3
926.9604	1947.6528	1854.75	970.4
927.0988	1949.2637	1846.95	965.85
927.2372	1950.8739	1842.75	962.45
927.3756	1952.4834	1834	954.75
927.514	1954.0921	1836.15	956.85
927.6523	1955.7001	1840.05	956.65
927.7907	1957.3074	1824.25	945.65
927.929	1958.9139	1827.05	948.7
928.0673	1960.5197	1826	944.9
928.2055	1962.1247	1806.65	928.1
928.3438	1963.729	1813.5	935.7
928.482	1965.3325	1816.7	931.2
928.6202	1966.9353	1793.6	915.5
928.7584	1968.5374	1803.55	923.2
928.8965	1970.1387	1804.8	926.9
929.0346	1971.7393	1798.3	918.4
929.1727	1973.3392	1799.1	918.9
929.3108	1974.9383	1790.7	912.55
929.4489	1976.5366	1785.1	906.75
929.5869	1978.1342	1786.05	907.55
929.7249	1979.7311	1790.25	911.15
929.8629	1981.3273	1779	900.5
930.0009	1982.9227	1778.4	898.8
930.1388	1984.5173	1767.7	889.25
930.2767	1986.1112	1771.75	893.4
930.4146	1987.7044	1764.45	887.95
930.5525	1989.2968	1763.3	883
930.6904	1990.8885	1763.2	880.1
930.8282	1992.4795	1767.15	887.2
930.966	1994.0697	1755.35	878.3
931.1038	1995.6592	1755.2	876.75
931.2415	1997.2479	1746.05	868.7
931.3793	1998.8359	1748.95	870.7
931.517	2000.4232	1751.35	874.2
931.6547	2002.0097	1742.6	867.65
931.7923	2003.5955	1739.5	861.75
931.93	2005.1805	1745.65	866.4
932.0676	2006.7648	1732.85	856.15
932.2052	2008.3484	1736.55	857.4
932.3427	2009.9312	1740.8	862.6
932.4803	2011.5133	1734.65	858.9
932.6178	2013.0946	1730	854.55
932.7553	2014.6752	1724.8	849.3
932.8928	2016.2551	1726.4	848.85
933.0302	2017.8342	1723.55	846.5
933.1676	2019.4126	1722.25	846
933.305	2020.9902	1716.9	843.45
933.4424	2022.5672	1715.25	835.4
933.5798	2024.1433	1726.75	847.25
933.7171	2025.7188	1713.9	839.05
933.8544	2027.2935	1708.25	830.1
933.9917	2028.8674	1701.05	825.75
934.129	2030.4406	1712.15	836.45
934.2662	2032.0131	1699.5	825.35
934.4034	2033.5849	1685.2	804.45
934.5406	2035.1559	1703.2	829.85
934.6778	2036.7261	1698.95	824.15
934.8149	2038.2957	1693.75	816.95
934.952	2039.8645	1692.3	814.7
935.0891	2041.4325	1695.05	814
935.2262	2042.9998	1683.7	807.95
935.3632	2044.5664	1685.45	807.85
935.5002	2046.1323	1683.6	807.35
935.6372	2047.6974	1681.95	806.3
935.7742	2049.2617	1671.95	795.1
935.9111	2050.8254	1679.35	797.9
936.048	2052.3883	1693.1	814.85
936.1849	2053.9504	1677.1	799.35
936.3218	2055.5118	1666.9	789.45
936.4586	2057.0725	1666.85	784.75
936.5955	2058.6325	1666.35	787.4
936.7323	2060.1917	1664.95	789.85
936.869	2061.7502	1662.25	782.7
937.0058	2063.3079	1655.35	778.2
937.1425	2064.8649	1665.7	788.85
937.2792	2066.4212	1665.15	787.3
937.4159	2067.9767	1656.75	778.6
937.5525	2069.5315	1658.15	780.3
937.6891	2071.0856	1645.6	768.25
937.8257	2072.6389	1646.1	767.5
937.9623	2074.1915	1630.85	755.8
938.0989	2075.7433	1640.85	761
938.2354	2077.2945	1640.3	763.35
938.3719	2078.8448	1640.65	762.7
938.5084	2080.3945	1628	750.7
938.6448	2081.9434	1625.55	749.3
938.7812	2083.4916	1632.55	754.55
938.9176	2085.039	1629.4	748.5
939.054	2086.5857	1630.4	746.85
939.1903	2088.1317	1630.55	751.5
939.3267	2089.677	1622.7	743.1
939.463	2091.2215	1628.9	748.45
939.5992	2092.7652	1620.7	738.95
939.7355	2094.3083	1618.65	737.7
939.8717	2095.8506	1624.4	746.85
940.0079	2097.3921	1614.7	737.15
940.1441	2098.933	1616.1	738.35
940.2802	2100.4731	1606.95	730.35
940.4163	2102.0124	1632.5	734.15
940.5524	2103.5511	1612.65	733.7
940.6885	2105.089	1611.8	732.25
940.8245	2106.6261	1608.55	729.75
940.9606	2108.1626	1610.7	731.95
941.0965	2109.6983	1631.5	724.35
941.2325	2111.2332	1597.85	720.5
941.3684	2112.7675	1599.7	718.7
941.5044	2114.301	1602.95	720.85
941.6403	2115.8337	1599.3	720
941.7761	2117.3657	1591.05	712.3
941.912	2118.897	1591.8	712.5
942.0478	2120.4276	1598.5	715.1
942.1835	2121.9575	1592.3	711
942.3193	2123.4866	1582.7	699.9
942.455	2125.0149	1585.2	704.25
942.5907	2126.5426	1577.75	699.9
942.7264	2128.0695	1585.2	704.4
942.8621	2129.5956	1576.4	700.1
942.9977	2131.1211	1585.75	703.6
943.1333	2132.6458	1578.85	700.75
943.2689	2134.1698	1573.05	694.55
943.4044	2135.693	1576.45	692.8
943.54	2137.2155	1569.45	688.7
943.6755	2138.7373	1565	686.55
943.8109	2140.2584	1566.95	688.7
943.9464	2141.7787	1571.35	688.45
944.0818	2143.2983	1563.1	687.6
944.2172	2144.8171	1558.7	682.8
944.3526	2146.3353	1558.9	679.9
944.4879	2147.8527	1553.95	676.1
944.6232	2149.3693	1559.85	683.05
944.7585	2150.8853	1549.65	671
944.8938	2152.4005	1545.95	667
945.029	2153.9149	1555.2	674.9
945.1642	2155.4287	1555.35	675.5
945.2994	2156.9417	1552.45	671.85
945.4346	2158.454	1543.45	660.9
945.5697	2159.9655	1541.3	662.8
945.7048	2161.4764	1546.15	668.2
945.8399	2162.9865	1546.8	668.45
945.9749	2164.4958	1536.6	657.25
946.1099	2166.0045	1537.4	657.45
946.2449	2167.5124	1531.6	653.3
946.3799	2169.0195	1534	654.85
946.5148	2170.526	1533.5	652.65
946.6498	2172.0317	1533.85	654.45
946.7846	2173.5367	1531.85	652.6
946.9195	2175.0409	1538.15	660.7
947.0543	2176.5445	1527.5	647.4
947.1891	2178.0473	1533.2	652.35
947.3239	2179.5494	1532.65	649.5
947.4587	2181.0507	1521.15	642.35
947.5934	2182.5513	1520.95	644
947.7281	2184.0512	1519.25	638.85
947.8628	2185.5504	1516.9	639
947.9974	2187.0488	1515.65	635.2
948.132	2188.5465	1518.7	642.35
948.2666	2190.0435	1515.45	636.15
948.4012	2191.5397	1512.75	634.05
948.5357	2193.0353	1505.15	625.1
948.6702	2194.5301	1512.8	633.25
948.8047	2196.0241	1515.05	634.2
948.9392	2197.5175	1510.25	630.25
949.0736	2199.0101	1503.95	621.15
949.208	2200.502	1498.1	619.8
949.3424	2201.9931	1496.45	616.2
949.4767	2203.4835	1496.8	616.9
949.611	2204.9733	1505.4	619
949.7453	2206.4622	1495.4	617.5
949.8796	2207.9505	1491	610.7
950.0138	2209.438	1485.5	610.25
950.148	2210.9248	1480.8	603.75
950.2822	2212.4109	1479.55	601.85
950.4164	2213.8962	1479.4	596.8
950.5505	2215.3809	1484.3	603.2
950.6846	2216.8648	1486.9	604.15
950.8186	2218.3479	1486.25	600.75
950.9527	2219.8304	1481.1	597.75
951.0867	2221.3121	1480.1	596
951.2207	2222.7931	1474.45	592.55
951.3546	2224.2733	1470.55	590.45
951.4886	2225.7529	1467.6	588.9
951.6225	2227.2317	1460.35	579.65
951.7563	2228.7098	1462.45	585.8
951.8902	2230.1872	1462.9	585.6
952.024	2231.6638	1469.15	589.5
952.1578	2233.1397	1465.2	582.8
952.2916	2234.6149	1460.95	583.05
952.4253	2236.0894	1459	580
952.559	2237.5632	1470.85	580.7
952.6927	2239.0362	1449.5	569.9
952.8263	2240.5085	1450.6	573
952.9599	2241.9801	1455.4	575.75
953.0935	2243.4509	1447.8	567.95
953.2271	2244.921	1446.6	567.85
953.3606	2246.3904	1447.75	563.6
953.4941	2247.8591	1440.4	560.1
953.6276	2249.3271	1441.05	561.5
953.7611	2250.7943	1431.5	549.85
953.8945	2252.2608	1433.4	552.6
954.0279	2253.7266	1438.7	559.5
954.1612	2255.1917	1437.9	559.5
954.2946	2256.656	1421.95	542.05
954.4279	2258.1197	1423.6	546.3
954.5612	2259.5826	1436.2	555.4
954.6944	2261.0447	1425.75	543.6
954.8276	2262.5062	1428	547
954.9608	2263.9669	1427.65	544.35
955.094	2265.4269	1424.55	545.95
955.2271	2266.8862	1421.9	543.6
955.3602	2268.3448	1422.65	544.3
955.4933	2269.8026	1425.2	547.25
955.6264	2271.2598	1417.35	539.25
955.7594	2272.7162	1421	541.2
955.8924	2274.1719	1414.9	534.4
956.0253	2275.6268	1415.1	536.15
956.1583	2277.0811	1414.75	534.5
956.2912	2278.5346	1413	532.95
956.4241	2279.9874	1410.95	531.2
956.5569	2281.4395	1408.9	532.2
956.6897	2282.8908	1412.45	528.25
956.8225	2284.3414	1409.2	530.2
956.9553	2285.7914	1402.95	523.2
957.088	2287.2406	1411	528.65
957.2207	2288.689	1414.85	534.55
957.3534	2290.1368	1408.95	527.8
957.486	2291.5838	1409.55	523.8
957.6186	2293.0302	1402.4	521.2
957.7512	2294.4758	1402.8	522.45
957.8838	2295.9206	1406.25	523.15
958.0163	2297.3648	1400.35	521.85
958.1488	2298.8082	1405.3	524.15
958.2813	2300.251	1396.6	517.3
958.4137	2301.693	1401.6	516.75
958.5461	2303.1343	1389.95	507.25
958.6785	2304.5748	1393.9	513.7
958.8108	2306.0147	1391.4	511.8
958.9432	2307.4538	1397.55	517.25
959.0754	2308.8922	1385.9	507.05
959.2077	2310.3299	1383.55	505.9
959.3399	2311.7669	1387.9	507.3
959.4721	2313.2031	1383.9	505.05
959.6043	2314.6387	1382.8	503.9
959.7365	2316.0735	1380.55	501.7
959.8686	2317.5076	1377.5	496.55
960.0006	2318.941	1382.7	503.55
960.1327	2320.3737	1375.05	493.1
960.2647	2321.8056	1384.15	499.6
960.3967	2323.2369	1379.95	498.2
960.5287	2324.6674	1383.35	501.35
960.6606	2326.0972	1372.15	487.65
960.7925	2327.5263	1378.15	498.6
960.9244	2328.9547	1373.15	493.65
961.0562	2330.3823	1373.15	490.2
961.1881	2331.8092	1375.15	492.85
961.3198	2333.2355	1367.6	486.5
961.4516	2334.661	1361.45	478.95
961.5833	2336.0858	1370.95	488.9
961.715	2337.5098	1369.9	488.95
961.8467	2338.9332	1362.25	480.25
961.9783	2340.3558	1365.9	483.1
962.1099	2341.7778	1359.95	481.05
962.2415	2343.199	1369.9	487.95
962.373	2344.6195	1358.55	479.25
962.5045	2346.0393	1356.8	477.45
962.636	2347.4583	1356.6	475.35
962.7675	2348.8767	1354.7	472.25
962.8989	2350.2943	1356.45	475.15
963.0303	2351.7113	1355.65	471.1
963.1617	2353.1275	1360.7	478.95
963.293	2354.543	1384.3	478.75
963.4243	2355.9578	1359.55	476.6
963.5556	2357.3718	1352.15	473.35
963.6868	2358.7852	1351.55	469.3
963.818	2360.1978	1352.85	470.5
963.9492	2361.6098	1350.25	471.25
964.0803	2363.021	1357	472.4
964.2114	2364.4315	1350.4	470.6
964.3425	2365.8413	1345.75	466.05
964.4736	2367.2504	1348.9	468.85
964.6046	2368.6587	1341.9	464.2
964.7356	2370.0664	1337.15	456.8
964.8666	2371.4733	1341.95	462.95
964.9975	2372.8795	1334	453.1
965.1284	2374.285	1337.2	456.4
965.2593	2375.6899	1339.9	459.5
965.3901	2377.0939	1338.35	458.5
965.5209	2378.4973	1340.25	461.2
965.6517	2379.9	1329.8	450.95
965.7825	2381.3019	1330.9	448.5
965.9132	2382.7032	1328.75	450.85
966.0439	2384.1037	1327.75	449.75
966.1745	2385.5035	1324.6	445.7
966.3051	2386.9027	1323.75	446.5
966.4357	2388.3011	1322.6	438.75
966.5663	2389.6987	1323.65	444.1
966.6968	2391.0957	1325.15	445.05
966.8273	2392.492	1317.7	439
966.9578	2393.8876	1318.1	438.1
967.0882	2395.2824	1308.8	429.15
967.2186	2396.6765	1317.9	439.05
967.349	2398.07	1313.65	430.55
967.4793	2399.4627	1315.6	435.4
967.6097	2400.8547	1311	428.9
967.7399	2402.246	1311.4	421.7
967.8702	2403.6366	1310.9	430.65
968.0004	2405.0265	1302.25	420.25
968.1306	2406.4156	1308.95	426.85
968.2607	2407.8041	1305.15	421.95
968.3909	2409.1918	1313.35	430.75
968.521	2410.5789	1302.05	421.9
968.651	2411.9652	1307	424.9
968.781	2413.3508	1303.35	421.9
968.911	2414.7358	1301.8	418.3
969.041	2416.12	1303.85	422.7
969.1709	2417.5035	1292.85	413.8
969.3008	2418.8863	1299.85	418.3
969.4307	2420.2684	1294.5	415.05
969.5606	2421.6497	1296.75	418.05
969.6904	2423.0304	1293	412.25
969.8201	2424.4104	1290.95	411.55
969.9499	2425.7896	1295.35	409.4
970.0796	2427.1682	1299.1	419.75
970.2093	2428.546	1291.65	409.35
970.3389	2429.9232	1291.7	407.5
970.4685	2431.2996	1290.6	410.85
970.5981	2432.6753	1291.85	410.25
970.7277	2434.0503	1284.1	404.1
970.8572	2435.4246	1287.05	409.7
970.9867	2436.7982	1286.95	402.9
971.1161	2438.1711	1280.1	400.65
971.2456	2439.5433	1283.8	402.85
971.375	2440.9148	1285.65	402
971.5043	2442.2856	1277.05	397.4
971.6336	2443.6557	1279.45	397.85
971.7629	2445.025	1279.7	399.25
971.8922	2446.3937	1278.7	397.75
972.0214	2447.7617	1279.3	397.2
972.1506	2449.1289	1272.05	390.2
972.2798	2450.4955	1277.35	392
972.4089	2451.8613	1270	390.75
972.538	2453.2265	1270.25	389.75
972.6671	2454.5909	1272.6	390.85
972.7961	2455.9546	1267.5	386.2
972.9251	2457.3177	1267	388
973.0541	2458.68	1271.95	391.15
973.1831	2460.0416	1268.2	388.2
973.312	2461.4025	1268.65	388.05
973.4408	2462.7627	1271.35	381.45
973.5697	2464.1222	1264.4	387.55
973.6985	2465.4811	1272.55	390.7
973.8273	2466.8392	1267.9	389.1
973.956	2468.1966	1268	386.3
974.0847	2469.5533	1264.5	380.55
974.2134	2470.9093	1263.2	384.95
974.3421	2472.2645	1261.6	376.9
974.4707	2473.6191	1263.55	384.3
974.5993	2474.973	1265	382.25
974.7278	2476.3262	1265.4	382.55
974.8563	2477.6787	1262.2	383.4
974.9848	2479.0305	1259.5	377.8
975.1132	2480.3816	1261.4	378.15
975.2417	2481.7319	1261.05	382.3
975.37	2483.0816	1262.4	380
975.4984	2484.4306	1261.25	381.15
975.6267	2485.7789	1251.75	371.75
975.755	2487.1264	1260.85	379.05
975.8833	2488.4733	1258.65	378.25
976.0115	2489.8195	1265.4	368.7
976.1397	2491.165	1250.95	369.2
976.2678	2492.5097	1253.6	370.05
976.3959	2493.8538	1240.75	362.45
976.524	2495.1972	1248.1	365.8
976.6521	2496.5398	1251.55	368.3
976.7801	2497.8818	1245.7	362.1
976.9081	2499.2231	1245.15	364.3
977.036	2500.5637	1247.85	366.1
977.164	2501.9035	1243.5	361.35
977.2918	2503.2427	1246.75	360
977.4197	2504.5812	1249.45	370.7
977.5475	2505.919	1242.8	358.35
977.6753	2507.256	1237.45	358.95
977.8031	2508.5924	1244.15	361.3
977.9308	2509.9281	1239.05	353.25
978.0585	2511.2631	1242.95	363.8
978.1861	2512.5974	1239.35	361.65
978.3137	2513.9309	1235.3	353.85
978.4413	2515.2638	1267.95	359.7
978.5689	2516.596	1231.2	349.2
978.6964	2517.9275	1236.75	354.15
978.8239	2519.2583	1231.25	348.4
978.9513	2520.5884	1230.15	348.5
979.0788	2521.9178	1232.9	352.55
979.2062	2523.2465	1229.05	350.15
979.3335	2524.5745	1228.7	349.2
979.4608	2525.9018	1228.45	345.7
979.5881	2527.2284	1226.75	348.15
979.7154	2528.5543	1233.9	358.2
979.8426	2529.8796	1222.15	341.9
979.9698	2531.2041	1226.95	348.4
980.0969	2532.5279	1222.1	342.6
980.224	2533.851	1228.75	349.55
980.3511	2535.1735	1231.35	350.2
980.4781	2536.4952	1224.5	344.5
980.6052	2537.8163	1225.1	344.4
980.7321	2539.1366	1222.55	343.3
980.8591	2540.4562	1226.15	343
980.986	2541.7752	1223.6	344
981.1129	2543.0935	1230.5	347.6
981.2397	2544.411	1223.8	340.65
981.3665	2545.7279	1216.4	338
981.4933	2547.0441	1220.2	339.85
981.62	2548.3596	1222.7	341.7
981.7467	2549.6744	1229.8	351.15
981.8734	2550.9885	1231.6	343.55
982.0001	2552.3019	1218.8	339.45
982.1267	2553.6146	1223.7	343.45
982.2532	2554.9266	1217.85	337.15
982.3798	2556.2379	1219.65	337.4
982.5063	2557.5485	1214.45	337.5
982.6327	2558.8585	1223.9	336.75
982.7592	2560.1677	1222.6	337.85
982.8856	2561.4762	1214.2	332.3
983.0119	2562.7841	1215.85	332.9
983.1383	2564.0913	1214.65	335.4
983.2646	2565.3977	1212.45	332.35
983.3908	2566.7035	1211.35	331.55
983.517	2568.0086	1217.5	337.55
983.6432	2569.313	1215.45	335.15
983.7694	2570.6167	1214.85	331.85
983.8955	2571.9197	1218.75	339.5
984.0216	2573.222	1220.8	337.6
984.1476	2574.5236	1214.8	337.25
984.2737	2575.8246	1213.25	329.5
984.3996	2577.1248	1215.95	333
984.5256	2578.4244	1209.95	331.25
984.6515	2579.7232	1210.95	330.8
984.7774	2581.0214	1237.6	334.35
984.9032	2582.3189	1214.85	334.45
985.029	2583.6157	1221.55	338.8
985.1548	2584.9118	1215.45	336.15
985.2806	2586.2072	1220.1	342.1
985.4063	2587.5019	1220.8	342.05
985.5319	2588.7959	1213.15	332.4
985.6576	2590.0893	1214.1	331.4
985.7832	2591.3819	1216.5	338.25
985.9087	2592.6739	1213.95	335
986.0343	2593.9652	1215.05	335.25
986.1597	2595.2557	1217.9	339.45
986.2852	2596.5456	1223.8	343.45
986.4106	2597.8348	1214	334.45
986.536	2599.1234	1218.25	340.05
986.6614	2600.4112	1213.35	332.1
986.7867	2601.6983	1224.6	340.9
986.912	2602.9848	1218.85	338.05
987.0372	2604.2705	1226.7	339.05
987.1624	2605.5556	1226.8	348.8
987.2876	2606.84	1216.2	339
987.4128	2608.1237	1217.9	336.35
987.5379	2609.4067	1215.75	338.9
987.6629	2610.689	1220.35	332.25
987.788	2611.9707	1211.05	330.1
987.913	2613.2516	1217.7	333.5
988.0379	2614.5319	1201.65	321.9
988.1629	2615.8115	1208.4	329.95
988.2878	2617.0903	1207.1	327.05
988.4126	2618.3685	1206.45	326.65
988.5375	2619.6461	1202.3	323.7
988.6622	2620.9229	1206.65	327.7
988.787	2622.199	1203.05	325.45
988.9117	2623.4745	1198.6	317.3
989.0364	2624.7493	1199.15	319.95
989.161	2626.0234	1201.45	323.5
989.2857	2627.2968	1196.7	319.2
989.4102	2628.5695	1193.55	314
989.5348	2629.8415	1200.8	320.2
989.6593	2631.1128	1197.75	316.4
989.7837	2632.3835	1195.4	317.75
989.9082	2633.6535	1192.7	314.5
990.0326	2634.9228	1195.35	316.8
990.1569	2636.1914	1193.35	316.3
990.2812	2637.4593	1195.7	316.95
990.4055	2638.7265	1198.4	319
990.5298	2639.9931	1194.2	317.75
990.654	2641.259	1192.85	314.95
990.7782	2642.5242	1192.3	314.5
990.9023	2643.7887	1190.3	312.9
991.0264	2645.0525	1188.6	310.35
991.1505	2646.3156	1188.6	307.4
991.2745	2647.5781	1186.2	308.35
991.3985	2648.8398	1188.05	311.1
991.5225	2650.1009	1192.6	304.4
991.6464	2651.3613	1181.95	303.7
991.7703	2652.6211	1185.75	309
991.8942	2653.8801	1184.65	308.1
992.018	2655.1385	1186.9	304.15
992.1418	2656.3961	1180.95	301.25
992.2655	2657.6531	1181.95	303.15
992.3892	2658.9094	1179.65	300.95
992.5129	2660.1651	1184.7	307.8
992.6366	2661.42	1187.8	310.65
992.7602	2662.6743	1184.05	303.95
992.8837	2663.9279	1185.05	307.7
993.0073	2665.1808	1187.1	309.05
993.1307	2666.433	1189.5	309.9
993.2542	2667.6846	1180.9	304.35
993.3776	2668.9354	1189.65	307.05
993.501	2670.1856	1192.15	314.85
993.6244	2671.4351	1196.25	319.05
993.7477	2672.6839	1197.55	316.65
993.8709	2673.9321	1193.8	317.9
993.9942	2675.1795	1202.2	323.65
994.1174	2676.4263	1198.05	321
994.2405	2677.6724	1202.3	325.35
994.3637	2678.9179	1202.35	323.1
994.4868	2680.1626	1203.05	325.85
994.6098	2681.4067	1208.05	328.2
994.7328	2682.6501	1199.75	321.4
994.8558	2683.8928	1193.3	314.85
994.9788	2685.1348	1191.2	312.6
995.1017	2686.3761	1196.05	317.9
995.2245	2687.6168	1195.9	316.75
995.3474	2688.8568	1185.4	306.5
995.4702	2690.0961	1184.65	305.5
995.5929	2691.3348	1185.95	307.85
995.7156	2692.5727	1183.55	306.05
995.8383	2693.81	1180.15	300
995.961	2695.0466	1177.05	299.95
996.0836	2696.2826	1180.5	301.35
996.2062	2697.5178	1204.85	310.25
996.3287	2698.7524	1185.2	308.15
996.4512	2699.9863	1189.05	307.65
996.5737	2701.2195	1181.1	304.45
996.6961	2702.452	1196.75	316.85
996.8185	2703.6839	1197.3	318.9
996.9408	2704.9151	1202.25	325.65
997.0631	2706.1456	1196.65	318.3
997.1854	2707.3755	1203.25	324.8
997.3077	2708.6046	1207.05	328.15
997.4299	2709.8331	1213.75	333.95
997.552	2711.0609	1216.7	338.35
997.6742	2712.2881	1224.45	346
997.7963	2713.5145	1230	349.7
997.9183	2714.7403	1236.8	357.65
998.0403	2715.9654	1244	367.25
998.1623	2717.1899	1260.25	365.65
998.2842	2718.4136	1257.55	378.25
998.4062	2719.6367	1265.05	385.35
998.528	2720.8591	1278.1	394.35
998.6498	2722.0809	1282.5	404.15
998.7716	2723.3019	1284.85	402.45
998.8934	2724.5223	1292.5	412.55
999.0151	2725.7421	1301	422.25
999.1368	2726.9611	1297.65	418.55
999.2584	2728.1795	1292.6	411.05
999.38	2729.3972	1287.5	409.2
999.5016	2730.6142	1278.55	392.15
999.6231	2731.8306	1266.45	389.8
999.7446	2733.0462	1261.1	381.25
999.8661	2734.2612	1252.45	369.5
999.9875	2735.4756	1245.05	365.2
1000.1089	2736.6892	1225	345
1000.2302	2737.9022	1218.8	343
1000.3515	2739.1145	1215.05	335.75
1000.4728	2740.3262	1215	330.4
1000.594	2741.5372	1200.5	322.75
1000.7152	2742.7475	1186.65	310.05
1000.8363	2743.9571	1187.4	308.65
1000.9575	2745.1661	1185.05	301.3
1001.0785	2746.3744	1174.35	295.2
1001.1996	2747.582	1170.6	291.8
1001.3206	2748.7889	1168.8	288.75
1001.4415	2749.9952	1165.7	287.2
1001.5625	2751.2008	1153.65	275.2
1001.6833	2752.4057	1158.35	278.45
1001.8042	2753.61	1158.5	279.25
1001.925	2754.8136	1157.9	279.6
1002.0458	2756.0165	1150.5	272.1
1002.1665	2757.2188	1148.1	270.3
1002.2872	2758.4204	1148.6	272.2
1002.4078	2759.6213	1152.35	273.2
1002.5285	2760.8215	1155.85	275
1002.649	2762.0211	1155.4	275.4
1002.7696	2763.22	1151.35	268.15
1002.8901	2764.4182	1154.95	277.35
1003.0106	2765.6158	1146.85	267.05
1003.131	2766.8127	1144.5	267.35
1003.2514	2768.009	1145.5	268.2
1003.3717	2769.2045	1144.95	267.2
1003.492	2770.3994	1139.3	258.7
1003.6123	2771.5936	1135.9	257.2
1003.7325	2772.7872	1134.55	258.4
1003.8527	2773.9801	1141.9	263.35
1003.9729	2775.1723	1152.75	258.9
1004.093	2776.3639	1126.15	249.2
1004.2131	2777.5548	1134.05	253.75
1004.3331	2778.745	1135.85	258.8
1004.4531	2779.9346	1137.65	260.9
1004.5731	2781.1235	1135.55	256.85
1004.693	2782.3117	1134.8	259.75
1004.8129	2783.4992	1135.4	257.65
1004.9328	2784.6861	1137	259.5
1005.0526	2785.8723	1137.8	259.95
1005.1723	2787.0579	1142.75	264.25
1005.2921	2788.2428	1145.45	268.2
1005.4118	2789.427	1146.4	269.2
1005.5314	2790.6106	1152.75	274.9
1005.651	2791.7935	1151.4	270.9
1005.7706	2792.9757	1158.3	282.75
1005.8902	2794.1573	1159.35	280.65
1006.0097	2795.3382	1165.3	288.3
1006.1291	2796.5184	1166.25	289.35
1006.2485	2797.698	1180.2	301.3
1006.3679	2798.8769	1179.8	303.95
1006.4873	2800.0551	1187.35	310.25
1006.6066	2801.2327	1203.8	322
1006.7258	2802.4096	1194.2	318.9
1006.8451	2803.5859	1207.6	329.5
1006.9642	2804.7615	1223.35	343.25
1007.0834	2805.9364	1228.95	355.1
1007.2025	2807.1106	1248.4	370.75
1007.3216	2808.2842	1259.2	383.3
1007.4406	2809.4572	1284.65	405.8
1007.5596	2810.6294	1299.8	423
1007.6785	2811.801	1322.15	447.45
1007.7975	2812.972	1339.3	464.1
1007.9163	2814.1423	1366.2	489.15
1008.0352	2815.3119	1399.9	522.85
1008.154	2816.4808	1434.65	559.05
1008.2727	2817.6491	1462.9	584.6
1008.3914	2818.8167	1489.4	613.55
1008.5101	2819.9837	1538.85	655
1008.6288	2821.15	1573.3	696.3
1008.7474	2822.3157	1611.45	735.65
1008.8659	2823.4807	1649.35	774.2
1008.9844	2824.645	1688.8	808.75
1009.1029	2825.8086	1733.3	859.1
1009.2214	2826.9716	1771.5	895.15
1009.3398	2828.134	1802.8	928.2
1009.4581	2829.2957	1834.1	957.7
1009.5764	2830.4567	1856	980.25
1009.6947	2831.617	1859.95	983.55
1009.813	2832.7767	1879.25	1002.55
1009.9312	2833.9358	1883.95	1007.5
1010.0493	2835.0941	1879.65	1003.65
1010.1675	2836.2519	1858.65	981.5
1010.2855	2837.4089	1854.5	976.3
1010.4036	2838.5653	1837.3	960.9
1010.5216	2839.7211	1822.1	947.7
1010.6396	2840.8761	1832.5	953.4
1010.7575	2842.0306	1827.6	951.25
1010.8754	2843.1843	1846.45	970.2
1010.9932	2844.3374	1864.85	989.45
1011.111	2845.4899	1895.3	1016.95
1011.2288	2846.6417	1926.85	1051.45
1011.3465	2847.7928	1968.4	1091.8
1011.4642	2848.9433	1998.7	1123.5
1011.5818	2850.0931	2037.85	1162.2
1011.6995	2851.2422	2073.95	1195.25
1011.817	2852.3907	2112.4	1236.8
1011.9345	2853.5385	2134.85	1257.1
1012.052	2854.6857	2183.8	1282.05
1012.1695	2855.8323	2201.5	1326.8
1012.2869	2856.9781	2228.55	1353.3
1012.4042	2858.1233	2260.5	1383.35
1012.5216	2859.2679	2295.15	1419.2
1012.6389	2860.4118	2338.4	1461.4
1012.7561	2861.555	2375.25	1495.35
1012.8733	2862.6976	2404	1523.4
1012.9905	2863.8395	2420.9	1544.5
1013.1076	2864.9808	2433.2	1557.7
1013.2247	2866.1214	2454.15	1579.25
1013.3417	2867.2614	2458.15	1581.9
1013.4587	2868.4007	2469.8	1592.6
1013.5757	2869.5393	2492.35	1614.2
1013.6926	2870.6773	2488.45	1609.7
1013.8095	2871.8146	2497.9	1617.7
1013.9263	2872.9513	2493.05	1613.85
1014.0431	2874.0874	2493	1617.35
1014.1599	2875.2227	2490.65	1612.4
1014.2766	2876.3574	2471.7	1594.05
1014.3933	2877.4915	2454.4	1577.6
1014.51	2878.6249	2446.2	1571.1
1014.6266	2879.7577	2420.05	1542.85
1014.7431	2880.8898	2427.4	1542.45
1014.8596	2882.0212	2410.9	1536.65
1014.9761	2883.152	2396.45	1520.5
1015.0925	2884.2821	2397.6	1521.75
1015.2089	2885.4116	2394.9	1519.35
1015.3253	2886.5405	2397.5	1519.95
1015.4416	2887.6686	2417.65	1538.6
1015.5579	2888.7962	2413.9	1539.85
1015.6741	2889.923	2418.25	1543.4
1015.7903	2891.0493	2426.15	1552.5
1015.9065	2892.1748	2438.2	1560.95
1016.0226	2893.2997	2434.3	1558.15
1016.1387	2894.424	2453.75	1577.1
1016.2547	2895.5476	2464.7	1589.45
1016.3707	2896.6706	2471.4	1596.7
1016.4866	2897.7929	2476.1	1599.75
1016.6025	2898.9145	2509.1	1631.85
1016.7184	2900.0355	2512.65	1635.2
1016.8342	2901.1559	2524.2	1648.4
1016.95	2902.2756	2550.5	1670.45
1017.0658	2903.3946	2564.6	1688.7
1017.1815	2904.513	2580.85	1702.3
1017.2971	2905.6308	2578.25	1701.3
1017.4127	2906.7479	2613.05	1735.35
1017.5283	2907.8643	2630.4	1752.8
1017.6439	2908.9801	2631.45	1756.2
1017.7594	2910.0953	2641	1764.75
1017.8748	2911.2098	2637.2	1757.55
1017.9902	2912.3236	2626.8	1742.7
1018.1056	2913.4368	2623.55	1745.95
1018.2209	2914.5494	2590.05	1713.15
1018.3362	2915.6613	2568.25	1684.95
1018.4515	2916.7725	2550.15	1671.8
1018.5667	2917.8831	2533.6	1656.7
1018.6819	2918.9931	2513.8	1634.75
1018.797	2920.1024	2488.9	1613.05
1018.9121	2921.211	2487.25	1611.5
1019.0271	2922.319	2482.7	1607.6
1019.1421	2923.4264	2462.85	1589.2
1019.2571	2924.5331	2452.05	1578.35
1019.372	2925.6391	2457.25	1582.45
1019.4869	2926.7445	2452.95	1577.45
1019.6017	2927.8493	2445.65	1568.8
1019.7165	2928.9534	2449.35	1573.6
1019.8313	2930.0569	2465.2	1586
1019.946	2931.1597	2461.95	1584.2
1020.0606	2932.2619	2466.4	1589.85
1020.1753	2933.3634	2481.5	1605.95
1020.2899	2934.4643	2478.3	1596.35
1020.4044	2935.5645	2476.95	1596.05
1020.5189	2936.6641	2472.1	1592
1020.6334	2937.763	2456	1581.55
1020.7478	2938.8613	2442.7	1568.65
1020.8622	2939.959	2421	1537.6
1020.9765	2941.056	2374.7	1499.25
1021.0908	2942.1523	2337.4	1459.4
1021.2051	2943.248	2296.8	1420.55
1021.3193	2944.3431	2231.25	1356.65
1021.4334	2945.4375	2171.55	1294.4
1021.5476	2946.5313	2101.2	1227.25
1021.6617	2947.6244	2047.05	1173.5
1021.7757	2948.7169	1983.9	1108.6
1021.8897	2949.8087	1923.45	1046.7
1022.0037	2950.8999	1864.7	987.3
1022.1176	2951.9904	1821.05	945.3
1022.2315	2953.0803	1772.8	896.15
1022.3453	2954.1696	1741.3	866.15
1022.4591	2955.2582	1706.7	832.9
1022.5728	2956.3462	1675.25	798.2
1022.6865	2957.4335	1653.45	775.95
1022.8002	2958.5202	1635.9	757.7
1022.9138	2959.6062	1607.45	732.25
1023.0274	2960.6916	1597.7	720.65
1023.141	2961.7764	1595.2	718.6
1023.2545	2962.8605	1578.1	700.45
1023.3679	2963.9439	1581.75	705.8
1023.4813	2965.0267	1571.75	694.25
1023.5947	2966.1089	1588.45	689.9
1023.708	2967.1905	1561.15	686.65
1023.8213	2968.2714	1561.9	685.65
1023.9346	2969.3516	1555.2	679
1024.0478	2970.4312	1579.95	695.85
1024.1609	2971.5102	1574.7	698.2
1024.274	2972.5885	1573.5	697.55
1024.3871	2973.6662	1581.1	699.75
1024.5002	2974.7432	1577	700.95
1024.6132	2975.8196	1571.45	696
1024.7261	2976.8954	1574.4	700.95
1024.839	2977.9705	1574.7	699.55
1024.9519	2979.045	1564.15	689.05
1025.0647	2980.1188	1556.1	681.6
1025.1775	2981.192	1547	670.9
1025.2902	2982.2645	1537.55	660.25
1025.4029	2983.3364	1518.15	642.45
1025.5156	2984.4077	1503.05	628.1
1025.6282	2985.4783	1490	608.6
1025.7407	2986.5483	1466.6	592.75
1025.8532	2987.6177	1446.1	571.4
1025.9657	2988.6864	1424.25	548.15
1026.0782	2989.7545	1404.5	526.75
1026.1906	2990.8219	1373.65	498.55
1026.3029	2991.8887	1362.75	483.6
1026.4152	2992.9548	1340.9	463.55
1026.5275	2994.0204	1314.65	440
1026.6397	2995.0852	1297.6	423.4
1026.7519	2996.1495	1284.05	406.7
1026.864	2997.2131	1265.15	390.25
1026.9761	2998.276	1242.6	366.75
1027.0882	2999.3383	1229.15	354.85
1027.2002	3000.4	1215.05	339.7
1027.3122	3001.4611	1201.1	324.4
1027.4241	3002.5215	1188.1	314.55
1027.536	3003.5812	1180.1	305.35
1027.6478	3004.6404	1174	298.95
1027.7596	3005.6989	1161.15	282.75
1027.8714	3006.7567	1151.6	275.8
1027.9831	3007.8139	1172.8	268.3
1028.0947	3008.8705	1137.85	265
1028.2064	3009.9264	1136.25	257.95
1028.3179	3010.9818	1127.75	250.95
1028.4295	3012.0364	1128.4	253.1
1028.541	3013.0905	1117.4	243.1
1028.6524	3014.1439	1111.8	235.5
1028.7638	3015.1966	1104.95	230.7
1028.8752	3016.2487	1105.65	230.3
1028.9865	3017.3002	1107.25	226.85
1029.0978	3018.3511	1094.95	221.9
1029.209	3019.4013	1104.65	229.6
1029.3202	3020.4509	1095.85	221.2
1029.4314	3021.4998	1095.75	218.95
1029.5425	3022.5481	1091.75	215.2
1029.6535	3023.5958	1098.55	222.7
1029.7645	3024.6428	1091.7	214.4
1029.8755	3025.6892	1092.65	218.05
1029.9864	3026.735	1090.9	215.4
1030.0973	3027.7802	1091.9	217.1
1030.2082	3028.8247	1092.1	218.25
1030.319	3029.8685	1094.15	219.15
1030.4297	3030.9118	1089.55	213.3
1030.5404	3031.9544	1091.15	218.8
1030.6511	3032.9963	1089.8	213.9
1030.7617	3034.0376	1092.4	217.2
1030.8723	3035.0783	1099.85	220.5
1030.9829	3036.1184	1097.7	222.7
1031.0934	3037.1578	1093.5	220.25
1031.2038	3038.1966	1094.55	219.15
1031.3142	3039.2348	1097.7	221.6
1031.4246	3040.2723	1107.65	225.05
1031.5349	3041.3092	1097	223.15
1031.6452	3042.3455	1099.75	222.6
1031.7554	3043.3811	1095.95	221.3
1031.8656	3044.4161	1100.2	224.65
1031.9758	3045.4505	1099.75	224.4
1032.0859	3046.4842	1097.4	219.25
1032.1959	3047.5173	1100.55	225.1
1032.3059	3048.5498	1094.75	221.8
1032.4159	3049.5816	1094.75	218.4
1032.5258	3050.6128	1091.1	215.1
1032.6357	3051.6434	1093.85	215.5
1032.7455	3052.6734	1091.65	215.95
1032.8553	3053.7027	1089.8	215.55
1032.9651	3054.7314	1090.5	216.4
1033.0748	3055.7594	1088.55	215.05
1033.1845	3056.7868	1090.05	215.15
1033.2941	3057.8136	1080.55	205
1033.4037	3058.8398	1082.45	207.65
1033.5132	3059.8653	1086.1	210.65
1033.6227	3060.8902	1085.7	209.35
1033.7321	3061.9145	1081.95	205.9
1033.8415	3062.9381	1082.35	206.55
1033.9509	3063.9612	1099.75	209.55
1034.0602	3064.9835	1082.9	208.55
1034.1694	3066.0053	1083.2	205.65
1034.2787	3067.0264	1076.3	202.05
1034.3878	3068.0469	1077.3	199.35
1034.497	3069.0668	1079.75	202.6
1034.6061	3070.086	1066.7	190.7
1034.7151	3071.1046	1070.05	195.15
1034.8241	3072.1226	1069.05	192.4
1034.9331	3073.1399	1063.1	187.9
1035.042	3074.1567	1058.25	183.85
1035.1508	3075.1727	1056.35	179.8
1035.2597	3076.1882	1055.1	181.1
1035.3684	3077.203	1048.8	171.5
1035.4772	3078.2173	1049.05	173.2
1035.5859	3079.2308	1040.35	162.15
1035.6945	3080.2438	1039.2	160.65
1035.8031	3081.2561	1029.05	153.25
1035.9117	3082.2678	1022.4	147.8
1036.0202	3083.2789	1023.6	147.45
1036.1286	3084.2893	1020.6	146.45
1036.2371	3085.2991	1016.3	139.8
1036.3454	3086.3083	1020	141.05
1036.4538	3087.3169	1010.4	132.65
1036.562	3088.3248	1010.25	132.65
1036.6703	3089.3321	1009.2	133.4
1036.7785	3090.3388	998.15	124.1
1036.8866	3091.3449	1002.2	128.4
1036.9948	3092.3503	999.45	122.75
1037.1028	3093.3551	995.35	120.65
1037.2108	3094.3593	992.7	117.55
1037.3188	3095.3629	992.5	119.85
1037.4267	3096.3658	992.3	113.85
1037.5346	3097.3681	985.3	110.7
1037.6425	3098.3698	990.05	113.5
1037.7503	3099.3708	991.65	111.65
1037.858	3100.3713	981.3	107
1037.9657	3101.3711	983.55	108.15
1038.0734	3102.3702	1117.3	110.5
1038.181	3103.3688	983.25	108.2
1038.2886	3104.3667	976.95	103.8
1038.3961	3105.364	973.45	97.45
1038.5036	3106.3607	977.15	100.05
1038.611	3107.3568	970.5	94.9
1038.7184	3108.3522	971	97.8
1038.8257	3109.347	972.3	97.15
1038.933	3110.3412	971.7	93.3
1039.0403	3111.3348	965.3	90.15
1039.1475	3112.3277	963.35	88.75
1039.2547	3113.32	964.65	90.25
1039.3618	3114.3117	965.1	89.7
1039.4689	3115.3028	962.95	87.1
1039.5759	3116.2932	963.05	84.95
1039.6829	3117.2831	968.65	88.2
1039.7898	3118.2723	962.35	87
1039.8967	3119.2608	957.75	82
1040.0035	3120.2488	957.8	81.25
1040.1103	3121.2361	953.7	77.9
1040.2171	3122.2229	956.6	82.65
1040.3238	3123.209	955.45	79.5
1040.4305	3124.1944	956.6	82.75
1040.5371	3125.1793	955.6	79.15
1040.6437	3126.1635	951.15	75.8
1040.7502	3127.1471	948.7	72.85
1040.8567	3128.1301	951.25	76.45
1040.9631	3129.1125	947.85	72.75
1041.0695	3130.0942	952.6	76.85
1041.1759	3131.0753	957.85	75.9
1041.2822	3132.0558	952.6	76.2
1041.3884	3133.0357	949.2	73.95
1041.4946	3134.015	946.6	69.95
1041.6008	3134.9936	948.3	70.6
1041.7069	3135.9716	967.05	70.85
1041.813	3136.949	943.4	69.25
1041.919	3137.9258	959.45	67.1
1042.025	3138.902	950.95	71.9
1042.1309	3139.8775	939.85	63.3
1042.2368	3140.8524	941.5	65.15
1042.3427	3141.8267	940.65	63.2
1042.4485	3142.8004	943.7	67.7
1042.5542	3143.7735	944	62.2
1042.6599	3144.7459	941.15	63.7
1042.7656	3145.7178	942.55	66.6
1042.8712	3146.689	937.55	65.35
1042.9768	3147.6596	938.1	63.2
1043.0823	3148.6295	936.35	61.15
1043.1878	3149.5989	935.85	60.95
1043.2932	3150.5676	937.35	63.7
1043.3986	3151.5357	932.9	60.6
1043.5039	3152.5032	934.85	61
1043.6092	3153.4701	933.5	58.2
1043.7145	3154.4364	936.95	59.9
1043.8197	3155.402	931.95	56.95
1043.9248	3156.367	933.4	57.15
1044.03	3157.3315	967.55	56.9
1044.135	3158.2952	932	56.7
1044.24	3159.2584	931.2	57.4
1044.345	3160.221	934.1	59.85
1044.4499	3161.1829	934.75	59.65
1044.5548	3162.1442	929.35	55.15
1044.6596	3163.105	929	54.6
1044.7644	3164.065	928.75	54.45
1044.8692	3165.0245	931.4	52.65
1044.9739	3165.9834	929.8	56
1045.0785	3166.9416	928	53.1
1045.1831	3167.8993	929.45	52.3
1045.2877	3168.8563	928.6	53.4
1045.3922	3169.8127	922.85	47.7
1045.4966	3170.7684	928.4	52.5
1045.6011	3171.7236	927.2	52.15
1045.7054	3172.6782	926.05	51.2
1045.8098	3173.6321	926.9	52.25
1045.914	3174.5854	929.35	49.35
1046.0183	3175.5381	926.4	50.8
1046.1224	3176.4902	926.05	53.7
1046.2266	3177.4417	926.2	52.65
1046.3307	3178.3926	923.4	48.1
1046.4347	3179.3428	922.2	47.45
1046.5387	3180.2924	923.55	49.05
1046.6427	3181.2415	923.65	47
1046.7466	3182.1899	923.65	48.8
1046.8504	3183.1377	921.2	47.5
1046.9542	3184.0848	926.05	48.4
1047.058	3185.0314	922.5	48.35
1047.1617	3185.9773	924.4	48.7
1047.2654	3186.9227	923.1	47.9
1047.369	3187.8674	922.4	50
1047.4726	3188.8115	926.8	46.35
1047.5761	3189.755	917.2	42.85
1047.6796	3190.6979	920.2	47.1
1047.783	3191.6402	918.5	45.35
1047.8864	3192.5818	918.6	45.4
1047.9898	3193.5229	934.65	47.9
1048.0931	3194.4633	916.6	42.9
1048.1963	3195.4031	916.15	39.95
1048.2995	3196.3423	918	41.65
1048.4027	3197.2809	917.7	43.9
1048.5058	3198.2189	919.75	43.95
1048.6089	3199.1563	933.1	42.3
1048.7119	3200.0931	917.25	44.8
1048.8148	3201.0292	914.65	42.25
1048.9178	3201.9648	916.5	42.2
1049.0206	3202.8997	919	41.25
1049.1235	3203.834	916.85	41.55
1049.2262	3204.7677	915.85	41.55
1049.329	3205.7008	915.7	40.85
1049.4317	3206.6333	911.65	38.95
1049.5343	3207.5652	918.95	41.45
1049.6369	3208.4964	915.75	43.25
1049.7394	3209.4271	914.15	39.65
1049.8419	3210.3571	913	38.95
1049.9444	3211.2865	913.4	38.35
1050.0468	3212.2154	914.45	40.55
1050.1491	3213.1436	913.25	35
1050.2514	3214.0712	917.5	36.85
1050.3537	3214.9982	912.3	37.5
1050.4559	3215.9246	910.15	36.5
1050.5581	3216.8503	913.2	39.9
1050.6602	3217.7755	912.45	37.2
1050.7623	3218.7001	913.6	39.4
1050.8643	3219.624	909.25	34.75
1050.9663	3220.5473	910.35	34.8
1051.0682	3221.4701	912.5	37.95
1051.1701	3222.3922	913.8	37.95
1051.2719	3223.3137	910.45	36.9
1051.3737	3224.2346	909.45	33.6
1051.4754	3225.1549	909.2	33.85
1051.5771	3226.0746	909.1	34.7
1051.6788	3226.9937	910.65	34.45
1051.7804	3227.9121	909.7	35.45
1051.8819	3228.83	910.8	35.55
1051.9834	3229.7473	911.35	37.95
1052.0849	3230.6639	908.8	34.55
1052.1863	3231.5799	907.75	32.75
1052.2876	3232.4954	910.15	33.95
1052.3889	3233.4102	908.6	32.5
1052.4902	3234.3244	912	36.6
1052.5914	3235.238	907.9	33.25
1052.6926	3236.151	927.85	29.35
1052.7937	3237.0634	905	32.25
1052.8948	3237.9752	909.35	34.3
1052.9958	3238.8864	906.85	30.7
1053.0968	3239.797	907.8	33.7
1053.1977	3240.7069	907.35	29.65
1053.2986	3241.6163	908	30.85
1053.3994	3242.5251	905.5	32
1053.5002	3243.4332	904.4	29.85
1053.6009	3244.3408	907.15	32.4
1053.7016	3245.2477	900.9	25
1053.8022	3246.154	906.15	31.85
1053.9028	3247.0598	906.6	30.75
1054.0034	3247.9649	904	31.05
1054.1039	3248.8694	902.95	29.35
1054.2043	3249.7733	901.7	26.05
1054.3047	3250.6766	903.8	28.2
1054.4051	3251.5793	903.95	29.15
1054.5054	3252.4814	902.35	27.75
1054.6056	3253.3829	901	27.5
1054.7058	3254.2838	901.2	26
1054.806	3255.1841	900.95	27.85
1054.9061	3256.0838	901.95	29.15
1055.0061	3256.9829	899.45	24.6
1055.1062	3257.8814	903.85	27.7
1055.2061	3258.7792	904.05	27.55
1055.306	3259.6765	900.65	23.65
1055.4059	3260.5731	898.8	24.45
1055.5057	3261.4692	901.4	24.55
1055.6055	3262.3647	901.8	27.45
1055.7052	3263.2595	898.65	23.95
1055.8049	3264.1538	897.9	23.55
1055.9045	3265.0474	902.25	28.55
1056.0041	3265.9404	898.75	23.8
1056.1036	3266.8329	897.25	24.9
1056.2031	3267.7247	907	22.65
1056.3025	3268.616	896.2	22.05
1056.4019	3269.5066	896	21.45
1056.5013	3270.3966	897.85	21.05
1056.6005	3271.286	893.9	22.3
