Software Version:	3.9.2.0
Unit SN:	10000200
Spectrometer SN:	6960
Date:	3/8/2024 12:31:22 PM
Data Line Index:	25
Spectral Points:	2048
Integration time (ms):	125
Averages:	20
Delay (ms):	30000
Sequence Number:	1
Processing:	dark subtract
Laser Power (mW):	300
Laser Current (mA):	821
Laser Diode Temp (C):	25
Laser Case Temp (C):	26
System Temp (C):	26
Spectrometer Temp (C):	23.8
CCD Temp (C):	0.012
Secondary Temp (C):	20.006
Heatsink Temp (C):	20.301
CCDPCB Temp (C):	36.207
SecondaryPCB Temp (C):	30.138

Wavelength	RamanShift	Raw Counts	Dark Subtracted
787.061	30.1047	445.7	37.05
787.2016	32.3739	446.1	39.65
787.3422	34.6426	451.25	42.5
787.4828	36.9109	453.9	41.85
787.6235	39.1787	461.7	50
787.7642	41.4461	470.95	53.25
787.9049	43.7131	476.3	54.2
788.0456	45.9796	486.05	62
788.1863	48.2456	492.9	65.5
788.3271	50.5112	501.65	67.8
788.4679	52.7764	509.45	73.35
788.6087	55.0411	520.95	79.15
788.7496	57.3054	529.8	82.95
788.8904	59.5692	540.2	93.65
789.0313	61.8326	543.8	94.4
789.1722	64.0955	555.65	103.55
789.3132	66.3579	572.4	114.4
789.4541	68.6199	587.4	123.75
789.5951	70.8815	622.15	154.7
789.7361	73.1426	694.55	223.65
789.8771	75.4032	879.7	404.5
790.0181	77.6634	1348.85	869.7
790.1592	79.9231	2418.5	1931.5
790.3003	82.1824	4736.25	4231.8
790.4414	84.4412	8818.9	8286.3
790.5825	86.6995	14289.25	13721.3
790.7237	88.9574	19584.4	18982.15
790.8648	91.2148	23122.8	22501.45
791.006	93.4717	24589.95	23954.45
791.1472	95.7282	24734.5	24092.55
791.2885	97.9842	24325.8	23676.35
791.4297	100.2398	23555.7	22908.1
791.571	102.4949	22745.25	22093.6
791.7123	104.7495	21810.9	21156.85
791.8536	107.0036	20901.1	20248.2
791.9949	109.2573	20145.2	19494.1
792.1363	111.5105	19410.35	18753.7
792.2777	113.7632	18790.9	18133.55
792.4191	116.0154	18260.1	17589.55
792.5605	118.2672	17885.35	17221.85
792.7019	120.5185	17519.9	16853.6
792.8434	122.7693	17234.65	16566.95
792.9849	125.0197	16983.95	16309.35
793.1264	127.2696	16754.1	16074.6
793.2679	129.519	16538.8	15856.25
793.4094	131.7679	16239.5	15552.5
793.551	134.0163	15984.55	15297.3
793.6926	136.2642	15632.25	14944.25
793.8342	138.5117	15290.35	14589.6
793.9758	140.7587	14880.7	14188.95
794.1175	143.0052	14556.5	13862.6
794.2591	145.2512	14190.1	13494.75
794.4008	147.4967	13904.45	13210.15
794.5425	149.7417	13678.55	12978.5
794.6842	151.9863	13529.75	12824.15
794.826	154.2304	13402.1	12689.8
794.9677	156.4739	13239.8	12521.9
795.1095	158.717	13106.85	12393.45
795.2513	160.9596	12943.95	12227.45
795.3931	163.2017	12709	11988.45
795.535	165.4433	12458.4	11736.95
795.6768	167.6844	12111.5	11388.1
795.8187	169.925	11846.3	11118.3
795.9606	172.1651	11528.35	10800.05
796.1025	174.4047	11263.15	10532.35
796.2445	176.6439	11071.2	10339.2
796.3864	178.8825	10859.25	10120.15
796.5284	181.1206	10740.85	9997.9
796.6704	183.3582	10640.35	9889.8
796.8124	185.5954	10518.55	9769.55
796.9544	187.832	10474.95	9720.65
797.0965	190.0681	10434.3	9681.25
797.2386	192.3037	10450.8	9688.9
797.3806	194.5388	10442.8	9680.45
797.5228	196.7734	10445.25	9678.9
797.6649	199.0075	10508.45	9737.5
797.807	201.2411	10593.55	9830.9
797.9492	203.4742	10676.5	9905
798.0914	205.7068	10812.15	10038.65
798.2336	207.9389	10913.35	10135.45
798.3758	210.1704	11051.85	10284.4
798.518	212.4015	11153.15	10394.8
798.6603	214.632	11296.1	10544.5
798.8025	216.862	11396.95	10646.95
798.9448	219.0915	11479.95	10728.7
799.0871	221.3205	11541.65	10788.65
799.2294	223.549	11624.45	10873.3
799.3718	225.777	11652.65	10904.45
799.5141	228.0044	11713.8	10958.25
799.6565	230.2314	11797.95	11038.35
799.7989	232.4578	11891.2	11130.9
799.9413	234.6837	11958.7	11188.65
800.0837	236.909	11969.4	11197.45
800.2262	239.1339	11967.95	11167.6
800.3687	241.3582	11957.15	11173.35
800.5111	243.582	11867.2	11057
800.6536	245.8053	11793.5	10994.65
800.7961	248.0281	11807.2	11016.35
800.9387	250.2503	11821.3	11024
801.0812	252.472	11881.25	11083.6
801.2238	254.6932	12036	11238.8
801.3664	256.9139	12157.8	11359.75
801.509	259.134	12351	11545.25
801.6516	261.3536	12607.5	11806.5
801.7942	263.5727	12943.05	12134.5
801.9369	265.7912	13191.7	12383
802.0795	268.0092	13494.35	12693.55
802.2222	270.2267	13705.5	12900.65
802.3649	272.4436	13846.45	13042.75
802.5076	274.6601	13902.7	13086.9
802.6504	276.8759	13825.55	13014
802.7931	279.0913	13754.9	12946.65
802.9359	281.3061	13609.15	12797.45
803.0787	283.5204	13517.55	12699.95
803.2215	285.7341	13513.25	12690.65
803.3643	287.9473	13523.1	12690.15
803.5071	290.16	13540.6	12720.3
803.6499	292.3721	13608.25	12790.55
803.7928	294.5837	13773.45	12954.65
803.9357	296.7947	13930.55	13111.8
804.0786	299.0052	14090.7	13268.15
804.2215	301.2152	14102.35	13278.5
804.3644	303.4246	13953.45	13136.45
804.5074	305.6334	13662.25	12848.5
804.6503	307.8418	13303.55	12482.55
804.7933	310.0495	12968.2	12142.7
804.9363	312.2568	12553.6	11731.55
805.0793	314.4635	12150.1	11322.15
805.2223	316.6696	11837.3	11009.25
805.3653	318.8752	11625.85	10787.2
805.5084	321.0802	11527.7	10697.35
805.6514	323.2847	11514.45	10680.8
805.7945	325.4887	11541.2	10706.4
805.9376	327.692	11557.4	10722.15
806.0807	329.8949	11532.45	10696.55
806.2238	332.0972	11385.15	10548.8
806.367	334.2989	11181.5	10339
806.5101	336.5001	10970.55	10126.85
806.6533	338.7007	10775.75	9932.9
806.7965	340.9008	10629.55	9788
806.9397	343.1003	10461.25	9616.35
807.0829	345.2992	10341.45	9498.1
807.2261	347.4976	10256.15	9409.05
807.3693	349.6955	10175.8	9323
807.5126	351.8927	10137.55	9286.4
807.6559	354.0895	10076.6	9215.05
807.7991	356.2856	10042.8	9185.8
807.9424	358.4812	9955.45	9102.3
808.0857	360.6763	9956.35	9100.9
808.2291	362.8707	9921.2	9065.7
808.3724	365.0646	9996.8	9138.75
808.5158	367.258	10022.9	9168
808.6591	369.4508	10085.9	9222.9
808.8025	371.643	10243.85	9378.75
808.9459	373.8346	10312.6	9445.1
809.0893	376.0257	10398.8	9530.2
809.2327	378.2162	10438.85	9572.2
809.3762	380.4062	10463.05	9597.15
809.5196	382.5956	10382.5	9518.25
809.6631	384.7844	10289.6	9428.95
809.8066	386.9726	10153.3	9298.3
809.9501	389.1603	10075.15	9220.45
810.0936	391.3474	10040.2	9141
810.2371	393.5339	9999	9140.65
810.3806	395.7199	9960.05	9105.7
810.5241	397.9052	9997.4	9137.35
810.6677	400.09	10110.25	9250.8
810.8113	402.2743	10267.1	9409.65
810.9548	404.4579	10436.75	9580.3
811.0984	406.641	10621.75	9761.25
811.2421	408.8235	10776.6	9915.65
811.3857	411.0054	10893.25	10025.1
811.5293	413.1868	11005.75	10136.45
811.673	415.3675	11028.3	10155.85
811.8166	417.5477	10996.7	10126
811.9603	419.7273	10923.05	10051.35
812.104	421.9064	10882.55	9999.6
812.2477	424.0848	10803.8	9932.4
812.3914	426.2627	10679.5	9807.9
812.5351	428.4399	10499.55	9622.8
812.6788	430.6166	10218.2	9337.85
812.8226	432.7928	9894.85	9017.35
812.9663	434.9683	9661.55	8785.1
813.1101	437.1432	9449.95	8572.2
813.2539	439.3176	9288.9	8414.8
813.3977	441.4914	9180.95	8313.2
813.5415	443.6645	9166.85	8294.7
813.6853	445.8371	9116.15	8239.8
813.8291	448.0091	9107.7	8228.75
813.973	450.1806	9076.75	8199.65
814.1168	452.3514	9076.1	8202
814.2607	454.5216	9105.4	8219.55
814.4046	456.6913	9108.55	8232.3
814.5485	458.8603	9163.6	8286.2
814.6924	461.0288	9198.05	8324.85
814.8363	463.1967	9185.3	8314.45
814.9802	465.3639	9188.3	8310.2
815.1241	467.5306	9151.5	8273.9
815.2681	469.6967	9142.9	8268.4
815.412	471.8622	9152.7	8282.7
815.556	474.0271	9204.5	8332.9
815.7	476.1914	9221.45	8342.95
815.844	478.3551	9221.8	8340.9
815.988	480.5182	9302.65	8428.7
816.132	482.6807	9386.45	8515.65
816.276	484.8426	9557.75	8696.35
816.4201	487.0039	9856.45	8986
816.5641	489.1647	10202.95	9325.55
816.7082	491.3248	10484	9607.8
816.8522	493.4843	10570.5	9695.45
816.9963	495.6432	10541.9	9668.25
817.1404	497.8015	10422.5	9538.4
817.2845	499.9592	10292.2	9403.9
817.4286	502.1163	10080.75	9189.65
817.5727	504.2728	9800.75	8917.4
817.7168	506.4287	9545.4	8670
817.861	508.5839	9289.1	8414.25
818.0051	510.7386	9141.75	8262.45
818.1493	512.8927	9061.8	8171.55
818.2935	515.0461	9050.5	8164.95
818.4377	517.199	9144.55	8258.85
818.5818	519.3512	9318.55	8427.45
818.726	521.5029	9626.9	8733.65
818.8703	523.6539	9874.45	8989.8
819.0145	525.8043	9983.2	9094.25
819.1587	527.9541	9900.85	9007.9
819.303	530.1033	9697	8808.05
819.4472	532.2519	9548.35	8657.8
819.5915	534.3999	9477.1	8587.95
819.7357	536.5472	9494.85	8604.7
819.88	538.694	9641.65	8756.9
820.0243	540.8401	9837.85	8947.05
820.1686	542.9856	9999.85	9098.9
820.3129	545.1305	10015.2	9106.2
820.4572	547.2748	9979.2	9070.3
820.6016	549.4185	9824.1	8915.45
820.7459	551.5615	9717	8809.9
820.8902	553.704	9777.9	8878.6
821.0346	555.8458	9836.55	8936.85
821.1789	557.987	10031.15	9133.65
821.3233	560.1276	10269.2	9366.5
821.4677	562.2675	10676.65	9776.25
821.6121	564.4069	11190.1	10285.85
821.7565	566.5456	11678.85	10778.7
821.9009	568.6837	11854.7	10956.1
822.0453	570.8212	11487.8	10589.45
822.1897	572.958	10813.25	9912.5
822.3342	575.0942	10208	9314.3
822.4786	577.2299	9772.1	8880.85
822.6231	579.3648	9521.7	8637.1
822.7675	581.4992	9465.95	8591.5
822.912	583.6329	9558.45	8683.6
823.0565	585.766	9683.1	8801.65
823.201	587.8985	9812	8927.7
823.3454	590.0304	9873.55	8953.4
823.4899	592.1616	9862.85	8963.45
823.6345	594.2922	9761.9	8857.95
823.779	596.4222	9597.05	8690.9
823.9235	598.5515	9398.75	8491.15
824.068	600.6802	9236.15	8327.15
824.2126	602.8083	9097.1	8192.85
824.3571	604.9358	9080.75	8174.45
824.5017	607.0626	9118.1	8208
824.6462	609.1888	9234.5	8323.45
824.7908	611.3144	9437.15	8524.4
824.9354	613.4393	9564.15	8652.9
825.08	615.5636	9693.65	8782.4
825.2246	617.6873	9713.35	8801.35
825.3692	619.8103	9659.4	8744.05
825.5138	621.9327	9457.45	8548.45
825.6584	624.0544	9240.85	8334.95
825.803	626.1756	9069.2	8163.6
825.9477	628.2961	8940.95	8030.55
826.0923	630.4159	8851.3	7942.1
826.237	632.5351	8826.85	7914.2
826.3816	634.6537	8828.65	7914.45
826.5263	636.7716	8838.45	7919.85
826.6709	638.8889	8861.5	7942.95
826.8156	641.0056	8872.9	7956.25
826.9603	643.1216	8851.55	7935.3
827.105	645.237	8836.6	7921.35
827.2497	647.3518	8728.3	7820.2
827.3944	649.4659	8645.6	7738.9
827.5391	651.5793	8601.2	7697.4
827.6838	653.6922	8570.1	7662.3
827.8285	655.8043	8523.3	7613.35
827.9733	657.9159	8568.8	7660
828.118	660.0268	8549.15	7637.6
828.2627	662.137	8558.75	7645.2
828.4075	664.2466	8581.7	7662.25
828.5522	666.3556	8563.9	7645.7
828.697	668.4639	8509.6	7595.5
828.8418	670.5716	8457.1	7549
828.9865	672.6786	8437.4	7519.55
829.1313	674.785	8364.15	7440.95
829.2761	676.8907	8329.15	7412.75
829.4209	678.9958	8321.85	7410.2
829.5657	681.1002	8309.25	7396.3
829.7105	683.204	8304.95	7379.8
829.8553	685.3072	8284.3	7361.15
830.0001	687.4097	8313	7395.5
830.1449	689.5115	8291.3	7369.15
830.2898	691.6127	8291.15	7373.8
830.4346	693.7132	8285.25	7368.85
830.5794	695.8131	8320.1	7382.7
830.7243	697.9123	8342.45	7419.7
830.8691	700.0109	8370.5	7446.25
831.014	702.1089	8420.5	7500.3
831.1588	704.2061	8456.15	7536
831.3037	706.3028	8538.15	7615.2
831.4486	708.3987	8590.6	7667.45
831.5935	710.4941	8590.85	7670.55
831.7383	712.5887	8616.05	7693.75
831.8832	714.6827	8688.1	7764.7
832.0281	716.7761	8749.6	7832.85
832.173	718.8688	8880.2	7958.4
832.3179	720.9608	9013.8	8085.9
832.4628	723.0522	9158.2	8224.7
832.6077	725.1429	9246.15	8319.7
832.7527	727.233	9356.85	8429.85
832.8976	729.3224	9448.1	8524.4
833.0425	731.4112	9422.95	8498.85
833.1874	733.4993	9299.35	8374.8
833.3324	735.5867	9062.6	8138.95
833.4773	737.6735	8841.45	7916.4
833.6222	739.7596	8679.8	7752.7
833.7672	741.845	8539.9	7615
833.9122	743.9298	8452.8	7527.9
834.0571	746.014	8419.3	7494.6
834.2021	748.0974	8402.8	7473.55
834.347	750.1802	8403.8	7473
834.492	752.2624	8458.85	7527.95
834.637	754.3439	8503.4	7568.35
834.782	756.4247	8591.95	7652.25
834.9269	758.5048	8750.3	7818.35
835.0719	760.5843	9042.8	8109.35
835.2169	762.6631	9383.85	8449.95
835.3619	764.7413	9948.7	9021.45
835.5069	766.8188	10608	9675.15
835.6519	768.8956	11208.9	10274.25
835.7969	770.9718	11555.4	10622.15
835.9419	773.0473	11525.95	10598.1
836.0869	775.1221	11318.4	10387.15
836.232	777.1962	11079.7	10146.2
836.377	779.2697	11023.05	10087.55
836.522	781.3426	11081.4	10137.45
836.667	783.4147	11184.95	10251.2
836.8121	785.4862	11219.95	10285.9
836.9571	787.557	11007.4	10074.65
837.1021	789.6271	10563.15	9629.15
837.2472	791.6966	9977.95	9045.05
837.3922	793.7654	9428.85	8495.7
837.5373	795.8335	8991.75	8058.35
837.6823	797.901	8716.85	7786.7
837.8274	799.9678	8558.9	7620.55
837.9724	802.0339	8448.7	7513.95
838.1175	804.0993	8407.9	7463.15
838.2626	806.1641	8352.05	7416.75
838.4076	808.2282	8284.55	7349.7
838.5527	810.2916	8202.55	7267.9
838.6978	812.3544	8148.65	7214.7
838.8428	814.4164	8093.85	7159.95
838.9879	816.4778	8144.95	7204.55
839.133	818.5385	8191.2	7253.95
839.2781	820.5986	8333.45	7397.95
839.4232	822.658	8570.4	7631.95
839.5682	824.7166	8919.55	7983.55
839.7133	826.7747	9426.5	8488.3
839.8584	828.832	9984.1	9051.35
840.0035	830.8886	10373.7	9434.7
840.1486	832.9446	10557.35	9620.45
840.2937	834.9999	10431	9491.4
840.4388	837.0545	10113.8	9171.45
840.5839	839.1085	9744.85	8807.85
840.729	841.1618	9393.7	8454.35
840.8741	843.2143	9136.05	8197.7
841.0192	845.2662	8944.45	8004
841.1643	847.3175	8802.25	7863.95
841.3095	849.368	8694.6	7756.35
841.4546	851.4179	8621.25	7680
841.5997	853.467	8539.05	7598.4
841.7448	855.5155	8459.95	7522.15
841.8899	857.5633	8419.85	7480.8
842.0351	859.6105	8313.6	7374.8
842.1802	861.6569	8271.85	7332.9
842.3253	863.7027	8203.65	7261.3
842.4704	865.7478	8165.8	7225.35
842.6156	867.7922	8117.25	7179.2
842.7607	869.8359	8076.9	7134.3
842.9058	871.8789	8081.95	7142.05
843.0509	873.9212	8165.1	7190.85
843.1961	875.9629	8219.4	7275.3
843.3412	878.0039	8328.8	7384.9
843.4863	880.0441	8388.45	7446.7
843.6315	882.0837	8456.4	7517.7
843.7766	884.1226	8512.35	7572.35
843.9218	886.1609	8576.2	7637
844.0669	888.1984	8711.25	7771.4
844.212	890.2352	8859.95	7919.95
844.3572	892.2714	8889.05	7944.8
844.5023	894.3069	8841.9	7899.15
844.6475	896.3416	8677.3	7737.25
844.7926	898.3757	8516.75	7573.7
844.9377	900.4091	8417.5	7470.05
845.0829	902.4418	8435	7487.05
845.228	904.4739	8439.2	7492.8
845.3732	906.5052	8487.55	7542.7
845.5183	908.5358	8481.05	7539.95
845.6635	910.5658	8363.45	7415.95
845.8086	912.595	8156.7	7212.55
845.9538	914.6236	7963	7021.2
846.0989	916.6515	7830.9	6888.8
846.2441	918.6786	7734.55	6787.95
846.3892	920.7051	7723.2	6777.1
846.5344	922.7309	7761.8	6817.3
846.6795	924.756	7779.6	6836.15
846.8246	926.7804	7832.15	6888.45
846.9698	928.8041	7833.6	6888.75
847.1149	930.8272	7897.5	6950.4
847.2601	932.8495	7883.95	6937.9
847.4052	934.8711	7906.6	6958
847.5504	936.892	7862.65	6913.85
847.6955	938.9123	7882.8	6936.15
847.8407	940.9318	7952.9	7010.8
847.9858	942.9506	7970.95	7024.1
848.131	944.9688	7910.55	6968.8
848.2761	946.9862	7821.35	6877.45
848.4213	949.003	7689.6	6745.95
848.5664	951.019	7596.4	6654.85
848.7115	953.0344	7510.9	6566.05
848.8567	955.0491	7488.95	6546.25
849.0018	957.063	7490.75	6545.1
849.147	959.0763	7576.9	6631.4
849.2921	961.0888	7605.85	6660.65
849.4373	963.1007	7633.2	6691.8
849.5824	965.1119	7650.05	6716
849.7275	967.1223	7655.05	6725.95
849.8727	969.1321	7629.8	6698.9
850.0178	971.1412	7610.3	6675.15
850.1629	973.1495	7593.9	6651.75
850.3081	975.1572	7633.75	6644.55
850.4532	977.1641	7629.55	6685.05
850.5983	979.1704	7605.2	6660.55
850.7435	981.1759	7595.55	6648.25
850.8886	983.1808	7579.7	6635.05
851.0337	985.1849	7598.8	6645.25
851.1788	987.1884	7637.3	6690.25
851.324	989.1911	7694.55	6750.8
851.4691	991.1932	7765.25	6824.8
851.6142	993.1945	7787.9	6843.8
851.7593	995.1951	7752.65	6806.45
851.9045	997.1951	7729.95	6779.55
852.0496	999.1943	7697.05	6749.9
852.1947	1001.1928	7709.35	6764.4
852.3398	1003.1906	7751.25	6809.35
852.4849	1005.1877	7887.6	6941.85
852.63	1007.1841	7973.45	7029.8
852.7751	1009.1798	8027.4	7083.6
852.9202	1011.1748	7970.4	7029.3
853.0653	1013.1691	7838.05	6895.8
853.2104	1015.1627	7688.75	6745.45
853.3555	1017.1556	7486.7	6543.7
853.5006	1019.1477	7369.4	6429.4
853.6457	1021.1392	7274.75	6340
853.7908	1023.1299	7249.9	6318.8
853.9359	1025.12	7259.1	6331.05
854.081	1027.1093	7322.6	6407.05
854.2261	1029.0979	7418.9	6504.8
854.3712	1031.0859	7516.4	6591.8
854.5163	1033.0731	7562.05	6633.7
854.6613	1035.0596	7541.55	6606.1
854.8064	1037.0454	7429.55	6493.7
854.9515	1039.0304	7356.95	6414.05
855.0965	1041.0148	7262.95	6323.8
855.2416	1042.9985	7177.15	6234.75
855.3867	1044.9814	7118.55	6174.2
855.5317	1046.9636	7062.2	6122.55
855.6768	1048.9452	7064.9	6128.35
855.8219	1050.926	7117.8	6180
855.9669	1052.9061	7144.3	6204.9
856.112	1054.8855	7167.3	6225.3
856.257	1056.8642	7206.7	6266.75
856.4021	1058.8421	7273.65	6327.35
856.5471	1060.8194	7299.55	6355.85
856.6921	1062.7959	7339.15	6398.5
856.8372	1064.7717	7383.9	6441.45
856.9822	1066.7469	7477.65	6540.7
857.1272	1068.7213	7552.8	6607.85
857.2723	1070.695	7635.45	6695.65
857.4173	1072.6679	7682.75	6737.45
857.5623	1074.6402	7710.3	6768.3
857.7073	1076.6117	7688.3	6739.9
857.8523	1078.5826	7588.05	6644.35
857.9973	1080.5527	7448.5	6503.65
858.1423	1082.5221	7329.65	6389.4
858.2873	1084.4908	7258.2	6319.85
858.4323	1086.4587	7260.25	6318
858.5773	1088.426	7282.3	6340
858.7223	1090.3925	7310.2	6365.35
858.8673	1092.3584	7330.85	6388.75
859.0123	1094.3235	7359.3	6418.15
859.1573	1096.2879	7458.05	6519.15
859.3022	1098.2515	7599.8	6659.05
859.4472	1100.2145	7800.95	6863.9
859.5922	1102.1767	7954.35	7010.95
859.7371	1104.1382	8185.95	7245.5
859.8821	1106.099	8441.2	7500.25
860.027	1108.0591	8641.7	7704
860.172	1110.0185	8777.7	7833.8
860.3169	1111.9771	8860.8	7920.25
860.4619	1113.9351	8786.4	7844.3
860.6068	1115.8923	8688.8	7747.2
860.7517	1117.8488	8601.4	7660.25
860.8967	1119.8045	8467.55	7528.5
861.0416	1121.7596	8318.05	7380.1
861.1865	1123.7139	8185.2	7249.3
861.3314	1125.6675	8143.75	7207.45
861.4763	1127.6204	8164.5	7225.75
861.6212	1129.5726	8115.35	7175.85
861.7661	1131.524	8044.55	7101.7
861.911	1133.4748	7905.8	6965.2
862.0559	1135.4248	7706	6763.9
862.2008	1137.3741	7529.75	6590.15
862.3457	1139.3226	7421.05	6480
862.4905	1141.2705	7389.1	6449.85
862.6354	1143.2176	7308.9	6364.75
862.7803	1145.164	7278.85	6334.9
862.9251	1147.1097	7186.35	6244.3
863.07	1149.0546	7082.95	6142.5
863.2148	1150.9989	7004.6	6063.15
863.3597	1152.9424	6897.45	5956.35
863.5045	1154.8852	6841.9	5900.9
863.6493	1156.8272	6818.35	5876.25
863.7942	1158.7686	6851.9	5909.15
863.939	1160.7092	6864.05	5924.45
864.0838	1162.6491	6911.95	5972.15
864.2286	1164.5883	7028.3	6088.35
864.3734	1166.5267	7143.45	6202.05
864.5182	1168.4644	7287.15	6347.6
864.663	1170.4014	7475.75	6530.75
864.8078	1172.3377	7683.5	6747.8
864.9526	1174.2732	8016.05	7080.2
865.0974	1176.2081	8400.7	7461
865.2421	1178.1421	8929.55	7987.5
865.3869	1180.0755	9496.15	8559.15
865.5317	1182.0082	9879.95	8940.95
865.6764	1183.9401	10018.1	9084.6
865.8212	1185.8713	9859.25	8927.7
865.9659	1187.8017	9549	8621.75
866.1106	1189.7315	9145.2	8227.45
866.2554	1191.6605	8740.35	7820.85
866.4001	1193.5888	8458.85	7535.1
866.5448	1195.5163	8323.8	7395.6
866.6895	1197.4432	8232.55	7296.6
866.8342	1199.3693	8177.2	7240.2
866.9789	1201.2947	8144.4	7203.65
867.1236	1203.2193	8120.5	7183.15
867.2683	1205.1432	8107.05	7171.25
867.413	1207.0664	8039.75	7103.25
867.5576	1208.9889	8004.35	7063.9
867.7023	1210.9106	8011	7077.8
867.847	1212.8316	7980.05	7049.1
867.9916	1214.7519	8028.8	7083.25
868.1363	1216.6715	8074.2	7140.05
868.2809	1218.5903	8153.85	7218.05
868.4255	1220.5084	8247.15	7310.1
868.5701	1222.4257	8366.6	7431.5
868.7148	1224.3424	8454.2	7523.4
868.8594	1226.2583	8563.4	7626.6
869.004	1228.1735	8689.4	7755.45
869.1486	1230.0879	8859.95	7925.45
869.2932	1232.0016	9070	8135.4
869.4377	1233.9146	9230	8290.95
869.5823	1235.8269	9291.8	8357.85
869.7269	1237.7384	9276.95	8343.9
869.8715	1239.6492	9190.05	8257.75
870.016	1241.5592	9181.25	8246
870.1606	1243.4686	9247.65	8317.4
870.3051	1245.3772	9468.15	8533.7
870.4496	1247.285	9720.5	8783.3
870.5941	1249.1922	9948.3	9013.5
870.7387	1251.0986	10133.5	9201.2
870.8832	1253.0042	10259.1	9327.2
871.0277	1254.9092	10404.4	9471.85
871.1722	1256.8134	10489.95	9558.2
871.3167	1258.7169	10619.95	9685.25
871.4611	1260.6196	10759.85	9830.4
871.6056	1262.5216	10977.15	10043.4
871.7501	1264.4229	11145	10212.65
871.8945	1266.3234	11332.5	10397.75
872.039	1268.2232	11467.6	10531.05
872.1834	1270.1223	11552.1	10614.95
872.3278	1272.0207	11588.8	10656.55
872.4723	1273.9183	11582.95	10643.5
872.6167	1275.8151	11500.55	10566.75
872.7611	1277.7113	11534.9	10602.85
872.9055	1279.6067	11668.55	10738.4
873.0499	1281.5014	11970.25	11035.85
873.1943	1283.3953	12433.8	11498.35
873.3386	1285.2885	13048.8	12115.75
873.483	1287.181	13611.1	12680.05
873.6274	1289.0727	14175.5	13243.8
873.7717	1290.9637	14547.75	13614.65
873.9161	1292.854	14759	13827.75
874.0604	1294.7435	14748.85	13818.8
874.2047	1296.6323	14612.2	13676.85
874.349	1298.5204	14344.05	13410.6
874.4933	1300.4077	14077.55	13144
874.6376	1302.2943	13752.3	12820.25
874.7819	1304.1802	13372	12441.75
874.9262	1306.0653	12847.2	11914.95
875.0705	1307.9497	12334.3	11401.8
875.2147	1309.8333	11888.6	10958.6
875.359	1311.7162	11526.45	10595.85
875.5032	1313.5984	11306.2	10372.05
875.6475	1315.4798	11146.5	10212.95
875.7917	1317.3605	11018.15	10069.8
875.9359	1319.2405	10855.65	9921.4
876.0801	1321.1197	10605.45	9669.45
876.2243	1322.9982	10267.1	9327.75
876.3685	1324.876	9967.6	9037.8
876.5127	1326.753	9667.95	8734
876.6569	1328.6293	9420.05	8486.35
876.801	1330.5048	9187.6	8252.3
876.9452	1332.3796	9009.6	8077.4
877.0893	1334.2537	8924.35	7968.15
877.2335	1336.127	8818.4	7887.9
877.3776	1337.9996	8775	7841.1
877.5217	1339.8714	8758.85	7825.45
877.6658	1341.7426	8787.15	7809.6
877.8099	1343.6129	8797.1	7862.1
877.954	1345.4826	8787.25	7851.4
878.0981	1347.3515	8799.15	7862.15
878.2422	1349.2196	8772.75	7839.45
878.3862	1351.087	8799.25	7865.45
878.5303	1352.9537	8834.75	7897.75
878.6743	1354.8197	8944	8009.55
878.8184	1356.6849	9098.5	8164.35
878.9624	1358.5493	9252.25	8321.05
879.1064	1360.4131	9427.6	8495.55
879.2504	1362.276	9602.5	8673.55
879.3944	1364.1383	9661.15	8728.3
879.5384	1365.9998	9529.5	8590
879.6823	1367.8606	9215.85	8281.65
879.8263	1369.7206	8885.7	7953.1
879.9702	1371.5799	8573.4	7642.1
880.1142	1373.4384	8307.45	7373.45
880.2581	1375.2962	8085.65	7155.6
880.402	1377.1533	7796.95	6867.85
880.5459	1379.0096	7435.8	6508.35
880.6898	1380.8652	7135.65	6206.95
880.8337	1382.7201	6871.85	5944.8
880.9776	1384.5742	6637.75	5705.9
881.1215	1386.4275	6466.8	5536.55
881.2653	1388.2802	6369.9	5434.15
881.4092	1390.132	6242.15	5310.8
881.553	1391.9832	6200.4	5267.25
881.6968	1393.8336	6113.7	5182.2
881.8406	1395.6832	6077.65	5145.85
881.9844	1397.5322	6024.1	5091.9
882.1282	1399.3803	6022.65	5088.5
882.272	1401.2278	5965.75	5038.4
882.4158	1403.0745	5977.2	5045.45
882.5595	1404.9204	5947.7	5021.25
882.7033	1406.7656	5975.65	5046.15
882.847	1408.6101	5996.4	5067.4
882.9908	1410.4538	6022.5	5090.75
883.1345	1412.2968	6037.1	5109.3
883.2782	1414.139	6098.3	5167.9
883.4219	1415.9805	6142.55	5212.45
883.5656	1417.8213	6213.4	5273.95
883.7092	1419.6613	6288.1	5362.55
883.8529	1421.5006	6422	5491.95
883.9965	1423.3391	6616.7	5685.05
884.1402	1425.1769	6841.95	5911.75
884.2838	1427.0139	7239.3	6309.5
884.4274	1428.8502	7719.35	6789.75
884.571	1430.6858	8201.35	7271.45
884.7146	1432.5206	8531.9	7604.35
884.8582	1434.3547	8737.95	7808.65
885.0018	1436.188	8751.95	7825.6
885.1453	1438.0206	8707.15	7779.05
885.2889	1439.8524	8547.4	7618.45
885.4324	1441.6835	8449.95	7519.3
885.5759	1443.5139	8361.9	7431.7
885.7194	1445.3435	8296.55	7371.7
885.8629	1447.1724	8266	7339.2
886.0064	1449.0005	8260.7	7335.1
886.1499	1450.8279	8190	7264.45
886.2933	1452.6545	8171.2	7243.65
886.4368	1454.4804	8205.2	7281
886.5802	1456.3056	8218	7287
886.7237	1458.13	8146.15	7219.3
886.8671	1459.9536	8044.25	7118.9
887.0105	1461.7766	7781.6	6853.7
887.1539	1463.5987	7515.8	6586.75
887.2972	1465.4202	7224	6295.9
887.4406	1467.2409	6948.55	6021.6
887.584	1469.0608	6692.9	5767.75
887.7273	1470.88	6470.4	5541.9
887.8706	1472.6984	6258.45	5333.35
888.0139	1474.5161	6074.45	5147.05
888.1572	1476.3331	5939	5013
888.3005	1478.1493	5845.65	4918.25
888.4438	1479.9648	5791.95	4868.25
888.5871	1481.7795	5716.8	4790.35
888.7303	1483.5935	5658.55	4730.25
888.8736	1485.4067	5615.7	4688.3
889.0168	1487.2192	5592.25	4666
889.16	1489.031	5551.6	4625.85
889.3032	1490.842	5513.9	4590.6
889.4464	1492.6522	5504.5	4583.5
889.5896	1494.4618	5448.35	4519.75
889.7327	1496.2705	5430.7	4503.75
889.8759	1498.0785	5405.9	4480.55
890.019	1499.8858	5361.65	4435.45
890.1622	1501.6924	5321.65	4398.25
890.3053	1503.4981	5296.65	4368.85
890.4484	1505.3032	5260.8	4337.45
890.5914	1507.1075	5198.75	4273.25
890.7345	1508.911	5167	4244.3
890.8776	1510.7138	5149.1	4225.8
891.0206	1512.5159	5075.85	4152.55
891.1637	1514.3172	5038.4	4115.6
891.3067	1516.1178	5010	4088.2
891.4497	1517.9176	4978.15	4052.8
891.5927	1519.7166	4949.3	4028
891.7357	1521.515	4930.95	4000.4
891.8786	1523.3126	4909.1	3986.05
892.0216	1525.1094	4885	3961.7
892.1645	1526.9055	4856.45	3934.7
892.3074	1528.7008	4853.55	3931.1
892.4503	1530.4954	4826.25	3904.55
892.5932	1532.2893	4816.75	3897.85
892.7361	1534.0824	4816.6	3895.2
892.879	1535.8747	4808.25	3891.25
893.0218	1537.6663	4786.4	3869.05
893.1647	1539.4572	4805.3	3886.65
893.3075	1541.2473	4794.95	3877
893.4503	1543.0367	4816.55	3898.9
893.5931	1544.8253	4821.75	3896.25
893.7359	1546.6132	4867.75	3945.25
893.8787	1548.4003	4911.85	3984.65
894.0214	1550.1867	4968.95	4043.65
894.1642	1551.9723	5040.7	4119.35
894.3069	1553.7572	5116.9	4199.4
894.4496	1555.5414	5245.55	4328.75
894.5923	1557.3247	5392.2	4476.9
894.735	1559.1074	5575.3	4664
894.8777	1560.8893	5746.4	4833.4
895.0204	1562.6705	5904.3	4988.65
895.163	1564.4509	6025.8	5113.1
895.3056	1566.2305	6101.4	5192.6
895.4482	1568.0094	6146.95	5238
895.5908	1569.7876	6157.05	5248.9
895.7334	1571.565	6120.5	5208.95
895.876	1573.3417	6122.05	5210.1
896.0186	1575.1176	6113.05	5201.65
896.1611	1576.8928	6108.55	5203.95
896.3036	1578.6672	6129.9	5226.2
896.4461	1580.4409	6187.25	5285.45
896.5886	1582.2138	6238.75	5328.1
896.7311	1583.986	6342.45	5435.1
896.8736	1585.7575	6470.85	5561.85
897.0161	1587.5282	6573.95	5668
897.1585	1589.2981	6694.55	5789.05
897.3009	1591.0673	6795.3	5889.05
897.4433	1592.8358	6928.05	6021.25
897.5857	1594.6035	7056.55	6146.15
897.7281	1596.3704	7150.35	6242
897.8705	1598.1366	7242.95	6334.75
898.0128	1599.9021	7345.05	6440.6
898.1551	1601.6668	7464.2	6555.8
898.2975	1603.4308	7583.25	6676.7
898.4398	1605.194	7756.15	6845.5
898.5821	1606.9564	7937.25	7037.6
898.7243	1608.7182	8206.55	7304.5
898.8666	1610.4791	8503.5	7608.05
899.0088	1612.2394	8814.4	7917.15
899.1511	1613.9988	9157.05	8260.45
899.2933	1615.7576	9459.4	8558.4
899.4355	1617.5156	9627.05	8716.85
899.5776	1619.2728	9677.95	8769.9
899.7198	1621.0293	9561.05	8655.5
899.862	1622.785	9301.7	8395.4
900.0041	1624.54	8915.4	8012.75
900.1462	1626.2942	8501.25	7600.5
900.2883	1628.0477	8063.65	7158.25
900.4304	1629.8005	7684.5	6783.05
900.5725	1631.5525	7329.5	6430.85
900.7145	1633.3037	7035.8	6136.9
900.8566	1635.0542	6796.6	5898.1
900.9986	1636.804	6594.75	5693.8
901.1406	1638.553	6555.05	5554.45
901.2826	1640.3013	6403.1	5501.85
901.4245	1642.0488	6344.7	5443.1
901.5665	1643.7955	6346.6	5448.1
901.7085	1645.5416	6363.75	5466.95
901.8504	1647.2868	6481.9	5582.65
901.9923	1649.0313	6560.8	5659.75
902.1342	1650.7751	6677.4	5774.95
902.2761	1652.5181	6834.3	5934.8
902.4179	1654.2604	6974.95	6074.85
902.5598	1656.0019	7183.85	6284.9
902.7016	1657.7427	7412.05	6514.75
902.8434	1659.4828	7638.8	6734.75
902.9852	1661.222	7786.95	6884.5
903.127	1662.9606	7762.1	6861.3
903.2687	1664.6984	7570.7	6669.85
903.4105	1666.4354	7199.55	6295.05
903.5522	1668.1717	6692.55	5788
903.6939	1669.9072	6199.3	5295.05
903.8356	1671.642	5750.65	4843.75
903.9773	1673.3761	5380	4478.9
904.119	1675.1094	5097.15	4199.7
904.2606	1676.8419	4887.55	3987.8
904.4022	1678.5737	4688	3787.3
904.5439	1680.3048	4542.95	3639.75
904.6855	1682.0351	4418.5	3517.5
904.827	1683.7646	4343.5	3438.85
904.9686	1685.4934	4261.3	3360.25
905.1101	1687.2215	4178.8	3277.3
905.2517	1688.9488	4102.5	3203.8
905.3932	1690.6754	4037.15	3139.5
905.5347	1692.4012	3995.6	3095.75
905.6761	1694.1263	3945.65	3044.65
905.8176	1695.8506	3914.9	3014.75
905.9591	1697.5742	3887.35	2989.8
906.1005	1699.297	3843.45	2947.5
906.2419	1701.0191	3812	2918.9
906.3833	1702.7404	3772.2	2877.5
906.5246	1704.461	3737	2839.5
906.666	1706.1808	3711.9	2812.55
906.8073	1707.8999	3689.1	2792
906.9487	1709.6182	3662.95	2770.7
907.09	1711.3358	3642.5	2750.15
907.2313	1713.0527	3615.3	2725.5
907.3725	1714.7688	3594.5	2695.45
907.5138	1716.4841	3578.35	2680.85
907.655	1718.1987	3583.4	2681.3
907.7962	1719.9126	3545.65	2652.15
907.9374	1721.6257	3543.25	2647.55
908.0786	1723.338	3521.45	2628.75
908.2198	1725.0496	3514.9	2620.3
908.3609	1726.7605	3507.1	2609.35
908.502	1728.4706	3486.95	2591.4
908.6431	1730.18	3486	2590.55
908.7842	1731.8886	3461.3	2568.75
908.9253	1733.5964	3488.1	2575.4
909.0664	1735.3036	3438.55	2544.05
909.2074	1737.0099	3435.15	2542.2
909.3484	1738.7156	3417.05	2523.35
909.4894	1740.4204	3394.5	2499.55
909.6304	1742.1246	3379.3	2484.5
909.7714	1743.8279	3349.7	2454.5
909.9123	1745.5306	3338.5	2447.75
910.0532	1747.2325	3306.05	2410.05
910.1941	1748.9336	3303.9	2409.2
910.335	1750.634	3298.5	2401.65
910.4759	1752.3336	3287.45	2394.15
910.6168	1754.0325	3279.75	2391.4
910.7576	1755.7307	3256.25	2365.05
910.8984	1757.4281	3264.95	2370.7
911.0392	1759.1247	3263.7	2360.2
911.18	1760.8206	3240.95	2339.65
911.3208	1762.5158	3244.45	2344.45
911.4615	1764.2102	3218.95	2324.3
911.6022	1765.9039	3219.25	2325.35
911.7429	1767.5968	3214.45	2322.95
911.8836	1769.289	3204.5	2312.25
912.0243	1770.9804	3199.35	2303.65
912.1649	1772.6711	3206	2309
912.3056	1774.361	3170.3	2272.75
912.4462	1776.0502	3184.4	2288
912.5868	1777.7386	3187.05	2287.95
912.7274	1779.4263	3161.75	2268.45
912.8679	1781.1132	3158.95	2267.9
913.0084	1782.7994	3142.5	2249
913.149	1784.4849	3131.2	2241.95
913.2895	1786.1696	3151.25	2241.75
913.4299	1787.8535	3129.45	2237.55
913.5704	1789.5367	3120.75	2230.9
913.7108	1791.2192	3110.3	2217.9
913.8513	1792.9009	3134.05	2216.85
913.9917	1794.5818	3100.85	2205.6
914.132	1796.2621	3081.7	2189.45
914.2724	1797.9415	3087.95	2193.7
914.4128	1799.6202	3084.8	2189.3
914.5531	1801.2982	3082.15	2188.35
914.6934	1802.9755	3054.85	2158.5
914.8337	1804.6519	3076.45	2182.05
914.9739	1806.3277	3054.85	2165.7
915.1142	1808.0027	3041.7	2152.6
915.2544	1809.6769	3041	2151.35
915.3946	1811.3504	3035.45	2145.4
915.5348	1813.0231	3040.6	2150.9
915.675	1814.6951	3031.9	2141.3
915.8151	1816.3664	3031.25	2137.55
915.9553	1818.0369	3021.55	2129.6
916.0954	1819.7067	3019.8	2128.45
916.2355	1821.3757	3014.9	2119.75
916.3755	1823.044	3008.4	2116.1
916.5156	1824.7115	3002.9	2108.35
916.6556	1826.3783	2985.2	2093.15
916.7956	1828.0443	2983.1	2090.45
916.9356	1829.7096	2983.25	2089.75
917.0756	1831.3741	2984.4	2090.25
917.2155	1833.0379	2961.85	2071.65
917.3555	1834.701	2957.75	2067.4
917.4954	1836.3633	2954.3	2064.75
917.6353	1838.0248	2961.8	2070.35
917.7751	1839.6856	2963.7	2072.35
917.915	1841.3457	2948.1	2058
918.0548	1843.005	2953.2	2060.85
918.1946	1844.6636	2945.7	2053.05
918.3344	1846.3214	2944.05	2050.4
918.4742	1847.9785	2933.3	2041.1
918.6139	1849.6349	2931.85	2037.5
918.7537	1851.2904	2927.2	2024.95
918.8934	1852.9453	2927.55	2033.3
919.0331	1854.5994	2928.45	2030.8
919.1727	1856.2528	2924	2028
919.3124	1857.9054	2916.4	2023.2
919.452	1859.5572	2921.2	2030.05
919.5916	1861.2083	2899.6	2005.65
919.7312	1862.8587	2897.55	2005.25
919.8708	1864.5084	2900.7	2007.05
920.0103	1866.1572	2885.8	1992.85
920.1498	1867.8054	2880.5	1986.95
920.2893	1869.4528	2880.85	1985.85
920.4288	1871.0994	2880.5	1987.35
920.5683	1872.7453	2868.9	1974.7
920.7077	1874.3905	2862.4	1962.45
920.8471	1876.0349	2866.2	1971
920.9865	1877.6786	2851.15	1957.25
921.1259	1879.3215	2858.5	1966.5
921.2653	1880.9637	2832.85	1941.05
921.4046	1882.6051	2844.95	1953
921.5439	1884.2458	2834.3	1941.4
921.6832	1885.8858	2821.2	1932.55
921.8225	1887.525	2819.1	1924.45
921.9617	1889.1634	2816.35	1922.3
922.101	1890.8011	2811.55	1917.3
922.2402	1892.4381	2810.1	1918.95
922.3794	1894.0743	2800.5	1908.5
922.5185	1895.7098	2789.35	1895.8
922.6577	1897.3446	2790.15	1896.35
922.7968	1898.9786	2783.55	1887.5
922.9359	1900.6118	2786.3	1894.55
923.075	1902.2443	2779.1	1886.45
923.214	1903.8761	2770.35	1879.25
923.3531	1905.5071	2768.85	1876.55
923.4921	1907.1374	2752.65	1859.7
923.6311	1908.7669	2756.4	1863.75
923.77	1910.3957	2731.55	1840.35
923.909	1912.0237	2733.55	1843.75
924.0479	1913.651	2722.35	1830.9
924.1868	1915.2776	2714	1824.95
924.3257	1916.9034	2710.3	1820.9
924.4646	1918.5285	2701.25	1811.9
924.6034	1920.1528	2693.9	1804.1
924.7422	1921.7764	2699.95	1807.1
924.881	1923.3992	2695.4	1804
925.0198	1925.0213	2686.25	1793.5
925.1586	1926.6427	2682.3	1791.85
925.2973	1928.2633	2737	1760.35
925.436	1929.8832	2669.15	1776.15
925.5747	1931.5023	2669.3	1777.05
925.7134	1933.1207	2653.2	1761.8
925.852	1934.7383	2650.2	1759.75
925.9906	1936.3552	2645.7	1755.6
926.1292	1937.9714	2636.25	1745.5
926.2678	1939.5868	2641.25	1749.05
926.4064	1941.2015	2633.85	1742.05
926.5449	1942.8154	2632.6	1740.05
926.6834	1944.4286	2620.9	1727.15
926.8219	1946.041	2622.15	1708.15
926.9604	1947.6528	2597.4	1699.45
927.0988	1949.2637	2600.45	1711.15
927.2372	1950.8739	2592.4	1702.3
927.3756	1952.4834	2583.9	1693
927.514	1954.0921	2580.55	1689.75
927.6523	1955.7001	2577.35	1683.55
927.7907	1957.3074	2572	1684.05
927.929	1958.9139	2555.45	1668.4
928.0673	1960.5197	2559.85	1670.55
928.2055	1962.1247	2549	1659.05
928.3438	1963.729	2528.3	1640.15
928.482	1965.3325	2542.6	1650.55
928.6202	1966.9353	2540.35	1652.6
928.7584	1968.5374	2531.45	1642.5
928.8965	1970.1387	2526.9	1639.35
929.0346	1971.7393	2509.5	1621.8
929.1727	1973.3392	2504.1	1617.8
929.3108	1974.9383	2496.15	1609.85
929.4489	1976.5366	2492.25	1604.65
929.5869	1978.1342	2504	1616.7
929.7249	1979.7311	2489.3	1602.95
929.8629	1981.3273	2479.5	1592.25
930.0009	1982.9227	2469.5	1582.75
930.1388	1984.5173	2472.25	1585.7
930.2767	1986.1112	2453.95	1566.7
930.4146	1987.7044	2461.9	1577.2
930.5525	1989.2968	2461.85	1575.7
930.6904	1990.8885	2454.45	1565.55
930.8282	1992.4795	2449.45	1561.85
930.966	1994.0697	2443.6	1558.6
931.1038	1995.6592	2442.9	1557.3
931.2415	1997.2479	2428.95	1542.05
931.3793	1998.8359	2432.2	1549.05
931.517	2000.4232	2425.55	1541.95
931.6547	2002.0097	2413.8	1530.65
931.7923	2003.5955	2398.1	1515.9
931.93	2005.1805	2415.65	1531.35
932.0676	2006.7648	2399.45	1518.15
932.2052	2008.3484	2393.45	1509.95
932.3427	2009.9312	2412.95	1530.75
932.4803	2011.5133	2388.85	1506.8
932.6178	2013.0946	2391.1	1507.95
932.7553	2014.6752	2378.8	1496.4
932.8928	2016.2551	2379.3	1496
933.0302	2017.8342	2364.95	1485.25
933.1676	2019.4126	2370.6	1486.15
933.305	2020.9902	2362	1483.25
933.4424	2022.5672	2368.9	1486.6
933.5798	2024.1433	2361.9	1476.35
933.7171	2025.7188	2352.4	1474.05
933.8544	2027.2935	2347.9	1466.65
933.9917	2028.8674	2345.1	1463.8
934.129	2030.4406	2342.5	1462.05
934.2662	2032.0131	2333.9	1457.1
934.4034	2033.5849	2336.35	1451.3
934.5406	2035.1559	2328.7	1448.7
934.6778	2036.7261	2329.55	1447.65
934.8149	2038.2957	2317.35	1434.65
934.952	2039.8645	2322.75	1439.45
935.0891	2041.4325	2321.3	1433.85
935.2262	2042.9998	2313.95	1431.65
935.3632	2044.5664	2312.55	1428.55
935.5002	2046.1323	2301	1420.25
935.6372	2047.6974	2301.1	1421.5
935.7742	2049.2617	2286.4	1406.65
935.9111	2050.8254	2300.8	1415
936.048	2052.3883	2292.85	1407.8
936.1849	2053.9504	2290.85	1406.05
936.3218	2055.5118	2280.5	1397.9
936.4586	2057.0725	2279.05	1390.95
936.5955	2058.6325	2271.85	1389.35
936.7323	2060.1917	2271.05	1389.8
936.869	2061.7502	2274.45	1390.55
937.0058	2063.3079	2258.8	1379
937.1425	2064.8649	2259.55	1374.45
937.2792	2066.4212	2256.45	1372.7
937.4159	2067.9767	2252.2	1370
937.5525	2069.5315	2254.35	1370
937.6891	2071.0856	2243.8	1362.7
937.8257	2072.6389	2229.95	1344.8
937.9623	2074.1915	2223.15	1344.55
938.0989	2075.7433	2226.45	1342.35
938.2354	2077.2945	2222.5	1341.45
938.3719	2078.8448	2218.25	1335.9
938.5084	2080.3945	2224.85	1342.6
938.6448	2081.9434	2214.75	1331.5
938.7812	2083.4916	2210.35	1324
938.9176	2085.039	2210.1	1320.75
939.054	2086.5857	2205.65	1315.2
939.1903	2088.1317	2206.15	1315.5
939.3267	2089.677	2203.15	1311.05
939.463	2091.2215	2191.65	1300.5
939.5992	2092.7652	2198.3	1306.65
939.7355	2094.3083	2184.75	1294.4
939.8717	2095.8506	2183.05	1296.3
940.0079	2097.3921	2183.45	1295.55
940.1441	2098.933	2170.9	1284.2
940.2802	2100.4731	2172.4	1284.75
940.4163	2102.0124	2185.15	1281.4
940.5524	2103.5511	2173.65	1285.8
940.6885	2105.089	2172.7	1285.3
940.8245	2106.6261	2171.95	1286.55
940.9606	2108.1626	2160.5	1273
941.0965	2109.6983	2193.15	1278.8
941.2325	2111.2332	2166.9	1280.25
941.3684	2112.7675	2163.45	1275.1
941.5044	2114.301	2159.45	1271.25
941.6403	2115.8337	2163.4	1274.6
941.7761	2117.3657	2138.55	1252.35
941.912	2118.897	2141.7	1252.05
942.0478	2120.4276	2146.15	1251.7
942.1835	2121.9575	2121.5	1232.15
942.3193	2123.4866	2133.05	1241.15
942.455	2125.0149	2128.3	1237.25
942.5907	2126.5426	2117.65	1234.95
942.7264	2128.0695	2116.3	1231.1
942.8621	2129.5956	2120.45	1239.4
942.9977	2131.1211	2120.2	1231.25
943.1333	2132.6458	2108.2	1224.8
943.2689	2134.1698	2115.3	1226.6
943.4044	2135.693	2109.4	1217.4
943.54	2137.2155	2110.55	1219.55
943.6755	2138.7373	2107	1220.3
943.8109	2140.2584	2095.2	1211.6
943.9464	2141.7787	2085	1198.5
944.0818	2143.2983	2081.7	1200.5
944.2172	2144.8171	2078.5	1196
944.3526	2146.3353	2083.4	1198.4
944.4879	2147.8527	2069.3	1186.45
944.6232	2149.3693	2078.95	1191.95
944.7585	2150.8853	2059	1171.45
944.8938	2152.4005	2065.8	1175.25
945.029	2153.9149	2068.6	1178.25
945.1642	2155.4287	2062.45	1174.45
945.2994	2156.9417	2063.35	1176.05
945.4346	2158.454	2063.05	1175.5
945.5697	2159.9655	2049.6	1165.6
945.7048	2161.4764	2042.55	1158.9
945.8399	2162.9865	2047.65	1164.1
945.9749	2164.4958	2046.1	1160.85
946.1099	2166.0045	2040.55	1153.7
946.2449	2167.5124	2032.5	1148.25
946.3799	2169.0195	2034.05	1145.85
946.5148	2170.526	2026.65	1138
946.6498	2172.0317	2028.8	1139.7
946.7846	2173.5367	2028.1	1140.6
946.9195	2175.0409	2016.5	1130.75
947.0543	2176.5445	2015.9	1131.5
947.1891	2178.0473	2018.25	1127.05
947.3239	2179.5494	2021.45	1131.1
947.4587	2181.0507	2016.1	1130.1
947.5934	2182.5513	2009.7	1123.25
947.7281	2184.0512	2015.35	1126
947.8628	2185.5504	2000.45	1114.95
947.9974	2187.0488	1989.2	1103.5
948.132	2188.5465	1992.75	1109.2
948.2666	2190.0435	1990.15	1102.25
948.4012	2191.5397	1992.45	1102.35
948.5357	2193.0353	1995.65	1107.65
948.6702	2194.5301	1982.55	1091.9
948.8047	2196.0241	1985.75	1093.7
948.9392	2197.5175	1991.05	1095.5
949.0736	2199.0101	1976.45	1083.75
949.208	2200.502	1959.1	1072.35
949.3424	2201.9931	1965.1	1079.15
949.4767	2203.4835	1964	1079.05
949.611	2204.9733	1976.15	1075.65
949.7453	2206.4622	1950.75	1064.75
949.8796	2207.9505	1954.6	1068.35
950.0138	2209.438	1948.4	1066.65
950.148	2210.9248	1953.4	1065.75
950.2822	2212.4109	1934.3	1048.7
950.4164	2213.8962	1940.45	1049.7
950.5505	2215.3809	1937.8	1047.5
950.6846	2216.8648	1939.1	1047.3
950.8186	2218.3479	1933.15	1038.15
950.9527	2219.8304	1938.2	1043.35
951.0867	2221.3121	1926.85	1029.7
951.2207	2222.7931	1922.55	1031.45
951.3546	2224.2733	1923.55	1031
951.4886	2225.7529	1909.35	1019.05
951.6225	2227.2317	1912.2	1021.75
951.7563	2228.7098	1896.4	1012.5
951.8902	2230.1872	1895.5	1011.05
952.024	2231.6638	1904.8	1019.6
952.1578	2233.1397	1896.9	1008.35
952.2916	2234.6149	1888.9	1003.15
952.4253	2236.0894	1882.65	996.45
952.559	2237.5632	1904.75	1006.9
952.6927	2239.0362	1884.85	996.85
952.8263	2240.5085	1884.8	997.55
952.9599	2241.9801	1881.75	993.45
953.0935	2243.4509	1876.7	989.65
953.2271	2244.921	1866	976.55
953.3606	2246.3904	1870.35	978.45
953.4941	2247.8591	1865.05	975.7
953.6276	2249.3271	1863.55	975.15
953.7611	2250.7943	1860.35	970.45
953.8945	2252.2608	1864.05	975.35
954.0279	2253.7266	1852	962.55
954.1612	2255.1917	1845.1	957
954.2946	2256.656	1847.25	958.4
954.4279	2258.1197	1837.6	951.8
954.5612	2259.5826	1840.75	953.5
954.6944	2261.0447	1835.3	944.7
954.8276	2262.5062	1831.35	941.25
954.9608	2263.9669	1838.5	945.85
955.094	2265.4269	1828.75	940.75
955.2271	2266.8862	1830.45	940.95
955.3602	2268.3448	1819.25	933.75
955.4933	2269.8026	1824.6	936.95
955.6264	2271.2598	1822.2	935.15
955.7594	2272.7162	1817.3	929.85
955.8924	2274.1719	1816.8	926.85
956.0253	2275.6268	1816.5	925.25
956.1583	2277.0811	1822.7	930.8
956.2912	2278.5346	1810.6	923.7
956.4241	2279.9874	1803.35	915.8
956.5569	2281.4395	1803.5	919.25
956.6897	2282.8908	1797.45	904.25
956.8225	2284.3414	1811.2	921.05
956.9553	2285.7914	1801.45	914.25
957.088	2287.2406	1800.15	910.3
957.2207	2288.689	1801.45	909.3
957.3534	2290.1368	1810.05	916.7
957.486	2291.5838	1797	902.45
957.6186	2293.0302	1801.15	907.45
957.7512	2294.4758	1789.6	898.3
957.8838	2295.9206	1789.15	895.8
958.0163	2297.3648	1784.1	896.9
958.1488	2298.8082	1781.6	894.1
958.2813	2300.251	1784.25	894.15
958.4137	2301.693	1790.9	896.8
958.5461	2303.1343	1786.25	895.3
958.6785	2304.5748	1770.95	882.8
958.8108	2306.0147	1768.15	881.85
958.9432	2307.4538	1762.7	875.4
959.0754	2308.8922	1760.35	878.2
959.2077	2310.3299	1757.25	869.9
959.3399	2311.7669	1760.05	873.8
959.4721	2313.2031	1764.15	875.3
959.6043	2314.6387	1766.1	876.35
959.7365	2316.0735	1756.1	869.35
959.8686	2317.5076	1753.8	864.05
960.0006	2318.941	1753	862.45
960.1327	2320.3737	1759.65	866.45
960.2647	2321.8056	1748.4	856.9
960.3967	2323.2369	1742.4	849.75
960.5287	2324.6674	1748.7	858.3
960.6606	2326.0972	1741.35	848.65
960.7925	2327.5263	1744.7	855.8
960.9244	2328.9547	1733.9	844.2
961.0562	2330.3823	1733.55	844.15
961.1881	2331.8092	1739.35	845.6
961.3198	2333.2355	1728.7	838.35
961.4516	2334.661	1729.9	839.65
961.5833	2336.0858	1728.5	834.5
961.715	2337.5098	1717.2	826.35
961.8467	2338.9332	1723.25	831.6
961.9783	2340.3558	1717.1	826.8
962.1099	2341.7778	1715.15	828.05
962.2415	2343.199	1714.65	823.15
962.373	2344.6195	1702.6	815.2
962.5045	2346.0393	1710.85	823.6
962.636	2347.4583	1709.3	820.15
962.7675	2348.8767	1711.2	822.25
962.8989	2350.2943	1707.65	813.95
963.0303	2351.7113	1718.95	825.35
963.1617	2353.1275	1707.3	815.6
963.293	2354.543	1707.55	807
963.4243	2355.9578	1702.85	813.55
963.5556	2357.3718	1695.5	808.75
963.6868	2358.7852	1695.9	804.95
963.818	2360.1978	1696.75	807.35
963.9492	2361.6098	1690.1	801.5
964.0803	2363.021	1696.45	804.4
964.2114	2364.4315	1689.1	797.65
964.3425	2365.8413	1691.6	800.95
964.4736	2367.2504	1679.65	791.15
964.6046	2368.6587	1677.25	790.75
964.7356	2370.0664	1678.35	791.2
964.8666	2371.4733	1670.8	782.85
964.9975	2372.8795	1671.9	782.4
965.1284	2374.285	1668	778.15
965.2593	2375.6899	1671.8	783.4
965.3901	2377.0939	1666.95	776.1
965.5209	2378.4973	1667.4	778
965.6517	2379.9	1664.35	774.9
965.7825	2381.3019	1659.75	773.65
965.9132	2382.7032	1665.4	777.95
966.0439	2384.1037	1652.95	766.85
966.1745	2385.5035	1647.1	759.65
966.3051	2386.9027	1652.45	765.9
966.4357	2388.3011	1646.1	755.6
966.5663	2389.6987	1648.8	760.75
966.6968	2391.0957	1648.95	761.45
966.8273	2392.492	1636.9	751.35
966.9578	2393.8876	1631.25	741.7
967.0882	2395.2824	1627.65	739.8
967.2186	2396.6765	1629.1	739.65
967.349	2398.07	1626.1	737.4
967.4793	2399.4627	1633.75	743.1
967.6097	2400.8547	1619.6	727.25
967.7399	2402.246	1621.85	726.3
967.8702	2403.6366	1614.75	725.85
968.0004	2405.0265	1615.5	727.6
968.1306	2406.4156	1621.65	730.1
968.2607	2407.8041	1612.05	720.45
968.3909	2409.1918	1615.1	724.6
968.521	2410.5789	1609.65	719.25
968.651	2411.9652	1610.9	718.85
968.781	2413.3508	1600.4	710.2
968.911	2414.7358	1600.95	713.05
969.041	2416.12	1602.2	711.5
969.1709	2417.5035	1603.45	715.75
969.3008	2418.8863	1598.15	709.95
969.4307	2420.2684	1589.2	700.05
969.5606	2421.6497	1599.95	708.85
969.6904	2423.0304	1588.4	698.75
969.8201	2424.4104	1590.8	701.9
969.9499	2425.7896	1596.85	702.35
970.0796	2427.1682	1587.05	696.85
970.2093	2428.546	1588.95	698
970.3389	2429.9232	1582.3	690.6
970.4685	2431.2996	1578	690.2
970.5981	2432.6753	1575.7	685.5
970.7277	2434.0503	1570.25	680.55
970.8572	2435.4246	1573.8	685.2
970.9867	2436.7982	1577.25	686.1
971.1161	2438.1711	1575	684.2
971.2456	2439.5433	1569.3	678
971.375	2440.9148	1562.5	669.85
971.5043	2442.2856	1560.05	672.75
971.6336	2443.6557	1568.65	680.65
971.7629	2445.025	1556.7	666.35
971.8922	2446.3937	1554.65	663.2
972.0214	2447.7617	1561.15	669.25
972.1506	2449.1289	1556.8	664.85
972.2798	2450.4955	1552.35	661.7
972.4089	2451.8613	1548.15	658.65
972.538	2453.2265	1546.85	658.4
972.6671	2454.5909	1546.55	657.1
972.7961	2455.9546	1549	659.5
972.9251	2457.3177	1542.45	656.45
973.0541	2458.68	1541.4	652.7
973.1831	2460.0416	1541.65	652.45
973.312	2461.4025	1540.15	648.15
973.4408	2462.7627	1552.65	652.65
973.5697	2464.1222	1534.15	647.6
973.6985	2465.4811	1536.2	648.55
973.8273	2466.8392	1536.25	650.05
973.956	2468.1966	1534.2	644
974.0847	2469.5533	1537.25	647.75
974.2134	2470.9093	1535.65	645.8
974.3421	2472.2645	1537.6	647.75
974.4707	2473.6191	1529.6	642.3
974.5993	2474.973	1531.6	644.2
974.7278	2476.3262	1529.25	638.5
974.8563	2477.6787	1515.85	629.05
974.9848	2479.0305	1521.75	633.7
975.1132	2480.3816	1524.8	634.35
975.2417	2481.7319	1514.6	626.25
975.37	2483.0816	1522.95	632.95
975.4984	2484.4306	1513.1	625.3
975.6267	2485.7789	1510.9	623.8
975.755	2487.1264	1512.7	624.6
975.8833	2488.4733	1509	622.3
976.0115	2489.8195	1511.8	604.3
976.1397	2491.165	1512.8	620.75
976.2678	2492.5097	1505.7	618.05
976.3959	2493.8538	1502	614.65
976.524	2495.1972	1500.45	612.65
976.6521	2496.5398	1491.75	600.7
976.7801	2497.8818	1498.45	606.5
976.9081	2499.2231	1496.6	606.45
977.036	2500.5637	1490.75	596.65
977.164	2501.9035	1493.95	602.85
977.2918	2503.2427	1491.75	599.05
977.4197	2504.5812	1487.2	598.35
977.5475	2505.919	1492.3	601.6
977.6753	2507.256	1481.65	592.6
977.8031	2508.5924	1484.95	598
977.9308	2509.9281	1482	586.8
978.0585	2511.2631	1478.65	589.6
978.1861	2512.5974	1486.9	598.5
978.3137	2513.9309	1479.75	592
978.4413	2515.2638	1504	586.95
978.5689	2516.596	1472.1	581.2
978.6964	2517.9275	1474.05	582.6
978.8239	2519.2583	1473.8	585.4
978.9513	2520.5884	1471.35	580.25
979.0788	2521.9178	1467.4	579.25
979.2062	2523.2465	1470.5	582.6
979.3335	2524.5745	1463.5	576.35
979.4608	2525.9018	1468.45	579.35
979.5881	2527.2284	1464.6	576.6
979.7154	2528.5543	1462.4	574.35
979.8426	2529.8796	1459.75	572.05
979.9698	2531.2041	1463.2	573.85
980.0969	2532.5279	1453.05	565.7
980.224	2533.851	1460.7	571.8
980.3511	2535.1735	1457.25	569.75
980.4781	2536.4952	1460.5	571.6
980.6052	2537.8163	1456.9	565.95
980.7321	2539.1366	1450.75	561.45
980.8591	2540.4562	1462.2	571.6
980.986	2541.7752	1457.7	569.35
981.1129	2543.0935	1456.1	566.5
981.2397	2544.411	1454.8	565.05
981.3665	2545.7279	1456.4	566.9
981.4933	2547.0441	1454.4	565.75
981.62	2548.3596	1456.15	562.95
981.7467	2549.6744	1451.55	563.5
981.8734	2550.9885	1451.45	556.3
982.0001	2552.3019	1446.95	558.05
982.1267	2553.6146	1448.55	560.85
982.2532	2554.9266	1445.65	557.4
982.3798	2556.2379	1447.8	557.9
982.5063	2557.5485	1439.75	552.35
982.6327	2558.8585	1446.65	552.4
982.7592	2560.1677	1439.2	547.85
982.8856	2561.4762	1439.05	549
983.0119	2562.7841	1438.25	547.05
983.1383	2564.0913	1437.9	550.1
983.2646	2565.3977	1439.55	551.4
983.3908	2566.7035	1434.05	544.4
983.517	2568.0086	1438	544.7
983.6432	2569.313	1435.5	546.1
983.7694	2570.6167	1435.25	543.4
983.8955	2571.9197	1432.85	545.5
984.0216	2573.222	1431.7	537.9
984.1476	2574.5236	1431.85	539.95
984.2737	2575.8246	1433.4	545.1
984.3996	2577.1248	1435.6	543.1
984.5256	2578.4244	1426.5	539.2
984.6515	2579.7232	1433.1	545.15
984.7774	2581.0214	1456.1	542.5
984.9032	2582.3189	1428.8	540.45
985.029	2583.6157	1428.5	535.4
985.1548	2584.9118	1427.3	538.25
985.2806	2586.2072	1436.6	550.8
985.4063	2587.5019	1427.25	539.95
985.5319	2588.7959	1427.9	537.65
985.6576	2590.0893	1430.1	539.95
985.7832	2591.3819	1428.5	539.25
985.9087	2592.6739	1430.6	542.35
986.0343	2593.9652	1426.9	536.15
986.1597	2595.2557	1430.25	542.6
986.2852	2596.5456	1426.85	535.8
986.4106	2597.8348	1432.7	544.6
986.536	2599.1234	1428.1	540.65
986.6614	2600.4112	1430.9	543.5
986.7867	2601.6983	1429.85	537.7
986.912	2602.9848	1427.8	539.4
987.0372	2604.2705	1437.3	542.85
987.1624	2605.5556	1426.8	539
987.2876	2606.84	1416.15	529.6
987.4128	2608.1237	1419.95	532.4
987.5379	2609.4067	1425.8	539.45
987.6629	2610.689	1423.85	526.75
987.788	2611.9707	1420.8	528.3
987.913	2613.2516	1413.75	521.45
988.0379	2614.5319	1416.1	530.6
988.1629	2615.8115	1410.5	523.15
988.2878	2617.0903	1412.8	523.95
988.4126	2618.3685	1402	513.65
988.5375	2619.6461	1402.35	515.85
988.6622	2620.9229	1407.95	518.7
988.787	2622.199	1400.2	511.95
988.9117	2623.4745	1399.95	511.15
989.0364	2624.7493	1395.6	509.45
989.161	2626.0234	1398.05	512.25
989.2857	2627.2968	1398.6	512.75
989.4102	2628.5695	1395.8	508.3
989.5348	2629.8415	1390.25	504.3
989.6593	2631.1128	1399	512.35
989.7837	2632.3835	1389	503.65
989.9082	2633.6535	1393.55	510.5
990.0326	2634.9228	1394.95	507.9
990.1569	2636.1914	1394.3	510.8
990.2812	2637.4593	1390.1	503.7
990.4055	2638.7265	1387.95	499.75
990.5298	2639.9931	1385.6	497.7
990.654	2641.259	1380.85	494.65
990.7782	2642.5242	1388.4	501.75
990.9023	2643.7887	1379	491.8
991.0264	2645.0525	1381.35	493.8
991.1505	2646.3156	1374.75	489
991.2745	2647.5781	1374.45	490.25
991.3985	2648.8398	1364.9	479.5
991.5225	2650.1009	1411.15	487.05
991.6464	2651.3613	1372.75	484.7
991.7703	2652.6211	1373.05	486.3
991.8942	2653.8801	1363.9	478.8
992.018	2655.1385	1372	482.3
992.1418	2656.3961	1370.75	484.9
992.2655	2657.6531	1369.45	482.65
992.3892	2658.9094	1368.75	483.45
992.5129	2660.1651	1371.8	488.55
992.6366	2661.42	1372.55	488.9
992.7602	2662.6743	1378.9	490.6
992.8837	2663.9279	1377.1	493.85
993.0073	2665.1808	1378.75	493.05
993.1307	2666.433	1374.15	485.8
993.2542	2667.6846	1380.75	495.3
993.3776	2668.9354	1382.05	492.65
993.501	2670.1856	1380.75	494
993.6244	2671.4351	1372.7	486.75
993.7477	2672.6839	1388.75	501.35
993.8709	2673.9321	1390.2	504.2
993.9942	2675.1795	1392.55	504.05
994.1174	2676.4263	1393.1	506.5
994.2405	2677.6724	1390.95	506.2
994.3637	2678.9179	1393.4	505.6
994.4868	2680.1626	1387.25	501.65
994.6098	2681.4067	1395.2	511.2
994.7328	2682.6501	1382	496.1
994.8558	2683.8928	1384.65	499.1
994.9788	2685.1348	1380.95	495.25
995.1017	2686.3761	1378.15	492.9
995.2245	2687.6168	1370.6	483.5
995.3474	2688.8568	1368	482.45
995.4702	2690.0961	1365.4	481.5
995.5929	2691.3348	1367.35	481.65
995.7156	2692.5727	1365.8	476.8
995.8383	2693.81	1363.25	478.5
995.961	2695.0466	1359.75	475.35
996.0836	2696.2826	1365.85	479
996.2062	2697.5178	1366.4	475.65
996.3287	2698.7524	1360.3	474.4
996.4512	2699.9863	1362.4	475.3
996.5737	2701.2195	1367.2	484.25
996.6961	2702.452	1373.5	488.45
996.8185	2703.6839	1375.2	489
996.9408	2704.9151	1373.9	491.4
997.0631	2706.1456	1383.9	498.55
997.1854	2707.3755	1387.05	499.3
997.3077	2708.6046	1388.45	500.9
997.4299	2709.8331	1399.5	514.5
997.552	2711.0609	1403	518.8
997.6742	2712.2881	1404.05	517.7
997.7963	2713.5145	1418.9	531.85
997.9183	2714.7403	1423.55	536.9
998.0403	2715.9654	1430.45	544.35
998.1623	2717.1899	1449.55	550.1
998.2842	2718.4136	1445.85	560.5
998.4062	2719.6367	1454.4	570.7
998.528	2720.8591	1470	579.35
998.6498	2722.0809	1472.35	586.8
998.7716	2723.3019	1485.85	598.7
998.8934	2724.5223	1498.65	610.55
999.0151	2725.7421	1496.35	609.6
999.1368	2726.9611	1499.3	612.5
999.2584	2728.1795	1501.2	613.35
999.38	2729.3972	1483.65	599.6
999.5016	2730.6142	1486.05	592.7
999.6231	2731.8306	1471.45	584.4
999.7446	2733.0462	1453.55	568.15
999.8661	2734.2612	1437.25	548.45
999.9875	2735.4756	1429.05	543.3
1000.1089	2736.6892	1420.5	536.75
1000.2302	2737.9022	1400.3	515.05
1000.3515	2739.1145	1399.3	514.05
1000.4728	2740.3262	1391.95	501.1
1000.594	2741.5372	1372.4	489.3
1000.7152	2742.7475	1368.15	481.7
1000.8363	2743.9571	1360.6	474.25
1000.9575	2745.1661	1357.75	469.35
1001.0785	2746.3744	1336.15	451.25
1001.1996	2747.582	1338.55	453.15
1001.3206	2748.7889	1333.85	448.35
1001.4415	2749.9952	1323.35	437.25
1001.5625	2751.2008	1321.5	435.7
1001.6833	2752.4057	1326.55	439.6
1001.8042	2753.61	1311.1	425.7
1001.925	2754.8136	1313.45	426.75
1002.0458	2756.0165	1308.6	424
1002.1665	2757.2188	1309.8	426.2
1002.2872	2758.4204	1307.6	422.1
1002.4078	2759.6213	1314.55	429.45
1002.5285	2760.8215	1310.35	421.1
1002.649	2762.0211	1304.05	417.65
1002.7696	2763.22	1313.2	425.15
1002.8901	2764.4182	1304.25	418.95
1003.0106	2765.6158	1303.1	420.1
1003.131	2766.8127	1302.2	417.2
1003.2514	2768.009	1301.15	419.05
1003.3717	2769.2045	1291.5	406.2
1003.492	2770.3994	1290.85	406.8
1003.6123	2771.5936	1287.55	402.3
1003.7325	2772.7872	1285.55	401.75
1003.8527	2773.9801	1281.85	397.1
1003.9729	2775.1723	1294.55	395.85
1004.093	2776.3639	1280.8	398.05
1004.2131	2777.5548	1286.85	399.95
1004.3331	2778.745	1283.05	395.55
1004.4531	2779.9346	1288.15	404.55
1004.5731	2781.1235	1281.5	395.25
1004.693	2782.3117	1280.45	398.45
1004.8129	2783.4992	1287.1	405
1004.9328	2784.6861	1286.2	402
1005.0526	2785.8723	1289.8	406.75
1005.1723	2787.0579	1291	407.95
1005.2921	2788.2428	1295.65	410.75
1005.4118	2789.427	1304.85	423.45
1005.5314	2790.6106	1303.4	420.55
1005.651	2791.7935	1308.9	423
1005.7706	2792.9757	1312.45	431.05
1005.8902	2794.1573	1317.2	432.35
1006.0097	2795.3382	1330.7	447.4
1006.1291	2796.5184	1333.35	449.55
1006.2485	2797.698	1346.25	462
1006.3679	2798.8769	1349.65	469.75
1006.4873	2800.0551	1356.55	473.15
1006.6066	2801.2327	1368.85	484.95
1006.7258	2802.4096	1376.45	494.3
1006.8451	2803.5859	1390.55	506.15
1006.9642	2804.7615	1406.45	521.25
1007.0834	2805.9364	1416.55	533.75
1007.2025	2807.1106	1433.65	553.5
1007.3216	2808.2842	1463	578.6
1007.4406	2809.4572	1476.45	591.65
1007.5596	2810.6294	1506.9	621.2
1007.6785	2811.801	1520.1	635.8
1007.7975	2812.972	1565.95	683.15
1007.9163	2814.1423	1595.75	713.35
1008.0352	2815.3119	1634.9	750.95
1008.154	2816.4808	1669.75	787.55
1008.2727	2817.6491	1715.3	831.95
1008.3914	2818.8167	1759.55	879.65
1008.5101	2819.9837	1806.35	919.75
1008.6288	2821.15	1860.95	978.95
1008.7474	2822.3157	1905.05	1022.35
1008.8659	2823.4807	1961.4	1077.45
1008.9844	2824.645	2010.65	1126.1
1009.1029	2825.8086	2060	1178.05
1009.2214	2826.9716	2115.85	1233.5
1009.3398	2828.134	2170.4	1287.7
1009.4581	2829.2957	2215.2	1331.65
1009.5764	2830.4567	2226.45	1344
1009.6947	2831.617	2256.85	1375.4
1009.813	2832.7767	2276.8	1394.8
1009.9312	2833.9358	2271.4	1390.55
1010.0493	2835.0941	2262.65	1379.3
1010.1675	2836.2519	2245.7	1362.6
1010.2855	2837.4089	2227	1345.15
1010.4036	2838.5653	2212.4	1329.95
1010.5216	2839.7211	2196.15	1316.15
1010.6396	2840.8761	2201.75	1317.25
1010.7575	2842.0306	2206.85	1328.25
1010.8754	2843.1843	2221.25	1338.6
1010.9932	2844.3374	2261.9	1381.6
1011.111	2845.4899	2281.05	1399.45
1011.2288	2846.6417	2325.15	1444.15
1011.3465	2847.7928	2380.9	1500.15
1011.4642	2848.9433	2429	1546.1
1011.5818	2850.0931	2471.3	1591
1011.6995	2851.2422	2525.35	1642.35
1011.817	2852.3907	2564.1	1681.8
1011.9345	2853.5385	2617.05	1734.4
1012.052	2854.6857	2679	1770.05
1012.1695	2855.8323	2703.5	1822.65
1012.2869	2856.9781	2730.1	1847.8
1012.4042	2858.1233	2795.4	1913.7
1012.5216	2859.2679	2827.35	1945.1
1012.6389	2860.4118	2869.05	1987
1012.7561	2861.555	2923.3	2038.75
1012.8733	2862.6976	2955.6	2068.5
1012.9905	2863.8395	2970.1	2089.55
1013.1076	2864.9808	3016.2	2133.4
1013.2247	2866.1214	3036.6	2155.3
1013.3417	2867.2614	3054.75	2172.05
1013.4587	2868.4007	3071.65	2187.65
1013.5757	2869.5393	3067.1	2183.35
1013.6926	2870.6773	3093.8	2208.9
1013.8095	2871.8146	3103.8	2216.7
1013.9263	2872.9513	3106.3	2220.8
1014.0431	2874.0874	3084	2202.25
1014.1599	2875.2227	3082.1	2198.7
1014.2766	2876.3574	3056.15	2175.9
1014.3933	2877.4915	3048.6	2166.5
1014.51	2878.6249	3021.55	2141.85
1014.6266	2879.7577	3003.7	2121.9
1014.7431	2880.8898	2998	2108.6
1014.8596	2882.0212	2971.25	2091.4
1014.9761	2883.152	2964.7	2081.25
1015.0925	2884.2821	2944.25	2063.55
1015.2089	2885.4116	2936.45	2054.25
1015.3253	2886.5405	2950.45	2068.25
1015.4416	2887.6686	2961.15	2079.25
1015.5579	2888.7962	2969.35	2088.35
1015.6741	2889.923	2963.1	2082.2
1015.7903	2891.0493	2989.2	2109.1
1015.9065	2892.1748	2982.3	2100.05
1016.0226	2893.2997	2995.1	2114.2
1016.1387	2894.424	3010.95	2130.4
1016.2547	2895.5476	3019.8	2138.7
1016.3707	2896.6706	3030.45	2148.55
1016.4866	2897.7929	3054.1	2172.9
1016.6025	2898.9145	3070.6	2187.8
1016.7184	2900.0355	3087.65	2205.05
1016.8342	2901.1559	3112.4	2230
1016.95	2902.2756	3139.95	2254
1017.0658	2903.3946	3179	2296.9
1017.1815	2904.513	3210	2324.25
1017.2971	2905.6308	3210.45	2330.5
1017.4127	2906.7479	3244.55	2362.8
1017.5283	2907.8643	3251.1	2370.4
1017.6439	2908.9801	3272.9	2391.15
1017.7594	2910.0953	3272.45	2392.85
1017.8748	2911.2098	3269.4	2385.3
1017.9902	2912.3236	3289.95	2399.8
1018.1056	2913.4368	3272.65	2389.7
1018.2209	2914.5494	3235.55	2355.15
1018.3362	2915.6613	3222.5	2334.65
1018.4515	2916.7725	3201.9	2316.85
1018.5667	2917.8831	3159.2	2277
1018.6819	2918.9931	3122.55	2240.6
1018.797	2920.1024	3125.05	2243.5
1018.9121	2921.211	3099.4	2217.35
1019.0271	2922.319	3083.9	2203.15
1019.1421	2923.4264	3075.45	2195.7
1019.2571	2924.5331	3057.3	2176.65
1019.372	2925.6391	3052.15	2171.95
1019.4869	2926.7445	3067.3	2188.7
1019.6017	2927.8493	3063.2	2183.05
1019.7165	2928.9534	3078.2	2193.75
1019.8313	2930.0569	3082.85	2199.35
1019.946	2931.1597	3086.8	2205.55
1020.0606	2932.2619	3082.8	2203.25
1020.1753	2933.3634	3091.3	2211.7
1020.2899	2934.4643	3096.35	2208.3
1020.4044	2935.5645	3082.15	2196.1
1020.5189	2936.6641	3076.25	2193.8
1020.6334	2937.763	3059.15	2179.55
1020.7478	2938.8613	3016.75	2139.45
1020.8622	2939.959	2990.6	2104.4
1020.9765	2941.056	2944.55	2066
1021.0908	2942.1523	2872.3	1988.75
1021.2051	2943.248	2809.5	1927.65
1021.3193	2944.3431	2733.1	1853.35
1021.4334	2945.4375	2659.35	1775.25
1021.5476	2946.5313	2569.7	1690.9
1021.6617	2947.6244	2494.95	1614.5
1021.7757	2948.7169	2399.9	1518.8
1021.8897	2949.8087	2324.95	1445.6
1022.0037	2950.8999	2261.85	1380.6
1022.1176	2951.9904	2173.6	1295.55
1022.2315	2953.0803	2112.05	1231.6
1022.3453	2954.1696	2063.8	1181.4
1022.4591	2955.2582	2009.1	1129.55
1022.5728	2956.3462	1984.75	1104.65
1022.6865	2957.4335	1947.2	1066.5
1022.8002	2958.5202	1915.3	1032.5
1022.9138	2959.6062	1898.05	1017.8
1023.0274	2960.6916	1871.85	993.8
1023.141	2961.7764	1864.15	984.35
1023.2545	2962.8605	1842.95	962.45
1023.3679	2963.9439	1832.8	955.1
1023.4813	2965.0267	1828.45	946.15
1023.5947	2966.1089	1840.35	939.5
1023.708	2967.1905	1807.4	926.2
1023.8213	2968.2714	1814.6	936.05
1023.9346	2969.3516	1814.3	934
1024.0478	2970.4312	1821.25	932.8
1024.1609	2971.5102	1818.55	939.3
1024.274	2972.5885	1824.45	943.35
1024.3871	2973.6662	1833.05	948.8
1024.5002	2974.7432	1818.75	940
1024.6132	2975.8196	1818.2	938.45
1024.7261	2976.8954	1818.9	941.3
1024.839	2977.9705	1809.45	929.85
1024.9519	2979.045	1805.25	925.85
1025.0647	2980.1188	1788.25	908.95
1025.1775	2981.192	1773.3	894.1
1025.2902	2982.2645	1764.8	884.6
1025.4029	2983.3364	1742.35	862.1
1025.5156	2984.4077	1723.95	843.8
1025.6282	2985.4783	1700	814.35
1025.7407	2986.5483	1674.25	795.25
1025.8532	2987.6177	1651.7	772.05
1025.9657	2988.6864	1621.05	742
1026.0782	2989.7545	1592.9	712.1
1026.1906	2990.8219	1561.2	682.15
1026.3029	2991.8887	1543.25	661.25
1026.4152	2992.9548	1507.45	628.1
1026.5275	2994.0204	1474	598.35
1026.6397	2995.0852	1449.4	570.4
1026.7519	2996.1495	1431.85	550.85
1026.864	2997.2131	1407.85	527.3
1026.9761	2998.276	1389.45	508.9
1027.0882	2999.3383	1373.1	493.2
1027.2002	3000.4	1349.2	467.7
1027.3122	3001.4611	1337.45	454.9
1027.4241	3002.5215	1319.7	440.5
1027.536	3003.5812	1299.45	419.35
1027.6478	3004.6404	1288.9	410.45
1027.7596	3005.6989	1285.55	403.95
1027.8714	3006.7567	1266.4	386.1
1027.9831	3007.8139	1288.75	375
1028.0947	3008.8705	1251.65	371.25
1028.2064	3009.9264	1242.55	358.7
1028.3179	3010.9818	1240.55	362.15
1028.4295	3012.0364	1234.25	351.9
1028.541	3013.0905	1226.5	346.75
1028.6524	3014.1439	1225.9	347.1
1028.7638	3015.1966	1221.3	342.8
1028.8752	3016.2487	1209.95	330.75
1028.9865	3017.3002	1214.95	331.45
1029.0978	3018.3511	1201.8	323.95
1029.209	3019.4013	1202.2	322.25
1029.3202	3020.4509	1202.15	324.85
1029.4314	3021.4998	1196.3	318.35
1029.5425	3022.5481	1198.85	321.15
1029.6535	3023.5958	1194.5	314.85
1029.7645	3024.6428	1194.4	312.25
1029.8755	3025.6892	1190.85	311
1029.9864	3026.735	1195.8	314.9
1030.0973	3027.7802	1189.85	311.2
1030.2082	3028.8247	1187	307.05
1030.319	3029.8685	1196.05	316.45
1030.4297	3030.9118	1191.75	312.5
1030.5404	3031.9544	1188.15	310.65
1030.6511	3032.9963	1192.7	313.65
1030.7617	3034.0376	1195.6	315.7
1030.8723	3035.0783	1200.75	318.3
1030.9829	3036.1184	1193.65	312.5
1031.0934	3037.1578	1199.2	319.8
1031.2038	3038.1966	1201.4	321.4
1031.3142	3039.2348	1196.4	319.2
1031.4246	3040.2723	1209.05	321.05
1031.5349	3041.3092	1200.3	322.5
1031.6452	3042.3455	1206.05	327.95
1031.7554	3043.3811	1198	317.25
1031.8656	3044.4161	1198.3	318.55
1031.9758	3045.4505	1196.35	319.1
1032.0859	3046.4842	1195.25	315.45
1032.1959	3047.5173	1196.3	318.3
1032.3059	3048.5498	1195	314.5
1032.4159	3049.5816	1193.7	314.8
1032.5258	3050.6128	1188.65	309.05
1032.6357	3051.6434	1194.2	313.9
1032.7455	3052.6734	1192.6	313.4
1032.8553	3053.7027	1189.4	310.8
1032.9651	3054.7314	1179.65	302.05
1033.0748	3055.7594	1180.4	301.45
1033.1845	3056.7868	1181.1	300.9
1033.2941	3057.8136	1175	296.5
1033.4037	3058.8398	1177.35	299.45
1033.5132	3059.8653	1171.8	293.55
1033.6227	3060.8902	1174.6	293.75
1033.7321	3061.9145	1171.25	291.75
1033.8415	3062.9381	1169.65	289
1033.9509	3063.9612	1186.7	292.55
1034.0602	3064.9835	1172	292.95
1034.1694	3066.0053	1167.45	285.5
1034.2787	3067.0264	1163.55	284.3
1034.3878	3068.0469	1158.35	277.65
1034.497	3069.0668	1157.75	275.25
1034.6061	3070.086	1148.6	270.3
1034.7151	3071.1046	1142.95	263.4
1034.8241	3072.1226	1142.25	261.65
1034.9331	3073.1399	1133.55	253
1035.042	3074.1567	1132.85	254.1
1035.1508	3075.1727	1127.1	246.7
1035.2597	3076.1882	1123.5	244.05
1035.3684	3077.203	1118.3	238.9
1035.4772	3078.2173	1111.15	230.15
1035.5859	3079.2308	1109.4	226.9
1035.6945	3080.2438	1106.3	225.55
1035.8031	3081.2561	1094.45	213.25
1035.9117	3082.2678	1093.3	216
1036.0202	3083.2789	1081.5	202.8
1036.1286	3084.2893	1086.6	207.3
1036.2371	3085.2991	1076.25	196.5
1036.3454	3086.3083	1077.05	195.05
1036.4538	3087.3169	1067.65	188.45
1036.562	3088.3248	1066.8	185.9
1036.6703	3089.3321	1062.1	179.95
1036.7785	3090.3388	1054.9	175.7
1036.8866	3091.3449	1057.5	177.95
1036.9948	3092.3503	1052.05	170.25
1037.1028	3093.3551	1044.75	168.65
1037.2108	3094.3593	1051.5	172.8
1037.3188	3095.3629	1048.55	171.35
1037.4267	3096.3658	1044.9	163.55
1037.5346	3097.3681	1040.95	162.6
1037.6425	3098.3698	1038.85	159.1
1037.7503	3099.3708	1042.45	155.95
1037.858	3100.3713	1034.15	156.75
1037.9657	3101.3711	1029.05	149.75
1038.0734	3102.3702	1137.75	144.3
1038.181	3103.3688	1027.7	148.9
1038.2886	3104.3667	1023.75	147.4
1038.3961	3105.364	1024.05	145.95
1038.5036	3106.3607	1020.5	140.5
1038.611	3107.3568	1020.35	140.65
1038.7184	3108.3522	1015.65	136.45
1038.8257	3109.347	1013.85	135.4
1038.933	3110.3412	1019.1	134.95
1039.0403	3111.3348	1010.2	132.3
1039.1475	3112.3277	1010.05	132.15
1039.2547	3113.32	1009.95	131.1
1039.3618	3114.3117	1007	126.7
1039.4689	3115.3028	1007.8	129.1
1039.5759	3116.2932	1006.25	124.65
1039.6829	3117.2831	1007.4	122.9
1039.7898	3118.2723	1005.55	128.4
1039.8967	3119.2608	1000.95	123.5
1040.0035	3120.2488	1000.4	121.5
1040.1103	3121.2361	995.6	117.2
1040.2171	3122.2229	996.7	117.75
1040.3238	3123.209	994	113.25
1040.4305	3124.1944	993	114.85
1040.5371	3125.1793	994.5	113.35
1040.6437	3126.1635	990.65	111.15
1040.7502	3127.1471	990.25	111.6
1040.8567	3128.1301	986.1	108.65
1040.9631	3129.1125	987.65	108.35
1041.0695	3130.0942	985.2	107.6
1041.1759	3131.0753	993.85	108.65
1041.2822	3132.0558	988.9	108.9
1041.3884	3133.0357	983.95	103.8
1041.4946	3134.015	981.7	100.55
1041.6008	3134.9936	983.55	103.1
1041.7069	3135.9716	1003.6	106.25
1041.813	3136.949	978.75	101.95
1041.919	3137.9258	995.35	98.05
1042.025	3138.902	987.2	105.25
1042.1309	3139.8775	976.55	97.1
1042.2368	3140.8524	977.45	97.95
1042.3427	3141.8267	978.15	97.55
1042.4485	3142.8004	975.75	98.25
1042.5542	3143.7735	980.65	95.75
1042.6599	3144.7459	974.45	94.95
1042.7656	3145.7178	972.7	93.7
1042.8712	3146.689	969.55	91.6
1042.9768	3147.6596	973	92.8
1043.0823	3148.6295	968.25	89.8
1043.1878	3149.5989	971.9	93.15
1043.2932	3150.5676	970.55	94.3
1043.3986	3151.5357	965.8	87.8
1043.5039	3152.5032	966.55	90.55
1043.6092	3153.4701	966.7	87.6
1043.7145	3154.4364	970.25	90.55
1043.8197	3155.402	966.3	90.4
1043.9248	3156.367	967.65	87.65
1044.03	3157.3315	1000.4	87.4
1044.135	3158.2952	963.45	84.65
1044.24	3159.2584	960.5	83.65
1044.345	3160.221	961.25	80.15
1044.4499	3161.1829	961.15	83.95
1044.5548	3162.1442	962	85.9
1044.6596	3163.105	964.85	86.25
1044.7644	3164.065	957.3	78.25
1044.8692	3165.0245	964	82.4
1044.9739	3165.9834	955.35	78.35
1045.0785	3166.9416	958.4	82.2
1045.1831	3167.8993	958.15	81.35
1045.2877	3168.8563	957.45	77.4
1045.3922	3169.8127	960.05	82.2
1045.4966	3170.7684	956.4	78.75
1045.6011	3171.7236	955.45	77.35
1045.7054	3172.6782	954.45	75.05
1045.8098	3173.6321	955.3	76.35
1045.914	3174.5854	960.6	78.55
1046.0183	3175.5381	954.55	78.15
1046.1224	3176.4902	951.15	73.9
1046.2266	3177.4417	954.2	76.05
1046.3307	3178.3926	950.9	73.7
1046.4347	3179.3428	949.4	74.35
1046.5387	3180.2924	948.85	70.65
1046.6427	3181.2415	951.75	73.05
1046.7466	3182.1899	952.65	73.7
1046.8504	3183.1377	949.8	71.2
1046.9542	3184.0848	951.65	72.15
1047.058	3185.0314	945.25	65.65
1047.1617	3185.9773	950.45	73.7
1047.2654	3186.9227	948.45	69.7
1047.369	3187.8674	946.75	69.1
1047.4726	3188.8115	953.15	71.1
1047.5761	3189.755	946.3	69.3
1047.6796	3190.6979	948.9	69.65
1047.783	3191.6402	942.35	63.95
1047.8864	3192.5818	944.6	66
1047.9898	3193.5229	949.1	63.85
1048.0931	3194.4633	944.25	67.9
1048.1963	3195.4031	944.05	65.4
1048.2995	3196.3423	942.2	64.85
1048.4027	3197.2809	942.45	63.05
1048.5058	3198.2189	945.65	67.75
1048.6089	3199.1563	963.15	69.75
1048.7119	3200.0931	940.35	64.25
1048.8148	3201.0292	940.7	65.45
1048.9178	3201.9648	939.8	61.55
1049.0206	3202.8997	941.7	61.15
1049.1235	3203.834	942.3	63.8
1049.2262	3204.7677	939.4	61.05
1049.329	3205.7008	940.6	60.25
1049.4317	3206.6333	936.6	60.55
1049.5343	3207.5652	940.95	60.4
1049.6369	3208.4964	939	61.2
1049.7394	3209.4271	935.25	55.15
1049.8419	3210.3571	937.6	60.8
1049.9444	3211.2865	937.6	59.2
1050.0468	3212.2154	938.95	58.35
1050.1491	3213.1436	940.85	59.85
1050.2514	3214.0712	941.95	57.2
1050.3537	3214.9982	936.55	59.7
1050.4559	3215.9246	935.75	56.1
1050.5581	3216.8503	932.2	56.05
1050.6602	3217.7755	934.1	57.5
1050.7623	3218.7001	933.95	55.8
1050.8643	3219.624	934.3	56.55
1050.9663	3220.5473	935.05	55.75
1051.0682	3221.4701	936.4	58.75
1051.1701	3222.3922	935.85	55.6
1051.2719	3223.3137	930.25	50.75
1051.3737	3224.2346	935	58
1051.4754	3225.1549	929.25	52.6
1051.5771	3226.0746	933.05	56.6
1051.6788	3226.9937	931.8	55.7
1051.7804	3227.9121	927.95	50.7
1051.8819	3228.83	929.85	51.05
1051.9834	3229.7473	931.15	53.45
1052.0849	3230.6639	930.4	53.25
1052.1863	3231.5799	929.55	52.3
1052.2876	3232.4954	934.4	53.7
1052.3889	3233.4102	928.15	51.6
1052.4902	3234.3244	925.65	47.45
1052.5914	3235.238	928.55	49.8
1052.6926	3236.151	949.85	47.35
1052.7937	3237.0634	925.8	49.95
1052.8948	3237.9752	925.45	48.65
1052.9958	3238.8864	923.55	46.1
1053.0968	3239.797	926.75	47.15
1053.1977	3240.7069	928.9	51.2
1053.2986	3241.6163	925.25	46.75
1053.3994	3242.5251	922.75	46.3
1053.5002	3243.4332	923.5	47.3
1053.6009	3244.3408	924.05	44.25
1053.7016	3245.2477	926.1	48.65
1053.8022	3246.154	925	47.2
1053.9028	3247.0598	926.55	49.25
1054.0034	3247.9649	923.25	46.7
1054.1039	3248.8694	921.05	44.1
1054.2043	3249.7733	921.15	44.5
1054.3047	3250.6766	922.2	43.9
1054.4051	3251.5793	923.8	46.9
1054.5054	3252.4814	920.1	44.85
1054.6056	3253.3829	920.7	42.75
1054.7058	3254.2838	920.6	42.6
1054.806	3255.1841	918.6	42.1
1054.9061	3256.0838	920.05	43.5
1055.0061	3256.9829	916.6	39.6
1055.1062	3257.8814	921.1	41.35
1055.2061	3258.7792	920.05	41.15
1055.306	3259.6765	918.65	41.25
1055.4059	3260.5731	919.8	43.6
1055.5057	3261.4692	918.9	42.7
1055.6055	3262.3647	916.4	38.75
1055.7052	3263.2595	915.75	39.05
1055.8049	3264.1538	912.25	34.05
1055.9045	3265.0474	917.15	39.25
1056.0041	3265.9404	915	37.25
1056.1036	3266.8329	911.3	35.95
1056.2031	3267.7247	921.95	34.25
1056.3025	3268.616	911	36.05
1056.4019	3269.5066	908.55	29.35
1056.5013	3270.3966	909.7	29.75
1056.6005	3271.286	905.15	29.25
