Software Version:	3.9.2.0
Unit SN:	10000200
Spectrometer SN:	6960
Date:	3/8/2024 1:56:28 PM
Data Line Index:	25
Spectral Points:	2048
Integration time (ms):	125
Averages:	20
Delay (ms):	30000
Sequence Number:	1
Processing:	dark subtract
Laser Power (mW):	300
Laser Current (mA):	822
Laser Diode Temp (C):	25.1
Laser Case Temp (C):	26.3
System Temp (C):	26.3
Spectrometer Temp (C):	24.1
CCD Temp (C):	0.007
Secondary Temp (C):	20.003
Heatsink Temp (C):	20.319
CCDPCB Temp (C):	36.329
SecondaryPCB Temp (C):	29.537

Wavelength	RamanShift	Raw Counts	Dark Subtracted
787.061	30.1047	466.3	60.75
787.2016	32.3739	470.65	67
787.3422	34.6426	475.75	68.05
787.4828	36.9109	481.85	72.1
787.6235	39.1787	491.45	79.45
787.7642	41.4461	499.6	82.45
787.9049	43.7131	509	89.25
788.0456	45.9796	516.8	95.55
788.1863	48.2456	527.1	101.8
788.3271	50.5112	537.25	108
788.4679	52.7764	549.75	116.1
788.6087	55.0411	561.6	122.45
788.7496	57.3054	570.25	125.7
788.8904	59.5692	581.6	136.7
789.0313	61.8326	593.7	144.1
789.1722	64.0955	606.1	155.6
789.3132	66.3579	622.8	164.5
789.4541	68.6199	643.75	182.65
789.5951	70.8815	682.5	216.4
789.7361	73.1426	772.3	301
789.8771	75.4032	985.35	510.7
790.0181	77.6634	1522.25	1042.6
790.1592	79.9231	2776.95	2288.8
790.3003	82.1824	5551.1	5047.9
790.4414	84.4412	10541.3	10009.65
790.5825	86.6995	17359.55	16786.9
790.7237	88.9574	24072.3	23466.9
790.8648	91.2148	28705.25	28078.1
791.006	93.4717	30943.05	30300.65
791.1472	95.7282	31433.95	30784.5
791.2885	97.9842	31469.35	30815.25
791.4297	100.2398	31010.35	30351.1
791.571	102.4949	30425	29765.55
791.7123	104.7495	29684.1	29022.95
791.8536	107.0036	28914.1	28248.45
791.9949	109.2573	28191.75	27530.5
792.1363	111.5105	27496.05	26830.95
792.2777	113.7632	26783.15	26117.9
792.4191	116.0154	26215	25538.7
792.5605	118.2672	25791.7	25120.35
792.7019	120.5185	25342.95	24669
792.8434	122.7693	25012.4	24334.45
792.9849	125.0197	24742.25	24060.1
793.1264	127.2696	24461.1	23780.85
793.2679	129.519	24360.55	23675.7
793.4094	131.7679	24172.8	23481.45
793.551	134.0163	24016.25	23320.9
793.6926	136.2642	23855.15	23159.3
793.8342	138.5117	23656.7	22953.85
793.9758	140.7587	23459.6	22760.3
794.1175	143.0052	23253	22551.3
794.2591	145.2512	23039.45	22335.9
794.4008	147.4967	22831.45	22130.8
794.5425	149.7417	22672.75	21966.2
794.6842	151.9863	22593	21883.5
794.826	154.2304	22578.5	21854.65
794.9677	156.4739	22425.05	21706.95
795.1095	158.717	22378.85	21654.1
795.2513	160.9596	22217.45	21489.5
795.3931	163.2017	21981.55	21252.25
795.535	165.4433	21726.95	21000.45
795.6768	167.6844	21388.1	20654.5
795.8187	169.925	21134.05	20401.05
795.9606	172.1651	20772.55	20042.9
796.1025	174.4047	20494.9	19757.15
796.2445	176.6439	20271.3	19531.1
796.3864	178.8825	20019.4	19272.5
796.5284	181.1206	19892.25	19144.6
796.6704	183.3582	19761.5	19009.2
796.8124	185.5954	19669.05	18915.3
796.9544	187.832	19599.15	18842.2
797.0965	190.0681	19628.45	18866.9
797.2386	192.3037	19636.65	18875.15
797.3806	194.5388	19658.65	18892.3
797.5228	196.7734	19689.35	18919.3
797.6649	199.0075	19756.1	18983.8
797.807	201.2411	19968.1	19196.55
797.9492	203.4742	20042.4	19270.7
798.0914	205.7068	20222.95	19440.65
798.2336	207.9389	20346.45	19564.5
798.3758	210.1704	20504.05	19733.1
798.518	212.4015	20618.3	19857.1
798.6603	214.632	20837.45	20078.85
798.8025	216.862	21022.65	20264.35
798.9448	219.0915	21184.5	20424.25
799.0871	221.3205	21422.05	20661.2
799.2294	223.549	21691.65	20937.95
799.3718	225.777	22014.6	21258.75
799.5141	228.0044	22425.4	21659.25
799.6565	230.2314	22882.65	22117.9
799.7989	232.4578	23313.2	22542.55
799.9413	234.6837	23666.6	22889.9
800.0837	236.909	23921.75	23142.4
800.2262	239.1339	23939.2	23135.5
800.3687	241.3582	23747.25	22961.75
800.5111	243.582	23470.75	22652.55
800.6536	245.8053	23099.15	22291.1
800.7961	248.0281	22839.55	22038.8
800.9387	250.2503	22587.45	21782.55
801.0812	252.472	22438.55	21632.5
801.2238	254.6932	22447.15	21641.45
801.3664	256.9139	22365.75	21561.4
801.509	259.134	22386.1	21574.8
801.6516	261.3536	22415.05	21608.8
801.7942	263.5727	22488.9	21675.9
801.9369	265.7912	22451.3	21637.35
802.0795	268.0092	22536	21725.05
802.2222	270.2267	22504.5	21695.65
802.3649	272.4436	22480.85	21667
802.5076	274.6601	22434.55	21613.9
802.6504	276.8759	22354.95	21538.85
802.7931	279.0913	22340.45	21522.1
802.9359	281.3061	22328.9	21511.5
803.0787	283.5204	22432.1	21609.7
803.2215	285.7341	22500.55	21674.45
803.3643	287.9473	22687.85	21855.05
803.5071	290.16	22918.1	22089.75
803.6499	292.3721	23224.55	22398.4
803.7928	294.5837	23666.25	22839.8
803.9357	296.7947	24041.25	23216.25
804.0786	299.0052	24284.55	23458.55
804.2215	301.2152	24120.9	23293.1
804.3644	303.4246	23832.35	23006.25
804.5074	305.6334	23305.7	22483.2
804.6503	307.8418	22858.85	22028.5
804.7933	310.0495	22422.15	21594.7
804.9363	312.2568	22148.7	21315.75
805.0793	314.4635	21890.35	21055.3
805.2223	316.6696	21819.2	20985.1
805.3653	318.8752	21775.65	20927.6
805.5084	321.0802	21864.85	21026.45
805.6514	323.2847	21970	21129.65
805.7945	325.4887	22047.2	21205.45
805.9376	327.692	21984.1	21142.3
806.0807	329.8949	21903.45	21058.45
806.2238	332.0972	21661.7	20814
806.367	334.2989	21401.95	20552.05
806.5101	336.5001	21123.3	20274.2
806.6533	338.7007	20950.75	20105.1
806.7965	340.9008	20838.5	19988.8
806.9397	343.1003	20750.35	19901.95
807.0829	345.2992	20720.8	19866.95
807.2261	347.4976	20693.9	19837.5
807.3693	349.6955	20691.2	19832.95
807.5126	351.8927	20837.3	19978.95
807.6559	354.0895	20809.85	19942.15
807.7991	356.2856	20888.4	20031.35
807.9424	358.4812	20869.45	20006.25
808.0857	360.6763	20943.2	20079.1
808.2291	362.8707	20928.35	20062.8
808.3724	365.0646	21006.15	20143.6
808.5158	367.258	21032.9	20166.35
808.6591	369.4508	21066.1	20192.7
808.8025	371.643	21199.6	20333.45
808.9459	373.8346	21135.45	20261.15
809.0893	376.0257	21142.7	20268.6
809.2327	378.2162	21100.25	20226.5
809.3762	380.4062	20987.05	20121.35
809.5196	382.5956	20873.1	20003.15
809.6631	384.7844	20789.55	19924.7
809.8066	386.9726	20684.5	19821.9
809.9501	389.1603	20640.7	19778.75
810.0936	391.3474	20616.15	19724.15
810.2371	393.5339	20620.95	19752.3
810.3806	395.7199	20571.85	19710.45
810.5241	397.9052	20599.3	19737.1
810.6677	400.09	20626.2	19763.6
810.8113	402.2743	20738.9	19871.2
810.9548	404.4579	20830.95	19967.45
811.0984	406.641	21049.15	20183.95
811.2421	408.8235	21262.7	20396.3
811.3857	411.0054	21564.15	20694.6
811.5293	413.1868	22048.65	21170.7
811.673	415.3675	22344.6	21468.55
811.8166	417.5477	22549.05	21673.05
811.9603	419.7273	22601.8	21720.85
812.104	421.9064	22532.05	21651.05
812.2477	424.0848	22374.55	21498.75
812.3914	426.2627	22179.1	21300.95
812.5351	428.4399	21972.95	21092.45
812.6788	430.6166	21593.7	20710.05
812.8226	432.7928	21208.8	20322.35
812.9663	434.9683	20920.25	20037.1
813.1101	437.1432	20714.25	19834.35
813.2539	439.3176	20537.2	19658.75
813.3977	441.4914	20423.2	19550.65
813.5415	443.6645	20430.2	19554.9
813.6853	445.8371	20320.8	19436.15
813.8291	448.0091	20319.8	19442.1
813.973	450.1806	20259.05	19377.65
814.1168	452.3514	20199.35	19322.3
814.2607	454.5216	20266.55	19375.45
814.4046	456.6913	20184.15	19300.65
814.5485	458.8603	20223.7	19343.6
814.6924	461.0288	20353.1	19477.25
814.8363	463.1967	20358.55	19488.2
814.9802	465.3639	20473.35	19598.3
815.1241	467.5306	20588.45	19712.45
815.2681	469.6967	20709.7	19830.8
815.412	471.8622	20871	19993.65
815.556	474.0271	21057.95	20178.7
815.7	476.1914	21147.7	20261.65
815.844	478.3551	21136.4	20251.85
815.988	480.5182	21167.8	20291.35
816.132	482.6807	21156.45	20283.8
816.276	484.8426	21252.6	20389.55
816.4201	487.0039	21571.45	20697.55
816.5641	489.1647	21992.9	21114.2
816.7082	491.3248	22462.9	21577.7
816.8522	493.4843	22663.25	21787.8
816.9963	495.6432	22662.3	21783.75
817.1404	497.8015	22585.85	21694
817.2845	499.9592	22614.3	21716.85
817.4286	502.1163	22540.15	21645.4
817.5727	504.2728	22313.15	21424.1
817.7168	506.4287	22038.65	21162.9
817.861	508.5839	21600.8	20724.5
818.0051	510.7386	21318.35	20432.6
818.1493	512.8927	21201.3	20312.65
818.2935	515.0461	21132.4	20238.6
818.4377	517.199	21090.05	20199.8
818.5818	519.3512	21102.1	20209.95
818.726	521.5029	21170.75	20276.4
818.8703	523.6539	21252	20358.8
819.0145	525.8043	21311.25	20417.75
819.1587	527.9541	21360.8	20459.8
819.303	530.1033	21350.55	20457.5
819.4472	532.2519	21385.6	20492.4
819.5915	534.3999	21467.75	20571.15
819.7357	536.5472	21782.35	20892.9
819.88	538.694	22252.3	21364.25
820.0243	540.8401	22870.25	21976.45
820.1686	542.9856	23402.6	22499.35
820.3129	545.1305	23580.25	22670.55
820.4572	547.2748	23438.25	22524.55
820.6016	549.4185	23121.35	22206.9
820.7459	551.5615	22788.7	21875.55
820.8902	553.704	22675.45	21765.25
821.0346	555.8458	22627.45	21724.85
821.1789	557.987	22670.9	21769.4
821.3233	560.1276	22691.3	21787.3
821.4677	562.2675	22736.8	21831.1
821.6121	564.4069	22770.95	21865.2
821.7565	566.5456	22772.25	21871.8
821.9009	568.6837	22747.75	21845
822.0453	570.8212	22452.3	21554.25
822.1897	572.958	22112.15	21208.6
822.3342	575.0942	21832.7	20932
822.4786	577.2299	21615.35	20720.05
822.6231	579.3648	21598.35	20715.85
822.7675	581.4992	21640.4	20765.9
822.912	583.6329	21825.65	20948.7
823.0565	585.766	22085.7	21203.4
823.201	587.8985	22241.6	21351.3
823.3454	590.0304	22285.45	21380.6
823.4899	592.1616	22221.2	21315.25
823.6345	594.2922	22153.85	21242.35
823.779	596.4222	22019.6	21110.4
823.9235	598.5515	21838	20923.65
824.068	600.6802	21694.9	20781.8
824.2126	602.8083	21476.05	20571.15
824.3571	604.9358	21440.75	20530.55
824.5017	607.0626	21372.55	20464.25
824.6462	609.1888	21389.4	20471.95
824.7908	611.3144	21356.9	20437.8
824.9354	613.4393	21250.15	20331.5
825.08	615.5636	21219.65	20302.9
825.2246	617.6873	21119.95	20205.65
825.3692	619.8103	21068.75	20154.45
825.5138	621.9327	21003.45	20090.4
825.6584	624.0544	20955.3	20044.45
825.803	626.1756	20939.3	20030.7
825.9477	628.2961	20943.9	20028.45
826.0923	630.4159	20901.85	19982.2
826.237	632.5351	20879.25	19963.3
826.3816	634.6537	20791.7	19877.05
826.5263	636.7716	20824.05	19900.65
826.6709	638.8889	20876.6	19954.6
826.8156	641.0056	20939.05	20017.8
826.9603	643.1216	20883.65	19960.5
827.105	645.237	20987	20066.1
827.2497	647.3518	20970.2	20060.15
827.3944	649.4659	21055.3	20144.95
827.5391	651.5793	21014.4	20108.3
827.6838	653.6922	21015.9	20103.55
827.8285	655.8043	21006.05	20090.9
827.9733	657.9159	21023.8	20109.9
828.118	660.0268	20946.7	20034.9
828.2627	662.137	20894.9	19981.05
828.4075	664.2466	20894.5	19971.45
828.5522	666.3556	20906.45	19986.95
828.697	668.4639	20896.15	19979.55
828.8418	670.5716	20976.75	20066.75
828.9865	672.6786	21054.05	20134.55
829.1313	674.785	21111.55	20188.4
829.2761	676.8907	21134.15	20214.35
829.4209	678.9958	21273.2	20358.4
829.5657	681.1002	21225.65	20306.55
829.7105	683.204	21210	20280.75
829.8553	685.3072	21213.8	20290.5
830.0001	687.4097	21162.65	20242
830.1449	689.5115	21169.5	20244.75
830.2898	691.6127	21107.05	20188.5
830.4346	693.7132	21050.15	20130.1
830.5794	695.8131	21065.35	20122.65
830.7243	697.9123	21071.8	20142.75
830.8691	700.0109	20999.1	20071.15
831.014	702.1089	21038.05	20109
831.1588	704.2061	21059.2	20133.9
831.3037	706.3028	21139.1	20211.8
831.4486	708.3987	21181.1	20254.95
831.5935	710.4941	21254.55	20331.6
831.7383	712.5887	21471.1	20546.65
831.8832	714.6827	21743.1	20817.05
832.0281	716.7761	22107.5	21186.25
832.173	718.8688	22491.65	21568.95
832.3179	720.9608	22656.3	21724.5
832.4628	723.0522	22766.2	21829.6
832.6077	725.1429	22564.55	21632.95
832.7527	727.233	22348	21420
832.8976	729.3224	22169	21237.7
833.0425	731.4112	21898.7	20971.1
833.1874	733.4993	21697.7	20767.35
833.3324	735.5867	21526.2	20600.15
833.4773	737.6735	21412.2	20481.55
833.6222	739.7596	21371.1	20439.1
833.7672	741.845	21355.85	20425.65
833.9122	743.9298	21307.9	20378
834.0571	746.014	21366.05	20437.1
834.2021	748.0974	21378.65	20442.7
834.347	750.1802	21360.9	20423.45
834.492	752.2624	21346.3	20410.7
834.637	754.3439	21381.3	20442.6
834.782	756.4247	21489.45	20545
834.9269	758.5048	21553.2	20619.5
835.0719	760.5843	21800.3	20864.6
835.2169	762.6631	22125.3	21189.85
835.3619	764.7413	22585.4	21652.7
835.5069	766.8188	23211.05	22275.4
835.6519	768.8956	23614.85	22677.75
835.7969	770.9718	23941.65	23010.8
835.9419	773.0473	23781.45	22850
836.0869	775.1221	23505.35	22574.15
836.232	777.1962	23149.8	22212.9
836.377	779.2697	22943.5	22005.2
836.522	781.3426	23022.4	22066.85
836.667	783.4147	23265.05	22328.3
836.8121	785.4862	23607.4	22675.15
836.9571	787.557	23638.55	22698.9
837.1021	789.6271	23265.85	22324.25
837.2472	791.6966	22772.2	21836.95
837.3922	793.7654	22251.45	21315.95
837.5373	795.8335	21924.5	20988.5
837.6823	797.901	21753.3	20817
837.8274	799.9678	21687.2	20745.2
837.9724	802.0339	21679.7	20739.85
838.1175	804.0993	21810.55	20862.65
838.2626	806.1641	21771.8	20828.5
838.4076	808.2282	21722.85	20784.6
838.5527	810.2916	21637.2	20699.05
838.6978	812.3544	21578.9	20643.45
838.8428	814.4164	21476.45	20537.35
838.9879	816.4778	21546.15	20605.7
839.133	818.5385	21522.5	20581.95
839.2781	820.5986	21616.25	20673.35
839.4232	822.658	21783.25	20840.9
839.5682	824.7166	21831.3	20891.35
839.7133	826.7747	22130.2	21188.55
839.8584	828.832	22316.25	21372
840.0035	830.8886	22422.05	21474.45
840.1486	832.9446	22644.9	21699.25
840.2937	834.9999	22659.25	21717.7
840.4388	837.0545	22689.55	21745.95
840.5839	839.1085	22676.1	21733.15
840.729	841.1618	22640.35	21694.3
840.8741	843.2143	22595.75	21647.75
841.0192	845.2662	22492.45	21550.7
841.1643	847.3175	22462.2	21519.1
841.3095	849.368	22372.6	21430.25
841.4546	851.4179	22266.35	21322.5
841.5997	853.467	22144.7	21201.15
841.7448	855.5155	22027.35	21083.25
841.8899	857.5633	21926.95	20985.5
842.0351	859.6105	21852.85	20909.3
842.1802	861.6569	21811.45	20865.6
842.3253	863.7027	21765.35	20818.75
842.4704	865.7478	21810.75	20866.1
842.6156	867.7922	21825.9	20882.85
842.7607	869.8359	21833.6	20885.8
842.9058	871.8789	21949.85	21002.7
843.0509	873.9212	22173.2	21194.45
843.1961	875.9629	22314.3	21370.15
843.3412	878.0039	22496.4	21554.95
843.4863	880.0441	22649.3	21704.75
843.6315	882.0837	22624.7	21682.25
843.7766	884.1226	22573.8	21630.9
843.9218	886.1609	22466.6	21521.9
844.0669	888.1984	22432.7	21488.65
844.212	890.2352	22494.05	21548.75
844.3572	892.2714	22438.1	21489.2
844.5023	894.3069	22428.8	21483
844.6475	896.3416	22360.5	21414.15
844.7926	898.3757	22371.65	21427.4
844.9377	900.4091	22361.5	21410.75
845.0829	902.4418	22345.95	21392.6
845.228	904.4739	22370.1	21419.25
845.3732	906.5052	22411.15	21464.25
845.5183	908.5358	22281.65	21326.7
845.6635	910.5658	22154.9	21204.35
845.8086	912.595	22016.8	21065.7
845.9538	914.6236	21859.05	20911.75
846.0989	916.6515	21803.15	20856.1
846.2441	918.6786	21807.9	20857.6
846.3892	920.7051	21899.9	20952.1
846.5344	922.7309	22063.55	21115.8
846.6795	924.756	22091.85	21144.85
846.8246	926.7804	22220.85	21273.2
846.9698	928.8041	22138.25	21185.05
847.1149	930.8272	22169.55	21221.85
847.2601	932.8495	22039.95	21087.8
847.4052	934.8711	22035.05	21083.25
847.5504	936.892	21888.3	20937.7
847.6955	938.9123	21745.05	20796.2
847.8407	940.9318	21684.45	20736.9
847.9858	942.9506	21575.9	20628.8
848.131	944.9688	21488.2	20542.5
848.2761	946.9862	21431.85	20482.75
848.4213	949.003	21323.05	20373.6
848.5664	951.019	21352.1	20406.45
848.7115	953.0344	21360.85	20408.25
848.8567	955.0491	21348.2	20394.75
849.0018	957.063	21475.7	20528.7
849.147	959.0763	21608.25	20662.4
849.2921	961.0888	21662.7	20712.85
849.4373	963.1007	21824.25	20874.95
849.5824	965.1119	21833.1	20894.45
849.7275	967.1223	21820.2	20886.65
849.8727	969.1321	21876.4	20946.15
850.0178	971.1412	21946.2	21009
850.1629	973.1495	21918.75	20973.45
850.3081	975.1572	22061.9	21060.9
850.4532	977.1641	22038.3	21086.95
850.5983	979.1704	22018.6	21065.85
850.7435	981.1759	22013.05	21059.95
850.8886	983.1808	22105.35	21153.5
851.0337	985.1849	22183.75	21223.45
851.1788	987.1884	22324.1	21375.25
851.324	989.1911	22454.95	21502.8
851.4691	991.1932	22575	21626.8
851.6142	993.1945	22625.95	21677.4
851.7593	995.1951	22591.2	21644.35
851.9045	997.1951	22559.6	21603.7
852.0496	999.1943	22454	21506.9
852.1947	1001.1928	22400.9	21450.6
852.3398	1003.1906	22411.5	21461.45
852.4849	1005.1877	22465.05	21513.65
852.63	1007.1841	22426.25	21479.15
852.7751	1009.1798	22305.55	21360.4
852.9202	1011.1748	22151.9	21202.15
853.0653	1013.1691	21976.85	21027.05
853.2104	1015.1627	21769.1	20818
853.3555	1017.1556	21513.05	20567.35
853.5006	1019.1477	21440.25	20494.9
853.6457	1021.1392	21351.3	20413.9
853.7908	1023.1299	21281.65	20345.2
853.9359	1025.12	21286.2	20354.3
854.081	1027.1093	21312.7	20391.85
854.2261	1029.0979	21370.95	20454
854.3712	1031.0859	21457.4	20533.55
854.5163	1033.0731	21454.55	20517.95
854.6613	1035.0596	21411.6	20473.25
854.8064	1037.0454	21193.45	20249.9
854.9515	1039.0304	21112.3	20168
855.0965	1041.0148	20957.9	20012.8
855.2416	1042.9985	20876.5	19930
855.3867	1044.9814	20884.95	19938.35
855.5317	1046.9636	20815.9	19870.15
855.6768	1048.9452	20743.85	19801.1
855.8219	1050.926	20800.45	19856.2
855.9669	1052.9061	20799.6	19852.1
856.112	1054.8855	20779.2	19831.95
856.257	1056.8642	20811.8	19868.15
856.4021	1058.8421	20889.5	19941
856.5471	1060.8194	20945.45	19998.2
856.6921	1062.7959	20936.45	19988.65
856.8372	1064.7717	20964.3	20016.3
856.9822	1066.7469	20995.45	20047.75
857.1272	1068.7213	20997.2	20050.05
857.2723	1070.695	20966.1	20020.85
857.4173	1072.6679	20914.25	19965.6
857.5623	1074.6402	20885.8	19942.7
857.7073	1076.6117	20874.15	19918.95
857.8523	1078.5826	20907.95	19959.4
857.9973	1080.5527	20883.45	19934.7
858.1423	1082.5221	20994.75	20048.3
858.2873	1084.4908	21094.5	20149.6
858.4323	1086.4587	21260.55	20311.95
858.5773	1088.426	21445.05	20498
858.7223	1090.3925	21444.3	20489.85
858.8673	1092.3584	21376.1	20428.45
859.0123	1094.3235	21245	20300.15
859.1573	1096.2879	21165.95	20217.55
859.3022	1098.2515	21144.75	20201.95
859.4472	1100.2145	21244.1	20298.1
859.5922	1102.1767	21306.35	20358.85
859.7371	1104.1382	21486.75	20541.75
859.8821	1106.099	21716.2	20770.7
860.027	1108.0591	21898	20951.65
860.172	1110.0185	22011.05	21064.85
860.3169	1111.9771	22042.9	21095.55
860.4619	1113.9351	21862.8	20917.35
860.6068	1115.8923	21562.9	20616.5
860.7517	1117.8488	21239.95	20295.85
860.8967	1119.8045	20974.8	20032.55
861.0416	1121.7596	20867	19924.7
861.1865	1123.7139	20786.1	19842.85
861.3314	1125.6675	20752.2	19807.85
861.4763	1127.6204	20874.2	19926.5
861.6212	1129.5726	20810.15	19865.1
861.7661	1131.524	20824	19877.1
861.911	1133.4748	20776.05	19830.1
862.0559	1135.4248	20782.35	19836.4
862.2008	1137.3741	20762	19818.4
862.3457	1139.3226	20688.25	19741.15
862.4905	1141.2705	20703.55	19757.35
862.6354	1143.2176	20561.4	19610.9
862.7803	1145.164	20623.55	19676.45
862.9251	1147.1097	20611.35	19666.8
863.07	1149.0546	20610.15	19666.25
863.2148	1150.9989	20504.15	19558.8
863.3597	1152.9424	20407.2	19459.75
863.5045	1154.8852	20238.6	19295.35
863.6493	1156.8272	20114.55	19170.05
863.7942	1158.7686	20064.4	19112.45
863.939	1160.7092	20008	19059.85
864.0838	1162.6491	19997.1	19050.7
864.2286	1164.5883	20085.7	19140.85
864.3734	1166.5267	20180.35	19232.45
864.5182	1168.4644	20267.55	19324.8
864.663	1170.4014	20491.65	19548.5
864.8078	1172.3377	20725.4	19785.5
864.9526	1174.2732	20961	20019.4
865.0974	1176.2081	21239.25	20296.85
865.2421	1178.1421	21485	20538.25
865.3869	1180.0755	21730.2	20788.5
865.5317	1182.0082	21814.85	20874.95
865.6764	1183.9401	21839.7	20902.7
865.8212	1185.8713	21685.6	20750.3
865.9659	1187.8017	21410.75	20482.6
866.1106	1189.7315	21136.6	20217.45
866.2554	1191.6605	20825.35	19902.7
866.4001	1193.5888	20573.85	19645.6
866.5448	1195.5163	20498.7	19562.15
866.6895	1197.4432	20408.85	19471.4
866.8342	1199.3693	20349.95	19410.75
866.9789	1201.2947	20273.35	19326
867.1236	1203.2193	20232.25	19293.55
867.2683	1205.1432	20298.65	19358.3
867.413	1207.0664	20314.35	19371.15
867.5576	1208.9889	20298.05	19356.75
867.7023	1210.9106	20314.25	19370.1
867.847	1212.8316	20333.05	19395.45
867.9916	1214.7519	20396.3	19447.15
868.1363	1216.6715	20359.75	19423.15
868.2809	1218.5903	20413.3	19475.8
868.4255	1220.5084	20376.4	19435.25
868.5701	1222.4257	20405.1	19465.15
868.7148	1224.3424	20294.65	19361.2
868.8594	1226.2583	20318.05	19375.5
869.004	1228.1735	20424.3	19480.15
869.1486	1230.0879	20485.25	19546.55
869.2932	1232.0016	20592.1	19653.25
869.4377	1233.9146	20612.45	19670.95
869.5823	1235.8269	20544.45	19605.8
869.7269	1237.7384	20419.1	19480.05
869.8715	1239.6492	20186.85	19251.85
870.016	1241.5592	20104.7	19162.45
870.1606	1243.4686	20027.65	19085.4
870.3051	1245.3772	19996.95	19059.3
870.4496	1247.285	19955.2	19017.05
870.5941	1249.1922	19898.95	18959.05
870.7387	1251.0986	19932.85	18997.45
870.8832	1253.0042	19898.6	18965.3
871.0277	1254.9092	19952.8	19017.65
871.1722	1256.8134	19999.85	19062.45
871.3167	1258.7169	20142.55	19204.9
871.4611	1260.6196	20295.85	19357.65
871.6056	1262.5216	20480.8	19542.35
871.7501	1264.4229	20652	19715.55
871.8945	1266.3234	20815.45	19876.95
872.039	1268.2232	20879.1	19939.9
872.1834	1270.1223	20849.3	19911.35
872.3278	1272.0207	20859.6	19923.65
872.4723	1273.9183	20829.1	19884.5
872.6167	1275.8151	20744.45	19807.65
872.7611	1277.7113	20657.2	19721.1
872.9055	1279.6067	20523.1	19584.85
873.0499	1281.5014	20436.4	19498.9
873.1943	1283.3953	20380.4	19439.95
873.3386	1285.2885	20410.65	19473.7
873.483	1287.181	20462.2	19524.95
873.6274	1289.0727	20582.7	19647.15
873.7717	1290.9637	20642.1	19705.95
873.9161	1292.854	20782.6	19843.35
874.0604	1294.7435	20892.3	19956.5
874.2047	1296.6323	21050.15	20113.7
874.349	1298.5204	21276.25	20337.8
874.4933	1300.4077	21467.75	20530.55
874.6376	1302.2943	21606.05	20670.2
874.7819	1304.1802	21626.75	20687.95
874.9262	1306.0653	21449.5	20513.35
875.0705	1307.9497	21240.55	20303.85
875.2147	1309.8333	21117.45	20182.95
875.359	1311.7162	20980.95	20044.2
875.5032	1313.5984	20965.7	20026.4
875.6475	1315.4798	20995.05	20041.7
875.7917	1317.3605	21067.8	20114.85
875.9359	1319.2405	21137.45	20193.7
876.0801	1321.1197	21063.4	20122.65
876.2243	1322.9982	20899.85	19958.4
876.3685	1324.876	20838.35	19901.85
876.5127	1326.753	20696.8	19759.8
876.6569	1328.6293	20707.85	19768.9
876.801	1330.5048	20710.55	19772.6
876.9452	1332.3796	20603	19669
877.0893	1334.2537	20568.75	19606.3
877.2335	1336.127	20483.85	19548.95
877.3776	1337.9996	20446.65	19510.95
877.5217	1339.8714	20430.95	19494.45
877.6658	1341.7426	20408.45	19422.3
877.8099	1343.6129	20333.45	19395.8
877.954	1345.4826	20301.85	19363.15
878.0981	1347.3515	20286.5	19347.65
878.2422	1349.2196	20211.15	19272.4
878.3862	1351.087	20238.95	19302.95
878.5303	1352.9537	20249.2	19309.5
878.6743	1354.8197	20374.25	19433.3
878.8184	1356.6849	20523.85	19585.25
878.9624	1358.5493	20599.25	19662.15
879.1064	1360.4131	20655.35	19718.05
879.2504	1362.276	20576.7	19642.75
879.3944	1364.1383	20403.35	19465.1
879.5384	1365.9998	20196.15	19254.4
879.6823	1367.8606	19861.45	18926.6
879.8263	1369.7206	19542.75	18603.95
879.9702	1371.5799	19291.35	18349.95
880.1142	1373.4384	19114.15	18175.65
880.2581	1375.2962	18950.75	18011.85
880.402	1377.1533	18676.55	17741.75
880.5459	1379.0096	18324.25	17390.45
880.6898	1380.8652	17985.3	17053.95
880.8337	1382.7201	17787.55	16856.75
880.9776	1384.5742	17519.85	16585.45
881.1215	1386.4275	17341	16405.9
881.2653	1388.2802	17170.6	16233.8
881.4092	1390.132	17022.55	16085.8
881.553	1391.9832	16976.35	16038.8
881.6968	1393.8336	16851.25	15914.85
881.8406	1395.6832	16794	15854.6
881.9844	1397.5322	16740.85	15805.3
882.1282	1399.3803	16691.45	15752.5
882.272	1401.2278	16621.1	15688.4
882.4158	1403.0745	16626.95	15696.85
882.5595	1404.9204	16562.5	15628.5
882.7033	1406.7656	16551.65	15619.25
882.847	1408.6101	16555.15	15622.4
882.9908	1410.4538	16538.65	15600.3
883.1345	1412.2968	16559.25	15624.3
883.2782	1414.139	16565.55	15632.15
883.4219	1415.9805	16645.2	15710.1
883.5656	1417.8213	16675.05	15736.1
883.7092	1419.6613	16781.1	15847.15
883.8529	1421.5006	16952.5	16019.35
883.9965	1423.3391	17188.3	16254.95
884.1402	1425.1769	17444.15	16509.5
884.2838	1427.0139	17901.5	16966
884.4274	1428.8502	18456.5	17522.15
884.571	1430.6858	19023.25	18091.65
884.7146	1432.5206	19394.35	18464
884.8582	1434.3547	19600.85	18670.3
885.0018	1436.188	19662.35	18728.05
885.1453	1438.0206	19574.8	18643.2
885.2889	1439.8524	19373.3	18437.2
885.4324	1441.6835	19277.25	18341.6
885.5759	1443.5139	19129.7	18195.5
885.7194	1445.3435	19045.5	18111.7
885.8629	1447.1724	19009.9	18081.85
886.0064	1449.0005	18928.15	17998.95
886.1499	1450.8279	18827.75	17897.4
886.2933	1452.6545	18783.05	17856.45
886.4368	1454.4804	18786.7	17853.45
886.5802	1456.3056	18780.15	17841
886.7237	1458.13	18678.6	17746.25
886.8671	1459.9536	18495.2	17562.9
887.0105	1461.7766	18111.65	17180.5
887.1539	1463.5987	17687.55	16754.5
887.2972	1465.4202	17324.3	16392.1
887.4406	1467.2409	16947.2	16016.55
887.584	1469.0608	16680.35	15747.7
887.7273	1470.88	16409.95	15480.1
887.8706	1472.6984	16175.2	15247.3
888.0139	1474.5161	15919.3	14982.85
888.1572	1476.3331	15730.75	14800.6
888.3005	1478.1493	15645.25	14712.5
888.4438	1479.9648	15551.2	14619.35
888.5871	1481.7795	15411.4	14480.4
888.7303	1483.5935	15355.7	14422.45
888.8736	1485.4067	15292.45	14360
889.0168	1487.2192	15229.4	14298.65
889.16	1489.031	15163.25	14232.95
889.3032	1490.842	15113.2	14182.75
889.4464	1492.6522	15086.6	14157.5
889.5896	1494.4618	15010.05	14078.1
889.7327	1496.2705	14973.3	14041.95
889.8759	1498.0785	14890.35	13962.15
890.019	1499.8858	14849.95	13920.65
890.1622	1501.6924	14832.75	13902.2
890.3053	1503.4981	14766	13834.8
890.4484	1505.3032	14749.85	13816.95
890.5914	1507.1075	14690.8	13760.25
890.7345	1508.911	14659.55	13728.9
890.8776	1510.7138	14611.3	13680.45
891.0206	1512.5159	14547.5	13617.4
891.1637	1514.3172	14495.1	13567.3
891.3067	1516.1178	14378.15	13450.75
891.4497	1517.9176	14391.55	13459.75
891.5927	1519.7166	14319.65	13393.9
891.7357	1521.515	14258.2	13325.75
891.8786	1523.3126	14203.8	13272.95
892.0216	1525.1094	14175.6	13242.75
892.1645	1526.9055	14130.2	13204.65
892.3074	1528.7008	14064.35	13138.95
892.4503	1530.4954	13994.5	13066.2
892.5932	1532.2893	13994.3	13071.65
892.7361	1534.0824	13922.65	12995.2
892.879	1535.8747	13896.1	12970.95
893.0218	1537.6663	13868.15	12944.2
893.1647	1539.4572	13820.3	12895.5
893.3075	1541.2473	13825.6	12901.4
893.4503	1543.0367	13810.55	12885.75
893.5931	1544.8253	13749.7	12821.05
893.7359	1546.6132	13718.55	12790.9
893.8787	1548.4003	13730.05	12793.2
894.0214	1550.1867	13695.45	12763.5
894.1642	1551.9723	13705.2	12780.65
894.3069	1553.7572	13745.2	12821.35
894.4496	1555.5414	13751.25	12831.85
894.5923	1557.3247	13779.5	12859.15
894.735	1559.1074	13866.6	12948.35
894.8777	1560.8893	13916.2	12998.05
895.0204	1562.6705	13914.45	12994.2
895.163	1564.4509	14028.3	13114.05
895.3056	1566.2305	14060.4	13149.1
895.4482	1568.0094	14143.55	13229.8
895.5908	1569.7876	14140.25	13224.95
895.7334	1571.565	14151.45	13233.9
895.876	1573.3417	14160.15	13241.2
896.0186	1575.1176	14080.35	13163
896.1611	1576.8928	14086.15	13174.35
896.3036	1578.6672	13969.4	13064.05
896.4461	1580.4409	13841.25	12936.4
896.5886	1582.2138	13726	12817.25
896.7311	1583.986	13629.2	12716.65
896.8736	1585.7575	13528.25	12612.85
897.0161	1587.5282	13476.3	12569.45
897.1585	1589.2981	13438.9	12531.65
897.3009	1591.0673	13376.4	12467.85
897.4433	1592.8358	13388.4	12478.65
897.5857	1594.6035	13373.15	12458.9
897.7281	1596.3704	13373.8	12458.85
897.8705	1598.1366	13378.65	12467.1
898.0128	1599.9021	13413.8	12504.2
898.1551	1601.6668	13439.8	12528.6
898.2975	1603.4308	13514.25	12600.95
898.4398	1605.194	13608.6	12695.85
898.5821	1606.9564	13699.75	12794.3
898.7243	1608.7182	13821.15	12917.8
898.8666	1610.4791	13947.85	13054.5
899.0088	1612.2394	14108.4	13210.6
899.1511	1613.9988	14255.3	13356.85
899.2933	1615.7576	14429.85	13524.85
899.4355	1617.5156	14690.3	13773.2
899.5776	1619.2728	14863.8	13952.5
899.7198	1621.0293	14948.3	14036.95
899.862	1622.785	14957.25	14045.7
900.0041	1624.54	14831.35	13927.15
900.1462	1626.2942	14687.35	13784
900.2883	1628.0477	14400.3	13494.3
900.4304	1629.8005	14142.55	13234.9
900.5725	1631.5525	13884.05	12982.7
900.7145	1633.3037	13696.8	12794.4
900.8566	1635.0542	13551.3	12649.2
900.9986	1636.804	13434.5	12531.6
901.1406	1638.553	13430.55	12467.4
901.2826	1640.3013	13316.8	12414.45
901.4245	1642.0488	13260.15	12356.5
901.5665	1643.7955	13282.3	12379.6
901.7085	1645.5416	13311.9	12411.4
901.8504	1647.2868	13405.35	12503.8
901.9923	1649.0313	13480.9	12573.7
902.1342	1650.7751	13590.25	12685.9
902.2761	1652.5181	13742.35	12839.45
902.4179	1654.2604	13918.2	13017.25
902.5598	1656.0019	14150.85	13249.4
902.7016	1657.7427	14443.75	13540.4
902.8434	1659.4828	14731.75	13828.65
902.9852	1661.222	14902.85	13995.8
903.127	1662.9606	14868	13964.1
903.2687	1664.6984	14681	13774.1
903.4105	1666.4354	14289.65	13380.8
903.5522	1668.1717	13783.85	12877.05
903.6939	1669.9072	13257.15	12349.6
903.8356	1671.642	12777.85	11867.85
903.9773	1673.3761	12453.5	11549.85
904.119	1675.1094	12138.6	11232.05
904.2606	1676.8419	11901.45	10999.7
904.4022	1678.5737	11696.65	10790.05
904.5439	1680.3048	11574.65	10667.1
904.6855	1682.0351	11447.1	10542.25
904.827	1683.7646	11305.1	10394.95
904.9686	1685.4934	11213.5	10310.3
905.1101	1687.2215	11188.55	10282.05
905.2517	1688.9488	11084.7	10184.25
905.3932	1690.6754	11003.25	10102.2
905.5347	1692.4012	10970.95	10066.5
905.6761	1694.1263	10886.85	9982.2
905.8176	1695.8506	10856.85	9953.2
905.9591	1697.5742	10810.95	9911.05
906.1005	1699.297	10743.45	9844.45
906.2419	1701.0191	10704.35	9808.1
906.3833	1702.7404	10643.05	9747.05
906.5246	1704.461	10586.35	9685.75
906.666	1706.1808	10529.95	9626.75
906.8073	1707.8999	10499.25	9601
906.9487	1709.6182	10458.2	9560.2
907.09	1711.3358	10418.95	9524.05
907.2313	1713.0527	10383.2	9490.8
907.3725	1714.7688	10314.55	9412.3
907.5138	1716.4841	10276.15	9378.35
907.655	1718.1987	10278.85	9375.95
907.7962	1719.9126	10242.45	9348.65
907.9374	1721.6257	10194.95	9301.4
908.0786	1723.338	10161.1	9265.85
908.2198	1725.0496	10087.05	9189.9
908.3609	1726.7605	10082.7	9181.25
908.502	1728.4706	10051.15	9154.8
908.6431	1730.18	9989.25	9095.25
908.7842	1731.8886	9964.75	9072.15
908.9253	1733.5964	9950	9035.7
909.0664	1735.3036	9917.15	9018.25
909.2074	1737.0099	9893.2	8999.35
909.3484	1738.7156	9884.7	8993.95
909.4894	1740.4204	9795.6	8897.15
909.6304	1742.1246	9796.1	8898.85
909.7714	1743.8279	9761.05	8864.85
909.9123	1745.5306	9744.85	8849.7
910.0532	1747.2325	9701.4	8809.05
910.1941	1748.9336	9664.5	8771.7
910.335	1750.634	9615.35	8718.25
910.4759	1752.3336	9601.55	8705.5
910.6168	1754.0325	9582.65	8690.6
910.7576	1755.7307	9551.65	8659
910.8984	1757.4281	9560.65	8665.15
911.0392	1759.1247	9523.7	8618.7
911.18	1760.8206	9498.4	8595.55
911.3208	1762.5158	9448.8	8546.95
911.4615	1764.2102	9413.9	8517.8
911.6022	1765.9039	9399.65	8506.15
911.7429	1767.5968	9359.15	8468.3
911.8836	1769.289	9366.35	8472.35
912.0243	1770.9804	9332.25	8437.5
912.1649	1772.6711	9313.1	8415.2
912.3056	1774.361	9287.95	8389.1
912.4462	1776.0502	9281.75	8382.9
912.5868	1777.7386	9266.1	8366.2
912.7274	1779.4263	9216.3	8321.65
912.8679	1781.1132	9224.25	8333.25
913.0084	1782.7994	9165.85	8273.85
913.149	1784.4849	9178.15	8287.5
913.2895	1786.1696	9132.3	8233.55
913.4299	1787.8535	9106.25	8213.35
913.5704	1789.5367	9068.15	8180.85
913.7108	1791.2192	9053.75	8163.1
913.8513	1792.9009	9015.1	8096.2
913.9917	1794.5818	9002.4	8106.05
914.132	1796.2621	9002.45	8106.2
914.2724	1797.9415	8981.75	8085.2
914.4128	1799.6202	8944.65	8049.35
914.5531	1801.2982	8927.7	8030.95
914.6934	1802.9755	8912.3	8015.65
914.8337	1804.6519	8903.65	8007.35
914.9739	1806.3277	8845.6	7953.75
915.1142	1808.0027	8803.65	7915.2
915.2544	1809.6769	8812.5	7923.5
915.3946	1811.3504	8775.85	7888.7
915.5348	1813.0231	8768.55	7878.1
915.675	1814.6951	8742.1	7852.3
915.8151	1816.3664	8760.3	7864.75
915.9553	1818.0369	8726.15	7831.05
916.0954	1819.7067	8694.2	7800.5
916.2355	1821.3757	8672.95	7773.3
916.3755	1823.044	8641.4	7746.4
916.5156	1824.7115	8663.1	7769.75
916.6556	1826.3783	8613.55	7722.45
916.7956	1828.0443	8556.9	7666.95
916.9356	1829.7096	8563.45	7667.95
917.0756	1831.3741	8543.35	7646
917.2155	1833.0379	8520.2	7630.65
917.3555	1834.701	8502.25	7611.8
917.4954	1836.3633	8478	7588.5
917.6353	1838.0248	8461.35	7570.4
917.7751	1839.6856	8464.65	7571.5
917.915	1841.3457	8437.85	7544.55
918.0548	1843.005	8431.5	7537.7
918.1946	1844.6636	8406.85	7516.8
918.3344	1846.3214	8388.05	7495.45
918.4742	1847.9785	8361.75	7468.5
918.6139	1849.6349	8343.3	7448.15
918.7537	1851.2904	8341.6	7435.85
918.8934	1852.9453	8301.65	7404.8
919.0331	1854.5994	8305.35	7410.15
919.1727	1856.2528	8292.8	7392.5
919.3124	1857.9054	8245.2	7351.15
919.452	1859.5572	8242	7349.6
919.5916	1861.2083	8216.75	7326.1
919.7312	1862.8587	8221.95	7329.25
919.8708	1864.5084	8200.7	7306
920.0103	1866.1572	8171.45	7276.45
920.1498	1867.8054	8146.85	7249.85
920.2893	1869.4528	8117.85	7223.25
920.4288	1871.0994	8114.75	7218.95
920.5683	1872.7453	8086.2	7191.4
920.7077	1874.3905	8069.75	7158.7
920.8471	1876.0349	8024.2	7130.1
920.9865	1877.6786	8026	7132.8
921.1259	1879.3215	8018	7125.5
921.2653	1880.9637	7994.65	7099.9
921.4046	1882.6051	7984.25	7093.95
921.5439	1884.2458	7946.4	7052.3
921.6832	1885.8858	7935.4	7042.25
921.8225	1887.525	7918.85	7025.1
921.9617	1889.1634	7875.75	6985
922.101	1890.8011	7871.05	6975.55
922.2402	1892.4381	7856.8	6964
922.3794	1894.0743	7813.45	6920.8
922.5185	1895.7098	7811.5	6922.2
922.6577	1897.3446	7796	6903.35
922.7968	1898.9786	7795.6	6899.85
922.9359	1900.6118	7759.9	6868.65
923.075	1902.2443	7737.8	6846.05
923.214	1903.8761	7721.9	6832.05
923.3531	1905.5071	7666.35	6772.45
923.4921	1907.1374	7662.8	6770
923.6311	1908.7669	7645.75	6754.95
923.77	1910.3957	7618	6725.9
923.909	1912.0237	7576.35	6684.5
924.0479	1913.651	7572.5	6678.9
924.1868	1915.2776	7534.7	6643.75
924.3257	1916.9034	7513.85	6625.9
924.4646	1918.5285	7485.4	6594.4
924.6034	1920.1528	7437.1	6544.45
924.7422	1921.7764	7443.75	6551.35
924.881	1923.3992	7426.6	6534.1
925.0198	1925.0213	7370.65	6479.1
925.1586	1926.6427	7335.1	6443.95
925.2973	1928.2633	7415.3	6430.8
925.436	1929.8832	7339.75	6446.1
925.5747	1931.5023	7293.05	6403
925.7134	1933.1207	7283.25	6390
925.852	1934.7383	7234.35	6341.7
925.9906	1936.3552	7204.15	6315.4
926.1292	1937.9714	7202.6	6310.5
926.2678	1939.5868	7182.05	6289.65
926.4064	1941.2015	7147	6254.3
926.5449	1942.8154	7131.75	6239.15
926.6834	1944.4286	7096.3	6202.55
926.8219	1946.041	7090.8	6175.8
926.9604	1947.6528	7056.95	6160.95
927.0988	1949.2637	7019.8	6126.95
927.2372	1950.8739	6980.1	6090
927.3756	1952.4834	6974.35	6084.4
927.514	1954.0921	6967.05	6075.85
927.6523	1955.7001	6941.85	6048.5
927.7907	1957.3074	6922.85	6035.4
927.929	1958.9139	6881.2	5996.1
928.0673	1960.5197	6893.1	6004.35
928.2055	1962.1247	6847.75	5958.25
928.3438	1963.729	6827.7	5941
928.482	1965.3325	6792.9	5898.35
928.6202	1966.9353	6771.35	5884.9
928.7584	1968.5374	6748.25	5860.7
928.8965	1970.1387	6724.6	5838.15
929.0346	1971.7393	6720.7	5833.95
929.1727	1973.3392	6678.15	5790.1
929.3108	1974.9383	6652.55	5767.5
929.4489	1976.5366	6636.75	5754.8
929.5869	1978.1342	6639.95	5754.15
929.7249	1979.7311	6629.9	5743.4
929.8629	1981.3273	6599.25	5713.7
930.0009	1982.9227	6564.5	5677.65
930.1388	1984.5173	6533.1	5648.35
930.2767	1986.1112	6520.75	5636.9
930.4146	1987.7044	6528.9	5644.35
930.5525	1989.2968	6488	5599
930.6904	1990.8885	6484.55	5597.8
930.8282	1992.4795	6457.65	5572.3
930.966	1994.0697	6446	5562.45
931.1038	1995.6592	6418.4	5534.9
931.2415	1997.2479	6389.55	5503.45
931.3793	1998.8359	6378.6	5495.85
931.517	2000.4232	6370.35	5490.3
931.6547	2002.0097	6337.1	5455.85
931.7923	2003.5955	6310.95	5429.05
931.93	2005.1805	6306.85	5422.2
932.0676	2006.7648	6295.2	5412.8
932.2052	2008.3484	6260.35	5380.75
932.3427	2009.9312	6261.85	5378.35
932.4803	2011.5133	6232.05	5356.95
932.6178	2013.0946	6220.4	5342.15
932.7553	2014.6752	6198.35	5318.1
932.8928	2016.2551	6180.1	5297.6
933.0302	2017.8342	6152.75	5269.85
933.1676	2019.4126	6146.25	5266.25
933.305	2020.9902	6136.25	5256.05
933.4424	2022.5672	6108.65	5229.05
933.5798	2024.1433	6120.65	5237.95
933.7171	2025.7188	6085.75	5209.05
933.8544	2027.2935	6058.35	5178.5
933.9917	2028.8674	6054.4	5177.7
934.129	2030.4406	6033.65	5156.85
934.2662	2032.0131	6001.35	5125.3
934.4034	2033.5849	5989.25	5105.2
934.5406	2035.1559	5960.75	5083.3
934.6778	2036.7261	5952.1	5071.95
934.8149	2038.2957	5961.1	5078.75
934.952	2039.8645	5968.8	5084.75
935.0891	2041.4325	5943.9	5057.5
935.2262	2042.9998	5913.5	5034.55
935.3632	2044.5664	5889.4	5007.7
935.5002	2046.1323	5883.7	5002.95
935.6372	2047.6974	5864	4985.6
935.7742	2049.2617	5843.25	4963.8
935.9111	2050.8254	5870.5	4969.6
936.048	2052.3883	5833	4948.4
936.1849	2053.9504	5821.5	4936.9
936.3218	2055.5118	5802.5	4916.3
936.4586	2057.0725	5789.4	4903.6
936.5955	2058.6325	5758.95	4878.05
936.7323	2060.1917	5760.8	4880.8
936.869	2061.7502	5756.1	4874.1
937.0058	2063.3079	5731.5	4855.7
937.1425	2064.8649	5698.5	4817.5
937.2792	2066.4212	5684.2	4802.25
937.4159	2067.9767	5655.35	4774.15
937.5525	2069.5315	5649.55	4768.1
937.6891	2071.0856	5623.1	4743.2
937.8257	2072.6389	5609.35	4727.85
937.9623	2074.1915	5580	4701.4
938.0989	2075.7433	5557.3	4676.3
938.2354	2077.2945	5565.95	4685.5
938.3719	2078.8448	5531.85	4649.15
938.5084	2080.3945	5517	4633.75
938.6448	2081.9434	5510.05	4624.45
938.7812	2083.4916	5507.65	4623.15
938.9176	2085.039	5473.45	4584.95
939.054	2086.5857	5464.45	4573
939.1903	2088.1317	5454.9	4565.65
939.3267	2089.677	5450.6	4560.15
939.463	2091.2215	5437.45	4545.8
939.5992	2092.7652	5422	4529.35
939.7355	2094.3083	5406.85	4516.95
939.8717	2095.8506	5384.4	4500.35
940.0079	2097.3921	5392.3	4507.05
940.1441	2098.933	5376.25	4489.5
940.2802	2100.4731	5358.5	4474.25
940.4163	2102.0124	5373.6	4479.65
940.5524	2103.5511	5334.45	4448.25
940.6885	2105.089	5338.2	4451.9
940.8245	2106.6261	5332.2	4447.4
940.9606	2108.1626	5312.15	4427.1
941.0965	2109.6983	5330.05	4417
941.2325	2111.2332	5274.2	4388.7
941.3684	2112.7675	5271.55	4382.45
941.5044	2114.301	5240.85	4353.8
941.6403	2115.8337	5241.9	4354.9
941.7761	2117.3657	5221.1	4332.55
941.912	2118.897	5230.05	4342.8
942.0478	2120.4276	5215.25	4321.7
942.1835	2121.9575	5178.7	4290.3
942.3193	2123.4866	5211.05	4310.6
942.455	2125.0149	5168.45	4277.7
942.5907	2126.5426	5126.1	4242.45
942.7264	2128.0695	5128.3	4244.65
942.8621	2129.5956	5122.25	4245.05
942.9977	2131.1211	5100.15	4212.8
943.1333	2132.6458	5083.95	4199.35
943.2689	2134.1698	5096.25	4207.4
943.4044	2135.693	5092.4	4201.4
943.54	2137.2155	5065.05	4173.6
943.6755	2138.7373	5060.7	4173.4
943.8109	2140.2584	5037.85	4155.2
943.9464	2141.7787	5010.5	4126.65
944.0818	2143.2983	4990.45	4111.1
944.2172	2144.8171	4984.5	4107.6
944.3526	2146.3353	4974.15	4092.6
944.4879	2147.8527	4945.55	4063.4
944.6232	2149.3693	4968.55	4081.95
944.7585	2150.8853	4939.2	4053.1
944.8938	2152.4005	4927.6	4037.75
945.029	2153.9149	4931.7	4043.35
945.1642	2155.4287	4914.8	4027.1
945.2994	2156.9417	4897.95	4010.15
945.4346	2158.454	4870.65	3984.35
945.5697	2159.9655	4872.4	3989.35
945.7048	2161.4764	4864.05	3981.35
945.8399	2162.9865	4838.15	3955
945.9749	2164.4958	4830.75	3948.85
946.1099	2166.0045	4808.9	3922.4
946.2449	2167.5124	4797.2	3911.55
946.3799	2169.0195	4788.9	3905.25
946.5148	2170.526	4781.75	3893.65
946.6498	2172.0317	4784.1	3897.25
946.7846	2173.5367	4755.6	3871.25
946.9195	2175.0409	4770.2	3886.75
947.0543	2176.5445	4749.9	3864.9
947.1891	2178.0473	4731.45	3842.85
947.3239	2179.5494	4727.5	3835.45
947.4587	2181.0507	4700.1	3813.3
947.5934	2182.5513	4697.3	3813.05
947.7281	2184.0512	4687.7	3799.15
947.8628	2185.5504	4659.7	3775.2
947.9974	2187.0488	4638.15	3756.7
948.132	2188.5465	4624.7	3741.75
948.2666	2190.0435	4627.7	3743.05
948.4012	2191.5397	4605.6	3720.2
948.5357	2193.0353	4592.65	3703.7
948.6702	2194.5301	4589.6	3701.9
948.8047	2196.0241	4580.6	3690.55
948.9392	2197.5175	4565.15	3671.8
949.0736	2199.0101	4565.5	3673.15
949.208	2200.502	4518.75	3631.7
949.3424	2201.9931	4497.6	3612.5
949.4767	2203.4835	4495.35	3609.85
949.611	2204.9733	4483.15	3596.15
949.7453	2206.4622	4469.5	3588.05
949.8796	2207.9505	4466.75	3580.55
950.0138	2209.438	4452.05	3573.6
950.148	2210.9248	4442.85	3559.6
950.2822	2212.4109	4420.7	3537.65
950.4164	2213.8962	4417.2	3529
950.5505	2215.3809	4403.25	3509.7
950.6846	2216.8648	4395.3	3504.2
950.8186	2218.3479	4403.2	3506.8
950.9527	2219.8304	4377.05	3481.75
951.0867	2221.3121	4347.85	3451.35
951.2207	2222.7931	4326.7	3436.5
951.3546	2224.2733	4333.15	3446.35
951.4886	2225.7529	4315.95	3428.1
951.6225	2227.2317	4301.85	3413.85
951.7563	2228.7098	4309	3425.05
951.8902	2230.1872	4270.4	3387.7
952.024	2231.6638	4279.7	3397.2
952.1578	2233.1397	4263.3	3376.3
952.2916	2234.6149	4262.2	3380.95
952.4253	2236.0894	4241.9	3354.6
952.559	2237.5632	4253.9	3357.4
952.6927	2239.0362	4221.1	3337.35
952.8263	2240.5085	4200.8	3313.75
952.9599	2241.9801	4185.7	3299.6
953.0935	2243.4509	4180	3292.85
953.2271	2244.921	4164.4	3272.95
953.3606	2246.3904	4166.2	3273.8
953.4941	2247.8591	4140.05	3249.4
953.6276	2249.3271	4124.1	3235.6
953.7611	2250.7943	4118.65	3229.7
953.8945	2252.2608	4099.4	3210.35
954.0279	2253.7266	4091.1	3203.55
954.1612	2255.1917	4096.75	3209.55
954.2946	2256.656	4083.5	3196.2
954.4279	2258.1197	4068	3184.45
954.5612	2259.5826	4041.5	3154.75
954.6944	2261.0447	4052.7	3163.65
954.8276	2262.5062	4037.55	3148
954.9608	2263.9669	4037.95	3147.15
955.094	2265.4269	4038.45	3149.85
955.2271	2266.8862	4016.75	3130.15
955.3602	2268.3448	4000.6	3114.85
955.4933	2269.8026	4001.7	3116.6
955.6264	2271.2598	3982.8	3098.25
955.7594	2272.7162	3976.5	3091.95
955.8924	2274.1719	3965.7	3076.7
956.0253	2275.6268	3958.3	3067.1
956.1583	2277.0811	3948.15	3058
956.2912	2278.5346	3941.3	3055.4
956.4241	2279.9874	3939.55	3053.8
956.5569	2281.4395	3931	3047.2
956.6897	2282.8908	3912.3	3021.7
956.8225	2284.3414	3912.15	3024.1
956.9553	2285.7914	3884.4	2998.95
957.088	2287.2406	3877.75	2987.95
957.2207	2288.689	3875.55	2986.75
957.3534	2290.1368	3872.6	2978
957.486	2291.5838	3861.5	2967.6
957.6186	2293.0302	3860.7	2964.7
957.7512	2294.4758	3840.75	2947.6
957.8838	2295.9206	3817.7	2925.05
958.0163	2297.3648	3811.1	2924.3
958.1488	2298.8082	3824.3	2937.3
958.2813	2300.251	3804.75	2914.7
958.4137	2301.693	3799.55	2908.55
958.5461	2303.1343	3786.95	2897
958.6785	2304.5748	3783.15	2894.55
958.8108	2306.0147	3758.5	2871.4
958.9432	2307.4538	3770.85	2884.1
959.0754	2308.8922	3739.1	2856.4
959.2077	2310.3299	3735.9	2850.95
959.3399	2311.7669	3728.15	2843
959.4721	2313.2031	3719.5	2833.85
959.6043	2314.6387	3700.5	2814.8
959.7365	2316.0735	3695.1	2807.05
959.8686	2317.5076	3676.15	2788.25
960.0006	2318.941	3684.55	2794.05
960.1327	2320.3737	3681.3	2789.45
960.2647	2321.8056	3684.35	2791.7
960.3967	2323.2369	3654.35	2765.95
960.5287	2324.6674	3637.55	2747.7
960.6606	2326.0972	3652.65	2761.65
960.7925	2327.5263	3626.25	2739.5
960.9244	2328.9547	3615.55	2725
961.0562	2330.3823	3604.4	2714.85
961.1881	2331.8092	3612.85	2717.4
961.3198	2333.2355	3601.8	2709.85
961.4516	2334.661	3599.6	2706.45
961.5833	2336.0858	3578.25	2687.55
961.715	2337.5098	3573.6	2685.4
961.8467	2338.9332	3561.25	2672
961.9783	2340.3558	3558.95	2668.85
962.1099	2341.7778	3550.9	2664.1
962.2415	2343.199	3541.65	2652.9
962.373	2344.6195	3524.3	2637.4
962.5045	2346.0393	3524.55	2637.2
962.636	2347.4583	3523.25	2633.45
962.7675	2348.8767	3510.95	2623.15
962.8989	2350.2943	3509.9	2619.95
963.0303	2351.7113	3502.45	2609.85
963.1617	2353.1275	3512.55	2621.5
963.293	2354.543	3492.45	2592.75
963.4243	2355.9578	3475.25	2586.95
963.5556	2357.3718	3457.9	2572.2
963.6868	2358.7852	3459.35	2571.6
963.818	2360.1978	3438.95	2552.85
963.9492	2361.6098	3432.05	2545.05
964.0803	2363.021	3431.35	2540.6
964.2114	2364.4315	3417.9	2533.4
964.3425	2365.8413	3404.85	2518.75
964.4736	2367.2504	3398.45	2515.7
964.6046	2368.6587	3384.4	2499.9
964.7356	2370.0664	3376.55	2491.05
964.8666	2371.4733	3362	2476.85
964.9975	2372.8795	3351.5	2465.55
965.1284	2374.285	3350.75	2464.5
965.2593	2375.6899	3353.55	2467.35
965.3901	2377.0939	3329.55	2445.8
965.5209	2378.4973	3321.95	2437.8
965.6517	2379.9	3307.1	2421.35
965.7825	2381.3019	3299.55	2416.35
965.9132	2382.7032	3290.25	2407.55
966.0439	2384.1037	3286.25	2405.35
966.1745	2385.5035	3278.5	2396.85
966.3051	2386.9027	3270.95	2392.25
966.4357	2388.3011	3266.2	2383.3
966.5663	2389.6987	3248.85	2366.8
966.6968	2391.0957	3235	2351.95
966.8273	2392.492	3220.6	2339.75
966.9578	2393.8876	3212.3	2331.75
967.0882	2395.2824	3206.15	2326.85
967.2186	2396.6765	3205.05	2321.25
967.349	2398.07	3201.15	2317.35
967.4793	2399.4627	3184.45	2300.3
967.6097	2400.8547	3171.8	2287.9
967.7399	2402.246	3174.65	2286.25
967.8702	2403.6366	3157.5	2275.35
968.0004	2405.0265	3150.75	2267.8
968.1306	2406.4156	3154.9	2269.05
968.2607	2407.8041	3136.65	2252.45
968.3909	2409.1918	3125.15	2240.45
968.521	2410.5789	3114.55	2231.85
968.651	2411.9652	3105	2219.25
968.781	2413.3508	3099.4	2215.6
968.911	2414.7358	3089.65	2205.75
969.041	2416.12	3083.5	2201.05
969.1709	2417.5035	3074.7	2192.65
969.3008	2418.8863	3054.85	2168.9
969.4307	2420.2684	3062.15	2179.1
969.5606	2421.6497	3047.25	2162.6
969.6904	2423.0304	3038.85	2156.25
969.8201	2424.4104	3033.6	2147.85
969.9499	2425.7896	3042.2	2157.15
970.0796	2427.1682	3021.9	2138.65
970.2093	2428.546	3005.95	2122.1
970.3389	2429.9232	3004.75	2119.4
970.4685	2431.2996	3000.2	2116.9
970.5981	2432.6753	3007.55	2120.45
970.7277	2434.0503	3001.25	2118.6
970.8572	2435.4246	2983.8	2100.05
970.9867	2436.7982	2969.55	2081.6
971.1161	2438.1711	2966.4	2082.25
971.2456	2439.5433	2963.4	2076.35
971.375	2440.9148	2949.6	2057.45
971.5043	2442.2856	2941.05	2057.95
971.6336	2443.6557	2930.45	2042.7
971.7629	2445.025	2921.5	2035.55
971.8922	2446.3937	2923.35	2040.25
972.0214	2447.7617	2914.35	2030.5
972.1506	2449.1289	2904.65	2022.3
972.2798	2450.4955	2909.15	2021.55
972.4089	2451.8613	2900.9	2018.2
972.538	2453.2265	2896.8	2012.65
972.6671	2454.5909	2889.1	2004.6
972.7961	2455.9546	2885.05	2001.8
972.9251	2457.3177	2873.6	1990.65
973.0541	2458.68	2866.6	1981.8
973.1831	2460.0416	2871.2	1987.85
973.312	2461.4025	2867.3	1978.8
973.4408	2462.7627	2870.1	1973.65
973.5697	2464.1222	2850.8	1968.85
973.6985	2465.4811	2842.95	1956.35
973.8273	2466.8392	2837.05	1953.6
973.956	2468.1966	2838.9	1948.4
974.0847	2469.5533	2833.35	1947.85
974.2134	2470.9093	2827.3	1942.45
974.3421	2472.2645	2823.6	1937.05
974.4707	2473.6191	2816.75	1932.8
974.5993	2474.973	2803.1	1918.85
974.7278	2476.3262	2793.7	1910.05
974.8563	2477.6787	2792.5	1909.5
974.9848	2479.0305	2775	1890.05
975.1132	2480.3816	2769.45	1883.4
975.2417	2481.7319	2767.1	1885.45
975.37	2483.0816	2757.9	1872.9
975.4984	2484.4306	2746.3	1859.95
975.6267	2485.7789	2748.2	1866.55
975.755	2487.1264	2731.45	1845.95
975.8833	2488.4733	2722.15	1840.9
976.0115	2489.8195	2734.1	1841.8
976.1397	2491.165	2730.45	1843.2
976.2678	2492.5097	2706.8	1820.35
976.3959	2493.8538	2700.1	1816.55
976.524	2495.1972	2672.45	1786.1
976.6521	2496.5398	2665.8	1780.7
976.7801	2497.8818	2674.4	1786.85
976.9081	2499.2231	2665.1	1780.25
977.036	2500.5637	2670.3	1780.1
977.164	2501.9035	2656.5	1767.25
977.2918	2503.2427	2667.15	1779
977.4197	2504.5812	2649.15	1763.5
977.5475	2505.919	2648.4	1761.1
977.6753	2507.256	2642.95	1757.35
977.8031	2508.5924	2627.9	1743.8
977.9308	2509.9281	2623.75	1734.05
978.0585	2511.2631	2621.5	1735.6
978.1861	2512.5974	2600.8	1717.75
978.3137	2513.9309	2603.8	1720.25
978.4413	2515.2638	2620.8	1708.55
978.5689	2516.596	2597.1	1713.8
978.6964	2517.9275	2585.45	1700.55
978.8239	2519.2583	2579.3	1692.4
978.9513	2520.5884	2583.9	1696.25
979.0788	2521.9178	2578.4	1691.15
979.2062	2523.2465	2561.9	1678.35
979.3335	2524.5745	2565.85	1679.95
979.4608	2525.9018	2556.4	1669.15
979.5881	2527.2284	2543.25	1660.25
979.7154	2528.5543	2556.35	1671.65
979.8426	2529.8796	2542.4	1657.8
979.9698	2531.2041	2533.75	1650.15
980.0969	2532.5279	2529.15	1647.9
980.224	2533.851	2535.3	1649.75
980.3511	2535.1735	2518.85	1634
980.4781	2536.4952	2519.9	1634.95
980.6052	2537.8163	2506.05	1619.85
980.7321	2539.1366	2513.25	1628.85
980.8591	2540.4562	2507.55	1620.15
980.986	2541.7752	2503.9	1617.9
981.1129	2543.0935	2496.45	1609.45
981.2397	2544.411	2504.05	1618.4
981.3665	2545.7279	2485.7	1599.45
981.4933	2547.0441	2490.65	1605.25
981.62	2548.3596	2486.05	1596.15
981.7467	2549.6744	2476.4	1590.7
981.8734	2550.9885	2479.75	1585.1
982.0001	2552.3019	2462.8	1577.25
982.1267	2553.6146	2457.7	1572.5
982.2532	2554.9266	2461.2	1576.05
982.3798	2556.2379	2453	1564.95
982.5063	2557.5485	2450.45	1566.55
982.6327	2558.8585	2437.1	1544.75
982.7592	2560.1677	2442.7	1552
982.8856	2561.4762	2430.2	1545.05
983.0119	2562.7841	2440.85	1551.75
983.1383	2564.0913	2422.25	1537.7
983.2646	2565.3977	2422.05	1535.55
983.3908	2566.7035	2415.85	1528.6
983.517	2568.0086	2418.85	1530.4
983.6432	2569.313	2415.2	1528.1
983.7694	2570.6167	2412.85	1522.7
983.8955	2571.9197	2410.4	1523.4
984.0216	2573.222	2405.65	1517.6
984.1476	2574.5236	2397.75	1510
984.2737	2575.8246	2396.75	1508.15
984.3996	2577.1248	2401.75	1511.4
984.5256	2578.4244	2389.5	1506.15
984.6515	2579.7232	2388.1	1502
984.7774	2581.0214	2410.85	1495.35
984.9032	2582.3189	2379.1	1492.9
985.029	2583.6157	2389.9	1499.45
985.1548	2584.9118	2381.6	1494.4
985.2806	2586.2072	2388.65	1503.7
985.4063	2587.5019	2376.2	1491.9
985.5319	2588.7959	2365.7	1480.75
985.6576	2590.0893	2362.25	1474.6
985.7832	2591.3819	2366.65	1480.75
985.9087	2592.6739	2360	1472.7
986.0343	2593.9652	2357.1	1468.45
986.1597	2595.2557	2362	1475.65
986.2852	2596.5456	2360.6	1474.05
986.4106	2597.8348	2347.05	1462
986.536	2599.1234	2353.9	1469.35
986.6614	2600.4112	2343.7	1458.05
986.7867	2601.6983	2345.9	1458.4
986.912	2602.9848	2345.4	1459.55
987.0372	2604.2705	2335.4	1441.15
987.1624	2605.5556	2335	1449.5
987.2876	2606.84	2313	1428.3
987.4128	2608.1237	2315.15	1428.95
987.5379	2609.4067	2317.65	1431.55
987.6629	2610.689	2312.05	1417.65
987.788	2611.9707	2298.25	1407.6
987.913	2613.2516	2299.35	1409.65
988.0379	2614.5319	2289.95	1405.05
988.1629	2615.8115	2279.35	1393.25
988.2878	2617.0903	2270.7	1383
988.4126	2618.3685	2278.25	1394.1
988.5375	2619.6461	2262.65	1379.2
988.6622	2620.9229	2265.5	1379.25
988.787	2622.199	2263.4	1377.3
988.9117	2623.4745	2268.8	1381.6
989.0364	2624.7493	2249.05	1365.1
989.161	2626.0234	2248.7	1364.15
989.2857	2627.2968	2240.6	1355.1
989.4102	2628.5695	2245.6	1361.35
989.5348	2629.8415	2243.65	1358.4
989.6593	2631.1128	2239.85	1352.8
989.7837	2632.3835	2232.05	1348.05
989.9082	2633.6535	2212.95	1328.75
990.0326	2634.9228	2212.2	1328.95
990.1569	2636.1914	2219.1	1332.1
990.2812	2637.4593	2204.55	1319.45
990.4055	2638.7265	2201.2	1314.7
990.5298	2639.9931	2198.45	1312.55
990.654	2641.259	2189.55	1302.1
990.7782	2642.5242	2194.95	1307.6
990.9023	2643.7887	2187.05	1301.6
991.0264	2645.0525	2178.15	1293.15
991.1505	2646.3156	2184.65	1296.45
991.2745	2647.5781	2174.25	1291.2
991.3985	2648.8398	2164.35	1280.5
991.5225	2650.1009	2173.1	1279.2
991.6464	2651.3613	2160.7	1277.25
991.7703	2652.6211	2152.9	1267.45
991.8942	2653.8801	2150.7	1266.35
992.018	2655.1385	2167	1280.7
992.1418	2656.3961	2154.9	1269
992.2655	2657.6531	2145.8	1262.35
992.3892	2658.9094	2144.1	1257.95
992.5129	2660.1651	2146.85	1262.8
992.6366	2661.42	2138.7	1253.5
992.7602	2662.6743	2143.4	1258.35
992.8837	2663.9279	2138	1254.9
993.0073	2665.1808	2139.9	1254.75
993.1307	2666.433	2131	1243.55
993.2542	2667.6846	2130.45	1247.65
993.3776	2668.9354	2132.35	1243.75
993.501	2670.1856	2132.05	1247.7
993.6244	2671.4351	2132.85	1246.5
993.7477	2672.6839	2135.05	1248.75
993.8709	2673.9321	2123.7	1238.75
993.9942	2675.1795	2132.15	1247
994.1174	2676.4263	2132	1249.4
994.2405	2677.6724	2121.85	1236.8
994.3637	2678.9179	2120.15	1235.7
994.4868	2680.1626	2121.85	1236.6
994.6098	2681.4067	2115.85	1229
994.7328	2682.6501	2117.2	1232.65
994.8558	2683.8928	2105.4	1221.75
994.9788	2685.1348	2099.8	1217.1
995.1017	2686.3761	2103.45	1220.2
995.2245	2687.6168	2092.1	1209
995.3474	2688.8568	2089.45	1205.2
995.4702	2690.0961	2083.25	1199.05
995.5929	2691.3348	2072.35	1191.2
995.7156	2692.5727	2065.15	1180.35
995.8383	2693.81	2064.9	1180.6
995.961	2695.0466	2059.25	1177.5
996.0836	2696.2826	2066.65	1180.35
996.2062	2697.5178	2076.75	1171.1
996.3287	2698.7524	2062.45	1175.2
996.4512	2699.9863	2068.55	1180.2
996.5737	2701.2195	2055	1172.25
996.6961	2702.452	2058.4	1173.1
996.8185	2703.6839	2058.2	1173.8
996.9408	2704.9151	2060.5	1177.65
997.0631	2706.1456	2064.35	1181
997.1854	2707.3755	2061.05	1176.55
997.3077	2708.6046	2069.5	1183.75
997.4299	2709.8331	2073.75	1189.05
997.552	2711.0609	2079.45	1196.7
997.6742	2712.2881	2077.7	1194.25
997.7963	2713.5145	2080.6	1195.05
997.9183	2714.7403	2086.8	1203.6
998.0403	2715.9654	2093.75	1206.35
998.1623	2717.1899	2118.45	1217.85
998.2842	2718.4136	2110.2	1226.15
998.4062	2719.6367	2122.9	1239.3
998.528	2720.8591	2144.25	1253.6
998.6498	2722.0809	2141.1	1256.95
998.7716	2723.3019	2147.2	1260.45
998.8934	2724.5223	2148.65	1262.2
999.0151	2725.7421	2158.9	1274.1
999.1368	2726.9611	2157.45	1272.4
999.2584	2728.1795	2154.7	1266
999.38	2729.3972	2124.15	1242.05
999.5016	2730.6142	2141	1243.25
999.6231	2731.8306	2103.45	1219
999.7446	2733.0462	2097.4	1212.15
999.8661	2734.2612	2076.45	1187.6
999.9875	2735.4756	2048.55	1163.45
1000.1089	2736.6892	2037.05	1154.45
1000.2302	2737.9022	2018.75	1134.5
1000.3515	2739.1145	2002.2	1120.6
1000.4728	2740.3262	1989.55	1098.6
1000.594	2741.5372	1978.25	1092.9
1000.7152	2742.7475	1959.35	1074.75
1000.8363	2743.9571	1955.4	1067.85
1000.9575	2745.1661	1940.1	1053.65
1001.0785	2746.3744	1927.2	1042.2
1001.1996	2747.582	1921.05	1036.6
1001.3206	2748.7889	1916.4	1031.75
1001.4415	2749.9952	1899.15	1015.5
1001.5625	2751.2008	1894.3	1014.15
1001.6833	2752.4057	1897.75	1011.35
1001.8042	2753.61	1883.65	999.6
1001.925	2754.8136	1876.2	990.55
1002.0458	2756.0165	1873.3	990.25
1002.1665	2757.2188	1868.2	985.35
1002.2872	2758.4204	1876.1	994
1002.4078	2759.6213	1867.8	983.7
1002.5285	2760.8215	1869.5	982.2
1002.649	2762.0211	1862.5	978.35
1002.7696	2763.22	1853.95	967.55
1002.8901	2764.4182	1863.8	980.2
1003.0106	2765.6158	1852.3	970.35
1003.131	2766.8127	1843.55	959.7
1003.2514	2768.009	1842.4	960.5
1003.3717	2769.2045	1838.35	951.55
1003.492	2770.3994	1828.65	944.45
1003.6123	2771.5936	1827.1	942.8
1003.7325	2772.7872	1824.25	942.75
1003.8527	2773.9801	1818.7	932.3
1003.9729	2775.1723	1829.55	929.65
1004.093	2776.3639	1810.05	929.9
1004.2131	2777.5548	1811	928.25
1004.3331	2778.745	1803.6	919.2
1004.4531	2779.9346	1802.15	920.7
1004.5731	2781.1235	1814.45	931.8
1004.693	2782.3117	1809.95	927.85
1004.8129	2783.4992	1803.65	923.2
1004.9328	2784.6861	1807.35	924.4
1005.0526	2785.8723	1814.9	931.7
1005.1723	2787.0579	1828.25	946.05
1005.2921	2788.2428	1823.45	942.2
1005.4118	2789.427	1829.55	947.55
1005.5314	2790.6106	1834.75	952.7
1005.651	2791.7935	1841.9	957.6
1005.7706	2792.9757	1842.7	960.65
1005.8902	2794.1573	1868.7	986.05
1006.0097	2795.3382	1878.45	996.6
1006.1291	2796.5184	1881.75	1001.9
1006.2485	2797.698	1899.2	1014.8
1006.3679	2798.8769	1913.35	1030.95
1006.4873	2800.0551	1922.15	1039.4
1006.6066	2801.2327	1927.85	1043.35
1006.7258	2802.4096	1950.3	1070
1006.8451	2803.5859	1966.15	1083.8
1006.9642	2804.7615	1989.55	1108.35
1007.0834	2805.9364	2001.15	1121
1007.2025	2807.1106	2021.5	1140.15
1007.3216	2808.2842	2060.9	1176.9
1007.4406	2809.4572	2085.15	1203.7
1007.5596	2810.6294	2117.9	1235.65
1007.6785	2811.801	2151.6	1271.05
1007.7975	2812.972	2197.25	1317.7
1007.9163	2814.1423	2233.05	1350.05
1008.0352	2815.3119	2272.4	1393.5
1008.154	2816.4808	2327.3	1445
1008.2727	2817.6491	2370.6	1488.9
1008.3914	2818.8167	2413.85	1532.75
1008.5101	2819.9837	2468.05	1581.25
1008.6288	2821.15	2514.25	1631.8
1008.7474	2822.3157	2561.5	1678.5
1008.8659	2823.4807	2604.65	1721.1
1008.9844	2824.645	2656.9	1776.25
1009.1029	2825.8086	2690.75	1809.9
1009.2214	2826.9716	2742.2	1861.75
1009.3398	2828.134	2787.15	1905.9
1009.4581	2829.2957	2827.05	1945.1
1009.5764	2830.4567	2861	1980.75
1009.6947	2831.617	2858.95	1975.3
1009.813	2832.7767	2873.6	1993.4
1009.9312	2833.9358	2881.45	2000.5
1010.0493	2835.0941	2877.6	1992.85
1010.1675	2836.2519	2860.65	1980.9
1010.2855	2837.4089	2853.35	1971.15
1010.4036	2838.5653	2842.95	1962.15
1010.5216	2839.7211	2838.8	1958.7
1010.6396	2840.8761	2840.4	1956.95
1010.7575	2842.0306	2856.9	1977.05
1010.8754	2843.1843	2900.25	2020.5
1010.9932	2844.3374	2928.55	2048.1
1011.111	2845.4899	2998.4	2116
1011.2288	2846.6417	3061	2180.95
1011.3465	2847.7928	3139.25	2259.7
1011.4642	2848.9433	3202.1	2319.65
1011.5818	2850.0931	3274.2	2392.9
1011.6995	2851.2422	3357.4	2475.9
1011.817	2852.3907	3421.2	2539.5
1011.9345	2853.5385	3477.45	2594.15
1012.052	2854.6857	3560.2	2653.15
1012.1695	2855.8323	3603.8	2724.5
1012.2869	2856.9781	3635.2	2754.4
1012.4042	2858.1233	3687.85	2806.85
1012.5216	2859.2679	3724.9	2844.45
1012.6389	2860.4118	3769.2	2888
1012.7561	2861.555	3811.7	2925.85
1012.8733	2862.6976	3848.85	2967.2
1012.9905	2863.8395	3886.35	3006.15
1013.1076	2864.9808	3890.35	3009.05
1013.2247	2866.1214	3921.8	3041.8
1013.3417	2867.2614	3928.4	3046.1
1013.4587	2868.4007	3944.3	3060.05
1013.5757	2869.5393	3950.15	3067.3
1013.6926	2870.6773	3959.65	3073.75
1013.8095	2871.8146	3987.15	3102.85
1013.9263	2872.9513	3974.05	3090.95
1014.0431	2874.0874	3973.3	3090.85
1014.1599	2875.2227	3973.45	3092
1014.2766	2876.3574	3950.55	3071.35
1014.3933	2877.4915	3914.95	3034
1014.51	2878.6249	3904.8	3022.5
1014.6266	2879.7577	3876	2992.7
1014.7431	2880.8898	3848.5	2958.4
1014.8596	2882.0212	3825.35	2947.35
1014.9761	2883.152	3800.85	2918.5
1015.0925	2884.2821	3799.9	2919.45
1015.2089	2885.4116	3798.8	2919.3
1015.3253	2886.5405	3789.7	2909.05
1015.4416	2887.6686	3797.25	2913.65
1015.5579	2888.7962	3800.25	2921.6
1015.6741	2889.923	3795.55	2914.3
1015.7903	2891.0493	3806.05	2927.8
1015.9065	2892.1748	3814.45	2933.1
1016.0226	2893.2997	3838.65	2958.55
1016.1387	2894.424	3856.4	2977
1016.2547	2895.5476	3873.8	2992.75
1016.3707	2896.6706	3885.5	3005.25
1016.4866	2897.7929	3909.6	3029.5
1016.6025	2898.9145	3941.45	3061.45
1016.7184	2900.0355	3971.5	3089.5
1016.8342	2901.1559	4013.65	3132.7
1016.95	2902.2756	4041.85	3162.1
1017.0658	2903.3946	4069.25	3190.25
1017.1815	2904.513	4075.8	3191.55
1017.2971	2905.6308	4113.65	3233.8
1017.4127	2906.7479	4125.9	3244.45
1017.5283	2907.8643	4162.3	3281.75
1017.6439	2908.9801	4180.85	3301.35
1017.7594	2910.0953	4189.7	3310.85
1017.8748	2911.2098	4182.5	3298.8
1017.9902	2912.3236	4188.05	3301.7
1018.1056	2913.4368	4161.9	3278.8
1018.2209	2914.5494	4137.1	3257.85
1018.3362	2915.6613	4103.55	3217.05
1018.4515	2916.7725	4084.55	3201.1
1018.5667	2917.8831	4053	3170.8
1018.6819	2918.9931	4028.3	3146.6
1018.797	2920.1024	3989	3109.4
1018.9121	2921.211	3971.45	3093.4
1019.0271	2922.319	3961.05	3078.4
1019.1421	2923.4264	3924.25	3046.5
1019.2571	2924.5331	3910.8	3031.85
1019.372	2925.6391	3894.1	3013.25
1019.4869	2926.7445	3882.6	3004.1
1019.6017	2927.8493	3881.1	2999.6
1019.7165	2928.9534	3887	3007.7
1019.8313	2930.0569	3879.45	2997.55
1019.946	2931.1597	3871.2	2990.6
1020.0606	2932.2619	3859.2	2980.55
1020.1753	2933.3634	3853.3	2972.45
1020.2899	2934.4643	3859	2971.05
1020.4044	2935.5645	3830.5	2944.6
1020.5189	2936.6641	3805.9	2922.05
1020.6334	2937.763	3754.4	2875.4
1020.7478	2938.8613	3710.05	2830.4
1020.8622	2939.959	3646.05	2761
1020.9765	2941.056	3572.75	2693.7
1021.0908	2942.1523	3491.05	2609.75
1021.2051	2943.248	3410.4	2530.4
1021.3193	2944.3431	3308.55	2431
1021.4334	2945.4375	3206.2	2325.75
1021.5476	2946.5313	3110.2	2231.15
1021.6617	2947.6244	3010.45	2131
1021.7757	2948.7169	2914.95	2033.3
1021.8897	2949.8087	2812.45	1931.85
1022.0037	2950.8999	2724.5	1844.35
1022.1176	2951.9904	2641.5	1763.6
1022.2315	2953.0803	2571.5	1691.45
1022.3453	2954.1696	2506.85	1628.2
1022.4591	2955.2582	2448.6	1570.4
1022.5728	2956.3462	2406.1	1527.6
1022.6865	2957.4335	2366.15	1486.4
1022.8002	2958.5202	2337.55	1457.1
1022.9138	2959.6062	2299.4	1420.1
1023.0274	2960.6916	2279.6	1400.95
1023.141	2961.7764	2258	1378.05
1023.2545	2962.8605	2236.2	1357.5
1023.3679	2963.9439	2225.1	1344.8
1023.4813	2965.0267	2218.8	1338.65
1023.5947	2966.1089	2217	1317.8
1023.708	2967.1905	2195.35	1318.85
1023.8213	2968.2714	2196.05	1316.6
1023.9346	2969.3516	2187.8	1308.1
1024.0478	2970.4312	2213.15	1326.65
1024.1609	2971.5102	2184.25	1305.3
1024.274	2972.5885	2186.75	1309.4
1024.3871	2973.6662	2193.8	1309.4
1024.5002	2974.7432	2186	1308.05
1024.6132	2975.8196	2185.55	1305.65
1024.7261	2976.8954	2171.45	1293.85
1024.839	2977.9705	2166.45	1288.7
1024.9519	2979.045	2146.3	1267.75
1025.0647	2980.1188	2127.8	1249.05
1025.1775	2981.192	2107.15	1229.4
1025.2902	2982.2645	2084.7	1205.4
1025.4029	2983.3364	2058.95	1179.05
1025.5156	2984.4077	2028.95	1152.95
1025.6282	2985.4783	2012.8	1128.55
1025.7407	2986.5483	1959.35	1081.3
1025.8532	2987.6177	1933.1	1058.4
1025.9657	2988.6864	1912.25	1032.35
1026.0782	2989.7545	1868.55	989.65
1026.1906	2990.8219	1827.3	949.15
1026.3029	2991.8887	1800.2	921.2
1026.4152	2992.9548	1761.7	881.45
1026.5275	2994.0204	1735.3	857.9
1026.6397	2995.0852	1698.4	824.1
1026.7519	2996.1495	1675.35	795.1
1026.864	2997.2131	1657.9	780.8
1026.9761	2998.276	1637.6	759.8
1027.0882	2999.3383	1618.85	738.55
1027.2002	3000.4	1588.75	708.85
1027.3122	3001.4611	1569.95	692.6
1027.4241	3002.5215	1565	686.8
1027.536	3003.5812	1543.9	664.85
1027.6478	3004.6404	1532.25	653.7
1027.7596	3005.6989	1517.3	636.3
1027.8714	3006.7567	1515.3	636.75
1027.9831	3007.8139	1532	621.35
1028.0947	3008.8705	1495.35	619.15
1028.2064	3009.9264	1501	619.15
1028.3179	3010.9818	1486.15	608.95
1028.4295	3012.0364	1478.5	600.1
1028.541	3013.0905	1472.75	593.75
1028.6524	3014.1439	1468.35	590.15
1028.7638	3015.1966	1470.45	589.6
1028.8752	3016.2487	1457.9	579.15
1028.9865	3017.3002	1468	585.75
1029.0978	3018.3511	1453.85	577.35
1029.209	3019.4013	1460.45	584.15
1029.3202	3020.4509	1456.4	580.75
1029.4314	3021.4998	1458.55	578.85
1029.5425	3022.5481	1456	577.15
1029.6535	3023.5958	1461.25	583.5
1029.7645	3024.6428	1462.2	583.8
1029.8755	3025.6892	1459.45	581.8
1029.9864	3026.735	1458.65	581.75
1030.0973	3027.7802	1460.15	581.4
1030.2082	3028.8247	1458.95	582.05
1030.319	3029.8685	1459.6	582
1030.4297	3030.9118	1468.45	588.45
1030.5404	3031.9544	1471.5	594.9
1030.6511	3032.9963	1466.65	586.75
1030.7617	3034.0376	1476.3	598.25
1030.8723	3035.0783	1479.05	599.95
1030.9829	3036.1184	1484.2	606.9
1031.0934	3037.1578	1476.05	600.1
1031.2038	3038.1966	1486	606.8
1031.3142	3039.2348	1483.35	606.65
1031.4246	3040.2723	1489.6	604.9
1031.5349	3041.3092	1481	604
1031.6452	3042.3455	1478	598.1
1031.7554	3043.3811	1478.2	600.5
1031.8656	3044.4161	1471.15	590.8
1031.9758	3045.4505	1463.55	586.4
1032.0859	3046.4842	1457.85	580.8
1032.1959	3047.5173	1450.8	573.95
1032.3059	3048.5498	1449.7	570.55
1032.4159	3049.5816	1442.3	563.85
1032.5258	3050.6128	1431.45	553.2
1032.6357	3051.6434	1432.6	555.7
1032.7455	3052.6734	1428.8	549.55
1032.8553	3053.7027	1417.95	540.6
1032.9651	3054.7314	1409.65	531.65
1033.0748	3055.7594	1407.85	531.9
1033.1845	3056.7868	1399.55	521
1033.2941	3057.8136	1395.45	517.9
1033.4037	3058.8398	1390.05	514
1033.5132	3059.8653	1385.3	508.65
1033.6227	3060.8902	1373.6	496.3
1033.7321	3061.9145	1376.1	498.2
1033.8415	3062.9381	1369.85	493.7
1033.9509	3063.9612	1383.3	492.65
1034.0602	3064.9835	1361.65	485.5
1034.1694	3066.0053	1348.8	470.4
1034.2787	3067.0264	1344.95	468.95
1034.3878	3068.0469	1342.1	464.25
1034.497	3069.0668	1335.8	454.7
1034.6061	3070.086	1319.95	444.25
1034.7151	3071.1046	1312.4	434.55
1034.8241	3072.1226	1309.6	430.3
1034.9331	3073.1399	1301.45	424
1035.042	3074.1567	1290.85	414.9
1035.1508	3075.1727	1285.3	407.85
1035.2597	3076.1882	1264.75	389.85
1035.3684	3077.203	1260.35	384.5
1035.4772	3078.2173	1255.15	379.2
1035.5859	3079.2308	1252.2	372.5
1035.6945	3080.2438	1239.75	358.15
1035.8031	3081.2561	1230.5	354.95
1035.9117	3082.2678	1217.05	340.55
1036.0202	3083.2789	1218.5	342.2
1036.1286	3084.2893	1207.5	330.3
1036.2371	3085.2991	1210.5	333.45
1036.3454	3086.3083	1202.05	320.65
1036.4538	3087.3169	1194.2	313.85
1036.562	3088.3248	1184.8	305.85
1036.6703	3089.3321	1182.65	303.2
1036.7785	3090.3388	1184.3	307.95
1036.8866	3091.3449	1176.4	300.1
1036.9948	3092.3503	1170.65	289.95
1037.1028	3093.3551	1173.45	298.9
1037.2108	3094.3593	1161.4	284.35
1037.3188	3095.3629	1157.7	282.45
1037.4267	3096.3658	1153.7	275.65
1037.5346	3097.3681	1152.65	274.55
1037.6425	3098.3698	1154.7	275.35
1037.7503	3099.3708	1152.35	269.85
1037.858	3100.3713	1143.7	267.35
1037.9657	3101.3711	1145.1	268.95
1038.0734	3102.3702	1277.3	258.75
1038.181	3103.3688	1137.7	259.6
1038.2886	3104.3667	1127.95	250.95
1038.3961	3105.364	1127.5	250
1038.5036	3106.3607	1131.3	254.85
1038.611	3107.3568	1122.7	243.1
1038.7184	3108.3522	1119.75	244.45
1038.8257	3109.347	1124.65	246.9
1038.933	3110.3412	1124.95	246.9
1039.0403	3111.3348	1115.75	239.45
1039.1475	3112.3277	1116.3	240.7
1039.2547	3113.32	1111.05	235.55
1039.3618	3114.3117	1112.65	234.1
1039.4689	3115.3028	1111.85	236.8
1039.5759	3116.2932	1113.9	235.05
1039.6829	3117.2831	1105.55	224.55
1039.7898	3118.2723	1098.4	220.9
1039.8967	3119.2608	1102.2	225.5
1040.0035	3120.2488	1101.25	221.9
1040.1103	3121.2361	1096.35	220.6
1040.2171	3122.2229	1095.5	221
1040.3238	3123.209	1094.9	217.3
1040.4305	3124.1944	1095	221.85
1040.5371	3125.1793	1088.85	211
1040.6437	3126.1635	1092.2	216
1040.7502	3127.1471	1086.2	210.75
1040.8567	3128.1301	1082.3	206.45
1040.9631	3129.1125	1084.25	206.95
1041.0695	3130.0942	1084.6	207.6
1041.1759	3131.0753	1089.25	206.6
1041.2822	3132.0558	1088.7	211
1041.3884	3133.0357	1077.65	200.45
1041.4946	3134.015	1079.35	202.55
1041.6008	3134.9936	1077.15	198.85
1041.7069	3135.9716	1100.35	203.8
1041.813	3136.949	1073.85	199.85
1041.919	3137.9258	1087.5	192.45
1042.025	3138.902	1074.7	194.85
1042.1309	3139.8775	1068.25	192.2
1042.2368	3140.8524	1068.75	192.6
1042.3427	3141.8267	1063.35	186.25
1042.4485	3142.8004	1064.05	186
1042.5542	3143.7735	1071.35	190.1
1042.6599	3144.7459	1064.3	186.2
1042.7656	3145.7178	1066.1	187.55
1042.8712	3146.689	1060.9	186.65
1042.9768	3147.6596	1060.05	182.7
1043.0823	3148.6295	1055.4	177.75
1043.1878	3149.5989	1049.5	173
1043.2932	3150.5676	1053.05	178.4
1043.3986	3151.5357	1050.4	176.35
1043.5039	3152.5032	1051.8	177.05
1043.6092	3153.4701	1049.1	172.15
1043.7145	3154.4364	1054.35	175.45
1043.8197	3155.402	1051.8	174.6
1043.9248	3156.367	1054	177.05
1044.03	3157.3315	1074.45	171.55
1044.135	3158.2952	1043.35	165.95
1044.24	3159.2584	1043.55	166.85
1044.345	3160.221	1038.35	161.25
1044.4499	3161.1829	1042.15	167.55
1044.5548	3162.1442	1039.6	165.05
1044.6596	3163.105	1039.3	165.5
1044.7644	3164.065	1032.15	157.3
1044.8692	3165.0245	1036.85	159.5
1044.9739	3165.9834	1029.45	154.95
1045.0785	3166.9416	1031.4	157.85
1045.1831	3167.8993	1031.1	155.15
1045.2877	3168.8563	1029.55	152.5
1045.3922	3169.8127	1032.9	156.9
1045.4966	3170.7684	1029.65	153.6
1045.6011	3171.7236	1031.2	153.85
1045.7054	3172.6782	1027.65	152.65
1045.8098	3173.6321	1028.3	150.7
1045.914	3174.5854	1032.95	153.75
1046.0183	3175.5381	1024.4	148.25
1046.1224	3176.4902	1025.25	150.4
1046.2266	3177.4417	1023.85	147.9
1046.3307	3178.3926	1018	143.8
1046.4347	3179.3428	1020.2	146.15
1046.5387	3180.2924	1017.9	144.25
1046.6427	3181.2415	1020.55	144.45
1046.7466	3182.1899	1017.1	139.6
1046.8504	3183.1377	1013.45	138.05
1046.9542	3184.0848	1018.3	138.25
1047.058	3185.0314	1013.65	139.5
1047.1617	3185.9773	1014.6	139
1047.2654	3186.9227	1015	139.35
1047.369	3187.8674	1013.35	137.05
1047.4726	3188.8115	1014.6	134.05
1047.5761	3189.755	1015.5	140.4
1047.6796	3190.6979	1006.6	131.2
1047.783	3191.6402	1012.05	136.05
1047.8864	3192.5818	1010.9	137.05
1047.9898	3193.5229	1013	130.5
1048.0931	3194.4633	1009.7	136.4
1048.1963	3195.4031	1005.7	130.35
1048.2995	3196.3423	1004.85	132.65
1048.4027	3197.2809	1007.8	132.65
1048.5058	3198.2189	1006.3	131.25
1048.6089	3199.1563	1019.9	127.7
1048.7119	3200.0931	1004.15	130.7
1048.8148	3201.0292	1003.15	128.65
1048.9178	3201.9648	1004.3	129.5
1049.0206	3202.8997	1004.9	124.25
1049.1235	3203.834	998.6	124.15
1049.2262	3204.7677	998.75	125.35
1049.329	3205.7008	1001.7	125.9
1049.4317	3206.6333	997.4	123.55
1049.5343	3207.5652	997.7	119.8
1049.6369	3208.4964	996.6	121.5
1049.7394	3209.4271	995.9	120.2
1049.8419	3210.3571	991.75	116.85
1049.9444	3211.2865	993.7	119.55
1050.0468	3212.2154	998.2	121.85
1050.1491	3213.1436	996.75	118.85
1050.2514	3214.0712	997.15	113.5
1050.3537	3214.9982	994.4	119.1
1050.4559	3215.9246	993.35	117.05
1050.5581	3216.8503	987.05	113.6
1050.6602	3217.7755	989.05	112.8
1050.7623	3218.7001	989.9	115.6
1050.8643	3219.624	985.25	111.65
1050.9663	3220.5473	988.05	113
1051.0682	3221.4701	987.25	111.9
1051.1701	3222.3922	990.6	114.25
1051.2719	3223.3137	986.05	111.85
1051.3737	3224.2346	988.4	114.8
1051.4754	3225.1549	986.75	112.65
1051.5771	3226.0746	983.4	109.75
1051.6788	3226.9937	983.2	107
1051.7804	3227.9121	983.1	107.3
1051.8819	3228.83	979.8	106.05
1051.9834	3229.7473	984.5	107.55
1052.0849	3230.6639	977.35	103.7
1052.1863	3231.5799	979.45	106.75
1052.2876	3232.4954	979.25	104.75
1052.3889	3233.4102	977.05	104.1
1052.4902	3234.3244	980.7	105.85
1052.5914	3235.238	976.2	101.25
1052.6926	3236.151	1001.85	104.4
1052.7937	3237.0634	977.4	104.95
1052.8948	3237.9752	977.15	103.35
1052.9958	3238.8864	976.75	100.85
1053.0968	3239.797	973.95	98.7
1053.1977	3240.7069	975.2	100.5
1053.2986	3241.6163	972.25	96.2
1053.3994	3242.5251	974.35	101.45
1053.5002	3243.4332	973.65	100.1
1053.6009	3244.3408	969.35	93.8
1053.7016	3245.2477	970.5	95.2
1053.8022	3246.154	973.05	96.4
1053.9028	3247.0598	967.1	90.2
1054.0034	3247.9649	967.7	92.55
1054.1039	3248.8694	965.5	92
1054.2043	3249.7733	965.85	91.75
1054.3047	3250.6766	967.6	93.65
1054.4051	3251.5793	965.7	91.8
1054.5054	3252.4814	963.95	89.7
1054.6056	3253.3829	961.8	86.95
1054.7058	3254.2838	965.65	90.4
1054.806	3255.1841	963.85	90.2
1054.9061	3256.0838	960.7	86.1
1055.0061	3256.9829	962.4	88.4
1055.1062	3257.8814	961.05	85.95
1055.2061	3258.7792	959.9	84.55
1055.306	3259.6765	959.75	84.9
1055.4059	3260.5731	955.2	82
1055.5057	3261.4692	954.65	78.75
1055.6055	3262.3647	952.2	78.05
1055.7052	3263.2595	953.35	79.3
1055.8049	3264.1538	954.2	81.5
1055.9045	3265.0474	952.3	78.4
1056.0041	3265.9404	948.35	74.75
1056.1036	3266.8329	949.95	75.85
1056.2031	3267.7247	957.15	70.2
1056.3025	3268.616	941.55	68.3
1056.4019	3269.5066	942.85	68.5
1056.5013	3270.3966	943.25	66.8
1056.6005	3271.286	939.8	67.15
