Software Version:	3.9.2.0
Unit SN:	10000200
Spectrometer SN:	6960
Date:	3/8/2024 11:10:59 AM
Data Line Index:	25
Spectral Points:	2048
Integration time (ms):	125
Averages:	20
Delay (ms):	30000
Sequence Number:	1
Processing:	dark subtract
Laser Power (mW):	300
Laser Current (mA):	817
Laser Diode Temp (C):	25.1
Laser Case Temp (C):	24.4
System Temp (C):	24.3
Spectrometer Temp (C):	22.3
CCD Temp (C):	0.008
Secondary Temp (C):	20.006
Heatsink Temp (C):	19.201
CCDPCB Temp (C):	31.483
SecondaryPCB Temp (C):	25.78

Wavelength	RamanShift	Raw Counts	Dark Subtracted
787.061	30.1047	431.5	21.65
787.2016	32.3739	428.7	20.85
787.3422	34.6426	433.35	25.15
787.4828	36.9109	439.8	29.45
787.6235	39.1787	443.25	29.7
787.7642	41.4461	449.85	30
787.9049	43.7131	456.55	33.7
788.0456	45.9796	463.15	38.1
788.1863	48.2456	467.1	38.2
788.3271	50.5112	474.6	41.3
788.4679	52.7764	482.5	46.85
788.6087	55.0411	487.2	48.2
788.7496	57.3054	496.35	49.95
788.8904	59.5692	499.6	51
789.0313	61.8326	508.5	61.45
789.1722	64.0955	517.25	64.65
789.3132	66.3579	529.55	71.8
789.4541	68.6199	542.6	78.9
789.5951	70.8815	561.3	93.75
789.7361	73.1426	615.95	146.15
789.8771	75.4032	741.45	269.3
790.0181	77.6634	1046.35	570.45
790.1592	79.9231	1747.35	1269.1
790.3003	82.1824	3179.2	2697.3
790.4414	84.4412	5638.8	5149
790.5825	86.6995	8817.15	8319.7
790.7237	88.9574	11853.25	11351.6
790.8648	91.2148	13905	13399.2
791.006	93.4717	14810.85	14301.65
791.1472	95.7282	14959.9	14447.8
791.2885	97.9842	14849.05	14335.25
791.4297	100.2398	14586	14070.05
791.571	102.4949	14319.1	13800
791.7123	104.7495	14098.1	13575.35
791.8536	107.0036	13823.3	13296.9
791.9949	109.2573	13533.55	13010.8
792.1363	111.5105	13181.5	12654.85
792.2777	113.7632	12738.05	12211.7
792.4191	116.0154	12274.35	11735.35
792.5605	118.2672	11745.95	11213.95
792.7019	120.5185	11181.15	10646.85
792.8434	122.7693	10641.9	10103.75
792.9849	125.0197	10144.3	9602.2
793.1264	127.2696	9696.15	9149.95
793.2679	129.519	9440.5	8891.3
793.4094	131.7679	9197.65	8647.4
793.551	134.0163	9060.75	8509.1
793.6926	136.2642	8991.7	8435.7
793.8342	138.5117	8942.05	8383.2
793.9758	140.7587	8840.05	8278.05
794.1175	143.0052	8676.3	8112.25
794.2591	145.2512	8418.25	7851.85
794.4008	147.4967	8109.3	7541.6
794.5425	149.7417	7847.25	7277.05
794.6842	151.9863	7641	7065.9
794.826	154.2304	7520.9	6944.5
794.9677	156.4739	7454.1	6871.95
795.1095	158.717	7531.75	6949.6
795.2513	160.9596	7660.2	7074
795.3931	163.2017	7814.1	7224.3
795.535	165.4433	7944.7	7352.8
795.6768	167.6844	7957.2	7362.2
795.8187	169.925	7849.6	7252.1
795.9606	172.1651	7585.2	6985.2
796.1025	174.4047	7306.9	6701.8
796.2445	176.6439	7057.9	6451.7
796.3864	178.8825	6872.85	6263.95
796.5284	181.1206	6770.85	6156.6
796.6704	183.3582	6701.35	6082.4
796.8124	185.5954	6637.6	6019.3
796.9544	187.832	6619.75	5996.5
797.0965	190.0681	6593.75	5969.25
797.2386	192.3037	6624.45	5996.95
797.3806	194.5388	6626.1	5994.85
797.5228	196.7734	6665.25	6033.6
797.6649	199.0075	6735.8	6101.25
797.807	201.2411	6841.6	6209.45
797.9492	203.4742	6961.25	6325.75
798.0914	205.7068	7106.4	6464.7
798.2336	207.9389	7199.1	6557.2
798.3758	210.1704	7285.85	6652.35
798.518	212.4015	7299.5	6677.55
798.6603	214.632	7329.1	6709.8
798.8025	216.862	7340.25	6722.5
798.9448	219.0915	7395.65	6775.05
799.0871	221.3205	7477.65	6853.05
799.2294	223.549	7521.5	6902.1
799.3718	225.777	7547.9	6927.3
799.5141	228.0044	7519.3	6890.35
799.6565	230.2314	7477.1	6847.15
799.7989	232.4578	7413.55	6776.05
799.9413	234.6837	7331.35	6685.4
800.0837	236.909	7257.75	6612.5
800.2262	239.1339	7194.8	6524.75
800.3687	241.3582	7122.85	6468.7
800.5111	243.582	7101.15	6419.1
800.6536	245.8053	7133.85	6461.9
800.7961	248.0281	7154.65	6488.35
800.9387	250.2503	7183.7	6514.75
801.0812	252.472	7234.1	6562.2
801.2238	254.6932	7265.4	6594.45
801.3664	256.9139	7254.1	6580.8
801.509	259.134	7355.9	6679.95
801.6516	261.3536	7408.6	6734.9
801.7942	263.5727	7571.5	6895.2
801.9369	265.7912	7834.75	7159.8
802.0795	268.0092	8169.25	7494.8
802.2222	270.2267	8476.35	7799.45
802.3649	272.4436	8791.05	8109.9
802.5076	274.6601	8989	8298.35
802.6504	276.8759	9121.4	8436.75
802.7931	279.0913	9240.9	8555.55
802.9359	281.3061	9332.65	8646
803.0787	283.5204	9443.05	8751.5
803.2215	285.7341	9582.25	8889.25
803.3643	287.9473	9754.8	9061.9
803.5071	290.16	9726.8	9033.25
803.6499	292.3721	9544	8855.5
803.7928	294.5837	9263.15	8571.3
803.9357	296.7947	9033.95	8340.9
804.0786	299.0052	8898.95	8208.15
804.2215	301.2152	8830.4	8132.95
804.3644	303.4246	8768	8075.35
804.5074	305.6334	8735.1	8041.45
804.6503	307.8418	8695.55	7995.25
804.7933	310.0495	8582.65	7882.3
804.9363	312.2568	8422.45	7720.9
805.0793	314.4635	8191.15	7487.6
805.2223	316.6696	7914.55	7209.05
805.3653	318.8752	7650.2	6936.7
805.5084	321.0802	7463.5	6754.75
805.6514	323.2847	7401.75	6691.8
805.7945	325.4887	7401.3	6692.75
805.9376	327.692	7496.6	6785.5
806.0807	329.8949	7729.5	7016.55
806.2238	332.0972	8006.35	7292.35
806.367	334.2989	8247.25	7530.45
806.5101	336.5001	8293.15	7574.6
806.6533	338.7007	8156.55	7438.45
806.7965	340.9008	7885.25	7165.35
806.9397	343.1003	7546.85	6824.35
807.0829	345.2992	7223.75	6500.75
807.2261	347.4976	6969.1	6244.05
807.3693	349.6955	6761.1	6034.65
807.5126	351.8927	6640.45	5911.7
807.6559	354.0895	6496.2	5756.95
807.7991	356.2856	6446.7	5716.1
807.9424	358.4812	6401.05	5667.5
808.0857	360.6763	6357.4	5623
808.2291	362.8707	6326.75	5591.4
808.3724	365.0646	6353.6	5615.1
808.5158	367.258	6365.9	5625.95
808.6591	369.4508	6452.2	5706.6
808.8025	371.643	6596.2	5853.95
808.9459	373.8346	6747.75	6003.8
809.0893	376.0257	6973.3	6227.2
809.2327	378.2162	7150.25	6406.25
809.3762	380.4062	7265.55	6517.85
809.5196	382.5956	7202.4	6457.25
809.6631	384.7844	7008.9	6268.9
809.8066	386.9726	6747.3	6008.8
809.9501	389.1603	6526.25	5790.95
810.0936	391.3474	6456.95	5668.75
810.2371	393.5339	6381.65	5637.9
810.3806	395.7199	6417.15	5677.5
810.5241	397.9052	6579.2	5838.15
810.6677	400.09	6820.5	6076.95
810.8113	402.2743	7105.05	6359
810.9548	404.4579	7306.45	6560.1
811.0984	406.641	7516.7	6769.15
811.2421	408.8235	7752.7	7002.45
811.3857	411.0054	7947.75	7194.45
811.5293	413.1868	8031.7	7274.95
811.673	415.3675	7956.4	7198
811.8166	417.5477	7902.25	7146.95
811.9603	419.7273	7816.95	7057.85
812.104	421.9064	7714.45	6947.35
812.2477	424.0848	7508.2	6743.35
812.3914	426.2627	7159.3	6395.95
812.5351	428.4399	6818.6	6054.65
812.6788	430.6166	6482.8	5713.45
812.8226	432.7928	6237.8	5466.1
812.9663	434.9683	6057.3	5288.1
813.1101	437.1432	5912.65	5141.7
813.2539	439.3176	5805.15	5037.55
813.3977	441.4914	5764.6	4997.05
813.5415	443.6645	5726.35	4955.85
813.6853	445.8371	5707.85	4937.95
813.8291	448.0091	5698.7	4929.05
813.973	450.1806	5706.1	4934.5
814.1168	452.3514	5705.9	4930.8
814.2607	454.5216	5737.5	4955.35
814.4046	456.6913	5739.6	4961.55
814.5485	458.8603	5778.3	5002.45
814.6924	461.0288	5797.85	5022.1
814.8363	463.1967	5782.95	5006.9
814.9802	465.3639	5782.9	5004.25
815.1241	467.5306	5772.4	4993.15
815.2681	469.6967	5752.8	4976.4
815.412	471.8622	5707.05	4930.05
815.556	474.0271	5683.75	4902.6
815.7	476.1914	5668.45	4885.5
815.844	478.3551	5642.05	4862.1
815.988	480.5182	5638.95	4857.8
816.132	482.6807	5656.15	4874.6
816.276	484.8426	5764.6	4983.85
816.4201	487.0039	5985.4	5203.65
816.5641	489.1647	6287.35	5502.55
816.7082	491.3248	6576.2	5793.35
816.8522	493.4843	6677.4	5894.35
816.9963	495.6432	6627.8	5843.5
817.1404	497.8015	6488.05	5701.6
817.2845	499.9592	6234.65	5448.2
817.4286	502.1163	5919.3	5132.45
817.5727	504.2728	5645.2	4854.9
817.7168	506.4287	5517.7	4729.7
817.861	508.5839	5404.1	4614.2
818.0051	510.7386	5361.8	4574.8
818.1493	512.8927	5400.35	4601.25
818.2935	515.0461	5413	4620.6
818.4377	517.199	5526.4	4734.85
818.5818	519.3512	5741.55	4948.7
818.726	521.5029	6138.6	5338.9
818.8703	523.6539	6520.15	5725.25
819.0145	525.8043	6615.15	5820.85
819.1587	527.9541	6344.05	5546.3
819.303	530.1033	5938.3	5142.25
819.4472	532.2519	5625.6	4830.25
819.5915	534.3999	5478.45	4679.05
819.7357	536.5472	5419.35	4620.75
819.88	538.694	5419.65	4620.95
820.0243	540.8401	5492.5	4691.35
820.1686	542.9856	5584.9	4784.2
820.3129	545.1305	5697.85	4895.2
820.4572	547.2748	5771.45	4969.2
820.6016	549.4185	5813.45	5010.4
820.7459	551.5615	5860.65	5058.9
820.8902	553.704	5922.75	5119.3
821.0346	555.8458	6018.25	5218.55
821.1789	557.987	6143.9	5341.25
821.3233	560.1276	6338.15	5535.25
821.4677	562.2675	6714.1	5911.2
821.6121	564.4069	7192.95	6389.7
821.7565	566.5456	7521.2	6716.55
821.9009	568.6837	7374.4	6569.4
822.0453	570.8212	6890.35	6086.5
822.1897	572.958	6292.4	5489.45
822.3342	575.0942	5865.45	5060.1
822.4786	577.2299	5620.55	4811.95
822.6231	579.3648	5515.75	4709.25
822.7675	581.4992	5500	4695.7
822.912	583.6329	5556.1	4753.15
823.0565	585.766	5733.55	4927.25
823.201	587.8985	6009.8	5205.75
823.3454	590.0304	6304.2	5484.3
823.4899	592.1616	6564.35	5750.75
823.6345	594.2922	6659.6	5847.85
823.779	596.4222	6519.25	5709.25
823.9235	598.5515	6185.2	5373.65
824.068	600.6802	5819.4	5005.85
824.2126	602.8083	5525.1	4713.45
824.3571	604.9358	5405.05	4592.8
824.5017	607.0626	5387.9	4575.4
824.6462	609.1888	5418.95	4604.35
824.7908	611.3144	5527.45	4710.75
824.9354	613.4393	5761.55	4947.75
825.08	615.5636	6099.6	5284.5
825.2246	617.6873	6394.55	5577.35
825.3692	619.8103	6630.25	5812.45
825.5138	621.9327	6673.9	5854.45
825.6584	624.0544	6528.15	5712.95
825.803	626.1756	6157.25	5342.05
825.9477	628.2961	5787.25	4968.95
826.0923	630.4159	5597.5	4778.85
826.237	632.5351	5555.2	4735.35
826.3816	634.6537	5512.55	4694.7
826.5263	636.7716	5476.95	4654
826.6709	638.8889	5439.55	4618.2
826.8156	641.0056	5484.35	4663.4
826.9603	643.1216	5591.3	4769.3
827.105	645.237	5646.35	4822
827.2497	647.3518	5553.3	4730.1
827.3944	649.4659	5380.7	4560.4
827.5391	651.5793	5229.3	4404.85
827.6838	653.6922	5159	4336.45
827.8285	655.8043	5061.55	4241.1
827.9733	657.9159	5006.95	4182.5
828.118	660.0268	4948.55	4123.8
828.2627	662.137	4948.2	4124.25
828.4075	664.2466	4965.05	4138.8
828.5522	666.3556	4970.5	4146.45
828.697	668.4639	4918	4089.8
828.8418	670.5716	4896.05	4070.9
828.9865	672.6786	4840.95	4014
829.1313	674.785	4825.35	3994.75
829.2761	676.8907	4800.65	3972.95
829.4209	678.9958	4799.1	3974
829.5657	681.1002	4810.55	3980.6
829.7105	683.204	4822.65	3989.05
829.8553	685.3072	4812.85	3981.95
830.0001	687.4097	4822.3	3991.7
830.1449	689.5115	4822.9	3992.2
830.2898	691.6127	4779.95	3950.7
830.4346	693.7132	4788.4	3957.4
830.5794	695.8131	4792.45	3947.8
830.7243	697.9123	4789.95	3958.5
830.8691	700.0109	4805.95	3975.25
831.014	702.1089	4869.75	4038.8
831.1588	704.2061	4962.3	4131.35
831.3037	706.3028	5078.95	4243.8
831.4486	708.3987	5256.05	4422.3
831.5935	710.4941	5367.05	4533.5
831.7383	712.5887	5402.55	4565.15
831.8832	714.6827	5378.2	4539.9
832.0281	716.7761	5315.75	4480.95
832.173	718.8688	5283.3	4446.3
832.3179	720.9608	5255.45	4414.5
832.4628	723.0522	5322.35	4480.75
832.6077	725.1429	5400.2	4565.55
832.7527	727.233	5599.2	4762
832.8976	729.3224	5960.6	5123.2
833.0425	731.4112	6328.9	5491
833.1874	733.4993	6471.2	5630.85
833.3324	735.5867	6266.3	5428.2
833.4773	737.6735	5810	4971.4
833.6222	739.7596	5387	4547.9
833.7672	741.845	5125.25	4286.85
833.9122	743.9298	4980.6	4139.45
834.0571	746.014	4937.75	4098.2
834.2021	748.0974	4934.1	4094.2
834.347	750.1802	4930.4	4089
834.492	752.2624	4924.05	4085.9
834.637	754.3439	4955.6	4113.8
834.782	756.4247	4999.65	4148.45
834.9269	758.5048	5085.35	4244.9
835.0719	760.5843	5208.3	4365.4
835.2169	762.6631	5425.75	4581.6
835.3619	764.7413	5748.7	4907.9
835.5069	766.8188	6229.3	5385.95
835.6519	768.8956	6792.6	5947.15
835.7969	770.9718	7168.45	6326.15
835.9419	773.0473	7172.65	6330.4
836.0869	775.1221	6954.05	6111.05
836.232	777.1962	6825.85	5982.9
836.377	779.2697	7143.7	6299.25
836.522	781.3426	7804.35	6944.6
836.667	783.4147	8322.95	7477.5
836.8121	785.4862	8378.35	7537.25
836.9571	787.557	7925.8	7079.65
837.1021	789.6271	7167.25	6321.15
837.2472	791.6966	6369.2	5523.35
837.3922	793.7654	5742.15	4895.75
837.5373	795.8335	5333.2	4488.5
837.6823	797.901	5098.6	4251.85
837.8274	799.9678	5018.9	4172.75
837.9724	802.0339	5010.25	4167.35
838.1175	804.0993	5057.6	4203.45
838.2626	806.1641	5045.05	4198.7
838.4076	808.2282	4991.15	4147.75
838.5527	810.2916	4878.5	4030.9
838.6978	812.3544	4792.1	3946
838.8428	814.4164	4732	3884.4
838.9879	816.4778	4737.8	3888.6
839.133	818.5385	4830.1	3982.85
839.2781	820.5986	5007	4158.05
839.4232	822.658	5333.85	4485.45
839.5682	824.7166	5716.65	4868.4
839.7133	826.7747	6222.45	5376.3
839.8584	828.832	6708.35	5858.85
840.0035	830.8886	7097.8	6247.8
840.1486	832.9446	7299.75	6449
840.2937	834.9999	7218.75	6372
840.4388	837.0545	6834.85	5981.45
840.5839	839.1085	6314.15	5464.05
840.729	841.1618	5803.05	4948.45
840.8741	843.2143	5445.7	4595.15
841.0192	845.2662	5224.15	4378.25
841.1643	847.3175	5095.2	4247.4
841.3095	849.368	5034.25	4183.45
841.4546	851.4179	5022.65	4170.35
841.5997	853.467	4998.1	4148.1
841.7448	855.5155	5043.5	4192.65
841.8899	857.5633	5105.7	4251.9
842.0351	859.6105	5084.85	4232.65
842.1802	861.6569	5013.85	4163.95
842.3253	863.7027	4922.25	4067
842.4704	865.7478	4831.85	3978.7
842.6156	867.7922	4775.6	3925.05
842.7607	869.8359	4699.15	3848.8
842.9058	871.8789	4676.25	3822.65
843.0509	873.9212	4681.4	3796.25
843.1961	875.9629	4690.35	3834.6
843.3412	878.0039	4775.05	3920.05
843.4863	880.0441	4843.75	3990.3
843.6315	882.0837	4959.7	4104.85
843.7766	884.1226	5102.25	4247.6
843.9218	886.1609	5302.4	4450.5
844.0669	888.1984	5616.35	4765.15
844.212	890.2352	5925.05	5071.2
844.3572	892.2714	6024.35	5167.1
844.5023	894.3069	5903.95	5047.05
844.6475	896.3416	5602.5	4747
844.7926	898.3757	5325.5	4469.5
844.9377	900.4091	5144.65	4289
845.0829	902.4418	5150.85	4288.2
845.228	904.4739	5279.1	4422.5
845.3732	906.5052	5416.3	4559.15
845.5183	908.5358	5444.65	4587.1
845.6635	910.5658	5353.95	4494.7
845.8086	912.595	5151.45	4294.4
845.9538	914.6236	4917.9	4060.9
846.0989	916.6515	4746.9	3888.8
846.2441	918.6786	4608.65	3748.75
846.3892	920.7051	4574.4	3715.8
846.5344	922.7309	4554.55	3698.35
846.6795	924.756	4545.45	3687.1
846.8246	926.7804	4612.55	3753.3
846.9698	928.8041	4688.45	3828.4
847.1149	930.8272	4810.15	3951.4
847.2601	932.8495	4860.6	4000.3
847.4052	934.8711	4902.05	4041.9
847.5504	936.892	4949.75	4088.05
847.6955	938.9123	5086	4226.3
847.8407	940.9318	5253.55	4393.25
847.9858	942.9506	5381.6	4519.75
848.131	944.9688	5365.65	4506.25
848.2761	946.9862	5250.75	4390.05
848.4213	949.003	5041.6	4181.5
848.5664	951.019	4887.4	4025.85
848.7115	953.0344	4776.45	3915.3
848.8567	955.0491	4705.35	3844.75
849.0018	957.063	4635.45	3775.25
849.147	959.0763	4628.7	3767.55
849.2921	961.0888	4596.95	3734.5
849.4373	963.1007	4575.75	3715.4
849.5824	965.1119	4551.65	3691.85
849.7275	967.1223	4501.95	3641.35
849.8727	969.1321	4466.85	3606.1
850.0178	971.1412	4432.2	3572.05
850.1629	973.1495	4422.45	3561.05
850.3081	975.1572	4456.8	3556.6
850.4532	977.1641	4432.85	3571.2
850.5983	979.1704	4451.45	3588
850.7435	981.1759	4457.3	3592.7
850.8886	983.1808	4412.1	3548
851.0337	985.1849	4379.3	3504.05
851.1788	987.1884	4342.4	3477.05
851.324	989.1911	4359.45	3494.4
851.4691	991.1932	4422.95	3559.3
851.6142	993.1945	4474.4	3612.05
851.7593	995.1951	4479.5	3616.1
851.9045	997.1951	4465.15	3598.8
852.0496	999.1943	4417.4	3556.65
852.1947	1001.1928	4426.65	3562.05
852.3398	1003.1906	4494.85	3631.65
852.4849	1005.1877	4637.5	3773.15
852.63	1007.1841	4813.9	3947.7
852.7751	1009.1798	4926.75	4061.7
852.9202	1011.1748	4893.6	4031.25
853.0653	1013.1691	4761.4	3894.75
853.2104	1015.1627	4572.5	3707.5
853.3555	1017.1556	4398.15	3531.4
853.5006	1019.1477	4279.65	3412.55
853.6457	1021.1392	4188.85	3326.45
853.7908	1023.1299	4136.3	3271.1
853.9359	1025.12	4131.95	3265.5
854.081	1027.1093	4166.25	3304.1
854.2261	1029.0979	4287.85	3425
854.3712	1031.0859	4420.6	3558.65
854.5163	1033.0731	4517.55	3652.25
854.6613	1035.0596	4547.1	3683.05
854.8064	1037.0454	4535.8	3670.2
854.9515	1039.0304	4461.05	3594.75
855.0965	1041.0148	4350.8	3484.45
855.2416	1042.9985	4229.25	3362.55
855.3867	1044.9814	4132.8	3268.15
855.5317	1046.9636	4091.5	3225.35
855.6768	1048.9452	4143.6	3278.5
855.8219	1050.926	4242.6	3377.4
855.9669	1052.9061	4359.85	3491.95
856.112	1054.8855	4425.7	3560.5
856.257	1056.8642	4428.05	3561.95
856.4021	1058.8421	4405.85	3533.9
856.5471	1060.8194	4391.85	3525.3
856.6921	1062.7959	4386.4	3520.3
856.8372	1064.7717	4371.15	3503.95
856.9822	1066.7469	4362.25	3495.1
857.1272	1068.7213	4391.7	3522.1
857.2723	1070.695	4447.4	3581.35
857.4173	1072.6679	4574.9	3705.8
857.5623	1074.6402	4756.9	3889.55
857.7073	1076.6117	4858.5	3986.4
857.8523	1078.5826	4786.25	3916.95
857.9973	1080.5527	4578	3707.3
858.1423	1082.5221	4350.7	3483.45
858.2873	1084.4908	4181.4	3314.4
858.4323	1086.4587	4057.8	3189.45
858.5773	1088.426	4014.7	3145.95
858.7223	1090.3925	3978.1	3104.8
858.8673	1092.3584	4017.15	3149.05
859.0123	1094.3235	4061.8	3194.4
859.1573	1096.2879	4185.75	3318.2
859.3022	1098.2515	4301.15	3434.2
859.4472	1100.2145	4471.1	3603.85
859.5922	1102.1767	4647.2	3776.05
859.7371	1104.1382	4910.55	4041.5
859.8821	1106.099	5258.6	4387.05
860.027	1108.0591	5573.2	4703.75
860.172	1110.0185	5829.6	4957.95
860.3169	1111.9771	6066.85	5198.25
860.4619	1113.9351	6344.25	5473.5
860.6068	1115.8923	6760.95	5891.2
860.7517	1117.8488	7068.65	6198.9
860.8967	1119.8045	6932.2	6064.15
861.0416	1121.7596	6376.8	5506.2
861.1865	1123.7139	5694.8	4823.35
861.3314	1125.6675	5249.65	4380
861.4763	1127.6204	5167.7	4297.6
861.6212	1129.5726	5279.45	4408
861.7661	1131.524	5316.9	4446.4
861.911	1133.4748	5148	4278.5
862.0559	1135.4248	4797.45	3925.75
862.2008	1137.3741	4470	3599.9
862.3457	1139.3226	4273.3	3401.45
862.4905	1141.2705	4201.65	3332.2
862.6354	1143.2176	4260.25	3383.25
862.7803	1145.164	4369.1	3499.1
862.9251	1147.1097	4393.65	3521.45
863.07	1149.0546	4304.75	3432.95
863.2148	1150.9989	4154.95	3282.8
863.3597	1152.9424	4005.65	3133.8
863.5045	1154.8852	3903.6	3032.15
863.6493	1156.8272	3850	2981.05
863.7942	1158.7686	3836.15	2958.25
863.939	1160.7092	3836.45	2965.5
864.0838	1162.6491	3850	2976.75
864.2286	1164.5883	3914.4	3043.25
864.3734	1166.5267	3999.4	3126.6
864.5182	1168.4644	4149.6	3275.8
864.663	1170.4014	4323.35	3451.3
864.8078	1172.3377	4552.85	3679.85
864.9526	1174.2732	4840.15	3970.95
865.0974	1176.2081	5322.5	4451
865.2421	1178.1421	6007.65	5133.5
865.3869	1180.0755	6855.2	5984.3
865.5317	1182.0082	7450.45	6578.7
865.6764	1183.9401	7542.95	6669.2
865.8212	1185.8713	7042.25	6171.1
865.9659	1187.8017	6306.3	5434.4
866.1106	1189.7315	5562	4690.9
866.2554	1191.6605	5016.6	4115.35
866.4001	1193.5888	4649.65	3779.8
866.5448	1195.5163	4433.95	3560.65
866.6895	1197.4432	4285.85	3413.1
866.8342	1199.3693	4178.6	3307.75
866.9789	1201.2947	4076.25	3195.85
867.1236	1203.2193	4007.95	3135.45
867.2683	1205.1432	3984.4	3110.9
867.413	1207.0664	3969.85	3095.55
867.5576	1208.9889	3965.2	3089
867.7023	1210.9106	3981.25	3107.95
867.847	1212.8316	4014.15	3143.45
867.9916	1214.7519	4078	3196.7
868.1363	1216.6715	4121.4	3249.45
868.2809	1218.5903	4217.1	3342.25
868.4255	1220.5084	4299.05	3425.05
868.5701	1222.4257	4381.35	3508.95
868.7148	1224.3424	4450.95	3580.25
868.8594	1226.2583	4550.1	3670.4
869.004	1228.1735	4698.7	3825.95
869.1486	1230.0879	4919.15	4044.85
869.2932	1232.0016	5180.45	4306.7
869.4377	1233.9146	5398.75	4523.35
869.5823	1235.8269	5528.95	4657.05
869.7269	1237.7384	5544.1	4670.75
869.8715	1239.6492	5518.15	4646
870.016	1241.5592	5585.95	4711.5
870.1606	1243.4686	5814.05	4939.1
870.3051	1245.3772	6234.7	5361.8
870.4496	1247.285	6779.95	5905.5
870.5941	1249.1922	7274.65	6400.5
870.7387	1251.0986	7720.05	6844.75
870.8832	1253.0042	8135.75	7263.05
871.0277	1254.9092	8653.85	7777.35
871.1722	1256.8134	9251.95	8378.2
871.3167	1258.7169	9882.45	9006.75
871.4611	1260.6196	10423.15	9548.55
871.6056	1262.5216	10773.45	9895.95
871.7501	1264.4229	10854.6	9981.25
871.8945	1266.3234	10674.35	9799.85
872.039	1268.2232	10308.9	9432.5
872.1834	1270.1223	9934.45	9057.35
872.3278	1272.0207	9655.65	8782
872.4723	1273.9183	9510.6	8628.6
872.6167	1275.8151	9465.8	8592.3
872.7611	1277.7113	9624.05	8747.95
872.9055	1279.6067	10077.7	9201.7
873.0499	1281.5014	10903.4	10027.05
873.1943	1283.3953	12074.35	11196.25
873.3386	1285.2885	13402.25	12527.9
873.483	1287.181	14546.4	13670.7
873.6274	1289.0727	15120.5	14247.35
873.7717	1290.9637	14905.3	14029.55
873.9161	1292.854	14187.45	13313.65
874.0604	1294.7435	13270.6	12393.3
874.2047	1296.6323	12392.25	11517.5
874.349	1298.5204	11602.6	10724.65
874.4933	1300.4077	10996.2	10120.35
874.6376	1302.2943	10575.95	9699.65
874.7819	1304.1802	10274.25	9398.9
874.9262	1306.0653	10029.3	9151.2
875.0705	1307.9497	9823	8946.65
875.2147	1309.8333	9651.35	8776.6
875.359	1311.7162	9487.9	8611
875.5032	1313.5984	9337.3	8458.85
875.6475	1315.4798	9222.1	8328.55
875.7917	1317.3605	9246.2	8356.65
875.9359	1319.2405	9364.1	8485
876.0801	1321.1197	9402.4	8524.65
876.2243	1322.9982	9284.2	8404.6
876.3685	1324.876	8970.5	8093.55
876.5127	1326.753	8467.85	7592.75
876.6569	1328.6293	7850.55	6973.7
876.801	1330.5048	7252.55	6374.15
876.9452	1332.3796	6640.7	5766.1
877.0893	1334.2537	6199.65	5298.8
877.2335	1336.127	5841.75	4965.9
877.3776	1337.9996	5611.9	4735.25
877.5217	1339.8714	5464.85	4588.25
877.6658	1341.7426	5359.2	4438.35
877.8099	1343.6129	5211	4335.6
877.954	1345.4826	5085.2	4209.05
878.0981	1347.3515	4978.9	4100.65
878.2422	1349.2196	4889.5	4013.2
878.3862	1351.087	4813.6	3935.15
878.5303	1352.9537	4796.3	3919.45
878.6743	1354.8197	4800.3	3923.15
878.8184	1356.6849	4867.55	3990.5
878.9624	1358.5493	4925.15	4047.55
879.1064	1360.4131	5070.45	4190.55
879.2504	1362.276	5295.75	4418.9
879.3944	1364.1383	5546.7	4671.45
879.5384	1365.9998	5694.65	4812.25
879.6823	1367.8606	5656.7	4781.6
879.8263	1369.7206	5605.7	4728.55
879.9702	1371.5799	5648.9	4770.8
880.1142	1373.4384	5594.65	4718.3
880.2581	1375.2962	5468.55	4592.5
880.402	1377.1533	5188.85	4311.2
880.5459	1379.0096	4897.65	4019.3
880.6898	1380.8652	4693.15	3817.2
880.8337	1382.7201	4496.7	3620.7
880.9776	1384.5742	4311.8	3435.05
881.1215	1386.4275	4171.7	3295.05
881.2653	1388.2802	4053.1	3175.45
881.4092	1390.132	3958.45	3082.85
881.553	1391.9832	3903.85	3025.4
881.6968	1393.8336	3864.45	2987.4
881.8406	1395.6832	3843.4	2964.6
881.9844	1397.5322	3780.4	2903.2
882.1282	1399.3803	3751.7	2866.9
882.272	1401.2278	3704.85	2827.45
882.4158	1403.0745	3656.15	2777.65
882.5595	1404.9204	3594.5	2716.25
882.7033	1406.7656	3564.1	2687.9
882.847	1408.6101	3541.65	2662.35
882.9908	1410.4538	3532	2655.15
883.1345	1412.2968	3538.65	2660.75
883.2782	1414.139	3543.4	2665.6
883.4219	1415.9805	3587.25	2711.65
883.5656	1417.8213	3658.8	2774.1
883.7092	1419.6613	3747.8	2870.75
883.8529	1421.5006	3916.85	3038.9
883.9965	1423.3391	4152	3275.15
884.1402	1425.1769	4486.05	3607.4
884.2838	1427.0139	4972.15	4093.8
884.4274	1428.8502	5539.6	4659.15
884.571	1430.6858	5990.1	5112.1
884.7146	1432.5206	6204.95	5325.5
884.8582	1434.3547	6209.3	5330.6
885.0018	1436.188	6096.7	5220.75
885.1453	1438.0206	6032.25	5153
885.2889	1439.8524	5955.45	5077.35
885.4324	1441.6835	5929.75	5052.3
885.5759	1443.5139	5935.95	5055.05
885.7194	1445.3435	5972.15	5095.65
885.8629	1447.1724	5995.9	5117.3
886.0064	1449.0005	5983.1	5106.55
886.1499	1450.8279	5942.45	5063.6
886.2933	1452.6545	5910.6	5030.55
886.4368	1454.4804	5877.55	5003.05
886.5802	1456.3056	5828.35	4943.9
886.7237	1458.13	5729.4	4852.35
886.8671	1459.9536	5590.05	4712.75
887.0105	1461.7766	5386.25	4509
887.1539	1463.5987	5156.2	4278.25
887.2972	1465.4202	4906.7	4030.15
887.4406	1467.2409	4658.35	3779.6
887.584	1469.0608	4452.55	3575.8
887.7273	1470.88	4253	3372.3
887.8706	1472.6984	4036.3	3159.65
888.0139	1474.5161	3903.85	3024.55
888.1572	1476.3331	3789.25	2912.05
888.3005	1478.1493	3714.2	2836.45
888.4438	1479.9648	3694.3	2815.35
888.5871	1481.7795	3664.9	2784.9
888.7303	1483.5935	3674.65	2797.4
888.8736	1485.4067	3701.55	2822.5
889.0168	1487.2192	3716.3	2836.2
889.16	1489.031	3722.8	2843.55
889.3032	1490.842	3734.4	2859
889.4464	1492.6522	3719.95	2842.2
889.5896	1494.4618	3724.35	2843.1
889.7327	1496.2705	3715.8	2837.95
889.8759	1498.0785	3676.1	2796.4
890.019	1499.8858	3647.1	2769.5
890.1622	1501.6924	3627.85	2748.1
890.3053	1503.4981	3596.15	2718.8
890.4484	1505.3032	3559.25	2682.3
890.5914	1507.1075	3519.35	2641.45
890.7345	1508.911	3489.9	2611.6
890.8776	1510.7138	3450.75	2572.15
891.0206	1512.5159	3397.85	2519.5
891.1637	1514.3172	3359.25	2481.45
891.3067	1516.1178	3336.45	2459.3
891.4497	1517.9176	3320.6	2439.85
891.5927	1519.7166	3267.75	2389.5
891.7357	1521.515	3248.35	2363.9
891.8786	1523.3126	3228.1	2350.7
892.0216	1525.1094	3196.2	2316.2
892.1645	1526.9055	3168.4	2292.3
892.3074	1528.7008	3154.6	2274.9
892.4503	1530.4954	3140.15	2255.35
892.5932	1532.2893	3132.55	2254.85
892.7361	1534.0824	3132.15	2249.25
892.879	1535.8747	3128.6	2248.4
893.0218	1537.6663	3110.3	2230.1
893.1647	1539.4572	3126.2	2246.45
893.3075	1541.2473	3134.1	2254.35
893.4503	1543.0367	3130.9	2253.15
893.5931	1544.8253	3138.05	2254.9
893.7359	1546.6132	3172.8	2292.65
893.8787	1548.4003	3195.25	2304.2
894.0214	1550.1867	3257.75	2368.75
894.1642	1551.9723	3301.5	2419.3
894.3069	1553.7572	3386.55	2504.8
894.4496	1555.5414	3509.1	2630.8
894.5923	1557.3247	3662.9	2784.55
894.735	1559.1074	3881.15	3003.55
894.8777	1560.8893	4161.7	3284.2
895.0204	1562.6705	4420.2	3542.5
895.163	1564.4509	4642	3766.1
895.3056	1566.2305	4736.4	3858.05
895.4482	1568.0094	4796.1	3917.6
895.5908	1569.7876	4797.7	3918.25
895.7334	1571.565	4782.2	3901.8
895.876	1573.3417	4794.65	3915.25
896.0186	1575.1176	4845.25	3968.45
896.1611	1576.8928	4941.7	4061.55
896.3036	1578.6672	5101.7	4226.2
896.4461	1580.4409	5294.35	4417.55
896.5886	1582.2138	5542.7	4663
896.7311	1583.986	5849.15	4970
896.8736	1585.7575	6128.25	5251.75
897.0161	1587.5282	6377.05	5500.4
897.1585	1589.2981	6621.2	5743.55
897.3009	1591.0673	6724.3	5847.4
897.4433	1592.8358	6785.75	5908.65
897.5857	1594.6035	6818.35	5937.9
897.7281	1596.3704	6725.6	5847.95
897.8705	1598.1366	6601.8	5725.15
898.0128	1599.9021	6406.4	5529.85
898.1551	1601.6668	6229.8	5351
898.2975	1603.4308	6073.55	5195.75
898.4398	1605.194	6032.1	5150.35
898.5821	1606.9564	6163.15	5283
898.7243	1608.7182	6483.1	5601.95
898.8666	1610.4791	7004.45	6127.85
899.0088	1612.2394	7707.85	6831.35
899.1511	1613.9988	8479.75	7600.95
899.2933	1615.7576	9163.9	8285.95
899.4355	1617.5156	9588.8	8706.45
899.5776	1619.2728	9557.65	8680.1
899.7198	1621.0293	9091.75	8213.95
899.862	1622.785	8383.9	7502.35
900.0041	1624.54	7539.9	6660.4
900.1462	1626.2942	6693.65	5812.85
900.2883	1628.0477	5929.8	5048.25
900.4304	1629.8005	5296.75	4414.8
900.5725	1631.5525	4799.9	3921.35
900.7145	1633.3037	4398.85	3519.6
900.8566	1635.0542	4090.5	3212.65
900.9986	1636.804	3855.45	2978.9
901.1406	1638.553	3718.4	2778.6
901.2826	1640.3013	3530.85	2654.4
901.4245	1642.0488	3394.15	2516.8
901.5665	1643.7955	3283.95	2409.05
901.7085	1645.5416	3210	2330.55
901.8504	1647.2868	3131.15	2253.8
901.9923	1649.0313	3071.9	2195.1
902.1342	1650.7751	3042.4	2161.4
902.2761	1652.5181	3009.7	2133.85
902.4179	1654.2604	3003.35	2123.4
902.5598	1656.0019	3034.65	2158.2
902.7016	1657.7427	3113.25	2235.6
902.8434	1659.4828	3217.85	2339.4
902.9852	1661.222	3391.85	2511.25
903.127	1662.9606	3649.3	2772.1
903.2687	1664.6984	3917.55	3039.3
903.4105	1666.4354	4088.15	3210.2
903.5522	1668.1717	4061.6	3183.35
903.6939	1669.9072	3832.6	2953.7
903.8356	1671.642	3526	2646.25
903.9773	1673.3761	3228.35	2351
904.119	1675.1094	2987.7	2109.75
904.2606	1676.8419	2813	1935.2
904.4022	1678.5737	2691.1	1812.75
904.5439	1680.3048	2613.55	1735.15
904.6855	1682.0351	2540.55	1663.4
904.827	1683.7646	2504.25	1624
904.9686	1685.4934	2468.1	1590.55
905.1101	1687.2215	2430.9	1551.8
905.2517	1688.9488	2405.8	1529
905.3932	1690.6754	2384.95	1505.5
905.5347	1692.4012	2387	1508.55
905.6761	1694.1263	2370.7	1492.75
905.8176	1695.8506	2359.7	1478.75
905.9591	1697.5742	2340.4	1464.6
906.1005	1699.297	2319.5	1439.95
906.2419	1701.0191	2307.15	1431.15
906.3833	1702.7404	2300.35	1421.65
906.5246	1704.461	2275.85	1396
906.666	1706.1808	2283.3	1404.35
906.8073	1707.8999	2253.55	1373.3
906.9487	1709.6182	2238.7	1360.65
907.09	1711.3358	2229	1351.25
907.2313	1713.0527	2217.4	1340.05
907.3725	1714.7688	2225.7	1341.35
907.5138	1716.4841	2215.55	1336.6
907.655	1718.1987	2210.9	1327
907.7962	1719.9126	2185.95	1308.85
907.9374	1721.6257	2187.95	1305.75
908.0786	1723.338	2188	1308.15
908.2198	1725.0496	2171.3	1291.6
908.3609	1726.7605	2173.15	1294.35
908.502	1728.4706	2168.15	1288.7
908.6431	1730.18	2158.25	1278.95
908.7842	1731.8886	2145.3	1268.55
908.9253	1733.5964	2157.65	1258.45
909.0664	1735.3036	2138.25	1259.35
909.2074	1737.0099	2141.2	1263.85
909.3484	1738.7156	2133.45	1256.45
909.4894	1740.4204	2125.1	1243.4
909.6304	1742.1246	2122.35	1244.55
909.7714	1743.8279	2114.35	1234.65
909.9123	1745.5306	2107.75	1227.4
910.0532	1747.2325	2107.6	1228.05
910.1941	1748.9336	2090.05	1212.05
910.335	1750.634	2094.15	1214.1
910.4759	1752.3336	2089.15	1212.55
910.6168	1754.0325	2085.65	1208.85
910.7576	1755.7307	2080.4	1200.6
910.8984	1757.4281	2081.1	1204.4
911.0392	1759.1247	2082.4	1195.9
911.18	1760.8206	2073.55	1191.4
911.3208	1762.5158	2076.8	1195.05
911.4615	1764.2102	2074.05	1197.1
911.6022	1765.9039	2061.65	1182.25
911.7429	1767.5968	2058.5	1180
911.8836	1769.289	2054.8	1176.65
912.0243	1770.9804	2045.05	1167.5
912.1649	1772.6711	2053.65	1174.85
912.3056	1774.361	2049.65	1169.95
912.4462	1776.0502	2038.4	1159.5
912.5868	1777.7386	2043.6	1162.15
912.7274	1779.4263	2036.15	1157.6
912.8679	1781.1132	2041.15	1162.3
913.0084	1782.7994	2021.8	1142.1
913.149	1784.4849	2028	1151.3
913.2895	1786.1696	2035.05	1135.9
913.4299	1787.8535	2027	1150.3
913.5704	1789.5367	2010.15	1130.85
913.7108	1791.2192	2027.3	1150.05
913.8513	1792.9009	2020.75	1128.75
913.9917	1794.5818	2004.4	1125.35
914.132	1796.2621	1988.35	1111.15
914.2724	1797.9415	1997.4	1118.2
914.4128	1799.6202	2000.5	1121.7
914.5531	1801.2982	1987.7	1109.45
914.6934	1802.9755	1977.85	1096.8
914.8337	1804.6519	1982	1101.3
914.9739	1806.3277	1976.05	1097.5
915.1142	1808.0027	1982.4	1105.55
915.2544	1809.6769	1973.65	1095.6
915.3946	1811.3504	1962.75	1083.95
915.5348	1813.0231	1972.9	1094.8
915.675	1814.6951	1960.8	1084.3
915.8151	1816.3664	1968.35	1088.2
915.9553	1818.0369	1966	1086.65
916.0954	1819.7067	1950.95	1074.65
916.2355	1821.3757	1964.8	1084.6
916.3755	1823.044	1946.55	1068.65
916.5156	1824.7115	1940.9	1062.6
916.6556	1826.3783	1947.4	1070
916.7956	1828.0443	1940.5	1062.55
916.9356	1829.7096	1948.05	1069.5
917.0756	1831.3741	1950.2	1068.55
917.2155	1833.0379	1938.5	1059.8
917.3555	1834.701	1930.75	1049.8
917.4954	1836.3633	1936.15	1058.55
917.6353	1838.0248	1934.7	1055.85
917.7751	1839.6856	1932.65	1053.1
917.915	1841.3457	1929.5	1050.2
918.0548	1843.005	1930.95	1052.4
918.1946	1844.6636	1919.8	1042.5
918.3344	1846.3214	1917.85	1038.85
918.4742	1847.9785	1920	1042.9
918.6139	1849.6349	1919.8	1039.55
918.7537	1851.2904	1929.35	1037.8
918.8934	1852.9453	1918	1038.6
919.0331	1854.5994	1917.75	1038.3
919.1727	1856.2528	1919.4	1036.35
919.3124	1857.9054	1905.25	1028.5
919.452	1859.5572	1897.1	1019.6
919.5916	1861.2083	1900.35	1022.45
919.7312	1862.8587	1905.15	1026.95
919.8708	1864.5084	1895.25	1017.1
920.0103	1866.1572	1894.4	1016.85
920.1498	1867.8054	1889.8	1012.55
920.2893	1869.4528	1875.6	995.15
920.4288	1871.0994	1892.2	1013.85
920.5683	1872.7453	1883.95	1004.25
920.7077	1874.3905	1882.4	997.45
920.8471	1876.0349	1877	997.05
920.9865	1877.6786	1876.4	995.45
921.1259	1879.3215	1879.6	1000.15
921.2653	1880.9637	1874.45	994.4
921.4046	1882.6051	1868.1	988.55
921.5439	1884.2458	1871.1	988.95
921.6832	1885.8858	1862.4	982.1
921.8225	1887.525	1867.15	987.5
921.9617	1889.1634	1859.95	981.95
922.101	1890.8011	1852.85	975.05
922.2402	1892.4381	1855.55	975.5
922.3794	1894.0743	1849.85	973.1
922.5185	1895.7098	1845.7	966.45
922.6577	1897.3446	1847.55	965.65
922.7968	1898.9786	1854.3	970.4
922.9359	1900.6118	1838.15	958.45
923.075	1902.2443	1838	956.95
923.214	1903.8761	1834.2	955.75
923.3531	1905.5071	1825	943.85
923.4921	1907.1374	1829.85	948.3
923.6311	1908.7669	1821.6	943.5
923.77	1910.3957	1819.7	940.55
923.909	1912.0237	1812.9	933
924.0479	1913.651	1815.1	936.35
924.1868	1915.2776	1804.5	927.85
924.3257	1916.9034	1807.5	928.65
924.4646	1918.5285	1800.75	923.55
924.6034	1920.1528	1804.6	926.35
924.7422	1921.7764	1796.25	916.4
924.881	1923.3992	1798.5	919.6
925.0198	1925.0213	1780.55	902.05
925.1586	1926.6427	1779.05	900.15
925.2973	1928.2633	1972.15	879.8
925.436	1929.8832	1805.2	922.35
925.5747	1931.5023	1777.55	898.4
925.7134	1933.1207	1776.55	897.95
925.852	1934.7383	1774.35	895.8
925.9906	1936.3552	1778.45	900.8
926.1292	1937.9714	1769.35	892.8
926.2678	1939.5868	1773.75	894
926.4064	1941.2015	1751.5	869.2
926.5449	1942.8154	1758.9	882
926.6834	1944.4286	1760.8	880
926.8219	1946.041	1763	861.85
926.9604	1947.6528	1750.7	867.5
927.0988	1949.2637	1740.95	862.65
927.2372	1950.8739	1739.2	859.4
927.3756	1952.4834	1743.75	864.1
927.514	1954.0921	1737.85	856.4
927.6523	1955.7001	1742.75	860.3
927.7907	1957.3074	1733.6	857.3
927.929	1958.9139	1726.45	847.75
928.0673	1960.5197	1727.55	847.95
928.2055	1962.1247	1727.65	849.65
928.3438	1963.729	1718.1	842.3
928.482	1965.3325	1735.6	835.95
928.6202	1966.9353	1717.9	841.2
928.7584	1968.5374	1717.4	837.85
928.8965	1970.1387	1708.55	829.15
929.0346	1971.7393	1709.95	833.45
929.1727	1973.3392	1699.95	823.35
929.3108	1974.9383	1704.25	825.95
929.4489	1976.5366	1691.9	815.5
929.5869	1978.1342	1689.95	811.95
929.7249	1979.7311	1698.8	820.4
929.8629	1981.3273	1702.35	823.2
930.0009	1982.9227	1696.25	815.5
930.1388	1984.5173	1688.05	811.25
930.2767	1986.1112	1676.55	797.6
930.4146	1987.7044	1682.2	806.9
930.5525	1989.2968	1679.5	799.15
930.6904	1990.8885	1678.3	797.9
930.8282	1992.4795	1674.9	795.2
930.966	1994.0697	1679.05	801.75
931.1038	1995.6592	1668.75	790.2
931.2415	1997.2479	1667.25	789.8
931.3793	1998.8359	1665.4	788.6
931.517	2000.4232	1654.55	779.2
931.6547	2002.0097	1651.55	776.65
931.7923	2003.5955	1653.35	775.7
931.93	2005.1805	1655.65	778.3
932.0676	2006.7648	1654.3	775.9
932.2052	2008.3484	1656.05	775.85
932.3427	2009.9312	1657.05	776.05
932.4803	2011.5133	1648.65	769.85
932.6178	2013.0946	1648.75	772.5
932.7553	2014.6752	1646.4	769.35
932.8928	2016.2551	1656.15	779.15
933.0302	2017.8342	1644.7	767.6
933.1676	2019.4126	1637.65	760.5
933.305	2020.9902	1637.9	761.45
933.4424	2022.5672	1635.55	755.05
933.5798	2024.1433	1648.6	766.2
933.7171	2025.7188	1631.4	754.5
933.8544	2027.2935	1628.75	749.7
933.9917	2028.8674	1630.8	752.05
934.129	2030.4406	1623.75	747.1
934.2662	2032.0131	1623.5	747.2
934.4034	2033.5849	1617.15	736.6
934.5406	2035.1559	1612.1	735.85
934.6778	2036.7261	1615	738.15
934.8149	2038.2957	1614.15	736.2
934.952	2039.8645	1615.95	737
935.0891	2041.4325	1619.9	739.05
935.2262	2042.9998	1606.3	729.45
935.3632	2044.5664	1602.55	723.95
935.5002	2046.1323	1616.35	738.8
935.6372	2047.6974	1602.3	725
935.7742	2049.2617	1605.1	729.4
935.9111	2050.8254	1635.8	724.9
936.048	2052.3883	1612.3	735.25
936.1849	2053.9504	1606.25	729.25
936.3218	2055.5118	1596.3	718.65
936.4586	2057.0725	1598.85	718.15
936.5955	2058.6325	1601.5	722.6
936.7323	2060.1917	1602.05	724.8
936.869	2061.7502	1598.1	717.7
937.0058	2063.3079	1590.85	715.3
937.1425	2064.8649	1588.55	706.7
937.2792	2066.4212	1584.15	707.65
937.4159	2067.9767	1583.7	706.8
937.5525	2069.5315	1583.95	708.5
937.6891	2071.0856	1580.45	703.3
937.8257	2072.6389	1578.1	700
937.9623	2074.1915	1576.5	702.25
938.0989	2075.7433	1567.1	687.9
938.2354	2077.2945	1570.65	695.75
938.3719	2078.8448	1571.2	694.2
938.5084	2080.3945	1574.55	695.65
938.6448	2081.9434	1571.55	693.65
938.7812	2083.4916	1561.9	682.9
938.9176	2085.039	1555.15	676.45
939.054	2086.5857	1563.25	682.85
939.1903	2088.1317	1557.5	677.7
939.3267	2089.677	1558.55	679.4
939.463	2091.2215	1552.95	673.05
939.5992	2092.7652	1560.3	681.95
939.7355	2094.3083	1550.45	671.15
939.8717	2095.8506	1556.95	680.85
940.0079	2097.3921	1549.25	672.85
940.1441	2098.933	1553.95	676.85
940.2802	2100.4731	1545.95	669
940.4163	2102.0124	1553.55	668.6
940.5524	2103.5511	1546.25	668.6
940.6885	2105.089	1550.45	673.2
940.8245	2106.6261	1536.7	660.1
940.9606	2108.1626	1544.5	665.4
941.0965	2109.6983	1572.7	666.15
941.2325	2111.2332	1550.05	672.35
941.3684	2112.7675	1537.5	657.3
941.5044	2114.301	1544.35	665.4
941.6403	2115.8337	1536.55	658.6
941.7761	2117.3657	1532.6	652.5
941.912	2118.897	1534.25	655.95
942.0478	2120.4276	1538.35	655.2
942.1835	2121.9575	1532.35	656.3
942.3193	2123.4866	1544.55	652.6
942.455	2125.0149	1527.75	646.4
942.5907	2126.5426	1522.75	646.5
942.7264	2128.0695	1527.15	644.95
942.8621	2129.5956	1517	640.5
942.9977	2131.1211	1529.15	646.6
943.1333	2132.6458	1520.1	642.9
943.2689	2134.1698	1518.8	640.15
943.4044	2135.693	1515.2	635.4
943.54	2137.2155	1517	636.95
943.6755	2138.7373	1504.55	627.3
943.8109	2140.2584	1505.9	628.1
943.9464	2141.7787	1519.1	635.9
944.0818	2143.2983	1502.7	625
944.2172	2144.8171	1499.25	622.45
944.3526	2146.3353	1506.4	627.35
944.4879	2147.8527	1501.3	624.35
944.6232	2149.3693	1504.4	625.5
944.7585	2150.8853	1505.25	629.35
944.8938	2152.4005	1498.6	618.7
945.029	2153.9149	1501.1	621.55
945.1642	2155.4287	1492.35	615.75
945.2994	2156.9417	1495.1	616.95
945.4346	2158.454	1498.9	618.55
945.5697	2159.9655	1495.45	619.15
945.7048	2161.4764	1492.7	613.2
945.8399	2162.9865	1484.45	606.4
945.9749	2164.4958	1489.75	613.65
946.1099	2166.0045	1489.45	607.7
946.2449	2167.5124	1477.4	602.55
946.3799	2169.0195	1481.5	604.55
946.5148	2170.526	1481.25	602.9
946.6498	2172.0317	1482.8	605.1
946.7846	2173.5367	1478.8	601.8
946.9195	2175.0409	1482.2	605.95
947.0543	2176.5445	1477.35	600.3
947.1891	2178.0473	1475.05	597.3
947.3239	2179.5494	1477.6	595.65
947.4587	2181.0507	1480.25	601.15
947.5934	2182.5513	1474.45	595.95
947.7281	2184.0512	1473.9	596.9
947.8628	2185.5504	1467.45	591.2
947.9974	2187.0488	1465.75	589
948.132	2188.5465	1472.8	595.05
948.2666	2190.0435	1472.35	593.55
948.4012	2191.5397	1467.7	590
948.5357	2193.0353	1468.5	591.5
948.6702	2194.5301	1469.2	589.65
948.8047	2196.0241	1456.05	577.65
948.9392	2197.5175	1456.55	582.1
949.0736	2199.0101	1463.05	582.2
949.208	2200.502	1458.65	582.5
949.3424	2201.9931	1459.45	580.15
949.4767	2203.4835	1457.35	577.4
949.611	2204.9733	1467.05	572.5
949.7453	2206.4622	1449.1	573.05
949.8796	2207.9505	1446.85	568.85
950.0138	2209.438	1453.15	575.7
950.148	2210.9248	1452.9	575.5
950.2822	2212.4109	1443.9	566.95
950.4164	2213.8962	1448.5	568.2
950.5505	2215.3809	1446	567.65
950.6846	2216.8648	1436.85	558.85
950.8186	2218.3479	1440.3	557.2
950.9527	2219.8304	1437.25	556.7
951.0867	2221.3121	1438.65	558.7
951.2207	2222.7931	1427.25	549.1
951.3546	2224.2733	1428.15	551.25
951.4886	2225.7529	1432.6	554.2
951.6225	2227.2317	1427.15	547.05
951.7563	2228.7098	1419.75	543.1
951.8902	2230.1872	1417.7	540.65
952.024	2231.6638	1413.75	535.5
952.1578	2233.1397	1423.2	539.55
952.2916	2234.6149	1417.35	537.4
952.4253	2236.0894	1413.25	534.75
952.559	2237.5632	1430.55	544.35
952.6927	2239.0362	1407.55	530.65
952.8263	2240.5085	1418.35	541
952.9599	2241.9801	1408.85	527.3
953.0935	2243.4509	1412.55	536.05
953.2271	2244.921	1401.3	523.45
953.3606	2246.3904	1402.6	522.55
953.4941	2247.8591	1407.75	530.65
953.6276	2249.3271	1397.25	519.85
953.7611	2250.7943	1398.95	522
953.8945	2252.2608	1388.05	510.5
954.0279	2253.7266	1390.65	512.55
954.1612	2255.1917	1392.05	515.9
954.2946	2256.656	1388.1	508.9
954.4279	2258.1197	1391.45	514.9
954.5612	2259.5826	1390.25	509.45
954.6944	2261.0447	1400.05	521.55
954.8276	2262.5062	1386.15	507
954.9608	2263.9669	1386.1	506.75
955.094	2265.4269	1380.65	502.2
955.2271	2266.8862	1382.35	504
955.3602	2268.3448	1387.5	509.8
955.4933	2269.8026	1384.2	506.65
955.6264	2271.2598	1384.55	505.2
955.7594	2272.7162	1383.4	507.3
955.8924	2274.1719	1378.7	500.9
956.0253	2275.6268	1371.7	493.6
956.1583	2277.0811	1376.4	498.3
956.2912	2278.5346	1373.6	497.1
956.4241	2279.9874	1382.75	504.55
956.5569	2281.4395	1373.1	497.35
956.6897	2282.8908	1378.65	495.9
956.8225	2284.3414	1378.45	499.8
956.9553	2285.7914	1371.4	493.95
957.088	2287.2406	1372.45	490.6
957.2207	2288.689	1370.1	493.05
957.3534	2290.1368	1374.45	498.15
957.486	2291.5838	1373.9	494.55
957.6186	2293.0302	1367.7	489.25
957.7512	2294.4758	1366	488.9
957.8838	2295.9206	1373.4	493.45
958.0163	2297.3648	1376.9	497.55
958.1488	2298.8082	1368.2	488.25
958.2813	2300.251	1365.4	487.6
958.4137	2301.693	1365.15	484.25
958.5461	2303.1343	1363.4	485.6
958.6785	2304.5748	1364.85	487.55
958.8108	2306.0147	1356.9	479.9
958.9432	2307.4538	1358.25	476.15
959.0754	2308.8922	1355.75	478.2
959.2077	2310.3299	1346.95	470.05
959.3399	2311.7669	1352.85	475.4
959.4721	2313.2031	1351	473.5
959.6043	2314.6387	1352.85	475.05
959.7365	2316.0735	1357.3	480.05
959.8686	2317.5076	1354.55	476.25
960.0006	2318.941	1352.2	472.25
960.1327	2320.3737	1354.65	475.6
960.2647	2321.8056	1350.55	471.75
960.3967	2323.2369	1351.1	472.15
960.5287	2324.6674	1350.55	470.3
960.6606	2326.0972	1349.7	471
960.7925	2327.5263	1353.95	477.05
960.9244	2328.9547	1348.95	468.4
961.0562	2330.3823	1345.85	465.95
961.1881	2331.8092	1344.5	463.05
961.3198	2333.2355	1336.6	459.3
961.4516	2334.661	1333.1	455.7
961.5833	2336.0858	1338.45	459.05
961.715	2337.5098	1332.55	455.4
961.8467	2338.9332	1341.6	463.35
961.9783	2340.3558	1339.75	457.6
962.1099	2341.7778	1335.85	457.75
962.2415	2343.199	1332.4	453.35
962.373	2344.6195	1331.7	451.55
962.5045	2346.0393	1331.15	454.2
962.636	2347.4583	1331.15	452.5
962.7675	2348.8767	1330.15	451
962.8989	2350.2943	1330.25	451.2
963.0303	2351.7113	1328.15	448.45
963.1617	2353.1275	1324.6	446.05
963.293	2354.543	1337.7	452.15
963.4243	2355.9578	1325.4	445.7
963.5556	2357.3718	1326.95	449.4
963.6868	2358.7852	1330.75	449.95
963.818	2360.1978	1324.6	445.45
963.9492	2361.6098	1310.4	432.5
964.0803	2363.021	1327.3	445.2
964.2114	2364.4315	1317.2	438.1
964.3425	2365.8413	1324.65	444.95
964.4736	2367.2504	1322.7	444.95
964.6046	2368.6587	1321.5	443.45
964.7356	2370.0664	1319.1	439.1
964.8666	2371.4733	1321.8	444.65
964.9975	2372.8795	1312.65	436.65
965.1284	2374.285	1317.8	438.1
965.2593	2375.6899	1318.5	441.35
965.3901	2377.0939	1307.7	429.7
965.5209	2378.4973	1315.35	438.5
965.6517	2379.9	1311.35	433
965.7825	2381.3019	1314.7	436.2
965.9132	2382.7032	1312.45	434.7
966.0439	2384.1037	1306.95	429.7
966.1745	2385.5035	1309.1	430.3
966.3051	2386.9027	1303.85	427.65
966.4357	2388.3011	1306.95	425.6
966.5663	2389.6987	1303.55	425.35
966.6968	2391.0957	1299.25	419.95
966.8273	2392.492	1293.7	415.95
966.9578	2393.8876	1290.35	410.7
967.0882	2395.2824	1294.05	415.85
967.2186	2396.6765	1285.6	408.65
967.349	2398.07	1289.35	411.45
967.4793	2399.4627	1295.5	415.35
967.6097	2400.8547	1286.35	408.05
967.7399	2402.246	1292.65	408.55
967.8702	2403.6366	1283.65	404.5
968.0004	2405.0265	1286.2	407.15
968.1306	2406.4156	1294.25	409.1
968.2607	2407.8041	1291.4	411.15
968.3909	2409.1918	1284.2	401.45
968.521	2410.5789	1284.45	406.25
968.651	2411.9652	1283.4	400.35
968.781	2413.3508	1288.3	409.75
968.911	2414.7358	1282.2	403.75
969.041	2416.12	1278.4	401.2
969.1709	2417.5035	1276.7	398.95
969.3008	2418.8863	1277.35	398.05
969.4307	2420.2684	1277.7	400.45
969.5606	2421.6497	1280.85	399.7
969.6904	2423.0304	1270.55	394.2
969.8201	2424.4104	1272.95	393.5
969.9499	2425.7896	1275.4	395
970.0796	2427.1682	1268.85	389.35
970.2093	2428.546	1266.4	384.95
970.3389	2429.9232	1269.25	388.95
970.4685	2431.2996	1268.2	388.85
970.5981	2432.6753	1276.45	398.95
970.7277	2434.0503	1270.15	391.65
970.8572	2435.4246	1268.5	391.9
970.9867	2436.7982	1268.4	385.85
971.1161	2438.1711	1268.8	391.45
971.2456	2439.5433	1264.9	386.15
971.375	2440.9148	1270.9	391.1
971.5043	2442.2856	1262.1	383.2
971.6336	2443.6557	1268.75	388.7
971.7629	2445.025	1262.55	385.75
971.8922	2446.3937	1257.8	378.45
972.0214	2447.7617	1262.7	384.25
972.1506	2449.1289	1253.05	373.65
972.2798	2450.4955	1257.05	375.6
972.4089	2451.8613	1256.3	377.45
972.538	2453.2265	1258.1	381.35
972.6671	2454.5909	1262.15	382.65
972.7961	2455.9546	1249.65	371.85
972.9251	2457.3177	1250.35	372.3
973.0541	2458.68	1249.25	368.25
973.1831	2460.0416	1250.95	372.9
973.312	2461.4025	1257.75	377.85
973.4408	2462.7627	1261.35	371.4
973.5697	2464.1222	1252.3	375.1
973.6985	2465.4811	1254.15	374.6
973.8273	2466.8392	1242.95	362.9
973.956	2468.1966	1249.35	369.45
974.0847	2469.5533	1249.2	367.65
974.2134	2470.9093	1253.75	374.55
974.3421	2472.2645	1253.45	371.2
974.4707	2473.6191	1243.95	366.3
974.5993	2474.973	1247.55	370.45
974.7278	2476.3262	1248.1	366.15
974.8563	2477.6787	1246.3	368.45
974.9848	2479.0305	1243.4	365.6
975.1132	2480.3816	1246.65	366.55
975.2417	2481.7319	1255.45	379
975.37	2483.0816	1248.15	369.15
975.4984	2484.4306	1245.05	366.45
975.6267	2485.7789	1246.2	367.55
975.755	2487.1264	1244.6	366.6
975.8833	2488.4733	1242.9	368.95
976.0115	2489.8195	1252.55	367.55
976.1397	2491.165	1247.1	364.8
976.2678	2492.5097	1242.75	361.9
976.3959	2493.8538	1243.4	364.65
976.524	2495.1972	1236.1	358.05
976.6521	2496.5398	1242.4	363.7
976.7801	2497.8818	1243.2	363.45
976.9081	2499.2231	1235.4	359.1
977.036	2500.5637	1236.75	357.6
977.164	2501.9035	1239	360.8
977.2918	2503.2427	1241.6	359
977.4197	2504.5812	1240.3	361.85
977.5475	2505.919	1239.4	358.45
977.6753	2507.256	1237.35	357.6
977.8031	2508.5924	1232.9	355.55
977.9308	2509.9281	1244.4	360.3
978.0585	2511.2631	1235.25	359
978.1861	2512.5974	1235.75	358.2
978.3137	2513.9309	1230.75	352.15
978.4413	2515.2638	1254.15	348.5
978.5689	2516.596	1230.2	351.35
978.6964	2517.9275	1228.75	346.7
978.8239	2519.2583	1230.65	350.15
978.9513	2520.5884	1227.4	347.85
979.0788	2521.9178	1232.7	353.85
979.2062	2523.2465	1224.2	345.95
979.3335	2524.5745	1225.65	347.05
979.4608	2525.9018	1225.05	348.4
979.5881	2527.2284	1227.85	350.35
979.7154	2528.5543	1220.35	344.25
979.8426	2529.8796	1223.25	345.75
979.9698	2531.2041	1217.95	338.95
980.0969	2532.5279	1225.75	348.7
980.224	2533.851	1219.8	341.3
980.3511	2535.1735	1219.85	342.3
980.4781	2536.4952	1221.05	344.45
980.6052	2537.8163	1217.3	339.3
980.7321	2539.1366	1216.2	338.8
980.8591	2540.4562	1216.35	337.3
980.986	2541.7752	1216.35	338.45
981.1129	2543.0935	1213.85	335.9
981.2397	2544.411	1213.9	334.5
981.3665	2545.7279	1214.8	335.7
981.4933	2547.0441	1210.55	329.4
981.62	2548.3596	1219.7	340.2
981.7467	2549.6744	1206.9	329.1
981.8734	2550.9885	1217.85	331.8
982.0001	2552.3019	1212.7	335.25
982.1267	2553.6146	1213	333.35
982.2532	2554.9266	1210.45	330.65
982.3798	2556.2379	1207.9	328.05
982.5063	2557.5485	1204.9	327.55
982.6327	2558.8585	1215.3	330.85
982.7592	2560.1677	1209.1	327.45
982.8856	2561.4762	1205.25	327.15
983.0119	2562.7841	1204.5	324.4
983.1383	2564.0913	1200.55	322.95
983.2646	2565.3977	1203.1	325
983.3908	2566.7035	1205.35	326.9
983.517	2568.0086	1212.45	332.7
983.6432	2569.313	1208.8	330.5
983.7694	2570.6167	1206.6	323.7
983.8955	2571.9197	1204.95	327.5
984.0216	2573.222	1205.85	326.95
984.1476	2574.5236	1203.3	323.05
984.2737	2575.8246	1205.1	325.35
984.3996	2577.1248	1206.5	325.45
984.5256	2578.4244	1203.8	325
984.6515	2579.7232	1203.25	323.45
984.7774	2581.0214	1230	324.75
984.9032	2582.3189	1195.65	319.2
985.029	2583.6157	1208.9	325.25
985.1548	2584.9118	1202.1	322
985.2806	2586.2072	1209.35	331.45
985.4063	2587.5019	1212.55	333.75
985.5319	2588.7959	1203.5	325.95
985.6576	2590.0893	1206.2	324.75
985.7832	2591.3819	1208.35	331.3
985.9087	2592.6739	1205.1	327.2
986.0343	2593.9652	1205.85	326.4
986.1597	2595.2557	1212.7	335.5
986.2852	2596.5456	1215.55	336.8
986.4106	2597.8348	1213.9	336.6
986.536	2599.1234	1211	333.2
986.6614	2600.4112	1214.8	335.45
986.7867	2601.6983	1222.85	341.9
986.912	2602.9848	1217.95	339.7
987.0372	2604.2705	1227.3	343.55
987.1624	2605.5556	1211.95	333.8
987.2876	2606.84	1218.95	342.4
987.4128	2608.1237	1210.2	331.1
987.5379	2609.4067	1214.2	338.1
987.6629	2610.689	1218.35	329.35
987.788	2611.9707	1210.7	328.8
987.913	2613.2516	1212.6	329.4
988.0379	2614.5319	1205.25	327.2
988.1629	2615.8115	1201.15	322.45
988.2878	2617.0903	1201.05	322.85
988.4126	2618.3685	1198.95	318.9
988.5375	2619.6461	1193.5	315.6
988.6622	2620.9229	1198.15	323.1
988.787	2622.199	1199.95	321.35
988.9117	2623.4745	1191.1	311.75
989.0364	2624.7493	1202	323.1
989.161	2626.0234	1190.3	312.75
989.2857	2627.2968	1193.85	314.55
989.4102	2628.5695	1194.1	315.45
989.5348	2629.8415	1189.95	311.15
989.6593	2631.1128	1197	318.25
989.7837	2632.3835	1196.25	319.35
989.9082	2633.6535	1195.55	317.6
990.0326	2634.9228	1188.2	310.4
990.1569	2636.1914	1193.35	315.9
990.2812	2637.4593	1189.85	310.95
990.4055	2638.7265	1190.7	311.95
990.5298	2639.9931	1191.15	311
990.654	2641.259	1190.1	311.65
990.7782	2642.5242	1189.5	311
990.9023	2643.7887	1186.85	310.1
991.0264	2645.0525	1186.65	307.15
991.1505	2646.3156	1184.55	306.95
991.2745	2647.5781	1178.8	299
991.3985	2648.8398	1174.25	299.45
991.5225	2650.1009	1212.45	295.4
991.6464	2651.3613	1172.3	293.95
991.7703	2652.6211	1176.95	298.4
991.8942	2653.8801	1174	294.6
992.018	2655.1385	1173	291.25
992.1418	2656.3961	1176.3	299.25
992.2655	2657.6531	1173.4	296
992.3892	2658.9094	1168.8	291.15
992.5129	2660.1651	1169.55	291.3
992.6366	2661.42	1174.8	296.45
992.7602	2662.6743	1174.75	296.95
992.8837	2663.9279	1173.05	293
993.0073	2665.1808	1170.9	293
993.1307	2666.433	1181.1	305.05
993.2542	2667.6846	1179.05	301.15
993.3776	2668.9354	1184.05	302.2
993.501	2670.1856	1177.2	299.2
993.6244	2671.4351	1180.8	303.4
993.7477	2672.6839	1186.85	308.25
993.8709	2673.9321	1188.05	310.5
993.9942	2675.1795	1189.3	309.25
994.1174	2676.4263	1190.7	313.6
994.2405	2677.6724	1193.1	317.15
994.3637	2678.9179	1199.3	321.65
994.4868	2680.1626	1198.7	321.5
994.6098	2681.4067	1191.95	312.9
994.7328	2682.6501	1188.75	310.65
994.8558	2683.8928	1186.45	307.5
994.9788	2685.1348	1183.95	306.7
995.1017	2686.3761	1178.75	301.55
995.2245	2687.6168	1173.9	297.3
995.3474	2688.8568	1173.05	294.6
995.4702	2690.0961	1167.55	288.6
995.5929	2691.3348	1171.9	293.95
995.7156	2692.5727	1170.9	292.6
995.8383	2693.81	1158.75	280.75
995.961	2695.0466	1160.3	284.15
996.0836	2696.2826	1163.25	283.45
996.2062	2697.5178	1180.55	283.15
996.3287	2698.7524	1164.65	288.2
996.4512	2699.9863	1164.15	284.9
996.5737	2701.2195	1165.5	289.1
996.6961	2702.452	1173.65	294.15
996.8185	2703.6839	1175.35	297.35
996.9408	2704.9151	1176.95	299.2
997.0631	2706.1456	1178.4	300.1
997.1854	2707.3755	1182.55	304.8
997.3077	2708.6046	1185.3	304.55
997.4299	2709.8331	1187.45	309.7
997.552	2711.0609	1182.1	304.1
997.6742	2712.2881	1193.35	315.75
997.7963	2713.5145	1198.65	317.6
997.9183	2714.7403	1199.05	321.15
998.0403	2715.9654	1206.6	328.1
998.1623	2717.1899	1225.1	334.05
998.2842	2718.4136	1222.95	346.8
998.4062	2719.6367	1222.65	345.8
998.528	2720.8591	1242.2	356.3
998.6498	2722.0809	1240.65	362.05
998.7716	2723.3019	1252.2	370.25
998.8934	2724.5223	1250.75	371.15
999.0151	2725.7421	1252.05	373.15
999.1368	2726.9611	1245.35	365
999.2584	2728.1795	1233.65	353.7
999.38	2729.3972	1224.15	347.55
999.5016	2730.6142	1226.5	338.95
999.6231	2731.8306	1208.1	328.1
999.7446	2733.0462	1201	320.65
999.8661	2734.2612	1195.85	312.8
999.9875	2735.4756	1189.2	309.5
1000.1089	2736.6892	1184.25	305.15
1000.2302	2737.9022	1182.9	308.6
1000.3515	2739.1145	1181.4	302.45
1000.4728	2740.3262	1184.15	296.85
1000.594	2741.5372	1169.1	291.25
1000.7152	2742.7475	1166.05	286.6
1000.8363	2743.9571	1164.25	285.8
1000.9575	2745.1661	1156.35	272.25
1001.0785	2746.3744	1154.6	276.2
1001.1996	2747.582	1148.55	270.65
1001.3206	2748.7889	1141.9	259.9
1001.4415	2749.9952	1140.05	262.65
1001.5625	2751.2008	1140.75	262.9
1001.6833	2752.4057	1141.1	261.2
1001.8042	2753.61	1132.6	253.35
1001.925	2754.8136	1136	256.65
1002.0458	2756.0165	1131.55	254.35
1002.1665	2757.2188	1126.2	249.25
1002.2872	2758.4204	1130.15	251.75
1002.4078	2759.6213	1133.05	254.1
1002.5285	2760.8215	1139.75	256.1
1002.649	2762.0211	1137.05	256.35
1002.7696	2763.22	1131.85	250.35
1002.8901	2764.4182	1138.35	258.4
1003.0106	2765.6158	1131.95	255
1003.131	2766.8127	1128.35	248.25
1003.2514	2768.009	1121	243.05
1003.3717	2769.2045	1124.6	246.35
1003.492	2770.3994	1119.25	240.55
1003.6123	2771.5936	1119.45	242.6
1003.7325	2772.7872	1110.25	231.05
1003.8527	2773.9801	1113.25	233.8
1003.9729	2775.1723	1134.55	239.25
1004.093	2776.3639	1108.3	231.25
1004.2131	2777.5548	1115.2	234.7
1004.3331	2778.745	1120.8	239.35
1004.4531	2779.9346	1114.95	237.15
1004.5731	2781.1235	1113.2	233.75
1004.693	2782.3117	1111.55	232.6
1004.8129	2783.4992	1116.9	238.3
1004.9328	2784.6861	1112.9	234.65
1005.0526	2785.8723	1110.55	231.6
1005.1723	2787.0579	1118.1	240.4
1005.2921	2788.2428	1117.15	239.85
1005.4118	2789.427	1119.15	242.3
1005.5314	2790.6106	1116.7	237.45
1005.651	2791.7935	1120.75	243.25
1005.7706	2792.9757	1120.8	244.35
1005.8902	2794.1573	1123.25	243
1006.0097	2795.3382	1127.3	250.35
1006.1291	2796.5184	1124.8	248
1006.2485	2797.698	1124.6	246.2
1006.3679	2798.8769	1130.05	251.95
1006.4873	2800.0551	1128.65	249.7
1006.6066	2801.2327	1131	249.6
1006.7258	2802.4096	1133.25	255.6
1006.8451	2803.5859	1137	255.95
1006.9642	2804.7615	1144.2	266.9
1007.0834	2805.9364	1146.25	269.25
1007.2025	2807.1106	1151.05	275.4
1007.3216	2808.2842	1154.15	274.3
1007.4406	2809.4572	1159.1	281.8
1007.5596	2810.6294	1169.85	291.9
1007.6785	2811.801	1177.85	302.8
1007.7975	2812.972	1194.05	316.6
1007.9163	2814.1423	1202.85	323.9
1008.0352	2815.3119	1226.5	346.5
1008.154	2816.4808	1229.05	353.7
1008.2727	2817.6491	1263.25	381.65
1008.3914	2818.8167	1273.25	397.15
1008.5101	2819.9837	1315.75	435.2
1008.6288	2821.15	1349.9	473.2
1008.7474	2822.3157	1388.2	511.75
1008.8659	2823.4807	1437.4	559.95
1008.9844	2824.645	1491.35	611.55
1009.1029	2825.8086	1541.4	663.95
1009.2214	2826.9716	1598.5	721.5
1009.3398	2828.134	1647.35	769.35
1009.4581	2829.2957	1697.25	818.65
1009.5764	2830.4567	1747.3	871.75
1009.6947	2831.617	1780.3	902.7
1009.813	2832.7767	1784.55	907.65
1009.9312	2833.9358	1792.35	915.5
1010.0493	2835.0941	1783.55	904.45
1010.1675	2836.2519	1763.45	885.45
1010.2855	2837.4089	1739.05	861.2
1010.4036	2838.5653	1723.5	847.4
1010.5216	2839.7211	1693	816.1
1010.6396	2840.8761	1693.35	812.85
1010.7575	2842.0306	1671.35	795.3
1010.8754	2843.1843	1675.95	799.65
1010.9932	2844.3374	1683.6	808
1011.111	2845.4899	1700.3	822.65
1011.2288	2846.6417	1711.7	835.95
1011.3465	2847.7928	1724.05	848.4
1011.4642	2848.9433	1738.3	862.2
1011.5818	2850.0931	1751.1	874.95
1011.6995	2851.2422	1742.2	863.45
1011.817	2852.3907	1746.35	866.55
1011.9345	2853.5385	1753.65	875.45
1012.052	2854.6857	1789.8	887.05
1012.1695	2855.8323	1778	901.7
1012.2869	2856.9781	1792.8	915.2
1012.4042	2858.1233	1805.75	927.7
1012.5216	2859.2679	1830.05	952.7
1012.6389	2860.4118	1866	988.1
1012.7561	2861.555	1888.95	1007.3
1012.8733	2862.6976	1913.1	1033.45
1012.9905	2863.8395	1925.25	1045.65
1013.1076	2864.9808	1947.95	1070.05
1013.2247	2866.1214	1955.25	1079.05
1013.3417	2867.2614	1974.35	1097.1
1013.4587	2868.4007	1974.8	1096.7
1013.5757	2869.5393	1984.4	1106.8
1013.6926	2870.6773	2018.8	1136.4
1013.8095	2871.8146	2037	1155.95
1013.9263	2872.9513	2051.2	1170.7
1014.0431	2874.0874	2064.25	1185.9
1014.1599	2875.2227	2088.95	1209.9
1014.2766	2876.3574	2090.4	1212.55
1014.3933	2877.4915	2106.4	1228.6
1014.51	2878.6249	2103.45	1224.95
1014.6266	2879.7577	2140.3	1263.8
1014.7431	2880.8898	2175.3	1288.35
1014.8596	2882.0212	2175.95	1297.6
1014.9761	2883.152	2195.5	1317.95
1015.0925	2884.2821	2209.55	1332
1015.2089	2885.4116	2222.55	1344.75
1015.3253	2886.5405	2240.15	1364.35
1015.4416	2887.6686	2263.45	1382.55
1015.5579	2888.7962	2247.85	1370.85
1015.6741	2889.923	2251.6	1376.85
1015.7903	2891.0493	2247.65	1370.75
1015.9065	2892.1748	2249.2	1370.35
1016.0226	2893.2997	2249.8	1372.15
1016.1387	2894.424	2243.8	1366.5
1016.2547	2895.5476	2246.35	1367.7
1016.3707	2896.6706	2244.5	1366.8
1016.4866	2897.7929	2249.85	1373.05
1016.6025	2898.9145	2252.95	1375.3
1016.7184	2900.0355	2258.15	1381.1
1016.8342	2901.1559	2243.05	1365.55
1016.95	2902.2756	2251.55	1368.2
1017.0658	2903.3946	2219.4	1344.15
1017.1815	2904.513	2219.9	1339.55
1017.2971	2905.6308	2210.3	1333.7
1017.4127	2906.7479	2210.95	1332.2
1017.5283	2907.8643	2213.4	1337.5
1017.6439	2908.9801	2202.1	1325.6
1017.7594	2910.0953	2204.15	1326.75
1017.8748	2911.2098	2202.4	1321.4
1017.9902	2912.3236	2204.65	1319.9
1018.1056	2913.4368	2194	1314.55
1018.2209	2914.5494	2200.2	1321.6
1018.3362	2915.6613	2173.3	1289.4
1018.4515	2916.7725	2170.1	1290.2
1018.5667	2917.8831	2152.5	1275.3
1018.6819	2918.9931	2128.2	1247.45
1018.797	2920.1024	2104.45	1226.9
1018.9121	2921.211	2082.4	1203.45
1019.0271	2922.319	2071	1192.2
1019.1421	2923.4264	2058.9	1182.75
1019.2571	2924.5331	2049.65	1171.65
1019.372	2925.6391	2046.5	1170.95
1019.4869	2926.7445	2049.5	1172.15
1019.6017	2927.8493	2044	1166.9
1019.7165	2928.9534	2047.8	1170.75
1019.8313	2930.0569	2064.2	1184.5
1019.946	2931.1597	2066.2	1186.1
1020.0606	2932.2619	2078.4	1201.35
1020.1753	2933.3634	2088.15	1209.45
1020.2899	2934.4643	2104.5	1219.1
1020.4044	2935.5645	2109.4	1223.95
1020.5189	2936.6641	2114.2	1234.1
1020.6334	2937.763	2116.75	1240.4
1020.7478	2938.8613	2130.7	1251.45
1020.8622	2939.959	2110.95	1227.95
1020.9765	2941.056	2086.55	1210
1021.0908	2942.1523	2044	1165.35
1021.2051	2943.248	2000.3	1123
1021.3193	2944.3431	1945.7	1069.35
1021.4334	2945.4375	1881.35	1004.1
1021.5476	2946.5313	1838.6	960.55
1021.6617	2947.6244	1790.65	912.8
1021.7757	2948.7169	1735.95	858.8
1021.8897	2949.8087	1689.05	810.5
1022.0037	2950.8999	1649.85	771.9
1022.1176	2951.9904	1600.45	724.15
1022.2315	2953.0803	1570.6	692.15
1022.3453	2954.1696	1536.15	657.1
1022.4591	2955.2582	1511.9	634.15
1022.5728	2956.3462	1506.75	630.1
1022.6865	2957.4335	1490.8	614.25
1022.8002	2958.5202	1487.7	608.25
1022.9138	2959.6062	1484.05	608.5
1023.0274	2960.6916	1478.2	601.1
1023.141	2961.7764	1476.6	600.5
1023.2545	2962.8605	1480	601.45
1023.3679	2963.9439	1481.6	603.6
1023.4813	2965.0267	1482.45	603.8
1023.5947	2966.1089	1492.15	591.7
1023.708	2967.1905	1471.9	596.8
1023.8213	2968.2714	1457.5	580.7
1023.9346	2969.3516	1454.2	577.7
1024.0478	2970.4312	1460.5	575.6
1024.1609	2971.5102	1442.55	566.4
1024.274	2972.5885	1435.95	559.7
1024.3871	2973.6662	1455.2	574.8
1024.5002	2974.7432	1451.9	575.6
1024.6132	2975.8196	1459.85	583.05
1024.7261	2976.8954	1459.95	583.15
1024.839	2977.9705	1457.15	580.1
1024.9519	2979.045	1450.65	572.1
1025.0647	2980.1188	1452.05	574.35
1025.1775	2981.192	1443.1	567.5
1025.2902	2982.2645	1439.85	562.95
1025.4029	2983.3364	1417.7	542.9
1025.5156	2984.4077	1414.35	537.2
1025.6282	2985.4783	1394.15	508.2
1025.7407	2986.5483	1376.3	502.6
1025.8532	2987.6177	1360.75	481.7
1025.9657	2988.6864	1341.65	462.25
1026.0782	2989.7545	1333.25	453.55
1026.1906	2990.8219	1314.3	438.85
1026.3029	2991.8887	1297.3	418.35
1026.4152	2992.9548	1286.65	408.2
1026.5275	2994.0204	1262.65	388.4
1026.6397	2995.0852	1245.65	370.95
1026.7519	2996.1495	1222.15	343.4
1026.864	2997.2131	1207.6	329.7
1026.9761	2998.276	1186.75	309.6
1027.0882	2999.3383	1177.25	298.15
1027.2002	3000.4	1161.3	285.3
1027.3122	3001.4611	1145.95	266.85
1027.4241	3002.5215	1132.15	254.55
1027.536	3003.5812	1121.7	242.5
1027.6478	3004.6404	1111.5	234.4
1027.7596	3005.6989	1103.4	225.5
1027.8714	3006.7567	1100.9	224.1
1027.9831	3007.8139	1118.95	212.25
1028.0947	3008.8705	1086.45	209.25
1028.2064	3009.9264	1083.5	203.7
1028.3179	3010.9818	1075.15	198.95
1028.4295	3012.0364	1072.15	192.45
1028.541	3013.0905	1063.3	186.05
1028.6524	3014.1439	1062.35	184.65
1028.7638	3015.1966	1060.9	183.4
1028.8752	3016.2487	1055.2	179.4
1028.9865	3017.3002	1060.35	177.25
1029.0978	3018.3511	1052.45	177.55
1029.209	3019.4013	1048.4	171.75
1029.3202	3020.4509	1052.75	176.35
1029.4314	3021.4998	1048.55	172.4
1029.5425	3022.5481	1045.3	166.85
1029.6535	3023.5958	1045.7	167.95
1029.7645	3024.6428	1045.7	166.9
1029.8755	3025.6892	1042.05	164.6
1029.9864	3026.735	1040.4	161.95
1030.0973	3027.7802	1043.55	166.5
1030.2082	3028.8247	1044.9	168.9
1030.319	3029.8685	1042.15	165.1
1030.4297	3030.9118	1044.85	165.4
1030.5404	3031.9544	1038.95	162.55
1030.6511	3032.9963	1039.2	161.15
1030.7617	3034.0376	1038.35	161.1
1030.8723	3035.0783	1045.4	166.7
1030.9829	3036.1184	1042	161.6
1031.0934	3037.1578	1046.15	169.8
1031.2038	3038.1966	1043.55	164.4
1031.3142	3039.2348	1041.7	166.55
1031.4246	3040.2723	1051.3	165.75
1031.5349	3041.3092	1040.4	163.05
1031.6452	3042.3455	1046.95	170.05
1031.7554	3043.3811	1044.75	165.35
1031.8656	3044.4161	1049.85	170.95
1031.9758	3045.4505	1044.4	168.9
1032.0859	3046.4842	1051.9	171.55
1032.1959	3047.5173	1048.8	173
1032.3059	3048.5498	1048.1	170.55
1032.4159	3049.5816	1047.6	168.65
1032.5258	3050.6128	1049.5	172.4
1032.6357	3051.6434	1050.25	172.15
1032.7455	3052.6734	1053.2	176.25
1032.8553	3053.7027	1047.25	170.55
1032.9651	3054.7314	1051.4	175.45
1033.0748	3055.7594	1052.8	176.4
1033.1845	3056.7868	1051.5	173.1
1033.2941	3057.8136	1048.7	171.25
1033.4037	3058.8398	1052.4	176.15
1033.5132	3059.8653	1054.15	176
1033.6227	3060.8902	1059.7	183.5
1033.7321	3061.9145	1058	183.2
1033.8415	3062.9381	1061.3	183.35
1033.9509	3063.9612	1076.85	183.75
1034.0602	3064.9835	1064.6	187.45
1034.1694	3066.0053	1065.2	185.3
1034.2787	3067.0264	1065.95	188.55
1034.3878	3068.0469	1064.75	188.2
1034.497	3069.0668	1069.05	190
1034.6061	3070.086	1061.6	184.35
1034.7151	3071.1046	1062.7	184.95
1034.8241	3072.1226	1061.15	181.55
1034.9331	3073.1399	1057.3	180.05
1035.042	3074.1567	1057.7	180.85
1035.1508	3075.1727	1054.9	177.35
1035.2597	3076.1882	1046.9	171.4
1035.3684	3077.203	1044.15	164.25
1035.4772	3078.2173	1033.55	156
1035.5859	3079.2308	1031.5	150.45
1035.6945	3080.2438	1030	151.55
1035.8031	3081.2561	1022.05	143.5
1035.9117	3082.2678	1020.3	141.55
1036.0202	3083.2789	1016.8	138.6
1036.1286	3084.2893	1015.9	139.8
1036.2371	3085.2991	1011.55	134.35
1036.3454	3086.3083	1013.65	133.25
1036.4538	3087.3169	1007.05	128.6
1036.562	3088.3248	1005.25	126.3
1036.6703	3089.3321	1008.05	128.65
1036.7785	3090.3388	1000.65	122.75
1036.8866	3091.3449	997.65	121.5
1036.9948	3092.3503	1001.6	122.05
1037.1028	3093.3551	993.65	117.3
1037.2108	3094.3593	992.8	116.65
1037.3188	3095.3629	989.2	112.15
1037.4267	3096.3658	995.1	117.5
1037.5346	3097.3681	989.9	112.25
1037.6425	3098.3698	989.1	110.2
1037.7503	3099.3708	987.4	109.2
1037.858	3100.3713	985.2	108.6
1037.9657	3101.3711	985.2	107
1038.0734	3102.3702	1121.55	107.45
1038.181	3103.3688	983.65	103
1038.2886	3104.3667	978.25	102.35
1038.3961	3105.364	978.8	101.2
1038.5036	3106.3607	975.15	96
1038.611	3107.3568	976.15	97.6
1038.7184	3108.3522	974.05	95.9
1038.8257	3109.347	974.35	97.5
1038.933	3110.3412	977.4	96
1039.0403	3111.3348	969.35	95.2
1039.1475	3112.3277	967.45	91.45
1039.2547	3113.32	963.85	87.75
1039.3618	3114.3117	966.55	87.8
1039.4689	3115.3028	963.25	88.55
1039.5759	3116.2932	965.5	85.35
1039.6829	3117.2831	970.45	89.85
1039.7898	3118.2723	962.15	84.15
1039.8967	3119.2608	958.9	81.65
1040.0035	3120.2488	961.55	84.2
1040.1103	3121.2361	959.2	80.85
1040.2171	3122.2229	958.8	83.3
1040.3238	3123.209	954.15	78.95
1040.4305	3124.1944	955.05	77.15
1040.5371	3125.1793	956.5	76.75
1040.6437	3126.1635	954	77.6
1040.7502	3127.1471	952.25	76.2
1040.8567	3128.1301	948.05	69.35
1040.9631	3129.1125	950.1	73.85
1041.0695	3130.0942	949.6	70.55
1041.1759	3131.0753	955.3	68.85
1041.2822	3132.0558	950.85	73.4
1041.3884	3133.0357	947.65	67.8
1041.4946	3134.015	947.1	69.6
1041.6008	3134.9936	949.05	71.35
1041.7069	3135.9716	969.65	74.5
1041.813	3136.949	940.9	66.9
1041.919	3137.9258	961.5	63.75
1042.025	3138.902	948.05	66.55
1042.1309	3139.8775	939.8	61.25
1042.2368	3140.8524	939.15	60.75
1042.3427	3141.8267	942.6	64.15
1042.4485	3142.8004	940.35	62.25
1042.5542	3143.7735	950.25	67.95
1042.6599	3144.7459	942.9	63.15
1042.7656	3145.7178	939.4	61.05
1042.8712	3146.689	935.95	60.2
1042.9768	3147.6596	939.2	60.65
1043.0823	3148.6295	938.35	60.1
1043.1878	3149.5989	937.45	60.45
1043.2932	3150.5676	932.8	55.9
1043.3986	3151.5357	932.4	59.1
1043.5039	3152.5032	933.65	55.65
1043.6092	3153.4701	936.8	60.95
1043.7145	3154.4364	937.8	59.8
1043.8197	3155.402	934.95	57.15
1043.9248	3156.367	934.6	55.8
1044.03	3157.3315	971.1	58.85
1044.135	3158.2952	936.05	59.9
1044.24	3159.2584	930.4	54.25
1044.345	3160.221	929	53.15
1044.4499	3161.1829	929.75	52.9
1044.5548	3162.1442	928.3	51.4
1044.6596	3163.105	931.05	53.85
1044.7644	3164.065	931.75	55.3
1044.8692	3165.0245	931.5	50.15
1044.9739	3165.9834	928.45	53.7
1045.0785	3166.9416	928.3	49.3
1045.1831	3167.8993	928.95	49.6
1045.2877	3168.8563	927.5	52.1
1045.3922	3169.8127	927.1	50
1045.4966	3170.7684	928.15	50.75
1045.6011	3171.7236	927.2	49.8
1045.7054	3172.6782	926.85	49.95
1045.8098	3173.6321	926.5	48.45
1045.914	3174.5854	931.7	49.6
1046.0183	3175.5381	923.15	48
1046.1224	3176.4902	924.05	46.9
1046.2266	3177.4417	922.6	46.35
1046.3307	3178.3926	923.3	46.75
1046.4347	3179.3428	922.5	46.2
1046.5387	3180.2924	923.6	46.3
1046.6427	3181.2415	922.8	46
1046.7466	3182.1899	924.75	45.2
1046.8504	3183.1377	924.15	48.85
1046.9542	3184.0848	925.05	43.2
1047.058	3185.0314	922.5	47.5
1047.1617	3185.9773	920.5	44.65
1047.2654	3186.9227	921.15	43.1
1047.369	3187.8674	921.1	43.85
1047.4726	3188.8115	925.6	44.35
1047.5761	3189.755	922.5	46.2
1047.6796	3190.6979	917.35	42.6
1047.783	3191.6402	921.95	43.85
1047.8864	3192.5818	921.3	44.1
1047.9898	3193.5229	945.55	43.95
1048.0931	3194.4633	917.65	40.7
1048.1963	3195.4031	918.4	41.35
1048.2995	3196.3423	917.2	40.05
1048.4027	3197.2809	917.85	39.15
1048.5058	3198.2189	917.15	39.8
1048.6089	3199.1563	925.1	42.3
1048.7119	3200.0931	917.25	42.15
1048.8148	3201.0292	918.1	40.7
1048.9178	3201.9648	918.05	42.85
1049.0206	3202.8997	922.35	42.95
1049.1235	3203.834	915.75	39.4
1049.2262	3204.7677	915.3	38.4
1049.329	3205.7008	917.6	38.55
1049.4317	3206.6333	912.4	36.9
1049.5343	3207.5652	914.4	36.55
1049.6369	3208.4964	915.55	38.25
1049.7394	3209.4271	915.1	39.6
1049.8419	3210.3571	913.6	36.3
1049.9444	3211.2865	914	35.45
1050.0468	3212.2154	916.2	37.45
1050.1491	3213.1436	916.35	34.4
1050.2514	3214.0712	920.8	36.25
1050.3537	3214.9982	917	37.5
1050.4559	3215.9246	913.6	36.75
1050.5581	3216.8503	912.45	36.8
1050.6602	3217.7755	914.8	36.55
1050.7623	3218.7001	913.2	36.45
1050.8643	3219.624	912.35	35.1
1050.9663	3220.5473	912.1	34.65
1051.0682	3221.4701	911.05	31.85
1051.1701	3222.3922	913.65	32.55
1051.2719	3223.3137	911.25	34.3
1051.3737	3224.2346	912.2	35.65
1051.4754	3225.1549	910.1	34.6
1051.5771	3226.0746	909.15	32.85
1051.6788	3226.9937	913.45	36.55
1051.7804	3227.9121	911.05	36.4
1051.8819	3228.83	909.65	32.6
1051.9834	3229.7473	913	38.15
1052.0849	3230.6639	906.7	28.7
1052.1863	3231.5799	909.9	32.1
1052.2876	3232.4954	914.1	35.4
1052.3889	3233.4102	908.15	32.35
1052.4902	3234.3244	910.65	32.6
1052.5914	3235.238	909.1	33.6
1052.6926	3236.151	922.75	32.05
1052.7937	3237.0634	907.05	33.8
1052.8948	3237.9752	905	28.65
1052.9958	3238.8864	909.8	31.15
1053.0968	3239.797	907.5	30.5
1053.1977	3240.7069	907	29.4
1053.2986	3241.6163	910.4	33.3
1053.3994	3242.5251	906.65	32
1053.5002	3243.4332	905.15	29.4
1053.6009	3244.3408	906.2	29.8
1053.7016	3245.2477	905.85	31.1
1053.8022	3246.154	904.85	27.8
1053.9028	3247.0598	906.4	27.55
1054.0034	3247.9649	906.65	29.9
1054.1039	3248.8694	904.7	27.85
1054.2043	3249.7733	904.55	27.15
1054.3047	3250.6766	904.9	31.3
1054.4051	3251.5793	905.75	28.15
1054.5054	3252.4814	903.6	27.55
1054.6056	3253.3829	902.95	27.1
1054.7058	3254.2838	904.15	28.1
1054.806	3255.1841	904.05	28.35
1054.9061	3256.0838	903.55	24.55
1055.0061	3256.9829	903.3	26.5
1055.1062	3257.8814	906.85	27.55
1055.2061	3258.7792	904	23.25
1055.306	3259.6765	902.25	24
1055.4059	3260.5731	899	23.95
1055.5057	3261.4692	900.75	24.1
1055.6055	3262.3647	900.9	24.6
1055.7052	3263.2595	901	23.55
1055.8049	3264.1538	900.3	25.25
1055.9045	3265.0474	901.05	23.4
1056.0041	3265.9404	899.85	24.85
1056.1036	3266.8329	900.35	23.1
1056.2031	3267.7247	909.9	24.8
1056.3025	3268.616	899.95	23.6
1056.4019	3269.5066	897.35	21.1
1056.5013	3270.3966	898.7	20.35
1056.6005	3271.286	896.45	18.35
