Software Version:	3.9.2.0
Unit SN:	10000200
Spectrometer SN:	6960
Date:	3/8/2024 11:06:13 AM
Data Line Index:	25
Spectral Points:	2048
Integration time (ms):	125
Averages:	20
Delay (ms):	30000
Sequence Number:	1
Processing:	dark subtract
Laser Power (mW):	300
Laser Current (mA):	815
Laser Diode Temp (C):	25
Laser Case Temp (C):	24.2
System Temp (C):	24.1
Spectrometer Temp (C):	22.3
CCD Temp (C):	0.004
Secondary Temp (C):	20.007
Heatsink Temp (C):	18.699
CCDPCB Temp (C):	32.316
SecondaryPCB Temp (C):	25.669

Wavelength	RamanShift	Raw Counts	Dark Subtracted
787.061	30.1047	428.15	16.75
787.2016	32.3739	430.25	21.1
787.3422	34.6426	430.2	19.7
787.4828	36.9109	434.8	23
787.6235	39.1787	440.45	23.5
787.7642	41.4461	446.5	25.9
787.9049	43.7131	450.05	26.95
788.0456	45.9796	454.05	29
788.1863	48.2456	458.45	28.7
788.3271	50.5112	465.7	32.15
788.4679	52.7764	470.35	32.2
788.6087	55.0411	477.4	35.2
788.7496	57.3054	487	40.7
788.8904	59.5692	491.6	43.25
789.0313	61.8326	496.7	46.2
789.1722	64.0955	501.8	49
789.3132	66.3579	514.55	56
789.4541	68.6199	522.1	58.35
789.5951	70.8815	542.6	75.85
789.7361	73.1426	585.95	114.3
789.8771	75.4032	669.6	195.85
790.0181	77.6634	890.55	414.55
790.1592	79.9231	1414.7	935.7
790.3003	82.1824	2458.65	1975.95
790.4414	84.4412	4229.8	3740.55
790.5825	86.6995	6562.65	6068.35
790.7237	88.9574	8738.4	8238.3
790.8648	91.2148	10222.45	9717.1
791.006	93.4717	10914.55	10407.25
791.1472	95.7282	11074.15	10563.6
791.2885	97.9842	11019.5	10507.9
791.4297	100.2398	10871.3	10357.3
791.571	102.4949	10752.3	10237.3
791.7123	104.7495	10588.25	10067.6
791.8536	107.0036	10434.6	9913.85
791.9949	109.2573	10259.25	9737.95
792.1363	111.5105	10039	9516.65
792.2777	113.7632	9758.5	9232.1
792.4191	116.0154	9493.7	8956.4
792.5605	118.2672	9182.5	8652.95
792.7019	120.5185	8818.7	8285.1
792.8434	122.7693	8460.6	7927.05
792.9849	125.0197	8179.2	7637.55
793.1264	127.2696	7913.75	7372.2
793.2679	129.519	7747.75	7203.7
793.4094	131.7679	7604.3	7056.8
793.551	134.0163	7528.2	6979.55
793.6926	136.2642	7476.25	6922.15
793.8342	138.5117	7476.75	6919.7
793.9758	140.7587	7423.65	6868
794.1175	143.0052	7322.2	6760.95
794.2591	145.2512	7159.15	6597.05
794.4008	147.4967	6970.6	6406
794.5425	149.7417	6816.45	6249.05
794.6842	151.9863	6668.95	6098.05
794.826	154.2304	6622.85	6049
794.9677	156.4739	6547	5968.15
795.1095	158.717	6586.9	6006.2
795.2513	160.9596	6667.2	6082.4
795.3931	163.2017	6773.45	6187.25
795.535	165.4433	6854.4	6264.35
795.6768	167.6844	6876.25	6285.8
795.8187	169.925	6803.2	6209.95
795.9606	172.1651	6642.6	6043.65
796.1025	174.4047	6482.6	5881.8
796.2445	176.6439	6295.8	5692.15
796.3864	178.8825	6201.6	5595.9
796.5284	181.1206	6140.3	5529.45
796.6704	183.3582	6074.35	5458.4
796.8124	185.5954	6063.45	5446.7
796.9544	187.832	6075.6	5456.15
797.0965	190.0681	6057.85	5435.3
797.2386	192.3037	6068.35	5443
797.3806	194.5388	6076.35	5449.55
797.5228	196.7734	6113.25	5484.8
797.6649	199.0075	6141.55	5510
797.807	201.2411	6234.4	5603.1
797.9492	203.4742	6293.15	5658.65
798.0914	205.7068	6387.35	5749.8
798.2336	207.9389	6465.2	5828.65
798.3758	210.1704	6496.25	5864.25
798.518	212.4015	6498.5	5878.4
798.6603	214.632	6507.2	5889.35
798.8025	216.862	6525.3	5910.4
798.9448	219.0915	6548.3	5930.5
799.0871	221.3205	6613.2	5990.4
799.2294	223.549	6640.6	6024.2
799.3718	225.777	6662.25	6044.45
799.5141	228.0044	6653.25	6026.3
799.6565	230.2314	6627.55	5998.05
799.7989	232.4578	6581.4	5949.3
799.9413	234.6837	6543.7	5901.3
800.0837	236.909	6497	5857.35
800.2262	239.1339	6447.35	5782.95
800.3687	241.3582	6418.25	5768.05
800.5111	243.582	6420.75	5737.6
800.6536	245.8053	6418.45	5749.5
800.7961	248.0281	6447.85	5785.55
800.9387	250.2503	6458.45	5792.15
801.0812	252.472	6472.95	5804.6
801.2238	254.6932	6515.85	5845.4
801.3664	256.9139	6489.15	5818.9
801.509	259.134	6550.1	5875.75
801.6516	261.3536	6593.6	5921.75
801.7942	263.5727	6716.2	6043.9
801.9369	265.7912	6855.35	6180.75
802.0795	268.0092	7045.15	6372.15
802.2222	270.2267	7253.5	6579.85
802.3649	272.4436	7428.95	6750.7
802.5076	274.6601	7548.9	6861.4
802.6504	276.8759	7622.05	6939.25
802.7931	279.0913	7709.9	7025.75
802.9359	281.3061	7762.6	7077
803.0787	283.5204	7849.7	7162.8
803.2215	285.7341	7934.1	7243.5
803.3643	287.9473	8018.2	7327.3
803.5071	290.16	7997.25	7301.9
803.6499	292.3721	7893	7206.1
803.7928	294.5837	7716.6	7026.35
803.9357	296.7947	7561.95	6872.25
804.0786	299.0052	7476.05	6784.9
804.2215	301.2152	7422.85	6727.4
804.3644	303.4246	7396.3	6705.8
804.5074	305.6334	7353.6	6662.15
804.6503	307.8418	7343.85	6645.3
804.7933	310.0495	7276.75	6581
804.9363	312.2568	7178.85	6481.8
805.0793	314.4635	7013.45	6314.6
805.2223	316.6696	6855.95	6155.15
805.3653	318.8752	6670.4	5961.3
805.5084	321.0802	6575.75	5871
805.6514	323.2847	6538.05	5833.75
805.7945	325.4887	6542.7	5835.95
805.9376	327.692	6587.45	5879.1
806.0807	329.8949	6728.05	6020
806.2238	332.0972	6889.35	6178.9
806.367	334.2989	7069.9	6354.4
806.5101	336.5001	7109.6	6393.95
806.6533	338.7007	7021.35	6307.2
806.7965	340.9008	6824.05	6105.8
806.9397	343.1003	6606.9	5886.9
807.0829	345.2992	6398.8	5678.35
807.2261	347.4976	6238.35	5516.35
807.3693	349.6955	6112.2	5388.15
807.5126	351.8927	6032.1	5305.85
807.6559	354.0895	5982.55	5245.1
807.7991	356.2856	5935	5207.1
807.9424	358.4812	5897.3	5169.15
808.0857	360.6763	5895.9	5164.15
808.2291	362.8707	5855.5	5122.3
808.3724	365.0646	5864.3	5126.45
808.5158	367.258	5873.05	5136.45
808.6591	369.4508	5897.05	5155.45
808.8025	371.643	6015.2	5274.75
808.9459	373.8346	6098.25	5357.3
809.0893	376.0257	6236.2	5491.55
809.2327	378.2162	6366.45	5622
809.3762	380.4062	6428.45	5684.2
809.5196	382.5956	6352.7	5609.9
809.6631	384.7844	6263.75	5525.05
809.8066	386.9726	6061	5323.65
809.9501	389.1603	5938.5	5204.7
810.0936	391.3474	5866.3	5088.7
810.2371	393.5339	5845.3	5105.75
810.3806	395.7199	5866.1	5126.7
810.5241	397.9052	5944.45	5207.8
810.6677	400.09	6077.45	5337.5
810.8113	402.2743	6272.7	5530.5
810.9548	404.4579	6394.55	5650.65
811.0984	406.641	6537.4	5790.35
811.2421	408.8235	6657.25	5911.85
811.3857	411.0054	6809.35	6062.95
811.5293	413.1868	6894.2	6140.25
811.673	415.3675	6877.6	6121.9
811.8166	417.5477	6842.25	6085.5
811.9603	419.7273	6765.1	6006.25
812.104	421.9064	6669.4	5903
812.2477	424.0848	6497.55	5737.4
812.3914	426.2627	6269.65	5508.75
812.5351	428.4399	6048.25	5285.85
812.6788	430.6166	5850.5	5085.1
812.8226	432.7928	5704.75	4940.05
812.9663	434.9683	5580.15	4812.8
813.1101	437.1432	5481.1	4711.7
813.2539	439.3176	5432.7	4663.1
813.3977	441.4914	5368.65	4600.95
813.5415	443.6645	5352.7	4583
813.6853	445.8371	5335.4	4567.4
813.8291	448.0091	5332	4563.15
813.973	450.1806	5322.35	4552.7
814.1168	452.3514	5311.35	4539.5
814.2607	454.5216	5351.1	4570.3
814.4046	456.6913	5340.25	4565.5
814.5485	458.8603	5340.4	4567.65
814.6924	461.0288	5363.8	4591.6
814.8363	463.1967	5351.5	4577.65
814.9802	465.3639	5347.9	4573.35
815.1241	467.5306	5334	4559.5
815.2681	469.6967	5296.55	4521.75
815.412	471.8622	5278.75	4502.95
815.556	474.0271	5258.6	4481.15
815.7	476.1914	5244.75	4466.1
815.844	478.3551	5242.05	4465.05
815.988	480.5182	5234.15	4456.45
816.132	482.6807	5240.45	4459.3
816.276	484.8426	5295.9	4515.35
816.4201	487.0039	5449.9	4670.15
816.5641	489.1647	5639.35	4855.5
816.7082	491.3248	5825.85	5046.4
816.8522	493.4843	5877.55	5094.75
816.9963	495.6432	5833.55	5051.25
817.1404	497.8015	5732.9	4945.9
817.2845	499.9592	5570.7	4786.2
817.4286	502.1163	5376.85	4590.65
817.5727	504.2728	5211.55	4424.5
817.7168	506.4287	5134.7	4348.95
817.861	508.5839	5076	4288.45
818.0051	510.7386	5035.25	4247.25
818.1493	512.8927	5026.25	4229.35
818.2935	515.0461	5051.95	4260.7
818.4377	517.199	5116.75	4328.05
818.5818	519.3512	5256.8	4466.8
818.726	521.5029	5517	4719.35
818.8703	523.6539	5759.65	4967.7
819.0145	525.8043	5807.25	5014.3
819.1587	527.9541	5625.15	4829
819.303	530.1033	5350.85	4556.45
819.4472	532.2519	5173.8	4379.6
819.5915	534.3999	5058.65	4260.15
819.7357	536.5472	5015.25	4221
819.88	538.694	5009.55	4213.7
820.0243	540.8401	5059.25	4261.35
820.1686	542.9856	5118.7	4317.45
820.3129	545.1305	5191.3	4391.15
820.4572	547.2748	5216.6	4415.05
820.6016	549.4185	5247.6	4445.65
820.7459	551.5615	5281.35	4482.7
820.8902	553.704	5323.55	4522.9
821.0346	555.8458	5372.4	4573.35
821.1789	557.987	5444.8	4645.8
821.3233	560.1276	5572	4769.55
821.4677	562.2675	5812.05	5014.4
821.6121	564.4069	6142.15	5342.05
821.7565	566.5456	6306.3	5507.55
821.9009	568.6837	6216.2	5415.45
822.0453	570.8212	5880.9	5078.1
822.1897	572.958	5516.8	4714.9
822.3342	575.0942	5251.2	4448
822.4786	577.2299	5123.5	4320.9
822.6231	579.3648	5031.65	4228.35
822.7675	581.4992	4992.7	4188.55
822.912	583.6329	5040.6	4236.1
823.0565	585.766	5141.45	4335.55
823.201	587.8985	5295.5	4489.55
823.3454	590.0304	5487.9	4669.3
823.4899	592.1616	5651.7	4840.85
823.6345	594.2922	5711.35	4902.75
823.779	596.4222	5611.9	4800.3
823.9235	598.5515	5394.4	4583
824.068	600.6802	5158.35	4347.55
824.2126	602.8083	4972.1	4161.2
824.3571	604.9358	4883	4071.05
824.5017	607.0626	4864.65	4053.85
824.6462	609.1888	4879.95	4068.2
824.7908	611.3144	4943.3	4129
824.9354	613.4393	5107.15	4294.1
825.08	615.5636	5314.25	4499.35
825.2246	617.6873	5492.4	4678.75
825.3692	619.8103	5624.25	4809.3
825.5138	621.9327	5660.05	4841.75
825.6584	624.0544	5557.45	4741.5
825.803	626.1756	5320.65	4506.4
825.9477	628.2961	5095.1	4279.85
826.0923	630.4159	4952.45	4134.5
826.237	632.5351	4933.4	4117.85
826.3816	634.6537	4905.65	4088.6
826.5263	636.7716	4874.1	4053.8
826.6709	638.8889	4884	4065.85
826.8156	641.0056	4910.5	4090.15
826.9603	643.1216	4962.25	4141.05
827.105	645.237	5007.3	4186.55
827.2497	647.3518	4934.4	4115.3
827.3944	649.4659	4817.25	3997.15
827.5391	651.5793	4705	3884.75
827.6838	653.6922	4664.7	3842.4
827.8285	655.8043	4612.3	3791.25
827.9733	657.9159	4581.45	3759.55
828.118	660.0268	4550.4	3725.55
828.2627	662.137	4535.8	3712.95
828.4075	664.2466	4550.5	3725.4
828.5522	666.3556	4536.05	3711.25
828.697	668.4639	4525.6	3698.5
828.8418	670.5716	4495.7	3671.95
828.9865	672.6786	4472.35	3646.05
829.1313	674.785	4428.9	3603.6
829.2761	676.8907	4417.95	3592.55
829.4209	678.9958	4428.15	3604.3
829.5657	681.1002	4414.5	3586.5
829.7105	683.204	4413.25	3581.8
829.8553	685.3072	4422.1	3592.85
830.0001	687.4097	4409.85	3580.8
830.1449	689.5115	4421.25	3591
830.2898	691.6127	4400.8	3572.05
830.4346	693.7132	4379.7	3550.4
830.5794	695.8131	4405.6	3562.75
830.7243	697.9123	4403.4	3571.8
830.8691	700.0109	4398.3	3567.25
831.014	702.1089	4435.5	3605.15
831.1588	704.2061	4489.3	3658.55
831.3037	706.3028	4572.75	3740.45
831.4486	708.3987	4672.4	3842.4
831.5935	710.4941	4734.65	3901.55
831.7383	712.5887	4764.55	3932
831.8832	714.6827	4732.5	3896.8
832.0281	716.7761	4679.55	3845.8
832.173	718.8688	4670.6	3835.3
832.3179	720.9608	4662.95	3826.05
832.4628	723.0522	4674.8	3837.55
832.6077	725.1429	4741.05	3907.45
832.7527	727.233	4850.95	4015.55
832.8976	729.3224	5076.5	4242.6
833.0425	731.4112	5296.6	4460.25
833.1874	733.4993	5392.7	4555.2
833.3324	735.5867	5258	4420.8
833.4773	737.6735	4972.75	4133.7
833.6222	739.7596	4716.95	3878.55
833.7672	741.845	4547.4	3709.85
833.9122	743.9298	4473.45	3634.2
834.0571	746.014	4459.4	3622.95
834.2021	748.0974	4469.3	3628.8
834.347	750.1802	4459.6	3619.35
834.492	752.2624	4457.25	3618.95
834.637	754.3439	4453.55	3612.1
834.782	756.4247	4484.6	3637.1
834.9269	758.5048	4490.65	3652.2
835.0719	760.5843	4583.85	3743
835.2169	762.6631	4677.05	3837.8
835.3619	764.7413	4889.6	4049.7
835.5069	766.8188	5206.95	4366.3
835.6519	768.8956	5517.55	4676.25
835.7969	770.9718	5777.8	4938.2
835.9419	773.0473	5767.75	4928
836.0869	775.1221	5604.8	4764.9
836.232	777.1962	5521.95	4680.7
836.377	779.2697	5745.95	4903.3
836.522	781.3426	6146.2	5286.5
836.667	783.4147	6480.45	5638.05
836.8121	785.4862	6508.8	5667.1
836.9571	787.557	6193.3	5351.05
837.1021	789.6271	5713.25	4869.85
837.2472	791.6966	5232.6	4389.55
837.3922	793.7654	4822.7	3977.2
837.5373	795.8335	4582.65	3739.8
837.6823	797.901	4434.1	3589.8
837.8274	799.9678	4377.65	3531.35
837.9724	802.0339	4382.4	3540.75
838.1175	804.0993	4423.95	3569.4
838.2626	806.1641	4403.05	3558.1
838.4076	808.2282	4347	3501.5
838.5527	810.2916	4293.15	3446.2
838.6978	812.3544	4223.3	3381.3
838.8428	814.4164	4198.65	3353.8
838.9879	816.4778	4200.4	3353.85
839.133	818.5385	4238.6	3391.5
839.2781	820.5986	4373.05	3525.5
839.4232	822.658	4575.3	3727.65
839.5682	824.7166	4818.5	3969.4
839.7133	826.7747	5115.55	4269.1
839.8584	828.832	5428.75	4581.55
840.0035	830.8886	5645.15	4796.3
840.1486	832.9446	5767.3	4919.2
840.2937	834.9999	5706.5	4857.75
840.4388	837.0545	5477.55	4625.55
840.5839	839.1085	5143.45	4293.7
840.729	841.1618	4814.7	3962.2
840.8741	843.2143	4608.1	3758.4
841.0192	845.2662	4452.65	3604
841.1643	847.3175	4392.15	3544.05
841.3095	849.368	4357.95	3510.6
841.4546	851.4179	4318	3467.55
841.5997	853.467	4325.45	3476.3
841.7448	855.5155	4362.3	3513.5
841.8899	857.5633	4372.85	3522.5
842.0351	859.6105	4363.5	3513.35
842.1802	861.6569	4321.9	3472.2
842.3253	863.7027	4259.75	3407.05
842.4704	865.7478	4217.05	3367.9
842.6156	867.7922	4165.3	3314.6
842.7607	869.8359	4123.65	3270.9
842.9058	871.8789	4094.35	3242.3
843.0509	873.9212	4102.9	3219.3
843.1961	875.9629	4095.85	3245.4
843.3412	878.0039	4142.6	3288.05
843.4863	880.0441	4208.35	3357.65
843.6315	882.0837	4267.3	3413.5
843.7766	884.1226	4344.95	3489.95
843.9218	886.1609	4486.7	3633.8
844.0669	888.1984	4669.6	3816.3
844.212	890.2352	4870.55	4018.25
844.3572	892.2714	4946.75	4090.2
844.5023	894.3069	4850.1	3997.15
844.6475	896.3416	4644.55	3790.65
844.7926	898.3757	4454.8	3601.15
844.9377	900.4091	4341.55	3486.6
845.0829	902.4418	4344.95	3485.15
845.228	904.4739	4450.85	3592.3
845.3732	906.5052	4559.8	3702.55
845.5183	908.5358	4561.8	3707.45
845.6635	910.5658	4499.8	3643.75
845.8086	912.595	4365	3510.1
845.9538	914.6236	4221.8	3365.1
846.0989	916.6515	4111.9	3255.5
846.2441	918.6786	4042.1	3183.5
846.3892	920.7051	3990.95	3135.5
846.5344	922.7309	3986.25	3130.35
846.6795	924.756	3985.75	3129.8
846.8246	926.7804	4033.1	3173.15
846.9698	928.8041	4062.75	3203.45
847.1149	930.8272	4126.25	3270.05
847.2601	932.8495	4177.65	3318.5
847.4052	934.8711	4196.45	3337.6
847.5504	936.892	4218.15	3362.3
847.6955	938.9123	4297.7	3439.1
847.8407	940.9318	4394.15	3535.95
847.9858	942.9506	4486.7	3627.15
848.131	944.9688	4458.25	3600.6
848.2761	946.9862	4384.05	3526.15
848.4213	949.003	4254.7	3395.05
848.5664	951.019	4165.55	3306.5
848.7115	953.0344	4089.85	3231.7
848.8567	955.0491	4043.55	3181.2
849.0018	957.063	4002.1	3143.7
849.147	959.0763	3995.5	3137
849.2921	961.0888	3981.8	3119.2
849.4373	963.1007	3978	3119.15
849.5824	965.1119	3945.75	3087.05
849.7275	967.1223	3908.15	3049
849.8727	969.1321	3873.55	3015.25
850.0178	971.1412	3859.55	3001.35
850.1629	973.1495	3846.05	2986.6
850.3081	975.1572	3879.65	2979.85
850.4532	977.1641	3875.35	3015.2
850.5983	979.1704	3874.2	3014.85
850.7435	981.1759	3869.15	3003.5
850.8886	983.1808	3837.8	2976.85
851.0337	985.1849	3805	2933
851.1788	987.1884	3772.35	2907.9
851.324	989.1911	3810.1	2944.7
851.4691	991.1932	3844.3	2980.85
851.6142	993.1945	3867.35	3008
851.7593	995.1951	3851.85	2990.45
851.9045	997.1951	3857.35	2990.45
852.0496	999.1943	3834.5	2972.8
852.1947	1001.1928	3817.45	2954.45
852.3398	1003.1906	3867.2	3004.45
852.4849	1005.1877	3979.35	3114.55
852.63	1007.1841	4086.15	3222.05
852.7751	1009.1798	4152.05	3290.65
852.9202	1011.1748	4116.1	3253.9
853.0653	1013.1691	4029.3	3166.15
853.2104	1015.1627	3900	3036.35
853.3555	1017.1556	3797	2932.85
853.5006	1019.1477	3728.6	2864.5
853.6457	1021.1392	3657.9	2794.55
853.7908	1023.1299	3629.35	2767.65
853.9359	1025.12	3605.1	2740.75
854.081	1027.1093	3652.2	2790.15
854.2261	1029.0979	3721.85	2862.45
854.3712	1031.0859	3789.95	2928
854.5163	1033.0731	3855.8	2992.8
854.6613	1035.0596	3874.35	3011
854.8064	1037.0454	3850.05	2988.15
854.9515	1039.0304	3807	2944.6
855.0965	1041.0148	3732.35	2867.55
855.2416	1042.9985	3635.8	2769.55
855.3867	1044.9814	3591.35	2727.65
855.5317	1046.9636	3570.55	2704.6
855.6768	1048.9452	3601	2736.05
855.8219	1050.926	3657.7	2793.9
855.9669	1052.9061	3734.15	2869
856.112	1054.8855	3775.95	2910.6
856.257	1056.8642	3780.75	2914.65
856.4021	1058.8421	3761	2892.05
856.5471	1060.8194	3753	2886.3
856.6921	1062.7959	3738.65	2873.8
856.8372	1064.7717	3739.35	2871.65
856.9822	1066.7469	3729	2861.25
857.1272	1068.7213	3732.05	2865.5
857.2723	1070.695	3780.55	2914.05
857.4173	1072.6679	3850.15	2982.35
857.5623	1074.6402	3978.2	3111.6
857.7073	1076.6117	4043.45	3170.25
857.8523	1078.5826	3994.6	3127.65
857.9973	1080.5527	3849.6	2982.1
858.1423	1082.5221	3703.4	2838.1
858.2873	1084.4908	3603.6	2737.4
858.4323	1086.4587	3533.45	2665.6
858.5773	1088.426	3484.25	2617.6
858.7223	1090.3925	3467.95	2596.55
858.8673	1092.3584	3475.85	2611.15
859.0123	1094.3235	3498.65	2633.05
859.1573	1096.2879	3586.25	2717.1
859.3022	1098.2515	3677.5	2811.5
859.4472	1100.2145	3764.05	2897.15
859.5922	1102.1767	3877.15	3007.65
859.7371	1104.1382	4031.85	3162.9
859.8821	1106.099	4246.4	3375.85
860.027	1108.0591	4444.25	3576
860.172	1110.0185	4597.85	3728.75
860.3169	1111.9771	4719.45	3852.25
860.4619	1113.9351	4904.7	4036.75
860.6068	1115.8923	5167.45	4299
860.7517	1117.8488	5371.4	4501
860.8967	1119.8045	5265.55	4397.7
861.0416	1121.7596	4903.15	4032.9
861.1865	1123.7139	4487.15	3620.65
861.3314	1125.6675	4216.6	3349.5
861.4763	1127.6204	4167.2	3299.5
861.6212	1129.5726	4237.8	3367.3
861.7661	1131.524	4293.4	3425.9
861.911	1133.4748	4161.85	3292.8
862.0559	1135.4248	3925.9	3056.5
862.2008	1137.3741	3709.35	2840.9
862.3457	1139.3226	3592.9	2723.95
862.4905	1141.2705	3568.45	2700.7
862.6354	1143.2176	3595.25	2721.4
862.7803	1145.164	3657.3	2786.3
862.9251	1147.1097	3676.1	2807.25
863.07	1149.0546	3615.5	2744.35
863.2148	1150.9989	3523.85	2653.7
863.3597	1152.9424	3428.9	2558.1
863.5045	1154.8852	3373.05	2501.55
863.6493	1156.8272	3334.75	2466.1
863.7942	1158.7686	3334.05	2456.35
863.939	1160.7092	3328.05	2458.9
864.0838	1162.6491	3361.7	2490.35
864.2286	1164.5883	3389	2519.15
864.3734	1166.5267	3451.15	2578.25
864.5182	1168.4644	3518.45	2649
864.663	1170.4014	3637.95	2764.5
864.8078	1172.3377	3759.65	2891.45
864.9526	1174.2732	3951.3	3082.75
865.0974	1176.2081	4229.35	3360.35
865.2421	1178.1421	4664.5	3789.6
865.3869	1180.0755	5188.35	4318.5
865.5317	1182.0082	5561.7	4691.25
865.6764	1183.9401	5626.6	4755.95
865.8212	1185.8713	5312.05	4441.9
865.9659	1187.8017	4837.5	3965.5
866.1106	1189.7315	4367.65	3497.95
866.2554	1191.6605	4038.3	3139
866.4001	1193.5888	3805.6	2935.4
866.5448	1195.5163	3681.45	2808.7
866.6895	1197.4432	3582.75	2711.5
866.8342	1199.3693	3514.75	2642.7
866.9789	1201.2947	3456.2	2578.9
867.1236	1203.2193	3403.25	2532.9
867.2683	1205.1432	3392.05	2520.5
867.413	1207.0664	3390.9	2518.95
867.5576	1208.9889	3393.75	2520.5
867.7023	1210.9106	3391.65	2523.3
867.847	1212.8316	3399.6	2527.75
867.9916	1214.7519	3434.8	2553.75
868.1363	1216.6715	3474	2603.35
868.2809	1218.5903	3519.9	2648.4
868.4255	1220.5084	3564.85	2693.25
868.5701	1222.4257	3621.35	2750.65
868.7148	1224.3424	3656.1	2784
868.8594	1226.2583	3717.95	2844.95
869.004	1228.1735	3820.85	2948.85
869.1486	1230.0879	3959.85	3087.85
869.2932	1232.0016	4109.2	3236.75
869.4377	1233.9146	4231.1	3359.3
869.5823	1235.8269	4302.95	3431.3
869.7269	1237.7384	4316.8	3443.6
869.8715	1239.6492	4296.6	3423.2
870.016	1241.5592	4344.7	3472.45
870.1606	1243.4686	4469.1	3595.8
870.3051	1245.3772	4729.9	3858.85
870.4496	1247.285	5063.05	4190.8
870.5941	1249.1922	5370.9	4497.6
870.7387	1251.0986	5651.45	4779.65
870.8832	1253.0042	5884.8	5012.5
871.0277	1254.9092	6186.5	5312.35
871.1722	1256.8134	6553.75	5681
871.3167	1258.7169	6992.05	6118.15
871.4611	1260.6196	7323.65	6450.1
871.6056	1262.5216	7565.3	6691
871.7501	1264.4229	7611.3	6737.65
871.8945	1266.3234	7514.6	6641.8
872.039	1268.2232	7268.8	6394.7
872.1834	1270.1223	7033.9	6157.5
872.3278	1272.0207	6867.05	5993
872.4723	1273.9183	6779.85	5900.65
872.6167	1275.8151	6752.8	5881.3
872.7611	1277.7113	6839.8	5964.15
872.9055	1279.6067	7117.55	6245.5
873.0499	1281.5014	7653.1	6777.2
873.1943	1283.3953	8384.15	7509.5
873.3386	1285.2885	9214.95	8340.95
873.483	1287.181	9945.7	9071.8
873.6274	1289.0727	10330.9	9457.55
873.7717	1290.9637	10178.75	9303.3
873.9161	1292.854	9688.7	8816.4
874.0604	1294.7435	9096.1	8222.15
874.2047	1296.6323	8505.9	7630.2
874.349	1298.5204	8018.95	7142.1
874.4933	1300.4077	7629.65	6753.3
874.6376	1302.2943	7376.65	6502.25
874.7819	1304.1802	7177.7	6304.15
874.9262	1306.0653	7015.85	6139.35
875.0705	1307.9497	6881.05	6004.8
875.2147	1309.8333	6798.55	5922.55
875.359	1311.7162	6705.4	5833.25
875.5032	1313.5984	6615.25	5738.65
875.6475	1315.4798	6538.4	5653.55
875.7917	1317.3605	6575.95	5683.3
875.9359	1319.2405	6653.1	5777.35
876.0801	1321.1197	6697.5	5820.65
876.2243	1322.9982	6612.55	5733.8
876.3685	1324.876	6442.55	5567.05
876.5127	1326.753	6139.2	5264.8
876.6569	1328.6293	5757.95	4883.25
876.801	1330.5048	5372.75	4495.35
876.9452	1332.3796	4987.7	4114.5
877.0893	1334.2537	4724.3	3824.45
877.2335	1336.127	4490.35	3616.55
877.3776	1337.9996	4334	3458.5
877.5217	1339.8714	4245.5	3369.45
877.6658	1341.7426	4192.3	3274.1
877.8099	1343.6129	4081.2	3207.45
877.954	1345.4826	3995.35	3118.3
878.0981	1347.3515	3947.9	3072.5
878.2422	1349.2196	3886.1	3010.7
878.3862	1351.087	3847.1	2973.2
878.5303	1352.9537	3814.7	2937.7
878.6743	1354.8197	3818.45	2941.65
878.8184	1356.6849	3858.95	2982.1
878.9624	1358.5493	3900.2	3025.05
879.1064	1360.4131	3993.85	3117.25
879.2504	1362.276	4132.4	3256.55
879.3944	1364.1383	4289.95	3415.1
879.5384	1365.9998	4380.6	3499
879.6823	1367.8606	4351.05	3474.45
879.8263	1369.7206	4318.5	3441.65
879.9702	1371.5799	4334.9	3456
880.1142	1373.4384	4311.6	3437.45
880.2581	1375.2962	4232.95	3357.15
880.402	1377.1533	4041.05	3164.95
880.5459	1379.0096	3876.95	2999.65
880.6898	1380.8652	3731.55	2858.4
880.8337	1382.7201	3616.75	2739.2
880.9776	1384.5742	3506.45	2630.35
881.1215	1386.4275	3404.9	2527.25
881.2653	1388.2802	3335.55	2461.35
881.4092	1390.132	3289.35	2412.5
881.553	1391.9832	3263.7	2387.75
881.6968	1393.8336	3219.2	2343.4
881.8406	1395.6832	3203.85	2326.65
881.9844	1397.5322	3166.15	2291
882.1282	1399.3803	3146.65	2267.05
882.272	1401.2278	3115.6	2239.65
882.4158	1403.0745	3080.85	2203.55
882.5595	1404.9204	3027.45	2149.65
882.7033	1406.7656	3009.65	2133.8
882.847	1408.6101	2998.15	2122.4
882.9908	1410.4538	2997.5	2120
883.1345	1412.2968	2993.85	2116.45
883.2782	1414.139	2992.7	2116.9
883.4219	1415.9805	3027.2	2151.9
883.5656	1417.8213	3062.7	2180.5
883.7092	1419.6613	3120.75	2245.25
883.8529	1421.5006	3226.05	2349.35
883.9965	1423.3391	3388.35	2509.35
884.1402	1425.1769	3595.65	2718.15
884.2838	1427.0139	3900.6	3023.8
884.4274	1428.8502	4243.9	3365.45
884.571	1430.6858	4538.5	3662.85
884.7146	1432.5206	4664.05	3786.9
884.8582	1434.3547	4649.7	3772
885.0018	1436.188	4597.45	3720.25
885.1453	1438.0206	4539.85	3662.7
885.2889	1439.8524	4487.45	3611.2
885.4324	1441.6835	4485.2	3609.05
885.5759	1443.5139	4485.8	3607.9
885.7194	1445.3435	4495	3617.75
885.8629	1447.1724	4512.85	3635.8
886.0064	1449.0005	4501.15	3626.95
886.1499	1450.8279	4489.6	3610.95
886.2933	1452.6545	4458.75	3581.4
886.4368	1454.4804	4433.85	3557.8
886.5802	1456.3056	4395.8	3509.25
886.7237	1458.13	4345.6	3469.95
886.8671	1459.9536	4251	3374.75
887.0105	1461.7766	4123.85	3248.65
887.1539	1463.5987	3950.8	3073.3
887.2972	1465.4202	3809.3	2931.5
887.4406	1467.2409	3656.05	2778.6
887.584	1469.0608	3517.65	2640.05
887.7273	1470.88	3390.85	2511.65
887.8706	1472.6984	3282.3	2404.6
888.0139	1474.5161	3182.45	2303.2
888.1572	1476.3331	3110.35	2232.85
888.3005	1478.1493	3074.95	2197.7
888.4438	1479.9648	3051	2174.85
888.5871	1481.7795	3035.9	2158.85
888.7303	1483.5935	3038.4	2163
888.8736	1485.4067	3056.05	2180.15
889.0168	1487.2192	3058.7	2183.1
889.16	1489.031	3072.7	2191.6
889.3032	1490.842	3060.55	2184.65
889.4464	1492.6522	3073.55	2194.7
889.5896	1494.4618	3060.8	2183.5
889.7327	1496.2705	3057.75	2181.45
889.8759	1498.0785	3057.5	2178.15
890.019	1499.8858	3032.6	2155.3
890.1622	1501.6924	2990.9	2115
890.3053	1503.4981	2991.45	2114
890.4484	1505.3032	2962.95	2084.95
890.5914	1507.1075	2938.85	2062.15
890.7345	1508.911	2912.85	2035.45
890.8776	1510.7138	2895.15	2014.75
891.0206	1512.5159	2874.95	1998.3
891.1637	1514.3172	2848.5	1971.6
891.3067	1516.1178	2827	1951.7
891.4497	1517.9176	2808.55	1926.6
891.5927	1519.7166	2773.35	1895.5
891.7357	1521.515	2767.15	1883.3
891.8786	1523.3126	2731.4	1853
892.0216	1525.1094	2723.7	1841.7
892.1645	1526.9055	2717.95	1842.15
892.3074	1528.7008	2703.6	1825.95
892.4503	1530.4954	2686.65	1803.15
892.5932	1532.2893	2666.95	1792.7
892.7361	1534.0824	2671.05	1788.65
892.879	1535.8747	2680.1	1802.15
893.0218	1537.6663	2671.95	1793.3
893.1647	1539.4572	2661.4	1782.75
893.3075	1541.2473	2672.75	1793.6
893.4503	1543.0367	2673.3	1795.1
893.5931	1544.8253	2678.2	1794.4
893.7359	1546.6132	2687.35	1807.1
893.8787	1548.4003	2703.4	1815.35
894.0214	1550.1867	2744.3	1857.1
894.1642	1551.9723	2763.2	1879.65
894.3069	1553.7572	2809.2	1931.45
894.4496	1555.5414	2885.15	2007.8
894.5923	1557.3247	2994.2	2114.8
894.735	1559.1074	3127.1	2249.35
894.8777	1560.8893	3285.55	2407.35
895.0204	1562.6705	3449.25	2574.1
895.163	1564.4509	3568.6	2692.95
895.3056	1566.2305	3655.35	2779.05
895.4482	1568.0094	3689.35	2810.9
895.5908	1569.7876	3671.25	2793.45
895.7334	1571.565	3658.25	2778.8
895.876	1573.3417	3671.5	2794.45
896.0186	1575.1176	3702.35	2825.3
896.1611	1576.8928	3768.7	2891.45
896.3036	1578.6672	3853.35	2976.75
896.4461	1580.4409	3979.05	3103.15
896.5886	1582.2138	4124	3243.9
896.7311	1583.986	4303.65	3426.3
896.8736	1585.7575	4497.05	3618.65
897.0161	1587.5282	4659.95	3784
897.1585	1589.2981	4807.9	3929.95
897.3009	1591.0673	4866.45	3988.7
897.4433	1592.8358	4903.8	4026.45
897.5857	1594.6035	4896.85	4017.45
897.7281	1596.3704	4836.3	3957.15
897.8705	1598.1366	4759.75	3880.7
898.0128	1599.9021	4639.25	3762.8
898.1551	1601.6668	4524.3	3645.85
898.2975	1603.4308	4433.3	3554.05
898.4398	1605.194	4385.95	3504.4
898.5821	1606.9564	4478.95	3603.2
898.7243	1608.7182	4677.45	3796.45
898.8666	1610.4791	5007.6	4131.35
899.0088	1612.2394	5425.95	4547.5
899.1511	1613.9988	5939.2	5061.75
899.2933	1615.7576	6380.8	5503.3
899.4355	1617.5156	6617.15	5734.1
899.5776	1619.2728	6614.55	5738.65
899.7198	1621.0293	6311.6	5431.45
899.862	1622.785	5848.05	4967.5
900.0041	1624.54	5308.2	4426.45
900.1462	1626.2942	4796.35	3918.6
900.2883	1628.0477	4319.15	3439.35
900.4304	1629.8005	3932.25	3050
900.5725	1631.5525	3617.95	2740.15
900.7145	1633.3037	3371.95	2493.35
900.8566	1635.0542	3171.65	2293.6
900.9986	1636.804	3033.3	2153.6
901.1406	1638.553	2975.1	2035.05
901.2826	1640.3013	2835.9	1958.1
901.4245	1642.0488	2738	1859.55
901.5665	1643.7955	2704.9	1828.65
901.7085	1645.5416	2635.75	1758.9
901.8504	1647.2868	2606.75	1728.9
901.9923	1649.0313	2557.25	1679.5
902.1342	1650.7751	2535.4	1654.5
902.2761	1652.5181	2531.3	1654.35
902.4179	1654.2604	2526.05	1646.5
902.5598	1656.0019	2539.8	1663.7
902.7016	1657.7427	2570.65	1691.8
902.8434	1659.4828	2648.75	1769.2
902.9852	1661.222	2756.4	1878.45
903.127	1662.9606	2925.9	2048.7
903.2687	1664.6984	3083.25	2206.65
903.4105	1666.4354	3196.65	2316.65
903.5522	1668.1717	3186.3	2309.05
903.6939	1669.9072	3041.65	2163.85
903.8356	1671.642	2850.7	1970.6
903.9773	1673.3761	2656.3	1778.65
904.119	1675.1094	2509.9	1631.95
904.2606	1676.8419	2390.3	1511.95
904.4022	1678.5737	2312.85	1435.95
904.5439	1680.3048	2258.9	1379.35
904.6855	1682.0351	2219	1341.8
904.827	1683.7646	2196.95	1315.9
904.9686	1685.4934	2171.9	1293.2
905.1101	1687.2215	2145.55	1264.9
905.2517	1688.9488	2128.1	1251.35
905.3932	1690.6754	2125.25	1248.25
905.5347	1692.4012	2119.25	1241.15
905.6761	1694.1263	2107.85	1229.95
905.8176	1695.8506	2093.35	1213.35
905.9591	1697.5742	2088.45	1211.65
906.1005	1699.297	2074.4	1197.2
906.2419	1701.0191	2066.85	1190.5
906.3833	1702.7404	2047.6	1168.55
906.5246	1704.461	2036.3	1158.5
906.666	1706.1808	2033.1	1155.55
906.8073	1707.8999	2019.2	1140
906.9487	1709.6182	2021.25	1144.2
907.09	1711.3358	2014.3	1136.6
907.2313	1713.0527	2000.85	1124.75
907.3725	1714.7688	2005.15	1120.5
907.5138	1716.4841	2001	1122.05
907.655	1718.1987	1990.1	1106.3
907.7962	1719.9126	1980.9	1103.15
907.9374	1721.6257	1973.65	1091.4
908.0786	1723.338	1964.4	1087.6
908.2198	1725.0496	1961.75	1081.9
908.3609	1726.7605	1954.85	1076.45
908.502	1728.4706	1954.15	1076.5
908.6431	1730.18	1958.05	1077.05
908.7842	1731.8886	1949.35	1069.05
908.9253	1733.5964	1972.6	1075.1
909.0664	1735.3036	1928.65	1049.6
909.2074	1737.0099	1927.95	1049.95
909.3484	1738.7156	1929.5	1052.1
909.4894	1740.4204	1926.35	1044.5
909.6304	1742.1246	1920.25	1041.15
909.7714	1743.8279	1917.15	1040.7
909.9123	1745.5306	1913.15	1034.1
910.0532	1747.2325	1915.8	1038.6
910.1941	1748.9336	1906.55	1027.65
910.335	1750.634	1899.1	1020.45
910.4759	1752.3336	1898.9	1020.15
910.6168	1754.0325	1895.35	1018.5
910.7576	1755.7307	1887.85	1008.9
910.8984	1757.4281	1892.45	1015.15
911.0392	1759.1247	1884.9	997.55
911.18	1760.8206	1891.5	1007.7
911.3208	1762.5158	1893.35	1011.05
911.4615	1764.2102	1880	1001.85
911.6022	1765.9039	1867.65	990.5
911.7429	1767.5968	1868.2	989.95
911.8836	1769.289	1863.9	985.3
912.0243	1770.9804	1867.1	988.05
912.1649	1772.6711	1866.25	986.15
912.3056	1774.361	1859.85	980.15
912.4462	1776.0502	1861.9	982.9
912.5868	1777.7386	1858.95	978.1
912.7274	1779.4263	1854.85	977.45
912.8679	1781.1132	1859.1	979
913.0084	1782.7994	1847	967.35
913.149	1784.4849	1844.5	966.5
913.2895	1786.1696	1842.15	957.2
913.4299	1787.8535	1832.65	955.8
913.5704	1789.5367	1841.3	964
913.7108	1791.2192	1842.4	963.95
913.8513	1792.9009	1837.55	944.35
913.9917	1794.5818	1826.7	947.9
914.132	1796.2621	1817.7	939.4
914.2724	1797.9415	1822.05	944.3
914.4128	1799.6202	1820	942.35
914.5531	1801.2982	1805.75	926.95
914.6934	1802.9755	1806.1	928.05
914.8337	1804.6519	1805.65	926.3
914.9739	1806.3277	1806.45	928.35
915.1142	1808.0027	1803.05	925.05
915.2544	1809.6769	1791.65	912.75
915.3946	1811.3504	1794.35	911.75
915.5348	1813.0231	1791.6	913.3
915.675	1814.6951	1790.05	911.75
915.8151	1816.3664	1795.1	914.15
915.9553	1818.0369	1789.75	909.85
916.0954	1819.7067	1786.4	907.95
916.2355	1821.3757	1781.25	901.1
916.3755	1823.044	1776.15	899.55
916.5156	1824.7115	1774.2	895.15
916.6556	1826.3783	1762.1	883.65
916.7956	1828.0443	1775.1	897.9
916.9356	1829.7096	1772.95	890.9
917.0756	1831.3741	1763.9	881.9
917.2155	1833.0379	1773.7	895.75
917.3555	1834.701	1758	876.45
917.4954	1836.3633	1757.8	879.1
917.6353	1838.0248	1759.8	880.5
917.7751	1839.6856	1757.45	877.9
917.915	1841.3457	1763.45	885.4
918.0548	1843.005	1758.7	879.45
918.1946	1844.6636	1755.5	878
918.3344	1846.3214	1751.2	873.2
918.4742	1847.9785	1750.55	871.15
918.6139	1849.6349	1746.55	865.2
918.7537	1851.2904	1755.2	869.65
918.8934	1852.9453	1747.25	867.9
919.0331	1854.5994	1740.2	858.1
919.1727	1856.2528	1749.4	864.4
919.3124	1857.9054	1750.7	871.65
919.452	1859.5572	1729.15	851.05
919.5916	1861.2083	1734.5	854.65
919.7312	1862.8587	1732.75	855
919.8708	1864.5084	1732.95	853.85
920.0103	1866.1572	1719.35	841.9
920.1498	1867.8054	1721.6	843.1
920.2893	1869.4528	1728.5	850.7
920.4288	1871.0994	1726.85	847.65
920.5683	1872.7453	1721.25	842.35
920.7077	1874.3905	1716.15	831.35
920.8471	1876.0349	1715.35	837.2
920.9865	1877.6786	1717.5	837.35
921.1259	1879.3215	1709.95	834.1
921.2653	1880.9637	1713.45	832.55
921.4046	1882.6051	1715.75	838.6
921.5439	1884.2458	1705.9	825.15
921.6832	1885.8858	1704.2	825.2
921.8225	1887.525	1699.4	819.9
921.9617	1889.1634	1691.1	812.15
922.101	1890.8011	1702.4	824.55
922.2402	1892.4381	1693.75	816.8
922.3794	1894.0743	1693.45	814.85
922.5185	1895.7098	1683.45	803.4
922.6577	1897.3446	1677.15	799.45
922.7968	1898.9786	1683.8	799.35
922.9359	1900.6118	1688.1	810.95
923.075	1902.2443	1676.65	795.85
923.214	1903.8761	1675.25	796.65
923.3531	1905.5071	1668.05	786.9
923.4921	1907.1374	1662.95	782.3
923.6311	1908.7669	1670.3	793
923.77	1910.3957	1669.55	790.75
923.909	1912.0237	1657.4	778.2
924.0479	1913.651	1657	777.4
924.1868	1915.2776	1655.75	777.8
924.3257	1916.9034	1645	768.1
924.4646	1918.5285	1642.4	766.2
924.6034	1920.1528	1636.5	757.05
924.7422	1921.7764	1642.3	764.4
924.881	1923.3992	1640.55	762.1
925.0198	1925.0213	1633.65	755.45
925.1586	1926.6427	1636.45	758.35
925.2973	1928.2633	1714.3	751
925.436	1929.8832	1632.6	753.85
925.5747	1931.5023	1625.7	747.25
925.7134	1933.1207	1622.8	744.6
925.852	1934.7383	1624.55	745.95
925.9906	1936.3552	1621.15	741.25
926.1292	1937.9714	1622.9	743.65
926.2678	1939.5868	1625.4	746
926.4064	1941.2015	1609.3	731.6
926.5449	1942.8154	1608.5	729.35
926.6834	1944.4286	1600.75	721
926.8219	1946.041	1642.35	731.8
926.9604	1947.6528	1605.35	719.25
927.0988	1949.2637	1593.5	713.95
927.2372	1950.8739	1594.05	714.65
927.3756	1952.4834	1597.95	718.1
927.514	1954.0921	1589.85	711.25
927.6523	1955.7001	1592.7	710.8
927.7907	1957.3074	1577.55	701.2
927.929	1958.9139	1573.15	693.3
928.0673	1960.5197	1578.3	698.45
928.2055	1962.1247	1571.95	694.35
928.3438	1963.729	1571.65	694.1
928.482	1965.3325	1597.2	693.8
928.6202	1966.9353	1568.55	690.25
928.7584	1968.5374	1568.25	688.9
928.8965	1970.1387	1570.5	691.95
929.0346	1971.7393	1568.9	690.4
929.1727	1973.3392	1552.2	673.8
929.3108	1974.9383	1550.95	673.45
929.4489	1976.5366	1547.55	669.15
929.5869	1978.1342	1551.2	672
929.7249	1979.7311	1550.15	670.95
929.8629	1981.3273	1550.9	672.45
930.0009	1982.9227	1548.15	669
930.1388	1984.5173	1547.2	666.85
930.2767	1986.1112	1539	660.8
930.4146	1987.7044	1533.45	655.05
930.5525	1989.2968	1531.8	652.8
930.6904	1990.8885	1539.95	659.1
930.8282	1992.4795	1537.1	656.55
930.966	1994.0697	1526.15	649.3
931.1038	1995.6592	1527.85	651.2
931.2415	1997.2479	1528.85	647.45
931.3793	1998.8359	1533.7	655.7
931.517	2000.4232	1527.05	649.25
931.6547	2002.0097	1516.3	639.2
931.7923	2003.5955	1517.25	638.4
931.93	2005.1805	1523.4	642.9
932.0676	2006.7648	1517.75	638.55
932.2052	2008.3484	1515.4	638.4
932.3427	2009.9312	1523.6	642.65
932.4803	2011.5133	1507.9	630.05
932.6178	2013.0946	1514.25	638.7
932.7553	2014.6752	1501.15	624.5
932.8928	2016.2551	1501.35	623.5
933.0302	2017.8342	1513	633
933.1676	2019.4126	1496.2	619.65
933.305	2020.9902	1498.35	620
933.4424	2022.5672	1503.4	623.75
933.5798	2024.1433	1500.9	618.65
933.7171	2025.7188	1495.15	620.15
933.8544	2027.2935	1495.8	618.05
933.9917	2028.8674	1497	617.8
934.129	2030.4406	1483.5	608.15
934.2662	2032.0131	1484.2	607.4
934.4034	2033.5849	1485	597.5
934.5406	2035.1559	1488.65	611.05
934.6778	2036.7261	1486.3	610
934.8149	2038.2957	1481.05	602.95
934.952	2039.8645	1473.15	596.65
935.0891	2041.4325	1484.25	602.85
935.2262	2042.9998	1473.35	596.05
935.3632	2044.5664	1478.1	597.75
935.5002	2046.1323	1475.25	597.65
935.6372	2047.6974	1471.5	593.05
935.7742	2049.2617	1474.35	596.65
935.9111	2050.8254	1505.7	593.4
936.048	2052.3883	1472.8	595.05
936.1849	2053.9504	1462.8	584.9
936.3218	2055.5118	1461.4	582.8
936.4586	2057.0725	1465.55	583.5
936.5955	2058.6325	1456	578.45
936.7323	2060.1917	1454.8	577.65
936.869	2061.7502	1464.1	581.7
937.0058	2063.3079	1458.4	582
937.1425	2064.8649	1460	579
937.2792	2066.4212	1457.5	579.85
937.4159	2067.9767	1452.25	573.5
937.5525	2069.5315	1455.1	576.15
937.6891	2071.0856	1446.15	568.8
937.8257	2072.6389	1437.5	558.1
937.9623	2074.1915	1441.9	565.7
938.0989	2075.7433	1439.9	561.2
938.2354	2077.2945	1438.65	562.4
938.3719	2078.8448	1437.5	561.5
938.5084	2080.3945	1438.55	563.1
938.6448	2081.9434	1436.05	558.6
938.7812	2083.4916	1431.5	553.05
938.9176	2085.039	1441.95	559.65
939.054	2086.5857	1429.75	551.1
939.1903	2088.1317	1431.4	552.25
939.3267	2089.677	1421.25	542.95
939.463	2091.2215	1424.25	547.3
939.5992	2092.7652	1426.85	545.05
939.7355	2094.3083	1418.3	540
939.8717	2095.8506	1422.6	546.05
940.0079	2097.3921	1418.75	539.85
940.1441	2098.933	1422.35	543
940.2802	2100.4731	1421.7	544
940.4163	2102.0124	1433.9	540.25
940.5524	2103.5511	1408.3	531.15
940.6885	2105.089	1418.7	538.75
940.8245	2106.6261	1411.7	533.55
940.9606	2108.1626	1417.9	539.1
941.0965	2109.6983	1442.3	536.85
941.2325	2111.2332	1414.75	537.4
941.3684	2112.7675	1412.2	531.95
941.5044	2114.301	1411.25	530.95
941.6403	2115.8337	1415.3	538.1
941.7761	2117.3657	1403.55	526.2
941.912	2118.897	1407.25	529.15
942.0478	2120.4276	1406.95	522.85
942.1835	2121.9575	1399.45	522.65
942.3193	2123.4866	1414.2	520.1
942.455	2125.0149	1403.9	524.6
942.5907	2126.5426	1391.5	512.6
942.7264	2128.0695	1398.95	517.5
942.8621	2129.5956	1385.35	510.05
942.9977	2131.1211	1402.95	520.25
943.1333	2132.6458	1390.6	513.1
943.2689	2134.1698	1396.1	519.55
943.4044	2135.693	1394.7	515.6
943.54	2137.2155	1386.6	507.75
943.6755	2138.7373	1385.8	508.9
943.8109	2140.2584	1383.05	505.2
943.9464	2141.7787	1387.85	505.8
944.0818	2143.2983	1382	505.85
944.2172	2144.8171	1378.65	500.35
944.3526	2146.3353	1373.7	492.75
944.4879	2147.8527	1381.3	502.8
944.6232	2149.3693	1380.35	502.25
944.7585	2150.8853	1377.25	498.25
944.8938	2152.4005	1371.55	493.4
945.029	2153.9149	1376.45	499.2
945.1642	2155.4287	1371.2	494.6
945.2994	2156.9417	1370.95	491.75
945.4346	2158.454	1374.9	494.15
945.5697	2159.9655	1366.7	488.85
945.7048	2161.4764	1364.9	486.65
945.8399	2162.9865	1367.55	490.45
945.9749	2164.4958	1363.15	483.15
946.1099	2166.0045	1359.65	479.95
946.2449	2167.5124	1356.95	479.85
946.3799	2169.0195	1359	482
946.5148	2170.526	1359	480.75
946.6498	2172.0317	1359.9	482.95
946.7846	2173.5367	1353.55	471.9
946.9195	2175.0409	1356.75	479.65
947.0543	2176.5445	1357.85	481
947.1891	2178.0473	1352.5	474.95
947.3239	2179.5494	1355.85	473.2
947.4587	2181.0507	1352.1	473.45
947.5934	2182.5513	1347.2	467.5
947.7281	2184.0512	1354.35	477.5
947.8628	2185.5504	1347	468.6
947.9974	2187.0488	1344.25	465
948.132	2188.5465	1345.3	465.7
948.2666	2190.0435	1352.25	474.4
948.4012	2191.5397	1340.9	462.05
948.5357	2193.0353	1336.9	459.75
948.6702	2194.5301	1339.6	462.9
948.8047	2196.0241	1342.7	465.2
948.9392	2197.5175	1337.65	460.15
949.0736	2199.0101	1339.6	459
949.208	2200.502	1333.35	457.35
949.3424	2201.9931	1333.55	455.95
949.4767	2203.4835	1325.9	446.15
949.611	2204.9733	1352.3	455.8
949.7453	2206.4622	1328.45	451.35
949.8796	2207.9505	1325.45	443.1
950.0138	2209.438	1324.05	445.55
950.148	2210.9248	1324.85	444.85
950.2822	2212.4109	1323.75	447.55
950.4164	2213.8962	1326.9	446.4
950.5505	2215.3809	1318.5	439.45
950.6846	2216.8648	1322.8	442.7
950.8186	2218.3479	1319.8	436.85
950.9527	2219.8304	1317.3	436.65
951.0867	2221.3121	1311.85	434.1
951.2207	2222.7931	1319.15	440.25
951.3546	2224.2733	1311.95	433.4
951.4886	2225.7529	1314.7	435.5
951.6225	2227.2317	1307.55	427.05
951.7563	2228.7098	1305.65	428.9
951.8902	2230.1872	1301.9	424.05
952.024	2231.6638	1306.2	429.25
952.1578	2233.1397	1310.35	423.3
952.2916	2234.6149	1299.65	422.85
952.4253	2236.0894	1300.05	420.05
952.559	2237.5632	1313.8	424.05
952.6927	2239.0362	1302.5	424.3
952.8263	2240.5085	1299.65	422.8
952.9599	2241.9801	1292.75	414.15
953.0935	2243.4509	1297.7	419.55
953.2271	2244.921	1290.5	411.95
953.3606	2246.3904	1294.8	412.8
953.4941	2247.8591	1290.65	413.05
953.6276	2249.3271	1290.75	412.5
953.7611	2250.7943	1278.15	400.65
953.8945	2252.2608	1279.55	399.3
954.0279	2253.7266	1283.7	405.75
954.1612	2255.1917	1284.55	406.6
954.2946	2256.656	1275.45	397
954.4279	2258.1197	1283	406.05
954.5612	2259.5826	1282.3	403.1
954.6944	2261.0447	1281.7	402.8
954.8276	2262.5062	1275.65	394.5
954.9608	2263.9669	1277.75	397.6
955.094	2265.4269	1270.2	392.5
955.2271	2266.8862	1274.7	397.8
955.3602	2268.3448	1273.9	395.4
955.4933	2269.8026	1273.15	395.25
955.6264	2271.2598	1274.1	395.7
955.7594	2272.7162	1263.95	387.75
955.8924	2274.1719	1267.65	390
956.0253	2275.6268	1262.7	383.6
956.1583	2277.0811	1271.65	392.1
956.2912	2278.5346	1265.7	387.25
956.4241	2279.9874	1263.95	384.55
956.5569	2281.4395	1269.75	393.15
956.6897	2282.8908	1271.25	388.65
956.8225	2284.3414	1265.25	384.85
956.9553	2285.7914	1268.5	392.45
957.088	2287.2406	1263	383.25
957.2207	2288.689	1260.9	383.2
957.3534	2290.1368	1260.7	380.35
957.486	2291.5838	1258.9	376.85
957.6186	2293.0302	1254	372.4
957.7512	2294.4758	1259.1	382.15
957.8838	2295.9206	1261.8	379.05
958.0163	2297.3648	1257.6	380.6
958.1488	2298.8082	1256.8	376.5
958.2813	2300.251	1253.45	375.15
958.4137	2301.693	1255.5	375.25
958.5461	2303.1343	1258.55	379.25
958.6785	2304.5748	1250.65	372.15
958.8108	2306.0147	1248.75	369.1
958.9432	2307.4538	1253.9	372
959.0754	2308.8922	1247.35	370.55
959.2077	2310.3299	1250.15	370.35
959.3399	2311.7669	1245.15	367.95
959.4721	2313.2031	1244.5	364.2
959.6043	2314.6387	1244.7	366.6
959.7365	2316.0735	1250.7	371.1
959.8686	2317.5076	1242.5	364.75
960.0006	2318.941	1238.35	358.35
960.1327	2320.3737	1240.55	361.5
960.2647	2321.8056	1244.1	364.35
960.3967	2323.2369	1243.1	365.1
960.5287	2324.6674	1245.95	365.35
960.6606	2326.0972	1239.45	359.95
960.7925	2327.5263	1247.4	369.2
960.9244	2328.9547	1241.35	362.6
961.0562	2330.3823	1237.2	357.25
961.1881	2331.8092	1243.85	363.3
961.3198	2333.2355	1233.85	355.5
961.4516	2334.661	1229.05	350.85
961.5833	2336.0858	1231.4	350.25
961.715	2337.5098	1222.75	345.55
961.8467	2338.9332	1231.9	351.7
961.9783	2340.3558	1233.1	350.85
962.1099	2341.7778	1224.1	345.45
962.2415	2343.199	1221.3	340.75
962.373	2344.6195	1230.05	352.4
962.5045	2346.0393	1218.55	340.25
962.636	2347.4583	1228.8	348.7
962.7675	2348.8767	1224.8	343.2
962.8989	2350.2943	1226.95	349.1
963.0303	2351.7113	1224.5	344.45
963.1617	2353.1275	1223.45	345.4
963.293	2354.543	1223.05	336.8
963.4243	2355.9578	1219.05	341.25
963.5556	2357.3718	1219.6	341.85
963.6868	2358.7852	1220.1	338.4
963.818	2360.1978	1217.3	338.6
963.9492	2361.6098	1212.05	333.55
964.0803	2363.021	1219.5	338.85
964.2114	2364.4315	1216.9	337.7
964.3425	2365.8413	1216.8	336.75
964.4736	2367.2504	1209.35	333
964.6046	2368.6587	1213	335
964.7356	2370.0664	1209.15	332.35
964.8666	2371.4733	1210.2	329.6
964.9975	2372.8795	1212.7	335.5
965.1284	2374.285	1208.85	330.4
965.2593	2375.6899	1211.25	335
965.3901	2377.0939	1215.3	336.8
965.5209	2378.4973	1210.85	333.85
965.6517	2379.9	1208.1	328.85
965.7825	2381.3019	1208.55	329.7
965.9132	2382.7032	1206.5	328.25
966.0439	2384.1037	1206.8	328.3
966.1745	2385.5035	1203.15	324.75
966.3051	2386.9027	1202.6	326
966.4357	2388.3011	1205.2	323.05
966.5663	2389.6987	1197	317.9
966.6968	2391.0957	1200.5	321.35
966.8273	2392.492	1198.25	320.45
966.9578	2393.8876	1195.5	315.8
967.0882	2395.2824	1196.15	318.7
967.2186	2396.6765	1190.6	311.95
967.349	2398.07	1187.45	309.5
967.4793	2399.4627	1189.65	308.1
967.6097	2400.8547	1187.8	309.2
967.7399	2402.246	1191.75	308.3
967.8702	2403.6366	1190.9	311.5
968.0004	2405.0265	1188	308.45
968.1306	2406.4156	1189.6	306.55
968.2607	2407.8041	1189.05	307.45
968.3909	2409.1918	1188.65	308.85
968.521	2410.5789	1182.25	302.9
968.651	2411.9652	1182.85	300.7
968.781	2413.3508	1184.2	306.35
968.911	2414.7358	1180.55	301.15
969.041	2416.12	1179.1	300.7
969.1709	2417.5035	1179.3	300.25
969.3008	2418.8863	1175	295.55
969.4307	2420.2684	1180.4	302.55
969.5606	2421.6497	1176.05	296.3
969.6904	2423.0304	1176.05	300.4
969.8201	2424.4104	1181.45	302.9
969.9499	2425.7896	1177.7	297.85
970.0796	2427.1682	1176.5	297.95
970.2093	2428.546	1180.25	301.3
970.3389	2429.9232	1174	292.35
970.4685	2431.2996	1172.85	293.35
970.5981	2432.6753	1167.4	288
970.7277	2434.0503	1165.65	288
970.8572	2435.4246	1174.85	297.1
970.9867	2436.7982	1167.55	288.95
971.1161	2438.1711	1164.05	285.85
971.2456	2439.5433	1168.55	289.05
971.375	2440.9148	1166.45	288.35
971.5043	2442.2856	1167.9	288
971.6336	2443.6557	1167.4	287.6
971.7629	2445.025	1167.15	287.5
971.8922	2446.3937	1170.15	291.25
972.0214	2447.7617	1164.75	285.25
972.1506	2449.1289	1157.15	278.4
972.2798	2450.4955	1169.35	285.8
972.4089	2451.8613	1161.05	282.65
972.538	2453.2265	1163	285
972.6671	2454.5909	1163.95	284.8
972.7961	2455.9546	1164.4	286.2
972.9251	2457.3177	1155.55	277.3
973.0541	2458.68	1154.75	274.45
973.1831	2460.0416	1158.65	278.9
973.312	2461.4025	1159.45	278.95
973.4408	2462.7627	1168.4	279.25
973.5697	2464.1222	1152.7	275.6
973.6985	2465.4811	1155.85	276.6
973.8273	2466.8392	1153.85	275.5
973.956	2468.1966	1157.7	276.7
974.0847	2469.5533	1157.55	276.45
974.2134	2470.9093	1157.9	278.2
974.3421	2472.2645	1157.2	275.8
974.4707	2473.6191	1152.75	275.75
974.5993	2474.973	1149.2	271
974.7278	2476.3262	1157.75	276.95
974.8563	2477.6787	1155.15	276.2
974.9848	2479.0305	1150.3	271.65
975.1132	2480.3816	1153.75	272.25
975.2417	2481.7319	1148.75	269.25
975.37	2483.0816	1147.05	266.25
975.4984	2484.4306	1152.15	271.95
975.6267	2485.7789	1149.3	271.05
975.755	2487.1264	1153.75	273.95
975.8833	2488.4733	1146.45	268.55
976.0115	2489.8195	1159.7	275.05
976.1397	2491.165	1153.45	272.35
976.2678	2492.5097	1150.3	270.05
976.3959	2493.8538	1142.9	265.35
976.524	2495.1972	1141.75	262.45
976.6521	2496.5398	1146.7	266.6
976.7801	2497.8818	1143.95	264.15
976.9081	2499.2231	1143.2	265.15
977.036	2500.5637	1143.7	261.9
977.164	2501.9035	1146	266.35
977.2918	2503.2427	1149.8	267.2
977.4197	2504.5812	1144.35	266.45
977.5475	2505.919	1143.9	262.55
977.6753	2507.256	1140.8	262.75
977.8031	2508.5924	1137.65	257.85
977.9308	2509.9281	1146	262
978.0585	2511.2631	1134.8	256.55
978.1861	2512.5974	1139.45	262.1
978.3137	2513.9309	1137.05	255.95
978.4413	2515.2638	1161.3	252.8
978.5689	2516.596	1139.4	261.3
978.6964	2517.9275	1132.4	252.8
978.8239	2519.2583	1136.1	256.3
978.9513	2520.5884	1137.85	257.95
979.0788	2521.9178	1132.05	252.2
979.2062	2523.2465	1130.15	250.75
979.3335	2524.5745	1125.2	248
979.4608	2525.9018	1125	246.25
979.5881	2527.2284	1129.45	252.65
979.7154	2528.5543	1129.7	254.1
979.8426	2529.8796	1123.3	244.55
979.9698	2531.2041	1129.5	249.65
980.0969	2532.5279	1130.1	251.25
980.224	2533.851	1129.9	250.6
980.3511	2535.1735	1128	250.4
980.4781	2536.4952	1128.05	249.1
980.6052	2537.8163	1127.45	249.05
980.7321	2539.1366	1124.3	246.1
980.8591	2540.4562	1128.45	249.45
980.986	2541.7752	1128.75	252.05
981.1129	2543.0935	1118.8	240.85
981.2397	2544.411	1124.75	247
981.3665	2545.7279	1128.1	249.25
981.4933	2547.0441	1122.25	243.05
981.62	2548.3596	1123.5	239.65
981.7467	2549.6744	1115.4	237.75
981.8734	2550.9885	1125	238.65
982.0001	2552.3019	1118.65	242.3
982.1267	2553.6146	1117.45	237.2
982.2532	2554.9266	1116.85	237.9
982.3798	2556.2379	1123.05	243.4
982.5063	2557.5485	1120.15	243.5
982.6327	2558.8585	1127.15	242.5
982.7592	2560.1677	1127.55	245.3
982.8856	2561.4762	1115.8	236.75
983.0119	2562.7841	1118	234.95
983.1383	2564.0913	1111.5	233.25
983.2646	2565.3977	1120.7	240.75
983.3908	2566.7035	1116.6	238.6
983.517	2568.0086	1116.95	236.15
983.6432	2569.313	1118.2	239.4
983.7694	2570.6167	1118.3	237.25
983.8955	2571.9197	1117	238.95
984.0216	2573.222	1114.3	231.8
984.1476	2574.5236	1117.65	238.8
984.2737	2575.8246	1119.3	238.35
984.3996	2577.1248	1117.75	236.45
984.5256	2578.4244	1110.9	233.4
984.6515	2579.7232	1113.8	235.9
984.7774	2581.0214	1144.4	232.55
984.9032	2582.3189	1115.9	237.55
985.029	2583.6157	1121.65	239.8
985.1548	2584.9118	1112.55	233.7
985.2806	2586.2072	1110.4	231.7
985.4063	2587.5019	1109.15	232.55
985.5319	2588.7959	1114.7	235.65
985.6576	2590.0893	1115.65	235.75
985.7832	2591.3819	1112.05	234.85
985.9087	2592.6739	1114.5	237.25
986.0343	2593.9652	1114.8	235.25
986.1597	2595.2557	1115.6	238.2
986.2852	2596.5456	1120.35	240.3
986.4106	2597.8348	1115.35	237.3
986.536	2599.1234	1114.25	237.35
986.6614	2600.4112	1119.1	240.15
986.7867	2601.6983	1123.1	241.8
986.912	2602.9848	1121.55	244.85
987.0372	2604.2705	1123.75	237.45
987.1624	2605.5556	1119.2	239.1
987.2876	2606.84	1118.55	241.05
987.4128	2608.1237	1117.6	238.35
987.5379	2609.4067	1118.15	238.95
987.6629	2610.689	1122.1	234.8
987.788	2611.9707	1117.95	234.95
987.913	2613.2516	1114.55	233.4
988.0379	2614.5319	1108.2	229.05
988.1629	2615.8115	1109.3	230.85
988.2878	2617.0903	1107.8	227.6
988.4126	2618.3685	1104.75	226.45
988.5375	2619.6461	1104	225.95
988.6622	2620.9229	1102.75	224.7
988.787	2622.199	1106.45	226.05
988.9117	2623.4745	1101.75	224.4
989.0364	2624.7493	1104.65	225.5
989.161	2626.0234	1103.4	223.55
989.2857	2627.2968	1103.35	224.8
989.4102	2628.5695	1106.4	227.3
989.5348	2629.8415	1103.9	227.4
989.6593	2631.1128	1105.25	225.6
989.7837	2632.3835	1107.8	228.95
989.9082	2633.6535	1093.7	215
990.0326	2634.9228	1098.65	219.05
990.1569	2636.1914	1100.05	224.2
990.2812	2637.4593	1102.5	222.35
990.4055	2638.7265	1103.7	222.5
990.5298	2639.9931	1095.45	216.95
990.654	2641.259	1097.5	219.05
990.7782	2642.5242	1097.4	219.6
990.9023	2643.7887	1097.6	217
991.0264	2645.0525	1098.15	219.7
991.1505	2646.3156	1096.4	217.1
991.2745	2647.5781	1093.6	215.7
991.3985	2648.8398	1091.2	214
991.5225	2650.1009	1126.15	208.55
991.6464	2651.3613	1089.95	212.15
991.7703	2652.6211	1089.05	210.3
991.8942	2653.8801	1088.95	209.3
992.018	2655.1385	1093.45	211.65
992.1418	2656.3961	1080.75	202.85
992.2655	2657.6531	1089.5	211.9
992.3892	2658.9094	1085.5	206.25
992.5129	2660.1651	1083.55	206.4
992.6366	2661.42	1083.2	205.45
992.7602	2662.6743	1084.1	205.25
992.8837	2663.9279	1090.05	213.4
993.0073	2665.1808	1090.75	211.55
993.1307	2666.433	1090.6	209.55
993.2542	2667.6846	1089.55	210.9
993.3776	2668.9354	1098.3	216.1
993.501	2670.1856	1095.05	217.7
993.6244	2671.4351	1092.05	214.95
993.7477	2672.6839	1096.5	216.8
993.8709	2673.9321	1095.9	217.4
993.9942	2675.1795	1092.8	214.5
994.1174	2676.4263	1098.05	220.25
994.2405	2677.6724	1093.75	216.9
994.3637	2678.9179	1097	216.65
994.4868	2680.1626	1095.4	216.5
994.6098	2681.4067	1095.25	214.85
994.7328	2682.6501	1095.2	215.35
994.8558	2683.8928	1091	212.2
994.9788	2685.1348	1090.5	212.1
995.1017	2686.3761	1087.3	208.95
995.2245	2687.6168	1088.7	208.8
995.3474	2688.8568	1087.9	209.7
995.4702	2690.0961	1084	207.15
995.5929	2691.3348	1082.85	203.2
995.7156	2692.5727	1078.35	199.75
995.8383	2693.81	1074	196.25
995.961	2695.0466	1079.05	202.25
996.0836	2696.2826	1081.8	201.4
996.2062	2697.5178	1078.5	197.2
996.3287	2698.7524	1080.5	202.7
996.4512	2699.9863	1081	200.05
996.5737	2701.2195	1082.4	202.95
996.6961	2702.452	1081.3	202.15
996.8185	2703.6839	1088.75	208.95
996.9408	2704.9151	1082.05	202.8
997.0631	2706.1456	1086.5	208.3
997.1854	2707.3755	1090.2	211.45
997.3077	2708.6046	1090.25	210.8
997.4299	2709.8331	1093.35	216.4
997.552	2711.0609	1093.4	214.25
997.6742	2712.2881	1091.45	213.6
997.7963	2713.5145	1103	221.25
997.9183	2714.7403	1098.85	220.9
998.0403	2715.9654	1098.9	219.2
998.1623	2717.1899	1117.8	226.25
998.2842	2718.4136	1106.55	229.75
998.4062	2719.6367	1115	236.05
998.528	2720.8591	1124	237.4
998.6498	2722.0809	1125.25	245.55
998.7716	2723.3019	1128.25	244.9
998.8934	2724.5223	1129.7	251.15
999.0151	2725.7421	1131	251.2
999.1368	2726.9611	1133.25	254.1
999.2584	2728.1795	1123.2	241.95
999.38	2729.3972	1115.4	238.05
999.5016	2730.6142	1118.1	233.6
999.6231	2731.8306	1107.45	227.3
999.7446	2733.0462	1100.5	220.2
999.8661	2734.2612	1104.65	220.6
999.9875	2735.4756	1097.2	218.3
1000.1089	2736.6892	1085.35	206.8
1000.2302	2737.9022	1085.5	208.95
1000.3515	2739.1145	1079.8	200.2
1000.4728	2740.3262	1088.25	203.2
1000.594	2741.5372	1075.2	195.85
1000.7152	2742.7475	1078.8	199.85
1000.8363	2743.9571	1074	192.45
1000.9575	2745.1661	1073.15	191.45
1001.0785	2746.3744	1067.05	187.8
1001.1996	2747.582	1062.4	182.8
1001.3206	2748.7889	1063.1	183
1001.4415	2749.9952	1059.7	181.2
1001.5625	2751.2008	1056.75	176.5
1001.6833	2752.4057	1057.8	177.9
1001.8042	2753.61	1056.5	175.85
1001.925	2754.8136	1053.7	174.8
1002.0458	2756.0165	1047.3	169.25
1002.1665	2757.2188	1054.85	177.4
1002.2872	2758.4204	1054.8	176.65
1002.4078	2759.6213	1054.05	172.65
1002.5285	2760.8215	1057.8	173.85
1002.649	2762.0211	1055.35	174.65
1002.7696	2763.22	1058.4	176.75
1002.8901	2764.4182	1053.5	175.9
1003.0106	2765.6158	1050.4	171.25
1003.131	2766.8127	1048	168.9
1003.2514	2768.009	1046.45	167.4
1003.3717	2769.2045	1046.75	169.4
1003.492	2770.3994	1047	167.05
1003.6123	2771.5936	1042.9	165.75
1003.7325	2772.7872	1040.85	165.8
1003.8527	2773.9801	1042.65	163.4
1003.9729	2775.1723	1057.15	162.3
1004.093	2776.3639	1038.85	161.65
1004.2131	2777.5548	1041.9	160.35
1004.3331	2778.745	1043.4	163.6
1004.4531	2779.9346	1036.4	157.3
1004.5731	2781.1235	1045.1	165.8
1004.693	2782.3117	1035.3	157.35
1004.8129	2783.4992	1040	162.5
1004.9328	2784.6861	1041.55	164.2
1005.0526	2785.8723	1038.6	158.05
1005.1723	2787.0579	1043.35	163.65
1005.2921	2788.2428	1039.95	160.45
1005.4118	2789.427	1039.1	162.65
1005.5314	2790.6106	1041.75	162.95
1005.651	2791.7935	1042.85	164.05
1005.7706	2792.9757	1041.95	164.65
1005.8902	2794.1573	1048.8	169.45
1006.0097	2795.3382	1041.75	162.5
1006.1291	2796.5184	1045.3	168.05
1006.2485	2797.698	1046.65	165.8
1006.3679	2798.8769	1044.25	164.95
1006.4873	2800.0551	1053.35	175.6
1006.6066	2801.2327	1052	168.95
1006.7258	2802.4096	1054.95	177.55
1006.8451	2803.5859	1054.85	176.5
1006.9642	2804.7615	1061.1	181.65
1007.0834	2805.9364	1054.5	177.15
1007.2025	2807.1106	1061	183.45
1007.3216	2808.2842	1063.7	182.85
1007.4406	2809.4572	1065.4	186
1007.5596	2810.6294	1069.85	190
1007.6785	2811.801	1079.65	203.4
1007.7975	2812.972	1088.25	212.1
1007.9163	2814.1423	1089.1	210.6
1008.0352	2815.3119	1103.55	224.4
1008.154	2816.4808	1110	232.8
1008.2727	2817.6491	1129.8	252.05
1008.3914	2818.8167	1141.45	263.25
1008.5101	2819.9837	1164.8	282.55
1008.6288	2821.15	1180.15	301.5
1008.7474	2822.3157	1204.25	327.45
1008.8659	2823.4807	1244	365.2
1008.9844	2824.645	1276	397.85
1009.1029	2825.8086	1300.75	423.1
1009.2214	2826.9716	1338.65	462.25
1009.3398	2828.134	1370.85	493.75
1009.4581	2829.2957	1405.45	527.5
1009.5764	2830.4567	1422.8	546.45
1009.6947	2831.617	1442.45	562.45
1009.813	2832.7767	1457.1	580.45
1009.9312	2833.9358	1458.75	581.15
1010.0493	2835.0941	1451.8	570.4
1010.1675	2836.2519	1439.8	559.5
1010.2855	2837.4089	1426.75	548.95
1010.4036	2838.5653	1409	529.25
1010.5216	2839.7211	1389.65	512.95
1010.6396	2840.8761	1385.85	507
1010.7575	2842.0306	1383.7	509.15
1010.8754	2843.1843	1384.85	506.2
1010.9932	2844.3374	1382.9	503.6
1011.111	2845.4899	1399.9	519.75
1011.2288	2846.6417	1415.35	538.6
1011.3465	2847.7928	1419.9	541.9
1011.4642	2848.9433	1424.5	544.8
1011.5818	2850.0931	1426.45	546.65
1011.6995	2851.2422	1427.5	548.65
1011.817	2852.3907	1429.45	549.1
1011.9345	2853.5385	1430.5	550.5
1012.052	2854.6857	1460.65	557.1
1012.1695	2855.8323	1439.85	562
1012.2869	2856.9781	1453.9	576.4
1012.4042	2858.1233	1472.65	593.4
1012.5216	2859.2679	1484.15	604.6
1012.6389	2860.4118	1502.9	625.1
1012.7561	2861.555	1517.5	635.75
1012.8733	2862.6976	1527.8	648.8
1012.9905	2863.8395	1535.05	656.05
1013.1076	2864.9808	1543.4	664.25
1013.2247	2866.1214	1556	678.6
1013.3417	2867.2614	1563.95	682.4
1013.4587	2868.4007	1567.8	686.45
1013.5757	2869.5393	1582.2	702.3
1013.6926	2870.6773	1599.95	717.65
1013.8095	2871.8146	1604.65	724.55
1013.9263	2872.9513	1610.8	731.5
1014.0431	2874.0874	1616.3	739.95
1014.1599	2875.2227	1630.7	750
1014.2766	2876.3574	1638.05	761.45
1014.3933	2877.4915	1647.1	767.8
1014.51	2878.6249	1657.3	779.85
1014.6266	2879.7577	1672.75	793.7
1014.7431	2880.8898	1689.25	800.25
1014.8596	2882.0212	1694	817.4
1014.9761	2883.152	1702.65	824
1015.0925	2884.2821	1717.75	841.15
1015.2089	2885.4116	1716.3	840.7
1015.3253	2886.5405	1730.8	850.9
1015.4416	2887.6686	1743.4	862.9
1015.5579	2888.7962	1736.65	861
1015.6741	2889.923	1740.1	861
1015.7903	2891.0493	1738.2	861.95
1015.9065	2892.1748	1739.35	859.75
1016.0226	2893.2997	1735.75	857.2
1016.1387	2894.424	1735	857.95
1016.2547	2895.5476	1736.4	858.85
1016.3707	2896.6706	1737.45	860.15
1016.4866	2897.7929	1733.2	854.7
1016.6025	2898.9145	1745.05	866.7
1016.7184	2900.0355	1735.35	855.8
1016.8342	2901.1559	1731.05	851.75
1016.95	2902.2756	1726.85	845.45
1017.0658	2903.3946	1726.05	849.9
1017.1815	2904.513	1722.15	838.65
1017.2971	2905.6308	1709.25	833.65
1017.4127	2906.7479	1704.95	827.2
1017.5283	2907.8643	1708.1	829.9
1017.6439	2908.9801	1705.45	827
1017.7594	2910.0953	1703.8	827.05
1017.8748	2911.2098	1712.1	828.35
1017.9902	2912.3236	1712.5	826.25
1018.1056	2913.4368	1706	824.05
1018.2209	2914.5494	1694.35	816.2
1018.3362	2915.6613	1692.65	808.25
1018.4515	2916.7725	1668.55	786.9
1018.5667	2917.8831	1660.8	782
1018.6819	2918.9931	1664.5	785.2
1018.797	2920.1024	1642.35	762.25
1018.9121	2921.211	1635.15	757.5
1019.0271	2922.319	1622.85	744.05
1019.1421	2923.4264	1621	744.35
1019.2571	2924.5331	1607.35	729.8
1019.372	2925.6391	1606.7	729.05
1019.4869	2926.7445	1603.2	727.25
1019.6017	2927.8493	1603.8	725.2
1019.7165	2928.9534	1614.25	734
1019.8313	2930.0569	1620.25	740.35
1019.946	2931.1597	1625.3	744.05
1020.0606	2932.2619	1625.4	748.2
1020.1753	2933.3634	1632.55	752.85
1020.2899	2934.4643	1645.3	759.65
1020.4044	2935.5645	1654.75	772.7
1020.5189	2936.6641	1653.65	771.7
1020.6334	2937.763	1652.25	773.9
1020.7478	2938.8613	1652.85	774.85
1020.8622	2939.959	1650.65	765.4
1020.9765	2941.056	1627.55	749.35
1021.0908	2942.1523	1610.4	731.85
1021.2051	2943.248	1574.9	696.8
1021.3193	2944.3431	1533.35	657.5
1021.4334	2945.4375	1502.95	624.5
1021.5476	2946.5313	1464.35	587.45
1021.6617	2947.6244	1439.05	561.35
1021.7757	2948.7169	1421.6	542.05
1021.8897	2949.8087	1392.7	514.15
1022.0037	2950.8999	1362.85	484.35
1022.1176	2951.9904	1337.45	460.6
1022.2315	2953.0803	1314.25	436.35
1022.3453	2954.1696	1293.25	414.15
1022.4591	2955.2582	1282	404.25
1022.5728	2956.3462	1268.65	388.6
1022.6865	2957.4335	1267.25	384.95
1022.8002	2958.5202	1257.9	376.6
1022.9138	2959.6062	1260.6	380.65
1023.0274	2960.6916	1264.5	386.75
1023.141	2961.7764	1261.15	380.25
1023.2545	2962.8605	1260.65	381.25
1023.3679	2963.9439	1258.75	382.35
1023.4813	2965.0267	1256	375.4
1023.5947	2966.1089	1273.1	372
1023.708	2967.1905	1246.8	367.8
1023.8213	2968.2714	1242.75	364.1
1023.9346	2969.3516	1246.45	366.7
1024.0478	2970.4312	1247.1	360.65
1024.1609	2971.5102	1237.95	362.65
1024.274	2972.5885	1234.4	355.75
1024.3871	2973.6662	1241.1	358.25
1024.5002	2974.7432	1236.25	359.6
1024.6132	2975.8196	1240.95	364.2
1024.7261	2976.8954	1242.25	366.05
1024.839	2977.9705	1242.8	366.45
1024.9519	2979.045	1241.6	363
1025.0647	2980.1188	1236.6	359.65
1025.1775	2981.192	1231.3	353
1025.2902	2982.2645	1230.9	352.5
1025.4029	2983.3364	1217.1	338.2
1025.5156	2984.4077	1211.6	332.8
1025.6282	2985.4783	1201.5	317
1025.7407	2986.5483	1191.2	316.25
1025.8532	2987.6177	1175.05	296.45
1025.9657	2988.6864	1168.9	291.4
1026.0782	2989.7545	1165.5	285.7
1026.1906	2990.8219	1151.65	275.2
1026.3029	2991.8887	1146.7	266.5
1026.4152	2992.9548	1132.25	253.15
1026.5275	2994.0204	1116.9	239.25
1026.6397	2995.0852	1108.9	232.15
1026.7519	2996.1495	1099.4	219.85
1026.864	2997.2131	1087.15	208.7
1026.9761	2998.276	1073.1	193.05
1027.0882	2999.3383	1067.85	189.9
1027.2002	3000.4	1059.15	179.8
1027.3122	3001.4611	1049.3	172.05
1027.4241	3002.5215	1043.85	165.45
1027.536	3003.5812	1032.75	154.5
1027.6478	3004.6404	1032.15	153
1027.7596	3005.6989	1025.95	146.85
1027.8714	3006.7567	1017.6	139.4
1027.9831	3007.8139	1047.8	136.95
1028.0947	3008.8705	1017.5	137.85
1028.2064	3009.9264	1014.6	133
1028.3179	3010.9818	1005.85	126.9
1028.4295	3012.0364	1005.45	128.15
1028.541	3013.0905	1002.9	125
1028.6524	3014.1439	1001.05	122.05
1028.7638	3015.1966	993.6	116.4
1028.8752	3016.2487	996.8	119.45
1028.9865	3017.3002	998.4	118.15
1029.0978	3018.3511	994.75	118.45
1029.209	3019.4013	990.5	110.8
1029.3202	3020.4509	989.9	112.15
1029.4314	3021.4998	988	111.4
1029.5425	3022.5481	992.8	117
1029.6535	3023.5958	989.4	111.85
1029.7645	3024.6428	990.3	110.1
1029.8755	3025.6892	986.8	110.85
1029.9864	3026.735	984.15	106.05
1030.0973	3027.7802	987.75	108.65
1030.2082	3028.8247	986.35	109.3
1030.319	3029.8685	985.7	105.1
1030.4297	3030.9118	985.15	105.25
1030.5404	3031.9544	984.25	106.5
1030.6511	3032.9963	987.65	109.5
1030.7617	3034.0376	982.3	106.05
1030.8723	3035.0783	985.95	108
1030.9829	3036.1184	987.4	107.85
1031.0934	3037.1578	986.2	109.85
1031.2038	3038.1966	983.9	103.05
1031.3142	3039.2348	988.65	112.7
1031.4246	3040.2723	994.15	104.8
1031.5349	3041.3092	989.05	114.3
1031.6452	3042.3455	987.8	109.4
1031.7554	3043.3811	991.25	110.25
1031.8656	3044.4161	988.05	109.5
1031.9758	3045.4505	988	110.55
1032.0859	3046.4842	987.2	108.55
1032.1959	3047.5173	987.4	109.9
1032.3059	3048.5498	987.9	110.45
1032.4159	3049.5816	988.85	111.65
1032.5258	3050.6128	990.15	109.8
1032.6357	3051.6434	989.9	110.05
1032.7455	3052.6734	991.1	111.4
1032.8553	3053.7027	989.85	111.2
1032.9651	3054.7314	988.1	110.5
1033.0748	3055.7594	991.9	115.25
1033.1845	3056.7868	991.7	112.6
1033.2941	3057.8136	991.85	113.5
1033.4037	3058.8398	992.5	114.05
1033.5132	3059.8653	992.2	113.8
1033.6227	3060.8902	991.95	114.15
1033.7321	3061.9145	995.05	116.8
1033.8415	3062.9381	997.25	118.9
1033.9509	3063.9612	1013.6	120.5
1034.0602	3064.9835	999.95	122.4
1034.1694	3066.0053	1003.45	121.9
1034.2787	3067.0264	1001.05	123.6
1034.3878	3068.0469	996.85	117.45
1034.497	3069.0668	999.2	117.25
1034.6061	3070.086	996.75	119.45
1034.7151	3071.1046	995.3	117.15
1034.8241	3072.1226	995.95	117.2
1034.9331	3073.1399	991	113.35
1035.042	3074.1567	990.15	112.35
1035.1508	3075.1727	990.9	110.6
1035.2597	3076.1882	984.5	107.8
1035.3684	3077.203	986.1	108.45
1035.4772	3078.2173	980.6	102.3
1035.5859	3079.2308	979.5	96.5
1035.6945	3080.2438	977	97.15
1035.8031	3081.2561	973.5	96.25
1035.9117	3082.2678	969.75	90.45
1036.0202	3083.2789	966.05	87
1036.1286	3084.2893	966.85	90.7
1036.2371	3085.2991	965.95	89.45
1036.3454	3086.3083	966.55	84.3
1036.4538	3087.3169	963.6	84.45
1036.562	3088.3248	965.4	85.7
1036.6703	3089.3321	961.25	78.95
1036.7785	3090.3388	957.8	77.85
1036.8866	3091.3449	955.8	76.75
1036.9948	3092.3503	959.05	75.9
1037.1028	3093.3551	953.4	75.45
1037.2108	3094.3593	954.95	79.25
1037.3188	3095.3629	953.15	75.9
1037.4267	3096.3658	955.85	78.45
1037.5346	3097.3681	951.1	74.8
1037.6425	3098.3698	950.25	69.7
1037.7503	3099.3708	951.1	73.55
1037.858	3100.3713	949.05	70.7
1037.9657	3101.3711	951.3	73.25
1038.0734	3102.3702	1086.4	73
1038.181	3103.3688	946.75	66.7
1038.2886	3104.3667	943.35	67.35
1038.3961	3105.364	941.6	63.1
1038.5036	3106.3607	948.6	69.85
1038.611	3107.3568	943.9	66.05
1038.7184	3108.3522	941.9	65.55
1038.8257	3109.347	942	63.3
1038.933	3110.3412	943.05	60.95
1039.0403	3111.3348	940.2	62.05
1039.1475	3112.3277	938.15	58.65
1039.2547	3113.32	938.7	60.3
1039.3618	3114.3117	935.05	56.75
1039.4689	3115.3028	935.7	56.9
1039.5759	3116.2932	935.75	55.8
1039.6829	3117.2831	937.15	54.5
1039.7898	3118.2723	933.65	56.15
1039.8967	3119.2608	931.8	54.15
1040.0035	3120.2488	932.1	53.75
1040.1103	3121.2361	934.5	55.6
1040.2171	3122.2229	932.35	56.05
1040.3238	3123.209	929.3	48.3
1040.4305	3124.1944	927	49.95
1040.5371	3125.1793	930.2	48.95
1040.6437	3126.1635	930.2	52.85
1040.7502	3127.1471	928.15	52.05
1040.8567	3128.1301	930.5	51.95
1040.9631	3129.1125	926.3	49.7
1041.0695	3130.0942	926.95	48.95
1041.1759	3131.0753	932.65	44.55
1041.2822	3132.0558	926.7	44.7
1041.3884	3133.0357	924.5	44.05
1041.4946	3134.015	923.9	44.35
1041.6008	3134.9936	924	44
1041.7069	3135.9716	943.3	45.55
1041.813	3136.949	922.75	46.75
1041.919	3137.9258	940.85	44.55
1042.025	3138.902	926.35	42.35
1042.1309	3139.8775	922.2	46.35
1042.2368	3140.8524	921	42.95
1042.3427	3141.8267	922.85	42.25
1042.4485	3142.8004	919.75	39.3
1042.5542	3143.7735	928.75	46.25
1042.6599	3144.7459	921.25	40.65
1042.7656	3145.7178	918.75	39.45
1042.8712	3146.689	918.7	41
1042.9768	3147.6596	918.55	38.1
1043.0823	3148.6295	918.05	41.25
1043.1878	3149.5989	916.85	40.35
1043.2932	3150.5676	914.9	37.5
1043.3986	3151.5357	916.15	39.95
1043.5039	3152.5032	915.8	39.15
1043.6092	3153.4701	917.05	38.05
1043.7145	3154.4364	917.85	35
1043.8197	3155.402	916.45	40.05
1043.9248	3156.367	913.9	35.85
1044.03	3157.3315	952.6	39.25
1044.135	3158.2952	914.7	37.6
1044.24	3159.2584	912.3	35.4
1044.345	3160.221	913.4	35.65
1044.4499	3161.1829	914.35	38.15
1044.5548	3162.1442	914.15	38.65
1044.6596	3163.105	915.1	37.4
1044.7644	3164.065	913.8	35.45
1044.8692	3165.0245	915.1	34.6
1044.9739	3165.9834	913.15	36.7
1045.0785	3166.9416	914.85	37.05
1045.1831	3167.8993	912.95	35.1
1045.2877	3168.8563	913.35	32.9
1045.3922	3169.8127	912.35	35.55
1045.4966	3170.7684	911.35	32.05
1045.6011	3171.7236	911.7	31.75
1045.7054	3172.6782	911.6	34.05
1045.8098	3173.6321	912.6	35.1
1045.914	3174.5854	914.7	31.2
1046.0183	3175.5381	909.8	33.6
1046.1224	3176.4902	910.25	32.8
1046.2266	3177.4417	909.5	31.95
1046.3307	3178.3926	909.6	30.45
1046.4347	3179.3428	908.25	32
1046.5387	3180.2924	911.05	34.15
1046.6427	3181.2415	911.05	32.85
1046.7466	3182.1899	911.5	32.55
1046.8504	3183.1377	910.55	31.9
1046.9542	3184.0848	916.05	36.4
1047.058	3185.0314	910.25	31.35
1047.1617	3185.9773	908.15	29.6
1047.2654	3186.9227	907.7	31.2
1047.369	3187.8674	906.9	28.7
1047.4726	3188.8115	910.5	29.75
1047.5761	3189.755	908.6	31.05
1047.6796	3190.6979	908.75	28.85
1047.783	3191.6402	907.85	31.35
1047.8864	3192.5818	908.1	30.4
1047.9898	3193.5229	932	29.2
1048.0931	3194.4633	906	27.45
1048.1963	3195.4031	908	30.4
1048.2995	3196.3423	905.65	28.5
1048.4027	3197.2809	904.65	27.3
1048.5058	3198.2189	905.15	26
1048.6089	3199.1563	912.55	29.15
1048.7119	3200.0931	907	30.1
1048.8148	3201.0292	903.1	25.8
1048.9178	3201.9648	904.45	24.5
1049.0206	3202.8997	905.95	25.3
1049.1235	3203.834	905.65	25.2
1049.2262	3204.7677	904	25.55
1049.329	3205.7008	905.15	26.35
1049.4317	3206.6333	902.8	26.5
1049.5343	3207.5652	904.6	24.1
1049.6369	3208.4964	904.1	25.55
1049.7394	3209.4271	903.65	27.45
1049.8419	3210.3571	902.1	26.6
1049.9444	3211.2865	903.1	23.35
1050.0468	3212.2154	902.25	23.65
1050.1491	3213.1436	907.15	25.45
1050.2514	3214.0712	911.95	27.15
1050.3537	3214.9982	904.2	27.55
1050.4559	3215.9246	903.9	24.45
1050.5581	3216.8503	904.35	28.65
1050.6602	3217.7755	901.95	24.1
1050.7623	3218.7001	901.35	24.3
1050.8643	3219.624	901.35	22.5
1050.9663	3220.5473	902.55	25.65
1051.0682	3221.4701	903.55	24
1051.1701	3222.3922	903.55	24.25
1051.2719	3223.3137	902.15	24.05
1051.3737	3224.2346	901.65	23.95
1051.4754	3225.1549	900.55	23.25
1051.5771	3226.0746	897.9	19.55
1051.6788	3226.9937	901.4	24.05
1051.7804	3227.9121	898.05	21.25
1051.8819	3228.83	900.35	23.65
1051.9834	3229.7473	899.5	21.15
1052.0849	3230.6639	901.75	23.55
1052.1863	3231.5799	898.8	20.85
1052.2876	3232.4954	901.55	22.95
1052.3889	3233.4102	900.15	22.45
1052.4902	3234.3244	897.1	19.2
1052.5914	3235.238	898.95	19.6
1052.6926	3236.151	912.35	22.6
1052.7937	3237.0634	899.6	23.65
1052.8948	3237.9752	898.75	20.05
1052.9958	3238.8864	897.1	18.4
1053.0968	3239.797	900.35	24.2
1053.1977	3240.7069	899.15	21.3
1053.2986	3241.6163	901.25	23.55
1053.3994	3242.5251	898.1	21.6
1053.5002	3243.4332	900.4	21.2
1053.6009	3244.3408	897.3	20.1
1053.7016	3245.2477	896.55	18.85
1053.8022	3246.154	899.25	20.15
1053.9028	3247.0598	899.35	22.75
1054.0034	3247.9649	896.1	18.1
1054.1039	3248.8694	896.1	18.1
1054.2043	3249.7733	896.05	18.15
1054.3047	3250.6766	896.7	19.2
1054.4051	3251.5793	899.65	19.6
1054.5054	3252.4814	895.8	18.6
1054.6056	3253.3829	895.4	18.05
1054.7058	3254.2838	894	16
1054.806	3255.1841	892.85	13.4
1054.9061	3256.0838	894.6	17.4
1055.0061	3256.9829	894.85	18.35
1055.1062	3257.8814	896.25	15.9
1055.2061	3258.7792	898.85	21.1
1055.306	3259.6765	895.1	14.1
1055.4059	3260.5731	897	19.4
1055.5057	3261.4692	895.7	17.8
1055.6055	3262.3647	894.1	15.65
1055.7052	3263.2595	895.3	17.6
1055.8049	3264.1538	890.95	13.75
1055.9045	3265.0474	892.8	13.05
1056.0041	3265.9404	892.2	15.6
1056.1036	3266.8329	892.5	14.6
1056.2031	3267.7247	904.05	16
1056.3025	3268.616	891.6	14.55
1056.4019	3269.5066	891.35	14.5
1056.5013	3270.3966	892.25	11.45
1056.6005	3271.286	889.95	12.1
