Software Version:	3.9.2.0
Unit SN:	10000200
Spectrometer SN:	6960
Date:	3/8/2024 1:09:10 PM
Data Line Index:	25
Spectral Points:	2048
Integration time (ms):	125
Averages:	20
Delay (ms):	30000
Sequence Number:	1
Processing:	dark subtract
Laser Power (mW):	300
Laser Current (mA):	823
Laser Diode Temp (C):	25
Laser Case Temp (C):	26.2
System Temp (C):	26.1
Spectrometer Temp (C):	24
CCD Temp (C):	0.01
Secondary Temp (C):	20.011
Heatsink Temp (C):	20.718
CCDPCB Temp (C):	36.14
SecondaryPCB Temp (C):	30.182

Wavelength	RamanShift	Raw Counts	Dark Subtracted
787.061	30.1047	456.7	46.95
787.2016	32.3739	458.4	51.3
787.3422	34.6426	464.2	55.35
787.4828	36.9109	468	58.55
787.6235	39.1787	477.45	60.6
787.7642	41.4461	484.1	66.2
787.9049	43.7131	495.8	72.3
788.0456	45.9796	503.6	78.8
788.1863	48.2456	512.5	82.8
788.3271	50.5112	523.25	89.2
788.4679	52.7764	528.65	91.65
788.6087	55.0411	542.75	102.45
788.7496	57.3054	550.25	103.75
788.8904	59.5692	560.95	113.9
789.0313	61.8326	567.75	120.15
789.1722	64.0955	584.65	133.85
789.3132	66.3579	603.4	146.75
789.4541	68.6199	616.8	154.6
789.5951	70.8815	656.15	189.1
789.7361	73.1426	737	267.05
789.8771	75.4032	943.15	466.3
790.0181	77.6634	1446.65	968.2
790.1592	79.9231	2640.95	2154.35
790.3003	82.1824	5189.7	4683.6
790.4414	84.4412	9831.55	9294.1
790.5825	86.6995	16157.75	15577.05
790.7237	88.9574	22328.8	21716.05
790.8648	91.2148	26610.8	25974.15
791.006	93.4717	28544.1	27889.9
791.1472	95.7282	28894.8	28232.85
791.2885	97.9842	28683.6	28018.9
791.4297	100.2398	28061.35	27395.45
791.571	102.4949	27318	26645.55
791.7123	104.7495	26485.85	25813.35
791.8536	107.0036	25627.65	24953.9
791.9949	109.2573	24853.95	24177.75
792.1363	111.5105	24093.8	23414.75
792.2777	113.7632	23378.85	22699.6
792.4191	116.0154	22791.15	22102.65
792.5605	118.2672	22388.1	21703.7
792.7019	120.5185	21943.75	21256.8
792.8434	122.7693	21628.3	20936.95
792.9849	125.0197	21339.15	20646.55
793.1264	127.2696	21054.2	20354.95
793.2679	129.519	20860.1	20160.65
793.4094	131.7679	20603.85	19901.4
793.551	134.0163	20396.6	19689.8
793.6926	136.2642	20118.05	19407.85
793.8342	138.5117	19839.6	19123.5
793.9758	140.7587	19507.6	18795.5
794.1175	143.0052	19270.65	18548.95
794.2591	145.2512	18982.55	18266.2
794.4008	147.4967	18696.7	17976.2
794.5425	149.7417	18529.05	17806.45
794.6842	151.9863	18350.25	17627.55
794.826	154.2304	18265.2	17536.8
794.9677	156.4739	18102.7	17372.2
795.1095	158.717	18009.65	17273
795.2513	160.9596	17848.15	17109.2
795.3931	163.2017	17624.05	16882.65
795.535	165.4433	17336.5	16593.8
795.6768	167.6844	17015.3	16270.5
795.8187	169.925	16683.25	15935.5
795.9606	172.1651	16307.1	15557.1
796.1025	174.4047	16035.7	15283.65
796.2445	176.6439	15825.8	15071.65
796.3864	178.8825	15558.95	14807.8
796.5284	181.1206	15460.2	14696.6
796.6704	183.3582	15308.25	14540.45
796.8124	185.5954	15204.95	14437.75
796.9544	187.832	15133.15	14364.95
797.0965	190.0681	15081.2	14310.4
797.2386	192.3037	15083	14298.2
797.3806	194.5388	15106.7	14329.7
797.5228	196.7734	15117.25	14339.75
797.6649	199.0075	15186.4	14401.95
797.807	201.2411	15342.5	14557
797.9492	203.4742	15417.1	14622.35
798.0914	205.7068	15573.5	14779.4
798.2336	207.9389	15664.5	14872.25
798.3758	210.1704	15862.75	15079.65
798.518	212.4015	15929.55	15149.55
798.6603	214.632	16099.6	15328.25
798.8025	216.862	16282.8	15514.25
798.9448	219.0915	16409.75	15638.55
799.0871	221.3205	16556.65	15783.2
799.2294	223.549	16748.4	15980.55
799.3718	225.777	16942.35	16172.15
799.5141	228.0044	17213.95	16436.25
799.6565	230.2314	17496.5	16716.65
799.7989	232.4578	17765.55	16986.7
799.9413	234.6837	18047.5	17259.85
800.0837	236.909	18178.9	17388.65
800.2262	239.1339	18167.95	17350.3
800.3687	241.3582	18068.45	17262.75
800.5111	243.582	17856	17026.2
800.6536	245.8053	17627.9	16807.3
800.7961	248.0281	17463.5	16651.85
800.9387	250.2503	17372.75	16558.55
801.0812	252.472	17262.35	16444.65
801.2238	254.6932	17319.35	16503.25
801.3664	256.9139	17318.85	16502.8
801.509	259.134	17438.15	16611.3
801.6516	261.3536	17578.65	16754.35
801.7942	263.5727	17726.9	16903.15
801.9369	265.7912	17884.35	17062.45
802.0795	268.0092	18068.8	17245.4
802.2222	270.2267	18125.9	17304.8
802.3649	272.4436	18170.05	17343.3
802.5076	274.6601	18139.7	17304.1
802.6504	276.8759	18083.75	17255.65
802.7931	279.0913	17964.9	17133.8
802.9359	281.3061	17858.2	17027.7
803.0787	283.5204	17906.15	17070.2
803.2215	285.7341	17912.7	17072.25
803.3643	287.9473	17997.85	17149.85
803.5071	290.16	18134.1	17294.75
803.6499	292.3721	18364.8	17527.75
803.7928	294.5837	18679.3	17844.5
803.9357	296.7947	18979.2	18143.75
804.0786	299.0052	19192.9	18354.8
804.2215	301.2152	19054.5	18214.3
804.3644	303.4246	18809.2	17971.3
804.5074	305.6334	18356.8	17520.4
804.6503	307.8418	17876.1	17036.45
804.7933	310.0495	17477.7	16637.75
804.9363	312.2568	17144.25	16301.4
805.0793	314.4635	16809.2	15962.7
805.2223	316.6696	16647.4	15799.55
805.3653	318.8752	16516.7	15657.35
805.5084	321.0802	16520.5	15668.65
805.6514	323.2847	16602.6	15750.3
805.7945	325.4887	16629.3	15778.65
805.9376	327.692	16592.2	15738.1
806.0807	329.8949	16506.5	15651.7
806.2238	332.0972	16299.8	15442.2
806.367	334.2989	16051.75	15192.85
806.5101	336.5001	15790.55	14927.85
806.6533	338.7007	15617.85	14754.6
806.7965	340.9008	15447.1	14588.25
806.9397	343.1003	15331.85	14467.75
807.0829	345.2992	15257.65	14396.35
807.2261	347.4976	15217.5	14353.45
807.3693	349.6955	15181.6	14315.1
807.5126	351.8927	15254.85	14386.15
807.6559	354.0895	15164.75	14288.65
807.7991	356.2856	15200.05	14326.55
807.9424	358.4812	15133.25	14261.25
808.0857	360.6763	15170.7	14295.3
808.2291	362.8707	15165.25	14290.65
808.3724	365.0646	15228.7	14351.75
808.5158	367.258	15261.35	14385.85
808.6591	369.4508	15313.45	14432.3
808.8025	371.643	15413.85	14528.9
808.9459	373.8346	15450.7	14565.75
809.0893	376.0257	15462.1	14576.6
809.2327	378.2162	15441.2	14562.5
809.3762	380.4062	15373.35	14491.25
809.5196	382.5956	15278.8	14400.4
809.6631	384.7844	15169.05	14297.95
809.8066	386.9726	15080.6	14212.55
809.9501	389.1603	14971.45	14098.5
810.0936	391.3474	14946.75	14040.05
810.2371	393.5339	14904.4	14026.5
810.3806	395.7199	14849.55	13974.6
810.5241	397.9052	14890.3	14014.2
810.6677	400.09	14944.35	14069.15
810.8113	402.2743	15078.25	14204.15
810.9548	404.4579	15195.8	14318.5
811.0984	406.641	15366	14487.2
811.2421	408.8235	15582.45	14705.85
811.3857	411.0054	15830.1	14944.7
811.5293	413.1868	16173.55	15279.45
811.673	415.3675	16348.7	15456.6
811.8166	417.5477	16460.7	15568.15
811.9603	419.7273	16456.45	15566.35
812.104	421.9064	16398.7	15503.75
812.2477	424.0848	16271.9	15385.6
812.3914	426.2627	16084.5	15195.8
812.5351	428.4399	15840.7	14948.8
812.6788	430.6166	15471.15	14574.45
812.8226	432.7928	15138.25	14244.6
812.9663	434.9683	14835.35	13942.4
813.1101	437.1432	14599.45	13708.8
813.2539	439.3176	14439.6	13556.3
813.3977	441.4914	14350.7	13470.95
813.5415	443.6645	14321.3	13435.05
813.6853	445.8371	14263.3	13372.6
813.8291	448.0091	14196.9	13308.8
813.973	450.1806	14186.95	13297.65
814.1168	452.3514	14178.55	13290
814.2607	454.5216	14172.55	13273.6
814.4046	456.6913	14156.6	13263
814.5485	458.8603	14227.2	13335.15
814.6924	461.0288	14251.25	13367.05
814.8363	463.1967	14251.7	13370.55
814.9802	465.3639	14325.8	13433.15
815.1241	467.5306	14375.2	13486.6
815.2681	469.6967	14450.7	13564.3
815.412	471.8622	14519.5	13634.85
815.556	474.0271	14649.85	13761.65
815.7	476.1914	14712.8	13817.5
815.844	478.3551	14724.85	13830.6
815.988	480.5182	14742.55	13853.9
816.132	482.6807	14784.85	13903.25
816.276	484.8426	14940.15	14064.45
816.4201	487.0039	15254.65	14371.7
816.5641	489.1647	15632.05	14742.95
816.7082	491.3248	16039.25	15143.55
816.8522	493.4843	16167.7	15279.3
816.9963	495.6432	16148	15259.1
817.1404	497.8015	16023.1	15120.55
817.2845	499.9592	15990.1	15084.45
817.4286	502.1163	15842.4	14935.7
817.5727	504.2728	15584.35	14688.05
817.7168	506.4287	15291.95	14409.75
817.861	508.5839	14929.45	14046.15
818.0051	510.7386	14698.6	13807.45
818.1493	512.8927	14584.15	13679.55
818.2935	515.0461	14491.15	13586.95
818.4377	517.199	14507.3	13602.25
818.5818	519.3512	14636.55	13733.3
818.726	521.5029	14779.15	13873.75
818.8703	523.6539	14936.55	14037.65
819.0145	525.8043	15019	14114.05
819.1587	527.9541	14973.9	14069.25
819.303	530.1033	14870.7	13967.65
819.4472	532.2519	14825.45	13920.15
819.5915	534.3999	14892.5	13989
819.7357	536.5472	15041.1	14138.25
819.88	538.694	15435.6	14537.35
820.0243	540.8401	15873.05	14965.65
820.1686	542.9856	16220	15305.2
820.3129	545.1305	16303.1	15381.45
820.4572	547.2748	16193.1	15269.7
820.6016	549.4185	15938.2	15016
820.7459	551.5615	15699.5	14781.8
820.8902	553.704	15619.45	14703.25
821.0346	555.8458	15596.8	14685.15
821.1789	557.987	15749.25	14837.1
821.3233	560.1276	15879.1	14960.15
821.4677	562.2675	16094.45	15182.4
821.6121	564.4069	16401.45	15487.2
821.7565	566.5456	16602.05	15690.6
821.9009	568.6837	16644.95	15735.4
822.0453	570.8212	16259.85	15351.55
822.1897	572.958	15748.2	14839.25
822.3342	575.0942	15306.45	14398.6
822.4786	577.2299	14988.2	14080.6
822.6231	579.3648	14854.7	13964.85
822.7675	581.4992	14875.05	13991.25
822.912	583.6329	15018.6	14136.2
823.0565	585.766	15215.7	14323.2
823.201	587.8985	15354.2	14457.85
823.3454	590.0304	15390.6	14459.25
823.4899	592.1616	15336.65	14423.1
823.6345	594.2922	15235.1	14317.9
823.779	596.4222	15024.1	14103.75
823.9235	598.5515	14851.9	13929.9
824.068	600.6802	14694.25	13776.75
824.2126	602.8083	14521.05	13606
824.3571	604.9358	14476.9	13562.6
824.5017	607.0626	14485.3	13565.65
824.6462	609.1888	14557.8	13629.15
824.7908	611.3144	14601.55	13671.2
824.9354	613.4393	14591.8	13665.55
825.08	615.5636	14615.1	13689.2
825.2246	617.6873	14588.5	13662.35
825.3692	619.8103	14519.6	13593.6
825.5138	621.9327	14383.75	13461.9
825.6584	624.0544	14270.4	13351.55
825.803	626.1756	14157.25	13241.55
825.9477	628.2961	14093.1	13173.8
826.0923	630.4159	13974	13046.6
826.237	632.5351	13954.3	13030.8
826.3816	634.6537	13936.15	13002.8
826.5263	636.7716	13969.95	13034.95
826.6709	638.8889	13959.9	13025.55
826.8156	641.0056	13979.8	13038.4
826.9603	643.1216	13966.3	13037.65
827.105	645.237	13979.85	13051.35
827.2497	647.3518	13925.9	13002.3
827.3944	649.4659	13912.3	12995.15
827.5391	651.5793	13842.85	12927.75
827.6838	653.6922	13838.55	12919.65
827.8285	655.8043	13825.5	12907.6
827.9733	657.9159	13855.95	12933.9
828.118	660.0268	13755.45	12830.75
828.2627	662.137	13779.85	12856.7
828.4075	664.2466	13793.95	12860.4
828.5522	666.3556	13769.85	12841.55
828.697	668.4639	13726.85	12799.4
828.8418	670.5716	13726.75	12803.15
828.9865	672.6786	13769.35	12839.75
829.1313	674.785	13769	12834.7
829.2761	676.8907	13813.85	12886.05
829.4209	678.9958	13838.4	12915.8
829.5657	681.1002	13847.5	12919.2
829.7105	683.204	13791.15	12852.3
829.8553	685.3072	13789.25	12853.9
830.0001	687.4097	13760.55	12827.1
830.1449	689.5115	13741.5	12802.85
830.2898	691.6127	13728.1	12798.8
830.4346	693.7132	13646.2	12721.1
830.5794	695.8131	13652.6	12711.2
830.7243	697.9123	13677.3	12745.55
830.8691	700.0109	13680.8	12743.35
831.014	702.1089	13679.3	12743.5
831.1588	704.2061	13716.85	12784
831.3037	706.3028	13740.8	12805.85
831.4486	708.3987	13805.6	12864.55
831.5935	710.4941	13841.75	12907.9
831.7383	712.5887	13970.75	13036.85
831.8832	714.6827	14162.6	13224.7
832.0281	716.7761	14389.45	13458.1
832.173	718.8688	14672.4	13739.35
832.3179	720.9608	14842.9	13900
832.4628	723.0522	14950.75	14006.75
832.6077	725.1429	14901.55	13957.35
832.7527	727.233	14774.9	13839.05
832.8976	729.3224	14691.45	13756
833.0425	731.4112	14519.65	13583
833.1874	733.4993	14391.65	13450.8
833.3324	735.5867	14154.1	13218.45
833.4773	737.6735	14014.15	13072.7
833.6222	739.7596	13889.7	12950.35
833.7672	741.845	13799.7	12861.35
833.9122	743.9298	13734.3	12797.2
834.0571	746.014	13751.35	12813.4
834.2021	748.0974	13751.8	12809.85
834.347	750.1802	13746.3	12801.2
834.492	752.2624	13753.25	12810.1
834.637	754.3439	13810.35	12863.5
834.782	756.4247	13879.5	12927.85
834.9269	758.5048	14038.4	13094.4
835.0719	760.5843	14309.1	13362.4
835.2169	762.6631	14697.1	13750.9
835.3619	764.7413	15206.05	14259.8
835.5069	766.8188	15853.2	14905.65
835.6519	768.8956	16334.2	15385.8
835.7969	770.9718	16691.95	15748.45
835.9419	773.0473	16569.5	15630.15
836.0869	775.1221	16293.7	15349.4
836.232	777.1962	15952.65	15010.3
836.377	779.2697	15799.65	14853.1
836.522	781.3426	15851.9	14894.3
836.667	783.4147	16019.7	15072.35
836.8121	785.4862	16215.55	15268.95
836.9571	787.557	16137.15	15189.2
837.1021	789.6271	15723.95	14778.1
837.2472	791.6966	15152.7	14205.2
837.3922	793.7654	14580.1	13635.3
837.5373	795.8335	14259.45	13313.8
837.6823	797.901	13991.5	13045.6
837.8274	799.9678	13896.3	12945.3
837.9724	802.0339	13861.5	12911.75
838.1175	804.0993	13847.65	12883.15
838.2626	806.1641	13825.1	12878.75
838.4076	808.2282	13783.5	12839.8
838.5527	810.2916	13688.15	12743.2
838.6978	812.3544	13603.45	12663.1
838.8428	814.4164	13563	12614.4
838.9879	816.4778	13559	12607.7
839.133	818.5385	13578.95	12629.45
839.2781	820.5986	13710.2	12761.5
839.4232	822.658	13888.45	12939.55
839.5682	824.7166	14128.8	13182.15
839.7133	826.7747	14499.9	13548.7
839.8584	828.832	14851.9	13897.5
840.0035	830.8886	15119.3	14167.55
840.1486	832.9446	15242.45	14290.35
840.2937	834.9999	15202.1	14255.3
840.4388	837.0545	15030.45	14074.95
840.5839	839.1085	14895.7	13944.6
840.729	841.1618	14709	13753.25
840.8741	843.2143	14577.35	13632.9
841.0192	845.2662	14432	13480.15
841.1643	847.3175	14367.1	13415.4
841.3095	849.368	14225.4	13273.15
841.4546	851.4179	14102.1	13152.7
841.5997	853.467	14004.3	13051.95
841.7448	855.5155	13955.35	13003
841.8899	857.5633	13867.95	12917.05
842.0351	859.6105	13767.2	12812.75
842.1802	861.6569	13704.85	12751.5
842.3253	863.7027	13617.15	12659.7
842.4704	865.7478	13598.7	12645.35
842.6156	867.7922	13585.45	12630.7
842.7607	869.8359	13618.05	12665.15
842.9058	871.8789	13671.05	12715
843.0509	873.9212	13816.65	12828.1
843.1961	875.9629	13918.25	12963.45
843.3412	878.0039	14069.3	13117.45
843.4863	880.0441	14155.2	13203.75
843.6315	882.0837	14201.4	13250.95
843.7766	884.1226	14177.2	13223.8
843.9218	886.1609	14146.1	13195.15
844.0669	888.1984	14169.9	13222.4
844.212	890.2352	14223.95	13270.7
844.3572	892.2714	14207.5	13247.1
844.5023	894.3069	14178.4	13222.2
844.6475	896.3416	14044.55	13090.55
844.7926	898.3757	13961.15	13004.5
844.9377	900.4091	13918.2	12958.45
845.0829	902.4418	13942.05	12976.55
845.228	904.4739	13954.1	12990.5
845.3732	906.5052	14021.75	13063.85
845.5183	908.5358	13941.35	12984
845.6635	910.5658	13803.5	12845.1
845.8086	912.595	13618.9	12662.65
845.9538	914.6236	13408.7	12450.4
846.0989	916.6515	13298.45	12339.85
846.2441	918.6786	13274.75	12315.15
846.3892	920.7051	13320.65	12362.6
846.5344	922.7309	13396.9	12440.95
846.6795	924.756	13442.35	12486.75
846.8246	926.7804	13550.45	12592.5
846.9698	928.8041	13508.2	12551.1
847.1149	930.8272	13589.8	12635.05
847.2601	932.8495	13524.2	12561
847.4052	934.8711	13481.5	12523.2
847.5504	936.892	13409.25	12451.95
847.6955	938.9123	13329.25	12372.4
847.8407	940.9318	13261.8	12308.3
847.9858	942.9506	13216.75	12257.95
848.131	944.9688	13137	12176.05
848.2761	946.9862	13058.35	12103.65
848.4213	949.003	12946	11986.95
848.5664	951.019	12906.45	11946.45
848.7115	953.0344	12896.3	11940.1
848.8567	955.0491	12901.45	11943.75
849.0018	957.063	12950.1	11993.85
849.147	959.0763	13067.25	12108.5
849.2921	961.0888	13108.15	12154.1
849.4373	963.1007	13156.1	12203.25
849.5824	965.1119	13200.25	12255.25
849.7275	967.1223	13207.95	12270.7
849.8727	969.1321	13211.3	12272
850.0178	971.1412	13255.5	12308.4
850.1629	973.1495	13253.35	12303.4
850.3081	975.1572	13298.1	12300.95
850.4532	977.1641	13334.95	12378.05
850.5983	979.1704	13288.95	12331.65
850.7435	981.1759	13271.2	12311.3
850.8886	983.1808	13320.6	12361.45
851.0337	985.1849	13351.75	12382.95
851.1788	987.1884	13439.65	12481.85
851.324	989.1911	13608.9	12654.95
851.4691	991.1932	13681.95	12725.75
851.6142	993.1945	13702.45	12746.9
851.7593	995.1951	13655.2	12699.8
851.9045	997.1951	13640	12678.05
852.0496	999.1943	13614.4	12655.25
852.1947	1001.1928	13567.25	12609.15
852.3398	1003.1906	13577.4	12620.35
852.4849	1005.1877	13678.7	12720.5
852.63	1007.1841	13677.85	12724.5
852.7751	1009.1798	13668.35	12715.25
852.9202	1011.1748	13542.5	12583.4
853.0653	1013.1691	13379.15	12420.6
853.2104	1015.1627	13145.05	12188.95
853.3555	1017.1556	12940.7	11986.65
853.5006	1019.1477	12860.1	11906.05
853.6457	1021.1392	12765.6	11820
853.7908	1023.1299	12738.2	11792.9
853.9359	1025.12	12730.45	11792.6
854.081	1027.1093	12779.55	11855.95
854.2261	1029.0979	12874.75	11952.75
854.3712	1031.0859	12955.35	12027.1
854.5163	1033.0731	12968.75	12026.2
854.6613	1035.0596	12944.2	12000.1
854.8064	1037.0454	12790.65	11842.85
854.9515	1039.0304	12697.85	11749.1
855.0965	1041.0148	12564.95	11610.7
855.2416	1042.9985	12485.25	11530.1
855.3867	1044.9814	12429.2	11481.9
855.5317	1046.9636	12375.8	11419.7
855.6768	1048.9452	12383.4	11431.85
855.8219	1050.926	12415.5	11463.15
855.9669	1052.9061	12418.6	11464.25
856.112	1054.8855	12440.85	11484.6
856.257	1056.8642	12486.4	11537
856.4021	1058.8421	12536	11578
856.5471	1060.8194	12564.4	11608.2
856.6921	1062.7959	12585.85	11629.9
856.8372	1064.7717	12642.95	11689.2
856.9822	1066.7469	12673.1	11715.15
857.1272	1068.7213	12707.25	11754.55
857.2723	1070.695	12760.65	11809.8
857.4173	1072.6679	12726.15	11774.3
857.5623	1074.6402	12723.1	11769.55
857.7073	1076.6117	12671.5	11711.25
857.8523	1078.5826	12633.65	11681.6
857.9973	1080.5527	12580.6	11623.2
858.1423	1082.5221	12580.95	11626.95
858.2873	1084.4908	12649.4	11697.35
858.4323	1086.4587	12764.25	11808.4
858.5773	1088.426	12839.7	11884.8
858.7223	1090.3925	12834.45	11874.45
858.8673	1092.3584	12812.85	11857
859.0123	1094.3235	12735.5	11785.65
859.1573	1096.2879	12803.35	11851.45
859.3022	1098.2515	12825.6	11873.95
859.4472	1100.2145	12964.75	12012.95
859.5922	1102.1767	13121.15	12165.55
859.7371	1104.1382	13284.95	12332.6
859.8821	1106.099	13525.15	12571.7
860.027	1108.0591	13726.2	12772.85
860.172	1110.0185	13909.6	12954
860.3169	1111.9771	13952.05	12998.7
860.4619	1113.9351	13805.4	12854.45
860.6068	1115.8923	13566.15	12612.75
860.7517	1117.8488	13363.35	12407.45
860.8967	1119.8045	13135.65	12184.2
861.0416	1121.7596	13022.9	12071.9
861.1865	1123.7139	12903.25	11953.65
861.3314	1125.6675	12890	11941.3
861.4763	1127.6204	12954.25	12003.7
861.6212	1129.5726	12893.05	11938.1
861.7661	1131.524	12871.25	11921.25
861.911	1133.4748	12745.6	11794.3
862.0559	1135.4248	12665.4	11709.4
862.2008	1137.3741	12604.4	11654.1
862.3457	1139.3226	12517.2	11564.65
862.4905	1141.2705	12482.6	11529.35
862.6354	1143.2176	12369.5	11412.4
862.7803	1145.164	12330.55	11376.2
862.9251	1147.1097	12311.05	11359.65
863.07	1149.0546	12274.65	11320.15
863.2148	1150.9989	12181.25	11227.5
863.3597	1152.9424	12062.8	11110.3
863.5045	1154.8852	11946.65	10996.85
863.6493	1156.8272	11874.2	10921.7
863.7942	1158.7686	11877	10920.45
863.939	1160.7092	11863.55	10911
864.0838	1162.6491	11856.45	10902.6
864.2286	1164.5883	11972.95	11021.9
864.3734	1166.5267	12076.3	11124.55
864.5182	1168.4644	12203.85	11252.2
864.663	1170.4014	12413.45	11461.6
864.8078	1172.3377	12652.05	11703.9
864.9526	1174.2732	12924.6	11973.85
865.0974	1176.2081	13274.85	12324.85
865.2421	1178.1421	13637.55	12683.5
865.3869	1180.0755	14054.7	13103.85
865.5317	1182.0082	14252.55	13304
865.6764	1183.9401	14342.65	13397.25
865.8212	1185.8713	14198.85	13257.25
865.9659	1187.8017	13948.75	13014.85
866.1106	1189.7315	13597.9	12669.1
866.2554	1191.6605	13263.85	12339.2
866.4001	1193.5888	13054.6	12121.05
866.5448	1195.5163	12918.5	11975.6
866.6895	1197.4432	12823.15	11876.1
866.8342	1199.3693	12773.55	11829.7
866.9789	1201.2947	12756.85	11808.15
867.1236	1203.2193	12718	11769.55
867.2683	1205.1432	12733.65	11784.5
867.413	1207.0664	12722.25	11776.8
867.5576	1208.9889	12717.15	11766.9
867.7023	1210.9106	12726.8	11780.4
867.847	1212.8316	12729.15	11786.9
867.9916	1214.7519	12775.25	11817.6
868.1363	1216.6715	12802.45	11857.1
868.2809	1218.5903	12853.4	11906.45
868.4255	1220.5084	12868.05	11922.15
868.5701	1222.4257	12908.3	11962.65
868.7148	1224.3424	12901.2	11957.95
868.8594	1226.2583	13004.2	12059.85
869.004	1228.1735	13105.75	12163.2
869.1486	1230.0879	13213.25	12266.25
869.2932	1232.0016	13357.3	12413.2
869.4377	1233.9146	13422.45	12470.2
869.5823	1235.8269	13368.3	12421.6
869.7269	1237.7384	13312.05	12366.35
869.8715	1239.6492	13152.65	12208.8
870.016	1241.5592	13069.2	12121.05
870.1606	1243.4686	13015.85	12068.4
870.3051	1245.3772	13096.55	12152.25
870.4496	1247.285	13192.05	12246.1
870.5941	1249.1922	13250.55	12307.45
870.7387	1251.0986	13346.2	12402.15
870.8832	1253.0042	13364.65	12420.3
871.0277	1254.9092	13416.45	12471.95
871.1722	1256.8134	13526	12584.85
871.3167	1258.7169	13663.15	12720.8
871.4611	1260.6196	13816.5	12874.95
871.6056	1262.5216	14046.65	13102.3
871.7501	1264.4229	14222.8	13279.85
871.8945	1266.3234	14422.4	13478.5
872.039	1268.2232	14484.05	13536.55
872.1834	1270.1223	14530.4	13583.4
872.3278	1272.0207	14566.6	13618.75
872.4723	1273.9183	14549.1	13598.75
872.6167	1275.8151	14478.85	13533.5
872.7611	1277.7113	14434	13489.9
872.9055	1279.6067	14399.25	13458.05
873.0499	1281.5014	14483.8	13538.25
873.1943	1283.3953	14647.95	13699.7
873.3386	1285.2885	14896.4	13952.9
873.483	1287.181	15164.3	14221.05
873.6274	1289.0727	15470.65	14524.75
873.7717	1290.9637	15613.3	14669.4
873.9161	1292.854	15807.75	14863.55
874.0604	1294.7435	15884.1	14939.35
874.2047	1296.6323	15891.25	14949.45
874.349	1298.5204	15894.45	14949.35
874.4933	1300.4077	15924	14977.95
874.6376	1302.2943	15885.7	14941.15
874.7819	1304.1802	15781.6	14838.15
874.9262	1306.0653	15481.05	14535.75
875.0705	1307.9497	15123.3	14182.85
875.2147	1309.8333	14811.55	13869
875.359	1311.7162	14633.75	13688.5
875.5032	1313.5984	14528.7	13582.45
875.6475	1315.4798	14466.95	13512.4
875.7917	1317.3605	14460.15	13502.4
875.9359	1319.2405	14427	13479.85
876.0801	1321.1197	14288.95	13340.7
876.2243	1322.9982	14043.3	13094.85
876.3685	1324.876	13845.05	12901.7
876.5127	1326.753	13686.15	12742.55
876.6569	1328.6293	13559.55	12612.25
876.801	1330.5048	13475.1	12528.3
876.9452	1332.3796	13387.8	12442
877.0893	1334.2537	13330.15	12358.25
877.2335	1336.127	13285.9	12345
877.3776	1337.9996	13245.4	12300.1
877.5217	1339.8714	13236.7	12294.9
877.6658	1341.7426	13246.15	12260
877.8099	1343.6129	13246.7	12301.4
877.954	1345.4826	13212.05	12268.3
878.0981	1347.3515	13180.65	12235.2
878.2422	1349.2196	13189.8	12245.5
878.3862	1351.087	13188.15	12244.25
878.5303	1352.9537	13239.05	12295.1
878.6743	1354.8197	13325.5	12380.2
878.8184	1356.6849	13502.05	12558.25
878.9624	1358.5493	13648.4	12706.3
879.1064	1360.4131	13754.95	12809.3
879.2504	1362.276	13792.8	12851.9
879.3944	1364.1383	13774.3	12832.65
879.5384	1365.9998	13495.35	12549.5
879.6823	1367.8606	13155.4	12208.65
879.8263	1369.7206	12803.3	11860.95
879.9702	1371.5799	12500.15	11555.1
880.1142	1373.4384	12262	11319.75
880.2581	1375.2962	12102.75	11159.25
880.402	1377.1533	11814.2	10869.85
880.5459	1379.0096	11448.15	10509.45
880.6898	1380.8652	11119.05	10181.8
880.8337	1382.7201	10867.1	9925.6
880.9776	1384.5742	10640.35	9700.3
881.1215	1386.4275	10427.85	9485.65
881.2653	1388.2802	10300.25	9359.75
881.4092	1390.132	10206.75	9262.3
881.553	1391.9832	10135.2	9190.8
881.6968	1393.8336	10012.25	9069.1
881.8406	1395.6832	9969.45	9028
881.9844	1397.5322	9931.4	8989.3
882.1282	1399.3803	9926.65	8977.25
882.272	1401.2278	9893.35	8950.55
882.4158	1403.0745	9867	8930.4
882.5595	1404.9204	9819.7	8879.4
882.7033	1406.7656	9878.9	8935.7
882.847	1408.6101	9883.65	8941.3
882.9908	1410.4538	9896.75	8954.6
883.1345	1412.2968	9967.1	9026.3
883.2782	1414.139	10003.9	9063.8
883.4219	1415.9805	10048.4	9110.85
883.5656	1417.8213	10128.8	9182.65
883.7092	1419.6613	10237.45	9303.85
883.8529	1421.5006	10410.5	9470.3
883.9965	1423.3391	10633.7	9692.65
884.1402	1425.1769	10907.15	9968.15
884.2838	1427.0139	11334.2	10392.35
884.4274	1428.8502	11903.75	10965.75
884.571	1430.6858	12416.2	11476.8
884.7146	1432.5206	12821.7	11884.45
884.8582	1434.3547	13042.9	12102.6
885.0018	1436.188	13105.4	12166.2
885.1453	1438.0206	12995.35	12056.5
885.2889	1439.8524	12819.8	11879.15
885.4324	1441.6835	12693.8	11754.35
885.5759	1443.5139	12597.75	11655.75
885.7194	1445.3435	12515.5	11579.9
885.8629	1447.1724	12494.95	11557.95
886.0064	1449.0005	12402.35	11465.45
886.1499	1450.8279	12316.05	11380.6
886.2933	1452.6545	12321.6	11386.35
886.4368	1454.4804	12331.45	11392.95
886.5802	1456.3056	12314.65	11373.65
886.7237	1458.13	12257.05	11322.5
886.8671	1459.9536	12054.9	11118.4
887.0105	1461.7766	11749.9	10809.3
887.1539	1463.5987	11394.55	10456.4
887.2972	1465.4202	11047.5	10109.25
887.4406	1467.2409	10685.6	9747.65
887.584	1469.0608	10418.7	9477.9
887.7273	1470.88	10123.75	9182.9
887.8706	1472.6984	9901.55	8962
888.0139	1474.5161	9719.5	8776.6
888.1572	1476.3331	9543.4	8606.75
888.3005	1478.1493	9430.3	8490.4
888.4438	1479.9648	9335.85	8401.55
888.5871	1481.7795	9226.75	8289.4
888.7303	1483.5935	9166.1	8230.2
888.8736	1485.4067	9119.8	8181.5
889.0168	1487.2192	9072.85	8136.2
889.16	1489.031	9035.3	8096.55
889.3032	1490.842	8980.6	8042.75
889.4464	1492.6522	8941.45	8002.3
889.5896	1494.4618	8898.5	7961.55
889.7327	1496.2705	8866	7928.25
889.8759	1498.0785	8845.4	7911.95
890.019	1499.8858	8806.75	7870.85
890.1622	1501.6924	8752.25	7815.6
890.3053	1503.4981	8713.75	7776.55
890.4484	1505.3032	8666.1	7731.3
890.5914	1507.1075	8661.5	7724.85
890.7345	1508.911	8608.45	7672.55
890.8776	1510.7138	8568.2	7631.35
891.0206	1512.5159	8507.7	7572.9
891.1637	1514.3172	8452.75	7518.4
891.3067	1516.1178	8431.9	7498.45
891.4497	1517.9176	8390	7453.5
891.5927	1519.7166	8358.35	7426.55
891.7357	1521.515	8321.9	7382.9
891.8786	1523.3126	8279.75	7348.05
892.0216	1525.1094	8279	7344.15
892.1645	1526.9055	8226.05	7294.85
892.3074	1528.7008	8215.9	7281.6
892.4503	1530.4954	8134.25	7200.3
892.5932	1532.2893	8148.8	7220.5
892.7361	1534.0824	8097.45	7165.2
892.879	1535.8747	8109.4	7180.55
893.0218	1537.6663	8076.05	7150.15
893.1647	1539.4572	8055.9	7126
893.3075	1541.2473	8058.9	7130.95
893.4503	1543.0367	8050.7	7122.6
893.5931	1544.8253	8052.2	7115.55
893.7359	1546.6132	8084.4	7150.5
893.8787	1548.4003	8080.75	7142.7
894.0214	1550.1867	8109.75	7174.35
894.1642	1551.9723	8168.75	7235.45
894.3069	1553.7572	8238.35	7311.35
894.4496	1555.5414	8314.2	7387.05
894.5923	1557.3247	8391.95	7468
894.735	1559.1074	8516.85	7597.45
894.8777	1560.8893	8637	7713.95
895.0204	1562.6705	8729.55	7804.8
895.163	1564.4509	8859.55	7934.8
895.3056	1566.2305	8889.75	7972.7
895.4482	1568.0094	8941.35	8023.65
895.5908	1569.7876	8938.7	8017.85
895.7334	1571.565	8933.35	8010.85
895.876	1573.3417	8932.2	8011.45
896.0186	1575.1176	8901.25	7982.35
896.1611	1576.8928	8872.05	7953.4
896.3036	1578.6672	8832.2	7922.75
896.4461	1580.4409	8780.7	7871.05
896.5886	1582.2138	8748.95	7833.1
896.7311	1583.986	8720.5	7802.85
896.8736	1585.7575	8720.7	7802.95
897.0161	1587.5282	8716.45	7802.35
897.1585	1589.2981	8741	7829.1
897.3009	1591.0673	8782.85	7872.1
897.4433	1592.8358	8844.75	7930.4
897.5857	1594.6035	8934.25	8018.6
897.7281	1596.3704	8952.7	8036.05
897.8705	1598.1366	9027.85	8112.4
898.0128	1599.9021	9115.6	8198.7
898.1551	1601.6668	9211.9	8294.7
898.2975	1603.4308	9308.3	8389.65
898.4398	1605.194	9435.3	8514.85
898.5821	1606.9564	9595.45	8690.15
898.7243	1608.7182	9805.65	8900.2
898.8666	1610.4791	10016	9115.35
899.0088	1612.2394	10262.3	9361.35
899.1511	1613.9988	10499.35	9596.35
899.2933	1615.7576	10724.95	9816.75
899.4355	1617.5156	10962.25	10042.2
899.5776	1619.2728	11054.9	10135.85
899.7198	1621.0293	11083.55	10168.3
899.862	1622.785	10980.75	10066.2
900.0041	1624.54	10744.2	9834
900.1462	1626.2942	10499.35	9591.6
900.2883	1628.0477	10163.8	9250.9
900.4304	1629.8005	9906.4	8995
900.5725	1631.5525	9637.35	8732
900.7145	1633.3037	9414.45	8509.25
900.8566	1635.0542	9264.05	8357.25
900.9986	1636.804	9110.15	8202.25
901.1406	1638.553	9112.25	8113.3
901.2826	1640.3013	8989.1	8079
901.4245	1642.0488	8973.2	8065.25
901.5665	1643.7955	9000.9	8095.1
901.7085	1645.5416	9050.85	8147.05
901.8504	1647.2868	9156.35	8248.2
901.9923	1649.0313	9257.2	8348.2
902.1342	1650.7751	9404.25	8492.3
902.2761	1652.5181	9557	8652.85
902.4179	1654.2604	9739.7	8836.45
902.5598	1656.0019	9980.9	9073.45
902.7016	1657.7427	10248.5	9340.6
902.8434	1659.4828	10524.95	9615.85
902.9852	1661.222	10659.4	9750.7
903.127	1662.9606	10612.85	9702.15
903.2687	1664.6984	10362.3	9450.65
903.4105	1666.4354	9973.35	9060.55
903.5522	1668.1717	9419.95	8505.8
903.6939	1669.9072	8868.35	7956.2
903.8356	1671.642	8424.8	7509.8
903.9773	1673.3761	8042.4	7132.15
904.119	1675.1094	7739	6830.1
904.2606	1676.8419	7493.65	6585.2
904.4022	1678.5737	7286.4	6378.65
904.5439	1680.3048	7148.2	6237.95
904.6855	1682.0351	7000.75	6092.5
904.827	1683.7646	6911.8	5999.4
904.9686	1685.4934	6818.55	5909.25
905.1101	1687.2215	6744.1	5836.65
905.2517	1688.9488	6653.35	5745.55
905.3932	1690.6754	6588.4	5682.55
905.5347	1692.4012	6586.05	5678.4
905.6761	1694.1263	6545.45	5637.6
905.8176	1695.8506	6482.6	5577.5
905.9591	1697.5742	6441.45	5538.8
906.1005	1699.297	6389.6	5488.25
906.2419	1701.0191	6338.2	5437.6
906.3833	1702.7404	6322.4	5422.4
906.5246	1704.461	6267.25	5360.9
906.666	1706.1808	6242.5	5336.65
906.8073	1707.8999	6225.55	5320.35
906.9487	1709.6182	6189.95	5289.25
907.09	1711.3358	6150	5252.15
907.2313	1713.0527	6124.25	5227.05
907.3725	1714.7688	6093	5187
907.5138	1716.4841	6060.55	5155.85
907.655	1718.1987	6069.4	5161.1
907.7962	1719.9126	6026.55	5128.05
907.9374	1721.6257	5984.45	5084.75
908.0786	1723.338	5981.55	5084.35
908.2198	1725.0496	5956.15	5055.75
908.3609	1726.7605	5941.85	5040.45
908.502	1728.4706	5910.55	5009.2
908.6431	1730.18	5897.15	4995.05
908.7842	1731.8886	5899.2	5001.65
908.9253	1733.5964	5870.85	4954.45
909.0664	1735.3036	5853.15	4952.3
909.2074	1737.0099	5819.9	4921.3
909.3484	1738.7156	5813.1	4915.35
909.4894	1740.4204	5779.2	4878.1
909.6304	1742.1246	5753.6	4852.35
909.7714	1743.8279	5725.45	4827.3
909.9123	1745.5306	5715.75	4817.6
910.0532	1747.2325	5664.35	4767.8
910.1941	1748.9336	5659.15	4763.75
910.335	1750.634	5646.95	4744.75
910.4759	1752.3336	5605.3	4706.55
910.6168	1754.0325	5602.05	4707.95
910.7576	1755.7307	5589.55	4692.1
910.8984	1757.4281	5576.15	4680.4
911.0392	1759.1247	5566.9	4656.65
911.18	1760.8206	5574.3	4665.6
911.3208	1762.5158	5553.1	4645.1
911.4615	1764.2102	5527.5	4627.8
911.6022	1765.9039	5519.4	4620.1
911.7429	1767.5968	5486.35	4590.5
911.8836	1769.289	5481	4585.4
912.0243	1770.9804	5456.5	4556.2
912.1649	1772.6711	5452.75	4551.3
912.3056	1774.361	5443.25	4540.6
912.4462	1776.0502	5433.2	4531.25
912.5868	1777.7386	5420.9	4518.8
912.7274	1779.4263	5405	4505.6
912.8679	1781.1132	5405.95	4510.85
913.0084	1782.7994	5372.75	4476.8
913.149	1784.4849	5373.55	4478.8
913.2895	1786.1696	5356.05	4453.3
913.4299	1787.8535	5331.6	4438.05
913.5704	1789.5367	5329.6	4437.75
913.7108	1791.2192	5325.75	4431.95
913.8513	1792.9009	5326.15	4404.2
913.9917	1794.5818	5307	4406.6
914.132	1796.2621	5278.75	4381.1
914.2724	1797.9415	5275.4	4375.1
914.4128	1799.6202	5251	4352.8
914.5531	1801.2982	5246	4346.85
914.6934	1802.9755	5235.2	4333.8
914.8337	1804.6519	5222.95	4322.15
914.9739	1806.3277	5201.9	4306.7
915.1142	1808.0027	5166.3	4274.85
915.2544	1809.6769	5163.5	4271
915.3946	1811.3504	5177.3	4286.35
915.5348	1813.0231	5175.05	4280.55
915.675	1814.6951	5155.2	4260.15
915.8151	1816.3664	5141.1	4245.45
915.9553	1818.0369	5146.15	4247.95
916.0954	1819.7067	5130.75	4234.45
916.2355	1821.3757	5116.25	4214.3
916.3755	1823.044	5120.8	4221.45
916.5156	1824.7115	5095.75	4195.95
916.6556	1826.3783	5081.25	4182.2
916.7956	1828.0443	5049.2	4153.7
916.9356	1829.7096	5054.35	4158.5
917.0756	1831.3741	5073.25	4173.55
917.2155	1833.0379	5047.8	4154.05
917.3555	1834.701	5032.55	4137.15
917.4954	1836.3633	5018.8	4124.3
917.6353	1838.0248	4995.2	4100.7
917.7751	1839.6856	4998.95	4103.1
917.915	1841.3457	4993.6	4096.95
918.0548	1843.005	4959.7	4062.9
918.1946	1844.6636	4969.65	4072.9
918.3344	1846.3214	4964.75	4065.8
918.4742	1847.9785	4959.6	4063.5
918.6139	1849.6349	4953.8	4054.8
918.7537	1851.2904	4940.9	4031
918.8934	1852.9453	4933.45	4031.2
919.0331	1854.5994	4905.95	4005.15
919.1727	1856.2528	4931.25	4028.25
919.3124	1857.9054	4895.9	3998.85
919.452	1859.5572	4875.6	3980.4
919.5916	1861.2083	4875.15	3976.55
919.7312	1862.8587	4896.9	3998.75
919.8708	1864.5084	4859.15	3960.7
920.0103	1866.1572	4859.7	3960.3
920.1498	1867.8054	4828.05	3928.3
920.2893	1869.4528	4826.05	3926.6
920.4288	1871.0994	4814.25	3914.2
920.5683	1872.7453	4818	3920.3
920.7077	1874.3905	4814.75	3898.6
920.8471	1876.0349	4781.9	3883.35
920.9865	1877.6786	4792.15	3890.15
921.1259	1879.3215	4775.85	3878.05
921.2653	1880.9637	4766.3	3867.35
921.4046	1882.6051	4741.15	3845.7
921.5439	1884.2458	4762.75	3866.5
921.6832	1885.8858	4735.5	3838.6
921.8225	1887.525	4727.5	3831.4
921.9617	1889.1634	4691.9	3794.55
922.101	1890.8011	4678.1	3778.05
922.2402	1892.4381	4682.8	3787.4
922.3794	1894.0743	4665.85	3767.8
922.5185	1895.7098	4673.4	3775.45
922.6577	1897.3446	4659.55	3761.95
922.7968	1898.9786	4641.5	3739.8
922.9359	1900.6118	4627	3731.45
923.075	1902.2443	4626.95	3731.8
923.214	1903.8761	4619.6	3724
923.3531	1905.5071	4574	3677.95
923.4921	1907.1374	4575.7	3679.15
923.6311	1908.7669	4583.9	3686.3
923.77	1910.3957	4568.5	3673.15
923.909	1912.0237	4537.5	3640.5
924.0479	1913.651	4532.15	3635.7
924.1868	1915.2776	4519.7	3625.2
924.3257	1916.9034	4515.9	3621.65
924.4646	1918.5285	4499.45	3605.35
924.6034	1920.1528	4491.55	3594.45
924.7422	1921.7764	4474	3578.9
924.881	1923.3992	4460.6	3564.55
925.0198	1925.0213	4430.1	3534.95
925.1586	1926.6427	4412.35	3515.5
925.2973	1928.2633	4588.9	3486.65
925.436	1929.8832	4450.3	3551.75
925.5747	1931.5023	4399.95	3506.3
925.7134	1933.1207	4376.95	3480.9
925.852	1934.7383	4389.75	3494.75
925.9906	1936.3552	4351.3	3456.6
926.1292	1937.9714	4341.5	3445.1
926.2678	1939.5868	4349.3	3449.95
926.4064	1941.2015	4336	3441.25
926.5449	1942.8154	4316.45	3418.2
926.6834	1944.4286	4294.5	3397.7
926.8219	1946.041	4279.05	3364.15
926.9604	1947.6528	4260.65	3359.1
927.0988	1949.2637	4267.55	3372.15
927.2372	1950.8739	4238.45	3342.9
927.3756	1952.4834	4214.1	3317.95
927.514	1954.0921	4227.15	3333.85
927.6523	1955.7001	4222.05	3323.65
927.7907	1957.3074	4205.95	3313.9
927.929	1958.9139	4186.8	3296.45
928.0673	1960.5197	4169.5	3275.3
928.2055	1962.1247	4155.9	3264.6
928.3438	1963.729	4151.7	3261.15
928.482	1965.3325	4132.4	3234.35
928.6202	1966.9353	4122.95	3234.05
928.7584	1968.5374	4126.55	3234.3
928.8965	1970.1387	4104.9	3211.85
929.0346	1971.7393	4086.5	3194.55
929.1727	1973.3392	4069.45	3178
929.3108	1974.9383	4046.15	3157.15
929.4489	1976.5366	4054.8	3167.15
929.5869	1978.1342	4040.9	3151.55
929.7249	1979.7311	4047	3157.25
929.8629	1981.3273	4022.45	3132.65
930.0009	1982.9227	4023.6	3133.65
930.1388	1984.5173	4011.15	3123.85
930.2767	1986.1112	3975.75	3088
930.4146	1987.7044	3975.8	3087.9
930.5525	1989.2968	3965.25	3076
930.6904	1990.8885	3955.55	3062.85
930.8282	1992.4795	3957.75	3069.65
930.966	1994.0697	3947.9	3063.4
931.1038	1995.6592	3917.25	3032
931.2415	1997.2479	3914.05	3025.65
931.3793	1998.8359	3918.5	3032.95
931.517	2000.4232	3900.2	3018
931.6547	2002.0097	3885.8	3004.6
931.7923	2003.5955	3884.75	3000.35
931.93	2005.1805	3889.1	3001.85
932.0676	2006.7648	3869.55	2986.75
932.2052	2008.3484	3862.4	2977.05
932.3427	2009.9312	3850	2967.6
932.4803	2011.5133	3838.5	2957.5
932.6178	2013.0946	3835.25	2952.2
932.7553	2014.6752	3818.6	2934.65
932.8928	2016.2551	3805	2920.75
933.0302	2017.8342	3815.1	2931.4
933.1676	2019.4126	3787.4	2903.75
933.305	2020.9902	3768.2	2886.65
933.4424	2022.5672	3767.15	2884.7
933.5798	2024.1433	3762.45	2878.35
933.7171	2025.7188	3765.75	2886
933.8544	2027.2935	3744.7	2862.7
933.9917	2028.8674	3737.15	2858.35
934.129	2030.4406	3729.9	2850.05
934.2662	2032.0131	3703.25	2823.35
934.4034	2033.5849	3694.65	2807.55
934.5406	2035.1559	3696.85	2815.5
934.6778	2036.7261	3702.9	2820.4
934.8149	2038.2957	3696.1	2810.3
934.952	2039.8645	3693.35	2807.8
935.0891	2041.4325	3704.3	2814.15
935.2262	2042.9998	3675.5	2790.2
935.3632	2044.5664	3662.2	2776.35
935.5002	2046.1323	3658.75	2778.7
935.6372	2047.6974	3638.05	2756.6
935.7742	2049.2617	3639.65	2759.7
935.9111	2050.8254	3644.35	2738.85
936.048	2052.3883	3622.35	2735.5
936.1849	2053.9504	3646.4	2761.25
936.3218	2055.5118	3619.9	2734.3
936.4586	2057.0725	3602.65	2715.25
936.5955	2058.6325	3583.3	2699.8
936.7323	2060.1917	3588.75	2707.15
936.869	2061.7502	3585.85	2701.5
937.0058	2063.3079	3557.9	2676.3
937.1425	2064.8649	3534.05	2648.8
937.2792	2066.4212	3545.65	2659.85
937.4159	2067.9767	3557.75	2672.25
937.5525	2069.5315	3537.45	2653
937.6891	2071.0856	3525.85	2642.7
937.8257	2072.6389	3517	2634.1
937.9623	2074.1915	3490.25	2608.65
938.0989	2075.7433	3489.95	2605.3
938.2354	2077.2945	3491.25	2609.3
938.3719	2078.8448	3468.35	2582.85
938.5084	2080.3945	3463.7	2576.1
938.6448	2081.9434	3470.15	2584.65
938.7812	2083.4916	3453.4	2564.7
938.9176	2085.039	3438.6	2545.25
939.054	2086.5857	3444.25	2549.5
939.1903	2088.1317	3436.95	2545.75
939.3267	2089.677	3421.2	2526.85
939.463	2091.2215	3419.9	2525.55
939.5992	2092.7652	3409.7	2515.8
939.7355	2094.3083	3423.95	2531.9
939.8717	2095.8506	3398.25	2509.3
940.0079	2097.3921	3404.2	2515.55
940.1441	2098.933	3383.75	2494.9
940.2802	2100.4731	3388.25	2501.7
940.4163	2102.0124	3380.6	2482.8
940.5524	2103.5511	3380.45	2490.2
940.6885	2105.089	3367.8	2477.2
940.8245	2106.6261	3365.25	2476
940.9606	2108.1626	3341.8	2454.65
941.0965	2109.6983	3375.2	2459.8
941.2325	2111.2332	3355.25	2465.35
941.3684	2112.7675	3344.25	2453
941.5044	2114.301	3345.55	2453.3
941.6403	2115.8337	3324.9	2434.1
941.7761	2117.3657	3305.55	2416.85
941.912	2118.897	3313.2	2421.45
942.0478	2120.4276	3300.45	2405.2
942.1835	2121.9575	3290.35	2400.55
942.3193	2123.4866	3290.3	2400.6
942.455	2125.0149	3283	2389.95
942.5907	2126.5426	3250.15	2365.3
942.7264	2128.0695	3260.85	2372.95
942.8621	2129.5956	3246.6	2363.9
942.9977	2131.1211	3257.25	2367.7
943.1333	2132.6458	3245	2357.9
943.2689	2134.1698	3239.75	2347.5
943.4044	2135.693	3241.1	2345.4
943.54	2137.2155	3240.5	2347.2
943.6755	2138.7373	3225.8	2337.3
943.8109	2140.2584	3204.65	2320.4
943.9464	2141.7787	3204.15	2315.05
944.0818	2143.2983	3189.7	2308.3
944.2172	2144.8171	3161.5	2282
944.3526	2146.3353	3185.65	2299.5
944.4879	2147.8527	3160.6	2276.15
944.6232	2149.3693	3178.85	2289.15
944.7585	2150.8853	3160.9	2269.9
944.8938	2152.4005	3145.05	2252.2
945.029	2153.9149	3151.45	2260.75
945.1642	2155.4287	3147.95	2258.75
945.2994	2156.9417	3127.35	2238.7
945.4346	2158.454	3120.1	2231.95
945.5697	2159.9655	3114.5	2228.8
945.7048	2161.4764	3112.45	2226.95
945.8399	2162.9865	3102.95	2214.55
945.9749	2164.4958	3095.75	2210.95
946.1099	2166.0045	3097.4	2209.9
946.2449	2167.5124	3096.4	2209.55
946.3799	2169.0195	3083.4	2192.75
946.5148	2170.526	3076.3	2185.7
946.6498	2172.0317	3082.2	2193.6
946.7846	2173.5367	3082.6	2192.95
946.9195	2175.0409	3056.75	2169.8
947.0543	2176.5445	3066.7	2177.35
947.1891	2178.0473	3052.6	2158.85
947.3239	2179.5494	3049.85	2155.05
947.4587	2181.0507	3027.9	2140
947.5934	2182.5513	3040.05	2151.25
947.7281	2184.0512	3013.95	2125.25
947.8628	2185.5504	3015	2125.05
947.9974	2187.0488	3010.6	2124.55
948.132	2188.5465	2992.6	2107.85
948.2666	2190.0435	2987.05	2100.1
948.4012	2191.5397	2989.2	2099.7
948.5357	2193.0353	2984.9	2094.3
948.6702	2194.5301	2973.25	2079.8
948.8047	2196.0241	2968.8	2072.75
948.9392	2197.5175	2965.15	2070.15
949.0736	2199.0101	2960.05	2062.8
949.208	2200.502	2942.9	2053.85
949.3424	2201.9931	2929.15	2042.9
949.4767	2203.4835	2924.15	2038
949.611	2204.9733	2925.55	2034.4
949.7453	2206.4622	2910.45	2024.7
949.8796	2207.9505	2912.35	2023.6
950.0138	2209.438	2895.45	2014.15
950.148	2210.9248	2892.05	2005.3
950.2822	2212.4109	2887.65	2001.15
950.4164	2213.8962	2874.8	1980.1
950.5505	2215.3809	2880.85	1984.05
950.6846	2216.8648	2875.6	1978.95
950.8186	2218.3479	2875.85	1972.5
950.9527	2219.8304	2867.55	1967.2
951.0867	2221.3121	2858.65	1961.5
951.2207	2222.7931	2848	1956.55
951.3546	2224.2733	2838.7	1945.3
951.4886	2225.7529	2837.25	1946.75
951.6225	2227.2317	2820.6	1930.15
951.7563	2228.7098	2826.2	1939.3
951.8902	2230.1872	2812.3	1927.2
952.024	2231.6638	2803.05	1916
952.1578	2233.1397	2810.35	1922.05
952.2916	2234.6149	2787.55	1902.65
952.4253	2236.0894	2786.75	1899
952.559	2237.5632	2784.35	1887.05
952.6927	2239.0362	2774.6	1886.65
952.8263	2240.5085	2771.35	1884.05
952.9599	2241.9801	2756.65	1864.35
953.0935	2243.4509	2751.1	1861.45
953.2271	2244.921	2756.4	1863.85
953.3606	2246.3904	2747.7	1849.85
953.4941	2247.8591	2731.6	1841.6
953.6276	2249.3271	2732	1839.3
953.7611	2250.7943	2713.3	1819.3
953.8945	2252.2608	2722.75	1828.85
954.0279	2253.7266	2721.1	1830.75
954.1612	2255.1917	2712.7	1820.8
954.2946	2256.656	2702.65	1815.05
954.4279	2258.1197	2690	1801.45
954.5612	2259.5826	2690.1	1800.15
954.6944	2261.0447	2685.2	1794.9
954.8276	2262.5062	2676.8	1783.85
954.9608	2263.9669	2695.05	1801.6
955.094	2265.4269	2668.15	1777.35
955.2271	2266.8862	2668.55	1778.35
955.3602	2268.3448	2663.35	1775.35
955.4933	2269.8026	2652.05	1763.9
955.6264	2271.2598	2650.8	1764.65
955.7594	2272.7162	2634.1	1748.8
955.8924	2274.1719	2640.05	1747.05
956.0253	2275.6268	2637.85	1744.55
956.1583	2277.0811	2642.8	1749.55
956.2912	2278.5346	2630.1	1740.65
956.4241	2279.9874	2628.1	1739.65
956.5569	2281.4395	2618.55	1731.25
956.6897	2282.8908	2612.35	1719.85
956.8225	2284.3414	2614.35	1722.05
956.9553	2285.7914	2612.5	1722.4
957.088	2287.2406	2595.9	1704.5
957.2207	2288.689	2582.1	1686.7
957.3534	2290.1368	2600.65	1703
957.486	2291.5838	2599.85	1699.1
957.6186	2293.0302	2584.2	1685.5
957.7512	2294.4758	2580.55	1686.15
957.8838	2295.9206	2566.1	1671.95
958.0163	2297.3648	2561.7	1673.85
958.1488	2298.8082	2559.5	1669.7
958.2813	2300.251	2554.45	1662.5
958.4137	2301.693	2555.05	1659.8
958.5461	2303.1343	2563.25	1670.4
958.6785	2304.5748	2545.05	1654.8
958.8108	2306.0147	2537.15	1646.85
958.9432	2307.4538	2533.15	1643.5
959.0754	2308.8922	2516.75	1631.1
959.2077	2310.3299	2520.25	1634.95
959.3399	2311.7669	2499.3	1611.1
959.4721	2313.2031	2502.85	1611.3
959.6043	2314.6387	2506.7	1614.25
959.7365	2316.0735	2490.4	1598.9
959.8686	2317.5076	2505.65	1615
960.0006	2318.941	2499.8	1606.4
960.1327	2320.3737	2493.7	1597.65
960.2647	2321.8056	2494.4	1599.25
960.3967	2323.2369	2477.15	1584.6
960.5287	2324.6674	2476.3	1584.45
960.6606	2326.0972	2481.55	1588.05
960.7925	2327.5263	2463.8	1573.05
960.9244	2328.9547	2464.75	1571.25
961.0562	2330.3823	2448.75	1553.9
961.1881	2331.8092	2467.35	1568.85
961.3198	2333.2355	2447.4	1552.5
961.4516	2334.661	2445.95	1549.7
961.5833	2336.0858	2444.5	1551.6
961.715	2337.5098	2432.85	1540.5
961.8467	2338.9332	2437.1	1544.75
961.9783	2340.3558	2430.7	1537.25
962.1099	2341.7778	2421.55	1531.75
962.2415	2343.199	2423.5	1532.9
962.373	2344.6195	2403.85	1515.8
962.5045	2346.0393	2414.95	1526.5
962.636	2347.4583	2391.5	1500.25
962.7675	2348.8767	2401.05	1506
962.8989	2350.2943	2398.25	1503.8
963.0303	2351.7113	2406.8	1508.45
963.1617	2353.1275	2393.9	1497.1
963.293	2354.543	2413.2	1512.2
963.4243	2355.9578	2383	1491.15
963.5556	2357.3718	2373.95	1484.35
963.6868	2358.7852	2370.5	1478.9
963.818	2360.1978	2370.25	1478.8
963.9492	2361.6098	2357.55	1466.6
964.0803	2363.021	2368.95	1474.25
964.2114	2364.4315	2359.6	1464.3
964.3425	2365.8413	2350.75	1458.85
964.4736	2367.2504	2350.4	1461.1
964.6046	2368.6587	2335.95	1450
964.7356	2370.0664	2323.75	1436.65
964.8666	2371.4733	2326.45	1437.65
964.9975	2372.8795	2323.2	1435.35
965.1284	2374.285	2328.95	1437.3
965.2593	2375.6899	2309.25	1422.45
965.3901	2377.0939	2304.5	1416.4
965.5209	2378.4973	2294.1	1404.4
965.6517	2379.9	2290.05	1399.5
965.7825	2381.3019	2291.8	1402.35
965.9132	2382.7032	2284.8	1398.5
966.0439	2384.1037	2278.75	1392.65
966.1745	2385.5035	2269.9	1388.3
966.3051	2386.9027	2276.45	1391.3
966.4357	2388.3011	2277.45	1387
966.5663	2389.6987	2269.1	1383.6
966.6968	2391.0957	2267.55	1380.45
966.8273	2392.492	2257.75	1370.6
966.9578	2393.8876	2240.5	1353.7
967.0882	2395.2824	2240.95	1354.75
967.2186	2396.6765	2231.75	1344.15
967.349	2398.07	2223.2	1335.45
967.4793	2399.4627	2241.85	1349.95
967.6097	2400.8547	2232.9	1344.15
967.7399	2402.246	2223.35	1328.1
967.8702	2403.6366	2208.35	1318.55
968.0004	2405.0265	2206.1	1318.85
968.1306	2406.4156	2213.45	1323.8
968.2607	2407.8041	2195.95	1306.4
968.3909	2409.1918	2194.95	1302.8
968.521	2410.5789	2195.8	1304.9
968.651	2411.9652	2200.35	1309.35
968.781	2413.3508	2180.2	1290.4
968.911	2414.7358	2174.95	1287
969.041	2416.12	2168.75	1284.4
969.1709	2417.5035	2173.25	1282.65
969.3008	2418.8863	2169.85	1281.05
969.4307	2420.2684	2162.3	1272.1
969.5606	2421.6497	2152.25	1262.35
969.6904	2423.0304	2154.7	1266.35
969.8201	2424.4104	2154.3	1262.15
969.9499	2425.7896	2147.35	1257.65
970.0796	2427.1682	2141.1	1254.9
970.2093	2428.546	2136.85	1248.2
970.3389	2429.9232	2139.25	1249.6
970.4685	2431.2996	2135.05	1246.45
970.5981	2432.6753	2126.15	1237.25
970.7277	2434.0503	2127.55	1236.15
970.8572	2435.4246	2121.6	1232.85
970.9867	2436.7982	2121.8	1231.45
971.1161	2438.1711	2112.55	1223.5
971.2456	2439.5433	2110.8	1220.9
971.375	2440.9148	2103.25	1211.3
971.5043	2442.2856	2107.7	1218.85
971.6336	2443.6557	2091.5	1201
971.7629	2445.025	2093.25	1201.45
971.8922	2446.3937	2088.2	1199.3
972.0214	2447.7617	2084.35	1194.95
972.1506	2449.1289	2074.45	1185.35
972.2798	2450.4955	2077.95	1185.65
972.4089	2451.8613	2075.25	1188.05
972.538	2453.2265	2075.05	1186.9
972.6671	2454.5909	2074.25	1185.35
972.7961	2455.9546	2077.45	1189.2
972.9251	2457.3177	2059.4	1171.4
973.0541	2458.68	2055.6	1164.8
973.1831	2460.0416	2047.95	1157.75
973.312	2461.4025	2055.95	1163.95
973.4408	2462.7627	2057.5	1159.5
973.5697	2464.1222	2043.7	1157.95
973.6985	2465.4811	2044.7	1157.65
973.8273	2466.8392	2043.4	1155.7
973.956	2468.1966	2037.55	1146.7
974.0847	2469.5533	2050.95	1159.7
974.2134	2470.9093	2042.7	1152.3
974.3421	2472.2645	2038.9	1148.65
974.4707	2473.6191	2031.75	1142.8
974.5993	2474.973	2020.5	1130.4
974.7278	2476.3262	2024.15	1131.7
974.8563	2477.6787	2016.7	1127.95
974.9848	2479.0305	2009.7	1120.35
975.1132	2480.3816	2017.65	1128.1
975.2417	2481.7319	2005.95	1116.75
975.37	2483.0816	2004.45	1113.55
975.4984	2484.4306	1996.15	1106.8
975.6267	2485.7789	1985.45	1098.95
975.755	2487.1264	1985.75	1096.35
975.8833	2488.4733	1979.1	1094.55
976.0115	2489.8195	1987.6	1092.25
976.1397	2491.165	1975.2	1083.4
976.2678	2492.5097	1972	1083.1
976.3959	2493.8538	1967.65	1079.95
976.524	2495.1972	1960.15	1072.3
976.6521	2496.5398	1955	1063.8
976.7801	2497.8818	1956.25	1063.3
976.9081	2499.2231	1956.9	1065.35
977.036	2500.5637	1948.45	1058.85
977.164	2501.9035	1955.2	1063.6
977.2918	2503.2427	1951.4	1059.9
977.4197	2504.5812	1947.05	1057.45
977.5475	2505.919	1940.1	1047.6
977.6753	2507.256	1940.35	1050.1
977.8031	2508.5924	1935.3	1045.65
977.9308	2509.9281	1928.15	1032.35
978.0585	2511.2631	1927.95	1038.1
978.1861	2512.5974	1924.3	1034.25
978.3137	2513.9309	1912.05	1022.25
978.4413	2515.2638	1937.8	1019.7
978.5689	2516.596	1917.45	1025.6
978.6964	2517.9275	1909.05	1019.4
978.8239	2519.2583	1909.5	1017.4
978.9513	2520.5884	1905.25	1012.8
979.0788	2521.9178	1902.3	1012.2
979.2062	2523.2465	1899.8	1011.35
979.3335	2524.5745	1895.2	1009.85
979.4608	2525.9018	1888.8	998.3
979.5881	2527.2284	1890.2	1000.85
979.7154	2528.5543	1889.4	998.7
979.8426	2529.8796	1893.35	1002.8
979.9698	2531.2041	1878.2	988.5
980.0969	2532.5279	1882.15	994.55
980.224	2533.851	1881.75	993
980.3511	2535.1735	1873.25	984.2
980.4781	2536.4952	1869.3	979.05
980.6052	2537.8163	1870.1	979
980.7321	2539.1366	1876.9	986.6
980.8591	2540.4562	1868.4	978.3
980.986	2541.7752	1872	983
981.1129	2543.0935	1862.95	973.3
981.2397	2544.411	1854.6	963.6
981.3665	2545.7279	1861.7	970.45
981.4933	2547.0441	1860.3	971.5
981.62	2548.3596	1859.45	966.3
981.7467	2549.6744	1859.2	967.85
981.8734	2550.9885	1850.35	956.75
982.0001	2552.3019	1843.75	957.25
982.1267	2553.6146	1837.7	947.25
982.2532	2554.9266	1841.75	952.45
982.3798	2556.2379	1838.75	948.5
982.5063	2557.5485	1837.75	950.3
982.6327	2558.8585	1839	942.2
982.7592	2560.1677	1830.2	936.6
982.8856	2561.4762	1826.35	934.6
983.0119	2562.7841	1838.1	948.1
983.1383	2564.0913	1822.3	933.85
983.2646	2565.3977	1826.7	940.5
983.3908	2566.7035	1821.95	930
983.517	2568.0086	1835.2	944.4
983.6432	2569.313	1823.25	928.9
983.7694	2570.6167	1820.2	925.05
983.8955	2571.9197	1814.7	926.2
984.0216	2573.222	1815.3	922.85
984.1476	2574.5236	1809.35	920.45
984.2737	2575.8246	1811.75	920.8
984.3996	2577.1248	1813	922
984.5256	2578.4244	1810.25	920.85
984.6515	2579.7232	1814.05	924.95
984.7774	2581.0214	1830.65	914.05
984.9032	2582.3189	1805.9	912.5
985.029	2583.6157	1808.75	912.2
985.1548	2584.9118	1811.45	920.25
985.2806	2586.2072	1802.9	914.5
985.4063	2587.5019	1801.1	911.65
985.5319	2588.7959	1796.6	907.9
985.6576	2590.0893	1795.25	905.15
985.7832	2591.3819	1794.9	905.6
985.9087	2592.6739	1796.8	907.45
986.0343	2593.9652	1803.5	911.6
986.1597	2595.2557	1799.45	909.45
986.2852	2596.5456	1793.2	898.5
986.4106	2597.8348	1793.15	902.3
986.536	2599.1234	1787.45	896.2
986.6614	2600.4112	1779.05	890.25
986.7867	2601.6983	1794.15	901.4
986.912	2602.9848	1784.95	896.25
987.0372	2604.2705	1791.15	894.4
987.1624	2605.5556	1783.05	892.45
987.2876	2606.84	1775.25	886.15
987.4128	2608.1237	1772.45	884.35
987.5379	2609.4067	1771.5	882.45
987.6629	2610.689	1781.2	882.85
987.788	2611.9707	1768.35	873.25
987.913	2613.2516	1769.8	880.35
988.0379	2614.5319	1754.15	863.8
988.1629	2615.8115	1749.35	857.75
988.2878	2617.0903	1757	866.5
988.4126	2618.3685	1750.25	862.85
988.5375	2619.6461	1742.7	854.45
988.6622	2620.9229	1745.2	856.85
988.787	2622.199	1739.35	850
988.9117	2623.4745	1741.05	852.65
989.0364	2624.7493	1735.5	846.2
989.161	2626.0234	1728.85	841.9
989.2857	2627.2968	1738.05	847.1
989.4102	2628.5695	1734.75	844.6
989.5348	2629.8415	1726.1	836.7
989.6593	2631.1128	1729.5	839.25
989.7837	2632.3835	1727.25	842.2
989.9082	2633.6535	1728.1	841.15
990.0326	2634.9228	1718.45	830.65
990.1569	2636.1914	1716.55	827.2
990.2812	2637.4593	1715.45	824.45
990.4055	2638.7265	1710.85	822.25
990.5298	2639.9931	1709.85	821.05
990.654	2641.259	1714.65	823
990.7782	2642.5242	1708.6	820.95
990.9023	2643.7887	1709.05	820.4
991.0264	2645.0525	1705.15	817.15
991.1505	2646.3156	1701.45	813.5
991.2745	2647.5781	1696.25	808.7
991.3985	2648.8398	1693.1	806.75
991.5225	2650.1009	1721.45	798.9
991.6464	2651.3613	1690.1	801.25
991.7703	2652.6211	1679.25	793.05
991.8942	2653.8801	1681.25	795.6
992.018	2655.1385	1688.25	796.85
992.1418	2656.3961	1683.05	794.3
992.2655	2657.6531	1691.9	805.25
992.3892	2658.9094	1680.05	792.85
992.5129	2660.1651	1684.55	797.5
992.6366	2661.42	1679.1	792.4
992.7602	2662.6743	1680.35	789.15
992.8837	2663.9279	1683.25	796.7
993.0073	2665.1808	1680.85	794.25
993.1307	2666.433	1686.65	796.25
993.2542	2667.6846	1692.7	806.35
993.3776	2668.9354	1686.25	794.25
993.501	2670.1856	1684.5	795.5
993.6244	2671.4351	1686.9	798.55
993.7477	2672.6839	1686.25	797.6
993.8709	2673.9321	1688.85	802.65
993.9942	2675.1795	1693.2	806.3
994.1174	2676.4263	1692.15	805.05
994.2405	2677.6724	1681.15	793.05
994.3637	2678.9179	1692.4	803.5
994.4868	2680.1626	1678.25	790
994.6098	2681.4067	1686.85	799.05
994.7328	2682.6501	1688.15	801.4
994.8558	2683.8928	1680.15	793
994.9788	2685.1348	1676.7	789.95
995.1017	2686.3761	1669.15	780.9
995.2245	2687.6168	1673.5	785.7
995.3474	2688.8568	1661.1	771.75
995.4702	2690.0961	1658.15	770.7
995.5929	2691.3348	1661.65	774.35
995.7156	2692.5727	1659.1	772.55
995.8383	2693.81	1654.85	769.55
995.961	2695.0466	1651.35	764.8
996.0836	2696.2826	1649.1	759.4
996.2062	2697.5178	1669.05	762.55
996.3287	2698.7524	1648.2	758.15
996.4512	2699.9863	1653.45	763.35
996.5737	2701.2195	1645.8	758.45
996.6961	2702.452	1654.35	766.7
996.8185	2703.6839	1661.35	774.6
996.9408	2704.9151	1662.55	778.25
997.0631	2706.1456	1665.45	779.45
997.1854	2707.3755	1660.75	772.05
997.3077	2708.6046	1674	782.45
997.4299	2709.8331	1681.2	793.2
997.552	2711.0609	1683.1	794.8
997.6742	2712.2881	1681.7	794.5
997.7963	2713.5145	1689.55	798
997.9183	2714.7403	1698.6	810.15
998.0403	2715.9654	1711.75	824.45
998.1623	2717.1899	1732.3	830.5
998.2842	2718.4136	1723	834.8
998.4062	2719.6367	1743	855.1
998.528	2720.8591	1752.7	857.55
998.6498	2722.0809	1755.3	868.1
998.7716	2723.3019	1768.8	879.45
998.8934	2724.5223	1780.2	891.1
999.0151	2725.7421	1794.55	905.05
999.1368	2726.9611	1790.4	902.4
999.2584	2728.1795	1781.45	889.85
999.38	2729.3972	1771.5	884.7
999.5016	2730.6142	1776.85	878.15
999.6231	2731.8306	1745.1	856.9
999.7446	2733.0462	1730	841.3
999.8661	2734.2612	1722.1	830.55
999.9875	2735.4756	1696	806.5
1000.1089	2736.6892	1673.35	786.7
1000.2302	2737.9022	1660.2	776.15
1000.3515	2739.1145	1653.35	767.2
1000.4728	2740.3262	1641	745.5
1000.594	2741.5372	1632.85	745.25
1000.7152	2742.7475	1617.7	729.6
1000.8363	2743.9571	1609.9	722.5
1000.9575	2745.1661	1592.8	700.7
1001.0785	2746.3744	1587.45	700.1
1001.1996	2747.582	1574.7	689.05
1001.3206	2748.7889	1572.95	683.4
1001.4415	2749.9952	1564	680.6
1001.5625	2751.2008	1559	671.6
1001.6833	2752.4057	1559.95	670.8
1001.8042	2753.61	1545.7	659.35
1001.925	2754.8136	1546.65	658.95
1002.0458	2756.0165	1542.55	655.55
1002.1665	2757.2188	1545.6	658.55
1002.2872	2758.4204	1538.4	652.5
1002.4078	2759.6213	1537.25	650.45
1002.5285	2760.8215	1547.35	655.2
1002.649	2762.0211	1537.7	646
1002.7696	2763.22	1533.25	645.3
1002.8901	2764.4182	1533	644.45
1003.0106	2765.6158	1531	647.45
1003.131	2766.8127	1525.4	638.5
1003.2514	2768.009	1522.3	636.85
1003.3717	2769.2045	1519.25	630.2
1003.492	2770.3994	1516.45	630.5
1003.6123	2771.5936	1517.25	630.7
1003.7325	2772.7872	1508.85	623.8
1003.8527	2773.9801	1505.7	617.05
1003.9729	2775.1723	1520.2	616.7
1004.093	2776.3639	1507.35	622.5
1004.2131	2777.5548	1510.6	622.8
1004.3331	2778.745	1504.55	617.7
1004.4531	2779.9346	1506.65	622.15
1004.5731	2781.1235	1500.4	612.25
1004.693	2782.3117	1504.8	621.5
1004.8129	2783.4992	1498.7	615.5
1004.9328	2784.6861	1509.35	624.55
1005.0526	2785.8723	1520	634.1
1005.1723	2787.0579	1517.2	631.4
1005.2921	2788.2428	1525.6	639.6
1005.4118	2789.427	1531.9	648.6
1005.5314	2790.6106	1530.95	646.1
1005.651	2791.7935	1537.65	649
1005.7706	2792.9757	1548.5	664.2
1005.8902	2794.1573	1559.2	670.75
1006.0097	2795.3382	1569.8	685.25
1006.1291	2796.5184	1573.65	690.6
1006.2485	2797.698	1588.75	703.25
1006.3679	2798.8769	1603.1	718.4
1006.4873	2800.0551	1613.3	725.65
1006.6066	2801.2327	1634.45	747.45
1006.7258	2802.4096	1646.45	760.95
1006.8451	2803.5859	1662.85	779.15
1006.9642	2804.7615	1672.2	786.75
1007.0834	2805.9364	1692.6	807.3
1007.2025	2807.1106	1721.95	837.1
1007.3216	2808.2842	1744.85	859.05
1007.4406	2809.4572	1768.75	883.95
1007.5596	2810.6294	1805.2	921.1
1007.6785	2811.801	1835.25	951.35
1007.7975	2812.972	1874.3	991.05
1007.9163	2814.1423	1913.1	1029.4
1008.0352	2815.3119	1958.95	1071.75
1008.154	2816.4808	2003.45	1119.85
1008.2727	2817.6491	2045.45	1161.3
1008.3914	2818.8167	2099.2	1217
1008.5101	2819.9837	2145.8	1259.3
1008.6288	2821.15	2203.65	1319.35
1008.7474	2822.3157	2248.15	1364.9
1008.8659	2823.4807	2297.65	1413.9
1008.9844	2824.645	2358.1	1473.5
1009.1029	2825.8086	2408.45	1525.75
1009.2214	2826.9716	2452.35	1567.8
1009.3398	2828.134	2499.2	1615.4
1009.4581	2829.2957	2533.35	1649
1009.5764	2830.4567	2577.95	1694.4
1009.6947	2831.617	2600.7	1716.95
1009.813	2832.7767	2612.95	1729.65
1009.9312	2833.9358	2614.95	1732.35
1010.0493	2835.0941	2602.85	1716.25
1010.1675	2836.2519	2587.25	1703.2
1010.2855	2837.4089	2576.6	1692.3
1010.4036	2838.5653	2562.5	1679.1
1010.5216	2839.7211	2552.35	1669.05
1010.6396	2840.8761	2555.3	1668.85
1010.7575	2842.0306	2576.4	1694.85
1010.8754	2843.1843	2600.1	1716.2
1010.9932	2844.3374	2624.55	1740.15
1011.111	2845.4899	2681.95	1796
1011.2288	2846.6417	2746.55	1862.45
1011.3465	2847.7928	2809.15	1925.25
1011.4642	2848.9433	2875.5	1991.45
1011.5818	2850.0931	2940	2056.05
1011.6995	2851.2422	3011.4	2127.9
1011.817	2852.3907	3079.4	2196.75
1011.9345	2853.5385	3124	2237.9
1012.052	2854.6857	3182.25	2287.1
1012.1695	2855.8323	3232.15	2349.45
1012.2869	2856.9781	3281.6	2397.65
1012.4042	2858.1233	3337.75	2454.7
1012.5216	2859.2679	3380.4	2495.75
1012.6389	2860.4118	3417.25	2533.15
1012.7561	2861.555	3450.75	2563.35
1012.8733	2862.6976	3501.2	2615.55
1012.9905	2863.8395	3539.4	2656.1
1013.1076	2864.9808	3558.8	2676.15
1013.2247	2866.1214	3562.65	2680
1013.3417	2867.2614	3582.2	2699.55
1013.4587	2868.4007	3602.25	2716.1
1013.5757	2869.5393	3638.35	2753.85
1013.6926	2870.6773	3641.4	2751
1013.8095	2871.8146	3649.75	2763.05
1013.9263	2872.9513	3650.6	2761.55
1014.0431	2874.0874	3651.15	2766.05
1014.1599	2875.2227	3632.25	2747.6
1014.2766	2876.3574	3600.05	2717.45
1014.3933	2877.4915	3598.15	2715.55
1014.51	2878.6249	3567.05	2684.45
1014.6266	2879.7577	3535.45	2649.85
1014.7431	2880.8898	3516.55	2624.85
1014.8596	2882.0212	3500.5	2618.85
1014.9761	2883.152	3478.95	2593.6
1015.0925	2884.2821	3482.3	2602.7
1015.2089	2885.4116	3469.75	2586.4
1015.3253	2886.5405	3475.95	2594.45
1015.4416	2887.6686	3484.7	2598.3
1015.5579	2888.7962	3467.6	2585.3
1015.6741	2889.923	3494.4	2610.2
1015.7903	2891.0493	3489.85	2609.45
1015.9065	2892.1748	3506.6	2623.1
1016.0226	2893.2997	3525.45	2642.35
1016.1387	2894.424	3544.9	2661.55
1016.2547	2895.5476	3554.4	2672.05
1016.3707	2896.6706	3585.15	2703.95
1016.4866	2897.7929	3597.65	2712.9
1016.6025	2898.9145	3639	2757.8
1016.7184	2900.0355	3644.1	2759.8
1016.8342	2901.1559	3682.4	2799.5
1016.95	2902.2756	3712.25	2829.6
1017.0658	2903.3946	3749.15	2867.35
1017.1815	2904.513	3762.7	2877.8
1017.2971	2905.6308	3790.5	2909.25
1017.4127	2906.7479	3805.25	2922.4
1017.5283	2907.8643	3860.35	2977.8
1017.6439	2908.9801	3861.3	2979.35
1017.7594	2910.0953	3871.2	2990.05
1017.8748	2911.2098	3862.9	2976.6
1017.9902	2912.3236	3854.7	2964.45
1018.1056	2913.4368	3852.65	2968.15
1018.2209	2914.5494	3833.7	2950.75
1018.3362	2915.6613	3794.7	2908.65
1018.4515	2916.7725	3769.05	2884.85
1018.5667	2917.8831	3749.7	2866.25
1018.6819	2918.9931	3722.05	2839.15
1018.797	2920.1024	3680.3	2796.4
1018.9121	2921.211	3667.25	2786.5
1019.0271	2922.319	3641.05	2757.75
1019.1421	2923.4264	3634.4	2751.3
1019.2571	2924.5331	3623.6	2744.05
1019.372	2925.6391	3610.45	2727.85
1019.4869	2926.7445	3597.9	2716.85
1019.6017	2927.8493	3612.85	2729.95
1019.7165	2928.9534	3602.5	2719.8
1019.8313	2930.0569	3590.15	2707.15
1019.946	2931.1597	3596.85	2712
1020.0606	2932.2619	3596.3	2711.8
1020.1753	2933.3634	3610	2729.6
1020.2899	2934.4643	3600.8	2710.95
1020.4044	2935.5645	3571.3	2683.65
1020.5189	2936.6641	3558.65	2672.9
1020.6334	2937.763	3509.8	2628.6
1020.7478	2938.8613	3474.7	2591.55
1020.8622	2939.959	3437.6	2550.2
1020.9765	2941.056	3354.4	2473.4
1021.0908	2942.1523	3290.6	2408
1021.2051	2943.248	3205.65	2321.5
1021.3193	2944.3431	3109.55	2229.25
1021.4334	2945.4375	3006	2124.2
1021.5476	2946.5313	2914.4	2035.4
1021.6617	2947.6244	2816.75	1936.25
1021.7757	2948.7169	2723.85	1841.85
1021.8897	2949.8087	2630.75	1747.6
1022.0037	2950.8999	2543.7	1661.6
1022.1176	2951.9904	2459.05	1578.8
1022.2315	2953.0803	2391.35	1508.35
1022.3453	2954.1696	2333.85	1450.7
1022.4591	2955.2582	2279.9	1397.15
1022.5728	2956.3462	2240.75	1361.4
1022.6865	2957.4335	2196.3	1312.25
1022.8002	2958.5202	2161.7	1278.65
1022.9138	2959.6062	2123.25	1240.05
1023.0274	2960.6916	2104.5	1222.75
1023.141	2961.7764	2091.65	1210
1023.2545	2962.8605	2077.75	1195.9
1023.3679	2963.9439	2054.2	1175.7
1023.4813	2965.0267	2052.7	1170.05
1023.5947	2966.1089	2057.3	1152.65
1023.708	2967.1905	2040.9	1160.1
1023.8213	2968.2714	2039.7	1156.9
1023.9346	2969.3516	2029.45	1147.35
1024.0478	2970.4312	2042.45	1154.6
1024.1609	2971.5102	2036.85	1156.75
1024.274	2972.5885	2033.15	1153.75
1024.3871	2973.6662	2049.65	1162
1024.5002	2974.7432	2033.85	1154.2
1024.6132	2975.8196	2025.05	1143.55
1024.7261	2976.8954	2013.65	1133.05
1024.839	2977.9705	2013.1	1130
1024.9519	2979.045	2006.25	1125.1
1025.0647	2980.1188	1986.45	1106.2
1025.1775	2981.192	1971.45	1090.8
1025.2902	2982.2645	1946.05	1064.45
1025.4029	2983.3364	1919.55	1038.05
1025.5156	2984.4077	1896.45	1016.2
1025.6282	2985.4783	1877.45	990.7
1025.7407	2986.5483	1846.5	968.95
1025.8532	2987.6177	1802.7	922
1025.9657	2988.6864	1775.05	892.1
1026.0782	2989.7545	1743.8	860.3
1026.1906	2990.8219	1707.35	826.65
1026.3029	2991.8887	1678.35	794.5
1026.4152	2992.9548	1641.8	758.6
1026.5275	2994.0204	1611.95	733.9
1026.6397	2995.0852	1586.3	705.85
1026.7519	2996.1495	1560.55	681.1
1026.864	2997.2131	1529.7	649.4
1026.9761	2998.276	1519.95	638.25
1027.0882	2999.3383	1495.6	614.5
1027.2002	3000.4	1468.35	585.55
1027.3122	3001.4611	1455.15	573.15
1027.4241	3002.5215	1443.6	563
1027.536	3003.5812	1424.35	542.5
1027.6478	3004.6404	1410.35	530.6
1027.7596	3005.6989	1405.4	523.6
1027.8714	3006.7567	1396.65	515.15
1027.9831	3007.8139	1412.9	504.2
1028.0947	3008.8705	1372.7	493.1
1028.2064	3009.9264	1371.55	488.5
1028.3179	3010.9818	1360.55	480.25
1028.4295	3012.0364	1346.5	464.5
1028.541	3013.0905	1350.1	470.7
1028.6524	3014.1439	1343.3	462.55
1028.7638	3015.1966	1344.4	466.35
1028.8752	3016.2487	1337	456.65
1028.9865	3017.3002	1337.55	450.75
1029.0978	3018.3511	1331.9	453.95
1029.209	3019.4013	1328	446.1
1029.3202	3020.4509	1329.1	448.75
1029.4314	3021.4998	1325.95	445
1029.5425	3022.5481	1324.25	444.05
1029.6535	3023.5958	1321.55	442
1029.7645	3024.6428	1319.3	437.05
1029.8755	3025.6892	1318.6	440.25
1029.9864	3026.735	1325.05	446.05
1030.0973	3027.7802	1318.25	437.1
1030.2082	3028.8247	1320.3	441.15
1030.319	3029.8685	1329.8	448
1030.4297	3030.9118	1332.25	451.2
1030.5404	3031.9544	1327.5	445.65
1030.6511	3032.9963	1337.1	457.6
1030.7617	3034.0376	1334.05	455.95
1030.8723	3035.0783	1341.05	457.1
1030.9829	3036.1184	1340.05	459.55
1031.0934	3037.1578	1344.7	465.05
1031.2038	3038.1966	1347.8	467.1
1031.3142	3039.2348	1348.85	469.85
1031.4246	3040.2723	1355.65	468.75
1031.5349	3041.3092	1343.8	464.05
1031.6452	3042.3455	1343.55	462.35
1031.7554	3043.3811	1341.65	462.05
1031.8656	3044.4161	1343.95	463.15
1031.9758	3045.4505	1337.2	456.75
1032.0859	3046.4842	1334.1	453.5
1032.1959	3047.5173	1330	451.25
1032.3059	3048.5498	1321.2	440.35
1032.4159	3049.5816	1321.7	441.75
1032.5258	3050.6128	1313.4	433.2
1032.6357	3051.6434	1315.6	433.3
1032.7455	3052.6734	1310.65	429.65
1032.8553	3053.7027	1299.75	420.4
1032.9651	3054.7314	1296.05	417.9
1033.0748	3055.7594	1295.95	415.75
1033.1845	3056.7868	1289.75	408.85
1033.2941	3057.8136	1289.35	409.8
1033.4037	3058.8398	1280.55	402.4
1033.5132	3059.8653	1277.55	398
1033.6227	3060.8902	1279.55	399.75
1033.7321	3061.9145	1274.65	395.95
1033.8415	3062.9381	1271.1	390.05
1033.9509	3063.9612	1279.8	385
1034.0602	3064.9835	1263.2	384.6
1034.1694	3066.0053	1259.1	377.8
1034.2787	3067.0264	1252.75	373.7
1034.3878	3068.0469	1251.2	372.95
1034.497	3069.0668	1243.7	360.95
1034.6061	3070.086	1233.3	355.85
1034.7151	3071.1046	1231.75	353
1034.8241	3072.1226	1215.75	335.75
1034.9331	3073.1399	1215.75	338.25
1035.042	3074.1567	1205.7	324.85
1035.1508	3075.1727	1195.95	316.65
1035.2597	3076.1882	1185.65	305.45
1035.3684	3077.203	1188.35	310.15
1035.4772	3078.2173	1176.5	296.3
1035.5859	3079.2308	1174.05	292.55
1035.6945	3080.2438	1162.05	280.8
1035.8031	3081.2561	1163	283.3
1035.9117	3082.2678	1148.75	268.1
1036.0202	3083.2789	1146.5	267.1
1036.1286	3084.2893	1133.35	253.4
1036.2371	3085.2991	1128.05	249.9
1036.3454	3086.3083	1132.45	248.8
1036.4538	3087.3169	1126.25	245.9
1036.562	3088.3248	1121.15	240.3
1036.6703	3089.3321	1119.5	238.05
1036.7785	3090.3388	1108.3	229.4
1036.8866	3091.3449	1108.4	229.1
1036.9948	3092.3503	1106.15	224.75
1037.1028	3093.3551	1098.85	220.45
1037.2108	3094.3593	1092.7	214.65
1037.3188	3095.3629	1090.55	213.5
1037.4267	3096.3658	1088.45	208.9
1037.5346	3097.3681	1091.8	213.65
1037.6425	3098.3698	1086.3	206.4
1037.7503	3099.3708	1090.9	203.55
1037.858	3100.3713	1083.1	204.7
1037.9657	3101.3711	1077.8	198.8
1038.0734	3102.3702	1212.65	201.6
1038.181	3103.3688	1074.05	193.05
1038.2886	3104.3667	1072.5	193.4
1038.3961	3105.364	1066.45	188.35
1038.5036	3106.3607	1066.65	185.8
1038.611	3107.3568	1060.75	179.6
1038.7184	3108.3522	1057.25	180.75
1038.8257	3109.347	1059.1	178.45
1038.933	3110.3412	1064.6	181.8
1039.0403	3111.3348	1053.95	175.4
1039.1475	3112.3277	1048.15	168.95
1039.2547	3113.32	1048.95	173.4
1039.3618	3114.3117	1048.15	168.45
1039.4689	3115.3028	1047.65	169.6
1039.5759	3116.2932	1047.5	167.05
1039.6829	3117.2831	1049.25	166.85
1039.7898	3118.2723	1047.1	169.3
1039.8967	3119.2608	1043.9	166
1040.0035	3120.2488	1040.95	162.15
1040.1103	3121.2361	1037.25	159.1
1040.2171	3122.2229	1039.6	161
1040.3238	3123.209	1038.55	160.65
1040.4305	3124.1944	1033.55	155.75
1040.5371	3125.1793	1035.35	155.55
1040.6437	3126.1635	1028.95	152
1040.7502	3127.1471	1031.7	155.35
1040.8567	3128.1301	1029.15	151.3
1040.9631	3129.1125	1025.55	147.6
1041.0695	3130.0942	1026.85	147.35
1041.1759	3131.0753	1039.5	153.15
1041.2822	3132.0558	1025.4	143.65
1041.3884	3133.0357	1024.3	145.1
1041.4946	3134.015	1021.05	142.8
1041.6008	3134.9936	1021.5	141.2
1041.7069	3135.9716	1039.4	143.7
1041.813	3136.949	1015.15	134.15
1041.919	3137.9258	1033.75	137.1
1042.025	3138.902	1018.4	134.65
1042.1309	3139.8775	1015.3	137.05
1042.2368	3140.8524	1014.1	135.75
1042.3427	3141.8267	1018.65	137.05
1042.4485	3142.8004	1012.15	133.45
1042.5542	3143.7735	1016.9	131.8
1042.6599	3144.7459	1013.5	134.85
1042.7656	3145.7178	1007.8	130
1042.8712	3146.689	1008.1	129.85
1042.9768	3147.6596	1008.6	129.6
1043.0823	3148.6295	1004.5	127.85
1043.1878	3149.5989	1003.15	124.9
1043.2932	3150.5676	1003.95	127.4
1043.3986	3151.5357	1000.1	124.05
1043.5039	3152.5032	1003	124.95
1043.6092	3153.4701	1002.2	126.1
1043.7145	3154.4364	1004.35	124.85
1043.8197	3155.402	997.6	121.7
1043.9248	3156.367	999.35	120.55
1044.03	3157.3315	1025.95	117.8
1044.135	3158.2952	996	116.6
1044.24	3159.2584	995.1	118.3
1044.345	3160.221	992.2	113.4
1044.4499	3161.1829	993.55	115
1044.5548	3162.1442	991.95	114.05
1044.6596	3163.105	989.5	112.3
1044.7644	3164.065	993.15	114.85
1044.8692	3165.0245	991.95	111.65
1044.9739	3165.9834	990.4	113
1045.0785	3166.9416	989.75	110.95
1045.1831	3167.8993	990.45	111.65
1045.2877	3168.8563	988.2	109
1045.3922	3169.8127	984.15	107.6
1045.4966	3170.7684	984.45	108.5
1045.6011	3171.7236	984.75	105.85
1045.7054	3172.6782	980.9	106.1
1045.8098	3173.6321	982.8	103.85
1045.914	3174.5854	989.75	107.95
1046.0183	3175.5381	982.7	105.9
1046.1224	3176.4902	979.55	102.6
1046.2266	3177.4417	980.15	102.95
1046.3307	3178.3926	979.9	105.15
1046.4347	3179.3428	981.2	105.95
1046.5387	3180.2924	981.15	103.4
1046.6427	3181.2415	974.7	95.4
1046.7466	3182.1899	979.45	100.5
1046.8504	3183.1377	979.25	102.1
1046.9542	3184.0848	975.75	92.75
1047.058	3185.0314	975.4	97.75
1047.1617	3185.9773	973.85	94.9
1047.2654	3186.9227	976.9	98.85
1047.369	3187.8674	972.9	95.85
1047.4726	3188.8115	976.45	94.6
1047.5761	3189.755	970.4	94.1
1047.6796	3190.6979	974.7	96.2
1047.783	3191.6402	968.3	90.75
1047.8864	3192.5818	971.1	94.75
1047.9898	3193.5229	991.35	96.65
1048.0931	3194.4633	971.4	95.3
1048.1963	3195.4031	970.5	93.7
1048.2995	3196.3423	967.15	89
1048.4027	3197.2809	969.75	93.8
1048.5058	3198.2189	970.95	93.15
1048.6089	3199.1563	973.05	89.45
1048.7119	3200.0931	966.05	88.8
1048.8148	3201.0292	963.7	87
1048.9178	3201.9648	963	85.8
1049.0206	3202.8997	967.85	85.35
1049.1235	3203.834	962.8	87.15
1049.2262	3204.7677	962.3	84.25
1049.329	3205.7008	967.6	90.15
1049.4317	3206.6333	960.9	85.2
1049.5343	3207.5652	963.3	84.5
1049.6369	3208.4964	961.1	84.3
1049.7394	3209.4271	957.15	80.75
1049.8419	3210.3571	960.8	85.4
1049.9444	3211.2865	957.6	79.65
1050.0468	3212.2154	958.8	79.45
1050.1491	3213.1436	962.3	84.4
1050.2514	3214.0712	965.15	80.8
1050.3537	3214.9982	957.4	80.25
1050.4559	3215.9246	955.45	78.55
1050.5581	3216.8503	956.4	78.3
1050.6602	3217.7755	957.85	81.8
1050.7623	3218.7001	954.6	77.75
1050.8643	3219.624	956.05	77.95
1050.9663	3220.5473	954.75	76.85
1051.0682	3221.4701	957.25	79.55
1051.1701	3222.3922	957.4	78.35
1051.2719	3223.3137	951.85	75.95
1051.3737	3224.2346	953	76.1
1051.4754	3225.1549	955.1	78.65
1051.5771	3226.0746	953	76.35
1051.6788	3226.9937	953.6	75.8
1051.7804	3227.9121	952.2	74.95
1051.8819	3228.83	951.05	73.85
1051.9834	3229.7473	951.5	73.15
1052.0849	3230.6639	952.6	75.9
1052.1863	3231.5799	952.75	76.25
1052.2876	3232.4954	951.15	73.6
1052.3889	3233.4102	954.05	77.85
1052.4902	3234.3244	948.1	69
1052.5914	3235.238	947.35	71.2
1052.6926	3236.151	958.15	68.35
1052.7937	3237.0634	947.2	73.25
1052.8948	3237.9752	947.4	70.65
1052.9958	3238.8864	946	67.1
1053.0968	3239.797	945.85	68.9
1053.1977	3240.7069	947.3	68.55
1053.2986	3241.6163	946.75	69.2
1053.3994	3242.5251	942.1	65.3
1053.5002	3243.4332	943.4	67.05
1053.6009	3244.3408	943.05	65.9
1053.7016	3245.2477	943	68.05
1053.8022	3246.154	945.55	66.55
1053.9028	3247.0598	945.45	70.1
1054.0034	3247.9649	941.55	64.75
1054.1039	3248.8694	942.1	66.3
1054.2043	3249.7733	939.8	61.6
1054.3047	3250.6766	937.8	61.4
1054.4051	3251.5793	938.95	61.5
1054.5054	3252.4814	940.3	65.05
1054.6056	3253.3829	939.35	63
1054.7058	3254.2838	936.65	59.35
1054.806	3255.1841	938	63.15
1054.9061	3256.0838	934.8	59.35
1055.0061	3256.9829	931.9	55.7
1055.1062	3257.8814	937.45	60.05
1055.2061	3258.7792	937.5	60.45
1055.306	3259.6765	936.45	60.2
1055.4059	3260.5731	933.95	59
1055.5057	3261.4692	933.7	58
1055.6055	3262.3647	932.45	55.65
1055.7052	3263.2595	928.45	51.9
1055.8049	3264.1538	929.6	54.3
1055.9045	3265.0474	927.8	51
1056.0041	3265.9404	926.3	51.4
1056.1036	3266.8329	926.5	51.4
1056.2031	3267.7247	935.2	47.85
1056.3025	3268.616	925.1	50.35
1056.4019	3269.5066	923.55	47.9
1056.5013	3270.3966	923.25	44.8
1056.6005	3271.286	917.95	42.9
