Software Version:	3.9.2.0
Unit SN:	10000200
Spectrometer SN:	6960
Date:	3/8/2024 11:47:40 AM
Data Line Index:	25
Spectral Points:	2048
Integration time (ms):	125
Averages:	20
Delay (ms):	30000
Sequence Number:	1
Processing:	dark subtract
Laser Power (mW):	305
Laser Current (mA):	822
Laser Diode Temp (C):	25.1
Laser Case Temp (C):	25.4
System Temp (C):	25.3
Spectrometer Temp (C):	23.2
CCD Temp (C):	0.008
Secondary Temp (C):	20.004
Heatsink Temp (C):	19.908
CCDPCB Temp (C):	34.328
SecondaryPCB Temp (C):	27.848

Wavelength	RamanShift	Raw Counts	Dark Subtracted
787.061	30.1047	412	1.95
787.2016	32.3739	412.1	4.75
787.3422	34.6426	414.4	5.2
787.4828	36.9109	415.4	5
787.6235	39.1787	421.95	5.95
787.7642	41.4461	424.85	6.2
787.9049	43.7131	429.55	6.15
788.0456	45.9796	432.75	7.75
788.1863	48.2456	436.15	8.1
788.3271	50.5112	440.05	7.3
788.4679	52.7764	444.5	8.5
788.6087	55.0411	451.3	12.2
788.7496	57.3054	454.45	7.1
788.8904	59.5692	457.65	10.9
789.0313	61.8326	463.95	13.85
789.1722	64.0955	466.7	13.4
789.3132	66.3579	473.55	16.4
789.4541	68.6199	481.55	20.5
789.5951	70.8815	492.25	28
789.7361	73.1426	509.25	39.85
789.8771	75.4032	544.9	72.3
790.0181	77.6634	612.3	135.95
790.1592	79.9231	780.3	298.7
790.3003	82.1824	1120.4	629.8
790.4414	84.4412	1681	1175.1
790.5825	86.6995	2384.65	1860.45
790.7237	88.9574	3064.35	2524.1
790.8648	91.2148	3513.35	2961.8
791.006	93.4717	3717.45	3159.4
791.1472	95.7282	3733.25	3168.6
791.2885	97.9842	3699.25	3131.4
791.4297	100.2398	3665.95	3098.8
791.571	102.4949	3623.2	3054.45
791.7123	104.7495	3567.4	2992.9
791.8536	107.0036	3527.15	2951.95
791.9949	109.2573	3439.15	2863
792.1363	111.5105	3350.05	2772.5
792.2777	113.7632	3237.1	2657.55
792.4191	116.0154	3158.5	2568.45
792.5605	118.2672	3044.9	2463.45
792.7019	120.5185	2928.7	2344
792.8434	122.7693	2835.4	2246.4
792.9849	125.0197	2774.1	2182.9
793.1264	127.2696	2694.3	2101.7
793.2679	129.519	2638.75	2037.65
793.4094	131.7679	2616.75	2014.2
793.551	134.0163	2597.3	1995.25
793.6926	136.2642	2585.7	1979.1
793.8342	138.5117	2581.3	1963.75
793.9758	140.7587	2557.4	1944.15
794.1175	143.0052	2488.5	1874.05
794.2591	145.2512	2444.55	1829.3
794.4008	147.4967	2403.85	1788.15
794.5425	149.7417	2360.25	1739.6
794.6842	151.9863	2331.8	1710.25
794.826	154.2304	2326.85	1700.95
794.9677	156.4739	2314.7	1685.25
795.1095	158.717	2333.85	1698.45
795.2513	160.9596	2345.15	1710
795.3931	163.2017	2373.8	1735.2
795.535	165.4433	2380.2	1736.35
795.6768	167.6844	2371.05	1725.1
795.8187	169.925	2344.55	1697.5
795.9606	172.1651	2289	1639.95
796.1025	174.4047	2232.3	1580.55
796.2445	176.6439	2203.4	1552.1
796.3864	178.8825	2177.45	1520.1
796.5284	181.1206	2173.95	1510.75
796.6704	183.3582	2152.75	1486.95
796.8124	185.5954	2153.45	1486.85
796.9544	187.832	2151.3	1478.55
797.0965	190.0681	2152.7	1479.1
797.2386	192.3037	2159.1	1482.25
797.3806	194.5388	2168.8	1487.1
797.5228	196.7734	2175.05	1491.45
797.6649	199.0075	2192.8	1508.15
797.807	201.2411	2212.7	1526.95
797.9492	203.4742	2240.35	1552.95
798.0914	205.7068	2259.55	1570.7
798.2336	207.9389	2277.2	1588.15
798.3758	210.1704	2284.5	1594.95
798.518	212.4015	2282.1	1598.8
798.6603	214.632	2286.55	1612.35
798.8025	216.862	2283.15	1616.2
798.9448	219.0915	2298.55	1629.65
799.0871	221.3205	2310.3	1635.9
799.2294	223.549	2305.7	1635.75
799.3718	225.777	2308.65	1639.4
799.5141	228.0044	2316.1	1639.35
799.6565	230.2314	2301.95	1626.25
799.7989	232.4578	2282.55	1601.6
799.9413	234.6837	2274.2	1583.6
800.0837	236.909	2268.55	1578.75
800.2262	239.1339	2284.65	1569.1
800.3687	241.3582	2263.65	1561.85
800.5111	243.582	2284.3	1553.65
800.6536	245.8053	2289.7	1572.4
800.7961	248.0281	2289.35	1578.05
800.9387	250.2503	2295.05	1579
801.0812	252.472	2314.9	1593.8
801.2238	254.6932	2309.15	1587.6
801.3664	256.9139	2311.45	1591.2
801.509	259.134	2333.95	1610.8
801.6516	261.3536	2348.45	1624.3
801.7942	263.5727	2391.5	1664
801.9369	265.7912	2444.75	1722.3
802.0795	268.0092	2500.25	1776.5
802.2222	270.2267	2556.1	1832.65
802.3649	272.4436	2596.1	1867.85
802.5076	274.6601	2651.15	1912.85
802.6504	276.8759	2659.95	1928.5
802.7931	279.0913	2684.1	1950.05
802.9359	281.3061	2702.65	1966.4
803.0787	283.5204	2715.6	1976.3
803.2215	285.7341	2740.95	2001.15
803.3643	287.9473	2766.5	2023.55
803.5071	290.16	2753.5	2008.65
803.6499	292.3721	2725.8	1986.75
803.7928	294.5837	2696.45	1957.65
803.9357	296.7947	2669.45	1930.2
804.0786	299.0052	2669.45	1926.8
804.2215	301.2152	2645	1899.45
804.3644	303.4246	2636.25	1894.1
804.5074	305.6334	2608.1	1867.85
804.6503	307.8418	2586.5	1841.9
804.7933	310.0495	2560.65	1812.3
804.9363	312.2568	2537.2	1788
805.0793	314.4635	2479.5	1730.85
805.2223	316.6696	2430.15	1677.8
805.3653	318.8752	2388.1	1632.55
805.5084	321.0802	2347.95	1594.65
805.6514	323.2847	2347.5	1589.75
805.7945	325.4887	2364.4	1607.15
805.9376	327.692	2383.85	1623.5
806.0807	329.8949	2426.15	1667.4
806.2238	332.0972	2454.95	1694.35
806.367	334.2989	2475.05	1708.9
806.5101	336.5001	2473.65	1709.35
806.6533	338.7007	2440.35	1675.95
806.7965	340.9008	2400.25	1635.1
806.9397	343.1003	2355.55	1590.15
807.0829	345.2992	2304.65	1534.95
807.2261	347.4976	2253.05	1484.9
807.3693	349.6955	2241.2	1466.5
807.5126	351.8927	2224.75	1451.85
807.6559	354.0895	2204.75	1419
807.7991	356.2856	2192.3	1412.7
807.9424	358.4812	2174.3	1397.2
808.0857	360.6763	2180.2	1401.4
808.2291	362.8707	2177.45	1394.05
808.3724	365.0646	2178.2	1394.9
808.5158	367.258	2195.75	1411.75
808.6591	369.4508	2215.15	1426.4
808.8025	371.643	2242.6	1457.95
808.9459	373.8346	2271.1	1480.8
809.0893	376.0257	2299.15	1507.35
809.2327	378.2162	2321.65	1531.75
809.3762	380.4062	2329.3	1538.3
809.5196	382.5956	2306.05	1516.35
809.6631	384.7844	2259.2	1476.2
809.8066	386.9726	2212.6	1428.55
809.9501	389.1603	2191.2	1410.8
810.0936	391.3474	2210.4	1394
810.2371	393.5339	2183.7	1395.85
810.3806	395.7199	2188.15	1400.55
810.5241	397.9052	2218.5	1432.85
810.6677	400.09	2258.05	1473.25
810.8113	402.2743	2303.65	1517.45
810.9548	404.4579	2352.55	1564.35
811.0984	406.641	2386.1	1596.35
811.2421	408.8235	2431.25	1639.75
811.3857	411.0054	2477	1684.75
811.5293	413.1868	2547.35	1750.35
811.673	415.3675	2595.25	1796.9
811.8166	417.5477	2589.3	1787.75
811.9603	419.7273	2524.7	1723.55
812.104	421.9064	2447.9	1641.5
812.2477	424.0848	2398.5	1594.45
812.3914	426.2627	2320.4	1514.55
812.5351	428.4399	2270.05	1463.8
812.6788	430.6166	2222.35	1414.4
812.8226	432.7928	2178.1	1366.85
812.9663	434.9683	2138	1327.7
813.1101	437.1432	2113.1	1300.6
813.2539	439.3176	2079	1269.75
813.3977	441.4914	2071.75	1264.8
813.5415	443.6645	2070.2	1258.35
813.6853	445.8371	2073.7	1263.45
813.8291	448.0091	2069.65	1260.55
813.973	450.1806	2069.55	1258.7
814.1168	452.3514	2056.6	1243.75
814.2607	454.5216	2080.85	1260.1
814.4046	456.6913	2059.65	1243.2
814.5485	458.8603	2065.75	1254.25
814.6924	461.0288	2082.55	1267.8
814.8363	463.1967	2077	1264.05
814.9802	465.3639	2078.35	1263.7
815.1241	467.5306	2063.7	1246.95
815.2681	469.6967	2056.65	1243.75
815.412	471.8622	2048.3	1234.9
815.556	474.0271	2044.85	1232.3
815.7	476.1914	2044.85	1227.15
815.844	478.3551	2046.3	1228.5
815.988	480.5182	2034.35	1222.4
816.132	482.6807	2051.7	1234.75
816.276	484.8426	2057.05	1245.45
816.4201	487.0039	2111.55	1296.05
816.5641	489.1647	2154.35	1334.85
816.7082	491.3248	2204.05	1384.95
816.8522	493.4843	2221.3	1405.4
816.9963	495.6432	2207.15	1385.8
817.1404	497.8015	2182.4	1359.75
817.2845	499.9592	2140.65	1317.95
817.4286	502.1163	2102.3	1276.85
817.5727	504.2728	2048.8	1224.9
817.7168	506.4287	2016.5	1198
817.861	508.5839	2001.45	1180.35
818.0051	510.7386	1998.35	1173.9
818.1493	512.8927	1998.85	1167.1
818.2935	515.0461	2018.15	1192.15
818.4377	517.199	2036	1207.4
818.5818	519.3512	2078.95	1251.65
818.726	521.5029	2151	1317.3
818.8703	523.6539	2195.8	1367.85
819.0145	525.8043	2199.5	1368.95
819.1587	527.9541	2144.5	1308.05
819.303	530.1033	2083.05	1252.55
819.4472	532.2519	2037.15	1207.45
819.5915	534.3999	2026.35	1191
819.7357	536.5472	2010.9	1181.6
819.88	538.694	2007.8	1179
820.0243	540.8401	2028.95	1195.9
820.1686	542.9856	2054.55	1218.95
820.3129	545.1305	2070.15	1231.95
820.4572	547.2748	2083.7	1242.8
820.6016	549.4185	2089.05	1247.1
820.7459	551.5615	2081.4	1240.65
820.8902	553.704	2100.65	1262.05
821.0346	555.8458	2125.25	1288.1
821.1789	557.987	2137.25	1304.4
821.3233	560.1276	2166	1323.95
821.4677	562.2675	2212.4	1371.65
821.6121	564.4069	2281.35	1442.45
821.7565	566.5456	2318.95	1480.75
821.9009	568.6837	2304.25	1467.3
822.0453	570.8212	2247.95	1409.85
822.1897	572.958	2159.9	1321.95
822.3342	575.0942	2115.4	1277.05
822.4786	577.2299	2073.25	1234.75
822.6231	579.3648	2040	1206.05
822.7675	581.4992	2025.7	1194.25
822.912	583.6329	2042.2	1208.6
823.0565	585.766	2075.75	1241.95
823.201	587.8985	2117.9	1280.7
823.3454	590.0304	2161.65	1310.1
823.4899	592.1616	2182.2	1335.4
823.6345	594.2922	2191.35	1345.65
823.779	596.4222	2130.8	1284.15
823.9235	598.5515	2074.45	1227.75
824.068	600.6802	2025.7	1180.45
824.2126	602.8083	2000.75	1155.8
824.3571	604.9358	1994.8	1149.3
824.5017	607.0626	1985.4	1138.3
824.6462	609.1888	1994.5	1143.75
824.7908	611.3144	2029.3	1177.15
824.9354	613.4393	2065.05	1215.15
825.08	615.5636	2111.15	1262.4
825.2246	617.6873	2156.9	1309.15
825.3692	619.8103	2187.5	1338.1
825.5138	621.9327	2180.45	1326.6
825.6584	624.0544	2142.8	1293.45
825.803	626.1756	2094.35	1247.15
825.9477	628.2961	2044.95	1192.25
826.0923	630.4159	2029.45	1176.5
826.237	632.5351	2019.95	1165.15
826.3816	634.6537	2019.8	1165.4
826.5263	636.7716	1992.55	1136.15
826.6709	638.8889	1994.15	1136.9
826.8156	641.0056	2000.8	1139.95
826.9603	643.1216	2006.55	1146.8
827.105	645.237	1992.8	1134.5
827.2497	647.3518	1985.3	1130.25
827.3944	649.4659	1959.1	1108.55
827.5391	651.5793	1944	1090.5
827.6838	653.6922	1929.6	1078.85
827.8285	655.8043	1913.75	1059.7
827.9733	657.9159	1911.65	1056.45
828.118	660.0268	1910	1052.8
828.2627	662.137	1890.15	1033.65
828.4075	664.2466	1907.95	1043.6
828.5522	666.3556	1905.2	1047.8
828.697	668.4639	1894.6	1035.6
828.8418	670.5716	1888.65	1032.25
828.9865	672.6786	1885.25	1024.6
829.1313	674.785	1881.55	1020.85
829.2761	676.8907	1871.85	1014.15
829.4209	678.9958	1881	1023.2
829.5657	681.1002	1870.9	1010.95
829.7105	683.204	1876.05	1009.45
829.8553	685.3072	1880.15	1015.3
830.0001	687.4097	1867.4	1006.35
830.1449	689.5115	1880.75	1017.85
830.2898	691.6127	1870.4	1010.75
830.4346	693.7132	1861.4	999.3
830.5794	695.8131	1884.15	1000
830.7243	697.9123	1872.2	1007.2
830.8691	700.0109	1875.65	1009.85
831.014	702.1089	1896.2	1033.5
831.1588	704.2061	1903.05	1039.1
831.3037	706.3028	1931.35	1065.05
831.4486	708.3987	1946.25	1081.05
831.5935	710.4941	1961.75	1097.3
831.7383	712.5887	1962.7	1099.65
831.8832	714.6827	1954.65	1085.85
832.0281	716.7761	1951.5	1084.7
832.173	718.8688	1954.75	1090
832.3179	720.9608	1958.6	1086.35
832.4628	723.0522	1974.55	1104.65
832.6077	725.1429	1996.15	1125.05
832.7527	727.233	2033.4	1166.6
832.8976	729.3224	2097.25	1228.9
833.0425	731.4112	2150	1277.3
833.1874	733.4993	2144.9	1274.45
833.3324	735.5867	2094.25	1223.6
833.4773	737.6735	2019	1148.35
833.6222	739.7596	1968.25	1098
833.7672	741.845	1948.65	1077.45
833.9122	743.9298	1948.9	1075
834.0571	746.014	1951.4	1079.65
834.2021	748.0974	1957.2	1081.35
834.347	750.1802	1963.65	1092.9
834.492	752.2624	1946.65	1074.05
834.637	754.3439	1938.2	1064.1
834.782	756.4247	1940.85	1059.75
834.9269	758.5048	1939.25	1068.3
835.0719	760.5843	1964.75	1090.8
835.2169	762.6631	1994.15	1120.65
835.3619	764.7413	2042.55	1170.8
835.5069	766.8188	2124.25	1249.05
835.6519	768.8956	2214.05	1337.7
835.7969	770.9718	2266.15	1395.15
835.9419	773.0473	2261.3	1386.85
836.0869	775.1221	2231.65	1356.8
836.232	777.1962	2216.05	1340.75
836.377	779.2697	2274.5	1397.45
836.522	781.3426	2386.65	1492
836.667	783.4147	2417.55	1545.95
836.8121	785.4862	2416.05	1543.5
836.9571	787.557	2322.95	1445.7
837.1021	789.6271	2200.65	1322.2
837.2472	791.6966	2069.8	1192.3
837.3922	793.7654	1987.65	1113.25
837.5373	795.8335	1932.7	1054.6
837.6823	797.901	1899.55	1026.3
837.8274	799.9678	1896.65	1020.85
837.9724	802.0339	1895.4	1018.65
838.1175	804.0993	1903.75	1015.3
838.2626	806.1641	1890.4	1011.75
838.4076	808.2282	1862.8	986.15
838.5527	810.2916	1851.7	970.1
838.6978	812.3544	1830.1	956.35
838.8428	814.4164	1826.8	952.6
838.9879	816.4778	1838.05	957.9
839.133	818.5385	1853.9	974
839.2781	820.5986	1887.3	1007.1
839.4232	822.658	1927.95	1049.05
839.5682	824.7166	1991.1	1112.5
839.7133	826.7747	2071.8	1189.5
839.8584	828.832	2162.3	1281.85
840.0035	830.8886	2221.35	1338.85
840.1486	832.9446	2240.95	1356.65
840.2937	834.9999	2194.25	1310.5
840.4388	837.0545	2145.1	1263.05
840.5839	839.1085	2048.4	1167.85
840.729	841.1618	1981.8	1097.3
840.8741	843.2143	1930.85	1050.15
841.0192	845.2662	1890.8	1007.4
841.1643	847.3175	1890.35	1010.15
841.3095	849.368	1867.75	985.7
841.4546	851.4179	1870.25	989.9
841.5997	853.467	1860.15	978.8
841.7448	855.5155	1874.5	993.75
841.8899	857.5633	1876.85	995.1
842.0351	859.6105	1870.1	988.2
842.1802	861.6569	1842.35	959.4
842.3253	863.7027	1844.9	959
842.4704	865.7478	1833.55	948.25
842.6156	867.7922	1818.4	934.85
842.7607	869.8359	1817.3	932.4
842.9058	871.8789	1812.85	925.15
843.0509	873.9212	1840.4	925.2
843.1961	875.9629	1830.2	945.1
843.3412	878.0039	1831.35	948.7
843.4863	880.0441	1841.8	958.95
843.6315	882.0837	1868.1	983.2
843.7766	884.1226	1895.4	1010.9
843.9218	886.1609	1926.85	1043.4
844.0669	888.1984	1973.1	1088.45
844.212	890.2352	2011.55	1127.3
844.3572	892.2714	2027.25	1139.65
844.5023	894.3069	2001.1	1114.9
844.6475	896.3416	1947.55	1064.25
844.7926	898.3757	1902.45	1015.6
844.9377	900.4091	1878.9	990.6
845.0829	902.4418	1899.6	1007.35
845.228	904.4739	1905.55	1015.75
845.3732	906.5052	1916.35	1028.65
845.5183	908.5358	1912.5	1024.4
845.6635	910.5658	1886	996.9
845.8086	912.595	1856.4	971.55
845.9538	914.6236	1811.8	920.95
846.0989	916.6515	1801.9	916.55
846.2441	918.6786	1769.7	881.9
846.3892	920.7051	1763.3	875.25
846.5344	922.7309	1766.3	877.65
846.6795	924.756	1772.85	883.7
846.8246	926.7804	1784.75	896.4
846.9698	928.8041	1793.25	903.45
847.1149	930.8272	1809.65	920.6
847.2601	932.8495	1814.2	923.8
847.4052	934.8711	1817.75	928.65
847.5504	936.892	1828.6	938.65
847.6955	938.9123	1848.9	958.75
847.8407	940.9318	1858.05	969.5
847.9858	942.9506	1880.8	990.6
848.131	944.9688	1865.85	976.25
848.2761	946.9862	1854.3	966.5
848.4213	949.003	1810.65	920.1
848.5664	951.019	1782.9	891.05
848.7115	953.0344	1768.85	878.9
848.8567	955.0491	1762.7	871.1
849.0018	957.063	1763	873
849.147	959.0763	1757.85	869.5
849.2921	961.0888	1754.95	863.4
849.4373	963.1007	1759.7	874.15
849.5824	965.1119	1740.4	856.15
849.7275	967.1223	1741.25	857.65
849.8727	969.1321	1742.05	857.9
850.0178	971.1412	1727.6	840.9
850.1629	973.1495	1727.6	839.35
850.3081	975.1572	1752.5	832.6
850.4532	977.1641	1728.4	839.65
850.5983	979.1704	1727.6	835.9
850.7435	981.1759	1725.65	832.1
850.8886	983.1808	1714.55	822.8
851.0337	985.1849	1722.35	820.8
851.1788	987.1884	1710.2	817.25
851.324	989.1911	1719.6	828.35
851.4691	991.1932	1732.65	842.5
851.6142	993.1945	1723.6	832.2
851.7593	995.1951	1720.45	828.55
851.9045	997.1951	1719.65	823.25
852.0496	999.1943	1712.45	821.45
852.1947	1001.1928	1724.6	835.3
852.3398	1003.1906	1725.65	838.25
852.4849	1005.1877	1751.65	859.1
852.63	1007.1841	1780.9	889.25
852.7751	1009.1798	1780.15	890.85
852.9202	1011.1748	1779.2	886.2
853.0653	1013.1691	1760.35	866.55
853.2104	1015.1627	1725.7	833.3
853.3555	1017.1556	1696.2	804.75
853.5006	1019.1477	1680.3	789.2
853.6457	1021.1392	1654.9	767.5
853.7908	1023.1299	1651.6	765.1
853.9359	1025.12	1642.25	754.1
854.081	1027.1093	1653.3	769.2
854.2261	1029.0979	1674.4	795.55
854.3712	1031.0859	1694.45	810.25
854.5163	1033.0731	1712.6	827
854.6613	1035.0596	1705.35	816.4
854.8064	1037.0454	1701.7	811.45
854.9515	1039.0304	1692.25	801
855.0965	1041.0148	1666	773.05
855.2416	1042.9985	1659.9	770.3
855.3867	1044.9814	1633.95	743.7
855.5317	1046.9636	1634.95	741.2
855.6768	1048.9452	1644.9	754
855.8219	1050.926	1652.9	762.35
855.9669	1052.9061	1675.8	783.05
856.112	1054.8855	1675.6	784.25
856.257	1056.8642	1683.4	789.95
856.4021	1058.8421	1682.6	789.35
856.5471	1060.8194	1674.2	781.35
856.6921	1062.7959	1682.2	789.3
856.8372	1064.7717	1684.1	787.85
856.9822	1066.7469	1676.15	779.05
857.1272	1068.7213	1670.85	776.45
857.2723	1070.695	1700.95	809.45
857.4173	1072.6679	1715.4	823.45
857.5623	1074.6402	1738.65	846.35
857.7073	1076.6117	1747.1	848.6
857.8523	1078.5826	1720.55	829.05
857.9973	1080.5527	1686.1	788.55
858.1423	1082.5221	1646.15	752.35
858.2873	1084.4908	1621.05	729.25
858.4323	1086.4587	1610.2	717.45
858.5773	1088.426	1613.25	720.15
858.7223	1090.3925	1608.4	710.9
858.8673	1092.3584	1614.6	720.15
859.0123	1094.3235	1622.9	729.2
859.1573	1096.2879	1639.75	745.7
859.3022	1098.2515	1658.45	764.45
859.4472	1100.2145	1688.65	793.95
859.5922	1102.1767	1729.45	834.35
859.7371	1104.1382	1764.85	872.2
859.8821	1106.099	1814.65	918.4
860.027	1108.0591	1858.7	964.05
860.172	1110.0185	1902.75	1006.6
860.3169	1111.9771	1936.55	1045.65
860.4619	1113.9351	1980.5	1087.3
860.6068	1115.8923	2027	1133
860.7517	1117.8488	2055.75	1161.45
860.8967	1119.8045	1998.65	1106.9
861.0416	1121.7596	1908.8	1013.35
861.1865	1123.7139	1818.15	925.05
861.3314	1125.6675	1778.3	884.25
861.4763	1127.6204	1774.25	880.4
861.6212	1129.5726	1786.75	890.4
861.7661	1131.524	1774.85	879.65
861.911	1133.4748	1744.3	849.95
862.0559	1135.4248	1688.35	791.4
862.2008	1137.3741	1648.4	756.3
862.3457	1139.3226	1635.85	740.75
862.4905	1141.2705	1624.8	731.15
862.6354	1143.2176	1635.4	732.25
862.7803	1145.164	1651.35	756.1
862.9251	1147.1097	1641.15	748.05
863.07	1149.0546	1617	721.55
863.2148	1150.9989	1585.9	689.2
863.3597	1152.9424	1572.9	679.3
863.5045	1154.8852	1559.65	665.65
863.6493	1156.8272	1562.8	669.1
863.7942	1158.7686	1563	658.1
863.939	1160.7092	1558.1	663.05
864.0838	1162.6491	1557.1	660.75
864.2286	1164.5883	1569.05	676.4
864.3734	1166.5267	1598.6	700.5
864.5182	1168.4644	1621.95	728.15
864.663	1170.4014	1647.5	747.9
864.8078	1172.3377	1671.8	780.5
864.9526	1174.2732	1731.95	838.65
865.0974	1176.2081	1824.05	928.45
865.2421	1178.1421	1941.2	1042.25
865.3869	1180.0755	2045.6	1152.4
865.5317	1182.0082	2091.05	1198.9
865.6764	1183.9401	2067.05	1173.6
865.8212	1185.8713	1957.75	1067.05
865.9659	1187.8017	1847.4	957.45
866.1106	1189.7315	1749.85	861.85
866.2554	1191.6605	1711.2	795.65
866.4001	1193.5888	1642.75	750.2
866.5448	1195.5163	1625.75	731.7
866.6895	1197.4432	1601.9	706.85
866.8342	1199.3693	1581.6	689.75
866.9789	1201.2947	1578.3	682.1
867.1236	1203.2193	1564.2	669.25
867.2683	1205.1432	1563.5	668.15
867.413	1207.0664	1569.85	676.45
867.5576	1208.9889	1563.5	666.2
867.7023	1210.9106	1566.85	673.6
867.847	1212.8316	1574.7	679.95
867.9916	1214.7519	1592.05	688.9
868.1363	1216.6715	1593.55	699.65
868.2809	1218.5903	1603.45	707.4
868.4255	1220.5084	1621.6	725.75
868.5701	1222.4257	1624.35	728.25
868.7148	1224.3424	1643.35	751.45
868.8594	1226.2583	1662.9	764.55
869.004	1228.1735	1694.25	798.4
869.1486	1230.0879	1720.75	824.4
869.2932	1232.0016	1766.65	871.25
869.4377	1233.9146	1804.8	904.5
869.5823	1235.8269	1820.4	926.4
869.7269	1237.7384	1828.45	934.3
869.8715	1239.6492	1820.95	926.75
870.016	1241.5592	1846.4	950.75
870.1606	1243.4686	1890.3	993.85
870.3051	1245.3772	1959.25	1064.7
870.4496	1247.285	2046.45	1149.95
870.5941	1249.1922	2120.1	1226.75
870.7387	1251.0986	2181.05	1284.5
870.8832	1253.0042	2261.15	1366
871.0277	1254.9092	2335.1	1439.75
871.1722	1256.8134	2411.85	1520.85
871.3167	1258.7169	2475.15	1579.55
871.4611	1260.6196	2496	1603.9
871.6056	1262.5216	2497.55	1601.35
871.7501	1264.4229	2473.95	1581.2
871.8945	1266.3234	2457.4	1561.15
872.039	1268.2232	2404.85	1508.5
872.1834	1270.1223	2375.45	1479.45
872.3278	1272.0207	2333.3	1437.5
872.4723	1273.9183	2319.55	1418.05
872.6167	1275.8151	2314.1	1416.2
872.7611	1277.7113	2367.25	1471.35
872.9055	1279.6067	2448.2	1557.15
873.0499	1281.5014	2579.35	1681.35
873.1943	1283.3953	2731.9	1834.25
873.3386	1285.2885	2879.9	1984.05
873.483	1287.181	3016.65	2119.15
873.6274	1289.0727	3044.55	2151.35
873.7717	1290.9637	3012.6	2119.3
873.9161	1292.854	2946.1	2049.45
874.0604	1294.7435	2835	1939.4
874.2047	1296.6323	2736.6	1841
874.349	1298.5204	2654.7	1756.05
874.4933	1300.4077	2597.25	1701.3
874.6376	1302.2943	2540.7	1645.9
874.7819	1304.1802	2512.15	1616.7
874.9262	1306.0653	2480.05	1583.05
875.0705	1307.9497	2441.2	1545.7
875.2147	1309.8333	2414.55	1521.35
875.359	1311.7162	2375	1478.9
875.5032	1313.5984	2347.45	1450.6
875.6475	1315.4798	2323.3	1410.65
875.7917	1317.3605	2320.45	1421
875.9359	1319.2405	2292.15	1394.95
876.0801	1321.1197	2268	1369.5
876.2243	1322.9982	2223.9	1325.45
876.3685	1324.876	2139.45	1245.55
876.5127	1326.753	2055.05	1161.05
876.6569	1328.6293	1992.45	1092.95
876.801	1330.5048	1907	1009.2
876.9452	1332.3796	1834.95	938.25
877.0893	1334.2537	1818.3	895.5
877.2335	1336.127	1762.85	868.55
877.3776	1337.9996	1744.85	847.95
877.5217	1339.8714	1718.55	824.7
877.6658	1341.7426	1743.65	800.15
877.8099	1343.6129	1694.95	799.55
877.954	1345.4826	1679.25	782.35
878.0981	1347.3515	1664.5	763.05
878.2422	1349.2196	1657.2	760.45
878.3862	1351.087	1649.4	751.95
878.5303	1352.9537	1650.95	754.45
878.6743	1354.8197	1654.15	759.45
878.8184	1356.6849	1662.2	763.4
878.9624	1358.5493	1670.55	774.45
879.1064	1360.4131	1706.8	811.75
879.2504	1362.276	1732.1	839.65
879.3944	1364.1383	1759.3	862.4
879.5384	1365.9998	1781.1	882.35
879.6823	1367.8606	1761.7	864.2
879.8263	1369.7206	1750.4	852.35
879.9702	1371.5799	1746.1	848.3
880.1142	1373.4384	1742.3	845.65
880.2581	1375.2962	1715.5	817.75
880.402	1377.1533	1670.95	775.1
880.5459	1379.0096	1620.05	722.85
880.6898	1380.8652	1589.85	692.95
880.8337	1382.7201	1567.75	673.8
880.9776	1384.5742	1533.35	636.9
881.1215	1386.4275	1526.05	626
881.2653	1388.2802	1505.65	609.2
881.4092	1390.132	1486.6	588.45
881.553	1391.9832	1489.45	590.9
881.6968	1393.8336	1478.1	583.05
881.8406	1395.6832	1465.55	566.45
881.9844	1397.5322	1454.55	556.75
882.1282	1399.3803	1455.25	555.65
882.272	1401.2278	1450.45	553.9
882.4158	1403.0745	1439.5	542.3
882.5595	1404.9204	1431.4	537.7
882.7033	1406.7656	1432.4	534.15
882.847	1408.6101	1420.1	523.45
882.9908	1410.4538	1423.5	525.45
883.1345	1412.2968	1430.25	533.9
883.2782	1414.139	1424.85	528.15
883.4219	1415.9805	1440.75	545.95
883.5656	1417.8213	1447.25	545.4
883.7092	1419.6613	1455.35	561.7
883.8529	1421.5006	1489.8	592.5
883.9965	1423.3391	1519.35	622.9
884.1402	1425.1769	1566.15	670.2
884.2838	1427.0139	1632.6	734.4
884.4274	1428.8502	1716.35	818.75
884.571	1430.6858	1779.05	882
884.7146	1432.5206	1801.1	904.6
884.8582	1434.3547	1797.35	901.45
885.0018	1436.188	1764.7	869.3
885.1453	1438.0206	1759.05	860.35
885.2889	1439.8524	1742.2	847.55
885.4324	1441.6835	1750.5	853.05
885.5759	1443.5139	1755.25	856.7
885.7194	1445.3435	1751.95	857.05
885.8629	1447.1724	1759.8	865.9
886.0064	1449.0005	1755.45	860.4
886.1499	1450.8279	1742.75	845.35
886.2933	1452.6545	1737.65	844.6
886.4368	1454.4804	1740.1	845.2
886.5802	1456.3056	1737.2	835.3
886.7237	1458.13	1714.75	820.5
886.8671	1459.9536	1692.6	796.15
887.0105	1461.7766	1656.8	762.3
887.1539	1463.5987	1620.9	722.2
887.2972	1465.4202	1587.2	693.4
887.4406	1467.2409	1549.9	653.95
887.584	1469.0608	1524.35	629.6
887.7273	1470.88	1496.8	599.05
887.8706	1472.6984	1475.4	580.4
888.0139	1474.5161	1447.65	549.1
888.1572	1476.3331	1434.55	541.25
888.3005	1478.1493	1430.65	531.85
888.4438	1479.9648	1425.65	530.8
888.5871	1481.7795	1425.6	531.95
888.7303	1483.5935	1416.25	522.9
888.8736	1485.4067	1417.25	519.55
889.0168	1487.2192	1423.15	526.9
889.16	1489.031	1420.5	523
889.3032	1490.842	1423.8	529.4
889.4464	1492.6522	1422.45	525.55
889.5896	1494.4618	1413.2	514.9
889.7327	1496.2705	1410.3	513.35
889.8759	1498.0785	1406.1	509.7
890.019	1499.8858	1399.8	503.3
890.1622	1501.6924	1392.6	496.75
890.3053	1503.4981	1390.6	494.95
890.4484	1505.3032	1384.6	487.85
890.5914	1507.1075	1378.6	483.05
890.7345	1508.911	1372.95	477
890.8776	1510.7138	1367.4	472.4
891.0206	1512.5159	1350.5	453.9
891.1637	1514.3172	1347.15	451.1
891.3067	1516.1178	1340.1	445.1
891.4497	1517.9176	1342.15	444.4
891.5927	1519.7166	1339.1	444.2
891.7357	1521.515	1340.1	438.55
891.8786	1523.3126	1324.55	429.8
892.0216	1525.1094	1321.85	425.4
892.1645	1526.9055	1319.15	422.55
892.3074	1528.7008	1314	420.1
892.4503	1530.4954	1319.1	417.8
892.5932	1532.2893	1307.7	416.9
892.7361	1534.0824	1318.1	420.35
892.879	1535.8747	1302.85	408.75
893.0218	1537.6663	1307.65	414.4
893.1647	1539.4572	1310.35	415.25
893.3075	1541.2473	1308.65	413
893.4503	1543.0367	1309.3	414.95
893.5931	1544.8253	1312.75	412.05
893.7359	1546.6132	1318.5	420.95
893.8787	1548.4003	1328.65	423.95
894.0214	1550.1867	1335.15	431.35
894.1642	1551.9723	1336.15	440.85
894.3069	1553.7572	1347.55	454.3
894.4496	1555.5414	1362.8	469.65
894.5923	1557.3247	1386.4	493.55
894.735	1559.1074	1424.2	534.15
894.8777	1560.8893	1461.2	569.75
895.0204	1562.6705	1485.35	591.1
895.163	1564.4509	1506.7	613.55
895.3056	1566.2305	1506.8	617.05
895.4482	1568.0094	1520.65	628.95
895.5908	1569.7876	1513.7	623.65
895.7334	1571.565	1509.85	618.25
895.876	1573.3417	1511.3	619.65
896.0186	1575.1176	1514.55	623.9
896.1611	1576.8928	1526.05	636.7
896.3036	1578.6672	1538.8	648.9
896.4461	1580.4409	1567.5	679.6
896.5886	1582.2138	1598.45	703.9
896.7311	1583.986	1629.15	737.1
896.8736	1585.7575	1672.35	782.4
897.0161	1587.5282	1695.4	805.4
897.1585	1589.2981	1712.85	825.9
897.3009	1591.0673	1725.75	836.15
897.4433	1592.8358	1734.15	844.8
897.5857	1594.6035	1732.1	839
897.7281	1596.3704	1732.15	840.05
897.8705	1598.1366	1704.3	814.8
898.0128	1599.9021	1682.9	792.7
898.1551	1601.6668	1673.5	782.5
898.2975	1603.4308	1664.15	772.3
898.4398	1605.194	1680.1	784.55
898.5821	1606.9564	1692.15	802.15
898.7243	1608.7182	1747.05	858.3
898.8666	1610.4791	1811.1	927.1
899.0088	1612.2394	1900.45	1015.9
899.1511	1613.9988	1982.75	1095.95
899.2933	1615.7576	2043.8	1156.95
899.4355	1617.5156	2055.55	1159.6
899.5776	1619.2728	2025.95	1133.55
899.7198	1621.0293	1938.2	1048.45
899.862	1622.785	1843.65	952.1
900.0041	1624.54	1738.1	845.75
900.1462	1626.2942	1636.2	745.95
900.2883	1628.0477	1557.95	668.75
900.4304	1629.8005	1491.05	598.95
900.5725	1631.5525	1437.65	550
900.7145	1633.3037	1394.15	507.45
900.8566	1635.0542	1357.95	471.1
900.9986	1636.804	1335.85	446.05
901.1406	1638.553	1416.7	418.9
901.2826	1640.3013	1291.1	401.4
901.4245	1642.0488	1277.6	390.3
901.5665	1643.7955	1262.2	376.2
901.7085	1645.5416	1254.65	367.75
901.8504	1647.2868	1247.7	362.05
901.9923	1649.0313	1235.65	347.85
902.1342	1650.7751	1239.95	347.75
902.2761	1652.5181	1235.75	347.15
902.4179	1654.2604	1231.6	342.5
902.5598	1656.0019	1236.8	348.95
902.7016	1657.7427	1246.65	357.05
902.8434	1659.4828	1267.05	376.55
902.9852	1661.222	1299.4	409.65
903.127	1662.9606	1325.7	436.6
903.2687	1664.6984	1344.7	457.35
903.4105	1666.4354	1338.1	446
903.5522	1668.1717	1316.25	427.65
903.6939	1669.9072	1286.1	395.35
903.8356	1671.642	1254.45	362.2
903.9773	1673.3761	1218.05	328.7
904.119	1675.1094	1195.1	304.7
904.2606	1676.8419	1177.7	286.75
904.4022	1678.5737	1166.7	276.55
904.5439	1680.3048	1161.45	270.35
904.6855	1682.0351	1156.15	266.5
904.827	1683.7646	1153.35	258.2
904.9686	1685.4934	1137.2	247.15
905.1101	1687.2215	1134.6	246.55
905.2517	1688.9488	1138.4	250.5
905.3932	1690.6754	1128.35	240.3
905.5347	1692.4012	1130.2	240.15
905.6761	1694.1263	1128.85	237.1
905.8176	1695.8506	1130.75	239.75
905.9591	1697.5742	1115.6	228.25
906.1005	1699.297	1118.65	230
906.2419	1701.0191	1114.7	229
906.3833	1702.7404	1110.3	223.85
906.5246	1704.461	1113.35	224.85
906.666	1706.1808	1113.7	223.7
906.8073	1707.8999	1103.4	212.95
906.9487	1709.6182	1106.55	221.3
907.09	1711.3358	1102.45	215.6
907.2313	1713.0527	1101.2	215.8
907.3725	1714.7688	1109.45	216.95
907.5138	1716.4841	1101.65	212.5
907.655	1718.1987	1105.25	214.5
907.7962	1719.9126	1095.65	210.55
907.9374	1721.6257	1099.6	212.15
908.0786	1723.338	1097.1	211.1
908.2198	1725.0496	1098.35	211.15
908.3609	1726.7605	1096.1	208.4
908.502	1728.4706	1093.8	207.45
908.6431	1730.18	1092	204.85
908.7842	1731.8886	1091.95	206.8
908.9253	1733.5964	1108.3	200.85
909.0664	1735.3036	1092.3	204.15
909.2074	1737.0099	1090.7	203.95
909.3484	1738.7156	1087.05	202.15
909.4894	1740.4204	1088.9	199.45
909.6304	1742.1246	1091.05	202.35
909.7714	1743.8279	1086.6	200.05
909.9123	1745.5306	1084.1	193.45
910.0532	1747.2325	1085.3	198.05
910.1941	1748.9336	1084.75	196.85
910.335	1750.634	1082.45	194.9
910.4759	1752.3336	1082.2	195.9
910.6168	1754.0325	1081.5	198.2
910.7576	1755.7307	1080.05	193.35
910.8984	1757.4281	1084	196.25
911.0392	1759.1247	1091.95	194.75
911.18	1760.8206	1088.5	194.05
911.3208	1762.5158	1087.7	196.25
911.4615	1764.2102	1078.7	191.95
911.6022	1765.9039	1078.8	193.05
911.7429	1767.5968	1076.3	190.25
911.8836	1769.289	1081.6	195.75
912.0243	1770.9804	1080.6	192.35
912.1649	1772.6711	1079.35	189.85
912.3056	1774.361	1081.65	192.4
912.4462	1776.0502	1075.95	188.2
912.5868	1777.7386	1083.4	193.8
912.7274	1779.4263	1078.8	192.35
912.8679	1781.1132	1074.7	188.65
913.0084	1782.7994	1073.75	187.05
913.149	1784.4849	1073.55	188.2
913.2895	1786.1696	1090.1	185.5
913.4299	1787.8535	1066.15	180.5
913.5704	1789.5367	1065.5	180
913.7108	1791.2192	1072.7	188.8
913.8513	1792.9009	1090.85	176.6
913.9917	1794.5818	1074.35	185.25
914.132	1796.2621	1071.45	186.05
914.2724	1797.9415	1072.1	183.85
914.4128	1799.6202	1069.2	183.35
914.5531	1801.2982	1066.6	178.9
914.6934	1802.9755	1063.65	173.7
914.8337	1804.6519	1068.1	181.7
914.9739	1806.3277	1066.35	176.75
915.1142	1808.0027	1064.8	182.6
915.2544	1809.6769	1061.05	174.45
915.3946	1811.3504	1063	178.8
915.5348	1813.0231	1058.05	173.7
915.675	1814.6951	1060.8	174.75
915.8151	1816.3664	1063.65	175.8
915.9553	1818.0369	1066.5	178.75
916.0954	1819.7067	1060.2	174.65
916.2355	1821.3757	1061.95	174.2
916.3755	1823.044	1062.25	175.25
916.5156	1824.7115	1057.2	168.35
916.6556	1826.3783	1058.15	171.85
916.7956	1828.0443	1058.45	173.05
916.9356	1829.7096	1054.9	167.25
917.0756	1831.3741	1065.1	175.4
917.2155	1833.0379	1056.3	169.85
917.3555	1834.701	1051.45	165.75
917.4954	1836.3633	1051.75	167.1
917.6353	1838.0248	1051.55	163.6
917.7751	1839.6856	1057.1	170.8
917.915	1841.3457	1056.9	171.45
918.0548	1843.005	1055.05	167.35
918.1946	1844.6636	1055.15	169.2
918.3344	1846.3214	1057.35	168.85
918.4742	1847.9785	1051.6	166.65
918.6139	1849.6349	1053.55	164.9
918.7537	1851.2904	1063.8	164
918.8934	1852.9453	1052.45	164.25
919.0331	1854.5994	1059.1	169
919.1727	1856.2528	1059.15	167.35
919.3124	1857.9054	1049.55	161.65
919.452	1859.5572	1048.65	160.9
919.5916	1861.2083	1052.8	163.65
919.7312	1862.8587	1046.3	158.8
919.8708	1864.5084	1055.55	166.55
920.0103	1866.1572	1049.7	161.9
920.1498	1867.8054	1048.5	159.5
920.2893	1869.4528	1048.8	158
920.4288	1871.0994	1048.25	161.95
920.5683	1872.7453	1047	159.8
920.7077	1874.3905	1051.25	156.5
920.8471	1876.0349	1047.4	158.4
920.9865	1877.6786	1049.25	161.3
921.1259	1879.3215	1042	153.85
921.2653	1880.9637	1045.9	156.4
921.4046	1882.6051	1046.55	160.1
921.5439	1884.2458	1049.65	161.4
921.6832	1885.8858	1044.25	155.8
921.8225	1887.525	1044.1	155.85
921.9617	1889.1634	1044.85	157.35
922.101	1890.8011	1046.45	158.95
922.2402	1892.4381	1039.3	151.3
922.3794	1894.0743	1039.5	152.85
922.5185	1895.7098	1039.75	153.1
922.6577	1897.3446	1038.2	150.7
922.7968	1898.9786	1045.8	152.65
922.9359	1900.6118	1040.05	155.85
923.075	1902.2443	1039.85	150.8
923.214	1903.8761	1041.4	152.95
923.3531	1905.5071	1039.7	151.95
923.4921	1907.1374	1040.25	151.95
923.6311	1908.7669	1035.8	147.35
923.77	1910.3957	1035.3	149.45
923.909	1912.0237	1033.85	147
924.0479	1913.651	1037.4	146.8
924.1868	1915.2776	1034.85	148.7
924.3257	1916.9034	1034.35	148.1
924.4646	1918.5285	1032.6	147.05
924.6034	1920.1528	1037.35	149.05
924.7422	1921.7764	1035.55	148.75
924.881	1923.3992	1037.45	150.25
925.0198	1925.0213	1035.05	149.6
925.1586	1926.6427	1032.95	147.55
925.2973	1928.2633	1237	144.95
925.436	1929.8832	1038.8	147.05
925.5747	1931.5023	1032.65	147.25
925.7134	1933.1207	1031.95	146.7
925.852	1934.7383	1030.25	142.3
925.9906	1936.3552	1028.9	144.95
926.1292	1937.9714	1031.9	145.8
926.2678	1939.5868	1031.95	144.4
926.4064	1941.2015	1029.35	140.1
926.5449	1942.8154	1028.55	141.2
926.6834	1944.4286	1027.35	139.3
926.8219	1946.041	1053.3	145.45
926.9604	1947.6528	1033.8	141.45
927.0988	1949.2637	1027.2	142.25
927.2372	1950.8739	1027.85	140.95
927.3756	1952.4834	1029.65	141.9
927.514	1954.0921	1026.1	138.05
927.6523	1955.7001	1026.95	136.45
927.7907	1957.3074	1023.45	137.75
927.929	1958.9139	1021.95	135.75
928.0673	1960.5197	1025.45	138.45
928.2055	1962.1247	1018.4	134.35
928.3438	1963.729	1016.45	134.25
928.482	1965.3325	1028.25	138.4
928.6202	1966.9353	1017.9	134.85
928.7584	1968.5374	1017.3	131.25
928.8965	1970.1387	1018.25	134.2
929.0346	1971.7393	1019.25	133.55
929.1727	1973.3392	1018.3	133
929.3108	1974.9383	1017.75	131.6
929.4489	1976.5366	1019.3	135.2
929.5869	1978.1342	1015	131.15
929.7249	1979.7311	1020.05	134.85
929.8629	1981.3273	1013.45	130.55
930.0009	1982.9227	1013.45	129.5
930.1388	1984.5173	1016	134.05
930.2767	1986.1112	1010.85	128.2
930.4146	1987.7044	1011.6	127.3
930.5525	1989.2968	1017.1	133.85
930.6904	1990.8885	1017.35	131.3
930.8282	1992.4795	1014.65	132.25
930.966	1994.0697	1011.75	129.65
931.1038	1995.6592	1009.9	128.6
931.2415	1997.2479	1012	129.25
931.3793	1998.8359	1010.4	128.1
931.517	2000.4232	1007.65	127
931.6547	2002.0097	1004.05	126.6
931.7923	2003.5955	1011.25	130.65
931.93	2005.1805	1014.1	131.6
932.0676	2006.7648	1009.2	127.4
932.2052	2008.3484	1009.95	129.35
932.3427	2009.9312	1012.85	131.65
932.4803	2011.5133	1003.3	123.35
932.6178	2013.0946	1009.4	131
932.7553	2014.6752	1002.15	120.85
932.8928	2016.2551	1009.4	127.8
933.0302	2017.8342	1005.55	125.15
933.1676	2019.4126	1005.2	126.25
933.305	2020.9902	1004.95	127.2
933.4424	2022.5672	1007.55	128.1
933.5798	2024.1433	1011.1	126.3
933.7171	2025.7188	1000.65	122.85
933.8544	2027.2935	1002.7	121.65
933.9917	2028.8674	1002.8	123.4
934.129	2030.4406	1002.25	125.55
934.2662	2032.0131	1001.35	125.15
934.4034	2033.5849	1005	121.4
934.5406	2035.1559	998.6	120.4
934.6778	2036.7261	1007.6	129.15
934.8149	2038.2957	1004.15	123.55
934.952	2039.8645	1002.95	123.3
935.0891	2041.4325	1008.25	123.45
935.2262	2042.9998	998.5	118.55
935.3632	2044.5664	1002.5	122.4
935.5002	2046.1323	1001.55	122.25
935.6372	2047.6974	1000.85	120.55
935.7742	2049.2617	1001.1	121.6
935.9111	2050.8254	1008.7	123.7
936.048	2052.3883	1002.5	121.7
936.1849	2053.9504	1004.75	122.9
936.3218	2055.5118	1003.15	120.1
936.4586	2057.0725	1003.8	117.8
936.5955	2058.6325	1004.9	124.25
936.7323	2060.1917	999.7	119.7
936.869	2061.7502	1007.65	126.4
937.0058	2063.3079	999.55	122.25
937.1425	2064.8649	1002.55	120.75
937.2792	2066.4212	1001.55	119.4
937.4159	2067.9767	1003.05	122.85
937.5525	2069.5315	998.4	118.95
937.6891	2071.0856	1003.25	124.75
937.8257	2072.6389	1003.1	122.3
937.9623	2074.1915	996.65	119.4
938.0989	2075.7433	1001.2	118.55
938.2354	2077.2945	1002.25	123.75
938.3719	2078.8448	1003	122.75
938.5084	2080.3945	997.55	116.95
938.6448	2081.9434	997.95	115.95
938.7812	2083.4916	1001.95	119.8
938.9176	2085.039	1000	116.1
939.054	2086.5857	1000.1	116.5
939.1903	2088.1317	1002.7	118.75
939.3267	2089.677	1002.05	118.35
939.463	2091.2215	1002.75	119.9
939.5992	2092.7652	1003.35	119
939.7355	2094.3083	998.95	116.15
939.8717	2095.8506	1003.3	123.25
940.0079	2097.3921	1001.25	119.65
940.1441	2098.933	1000.5	120.3
940.2802	2100.4731	1000.55	119.75
940.4163	2102.0124	1016.05	115.3
940.5524	2103.5511	1000.05	118
940.6885	2105.089	1005.2	121.7
940.8245	2106.6261	1000.45	117.6
940.9606	2108.1626	1003.35	121.45
941.0965	2109.6983	1030.3	119.15
941.2325	2111.2332	1000.05	117.85
941.3684	2112.7675	1001.35	117.6
941.5044	2114.301	1002.15	117.85
941.6403	2115.8337	999.5	115.05
941.7761	2117.3657	999.45	118.3
941.912	2118.897	1003	119.1
942.0478	2120.4276	1007.5	118.8
942.1835	2121.9575	997.95	116.5
942.3193	2123.4866	1002.75	118.6
942.455	2125.0149	1001.35	117.35
942.5907	2126.5426	996.9	117.05
942.7264	2128.0695	999.3	117.05
942.8621	2129.5956	991.9	112.2
942.9977	2131.1211	1000.45	115.35
943.1333	2132.6458	995.85	114.8
943.2689	2134.1698	1000.55	118.85
943.4044	2135.693	999.5	113.55
943.54	2137.2155	1001.1	115.35
943.6755	2138.7373	998.5	118.25
943.8109	2140.2584	996.35	112.8
943.9464	2141.7787	995.75	110.8
944.0818	2143.2983	992	115.25
944.2172	2144.8171	987.6	110.05
944.3526	2146.3353	999.4	118.7
944.4879	2147.8527	991.65	112.2
944.6232	2149.3693	998.95	118.9
944.7585	2150.8853	995.5	112.3
944.8938	2152.4005	996.45	113.95
945.029	2153.9149	994	110.85
945.1642	2155.4287	996.4	115.55
945.2994	2156.9417	994.65	111.2
945.4346	2158.454	992.35	109.6
945.5697	2159.9655	991.8	112.4
945.7048	2161.4764	994.95	113
945.8399	2162.9865	992.9	113.55
945.9749	2164.4958	995.45	115.95
946.1099	2166.0045	996.15	111.1
946.2449	2167.5124	993.85	116.25
946.3799	2169.0195	992.25	109.7
946.5148	2170.526	991.45	110.4
946.6498	2172.0317	992.05	111.5
946.7846	2173.5367	993	110.35
946.9195	2175.0409	991.6	112.95
947.0543	2176.5445	995.8	114.8
947.1891	2178.0473	997.45	114.65
947.3239	2179.5494	1000	113
947.4587	2181.0507	988.15	105.65
947.5934	2182.5513	991.1	109.45
947.7281	2184.0512	994.65	115
947.8628	2185.5504	994.5	112.5
947.9974	2187.0488	991.2	110.45
948.132	2188.5465	990	109.55
948.2666	2190.0435	989.4	108.65
948.4012	2191.5397	996.5	114.1
948.5357	2193.0353	989.05	109.85
948.6702	2194.5301	990.3	106.95
948.8047	2196.0241	994.65	111.4
948.9392	2197.5175	989.85	104.55
949.0736	2199.0101	990.4	102.6
949.208	2200.502	988.75	105.65
949.3424	2201.9931	988.4	107.25
949.4767	2203.4835	990.9	106.95
949.611	2204.9733	1006.65	108.85
949.7453	2206.4622	989	110.7
949.8796	2207.9505	986.55	104.05
950.0138	2209.438	988.3	111.55
950.148	2210.9248	988.25	105.7
950.2822	2212.4109	987.1	106.4
950.4164	2213.8962	988.9	104.35
950.5505	2215.3809	988.7	105.05
950.6846	2216.8648	988.45	103.35
950.8186	2218.3479	994.4	105.55
950.9527	2219.8304	991.6	108
951.0867	2221.3121	989.1	105.2
951.2207	2222.7931	987.15	104.3
951.3546	2224.2733	986.3	104.35
951.4886	2225.7529	986.15	104.1
951.6225	2227.2317	987.85	104.5
951.7563	2228.7098	983.1	103.3
951.8902	2230.1872	981.55	101.75
952.024	2231.6638	980.4	100.45
952.1578	2233.1397	986.95	100.35
952.2916	2234.6149	980.5	99.15
952.4253	2236.0894	987.95	106.2
952.559	2237.5632	989.9	99.85
952.6927	2239.0362	977.7	97.35
952.8263	2240.5085	981.9	100.45
952.9599	2241.9801	980.2	98.75
953.0935	2243.4509	981.95	101.2
953.2271	2244.921	980.5	97.9
953.3606	2246.3904	983.5	99.85
953.4941	2247.8591	978.75	98.2
953.6276	2249.3271	981.1	99.95
953.7611	2250.7943	978.8	95.1
953.8945	2252.2608	979.45	98.2
954.0279	2253.7266	978.45	95.8
954.1612	2255.1917	977.5	96.8
954.2946	2256.656	975.85	94.8
954.4279	2258.1197	980.2	99.4
954.5612	2259.5826	982.45	101.8
954.6944	2261.0447	978.35	95.25
954.8276	2262.5062	980.7	96.8
954.9608	2263.9669	977.35	93.85
955.094	2265.4269	976.9	93.9
955.2271	2266.8862	976.15	95.1
955.3602	2268.3448	975.15	94.8
955.4933	2269.8026	972.45	92.9
955.6264	2271.2598	976.95	96.55
955.7594	2272.7162	972.7	93.6
955.8924	2274.1719	976.35	93.3
956.0253	2275.6268	976.95	96.15
956.1583	2277.0811	977.95	97.15
956.2912	2278.5346	977.75	97.9
956.4241	2279.9874	974.6	94.15
956.5569	2281.4395	972.5	91.95
956.6897	2282.8908	981.4	96.3
956.8225	2284.3414	976.4	92.15
956.9553	2285.7914	973	92.75
957.088	2287.2406	977.5	93.25
957.2207	2288.689	975.6	94.6
957.3534	2290.1368	977.85	94.25
957.486	2291.5838	978.5	92.15
957.6186	2293.0302	976.55	91.65
957.7512	2294.4758	976.65	92.7
957.8838	2295.9206	978.8	95.05
958.0163	2297.3648	972.15	89.45
958.1488	2298.8082	972.2	88.45
958.2813	2300.251	969.5	86.7
958.4137	2301.693	973.7	88.8
958.5461	2303.1343	977.55	92.6
958.6785	2304.5748	970.65	89.35
958.8108	2306.0147	973.45	92.1
958.9432	2307.4538	974.35	91.85
959.0754	2308.8922	970.6	90.25
959.2077	2310.3299	972.4	91.4
959.3399	2311.7669	968.95	89.3
959.4721	2313.2031	971.25	89.15
959.6043	2314.6387	968.6	87.8
959.7365	2316.0735	971.6	90
959.8686	2317.5076	969.25	87.75
960.0006	2318.941	973.05	89.35
960.1327	2320.3737	971.65	88.65
960.2647	2321.8056	975.7	91.05
960.3967	2323.2369	974.15	92.55
960.5287	2324.6674	975.1	89.4
960.6606	2326.0972	976.45	93.95
960.7925	2327.5263	978.5	96.85
960.9244	2328.9547	979.45	97
961.0562	2330.3823	977.55	95.05
961.1881	2331.8092	981.35	95.45
961.3198	2333.2355	973.15	90.2
961.4516	2334.661	970.3	87
961.5833	2336.0858	971.8	87.9
961.715	2337.5098	971.1	88.85
961.8467	2338.9332	965.85	83.85
961.9783	2340.3558	971.75	88
962.1099	2341.7778	964.2	83.05
962.2415	2343.199	970.9	87.7
962.373	2344.6195	966.65	86.05
962.5045	2346.0393	963	83.35
962.636	2347.4583	967	84.1
962.7675	2348.8767	966.45	82.55
962.8989	2350.2943	968.8	85.1
963.0303	2351.7113	970.2	83.9
963.1617	2353.1275	970.4	87.25
963.293	2354.543	992.45	82.35
963.4243	2355.9578	971.85	87.6
963.5556	2357.3718	967.05	86.45
963.6868	2358.7852	966.55	82.15
963.818	2360.1978	965.7	81.8
963.9492	2361.6098	964.7	83.8
964.0803	2363.021	968.35	81.5
964.2114	2364.4315	966.45	83.8
964.3425	2365.8413	968.9	81
964.4736	2367.2504	963.25	83.25
964.6046	2368.6587	962.1	79.3
964.7356	2370.0664	963.35	79.5
964.8666	2371.4733	964.1	81.95
964.9975	2372.8795	961.7	77.2
965.1284	2374.285	963.6	78.3
965.2593	2375.6899	960.45	77.45
965.3901	2377.0939	964.95	80.45
965.5209	2378.4973	961.25	78.85
965.6517	2379.9	964.4	80.9
965.7825	2381.3019	959.75	78.05
965.9132	2382.7032	965.35	83.6
966.0439	2384.1037	963.35	82.6
966.1745	2385.5035	962.35	80.65
966.3051	2386.9027	959.45	78.8
966.4357	2388.3011	965.4	78.25
966.5663	2389.6987	960.9	78.45
966.6968	2391.0957	960.85	79.95
966.8273	2392.492	956.9	73.9
966.9578	2393.8876	963.95	78.35
967.0882	2395.2824	959.25	77.95
967.2186	2396.6765	960.2	76.8
967.349	2398.07	962.7	79.15
967.4793	2399.4627	960.95	73.75
967.6097	2400.8547	962.85	77.2
967.7399	2402.246	969	79.2
967.8702	2403.6366	959.45	74.95
968.0004	2405.0265	959.35	75.9
968.1306	2406.4156	964.45	76.85
968.2607	2407.8041	960.4	73.05
968.3909	2409.1918	960.85	72.85
968.521	2410.5789	963.35	78.75
968.651	2411.9652	959.9	71.9
968.781	2413.3508	959	74.85
968.911	2414.7358	959.7	74.35
969.041	2416.12	953.5	68.35
969.1709	2417.5035	957.5	73.1
969.3008	2418.8863	958.8	72.85
969.4307	2420.2684	957.1	74.25
969.5606	2421.6497	960	74.8
969.6904	2423.0304	956.6	73.7
969.8201	2424.4104	959.35	71.95
969.9499	2425.7896	962.3	72.2
970.0796	2427.1682	961.8	77.5
970.2093	2428.546	955.7	70.7
970.3389	2429.9232	955.2	70
970.4685	2431.2996	957.75	73.55
970.5981	2432.6753	955.65	72.1
970.7277	2434.0503	956.45	70.8
970.8572	2435.4246	954.85	72.65
970.9867	2436.7982	958.25	70.2
971.1161	2438.1711	955.8	72.55
971.2456	2439.5433	957.9	71.65
971.375	2440.9148	953	68.7
971.5043	2442.2856	950.85	67.65
971.6336	2443.6557	957.8	73.5
971.7629	2445.025	952.25	67
971.8922	2446.3937	954.1	70.95
972.0214	2447.7617	955.3	70.9
972.1506	2449.1289	954.1	69.2
972.2798	2450.4955	956.4	68.45
972.4089	2451.8613	954.2	70.1
972.538	2453.2265	951.45	65.75
972.6671	2454.5909	953.95	70.2
972.7961	2455.9546	949.1	65.55
972.9251	2457.3177	950.35	67.55
973.0541	2458.68	952.15	65.55
973.1831	2460.0416	951.8	67.35
973.312	2461.4025	953.4	70.3
973.4408	2462.7627	956.9	63.65
973.5697	2464.1222	946.9	67.1
973.6985	2465.4811	949.75	65.55
973.8273	2466.8392	951.05	65.85
973.956	2468.1966	954.4	68.7
974.0847	2469.5533	951.9	65.25
974.2134	2470.9093	950.7	67.8
974.3421	2472.2645	950.95	66.9
974.4707	2473.6191	948.8	66.5
974.5993	2474.973	945.35	63.55
974.7278	2476.3262	953.1	69.3
974.8563	2477.6787	948.45	68.8
974.9848	2479.0305	948.6	66.75
975.1132	2480.3816	951.95	66.4
975.2417	2481.7319	949.3	64.85
975.37	2483.0816	949.55	64.55
975.4984	2484.4306	949.85	67.05
975.6267	2485.7789	949.1	67.75
975.755	2487.1264	952.05	67.45
975.8833	2488.4733	948.65	65.5
976.0115	2489.8195	956.95	67.55
976.1397	2491.165	950.85	68.8
976.2678	2492.5097	947.1	61.75
976.3959	2493.8538	946.1	62.95
976.524	2495.1972	945.8	63.25
976.6521	2496.5398	945.75	61.15
976.7801	2497.8818	949.05	62.6
976.9081	2499.2231	950.2	67.05
977.036	2500.5637	946.35	59.25
977.164	2501.9035	945.15	61.3
977.2918	2503.2427	950.85	62.45
977.4197	2504.5812	944	62.9
977.5475	2505.919	950	65.4
977.6753	2507.256	946.45	64.1
977.8031	2508.5924	946.45	64.85
977.9308	2509.9281	955.85	65.35
978.0585	2511.2631	943.45	61.85
978.1861	2512.5974	946	64.75
978.3137	2513.9309	944.25	61.55
978.4413	2515.2638	970.85	63.1
978.5689	2516.596	945.15	62.15
978.6964	2517.9275	943.6	58.45
978.8239	2519.2583	945.8	61.6
978.9513	2520.5884	944.35	59.5
979.0788	2521.9178	942.1	61.15
979.2062	2523.2465	946.45	65.2
979.3335	2524.5745	942.6	61.2
979.4608	2525.9018	943.9	61.8
979.5881	2527.2284	941.2	59.6
979.7154	2528.5543	940.7	58.55
979.8426	2529.8796	941.1	56
979.9698	2531.2041	942.75	58.45
980.0969	2532.5279	938.75	57.9
980.224	2533.851	941.55	59.95
980.3511	2535.1735	940.1	58.8
980.4781	2536.4952	942.85	58.25
980.6052	2537.8163	945	62.95
980.7321	2539.1366	941.4	58.85
980.8591	2540.4562	941.9	58.05
980.986	2541.7752	941.7	59.9
981.1129	2543.0935	939.35	57.25
981.2397	2544.411	941.15	55.55
981.3665	2545.7279	941.5	61.65
981.4933	2547.0441	940.65	56.45
981.62	2548.3596	943.15	59.45
981.7467	2549.6744	940.3	58.6
981.8734	2550.9885	949.8	58.35
982.0001	2552.3019	941.35	59.65
982.1267	2553.6146	937.85	55.15
982.2532	2554.9266	939.9	57.75
982.3798	2556.2379	941.3	56.25
982.5063	2557.5485	938	57.1
982.6327	2558.8585	947.4	57.85
982.7592	2560.1677	943.55	58.6
982.8856	2561.4762	942.15	60.25
983.0119	2562.7841	942.6	58.45
983.1383	2564.0913	939.8	58.25
983.2646	2565.3977	939.45	57.4
983.3908	2566.7035	939	55.65
983.517	2568.0086	940.4	57.3
983.6432	2569.313	939.9	57.75
983.7694	2570.6167	941.8	55.6
983.8955	2571.9197	939	57.55
984.0216	2573.222	941.15	53.55
984.1476	2574.5236	940.35	56.65
984.2737	2575.8246	940	53.9
984.3996	2577.1248	939.25	53.3
984.5256	2578.4244	936.2	53.2
984.6515	2579.7232	938.8	57.35
984.7774	2581.0214	966.1	58.15
984.9032	2582.3189	937.85	57.95
985.029	2583.6157	942.45	55.5
985.1548	2584.9118	937.55	54.25
985.2806	2586.2072	938.9	55.8
985.4063	2587.5019	938.05	56.8
985.5319	2588.7959	936.7	54.3
985.6576	2590.0893	939.8	55.9
985.7832	2591.3819	938.2	56.35
985.9087	2592.6739	939	58.3
986.0343	2593.9652	940.6	55.55
986.1597	2595.2557	941.25	58.8
986.2852	2596.5456	942.85	57.7
986.4106	2597.8348	937.1	53.55
986.536	2599.1234	938.3	56.75
986.6614	2600.4112	938.3	54.55
986.7867	2601.6983	940.65	56.4
986.912	2602.9848	938.7	56.4
987.0372	2604.2705	944.4	57.3
987.1624	2605.5556	938.5	55.3
987.2876	2606.84	936.95	56.3
987.4128	2608.1237	938.05	55.9
987.5379	2609.4067	934.4	50.85
987.6629	2610.689	944.9	54.15
987.788	2611.9707	941.05	56.25
987.913	2613.2516	938.5	49.75
988.0379	2614.5319	934.2	52.95
988.1629	2615.8115	936.55	53.35
988.2878	2617.0903	937.45	54.9
988.4126	2618.3685	934.9	52.8
988.5375	2619.6461	936.6	55.5
988.6622	2620.9229	936	53.55
988.787	2622.199	933	49.7
988.9117	2623.4745	933.95	49.15
989.0364	2624.7493	932.3	49.2
989.161	2626.0234	933.6	53.1
989.2857	2627.2968	936.1	53.2
989.4102	2628.5695	936.4	50.8
989.5348	2629.8415	932.4	51.5
989.6593	2631.1128	936.4	52
989.7837	2632.3835	932.55	50.6
989.9082	2633.6535	931.35	51.2
990.0326	2634.9228	931.5	50.1
990.1569	2636.1914	931.45	49.3
990.2812	2637.4593	936.05	45.45
990.4055	2638.7265	933.15	49
990.5298	2639.9931	931.8	50.25
990.654	2641.259	933.55	49.95
990.7782	2642.5242	932.85	50.65
990.9023	2643.7887	931.3	49.15
991.0264	2645.0525	929.05	49.65
991.1505	2646.3156	930.4	47.8
991.2745	2647.5781	931.65	50.55
991.3985	2648.8398	929.1	47.7
991.5225	2650.1009	938.1	45.15
991.6464	2651.3613	928.4	47.25
991.7703	2652.6211	932.9	51.15
991.8942	2653.8801	928.2	46.8
992.018	2655.1385	930.9	45.55
992.1418	2656.3961	932.2	51.3
992.2655	2657.6531	928.6	46.6
992.3892	2658.9094	929.3	45.8
992.5129	2660.1651	929.5	46.35
992.6366	2661.42	927.5	45.75
992.7602	2662.6743	928.55	45.35
992.8837	2663.9279	928.7	47.7
993.0073	2665.1808	930.6	48.25
993.1307	2666.433	931.3	47.35
993.2542	2667.6846	929.75	50.05
993.3776	2668.9354	932	48.45
993.501	2670.1856	930.3	46.85
993.6244	2671.4351	927.15	46.85
993.7477	2672.6839	932.65	50.75
993.8709	2673.9321	927.65	48.45
993.9942	2675.1795	929.45	47.15
994.1174	2676.4263	932.4	53.65
994.2405	2677.6724	929.65	47.15
994.3637	2678.9179	930.35	49.15
994.4868	2680.1626	929.75	46
994.6098	2681.4067	929.2	48.05
994.7328	2682.6501	931.1	48.9
994.8558	2683.8928	929.85	48.8
994.9788	2685.1348	927.5	45.45
995.1017	2686.3761	929.35	48.95
995.2245	2687.6168	926.65	45.85
995.3474	2688.8568	926.55	45.7
995.4702	2690.0961	922.8	39.95
995.5929	2691.3348	927.25	45.15
995.7156	2692.5727	926.6	43.9
995.8383	2693.81	927.15	45.35
995.961	2695.0466	922.05	41.85
996.0836	2696.2826	928.05	44.45
996.2062	2697.5178	928.2	43.45
996.3287	2698.7524	927.75	44.6
996.4512	2699.9863	929.5	47.45
996.5737	2701.2195	925.45	45.4
996.6961	2702.452	929.05	46.5
996.8185	2703.6839	927.4	45.75
996.9408	2704.9151	925.8	45.4
997.0631	2706.1456	926.9	44.15
997.1854	2707.3755	929.55	45.45
997.3077	2708.6046	931.2	47.85
997.4299	2709.8331	927.75	45.9
997.552	2711.0609	928.8	46.95
997.6742	2712.2881	929.05	48.9
997.7963	2713.5145	932	48.45
997.9183	2714.7403	927.9	48.4
998.0403	2715.9654	929.8	47.55
998.1623	2717.1899	945.4	49.65
998.2842	2718.4136	931.65	50.85
998.4062	2719.6367	931.45	50.05
998.528	2720.8591	941.35	51.65
998.6498	2722.0809	938.15	56.15
998.7716	2723.3019	938.3	54.6
998.8934	2724.5223	939.25	57.5
999.0151	2725.7421	938.2	56.2
999.1368	2726.9611	937.4	54.1
999.2584	2728.1795	935.2	49.25
999.38	2729.3972	930.45	49.1
999.5016	2730.6142	938.8	49.6
999.6231	2731.8306	931.55	51.1
999.7446	2733.0462	930.7	48.35
999.8661	2734.2612	932.25	46.3
999.9875	2735.4756	928.55	45
1000.1089	2736.6892	927.6	47.65
1000.2302	2737.9022	929.4	50.4
1000.3515	2739.1145	924	40.3
1000.4728	2740.3262	933.4	44.6
1000.594	2741.5372	923.55	42.05
1000.7152	2742.7475	925.95	45.2
1000.8363	2743.9571	924.6	41.55
1000.9575	2745.1661	926.9	43.2
1001.0785	2746.3744	921.35	40.3
1001.1996	2747.582	921.9	40.7
1001.3206	2748.7889	923.55	40.9
1001.4415	2749.9952	917.85	37.25
1001.5625	2751.2008	922.3	40.15
1001.6833	2752.4057	922.4	41.4
1001.8042	2753.61	921.25	37.7
1001.925	2754.8136	920.7	36.2
1002.0458	2756.0165	920.85	40.3
1002.1665	2757.2188	917.15	39.1
1002.2872	2758.4204	919.75	39.65
1002.4078	2759.6213	920.85	36.65
1002.5285	2760.8215	919.45	35.7
1002.649	2762.0211	918.45	35.05
1002.7696	2763.22	921	38.4
1002.8901	2764.4182	921.6	39.15
1003.0106	2765.6158	917.65	38
1003.131	2766.8127	918	36.45
1003.2514	2768.009	918.2	35.9
1003.3717	2769.2045	916.85	35.05
1003.492	2770.3994	923.5	42
1003.6123	2771.5936	918.85	37.5
1003.7325	2772.7872	916.55	33.6
1003.8527	2773.9801	917.1	33.35
1003.9729	2775.1723	933.9	35.85
1004.093	2776.3639	917.2	37.25
1004.2131	2777.5548	918.55	35.55
1004.3331	2778.745	915.2	33.95
1004.4531	2779.9346	915.85	34.15
1004.5731	2781.1235	917.55	35.2
1004.693	2782.3117	912.2	34.5
1004.8129	2783.4992	915.45	36.65
1004.9328	2784.6861	916.6	35.75
1005.0526	2785.8723	918.85	37.3
1005.1723	2787.0579	917	35.85
1005.2921	2788.2428	918.2	38.55
1005.4118	2789.427	915.85	34.8
1005.5314	2790.6106	915.8	36.6
1005.651	2791.7935	916.65	37
1005.7706	2792.9757	914	35.7
1005.8902	2794.1573	918.3	36.35
1006.0097	2795.3382	914.85	34.95
1006.1291	2796.5184	916.8	37.65
1006.2485	2797.698	919.25	37.85
1006.3679	2798.8769	917.95	37.9
1006.4873	2800.0551	915.5	35.35
1006.6066	2801.2327	920.75	37.55
1006.7258	2802.4096	914.85	35.55
1006.8451	2803.5859	920.1	40.3
1006.9642	2804.7615	918.3	36.9
1007.0834	2805.9364	918.15	40.85
1007.2025	2807.1106	918.05	39.65
1007.3216	2808.2842	921.7	41.3
1007.4406	2809.4572	921.85	41.15
1007.5596	2810.6294	925.25	46.05
1007.6785	2811.801	922.5	42.25
1007.7975	2812.972	924.25	44.9
1007.9163	2814.1423	926.8	46.25
1008.0352	2815.3119	927.15	48.45
1008.154	2816.4808	928.15	50.3
1008.2727	2817.6491	932.65	51.15
1008.3914	2818.8167	935.9	58.15
1008.5101	2819.9837	945.5	59.75
1008.6288	2821.15	940.2	61.7
1008.7474	2822.3157	947.05	68.8
1008.8659	2823.4807	956.75	78.35
1008.9844	2824.645	962.1	81.65
1009.1029	2825.8086	967.65	87.1
1009.2214	2826.9716	972.05	93.9
1009.3398	2828.134	977.35	97.6
1009.4581	2829.2957	988.1	108
1009.5764	2830.4567	989	110.85
1009.6947	2831.617	992.7	112.6
1009.813	2832.7767	994.9	114.2
1009.9312	2833.9358	994.75	115.45
1010.0493	2835.0941	1002.3	118.95
1010.1675	2836.2519	994.4	114.4
1010.2855	2837.4089	989.3	108.5
1010.4036	2838.5653	985.75	106.65
1010.5216	2839.7211	983.8	105.75
1010.6396	2840.8761	980.2	97.5
1010.7575	2842.0306	978.15	98.7
1010.8754	2843.1843	978.1	98.6
1010.9932	2844.3374	979.6	101.95
1011.111	2845.4899	985.2	104.3
1011.2288	2846.6417	987.75	105.9
1011.3465	2847.7928	985.4	107.25
1011.4642	2848.9433	985.5	104.85
1011.5818	2850.0931	987.6	109.3
1011.6995	2851.2422	990.2	108.35
1011.817	2852.3907	994.25	113.25
1011.9345	2853.5385	991.7	111.6
1012.052	2854.6857	1019.05	113.55
1012.1695	2855.8323	991.95	113.5
1012.2869	2856.9781	997	116.9
1012.4042	2858.1233	999.1	119.25
1012.5216	2859.2679	1001.6	125.25
1012.6389	2860.4118	1006.85	127.25
1012.7561	2861.555	1012.8	129.3
1012.8733	2862.6976	1012.25	131.65
1012.9905	2863.8395	1012.3	131.4
1013.1076	2864.9808	1015.4	137.95
1013.2247	2866.1214	1014.1	137.8
1013.3417	2867.2614	1017.15	135.35
1013.4587	2868.4007	1017.85	136.9
1013.5757	2869.5393	1020.1	138.9
1013.6926	2870.6773	1021.9	138.25
1013.8095	2871.8146	1023.65	139.5
1013.9263	2872.9513	1027.95	144.45
1014.0431	2874.0874	1024	142.85
1014.1599	2875.2227	1027	145.85
1014.2766	2876.3574	1026.35	145.9
1014.3933	2877.4915	1030.3	149.2
1014.51	2878.6249	1033.5	154.9
1014.6266	2879.7577	1035.9	156.3
1014.7431	2880.8898	1042.95	154.4
1014.8596	2882.0212	1035.25	157.75
1014.9761	2883.152	1035.45	155.5
1015.0925	2884.2821	1036.75	157.7
1015.2089	2885.4116	1038.35	158.1
1015.3253	2886.5405	1042.6	162.35
1015.4416	2887.6686	1050.4	168.15
1015.5579	2888.7962	1046.95	168.2
1015.6741	2889.923	1047.85	168.15
1015.7903	2891.0493	1040.5	162.1
1015.9065	2892.1748	1037.15	157.95
1016.0226	2893.2997	1041.35	161.95
1016.1387	2894.424	1042.15	163.2
1016.2547	2895.5476	1045.5	165.9
1016.3707	2896.6706	1044.4	165.95
1016.4866	2897.7929	1045.15	165.95
1016.6025	2898.9145	1044.25	165.8
1016.7184	2900.0355	1042.85	160.9
1016.8342	2901.1559	1043.8	164.55
1016.95	2902.2756	1050.9	165.65
1017.0658	2903.3946	1041.05	162.25
1017.1815	2904.513	1045.2	163.5
1017.2971	2905.6308	1042.15	163.8
1017.4127	2906.7479	1043.4	162.3
1017.5283	2907.8643	1045.55	166.3
1017.6439	2908.9801	1043.8	163.15
1017.7594	2910.0953	1045.4	165.8
1017.8748	2911.2098	1042.95	160.55
1017.9902	2912.3236	1050.15	163.3
1018.1056	2913.4368	1039.55	156.95
1018.2209	2914.5494	1041.55	163.25
1018.3362	2915.6613	1048.4	163.55
1018.4515	2916.7725	1037.7	156.1
1018.5667	2917.8831	1034.95	155
1018.6819	2918.9931	1035.7	154.15
1018.797	2920.1024	1029.5	149.25
1018.9121	2921.211	1028.25	148.75
1019.0271	2922.319	1029.55	149.4
1019.1421	2923.4264	1024.7	146.4
1019.2571	2924.5331	1023	146.25
1019.372	2925.6391	1021.3	141.9
1019.4869	2926.7445	1026.3	149.3
1019.6017	2927.8493	1028.05	148.75
1019.7165	2928.9534	1027.2	149.7
1019.8313	2930.0569	1028.6	147.7
1019.946	2931.1597	1031.7	152
1020.0606	2932.2619	1031	151.5
1020.1753	2933.3634	1027.8	148.5
1020.2899	2934.4643	1036.95	152.2
1020.4044	2935.5645	1037.95	153.8
1020.5189	2936.6641	1040.1	155.05
1020.6334	2937.763	1033.6	156.35
1020.7478	2938.8613	1029.05	151
1020.8622	2939.959	1035.35	152.3
1020.9765	2941.056	1024.35	145.85
1021.0908	2942.1523	1022.45	142.6
1021.2051	2943.248	1016.7	137.8
1021.3193	2944.3431	1005.55	127.8
1021.4334	2945.4375	1001.1	120.7
1021.5476	2946.5313	993.6	116.05
1021.6617	2947.6244	988.55	112.55
1021.7757	2948.7169	983.6	103.9
1021.8897	2949.8087	981.1	104.25
1022.0037	2950.8999	971.4	93.3
1022.1176	2951.9904	965.5	87.8
1022.2315	2953.0803	962.75	82.5
1022.3453	2954.1696	961.75	81.95
1022.4591	2955.2582	955.5	78.3
1022.5728	2956.3462	956.3	78.75
1022.6865	2957.4335	956.15	76.45
1022.8002	2958.5202	952.4	74.1
1022.9138	2959.6062	955.3	76.2
1023.0274	2960.6916	953.25	75.3
1023.141	2961.7764	954.35	74
1023.2545	2962.8605	958.4	78.75
1023.3679	2963.9439	950.15	72.95
1023.4813	2965.0267	954.9	77.3
1023.5947	2966.1089	973.95	74.45
1023.708	2967.1905	951.8	75.1
1023.8213	2968.2714	950	72.25
1023.9346	2969.3516	949.4	71.75
1024.0478	2970.4312	956.5	72.1
1024.1609	2971.5102	948.5	70.95
1024.274	2972.5885	948.7	68.75
1024.3871	2973.6662	956	72.25
1024.5002	2974.7432	948.7	70.45
1024.6132	2975.8196	951.7	73.7
1024.7261	2976.8954	949.1	70.5
1024.839	2977.9705	950.45	72.2
1024.9519	2979.045	947.05	69.95
1025.0647	2980.1188	946.2	68.45
1025.1775	2981.192	947	69.4
1025.2902	2982.2645	950.3	70.75
1025.4029	2983.3364	947.25	69.45
1025.5156	2984.4077	944.95	65.8
1025.6282	2985.4783	948.45	62.7
1025.7407	2986.5483	941.1	64.2
1025.8532	2987.6177	935.65	58
1025.9657	2988.6864	936.9	58.8
1026.0782	2989.7545	934.7	55.4
1026.1906	2990.8219	932.45	54.05
1026.3029	2991.8887	932.45	52.9
1026.4152	2992.9548	930.25	53.05
1026.5275	2994.0204	924.95	47.2
1026.6397	2995.0852	922.65	44.75
1026.7519	2996.1495	920.3	39.9
1026.864	2997.2131	920.5	42.85
1026.9761	2998.276	917.3	40.45
1027.0882	2999.3383	917.05	35.9
1027.2002	3000.4	914.1	35.85
1027.3122	3001.4611	911.05	34.75
1027.4241	3002.5215	910.45	32.7
1027.536	3003.5812	908.15	30.7
1027.6478	3004.6404	908.25	29.45
1027.7596	3005.6989	910.05	29.7
1027.8714	3006.7567	906.4	29.4
1027.9831	3007.8139	937.65	28.35
1028.0947	3008.8705	904.05	27.2
1028.2064	3009.9264	907.9	26.75
1028.3179	3010.9818	904.95	28.4
1028.4295	3012.0364	906.45	28.65
1028.541	3013.0905	903.8	26.45
1028.6524	3014.1439	902.75	25.55
1028.7638	3015.1966	902.95	23.55
1028.8752	3016.2487	902.1	26.45
1028.9865	3017.3002	905.55	23.85
1029.0978	3018.3511	901.75	24.55
1029.209	3019.4013	901.9	24.45
1029.3202	3020.4509	900.95	24.05
1029.4314	3021.4998	900.2	20.7
1029.5425	3022.5481	902.85	24.15
1029.6535	3023.5958	900.05	21.2
1029.7645	3024.6428	903.45	24.25
1029.8755	3025.6892	903.05	26.8
1029.9864	3026.735	901	25.1
1030.0973	3027.7802	901.7	23.6
1030.2082	3028.8247	900.3	22.05
1030.319	3029.8685	900.7	22.6
1030.4297	3030.9118	900.35	21.95
1030.5404	3031.9544	898.9	22.55
1030.6511	3032.9963	899	21.45
1030.7617	3034.0376	900.75	20.6
1030.8723	3035.0783	903.75	24.05
1030.9829	3036.1184	902.5	24.5
1031.0934	3037.1578	900.15	23.35
1031.2038	3038.1966	902.6	23.7
1031.3142	3039.2348	899.35	23.4
1031.4246	3040.2723	909	23.35
1031.5349	3041.3092	900	24.6
1031.6452	3042.3455	900.3	21.7
1031.7554	3043.3811	901.05	21.6
1031.8656	3044.4161	900.45	21.15
1031.9758	3045.4505	899.25	23.35
1032.0859	3046.4842	899.7	21.8
1032.1959	3047.5173	902.2	24.9
1032.3059	3048.5498	903.1	25.65
1032.4159	3049.5816	900.35	22.2
1032.5258	3050.6128	904	26.35
1032.6357	3051.6434	903.6	23.35
1032.7455	3052.6734	901.05	20.8
1032.8553	3053.7027	899.35	20.8
1032.9651	3054.7314	900.95	24.6
1033.0748	3055.7594	898.95	21.8
1033.1845	3056.7868	902.55	24.85
1033.2941	3057.8136	897.7	22.15
1033.4037	3058.8398	900.85	24.65
1033.5132	3059.8653	902.25	23.7
1033.6227	3060.8902	899.85	21.7
1033.7321	3061.9145	901.4	21.25
1033.8415	3062.9381	902.75	24.3
1033.9509	3063.9612	915.7	21.6
1034.0602	3064.9835	903.1	26.1
1034.1694	3066.0053	904.55	26
1034.2787	3067.0264	903.35	26.95
1034.3878	3068.0469	903.15	23.95
1034.497	3069.0668	905.9	26.05
1034.6061	3070.086	898.95	21.95
1034.7151	3071.1046	900.95	23.2
1034.8241	3072.1226	902.25	22.2
1034.9331	3073.1399	901.9	24.6
1035.042	3074.1567	900.05	22.95
1035.1508	3075.1727	902.8	22.95
1035.2597	3076.1882	900.05	24.05
1035.3684	3077.203	899.4	21.3
1035.4772	3078.2173	901.2	22.25
1035.5859	3079.2308	901.5	20.5
1035.6945	3080.2438	901.5	22.25
1035.8031	3081.2561	896.35	18.25
1035.9117	3082.2678	896	19.05
1036.0202	3083.2789	899	20.7
1036.1286	3084.2893	896.85	20.55
1036.2371	3085.2991	896.4	18.3
1036.3454	3086.3083	899.5	16.1
1036.4538	3087.3169	898.2	20.3
1036.562	3088.3248	897.75	16.75
1036.6703	3089.3321	897.85	19.1
1036.7785	3090.3388	892.35	15.05
1036.8866	3091.3449	893.85	16.1
1036.9948	3092.3503	897.9	17.8
1037.1028	3093.3551	893.2	17
1037.2108	3094.3593	893.5	16.25
1037.3188	3095.3629	893.05	16.6
1037.4267	3096.3658	893.55	11.45
1037.5346	3097.3681	893.55	16.85
1037.6425	3098.3698	895.2	15.65
1037.7503	3099.3708	895.85	17.3
1037.858	3100.3713	894.65	17.95
1037.9657	3101.3711	892.75	15.4
1038.0734	3102.3702	1027.2	13.3
1038.181	3103.3688	895.3	15.3
1038.2886	3104.3667	891	13.05
1038.3961	3105.364	891.6	15.05
1038.5036	3106.3607	893.75	13.9
1038.611	3107.3568	893.8	15.05
1038.7184	3108.3522	892.5	16.2
1038.8257	3109.347	893	13.65
1038.933	3110.3412	894.65	12.8
1039.0403	3111.3348	890.75	12
1039.1475	3112.3277	890.4	15.2
1039.2547	3113.32	890.2	13.8
1039.3618	3114.3117	890.2	10.55
1039.4689	3115.3028	889.5	12.4
1039.5759	3116.2932	890.75	10.35
1039.6829	3117.2831	896.3	14.45
1039.7898	3118.2723	889	12.5
1039.8967	3119.2608	888.75	11.1
1040.0035	3120.2488	887.7	10.1
1040.1103	3121.2361	889.1	12.05
1040.2171	3122.2229	889.25	11.7
1040.3238	3123.209	888.4	10.95
1040.4305	3124.1944	889	11.1
1040.5371	3125.1793	891.1	12.8
1040.6437	3126.1635	889.8	13.4
1040.7502	3127.1471	887.25	9.4
1040.8567	3128.1301	887.2	10.9
1040.9631	3129.1125	890.3	13.75
1041.0695	3130.0942	888.15	12.2
1041.1759	3131.0753	895.9	8.7
1041.2822	3132.0558	893.3	13.3
1041.3884	3133.0357	890.95	11.5
1041.4946	3134.015	888.7	9.1
1041.6008	3134.9936	886.3	7.5
1041.7069	3135.9716	909.85	9.8
1041.813	3136.949	886.55	10.8
1041.919	3137.9258	902.8	6.8
1042.025	3138.902	893.35	10.5
1042.1309	3139.8775	885	6.9
1042.2368	3140.8524	889.25	11.5
1042.3427	3141.8267	886.55	9.8
1042.4485	3142.8004	887.25	10.8
1042.5542	3143.7735	893.1	9.05
1042.6599	3144.7459	888.55	11.45
1042.7656	3145.7178	888.3	9.85
1042.8712	3146.689	885.2	8.15
1042.9768	3147.6596	887.75	11.15
1043.0823	3148.6295	886.05	5.95
1043.1878	3149.5989	886.55	8.2
1043.2932	3150.5676	884.15	7.55
1043.3986	3151.5357	884.55	7.3
1043.5039	3152.5032	885.65	8.8
1043.6092	3153.4701	888.3	9.4
1043.7145	3154.4364	888.6	8.1
1043.8197	3155.402	884.5	9.15
1043.9248	3156.367	887.35	7.5
1044.03	3157.3315	927.75	8.55
1044.135	3158.2952	883.95	5.2
1044.24	3159.2584	884.95	7.5
1044.345	3160.221	884.5	5.55
1044.4499	3161.1829	884.05	6.45
1044.5548	3162.1442	884.35	6
1044.6596	3163.105	885.3	8.4
1044.7644	3164.065	885.8	8.25
1044.8692	3165.0245	888	7.85
1044.9739	3165.9834	883.45	7.55
1045.0785	3166.9416	885.8	8.05
1045.1831	3167.8993	884.55	6.3
1045.2877	3168.8563	886.25	8.75
1045.3922	3169.8127	883.95	6.7
1045.4966	3170.7684	886.45	11.25
1045.6011	3171.7236	885.2	6.9
1045.7054	3172.6782	884.45	7.25
1045.8098	3173.6321	884.75	7.35
1045.914	3174.5854	888.8	6.85
1046.0183	3175.5381	886.05	8.55
1046.1224	3176.4902	885.3	9.2
1046.2266	3177.4417	881.55	3.1
1046.3307	3178.3926	885.15	9.05
1046.4347	3179.3428	883	7
1046.5387	3180.2924	885.45	10.45
1046.6427	3181.2415	883.85	5.35
1046.7466	3182.1899	887.85	11.15
1046.8504	3183.1377	883.55	6.6
1046.9542	3184.0848	888.4	6.8
1047.058	3185.0314	886.65	9.5
1047.1617	3185.9773	885.35	6.75
1047.2654	3186.9227	883.55	7
1047.369	3187.8674	882.9	4.4
1047.4726	3188.8115	888.9	9.05
1047.5761	3189.755	884.6	8.2
1047.6796	3190.6979	883.65	5.8
1047.783	3191.6402	881.45	5.3
1047.8864	3192.5818	884.1	7.85
1047.9898	3193.5229	895.8	7.2
1048.0931	3194.4633	884.2	8.6
1048.1963	3195.4031	883.7	6.25
1048.2995	3196.3423	883.75	5.9
1048.4027	3197.2809	882.5	4.15
1048.5058	3198.2189	884.1	5.15
1048.6089	3199.1563	889.55	7.3
1048.7119	3200.0931	883.35	7.1
1048.8148	3201.0292	882.55	6.65
1048.9178	3201.9648	883.95	7.4
1049.0206	3202.8997	888.4	9.25
1049.1235	3203.834	882.4	3.35
1049.2262	3204.7677	883	8.05
1049.329	3205.7008	885.4	6.15
1049.4317	3206.6333	880.8	6.3
1049.5343	3207.5652	885.5	5.65
1049.6369	3208.4964	883.8	6.25
1049.7394	3209.4271	882.7	7.45
1049.8419	3210.3571	880.65	4.6
1049.9444	3211.2865	883.55	5.9
1050.0468	3212.2154	883.75	7
1050.1491	3213.1436	886.45	6.45
1050.2514	3214.0712	887.65	5.35
1050.3537	3214.9982	882.95	7.25
1050.4559	3215.9246	884.2	5.65
1050.5581	3216.8503	881.65	4.15
1050.6602	3217.7755	884.65	8
1050.7623	3218.7001	880.45	3.95
1050.8643	3219.624	884.65	8.75
1050.9663	3220.5473	882.95	5.05
1051.0682	3221.4701	883.65	5.45
1051.1701	3222.3922	883.7	6.4
1051.2719	3223.3137	881.4	4.85
1051.3737	3224.2346	882.3	5.75
1051.4754	3225.1549	882.15	5.7
1051.5771	3226.0746	882.7	7.15
1051.6788	3226.9937	882.25	4.35
1051.7804	3227.9121	881.75	7.1
1051.8819	3228.83	882.5	5.1
1051.9834	3229.7473	881.35	5.5
1052.0849	3230.6639	883.4	5.6
1052.1863	3231.5799	882.65	5.35
1052.2876	3232.4954	882.8	2.7
1052.3889	3233.4102	880.35	4.45
1052.4902	3234.3244	881.45	3.3
1052.5914	3235.238	881.05	5.05
1052.6926	3236.151	905.15	3.85
1052.7937	3237.0634	881.05	5.45
1052.8948	3237.9752	882.1	4.5
1052.9958	3238.8864	882.1	3.95
1053.0968	3239.797	881.9	7.2
1053.1977	3240.7069	883.9	5.85
1053.2986	3241.6163	883.3	5.3
1053.3994	3242.5251	881.3	4.95
1053.5002	3243.4332	882.2	5.75
1053.6009	3244.3408	881.75	4.4
1053.7016	3245.2477	881.1	4.55
1053.8022	3246.154	883.05	4.35
1053.9028	3247.0598	882.2	3.9
1054.0034	3247.9649	882.4	6.45
1054.1039	3248.8694	883.1	6.25
1054.2043	3249.7733	881.25	3.55
1054.3047	3250.6766	882.1	3.65
1054.4051	3251.5793	882.9	3.85
1054.5054	3252.4814	881.45	3.6
1054.6056	3253.3829	878.7	3.45
1054.7058	3254.2838	879.95	2.2
1054.806	3255.1841	880.3	3.35
1054.9061	3256.0838	879.15	2.05
1055.0061	3256.9829	878.6	3.05
1055.1062	3257.8814	882.8	4.6
1055.2061	3258.7792	884.8	7
1055.306	3259.6765	880.45	2.4
1055.4059	3260.5731	880.15	4.35
1055.5057	3261.4692	881.85	4.65
1055.6055	3262.3647	879.55	0.75
1055.7052	3263.2595	880.6	3.15
1055.8049	3264.1538	880.05	4.15
1055.9045	3265.0474	879.7	1.8
1056.0041	3265.9404	880	3.8
1056.1036	3266.8329	881.1	3.4
1056.2031	3267.7247	890.2	3.1
1056.3025	3268.616	878.85	2.95
1056.4019	3269.5066	882	4.35
1056.5013	3270.3966	883	4.6
1056.6005	3271.286	877.9	0.8
