Software Version:	3.9.2.0
Unit SN:	10000200
Spectrometer SN:	6960
Date:	3/8/2024 12:10:53 PM
Data Line Index:	25
Spectral Points:	2048
Integration time (ms):	125
Averages:	20
Delay (ms):	30000
Sequence Number:	1
Processing:	dark subtract
Laser Power (mW):	300
Laser Current (mA):	822
Laser Diode Temp (C):	25.1
Laser Case Temp (C):	25.7
System Temp (C):	25.7
Spectrometer Temp (C):	23.5
CCD Temp (C):	0.009
Secondary Temp (C):	20.004
Heatsink Temp (C):	19.915
CCDPCB Temp (C):	35.84
SecondaryPCB Temp (C):	28.47

Wavelength	RamanShift	Raw Counts	Dark Subtracted
787.061	30.1047	426.85	17.75
787.2016	32.3739	424.9	18.2
787.3422	34.6426	427.45	20.15
787.4828	36.9109	431.65	20.15
787.6235	39.1787	437.85	23.25
787.7642	41.4461	445.3	26.2
787.9049	43.7131	450.05	26.55
788.0456	45.9796	452.85	28.3
788.1863	48.2456	458.5	28.25
788.3271	50.5112	464.35	32.45
788.4679	52.7764	466.9	32
788.6087	55.0411	474.9	34.25
788.7496	57.3054	484.5	38.9
788.8904	59.5692	487.15	40.1
789.0313	61.8326	493.7	44.45
789.1722	64.0955	500.8	47.95
789.3132	66.3579	509.05	51.9
789.4541	68.6199	520.2	59.45
789.5951	70.8815	538.1	71.9
789.7361	73.1426	566.85	97.35
789.8771	75.4032	649.75	176.4
790.0181	77.6634	841.15	363.25
790.1592	79.9231	1305.4	823.5
790.3003	82.1824	2251.65	1760
790.4414	84.4412	3878.75	3368.95
790.5825	86.6995	6066.5	5535.05
790.7237	88.9574	8189.4	7639.3
790.8648	91.2148	9665.65	9105.6
791.006	93.4717	10383.95	9814.75
791.1472	95.7282	10529.8	9954.55
791.2885	97.9842	10467.9	9892.95
791.4297	100.2398	10281.85	9699.1
791.571	102.4949	10056.95	9473.95
791.7123	104.7495	9767.75	9182.35
791.8536	107.0036	9518	8926.3
791.9949	109.2573	9250	8663.3
792.1363	111.5105	9021.85	8428.7
792.2777	113.7632	8808.05	8216.2
792.4191	116.0154	8674.4	8070
792.5605	118.2672	8547.9	7951.5
792.7019	120.5185	8442.75	7843.6
792.8434	122.7693	8383.75	7781.15
792.9849	125.0197	8313.85	7706.65
793.1264	127.2696	8256.3	7645.7
793.2679	129.519	8223.2	7608.1
793.4094	131.7679	8151.45	7536.3
793.551	134.0163	8093.1	7472
793.6926	136.2642	8002.4	7380
793.8342	138.5117	7927.4	7297.05
793.9758	140.7587	7804.2	7177.4
794.1175	143.0052	7711.85	7083.15
794.2591	145.2512	7590.5	6961.45
794.4008	147.4967	7494	6861.85
794.5425	149.7417	7421.8	6790.65
794.6842	151.9863	7363.85	6727.3
794.826	154.2304	7324.15	6682.05
794.9677	156.4739	7274.9	6626.75
795.1095	158.717	7254.2	6608.5
795.2513	160.9596	7238.1	6585.9
795.3931	163.2017	7200.75	6547.1
795.535	165.4433	7121.15	6465.5
795.6768	167.6844	7057.9	6402.35
795.8187	169.925	6968.1	6307.2
795.9606	172.1651	6861.45	6199.45
796.1025	174.4047	6796.45	6129.4
796.2445	176.6439	6709.5	6040.7
796.3864	178.8825	6647	5973
796.5284	181.1206	6629	5953.55
796.6704	183.3582	6588.15	5907.95
796.8124	185.5954	6556.55	5873.2
796.9544	187.832	6557.55	5872.05
797.0965	190.0681	6566.55	5880.35
797.2386	192.3037	6574.95	5886.85
797.3806	194.5388	6565.15	5871.35
797.5228	196.7734	6579.05	5882.25
797.6649	199.0075	6597.5	5900.55
797.807	201.2411	6634.65	5936.2
797.9492	203.4742	6670.7	5970.2
798.0914	205.7068	6724.3	6019.8
798.2336	207.9389	6774.45	6070.25
798.3758	210.1704	6828.25	6131.65
798.518	212.4015	6840.1	6150.25
798.6603	214.632	6882.75	6200.4
798.8025	216.862	6916.95	6235.35
798.9448	219.0915	6939.9	6255.1
799.0871	221.3205	6963.85	6276.6
799.2294	223.549	6979.55	6296.85
799.3718	225.777	7001.95	6317.65
799.5141	228.0044	7015.5	6319.75
799.6565	230.2314	7032.25	6338.35
799.7989	232.4578	7061	6364.25
799.9413	234.6837	7052	6346.05
800.0837	236.909	7065.2	6357.2
800.2262	239.1339	7095.05	6362.35
800.3687	241.3582	7069.35	6352.6
800.5111	243.582	7067.5	6317.5
800.6536	245.8053	7067.9	6332.3
800.7961	248.0281	7068.45	6340.45
800.9387	250.2503	7065.95	6332.6
801.0812	252.472	7057.5	6327.35
801.2238	254.6932	7101.65	6368.35
801.3664	256.9139	7118.85	6383.95
801.509	259.134	7176.3	6439.75
801.6516	261.3536	7225.85	6488.2
801.7942	263.5727	7336.1	6597.4
801.9369	265.7912	7421.6	6680.7
802.0795	268.0092	7528.85	6790.9
802.2222	270.2267	7598.05	6858.25
802.3649	272.4436	7698.5	6958
802.5076	274.6601	7768.2	7015.8
802.6504	276.8759	7767.6	7021.8
802.7931	279.0913	7742.75	6995.6
802.9359	281.3061	7741.65	6992.1
803.0787	283.5204	7749.55	6999
803.2215	285.7341	7754.5	6998.15
803.3643	287.9473	7764.8	7008.2
803.5071	290.16	7759.1	7003.2
803.6499	292.3721	7735.25	6983.4
803.7928	294.5837	7748.4	6993.75
803.9357	296.7947	7784.7	7034.15
804.0786	299.0052	7823.4	7068.5
804.2215	301.2152	7841	7086.75
804.3644	303.4246	7828.35	7077.4
804.5074	305.6334	7776.95	7023.5
804.6503	307.8418	7689.8	6933.95
804.7933	310.0495	7594.8	6836.95
804.9363	312.2568	7471.1	6710.15
805.0793	314.4635	7325.55	6562.75
805.2223	316.6696	7219.85	6455.35
805.3653	318.8752	7133.85	6362
805.5084	321.0802	7070.75	6303.1
805.6514	323.2847	7059.05	6290.4
805.7945	325.4887	7088.7	6321.2
805.9376	327.692	7084.85	6313.7
806.0807	329.8949	7136.3	6365.8
806.2238	332.0972	7111.6	6337.75
806.367	334.2989	7048.1	6272.75
806.5101	336.5001	6981.75	6203.25
806.6533	338.7007	6935.45	6159.7
806.7965	340.9008	6869.6	6091.4
806.9397	343.1003	6802.95	6021.2
807.0829	345.2992	6760.2	5978.95
807.2261	347.4976	6714.35	5930.75
807.3693	349.6955	6661.5	5874.35
807.5126	351.8927	6658.35	5871.65
807.6559	354.0895	6633.55	5834
807.7991	356.2856	6610.95	5823.45
807.9424	358.4812	6582.8	5792.35
808.0857	360.6763	6566.4	5773.45
808.2291	362.8707	6556.4	5762.8
808.3724	365.0646	6577.6	5778.3
808.5158	367.258	6552.55	5754.4
808.6591	369.4508	6597.2	5798.65
808.8025	371.643	6621.85	5820.9
808.9459	373.8346	6662.2	5862.15
809.0893	376.0257	6706.55	5900.2
809.2327	378.2162	6736	5935.4
809.3762	380.4062	6753	5949.4
809.5196	382.5956	6706.45	5905.9
809.6631	384.7844	6657.45	5860.8
809.8066	386.9726	6600.6	5805.65
809.9501	389.1603	6542.35	5746.15
810.0936	391.3474	6566.6	5736.3
810.2371	393.5339	6527.85	5730.55
810.3806	395.7199	6516.45	5721.35
810.5241	397.9052	6536.05	5737.85
810.6677	400.09	6562.25	5767
810.8113	402.2743	6631.5	5835.35
810.9548	404.4579	6679.55	5881
811.0984	406.641	6769.6	5966.65
811.2421	408.8235	6801.7	5997.05
811.3857	411.0054	6866.8	6059.85
811.5293	413.1868	6944.85	6133.5
811.673	415.3675	6968.35	6154.25
811.8166	417.5477	6961.65	6149.05
811.9603	419.7273	6877.4	6061.75
812.104	421.9064	6817.25	5996.05
812.2477	424.0848	6757.8	5941.4
812.3914	426.2627	6707.55	5891.4
812.5351	428.4399	6647.55	5831.15
812.6788	430.6166	6537.2	5716.75
812.8226	432.7928	6428.85	5606.85
812.9663	434.9683	6341.85	5519
813.1101	437.1432	6254.8	5435.75
813.2539	439.3176	6201.2	5383.75
813.3977	441.4914	6145.9	5326
813.5415	443.6645	6131.35	5314.1
813.6853	445.8371	6117.35	5298.6
813.8291	448.0091	6094.1	5271.9
813.973	450.1806	6095.5	5276.65
814.1168	452.3514	6083.35	5260.55
814.2607	454.5216	6091.15	5256.35
814.4046	456.6913	6058.9	5234.75
814.5485	458.8603	6066.85	5245.8
814.6924	461.0288	6072.35	5252.6
814.8363	463.1967	6048.4	5227.75
814.9802	465.3639	6085.25	5257.95
815.1241	467.5306	6047.1	5222
815.2681	469.6967	6048.5	5226.55
815.412	471.8622	6032.4	5208.75
815.556	474.0271	6028.75	5204.55
815.7	476.1914	6013.05	5182.4
815.844	478.3551	6026.55	5196.8
815.988	480.5182	6026.25	5199.9
816.132	482.6807	6045.3	5224
816.276	484.8426	6114.65	5294.4
816.4201	487.0039	6198.95	5374.95
816.5641	489.1647	6311.05	5482.8
816.7082	491.3248	6405.9	5574.1
816.8522	493.4843	6423.25	5594.05
816.9963	495.6432	6381.7	5553.6
817.1404	497.8015	6336.15	5500.25
817.2845	499.9592	6302.65	5465.45
817.4286	502.1163	6204.05	5367.35
817.5727	504.2728	6131	5297.45
817.7168	506.4287	6052.5	5224.6
817.861	508.5839	5947.15	5117.9
818.0051	510.7386	5876.5	5043.95
818.1493	512.8927	5858.35	5020.1
818.2935	515.0461	5881.4	5044.1
818.4377	517.199	5881.7	5044.8
818.5818	519.3512	5950.15	5112.6
818.726	521.5029	6047.35	5206.4
818.8703	523.6539	6149.65	5311.05
819.0145	525.8043	6202.45	5362.65
819.1587	527.9541	6174.25	5330.55
819.303	530.1033	6092.2	5248.1
819.4472	532.2519	6011.4	5170.1
819.5915	534.3999	5964.25	5121.55
819.7357	536.5472	5946.9	5106.2
819.88	538.694	5960.2	5122
820.0243	540.8401	6039.7	5196.35
820.1686	542.9856	6092.9	5246.25
820.3129	545.1305	6090.5	5243.1
820.4572	547.2748	6076.35	5225.35
820.6016	549.4185	6016.5	5162.9
820.7459	551.5615	6005.1	5156.5
820.8902	553.704	6004.8	5153.3
821.0346	555.8458	6025.55	5178.15
821.1789	557.987	6058	5213.15
821.3233	560.1276	6134.45	5287.9
821.4677	562.2675	6264.25	5413.3
821.6121	564.4069	6427.15	5577.45
821.7565	566.5456	6589.6	5743.5
821.9009	568.6837	6678.7	5828.65
822.0453	570.8212	6548.4	5701.5
822.1897	572.958	6329.75	5481.25
822.3342	575.0942	6108.5	5260.45
822.4786	577.2299	5930.4	5085.8
822.6231	579.3648	5847.2	5004.7
822.7675	581.4992	5787.25	4947.65
822.912	583.6329	5792.35	4955.45
823.0565	585.766	5851.5	5007.4
823.201	587.8985	5892.55	5048.1
823.3454	590.0304	5942.5	5068.6
823.4899	592.1616	5935.4	5080
823.6345	594.2922	5927.7	5074.85
823.779	596.4222	5862.05	5005.05
823.9235	598.5515	5780	4925.75
824.068	600.6802	5728.2	4872.4
824.2126	602.8083	5644.75	4789.4
824.3571	604.9358	5629.7	4772.8
824.5017	607.0626	5627.5	4770.4
824.6462	609.1888	5665.65	4806
824.7908	611.3144	5721.55	4859.7
824.9354	613.4393	5783.5	4923.15
825.08	615.5636	5839.2	4981.15
825.2246	617.6873	5862.55	5002.6
825.3692	619.8103	5856.8	4994.25
825.5138	621.9327	5769.65	4905.3
825.6584	624.0544	5695.1	4836.3
825.803	626.1756	5609.75	4752.6
825.9477	628.2961	5551.65	4691.2
826.0923	630.4159	5502.85	4642.9
826.237	632.5351	5513.85	4651.8
826.3816	634.6537	5498.5	4637.35
826.5263	636.7716	5507.95	4642.15
826.6709	638.8889	5506.45	4638.35
826.8156	641.0056	5514.85	4648.55
826.9603	643.1216	5505.8	4639.65
827.105	645.237	5517.05	4652.8
827.2497	647.3518	5454.75	4593.9
827.3944	649.4659	5418.85	4557.55
827.5391	651.5793	5384.25	4522.8
827.6838	653.6922	5387.45	4523.75
827.8285	655.8043	5348.5	4484
827.9733	657.9159	5374.5	4510.3
828.118	660.0268	5345.85	4482.3
828.2627	662.137	5332.65	4463.85
828.4075	664.2466	5345.65	4476.8
828.5522	666.3556	5332.25	4463.95
828.697	668.4639	5311.45	4441.35
828.8418	670.5716	5294.2	4430.35
828.9865	672.6786	5273.85	4409.05
829.1313	674.785	5235.2	4362.5
829.2761	676.8907	5212.75	4344.2
829.4209	678.9958	5224.9	4357.85
829.5657	681.1002	5196	4327.45
829.7105	683.204	5200.65	4326.1
829.8553	685.3072	5176.45	4306.15
830.0001	687.4097	5155.9	4285.95
830.1449	689.5115	5160.8	4287.65
830.2898	691.6127	5161.25	4291.2
830.4346	693.7132	5152.8	4282.55
830.5794	695.8131	5169.25	4275.95
830.7243	697.9123	5171.35	4297.8
830.8691	700.0109	5174.25	4300.85
831.014	702.1089	5178.25	4306.95
831.1588	704.2061	5193.15	4318.6
831.3037	706.3028	5239.45	4361.35
831.4486	708.3987	5265.2	4390.5
831.5935	710.4941	5275.7	4401.6
831.7383	712.5887	5267.85	4396.75
831.8832	714.6827	5263.65	4387
832.0281	716.7761	5279.05	4405.05
832.173	718.8688	5283.35	4406.65
832.3179	720.9608	5301.65	4422
832.4628	723.0522	5352.55	4469.95
832.6077	725.1429	5400.35	4522
832.7527	727.233	5423.7	4543.55
832.8976	729.3224	5472.4	4593.9
833.0425	731.4112	5477.7	4598.45
833.1874	733.4993	5438.95	4560.45
833.3324	735.5867	5358.3	4480.15
833.4773	737.6735	5279.4	4402
833.6222	739.7596	5206.65	4324.55
833.7672	741.845	5163.25	4284.25
833.9122	743.9298	5115.05	4234.85
834.0571	746.014	5120.2	4243.25
834.2021	748.0974	5127.9	4248.15
834.347	750.1802	5110.95	4227.65
834.492	752.2624	5098.4	4217.05
834.637	754.3439	5083.25	4198.75
834.782	756.4247	5103.7	4211.8
834.9269	758.5048	5116.8	4237.25
835.0719	760.5843	5188.2	4304.8
835.2169	762.6631	5273.35	4390.75
835.3619	764.7413	5405.6	4522.1
835.5069	766.8188	5593.45	4707.6
835.6519	768.8956	5786.75	4902.75
835.7969	770.9718	5922.05	5040.1
835.9419	773.0473	5953.05	5068.9
836.0869	775.1221	5908.1	5025.75
836.232	777.1962	5817.75	4934.15
836.377	779.2697	5827.85	4946.15
836.522	781.3426	5891.7	4991.85
836.667	783.4147	5953.85	5071.4
836.8121	785.4862	5964.75	5079.95
836.9571	787.557	5887.85	5001.9
837.1021	789.6271	5705.05	4818.8
837.2472	791.6966	5496.05	4610.8
837.3922	793.7654	5275.25	4391.4
837.5373	795.8335	5127	4241.6
837.6823	797.901	5020.6	4134.3
837.8274	799.9678	4960.05	4072.9
837.9724	802.0339	4920.2	4033.45
838.1175	804.0993	4897.2	4000.75
838.2626	806.1641	4862.05	3973.7
838.4076	808.2282	4844.25	3957.7
838.5527	810.2916	4832.25	3945.75
838.6978	812.3544	4806.25	3919.3
838.8428	814.4164	4767.65	3883.6
838.9879	816.4778	4780.15	3889.75
839.133	818.5385	4768.35	3877.45
839.2781	820.5986	4804.35	3916.6
839.4232	822.658	4879.95	3992.6
839.5682	824.7166	4948.4	4060.35
839.7133	826.7747	5113.7	4225.45
839.8584	828.832	5320.35	4432.2
840.0035	830.8886	5457	4566.4
840.1486	832.9446	5569.5	4678.2
840.2937	834.9999	5518.05	4631.2
840.4388	837.0545	5434	4542.45
840.5839	839.1085	5283.15	4393
840.729	841.1618	5146.3	4252.75
840.8741	843.2143	5059.3	4170.1
841.0192	845.2662	4969	4074.85
841.1643	847.3175	4932.4	4042.6
841.3095	849.368	4884	3989.75
841.4546	851.4179	4850.7	3960.8
841.5997	853.467	4826.25	3935.25
841.7448	855.5155	4812.5	3917.15
841.8899	857.5633	4785.75	3897.35
842.0351	859.6105	4756.9	3864.25
842.1802	861.6569	4729.65	3839.8
842.3253	863.7027	4690.75	3796.35
842.4704	865.7478	4668.3	3775.6
842.6156	867.7922	4648.5	3758.2
842.7607	869.8359	4617.05	3723.85
842.9058	871.8789	4632.9	3741.8
843.0509	873.9212	4646.7	3719.3
843.1961	875.9629	4644.6	3746.7
843.3412	878.0039	4676.75	3783.8
843.4863	880.0441	4708.15	3814.75
843.6315	882.0837	4728.85	3836.45
843.7766	884.1226	4749.2	3853.3
843.9218	886.1609	4757.6	3865.45
844.0669	888.1984	4810.6	3920.55
844.212	890.2352	4882.55	3989.8
844.3572	892.2714	4929	4029.8
844.5023	894.3069	4891.6	3995.5
844.6475	896.3416	4841.3	3947
844.7926	898.3757	4759.8	3865.4
844.9377	900.4091	4707.45	3813.05
845.0829	902.4418	4708	3810
845.228	904.4739	4705.6	3808.35
845.3732	906.5052	4723.7	3826
845.5183	908.5358	4726.4	3831.75
845.6635	910.5658	4693.35	3795.35
845.8086	912.595	4642.25	3744.3
845.9538	914.6236	4544.1	3647.15
846.0989	916.6515	4490.55	3594.45
846.2441	918.6786	4451.7	3554.3
846.3892	920.7051	4436.75	3537.25
846.5344	922.7309	4434	3534.45
846.6795	924.756	4444	3548.9
846.8246	926.7804	4458.1	3558.75
846.9698	928.8041	4445.25	3547.95
847.1149	930.8272	4477.75	3582.4
847.2601	932.8495	4429.05	3532.4
847.4052	934.8711	4467.4	3566.85
847.5504	936.892	4454.7	3556
847.6955	938.9123	4461	3562.05
847.8407	940.9318	4473.95	3578
847.9858	942.9506	4499.25	3599.35
848.131	944.9688	4487.6	3588.8
848.2761	946.9862	4469.45	3571.7
848.4213	949.003	4386.05	3490.5
848.5664	951.019	4336.35	3437.45
848.7115	953.0344	4291.7	3391.7
848.8567	955.0491	4279.95	3382.35
849.0018	957.063	4294.85	3397.2
849.147	959.0763	4303.9	3406
849.2921	961.0888	4319.95	3423.3
849.4373	963.1007	4317.1	3421.7
849.5824	965.1119	4324.2	3430.5
849.7275	967.1223	4303.85	3412.85
849.8727	969.1321	4295.3	3403.35
850.0178	971.1412	4278.85	3385.5
850.1629	973.1495	4265.2	3366.7
850.3081	975.1572	4305.75	3376.4
850.4532	977.1641	4271.5	3371.45
850.5983	979.1704	4248	3349.55
850.7435	981.1759	4262.2	3362.15
850.8886	983.1808	4228.45	3327.5
851.0337	985.1849	4229.7	3319.05
851.1788	987.1884	4243.05	3342.15
851.324	989.1911	4253.85	3352.7
851.4691	991.1932	4269.85	3372.3
851.6142	993.1945	4278.7	3382.9
851.7593	995.1951	4271.15	3374.35
851.9045	997.1951	4257.15	3348.75
852.0496	999.1943	4224.5	3325.45
852.1947	1001.1928	4229.35	3329.6
852.3398	1003.1906	4237.1	3338.3
852.4849	1005.1877	4292.05	3390.7
852.63	1007.1841	4312	3413.35
852.7751	1009.1798	4332.55	3433.2
852.9202	1011.1748	4327.95	3430.7
853.0653	1013.1691	4285.4	3386.4
853.2104	1015.1627	4224.95	3323.6
853.3555	1017.1556	4137.65	3236.85
853.5006	1019.1477	4098.15	3200.25
853.6457	1021.1392	4044.55	3150.55
853.7908	1023.1299	4016.35	3123.35
853.9359	1025.12	4006.35	3113.35
854.081	1027.1093	4022.35	3138.35
854.2261	1029.0979	4055.5	3171.25
854.3712	1031.0859	4113.3	3225.9
854.5163	1033.0731	4133	3237.9
854.6613	1035.0596	4112.3	3216.3
854.8064	1037.0454	4065.95	3169.75
854.9515	1039.0304	4047.55	3149
855.0965	1041.0148	4020.45	3125.85
855.2416	1042.9985	3978.15	3079.4
855.3867	1044.9814	3964.3	3067.05
855.5317	1046.9636	3938.35	3039.4
855.6768	1048.9452	3920.9	3023.45
855.8219	1050.926	3937.6	3040.35
855.9669	1052.9061	3947.65	3048.1
856.112	1054.8855	3972.95	3073.3
856.257	1056.8642	3961.85	3062.2
856.4021	1058.8421	3989.6	3088.2
856.5471	1060.8194	3985.6	3088.5
856.6921	1062.7959	3995.7	3097.9
856.8372	1064.7717	3992.55	3093.05
856.9822	1066.7469	4014.35	3114.5
857.1272	1068.7213	4038.65	3134.75
857.2723	1070.695	4061.8	3163.25
857.4173	1072.6679	4089.7	3187.85
857.5623	1074.6402	4106.6	3204.7
857.7073	1076.6117	4116.65	3211.6
857.8523	1078.5826	4089.15	3190.5
857.9973	1080.5527	4022.55	3119.85
858.1423	1082.5221	3965	3065.55
858.2873	1084.4908	3931.75	3035.1
858.4323	1086.4587	3896.6	2995.1
858.5773	1088.426	3903.35	3005.15
858.7223	1090.3925	3890.95	2985.1
858.8673	1092.3584	3894.25	2994.35
859.0123	1094.3235	3906.2	3006.75
859.1573	1096.2879	3945.05	3044.4
859.3022	1098.2515	3980.8	3082.55
859.4472	1100.2145	4036.4	3135.3
859.5922	1102.1767	4091.45	3187.3
859.7371	1104.1382	4171.7	3271.85
859.8821	1106.099	4247.9	3346.05
860.027	1108.0591	4330.1	3432.5
860.172	1110.0185	4378.5	3477.2
860.3169	1111.9771	4410.3	3513.7
860.4619	1113.9351	4392.75	3493.1
860.6068	1115.8923	4377.8	3477
860.7517	1117.8488	4339.25	3440
860.8967	1119.8045	4300.55	3402.8
861.0416	1121.7596	4240.5	3338.85
861.1865	1123.7139	4155.9	3256.35
861.3314	1125.6675	4113.75	3215.4
861.4763	1127.6204	4108.45	3210
861.6212	1129.5726	4108.7	3209.2
861.7661	1131.524	4117.2	3219.05
861.911	1133.4748	4052.45	3153.15
862.0559	1135.4248	3997.7	3098.95
862.2008	1137.3741	3929.6	3032.1
862.3457	1139.3226	3876.65	2974.7
862.4905	1141.2705	3859.55	2957.15
862.6354	1143.2176	3848.8	2942.55
862.7803	1145.164	3857.25	2957.8
862.9251	1147.1097	3813.75	2914.65
863.07	1149.0546	3775.95	2873.7
863.2148	1150.9989	3724.2	2822.45
863.3597	1152.9424	3702.65	2801.7
863.5045	1154.8852	3663.65	2763.2
863.6493	1156.8272	3634.85	2735.15
863.7942	1158.7686	3652.55	2746.65
863.939	1160.7092	3647.25	2746
864.0838	1162.6491	3654.65	2752.65
864.2286	1164.5883	3678.45	2780.5
864.3734	1166.5267	3709.95	2810.9
864.5182	1168.4644	3760.85	2861.45
864.663	1170.4014	3817.65	2915.2
864.8078	1172.3377	3862	2963.25
864.9526	1174.2732	3966.4	3069.1
865.0974	1176.2081	4093.85	3195.55
865.2421	1178.1421	4256.85	3353.35
865.3869	1180.0755	4454.7	3554.65
865.5317	1182.0082	4615.25	3715.2
865.6764	1183.9401	4692.6	3796.15
865.8212	1185.8713	4650.7	3753.4
865.9659	1187.8017	4520.1	3627.3
866.1106	1189.7315	4341.05	3451.65
866.2554	1191.6605	4174.25	3283.1
866.4001	1193.5888	4057.5	3166.4
866.5448	1195.5163	3985.4	3090.3
866.6895	1197.4432	3922.9	3024.7
866.8342	1199.3693	3889.6	2992.6
866.9789	1201.2947	3864.8	2962.95
867.1236	1203.2193	3850.3	2952
867.2683	1205.1432	3835.7	2937.9
867.413	1207.0664	3832.05	2935.15
867.5576	1208.9889	3824.15	2924.65
867.7023	1210.9106	3821.1	2924.65
867.847	1212.8316	3830.9	2936.6
867.9916	1214.7519	3858.45	2951.6
868.1363	1216.6715	3858.6	2959.3
868.2809	1218.5903	3871.6	2972.05
868.4255	1220.5084	3893.85	2995.55
868.5701	1222.4257	3944.2	3046.95
868.7148	1224.3424	3954.3	3057.25
868.8594	1226.2583	4011	3110.6
869.004	1228.1735	4066.65	3169.7
869.1486	1230.0879	4140.15	3239.9
869.2932	1232.0016	4210.95	3312.3
869.4377	1233.9146	4286.15	3384.6
869.5823	1235.8269	4324.75	3424.35
869.7269	1237.7384	4315.6	3419.95
869.8715	1239.6492	4280.5	3380.65
870.016	1241.5592	4265.35	3366.7
870.1606	1243.4686	4274.05	3378.15
870.3051	1245.3772	4346.35	3446.2
870.4496	1247.285	4453.9	3553.8
870.5941	1249.1922	4548.3	3649.95
870.7387	1251.0986	4654.3	3761.25
870.8832	1253.0042	4726.35	3829.3
871.0277	1254.9092	4803.6	3903.3
871.1722	1256.8134	4859.45	3966.35
871.3167	1258.7169	4902.8	4002.6
871.4611	1260.6196	4949.45	4053.25
871.6056	1262.5216	5014.1	4116.8
871.7501	1264.4229	5064.9	4168.65
871.8945	1266.3234	5136.6	4237.15
872.039	1268.2232	5170.85	4271.3
872.1834	1270.1223	5203.35	4304.95
872.3278	1272.0207	5203.05	4302.85
872.4723	1273.9183	5193.15	4287.8
872.6167	1275.8151	5142.8	4244.8
872.7611	1277.7113	5133.65	4237.25
872.9055	1279.6067	5159.25	4260.3
873.0499	1281.5014	5277	4378.8
873.1943	1283.3953	5464.7	4560.8
873.3386	1285.2885	5748.3	4850.25
873.483	1287.181	6034.85	5135.2
873.6274	1289.0727	6362.5	5466.95
873.7717	1290.9637	6593.15	5694.6
873.9161	1292.854	6770.3	5870.85
874.0604	1294.7435	6824.15	5926.15
874.2047	1296.6323	6742.65	5843.8
874.349	1298.5204	6575.55	5673.75
874.4933	1300.4077	6413.05	5513
874.6376	1302.2943	6214.8	5315.5
874.7819	1304.1802	5996.25	5099.4
874.9262	1306.0653	5746.4	4846.8
875.0705	1307.9497	5521.65	4622.9
875.2147	1309.8333	5317.9	4419.4
875.359	1311.7162	5168.95	4270.1
875.5032	1313.5984	5093.4	4194.1
875.6475	1315.4798	5034.85	4127.15
875.7917	1317.3605	5029.6	4114.25
875.9359	1319.2405	4991.7	4088.8
876.0801	1321.1197	4900.9	3998.95
876.2243	1322.9982	4803.25	3897.5
876.3685	1324.876	4684.05	3785.75
876.5127	1326.753	4557.9	3658.7
876.6569	1328.6293	4428.05	3527.1
876.801	1330.5048	4317.2	3415.3
876.9452	1332.3796	4189.05	3289.75
877.0893	1334.2537	4125.45	3204.65
877.2335	1336.127	4047.7	3148.75
877.3776	1337.9996	3997.2	3097.5
877.5217	1339.8714	3980.6	3082.6
877.6658	1341.7426	3991.05	3047.1
877.8099	1343.6129	3969.6	3071.4
877.954	1345.4826	3956.95	3059.05
878.0981	1347.3515	3936.7	3036.45
878.2422	1349.2196	3922.9	3022.45
878.3862	1351.087	3921.25	3020.3
878.5303	1352.9537	3940.55	3041.25
878.6743	1354.8197	3935.2	3035.1
878.8184	1356.6849	3991.9	3093.85
878.9624	1358.5493	4045.45	3147.05
879.1064	1360.4131	4093.95	3196.95
879.2504	1362.276	4174.3	3277.9
879.3944	1364.1383	4215	3318.6
879.5384	1365.9998	4223.7	3318.85
879.6823	1367.8606	4151.15	3249.85
879.8263	1369.7206	4068.55	3165.95
879.9702	1371.5799	3993.2	3092.35
880.1142	1373.4384	3931.9	3031.3
880.2581	1375.2962	3857.1	2958.25
880.402	1377.1533	3764.05	2868.75
880.5459	1379.0096	3664.25	2766.55
880.6898	1380.8652	3559.3	2662.15
880.8337	1382.7201	3456.65	2558.5
880.9776	1384.5742	3383.15	2485.35
881.1215	1386.4275	3326.15	2426.25
881.2653	1388.2802	3287.65	2390.55
881.4092	1390.132	3251.6	2353
881.553	1391.9832	3227.3	2325.6
881.6968	1393.8336	3200.65	2300.9
881.8406	1395.6832	3189.3	2288.3
881.9844	1397.5322	3171.95	2273.4
882.1282	1399.3803	3164.55	2261
882.272	1401.2278	3141.6	2244
882.4158	1403.0745	3143.7	2246.4
882.5595	1404.9204	3115.8	2218.5
882.7033	1406.7656	3105.3	2207.55
882.847	1408.6101	3107.5	2207.85
882.9908	1410.4538	3105.5	2207.3
883.1345	1412.2968	3108.7	2210.65
883.2782	1414.139	3127.75	2230.65
883.4219	1415.9805	3134.05	2238
883.5656	1417.8213	3162.1	2246
883.7092	1419.6613	3189.85	2291.5
883.8529	1421.5006	3226.65	2329.5
883.9965	1423.3391	3299.25	2400.8
884.1402	1425.1769	3386.5	2487.3
884.2838	1427.0139	3507.85	2609.7
884.4274	1428.8502	3666.15	2766.45
884.571	1430.6858	3827.95	2929
884.7146	1432.5206	3926.95	3030.25
884.8582	1434.3547	3994.65	3095.55
885.0018	1436.188	4000.25	3103.95
885.1453	1438.0206	3989.7	3093.55
885.2889	1439.8524	3922.5	3025.95
885.4324	1441.6835	3902.25	3004.75
885.5759	1443.5139	3852.45	2951.1
885.7194	1445.3435	3849.15	2949.95
885.8629	1447.1724	3857.25	2963.5
886.0064	1449.0005	3824.85	2928.7
886.1499	1450.8279	3817.8	2919.25
886.2933	1452.6545	3807.45	2911.2
886.4368	1454.4804	3815.5	2919.65
886.5802	1456.3056	3806.3	2903.6
886.7237	1458.13	3801.95	2908.9
886.8671	1459.9536	3762.05	2864.35
887.0105	1461.7766	3676.1	2780.25
887.1539	1463.5987	3600.1	2704.7
887.2972	1465.4202	3503.35	2605.85
887.4406	1467.2409	3407.75	2512.1
887.584	1469.0608	3312.75	2415.5
887.7273	1470.88	3250	2351.45
887.8706	1472.6984	3174.55	2277.35
888.0139	1474.5161	3104.3	2205.65
888.1572	1476.3331	3067.3	2172.5
888.3005	1478.1493	3026.9	2130.7
888.4438	1479.9648	3006.45	2108.2
888.5871	1481.7795	2985.8	2091.2
888.7303	1483.5935	2974.6	2078.7
888.8736	1485.4067	2980.15	2083
889.0168	1487.2192	2954.35	2060
889.16	1489.031	2945	2047.75
889.3032	1490.842	2930.8	2037.1
889.4464	1492.6522	2933.75	2036.65
889.5896	1494.4618	2930.35	2034.65
889.7327	1496.2705	2936.75	2041.05
889.8759	1498.0785	2919.6	2024.9
890.019	1499.8858	2892.15	1994.05
890.1622	1501.6924	2882.2	1985.95
890.3053	1503.4981	2876.9	1981.8
890.4484	1505.3032	2865.5	1968.9
890.5914	1507.1075	2838.15	1942.4
890.7345	1508.911	2846.2	1953.95
890.8776	1510.7138	2814.25	1917.05
891.0206	1512.5159	2801.1	1905.3
891.1637	1514.3172	2785.9	1892.7
891.3067	1516.1178	2767.7	1871.65
891.4497	1517.9176	2762.9	1866.25
891.5927	1519.7166	2758.25	1864.5
891.7357	1521.515	2743.85	1843.95
891.8786	1523.3126	2731.55	1837.95
892.0216	1525.1094	2715.9	1820.1
892.1645	1526.9055	2718.4	1826.9
892.3074	1528.7008	2707.4	1814.1
892.4503	1530.4954	2695.3	1798.35
892.5932	1532.2893	2690.25	1798.7
892.7361	1534.0824	2679.55	1782.8
892.879	1535.8747	2683.8	1789.5
893.0218	1537.6663	2673.45	1780.05
893.1647	1539.4572	2672.45	1778.4
893.3075	1541.2473	2674	1781.9
893.4503	1543.0367	2667.8	1774.25
893.5931	1544.8253	2677.85	1782.1
893.7359	1546.6132	2673.15	1778.3
893.8787	1548.4003	2689.15	1785.6
894.0214	1550.1867	2699.65	1797.95
894.1642	1551.9723	2715	1820.05
894.3069	1553.7572	2735.85	1844.15
894.4496	1555.5414	2764.25	1873.05
894.5923	1557.3247	2810.15	1920.3
894.735	1559.1074	2856.75	1969.35
894.8777	1560.8893	2924.35	2034.55
895.0204	1562.6705	2992.3	2102.7
895.163	1564.4509	3021	2133
895.3056	1566.2305	3070.25	2180.75
895.4482	1568.0094	3093.95	2207.05
895.5908	1569.7876	3094.4	2204.05
895.7334	1571.565	3112.75	2221.45
895.876	1573.3417	3110.1	2220.95
896.0186	1575.1176	3118.35	2226.15
896.1611	1576.8928	3139.25	2250.6
896.3036	1578.6672	3149.3	2262.25
896.4461	1580.4409	3165.2	2279.35
896.5886	1582.2138	3198	2308.95
896.7311	1583.986	3243.95	2354.75
896.8736	1585.7575	3303.35	2417.9
897.0161	1587.5282	3329.8	2443.45
897.1585	1589.2981	3379.3	2493.3
897.3009	1591.0673	3416.35	2529.6
897.4433	1592.8358	3446.8	2561.8
897.5857	1594.6035	3468.4	2579.05
897.7281	1596.3704	3484.4	2594.1
897.8705	1598.1366	3499.45	2611.1
898.0128	1599.9021	3477.35	2590.2
898.1551	1601.6668	3488.25	2599.45
898.2975	1603.4308	3493.5	2605.1
898.4398	1605.194	3523.55	2633.6
898.5821	1606.9564	3552.8	2667.1
898.7243	1608.7182	3624.8	2739.45
898.8666	1610.4791	3711.15	2829.25
899.0088	1612.2394	3829.65	2946.3
899.1511	1613.9988	3954.4	3070.45
899.2933	1615.7576	4095.7	3211
899.4355	1617.5156	4211.65	3321.6
899.5776	1619.2728	4269.1	3381.45
899.7198	1621.0293	4246.2	3358.8
899.862	1622.785	4177.15	3290.05
900.0041	1624.54	4028.9	3139.15
900.1462	1626.2942	3874.65	2988.45
900.2883	1628.0477	3691.75	2803.85
900.4304	1629.8005	3532.75	2644.5
900.5725	1631.5525	3397.2	2513.4
900.7145	1633.3037	3267.7	2383.75
900.8566	1635.0542	3164.1	2280.45
900.9986	1636.804	3075.45	2191.2
901.1406	1638.553	3057.8	2106.6
901.2826	1640.3013	2969.05	2087.5
901.4245	1642.0488	2920.75	2036.7
901.5665	1643.7955	2894.9	2013.65
901.7085	1645.5416	2897.85	2015.1
901.8504	1647.2868	2904.4	2020.2
901.9923	1649.0313	2896.9	2013.9
902.1342	1650.7751	2921.5	2032.5
902.2761	1652.5181	2921.15	2036.55
902.4179	1654.2604	2935.3	2050.3
902.5598	1656.0019	2988.45	2104.85
902.7016	1657.7427	3038.65	2156.35
902.8434	1659.4828	3111.75	2226.05
902.9852	1661.222	3168.5	2284.05
903.127	1662.9606	3215.45	2332.05
903.2687	1664.6984	3199.2	2312.1
903.4105	1666.4354	3129.9	2245.1
903.5522	1668.1717	3005.25	2119.8
903.6939	1669.9072	2850.3	1965.55
903.8356	1671.642	2728.55	1842.55
903.9773	1673.3761	2620.7	1734.4
904.119	1675.1094	2535	1652.2
904.2606	1676.8419	2467.85	1583.85
904.4022	1678.5737	2416.9	1532.4
904.5439	1680.3048	2383.95	1500.7
904.6855	1682.0351	2347.7	1461.6
904.827	1683.7646	2311.65	1426.15
904.9686	1685.4934	2298.85	1416
905.1101	1687.2215	2278.85	1392.05
905.2517	1688.9488	2250	1368.4
905.3932	1690.6754	2237.2	1356.25
905.5347	1692.4012	2237.9	1355.1
905.6761	1694.1263	2214.4	1331.95
905.8176	1695.8506	2217.75	1330.05
905.9591	1697.5742	2199.3	1317.8
906.1005	1699.297	2179.15	1296.95
906.2419	1701.0191	2172.1	1288.95
906.3833	1702.7404	2153.25	1269.05
906.5246	1704.461	2151.15	1267.65
906.666	1706.1808	2138.35	1254.8
906.8073	1707.8999	2133.4	1248.95
906.9487	1709.6182	2131.15	1248.65
907.09	1711.3358	2121.65	1240.4
907.2313	1713.0527	2108.8	1227.5
907.3725	1714.7688	2118.2	1227.9
907.5138	1716.4841	2095.2	1211.2
907.655	1718.1987	2090.8	1203.7
907.7962	1719.9126	2096.35	1216.45
907.9374	1721.6257	2078	1191.6
908.0786	1723.338	2071.55	1190.35
908.2198	1725.0496	2065	1182.6
908.3609	1726.7605	2070.35	1188.95
908.502	1728.4706	2070.65	1188.05
908.6431	1730.18	2058.7	1173.55
908.7842	1731.8886	2050.6	1169.6
908.9253	1733.5964	2066.2	1164.15
909.0664	1735.3036	2046.9	1162
909.2074	1737.0099	2032.5	1151.65
909.3484	1738.7156	2038.7	1157.2
909.4894	1740.4204	2025.35	1141.85
909.6304	1742.1246	2021.95	1139.95
909.7714	1743.8279	2015.5	1133.2
909.9123	1745.5306	2007.85	1125.7
910.0532	1747.2325	2002.1	1120.25
910.1941	1748.9336	1998.8	1117.05
910.335	1750.634	1992.45	1108.75
910.4759	1752.3336	1991.45	1108.4
910.6168	1754.0325	1995.2	1115.5
910.7576	1755.7307	1987.65	1104.8
910.8984	1757.4281	1979.85	1095.9
911.0392	1759.1247	1990.85	1100.45
911.18	1760.8206	1981.85	1094.15
911.3208	1762.5158	1975.8	1089.3
911.4615	1764.2102	1977.7	1095.45
911.6022	1765.9039	1980.4	1100.9
911.7429	1767.5968	1961	1080.05
911.8836	1769.289	1956.5	1077.1
912.0243	1770.9804	1959.2	1075.7
912.1649	1772.6711	1950.2	1065.5
912.3056	1774.361	1949.65	1067.15
912.4462	1776.0502	1953.05	1071.25
912.5868	1777.7386	1954.15	1068.15
912.7274	1779.4263	1951	1069.15
912.8679	1781.1132	1940.25	1060
913.0084	1782.7994	1944.4	1060.95
913.149	1784.4849	1932	1051.4
913.2895	1786.1696	1945.7	1045.6
913.4299	1787.8535	1927.7	1047.7
913.5704	1789.5367	1921.5	1041.5
913.7108	1791.2192	1923.75	1044.7
913.8513	1792.9009	1948.45	1041
913.9917	1794.5818	1917.9	1033.55
914.132	1796.2621	1918.7	1039.1
914.2724	1797.9415	1904.45	1022.7
914.4128	1799.6202	1897	1012.05
914.5531	1801.2982	1908.95	1026.4
914.6934	1802.9755	1900.3	1017.8
914.8337	1804.6519	1903.4	1022.3
914.9739	1806.3277	1882.65	999.25
915.1142	1808.0027	1879.75	1000.25
915.2544	1809.6769	1891.75	1011.85
915.3946	1811.3504	1884.3	1001.65
915.5348	1813.0231	1881.3	999.1
915.675	1814.6951	1880.75	1001.05
915.8151	1816.3664	1876.45	990.8
915.9553	1818.0369	1879.9	998.9
916.0954	1819.7067	1861.2	980.2
916.2355	1821.3757	1879.1	996.65
916.3755	1823.044	1867.55	987.4
916.5156	1824.7115	1869.15	985.7
916.6556	1826.3783	1871.2	991.2
916.7956	1828.0443	1860.75	980.2
916.9356	1829.7096	1856.3	972.75
917.0756	1831.3741	1861.9	976.5
917.2155	1833.0379	1847.45	967.6
917.3555	1834.701	1862.6	981.5
917.4954	1836.3633	1847.8	968.8
917.6353	1838.0248	1842.05	959.25
917.7751	1839.6856	1839.45	957.25
917.915	1841.3457	1843.65	962.9
918.0548	1843.005	1845.35	965.45
918.1946	1844.6636	1837.55	957.75
918.3344	1846.3214	1830.4	949.25
918.4742	1847.9785	1842.65	962.65
918.6139	1849.6349	1835.65	951.8
918.7537	1851.2904	1833.2	941.65
918.8934	1852.9453	1833.95	950.85
919.0331	1854.5994	1821.1	936.65
919.1727	1856.2528	1828.65	941.9
919.3124	1857.9054	1829.95	948.15
919.452	1859.5572	1819.4	940.05
919.5916	1861.2083	1810.6	928.25
919.7312	1862.8587	1817.8	937.7
919.8708	1864.5084	1808.3	924.15
920.0103	1866.1572	1811.15	928.75
920.1498	1867.8054	1808.35	926.95
920.2893	1869.4528	1806.9	924.8
920.4288	1871.0994	1797.2	916.25
920.5683	1872.7453	1793.4	911
920.7077	1874.3905	1789.55	899.65
920.8471	1876.0349	1796.15	913.65
920.9865	1877.6786	1793.65	909.5
921.1259	1879.3215	1791.1	910.35
921.2653	1880.9637	1792.25	911.8
921.4046	1882.6051	1788.9	908.65
921.5439	1884.2458	1793.25	910.85
921.6832	1885.8858	1785.6	904.05
921.8225	1887.525	1768.2	886.2
921.9617	1889.1634	1778.35	897.95
922.101	1890.8011	1777.5	896.95
922.2402	1892.4381	1764.35	884.4
922.3794	1894.0743	1765.15	885.1
922.5185	1895.7098	1755.6	875.1
922.6577	1897.3446	1760.95	879.85
922.7968	1898.9786	1771.4	884.4
922.9359	1900.6118	1754.15	873.7
923.075	1902.2443	1754.85	869.7
923.214	1903.8761	1754.35	872.1
923.3531	1905.5071	1747.35	863.85
923.4921	1907.1374	1745.95	865.3
923.6311	1908.7669	1735.85	853
923.77	1910.3957	1747.35	867.55
923.909	1912.0237	1724.7	845.45
924.0479	1913.651	1736.2	855.15
924.1868	1915.2776	1724.7	843.95
924.3257	1916.9034	1721.35	841.35
924.4646	1918.5285	1724.15	843.75
924.6034	1920.1528	1719.65	837.95
924.7422	1921.7764	1718.5	838.7
924.881	1923.3992	1709.95	829.4
925.0198	1925.0213	1701.95	822.6
925.1586	1926.6427	1702.1	823.35
925.2973	1928.2633	1779.95	813.8
925.436	1929.8832	1715.35	834.4
925.5747	1931.5023	1695.15	812.35
925.7134	1933.1207	1692.1	809.85
925.852	1934.7383	1690.75	809.8
925.9906	1936.3552	1695.35	813.8
926.1292	1937.9714	1692.75	811.75
926.2678	1939.5868	1682.7	798.2
926.4064	1941.2015	1681.95	801.2
926.5449	1942.8154	1674.75	794.2
926.6834	1944.4286	1674.05	793.05
926.8219	1946.041	1690.3	786.1
926.9604	1947.6528	1672.2	787.4
927.0988	1949.2637	1665.45	785.55
927.2372	1950.8739	1661.2	778.65
927.3756	1952.4834	1658.35	775.75
927.514	1954.0921	1654.65	771.95
927.6523	1955.7001	1655.85	771.25
927.7907	1957.3074	1653.75	772.1
927.929	1958.9139	1651.85	771.3
928.0673	1960.5197	1649.15	766.75
928.2055	1962.1247	1651.95	771.35
928.3438	1963.729	1641.2	762.25
928.482	1965.3325	1638.95	751.75
928.6202	1966.9353	1631.85	752.6
928.7584	1968.5374	1632.9	750.1
928.8965	1970.1387	1629.65	750.15
929.0346	1971.7393	1628.7	748
929.1727	1973.3392	1622.7	740.45
929.3108	1974.9383	1618.4	738.9
929.4489	1976.5366	1615.2	735.7
929.5869	1978.1342	1616.05	737.8
929.7249	1979.7311	1618.85	739.05
929.8629	1981.3273	1612.4	732.7
930.0009	1982.9227	1606.5	725.8
930.1388	1984.5173	1599.85	720.8
930.2767	1986.1112	1610.2	730
930.4146	1987.7044	1594	716.75
930.5525	1989.2968	1601.85	719.65
930.6904	1990.8885	1600.85	717.6
930.8282	1992.4795	1600.3	718.95
930.966	1994.0697	1595.35	716.15
931.1038	1995.6592	1583.75	704.65
931.2415	1997.2479	1588.75	708.5
931.3793	1998.8359	1590.35	711
931.517	2000.4232	1581.4	703.95
931.6547	2002.0097	1583.35	706.5
931.7923	2003.5955	1576.2	697.1
931.93	2005.1805	1573.5	693.4
932.0676	2006.7648	1576.85	700.3
932.2052	2008.3484	1578.8	698.35
932.3427	2009.9312	1570.2	690.2
932.4803	2011.5133	1557.6	680.75
932.6178	2013.0946	1568.2	690.3
932.7553	2014.6752	1562.15	686.25
932.8928	2016.2551	1568.6	689.25
933.0302	2017.8342	1557.55	679.2
933.1676	2019.4126	1552.35	676.65
933.305	2020.9902	1557.7	681.65
933.4424	2022.5672	1558.7	678.75
933.5798	2024.1433	1554.8	672.5
933.7171	2025.7188	1548.5	671.9
933.8544	2027.2935	1545.7	666.55
933.9917	2028.8674	1549.85	672.05
934.129	2030.4406	1549.4	674.35
934.2662	2032.0131	1533.4	658.5
934.4034	2033.5849	1539.8	658.2
934.5406	2035.1559	1531.55	656.55
934.6778	2036.7261	1535.3	656.85
934.8149	2038.2957	1535.85	658.3
934.952	2039.8645	1526.15	649.35
935.0891	2041.4325	1541	658.8
935.2262	2042.9998	1525.65	649.65
935.3632	2044.5664	1529.65	649.75
935.5002	2046.1323	1522.4	645.5
935.6372	2047.6974	1522.4	645.9
935.7742	2049.2617	1514.55	638.15
935.9111	2050.8254	1524.3	641.35
936.048	2052.3883	1520.2	642.45
936.1849	2053.9504	1516.95	637.6
936.3218	2055.5118	1507.4	629.3
936.4586	2057.0725	1517.3	631.45
936.5955	2058.6325	1511.55	634.1
936.7323	2060.1917	1497.05	619.4
936.869	2061.7502	1514.45	633.95
937.0058	2063.3079	1509.05	633.05
937.1425	2064.8649	1505.95	622.55
937.2792	2066.4212	1504.55	624.1
937.4159	2067.9767	1500.15	622.05
937.5525	2069.5315	1500.3	623.8
937.6891	2071.0856	1485.7	607.75
937.8257	2072.6389	1493.1	616.25
937.9623	2074.1915	1485.4	611.15
938.0989	2075.7433	1477.5	597.25
938.2354	2077.2945	1482.8	606.45
938.3719	2078.8448	1492.55	614.65
938.5084	2080.3945	1482.15	600.45
938.6448	2081.9434	1480.6	602.95
938.7812	2083.4916	1471.25	590.85
938.9176	2085.039	1482.7	600.55
939.054	2086.5857	1480.1	597.2
939.1903	2088.1317	1474.15	592
939.3267	2089.677	1467.1	584.05
939.463	2091.2215	1470.4	592.15
939.5992	2092.7652	1468.9	584.7
939.7355	2094.3083	1465.3	584.7
939.8717	2095.8506	1462.6	583.15
940.0079	2097.3921	1467.45	586.15
940.1441	2098.933	1464.75	585.6
940.2802	2100.4731	1456.4	576.15
940.4163	2102.0124	1473.4	577.65
940.5524	2103.5511	1454.7	577
940.6885	2105.089	1461.05	579.95
940.8245	2106.6261	1462.1	581.45
940.9606	2108.1626	1456.9	577
941.0965	2109.6983	1482.7	574.5
941.2325	2111.2332	1447.4	566.35
941.3684	2112.7675	1445.6	563.75
941.5044	2114.301	1447.75	564.6
941.6403	2115.8337	1449.2	568.35
941.7761	2117.3657	1443.5	562.15
941.912	2118.897	1439.6	557.8
942.0478	2120.4276	1447.1	560.05
942.1835	2121.9575	1440.85	559.75
942.3193	2123.4866	1444.85	561.5
942.455	2125.0149	1437.5	555.95
942.5907	2126.5426	1435.05	556.25
942.7264	2128.0695	1440.35	558
942.8621	2129.5956	1423.05	548.65
942.9977	2131.1211	1434.8	550.7
943.1333	2132.6458	1429.3	552.35
943.2689	2134.1698	1425.2	545.4
943.4044	2135.693	1430.6	546.7
943.54	2137.2155	1427.95	545.5
943.6755	2138.7373	1429.85	548.75
943.8109	2140.2584	1417.7	539.35
943.9464	2141.7787	1422.9	540.6
944.0818	2143.2983	1417.3	539.8
944.2172	2144.8171	1412.7	537.4
944.3526	2146.3353	1413.8	531.6
944.4879	2147.8527	1416.45	539.3
944.6232	2149.3693	1411.6	530
944.7585	2150.8853	1408.25	526.9
944.8938	2152.4005	1406.5	525.25
945.029	2153.9149	1399.85	518.5
945.1642	2155.4287	1405.45	524.75
945.2994	2156.9417	1406.35	524.7
945.4346	2158.454	1400.9	519.4
945.5697	2159.9655	1400.4	522.35
945.7048	2161.4764	1394.25	515.5
945.8399	2162.9865	1400.45	521.05
945.9749	2164.4958	1390.1	510.1
946.1099	2166.0045	1401.45	520
946.2449	2167.5124	1390.4	509.95
946.3799	2169.0195	1389.35	507.95
946.5148	2170.526	1390.3	508.7
946.6498	2172.0317	1390.35	509.1
946.7846	2173.5367	1394.35	514.05
946.9195	2175.0409	1387.95	509.9
947.0543	2176.5445	1384.75	505.15
947.1891	2178.0473	1383.5	502.9
947.3239	2179.5494	1387.1	504
947.4587	2181.0507	1383.55	503.25
947.5934	2182.5513	1379.65	498.55
947.7281	2184.0512	1384.35	503.75
947.8628	2185.5504	1378.65	499.05
947.9974	2187.0488	1368.55	490.35
948.132	2188.5465	1370.7	491.5
948.2666	2190.0435	1369.3	488.3
948.4012	2191.5397	1371.65	489.1
948.5357	2193.0353	1375	494.8
948.6702	2194.5301	1365.4	482.9
948.8047	2196.0241	1371.65	492.35
948.9392	2197.5175	1359.65	476.4
949.0736	2199.0101	1368.6	483.85
949.208	2200.502	1359	478.5
949.3424	2201.9931	1355.7	475.15
949.4767	2203.4835	1355.75	476
949.611	2204.9733	1363.45	477.35
949.7453	2206.4622	1349.7	472.7
949.8796	2207.9505	1349.3	468.25
950.0138	2209.438	1346.85	469.1
950.148	2210.9248	1345.1	464.15
950.2822	2212.4109	1345	467.7
950.4164	2213.8962	1346	462.15
950.5505	2215.3809	1344.9	462.1
950.6846	2216.8648	1349.2	466.7
950.8186	2218.3479	1346	458.2
950.9527	2219.8304	1338.25	453.2
951.0867	2221.3121	1340.8	455.5
951.2207	2222.7931	1334.3	453.6
951.3546	2224.2733	1334.85	451.9
951.4886	2225.7529	1332.9	452.05
951.6225	2227.2317	1333.65	453.95
951.7563	2228.7098	1326.3	445.85
951.8902	2230.1872	1322.9	444.2
952.024	2231.6638	1327.65	447
952.1578	2233.1397	1325.45	443.35
952.2916	2234.6149	1320.25	442.75
952.4253	2236.0894	1319.15	438.15
952.559	2237.5632	1330.85	441.65
952.6927	2239.0362	1314.6	434.8
952.8263	2240.5085	1315.85	435.6
952.9599	2241.9801	1316.95	435.35
953.0935	2243.4509	1313.15	431.2
953.2271	2244.921	1310.95	429
953.3606	2246.3904	1312.35	428
953.4941	2247.8591	1312.1	433.3
953.6276	2249.3271	1304.4	424.45
953.7611	2250.7943	1306.9	424.05
953.8945	2252.2608	1303.35	421.75
954.0279	2253.7266	1299.3	421.3
954.1612	2255.1917	1301.65	422.2
954.2946	2256.656	1299.4	420.75
954.4279	2258.1197	1299.8	420.95
954.5612	2259.5826	1297.05	414.35
954.6944	2261.0447	1302.5	422.85
954.8276	2262.5062	1289.35	407.9
954.9608	2263.9669	1295.75	413.25
955.094	2265.4269	1295	413.15
955.2271	2266.8862	1287.2	405.1
955.3602	2268.3448	1293.05	410.85
955.4933	2269.8026	1290.1	408.9
955.6264	2271.2598	1290.25	409.8
955.7594	2272.7162	1287	409.35
955.8924	2274.1719	1288.4	405.9
956.0253	2275.6268	1282.45	400.8
956.1583	2277.0811	1284.55	405.3
956.2912	2278.5346	1280.55	400.15
956.4241	2279.9874	1279.45	400.85
956.5569	2281.4395	1284.6	405.2
956.6897	2282.8908	1281.5	397.1
956.8225	2284.3414	1276.05	395.3
956.9553	2285.7914	1281.3	402.35
957.088	2287.2406	1281.45	397.85
957.2207	2288.689	1275.75	393.05
957.3534	2290.1368	1272.15	388.65
957.486	2291.5838	1272.35	388.3
957.6186	2293.0302	1273.6	388.9
957.7512	2294.4758	1271.1	389.75
957.8838	2295.9206	1273.05	388.65
958.0163	2297.3648	1270.55	392.1
958.1488	2298.8082	1269.25	387.25
958.2813	2300.251	1268.65	386
958.4137	2301.693	1276.9	392.05
958.5461	2303.1343	1264.4	381.35
958.6785	2304.5748	1267.5	385.95
958.8108	2306.0147	1255.9	377.2
958.9432	2307.4538	1260.8	377.65
959.0754	2308.8922	1262	384.85
959.2077	2310.3299	1265.6	386.2
959.3399	2311.7669	1254.15	377.85
959.4721	2313.2031	1255	374.55
959.6043	2314.6387	1257.6	375.05
959.7365	2316.0735	1255.15	374.7
959.8686	2317.5076	1254.1	372.85
960.0006	2318.941	1253.55	371.2
960.1327	2320.3737	1254.8	372.4
960.2647	2321.8056	1258.3	376
960.3967	2323.2369	1254.3	373.25
960.5287	2324.6674	1252.65	369.35
960.6606	2326.0972	1251.45	368.75
960.7925	2327.5263	1245.3	364.35
960.9244	2328.9547	1246.3	362.4
961.0562	2330.3823	1251.25	368.15
961.1881	2331.8092	1253.2	369.05
961.3198	2333.2355	1239.1	356.55
961.4516	2334.661	1232.8	352
961.5833	2336.0858	1238.8	355.85
961.715	2337.5098	1241.65	358.5
961.8467	2338.9332	1237.4	353
961.9783	2340.3558	1240.6	357.8
962.1099	2341.7778	1234.4	352.9
962.2415	2343.199	1236.4	353.25
962.373	2344.6195	1234.85	354.95
962.5045	2346.0393	1230.7	349.85
962.636	2347.4583	1230.85	348.6
962.7675	2348.8767	1233.55	351.55
962.8989	2350.2943	1226.05	343.45
963.0303	2351.7113	1234.9	350.3
963.1617	2353.1275	1229.65	347.65
963.293	2354.543	1253.25	346
963.4243	2355.9578	1228.85	344.75
963.5556	2357.3718	1223.15	341.35
963.6868	2358.7852	1221.05	338
963.818	2360.1978	1225.4	343.65
963.9492	2361.6098	1220.7	339.2
964.0803	2363.021	1223.6	338.75
964.2114	2364.4315	1218.9	338.45
964.3425	2365.8413	1220.45	338.65
964.4736	2367.2504	1218.85	339.9
964.6046	2368.6587	1222.75	341.35
964.7356	2370.0664	1215.6	336.45
964.8666	2371.4733	1214.65	332.35
964.9975	2372.8795	1217.1	336.4
965.1284	2374.285	1209.75	327.75
965.2593	2375.6899	1215.7	334.3
965.3901	2377.0939	1213.35	332.35
965.5209	2378.4973	1205.2	324.35
965.6517	2379.9	1210.55	326.8
965.7825	2381.3019	1206.45	325
965.9132	2382.7032	1202.95	322.1
966.0439	2384.1037	1200	322.4
966.1745	2385.5035	1200.65	321.1
966.3051	2386.9027	1203.5	323
966.4357	2388.3011	1201.7	319.3
966.5663	2389.6987	1200.15	317.4
966.6968	2391.0957	1192.75	309.75
966.8273	2392.492	1188.9	308.85
966.9578	2393.8876	1193.7	312.95
967.0882	2395.2824	1188.65	307.5
967.2186	2396.6765	1191.6	310.55
967.349	2398.07	1191.5	310.25
967.4793	2399.4627	1190.5	309.35
967.6097	2400.8547	1189.05	308.1
967.7399	2402.246	1191.6	303.05
967.8702	2403.6366	1188.3	306.1
968.0004	2405.0265	1187.15	305.65
968.1306	2406.4156	1189	303.05
968.2607	2407.8041	1185.75	300.45
968.3909	2409.1918	1184.2	300.75
968.521	2410.5789	1183.2	300.1
968.651	2411.9652	1188.9	305.85
968.781	2413.3508	1188.2	307.45
968.911	2414.7358	1178.85	297.05
969.041	2416.12	1176.75	294.25
969.1709	2417.5035	1178.4	298.25
969.3008	2418.8863	1177	293.9
969.4307	2420.2684	1170.6	286.45
969.5606	2421.6497	1176.2	295.15
969.6904	2423.0304	1171.3	291
969.8201	2424.4104	1175.2	295.3
969.9499	2425.7896	1176.4	288.6
970.0796	2427.1682	1169.75	289.05
970.2093	2428.546	1173.1	290.95
970.3389	2429.9232	1168.45	285.85
970.4685	2431.2996	1166.7	285.4
970.5981	2432.6753	1169.1	286
970.7277	2434.0503	1169.75	286.7
970.8572	2435.4246	1162.2	281.55
970.9867	2436.7982	1165.9	284
971.1161	2438.1711	1163.5	280.7
971.2456	2439.5433	1164.95	280.9
971.375	2440.9148	1170.1	285.1
971.5043	2442.2856	1159.1	277.65
971.6336	2443.6557	1160.35	274.95
971.7629	2445.025	1154.6	273.6
971.8922	2446.3937	1154.8	272.75
972.0214	2447.7617	1156.5	273.65
972.1506	2449.1289	1162.25	280.6
972.2798	2450.4955	1164.4	278.8
972.4089	2451.8613	1157.5	277.5
972.538	2453.2265	1159.5	279.15
972.6671	2454.5909	1152.25	270.5
972.7961	2455.9546	1150.45	271.65
972.9251	2457.3177	1146.55	264.4
973.0541	2458.68	1145.55	264.35
973.1831	2460.0416	1150.45	270.45
973.312	2461.4025	1152.65	268.95
973.4408	2462.7627	1162.95	271.15
973.5697	2464.1222	1147.9	267.6
973.6985	2465.4811	1145.6	264.55
973.8273	2466.8392	1145.95	266.35
973.956	2468.1966	1149.05	266.2
974.0847	2469.5533	1153.5	271.75
974.2134	2470.9093	1153.35	273.2
974.3421	2472.2645	1147.1	261.2
974.4707	2473.6191	1148.9	267.9
974.5993	2474.973	1142.1	260.65
974.7278	2476.3262	1142.15	259.25
974.8563	2477.6787	1140.05	260.2
974.9848	2479.0305	1140.7	260.05
975.1132	2480.3816	1136.5	253.85
975.2417	2481.7319	1140.5	260.75
975.37	2483.0816	1141.4	257.8
975.4984	2484.4306	1139.8	258.95
975.6267	2485.7789	1131.05	249.35
975.755	2487.1264	1134.3	253.3
975.8833	2488.4733	1134.95	256.65
976.0115	2489.8195	1150.8	253.3
976.1397	2491.165	1134.9	252
976.2678	2492.5097	1137.6	255.7
976.3959	2493.8538	1127.85	247.55
976.524	2495.1972	1133.25	250.3
976.6521	2496.5398	1130.65	247.15
976.7801	2497.8818	1132.75	249.7
976.9081	2499.2231	1130.35	247.1
977.036	2500.5637	1129.55	247.6
977.164	2501.9035	1124	241.85
977.2918	2503.2427	1133.8	251
977.4197	2504.5812	1124.85	242.65
977.5475	2505.919	1124.3	239.3
977.6753	2507.256	1125.1	243.3
977.8031	2508.5924	1122.3	242.1
977.9308	2509.9281	1129.95	241.45
978.0585	2511.2631	1124.25	243.4
978.1861	2512.5974	1121.55	243.2
978.3137	2513.9309	1116.7	233.15
978.4413	2515.2638	1149.65	239.5
978.5689	2516.596	1117.85	236.85
978.6964	2517.9275	1119.95	237.2
978.8239	2519.2583	1115.7	233.1
978.9513	2520.5884	1120	235.65
979.0788	2521.9178	1114.7	234.65
979.2062	2523.2465	1111	232.4
979.3335	2524.5745	1111.75	232.45
979.4608	2525.9018	1117.85	237.05
979.5881	2527.2284	1109.4	230.45
979.7154	2528.5543	1109.95	230.15
979.8426	2529.8796	1115.75	234.55
979.9698	2531.2041	1116.9	236.9
980.0969	2532.5279	1105.55	223.55
980.224	2533.851	1105.35	223.95
980.3511	2535.1735	1106.4	225.85
980.4781	2536.4952	1107.05	227.05
980.6052	2537.8163	1109.25	226.85
980.7321	2539.1366	1110.55	229.4
980.8591	2540.4562	1106.8	225.3
980.986	2541.7752	1103.6	223.15
981.1129	2543.0935	1109.3	227.45
981.2397	2544.411	1109.4	225.45
981.3665	2545.7279	1104.65	223.45
981.4933	2547.0441	1112.3	229.2
981.62	2548.3596	1105.9	223.05
981.7467	2549.6744	1106.55	225.65
981.8734	2550.9885	1113.05	222.8
982.0001	2552.3019	1104.45	223.8
982.1267	2553.6146	1105.35	224.2
982.2532	2554.9266	1102.05	219.95
982.3798	2556.2379	1103.9	222.8
982.5063	2557.5485	1099.7	217.95
982.6327	2558.8585	1106.35	217.6
982.7592	2560.1677	1099.7	215.9
982.8856	2561.4762	1100.5	218.5
983.0119	2562.7841	1108.05	223.8
983.1383	2564.0913	1099.55	218.1
983.2646	2565.3977	1101.4	219.35
983.3908	2566.7035	1096.75	216.4
983.517	2568.0086	1105.65	223.1
983.6432	2569.313	1101.55	218.9
983.7694	2570.6167	1097.75	213.05
983.8955	2571.9197	1095.35	216.8
984.0216	2573.222	1103.6	220.95
984.1476	2574.5236	1099.45	218.85
984.2737	2575.8246	1098.8	215.65
984.3996	2577.1248	1098.2	214.9
984.5256	2578.4244	1094.45	212.2
984.6515	2579.7232	1094.85	214.2
984.7774	2581.0214	1117.35	210.6
984.9032	2582.3189	1091.3	211.85
985.029	2583.6157	1095.75	208.95
985.1548	2584.9118	1097.15	215.8
985.2806	2586.2072	1096	216.7
985.4063	2587.5019	1089	208.5
985.5319	2588.7959	1096.45	215.55
985.6576	2590.0893	1093.4	211.2
985.7832	2591.3819	1094.8	215.4
985.9087	2592.6739	1096.25	214
986.0343	2593.9652	1099.15	217.05
986.1597	2595.2557	1091.85	211.65
986.2852	2596.5456	1095.05	212.55
986.4106	2597.8348	1094.05	214.25
986.536	2599.1234	1090.85	210.65
986.6614	2600.4112	1089.05	207.95
986.7867	2601.6983	1095.85	211.7
986.912	2602.9848	1090.25	210
987.0372	2604.2705	1100.2	212.5
987.1624	2605.5556	1091.9	212.25
987.2876	2606.84	1087.75	208.25
987.4128	2608.1237	1093.05	211.85
987.5379	2609.4067	1084.55	204.75
987.6629	2610.689	1097.5	207.1
987.788	2611.9707	1090.85	205.75
987.913	2613.2516	1089.75	205.8
988.0379	2614.5319	1084.55	203.25
988.1629	2615.8115	1081.3	198.95
988.2878	2617.0903	1081.55	202.4
988.4126	2618.3685	1078.8	198.9
988.5375	2619.6461	1082.65	201.4
988.6622	2620.9229	1079.35	200.25
988.787	2622.199	1079.85	198.15
988.9117	2623.4745	1074.05	191.8
989.0364	2624.7493	1078.6	198.75
989.161	2626.0234	1080.65	202.4
989.2857	2627.2968	1079.9	201.75
989.4102	2628.5695	1073.8	193.75
989.5348	2629.8415	1074.1	195.55
989.6593	2631.1128	1078.8	198.8
989.7837	2632.3835	1075.35	195.35
989.9082	2633.6535	1067.5	187.65
990.0326	2634.9228	1074.55	193.4
990.1569	2636.1914	1074	196.15
990.2812	2637.4593	1076.4	198.1
990.4055	2638.7265	1074.65	194.15
990.5298	2639.9931	1071.85	190.85
990.654	2641.259	1074.1	191.5
990.7782	2642.5242	1070.15	189.85
990.9023	2643.7887	1069.95	190.6
991.0264	2645.0525	1074	193.25
991.1505	2646.3156	1068.55	188.8
991.2745	2647.5781	1067.2	186.75
991.3985	2648.8398	1064.85	185.8
991.5225	2650.1009	1071.45	181.15
991.6464	2651.3613	1065.2	185.8
991.7703	2652.6211	1064.35	184.5
991.8942	2653.8801	1059.3	181.1
992.018	2655.1385	1065.75	182.9
992.1418	2656.3961	1062.55	183.85
992.2655	2657.6531	1062.05	183.4
992.3892	2658.9094	1066.05	185.7
992.5129	2660.1651	1062.6	182.25
992.6366	2661.42	1065.5	186.3
992.7602	2662.6743	1065.45	185.5
992.8837	2663.9279	1062.6	184.35
993.0073	2665.1808	1061.75	183.2
993.1307	2666.433	1060.9	179.55
993.2542	2667.6846	1065.9	188.25
993.3776	2668.9354	1064.1	182.4
993.501	2670.1856	1068	186.95
993.6244	2671.4351	1064.3	185.8
993.7477	2672.6839	1067.05	184.3
993.8709	2673.9321	1060.55	179.8
993.9942	2675.1795	1068.45	188.95
994.1174	2676.4263	1063.95	183.45
994.2405	2677.6724	1065.05	187.4
994.3637	2678.9179	1067.95	187.15
994.4868	2680.1626	1064.4	185.1
994.6098	2681.4067	1069.3	191.95
994.7328	2682.6501	1068.35	189
994.8558	2683.8928	1063.1	186.25
994.9788	2685.1348	1060.75	182.1
995.1017	2686.3761	1060.35	182.6
995.2245	2687.6168	1056.75	176.95
995.3474	2688.8568	1057.5	177.6
995.4702	2690.0961	1054.85	176.35
995.5929	2691.3348	1058.3	179.05
995.7156	2692.5727	1056.55	176.15
995.8383	2693.81	1057.75	179.8
995.961	2695.0466	1054.15	177.2
996.0836	2696.2826	1057	176.95
996.2062	2697.5178	1073.05	174.1
996.3287	2698.7524	1057	179.15
996.4512	2699.9863	1053.5	171.75
996.5737	2701.2195	1055.35	176.3
996.6961	2702.452	1058.15	177
996.8185	2703.6839	1056.9	176.85
996.9408	2704.9151	1058.25	179.25
997.0631	2706.1456	1061.65	181.95
997.1854	2707.3755	1059.55	179.6
997.3077	2708.6046	1066.1	186.85
997.4299	2709.8331	1066.7	186.2
997.552	2711.0609	1067.95	187.6
997.6742	2712.2881	1067.65	188.6
997.7963	2713.5145	1066.3	185.15
997.9183	2714.7403	1070.55	192.1
998.0403	2715.9654	1070.55	192.75
998.1623	2717.1899	1091.4	195.45
998.2842	2718.4136	1078.5	201.15
998.4062	2719.6367	1077.6	197.45
998.528	2720.8591	1088.6	204.75
998.6498	2722.0809	1084.6	203.55
998.7716	2723.3019	1091.05	207.95
998.8934	2724.5223	1092.1	213.25
999.0151	2725.7421	1091.85	211.8
999.1368	2726.9611	1090.35	211.2
999.2584	2728.1795	1094.8	211.1
999.38	2729.3972	1086.95	208.15
999.5016	2730.6142	1088.15	202.6
999.6231	2731.8306	1077.95	199.2
999.7446	2733.0462	1073.65	194.35
999.8661	2734.2612	1073.7	191.55
999.9875	2735.4756	1065.1	185.7
1000.1089	2736.6892	1064.6	185.2
1000.2302	2737.9022	1057.9	178.95
1000.3515	2739.1145	1056.15	177.05
1000.4728	2740.3262	1063.6	178.4
1000.594	2741.5372	1052	175.35
1000.7152	2742.7475	1050.35	170.6
1000.8363	2743.9571	1045.55	166.75
1000.9575	2745.1661	1044	161.55
1001.0785	2746.3744	1040.2	160.15
1001.1996	2747.582	1038.9	157.9
1001.3206	2748.7889	1040.5	158.55
1001.4415	2749.9952	1034.65	156.65
1001.5625	2751.2008	1034.85	154.8
1001.6833	2752.4057	1036	156.75
1001.8042	2753.61	1031.45	153.4
1001.925	2754.8136	1033.6	153.1
1002.0458	2756.0165	1031.7	152.45
1002.1665	2757.2188	1028.85	149.95
1002.2872	2758.4204	1029.9	150.85
1002.4078	2759.6213	1028.1	147.65
1002.5285	2760.8215	1033.8	149.55
1002.649	2762.0211	1029.8	150.6
1002.7696	2763.22	1031.3	148.45
1002.8901	2764.4182	1029.85	148.75
1003.0106	2765.6158	1027.8	150.25
1003.131	2766.8127	1026.65	146.5
1003.2514	2768.009	1022.45	143.9
1003.3717	2769.2045	1023.55	144.8
1003.492	2770.3994	1028.7	148.15
1003.6123	2771.5936	1023.95	146.1
1003.7325	2772.7872	1018.55	140.35
1003.8527	2773.9801	1021.65	142.05
1003.9729	2775.1723	1034.35	141.05
1004.093	2776.3639	1020.95	142.65
1004.2131	2777.5548	1022.6	141.7
1004.3331	2778.745	1023.4	143.2
1004.4531	2779.9346	1016.7	138.85
1004.5731	2781.1235	1018.45	138.3
1004.693	2782.3117	1021.35	144.95
1004.8129	2783.4992	1016.8	139.45
1004.9328	2784.6861	1018.45	140.5
1005.0526	2785.8723	1022.05	144.05
1005.1723	2787.0579	1018.7	138.45
1005.2921	2788.2428	1019.9	140.6
1005.4118	2789.427	1020.1	141.8
1005.5314	2790.6106	1023.5	145.3
1005.651	2791.7935	1026	147.15
1005.7706	2792.9757	1023.4	144.85
1005.8902	2794.1573	1026.4	144.75
1006.0097	2795.3382	1027.7	152.35
1006.1291	2796.5184	1022.35	146.7
1006.2485	2797.698	1031.6	150.85
1006.3679	2798.8769	1031.6	153.1
1006.4873	2800.0551	1040.2	161.1
1006.6066	2801.2327	1037.25	156.1
1006.7258	2802.4096	1040.4	164.05
1006.8451	2803.5859	1042.25	162.05
1006.9642	2804.7615	1048.3	167.2
1007.0834	2805.9364	1050.65	173.55
1007.2025	2807.1106	1054.85	177.75
1007.3216	2808.2842	1063.5	184.45
1007.4406	2809.4572	1068.95	190.05
1007.5596	2810.6294	1075.3	196.8
1007.6785	2811.801	1080.2	202.85
1007.7975	2812.972	1082.4	207.35
1007.9163	2814.1423	1099.4	221.25
1008.0352	2815.3119	1114.45	236.05
1008.154	2816.4808	1116.7	238.5
1008.2727	2817.6491	1136.45	256.65
1008.3914	2818.8167	1145.1	268.25
1008.5101	2819.9837	1161.8	280.4
1008.6288	2821.15	1166.3	287.75
1008.7474	2822.3157	1187.55	310.65
1008.8659	2823.4807	1201.35	322.75
1008.9844	2824.645	1217.2	338.85
1009.1029	2825.8086	1229.2	351.65
1009.2214	2826.9716	1245.85	369.6
1009.3398	2828.134	1256.2	379.3
1009.4581	2829.2957	1267	387.6
1009.5764	2830.4567	1281.1	404.8
1009.6947	2831.617	1284.35	404.15
1009.813	2832.7767	1285.05	407.65
1009.9312	2833.9358	1285.45	407.8
1010.0493	2835.0941	1287.5	408.45
1010.1675	2836.2519	1278.05	401.45
1010.2855	2837.4089	1268.1	387.55
1010.4036	2838.5653	1265.4	387.15
1010.5216	2839.7211	1257.3	380.3
1010.6396	2840.8761	1271.9	391.4
1010.7575	2842.0306	1269.05	392.05
1010.8754	2843.1843	1274.75	399.9
1010.9932	2844.3374	1279.65	402.45
1011.111	2845.4899	1292.4	414.75
1011.2288	2846.6417	1300.9	424.9
1011.3465	2847.7928	1314.65	438.5
1011.4642	2848.9433	1328.05	451
1011.5818	2850.0931	1342.75	465.85
1011.6995	2851.2422	1356.8	475.9
1011.817	2852.3907	1367.15	489.45
1011.9345	2853.5385	1382.35	503.1
1012.052	2854.6857	1412.1	505.5
1012.1695	2855.8323	1391.75	514.8
1012.2869	2856.9781	1411.95	534
1012.4042	2858.1233	1420.25	542.2
1012.5216	2859.2679	1434.7	556.65
1012.6389	2860.4118	1443.6	565.85
1012.7561	2861.555	1463.1	582.1
1012.8733	2862.6976	1472.8	591.45
1012.9905	2863.8395	1476.15	598.1
1013.1076	2864.9808	1477.4	600.8
1013.2247	2866.1214	1491.95	615.35
1013.3417	2867.2614	1492.05	612.95
1013.4587	2868.4007	1503.9	624.45
1013.5757	2869.5393	1510.2	630.7
1013.6926	2870.6773	1509.8	628.8
1013.8095	2871.8146	1503.65	623.9
1013.9263	2872.9513	1510.85	628.75
1014.0431	2874.0874	1502.5	624.85
1014.1599	2875.2227	1499.2	621.55
1014.2766	2876.3574	1498.7	618.7
1014.3933	2877.4915	1491.15	613.15
1014.51	2878.6249	1476.35	600.1
1014.6266	2879.7577	1477.55	599.7
1014.7431	2880.8898	1479.8	590.7
1014.8596	2882.0212	1469.35	593.35
1014.9761	2883.152	1468.25	593
1015.0925	2884.2821	1464.5	588.15
1015.2089	2885.4116	1464.35	586.45
1015.3253	2886.5405	1466.6	588.35
1015.4416	2887.6686	1473.95	595
1015.5579	2888.7962	1475.45	600.55
1015.6741	2889.923	1479.5	604.15
1015.7903	2891.0493	1477.35	601.7
1015.9065	2892.1748	1484.7	607.1
1016.0226	2893.2997	1478.25	601.4
1016.1387	2894.424	1483.05	607.4
1016.2547	2895.5476	1488.5	610.05
1016.3707	2896.6706	1493.15	617.45
1016.4866	2897.7929	1493.8	614.65
1016.6025	2898.9145	1506.75	630
1016.7184	2900.0355	1511.65	634
1016.8342	2901.1559	1512.75	633.85
1016.95	2902.2756	1526.15	644.6
1017.0658	2903.3946	1526.05	650
1017.1815	2904.513	1532.45	651.75
1017.2971	2905.6308	1534.15	658
1017.4127	2906.7479	1543.15	664.35
1017.5283	2907.8643	1538.45	660.75
1017.6439	2908.9801	1553.3	676.45
1017.7594	2910.0953	1545.95	668.3
1017.8748	2911.2098	1552.4	673.15
1017.9902	2912.3236	1553.75	668
1018.1056	2913.4368	1538.2	658.65
1018.2209	2914.5494	1529.4	651.55
1018.3362	2915.6613	1524.05	640.75
1018.4515	2916.7725	1516.85	636.65
1018.5667	2917.8831	1512.8	633.7
1018.6819	2918.9931	1502.6	623
1018.797	2920.1024	1497.1	618.75
1018.9121	2921.211	1480.45	602.75
1019.0271	2922.319	1485.15	607.95
1019.1421	2923.4264	1480.3	603.35
1019.2571	2924.5331	1473.95	597.95
1019.372	2925.6391	1478.8	600.35
1019.4869	2926.7445	1478.35	604.2
1019.6017	2927.8493	1479.3	600.4
1019.7165	2928.9534	1488.55	611.25
1019.8313	2930.0569	1478.9	599.25
1019.946	2931.1597	1486.35	607.4
1020.0606	2932.2619	1478.7	600.85
1020.1753	2933.3634	1476.65	599
1020.2899	2934.4643	1491.1	608.5
1020.4044	2935.5645	1488.95	606.5
1020.5189	2936.6641	1484.25	604.3
1020.6334	2937.763	1470.6	593.05
1020.7478	2938.8613	1465.7	588.4
1020.8622	2939.959	1464.65	580.8
1020.9765	2941.056	1441.8	566.5
1021.0908	2942.1523	1436.35	557.3
1021.2051	2943.248	1414.5	536.8
1021.3193	2944.3431	1396.7	519.9
1021.4334	2945.4375	1371.5	495.3
1021.5476	2946.5313	1338.85	463.8
1021.6617	2947.6244	1324.65	446.55
1021.7757	2948.7169	1299.7	420.35
1021.8897	2949.8087	1283.85	407.4
1022.0037	2950.8999	1260.95	382.55
1022.1176	2951.9904	1246.65	371.45
1022.2315	2953.0803	1221.35	344.7
1022.3453	2954.1696	1215.45	338.15
1022.4591	2955.2582	1206.15	330.1
1022.5728	2956.3462	1192.25	314.15
1022.6865	2957.4335	1187.55	310.45
1022.8002	2958.5202	1185.1	306.4
1022.9138	2959.6062	1176.3	298.45
1023.0274	2960.6916	1169.05	294.35
1023.141	2961.7764	1157.2	278.4
1023.2545	2962.8605	1162.55	285.05
1023.3679	2963.9439	1155.45	279.25
1023.4813	2965.0267	1156.85	278.35
1023.5947	2966.1089	1180.65	282.55
1023.708	2967.1905	1151.55	275.55
1023.8213	2968.2714	1152.7	276
1023.9346	2969.3516	1156.8	279.65
1024.0478	2970.4312	1164.65	279.55
1024.1609	2971.5102	1155.35	278.05
1024.274	2972.5885	1159.55	284.1
1024.3871	2973.6662	1167.5	287.2
1024.5002	2974.7432	1160.6	286.05
1024.6132	2975.8196	1159.35	281.25
1024.7261	2976.8954	1156.2	279.8
1024.839	2977.9705	1154	278.75
1024.9519	2979.045	1156.25	279.8
1025.0647	2980.1188	1152.95	276.65
1025.1775	2981.192	1145.3	268.15
1025.2902	2982.2645	1145.95	268.1
1025.4029	2983.3364	1141.5	265.3
1025.5156	2984.4077	1128.8	251.25
1025.6282	2985.4783	1131.85	248.3
1025.7407	2986.5483	1114.65	238.2
1025.8532	2987.6177	1110.4	235.4
1025.9657	2988.6864	1100.85	226.15
1026.0782	2989.7545	1089.7	209.95
1026.1906	2990.8219	1086.65	209.7
1026.3029	2991.8887	1077.05	198.2
1026.4152	2992.9548	1072.25	194.25
1026.5275	2994.0204	1059.05	183.65
1026.6397	2995.0852	1050.4	174.5
1026.7519	2996.1495	1052.15	173.65
1026.864	2997.2131	1038	161.9
1026.9761	2998.276	1033.35	156.7
1027.0882	2999.3383	1027.45	150.8
1027.2002	3000.4	1022.95	144.25
1027.3122	3001.4611	1019	143.05
1027.4241	3002.5215	1015.55	139.25
1027.536	3003.5812	1008.35	131.95
1027.6478	3004.6404	1001.25	124.15
1027.7596	3005.6989	998.45	121.25
1027.8714	3006.7567	997.55	120.2
1027.9831	3007.8139	1022.2	114.35
1028.0947	3008.8705	993.1	117.4
1028.2064	3009.9264	994.2	115.8
1028.3179	3010.9818	986.15	110.95
1028.4295	3012.0364	982.25	104.65
1028.541	3013.0905	984.1	106.65
1028.6524	3014.1439	981.75	105.2
1028.7638	3015.1966	980.7	103.15
1028.8752	3016.2487	980.3	103.2
1028.9865	3017.3002	985.9	107.05
1029.0978	3018.3511	976.75	102.65
1029.209	3019.4013	976.6	100.4
1029.3202	3020.4509	974.4	100.3
1029.4314	3021.4998	975.2	96.9
1029.5425	3022.5481	975.45	96.9
1029.6535	3023.5958	971.5	97.1
1029.7645	3024.6428	973.2	95.9
1029.8755	3025.6892	970.7	95.35
1029.9864	3026.735	975.9	99
1030.0973	3027.7802	973.4	96.35
1030.2082	3028.8247	972.9	98.65
1030.319	3029.8685	974	96.7
1030.4297	3030.9118	972	95.05
1030.5404	3031.9544	970.8	95.7
1030.6511	3032.9963	970.5	92.95
1030.7617	3034.0376	972.1	97.05
1030.8723	3035.0783	977.9	97.05
1030.9829	3036.1184	977.75	100.15
1031.0934	3037.1578	975.4	97.4
1031.2038	3038.1966	973.75	96.9
1031.3142	3039.2348	973.6	98.1
1031.4246	3040.2723	983.85	97.65
1031.5349	3041.3092	973.15	97.35
1031.6452	3042.3455	973.9	96.85
1031.7554	3043.3811	975.25	98.45
1031.8656	3044.4161	973.4	96.9
1031.9758	3045.4505	977.85	101.85
1032.0859	3046.4842	974.8	97
1032.1959	3047.5173	972.8	98.95
1032.3059	3048.5498	978.55	100.75
1032.4159	3049.5816	972.45	97.2
1032.5258	3050.6128	972.15	95.8
1032.6357	3051.6434	977.35	98.15
1032.7455	3052.6734	975.4	98
1032.8553	3053.7027	970.85	93.25
1032.9651	3054.7314	969.15	92.7
1033.0748	3055.7594	969.2	93.75
1033.1845	3056.7868	967.8	88.7
1033.2941	3057.8136	969.8	92.35
1033.4037	3058.8398	968	92.15
1033.5132	3059.8653	966.4	90.65
1033.6227	3060.8902	967.15	89.25
1033.7321	3061.9145	969.15	91.9
1033.8415	3062.9381	967.65	92.05
1033.9509	3063.9612	987.95	94.95
1034.0602	3064.9835	965.75	89.95
1034.1694	3066.0053	967.2	87.85
1034.2787	3067.0264	964.85	89.65
1034.3878	3068.0469	964.85	87.55
1034.497	3069.0668	964.2	85.5
1034.6061	3070.086	961.65	87.15
1034.7151	3071.1046	961.45	84.6
1034.8241	3072.1226	960.9	81.95
1034.9331	3073.1399	956.25	78.4
1035.042	3074.1567	959.2	82.7
1035.1508	3075.1727	960.2	84.1
1035.2597	3076.1882	956.95	81.45
1035.3684	3077.203	952.7	74.3
1035.4772	3078.2173	952.5	76.65
1035.5859	3079.2308	954.8	75.05
1035.6945	3080.2438	950.5	71.75
1035.8031	3081.2561	947.05	71.1
1035.9117	3082.2678	946.55	68.3
1036.0202	3083.2789	946.15	68.35
1036.1286	3084.2893	941.8	65.1
1036.2371	3085.2991	944.4	67.8
1036.3454	3086.3083	945.8	64.7
1036.4538	3087.3169	939.8	60.75
1036.562	3088.3248	938.95	62.7
1036.6703	3089.3321	938.1	62.15
1036.7785	3090.3388	935.1	60.2
1036.8866	3091.3449	934.9	59.7
1036.9948	3092.3503	941.85	60.85
1037.1028	3093.3551	934.1	58.8
1037.2108	3094.3593	934.05	58.55
1037.3188	3095.3629	932.95	56.15
1037.4267	3096.3658	931.95	52.95
1037.5346	3097.3681	927.2	51.4
1037.6425	3098.3698	931.65	54.55
1037.7503	3099.3708	936.95	54.9
1037.858	3100.3713	929	53.8
1037.9657	3101.3711	927.65	52.15
1038.0734	3102.3702	1060.7	45.65
1038.181	3103.3688	929.5	51.65
1038.2886	3104.3667	925.05	50.75
1038.3961	3105.364	924.65	48.5
1038.5036	3106.3607	924.4	45.75
1038.611	3107.3568	926.35	48.35
1038.7184	3108.3522	922.4	47.7
1038.8257	3109.347	922.15	46.05
1038.933	3110.3412	926.9	48.75
1039.0403	3111.3348	924.4	49.7
1039.1475	3112.3277	921.6	44.95
1039.2547	3113.32	919	41.3
1039.3618	3114.3117	919.95	44.3
1039.4689	3115.3028	920.2	43.75
1039.5759	3116.2932	922.2	43.6
1039.6829	3117.2831	928.1	46.6
1039.7898	3118.2723	918	43.4
1039.8967	3119.2608	916.95	39.45
1040.0035	3120.2488	917.35	38.95
1040.1103	3121.2361	918.8	42.6
1040.2171	3122.2229	915.25	40.55
1040.3238	3123.209	913.9	36.15
1040.4305	3124.1944	916.05	41.4
1040.5371	3125.1793	917.25	41.2
1040.6437	3126.1635	913.45	37.05
1040.7502	3127.1471	914.45	39.9
1040.8567	3128.1301	913.5	36.9
1040.9631	3129.1125	912.7	36.6
1041.0695	3130.0942	914.9	38.85
1041.1759	3131.0753	920.9	35.55
1041.2822	3132.0558	914.55	34.65
1041.3884	3133.0357	913.2	34.5
1041.4946	3134.015	911.25	34.65
1041.6008	3134.9936	913.7	35.85
1041.7069	3135.9716	933.25	38
1041.813	3136.949	911.3	36.15
1041.919	3137.9258	929.85	35.5
1042.025	3138.902	917.75	37.5
1042.1309	3139.8775	912.9	35.75
1042.2368	3140.8524	911.05	35.1
1042.3427	3141.8267	914.25	36.05
1042.4485	3142.8004	912.35	37.55
1042.5542	3143.7735	913.85	31.85
1042.6599	3144.7459	912.05	35.35
1042.7656	3145.7178	910.2	32.55
1042.8712	3146.689	910.85	34.7
1042.9768	3147.6596	911.45	32.6
1043.0823	3148.6295	909.95	34.15
1043.1878	3149.5989	910.6	33.85
1043.2932	3150.5676	905.75	32.4
1043.3986	3151.5357	906.8	33.9
1043.5039	3152.5032	905.4	30.9
1043.6092	3153.4701	905.15	29.9
1043.7145	3154.4364	908.25	29.3
1043.8197	3155.402	904.65	29.5
1043.9248	3156.367	910.1	32.4
1044.03	3157.3315	944.7	32.25
1044.135	3158.2952	908.1	32.7
1044.24	3159.2584	904.45	28.1
1044.345	3160.221	907.1	28.95
1044.4499	3161.1829	903.3	27.5
1044.5548	3162.1442	902.65	26.55
1044.6596	3163.105	905.15	29.25
1044.7644	3164.065	906.5	31.5
1044.8692	3165.0245	908.35	30.85
1044.9739	3165.9834	905.3	29.2
1045.0785	3166.9416	906.6	30
1045.1831	3167.8993	905.35	30.15
1045.2877	3168.8563	907.75	30.25
1045.3922	3169.8127	903.25	27.2
1045.4966	3170.7684	903.65	26.65
1045.6011	3171.7236	905	28.5
1045.7054	3172.6782	906.7	31.9
1045.8098	3173.6321	905.2	29.1
1045.914	3174.5854	908.95	29.3
1046.0183	3175.5381	904.15	27.6
1046.1224	3176.4902	900.2	23.25
1046.2266	3177.4417	903.3	27.25
1046.3307	3178.3926	903.5	27.45
1046.4347	3179.3428	901.7	27.75
1046.5387	3180.2924	901.25	25.5
1046.6427	3181.2415	903.35	26.5
1046.7466	3182.1899	903.5	27.05
1046.8504	3183.1377	903.7	27.15
1046.9542	3184.0848	907.2	26
1047.058	3185.0314	902.2	28.5
1047.1617	3185.9773	900.45	23.55
1047.2654	3186.9227	901.75	25.3
1047.369	3187.8674	900.3	24.65
1047.4726	3188.8115	905.45	24.7
1047.5761	3189.755	900.9	28.05
1047.6796	3190.6979	900.15	23.7
1047.783	3191.6402	900.2	25.75
1047.8864	3192.5818	900.8	23.45
1047.9898	3193.5229	905.8	23.45
1048.0931	3194.4633	898.35	23.2
1048.1963	3195.4031	899.55	22.45
1048.2995	3196.3423	899.4	25.35
1048.4027	3197.2809	900	23.75
1048.5058	3198.2189	897.9	20.8
1048.6089	3199.1563	918.75	27.7
1048.7119	3200.0931	899.35	23.85
1048.8148	3201.0292	897.6	23.25
1048.9178	3201.9648	901.05	26.35
1049.0206	3202.8997	902.3	21.1
1049.1235	3203.834	899.25	21.25
1049.2262	3204.7677	900.1	23.7
1049.329	3205.7008	900.4	22.2
1049.4317	3206.6333	896.75	21.85
1049.5343	3207.5652	901	22.3
1049.6369	3208.4964	898.5	25.35
1049.7394	3209.4271	897.3	22.15
1049.8419	3210.3571	896.3	21.5
1049.9444	3211.2865	897.9	20.75
1050.0468	3212.2154	896.3	19.2
1050.1491	3213.1436	900.55	23.3
1050.2514	3214.0712	903.35	19.85
1050.3537	3214.9982	897.8	22.7
1050.4559	3215.9246	899.3	23.2
1050.5581	3216.8503	895.75	20.1
1050.6602	3217.7755	896.95	20.8
1050.7623	3218.7001	895.95	20.45
1050.8643	3219.624	897.65	21.15
1050.9663	3220.5473	896.85	21.7
1051.0682	3221.4701	898.95	21.05
1051.1701	3222.3922	897.1	20.5
1051.2719	3223.3137	897.25	21.55
1051.3737	3224.2346	897.7	22.5
1051.4754	3225.1549	894.55	21.1
1051.5771	3226.0746	896.7	20.35
1051.6788	3226.9937	896.35	20.55
1051.7804	3227.9121	893.8	18.75
1051.8819	3228.83	895.6	19.9
1051.9834	3229.7473	896.55	21.45
1052.0849	3230.6639	894.1	17.45
1052.1863	3231.5799	893.1	18
1052.2876	3232.4954	896.15	20.25
1052.3889	3233.4102	895.35	19.4
1052.4902	3234.3244	894.85	19.45
1052.5914	3235.238	895.55	19.25
1052.6926	3236.151	916.8	18.55
1052.7937	3237.0634	892.8	18.25
1052.8948	3237.9752	894.15	17.15
1052.9958	3238.8864	892.55	18.15
1053.0968	3239.797	894	18.55
1053.1977	3240.7069	893.15	16
1053.2986	3241.6163	894.05	15.8
1053.3994	3242.5251	893	18.45
1053.5002	3243.4332	893	19.7
1053.6009	3244.3408	892.95	15.85
1053.7016	3245.2477	894.8	20.75
1053.8022	3246.154	896.7	20.45
1053.9028	3247.0598	895.15	16.25
1054.0034	3247.9649	891.95	15.6
1054.1039	3248.8694	895.3	20.5
1054.2043	3249.7733	891.75	13.4
1054.3047	3250.6766	892.7	16.35
1054.4051	3251.5793	893.25	14.85
1054.5054	3252.4814	891.85	16.4
1054.6056	3253.3829	893.8	18.9
1054.7058	3254.2838	890.6	15.1
1054.806	3255.1841	891.8	16.75
1054.9061	3256.0838	892.75	18.55
1055.0061	3256.9829	889.55	15.55
1055.1062	3257.8814	893.25	16.15
1055.2061	3258.7792	894.4	15.7
1055.306	3259.6765	893.05	17.3
1055.4059	3260.5731	892.15	17.05
1055.5057	3261.4692	889.3	12.05
1055.6055	3262.3647	890.6	12
1055.7052	3263.2595	889.55	13.55
1055.8049	3264.1538	888.15	13.4
1055.9045	3265.0474	890.8	15.2
1056.0041	3265.9404	887.45	12.9
1056.1036	3266.8329	888.75	15.3
1056.2031	3267.7247	897.5	11.55
1056.3025	3268.616	885.25	11.1
1056.4019	3269.5066	889.2	13.4
1056.5013	3270.3966	888.55	11.25
1056.6005	3271.286	885.4	12
