Software Version:	3.9.2.0
Unit SN:	10000200
Spectrometer SN:	6960
Date:	3/8/2024 1:00:30 PM
Data Line Index:	25
Spectral Points:	2048
Integration time (ms):	125
Averages:	20
Delay (ms):	30000
Sequence Number:	1
Processing:	dark subtract
Laser Power (mW):	305
Laser Current (mA):	822
Laser Diode Temp (C):	25
Laser Case Temp (C):	26.1
System Temp (C):	26.1
Spectrometer Temp (C):	24
CCD Temp (C):	0.005
Secondary Temp (C):	20.008
Heatsink Temp (C):	20.708
CCDPCB Temp (C):	35.873
SecondaryPCB Temp (C):	28.882

Wavelength	RamanShift	Raw Counts	Dark Subtracted
787.061	30.1047	456.4	46.05
787.2016	32.3739	454.6	47.65
787.3422	34.6426	460.5	51.85
787.4828	36.9109	467.4	57.8
787.6235	39.1787	472.7	57.55
787.7642	41.4461	485.4	66.6
787.9049	43.7131	493.1	71.55
788.0456	45.9796	501.75	77.55
788.1863	48.2456	509.75	82.55
788.3271	50.5112	518.7	86.75
788.4679	52.7764	528.15	92.35
788.6087	55.0411	536.2	95.45
788.7496	57.3054	548.2	101.75
788.8904	59.5692	560.7	115.85
789.0313	61.8326	566.5	116.6
789.1722	64.0955	579.6	126.6
789.3132	66.3579	596.8	139.9
789.4541	68.6199	619.25	158.8
789.5951	70.8815	650.4	184.65
789.7361	73.1426	732.65	263.2
789.8771	75.4032	947.8	471.8
790.0181	77.6634	1458.7	978.7
790.1592	79.9231	2660.55	2172.25
790.3003	82.1824	5260.8	4754.5
790.4414	84.4412	9916.15	9375.4
790.5825	86.6995	16253.9	15670.2
790.7237	88.9574	22361.95	21739.6
790.8648	91.2148	26511.55	25865.75
791.006	93.4717	28347.65	27679.45
791.1472	95.7282	28623.65	27951.05
791.2885	97.9842	28337.4	27662.75
791.4297	100.2398	27619.95	26944.2
791.571	102.4949	26840.4	26161.9
791.7123	104.7495	25967.45	25288
791.8536	107.0036	25062.4	24378.5
791.9949	109.2573	24244.65	23564.2
792.1363	111.5105	23499.3	22811.95
792.2777	113.7632	22777.85	22087.65
792.4191	116.0154	22192.2	21492.8
792.5605	118.2672	21744.6	21057
792.7019	120.5185	21307	20611.75
792.8434	122.7693	20973.5	20274.05
792.9849	125.0197	20684.8	19984.9
793.1264	127.2696	20418.55	19714
793.2679	129.519	20223.4	19514.5
793.4094	131.7679	19987.75	19269.6
793.551	134.0163	19732	19017.6
793.6926	136.2642	19358.85	18639.75
793.8342	138.5117	19088.25	18360.55
793.9758	140.7587	18751.4	18026.75
794.1175	143.0052	18426.45	17699.8
794.2591	145.2512	18139.95	17411.65
794.4008	147.4967	17843.5	17117.25
794.5425	149.7417	17634.55	16906.85
794.6842	151.9863	17489.05	16753
794.826	154.2304	17384.1	16645.35
794.9677	156.4739	17232.8	16488.65
795.1095	158.717	17141.75	16399.05
795.2513	160.9596	16925.8	16174.6
795.3931	163.2017	16662.75	15914.45
795.535	165.4433	16381.85	15631.1
795.6768	167.6844	16037.65	15281.15
795.8187	169.925	15743.15	14988.05
795.9606	172.1651	15343.65	14587.7
796.1025	174.4047	15061.1	14300.05
796.2445	176.6439	14813.05	14055.7
796.3864	178.8825	14602.9	13834.45
796.5284	181.1206	14451.7	13678.95
796.6704	183.3582	14318.7	13543.95
796.8124	185.5954	14189.4	13414.55
796.9544	187.832	14125.85	13345.8
797.0965	190.0681	14106	13320.35
797.2386	192.3037	14090.1	13303.35
797.3806	194.5388	14066.35	13277.75
797.5228	196.7734	14141.65	13346.9
797.6649	199.0075	14215.95	13421.8
797.807	201.2411	14304.7	13512.55
797.9492	203.4742	14401.7	13606.55
798.0914	205.7068	14527.75	13727.1
798.2336	207.9389	14649.65	13844.3
798.3758	210.1704	14832.85	14039
798.518	212.4015	14967.55	14182.4
798.6603	214.632	15113.75	14331.4
798.8025	216.862	15273.05	14494.3
798.9448	219.0915	15377.2	14597.85
799.0871	221.3205	15505.25	14716.6
799.2294	223.549	15673.2	14898.1
799.3718	225.777	15849.8	15066.25
799.5141	228.0044	16043	15258.9
799.6565	230.2314	16327	15542.9
799.7989	232.4578	16528.75	15741.7
799.9413	234.6837	16761.35	15963.45
800.0837	236.909	16846.9	16049.15
800.2262	239.1339	16885.8	16064.8
800.3687	241.3582	16780.45	15972.1
800.5111	243.582	16583.6	15738.1
800.6536	245.8053	16410.4	15585.8
800.7961	248.0281	16260.35	15437.75
800.9387	250.2503	16179.6	15348.25
801.0812	252.472	16142.8	15316.6
801.2238	254.6932	16229.9	15404.75
801.3664	256.9139	16268.85	15441.5
801.509	259.134	16392.45	15562.75
801.6516	261.3536	16556.75	15723.6
801.7942	263.5727	16806.45	15975.2
801.9369	265.7912	16941.1	16111.55
802.0795	268.0092	17183.55	16353.15
802.2222	270.2267	17277.35	16451.9
802.3649	272.4436	17343.85	16509.45
802.5076	274.6601	17328	16484.6
802.6504	276.8759	17227.15	16389
802.7931	279.0913	17154.6	16316.35
802.9359	281.3061	17061.5	16219.1
803.0787	283.5204	17008.95	16159.8
803.2215	285.7341	17008.85	16159.35
803.3643	287.9473	17093.95	16232.85
803.5071	290.16	17202.25	16354.55
803.6499	292.3721	17376.35	16533.15
803.7928	294.5837	17693.9	16847.8
803.9357	296.7947	17986.45	17141.7
804.0786	299.0052	18155.7	17308.65
804.2215	301.2152	18103.65	17253.95
804.3644	303.4246	17854.05	17010.6
804.5074	305.6334	17420.3	16579.6
804.6503	307.8418	16961.9	16114.65
804.7933	310.0495	16551.1	15699.45
804.9363	312.2568	16169.4	15321
805.0793	314.4635	15816.1	14960.1
805.2223	316.6696	15616.45	14756.6
805.3653	318.8752	15464.5	14596.25
805.5084	321.0802	15410.25	14552.6
805.6514	323.2847	15455.05	14593.05
805.7945	325.4887	15484.35	14625.05
805.9376	327.692	15483.85	14623.4
806.0807	329.8949	15417.75	14553.9
806.2238	332.0972	15168.35	14302.7
806.367	334.2989	14930.15	14061
806.5101	336.5001	14661.45	13793.6
806.6533	338.7007	14477.15	13608.1
806.7965	340.9008	14336.8	13467.05
806.9397	343.1003	14202.6	13334.2
807.0829	345.2992	14116.45	13244.55
807.2261	347.4976	14047.45	13177.3
807.3693	349.6955	13972.3	13095.8
807.5126	351.8927	14018.5	13137.95
807.6559	354.0895	13972.7	13085.6
807.7991	356.2856	13967.5	13084.7
807.9424	358.4812	13946.5	13068.65
808.0857	360.6763	13947.5	13066.15
808.2291	362.8707	13910.85	13026.75
808.3724	365.0646	13986.25	13102.05
808.5158	367.258	13991.9	13109
808.6591	369.4508	14088.25	13200.65
808.8025	371.643	14189.05	13298.15
808.9459	373.8346	14213.85	13326.45
809.0893	376.0257	14297.1	13407.85
809.2327	378.2162	14275.25	13388.85
809.3762	380.4062	14251.35	13356.7
809.5196	382.5956	14105.8	13217.4
809.6631	384.7844	14009.8	13125.85
809.8066	386.9726	13861.65	12977.55
809.9501	389.1603	13783.6	12903
810.0936	391.3474	13766.3	12859.3
810.2371	393.5339	13723.85	12838.1
810.3806	395.7199	13671.55	12788.1
810.5241	397.9052	13744.2	12860.85
810.6677	400.09	13781.15	12901.65
810.8113	402.2743	13920.15	13036.15
810.9548	404.4579	14050.5	13165.45
811.0984	406.641	14238.55	13351.55
811.2421	408.8235	14410.7	13524
811.3857	411.0054	14630.05	13737.85
811.5293	413.1868	14932.65	14036.9
811.673	415.3675	15068.3	14171.95
811.8166	417.5477	15169.5	14277.7
811.9603	419.7273	15145.25	14245.95
812.104	421.9064	15070.55	14171.1
812.2477	424.0848	15016.35	14120.2
812.3914	426.2627	14837.55	13942.6
812.5351	428.4399	14559.95	13659.1
812.6788	430.6166	14237	13333.3
812.8226	432.7928	13894.15	12991.8
812.9663	434.9683	13558.8	12657.15
813.1101	437.1432	13347.1	12450.5
813.2539	439.3176	13178.85	12284.95
813.3977	441.4914	13037.8	12150.2
813.5415	443.6645	13034.45	12138.75
813.6853	445.8371	12983.75	12085.7
813.8291	448.0091	12945.35	12050.2
813.973	450.1806	12928.05	12031.25
814.1168	452.3514	12875.2	11978.15
814.2607	454.5216	12929.55	12022.35
814.4046	456.6913	12876.85	11980.65
814.5485	458.8603	12942.8	12046.8
814.6924	461.0288	12975.25	12081.75
814.8363	463.1967	12967.1	12075.85
814.9802	465.3639	13069.1	12176
815.1241	467.5306	13077.45	12180.05
815.2681	469.6967	13116.9	12224.15
815.412	471.8622	13205.2	12316.05
815.556	474.0271	13337.85	12445.95
815.7	476.1914	13369.55	12467.2
815.844	478.3551	13357.15	12459.25
815.988	480.5182	13397.85	12501.8
816.132	482.6807	13435.2	12548.2
816.276	484.8426	13584.3	12704.7
816.4201	487.0039	13934.1	13047.7
816.5641	489.1647	14321.75	13424.95
816.7082	491.3248	14691.95	13792
816.8522	493.4843	14842.1	13946.7
816.9963	495.6432	14785.9	13893.65
817.1404	497.8015	14688.6	13780.9
817.2845	499.9592	14600.2	13687.25
817.4286	502.1163	14474.95	13566.95
817.5727	504.2728	14184.2	13282.35
817.7168	506.4287	13870.95	12977.45
817.861	508.5839	13530	12640.65
818.0051	510.7386	13265.35	12366.95
818.1493	512.8927	13172.9	12263.45
818.2935	515.0461	13108.4	12199.55
818.4377	517.199	13126.3	12219.65
818.5818	519.3512	13251.7	12343.75
818.726	521.5029	13482.25	12572.15
818.8703	523.6539	13664.3	12760.8
819.0145	525.8043	13778.8	12869.05
819.1587	527.9541	13732.1	12818.8
819.303	530.1033	13580.75	12670.45
819.4472	532.2519	13502.15	12592.1
819.5915	534.3999	13520.25	12608.7
819.7357	536.5472	13651.75	12742.3
819.88	538.694	13960.25	13054.9
820.0243	540.8401	14357.4	13447.65
820.1686	542.9856	14662.2	13744.2
820.3129	545.1305	14729.75	13806.35
820.4572	547.2748	14633.5	13704.45
820.6016	549.4185	14390.85	13464.85
820.7459	551.5615	14198.7	13269.7
820.8902	553.704	14143.7	13218.45
821.0346	555.8458	14177.7	13259.25
821.1789	557.987	14311.65	13392.9
821.3233	560.1276	14442.5	13520.9
821.4677	562.2675	14704.25	13780.35
821.6121	564.4069	15062.5	14140.7
821.7565	566.5456	15391.55	14475.65
821.9009	568.6837	15492.15	14574.5
822.0453	570.8212	15137.3	14220.6
822.1897	572.958	14543.8	13627.1
822.3342	575.0942	13993.85	13079.3
822.4786	577.2299	13643.3	12731.55
822.6231	579.3648	13491.3	12594.6
822.7675	581.4992	13483.2	12594.85
822.912	583.6329	13615.5	12727.55
823.0565	585.766	13794.65	12900
823.201	587.8985	13954.8	13050.8
823.3454	590.0304	14011.5	13076.65
823.4899	592.1616	13960.1	13041.15
823.6345	594.2922	13826.35	12903.55
823.779	596.4222	13671.1	12742.95
823.9235	598.5515	13449.2	12520.05
824.068	600.6802	13275.85	12346.45
824.2126	602.8083	13097.1	12176.8
824.3571	604.9358	13084.45	12158.15
824.5017	607.0626	13084.05	12158.95
824.6462	609.1888	13131.05	12197.1
824.7908	611.3144	13224.75	12292.75
824.9354	613.4393	13278.45	12347.6
825.08	615.5636	13329.2	12399.05
825.2246	617.6873	13301.25	12372.8
825.3692	619.8103	13261.95	12329.75
825.5138	621.9327	13095.7	12167.65
825.6584	624.0544	12931.7	12008.75
825.803	626.1756	12785.85	11860.95
825.9477	628.2961	12666.6	11738.4
826.0923	630.4159	12611.25	11682.7
826.237	632.5351	12560.5	11631.6
826.3816	634.6537	12570.8	11639.35
826.5263	636.7716	12542.95	11607.05
826.6709	638.8889	12544.35	11606.15
826.8156	641.0056	12593.45	11651.95
826.9603	643.1216	12573.1	11637.15
827.105	645.237	12565.15	11631.2
827.2497	647.3518	12511.2	11586.1
827.3944	649.4659	12465.15	11543.4
827.5391	651.5793	12450.7	11527.25
827.6838	653.6922	12381.35	11456.15
827.8285	655.8043	12378.2	11452.5
827.9733	657.9159	12382.1	11454.4
828.118	660.0268	12339.85	11411.15
828.2627	662.137	12329.65	11399.75
828.4075	664.2466	12334.7	11394.55
828.5522	666.3556	12339.25	11402.85
828.697	668.4639	12283	11350.9
828.8418	670.5716	12277.55	11353
828.9865	672.6786	12301.5	11371.15
829.1313	674.785	12265.75	11328.8
829.2761	676.8907	12265.45	11333.35
829.4209	678.9958	12331.7	11407.85
829.5657	681.1002	12298.3	11363.55
829.7105	683.204	12281.3	11336.65
829.8553	685.3072	12272.9	11332.5
830.0001	687.4097	12233.75	11296.45
830.1449	689.5115	12197.35	11253.15
830.2898	691.6127	12197.4	11260.85
830.4346	693.7132	12164.05	11239.7
830.5794	695.8131	12169.5	11226.3
830.7243	697.9123	12165.45	11223.5
830.8691	700.0109	12189.6	11247.55
831.014	702.1089	12186.1	11248.85
831.1588	704.2061	12220.55	11282.75
831.3037	706.3028	12314.95	11375.8
831.4486	708.3987	12336.9	11397.4
831.5935	710.4941	12374.15	11432.25
831.7383	712.5887	12469.95	11529.4
831.8832	714.6827	12631.65	11688.15
832.0281	716.7761	12833.85	11900.1
832.173	718.8688	13073.9	12134.7
832.3179	720.9608	13229.6	12282.6
832.4628	723.0522	13349.2	12399.4
832.6077	725.1429	13334.65	12390.3
832.7527	727.233	13298.9	12355.65
832.8976	729.3224	13219.55	12280.75
833.0425	731.4112	13117.4	12179.6
833.1874	733.4993	12953.3	12010.65
833.3324	735.5867	12725.6	11785.45
833.4773	737.6735	12562	11617.05
833.6222	739.7596	12429.55	11490
833.7672	741.845	12337.6	11395.35
833.9122	743.9298	12285.7	11344.55
834.0571	746.014	12244.6	11300.65
834.2021	748.0974	12250.95	11304.25
834.347	750.1802	12227.65	11280.1
834.492	752.2624	12229.45	11280.1
834.637	754.3439	12307.1	11357.9
834.782	756.4247	12411.95	11456.3
834.9269	758.5048	12569.5	11620
835.0719	760.5843	12856.7	11908.6
835.2169	762.6631	13241.55	12291.3
835.3619	764.7413	13779.75	12829.45
835.5069	766.8188	14461.65	13513.55
835.6519	768.8956	14975.75	14026.45
835.7969	770.9718	15368.05	14422.55
835.9419	773.0473	15222.95	14277.95
836.0869	775.1221	14950.45	14004.4
836.232	777.1962	14606.7	13659.8
836.377	779.2697	14493.4	13544.65
836.522	781.3426	14560.05	13599.9
836.667	783.4147	14724.3	13777.9
836.8121	785.4862	14848.35	13899.1
836.9571	787.557	14755	13806
837.1021	789.6271	14360.7	13407.15
837.2472	791.6966	13751.8	12800.65
837.3922	793.7654	13160.6	12211.4
837.5373	795.8335	12760.35	11811.4
837.6823	797.901	12490.25	11540.5
837.8274	799.9678	12349.85	11395.7
837.9724	802.0339	12292.3	11340.25
838.1175	804.0993	12283.4	11321.45
838.2626	806.1641	12273.5	11319.4
838.4076	808.2282	12177.5	11225.1
838.5527	810.2916	12091.7	11137.35
838.6978	812.3544	12023.6	11076.7
838.8428	814.4164	11959.65	11013.1
838.9879	816.4778	12012.8	11059.9
839.133	818.5385	12026.1	11072.25
839.2781	820.5986	12161.15	11205.8
839.4232	822.658	12380.85	11430.8
839.5682	824.7166	12596.85	11648
839.7133	826.7747	13053.45	12101.65
839.8584	828.832	13443.85	12488.75
840.0035	830.8886	13769.4	12814.75
840.1486	832.9446	13937.65	12983.2
840.2937	834.9999	13879.2	12927.75
840.4388	837.0545	13651.55	12696.55
840.5839	839.1085	13416.35	12460.05
840.729	841.1618	13196.7	12238.5
840.8741	843.2143	12995.55	12040.55
841.0192	845.2662	12814.35	11859.85
841.1643	847.3175	12738.8	11783.1
841.3095	849.368	12631.65	11677.05
841.4546	851.4179	12521.35	11567.55
841.5997	853.467	12418.3	11462.75
841.7448	855.5155	12324.4	11370.65
841.8899	857.5633	12260.85	11306.3
842.0351	859.6105	12169.1	11216
842.1802	861.6569	12073.05	11119.9
842.3253	863.7027	12017.5	11056.05
842.4704	865.7478	11969.35	11011.2
842.6156	867.7922	11961.25	11008
842.7607	869.8359	11966.35	11009.15
842.9058	871.8789	12040.45	11081.5
843.0509	873.9212	12141.7	11150.9
843.1961	875.9629	12219.45	11259.55
843.3412	878.0039	12422.7	11467
843.4863	880.0441	12503.95	11547.35
843.6315	882.0837	12580.1	11624.15
843.7766	884.1226	12525.25	11570.95
843.9218	886.1609	12532.9	11575.4
844.0669	888.1984	12582.75	11625.05
844.212	890.2352	12682.3	11726.2
844.3572	892.2714	12656.7	11693.9
844.5023	894.3069	12615.85	11657.25
844.6475	896.3416	12486.45	11529.35
844.7926	898.3757	12357.1	11399.6
844.9377	900.4091	12297.85	11335.05
845.0829	902.4418	12300.9	11339.6
845.228	904.4739	12330.15	11366.15
845.3732	906.5052	12387.55	11427
845.5183	908.5358	12331.45	11372.7
845.6635	910.5658	12200.75	11240.15
845.8086	912.595	11980.8	11019.85
845.9538	914.6236	11780.55	10818.7
846.0989	916.6515	11688.15	10730.8
846.2441	918.6786	11638.65	10676
846.3892	920.7051	11655.6	10690.2
846.5344	922.7309	11714.35	10755.1
846.6795	924.756	11722.05	10763.85
846.8246	926.7804	11824.3	10862.4
846.9698	928.8041	11808.15	10852.95
847.1149	930.8272	11873.95	10916.2
847.2601	932.8495	11841.7	10883.5
847.4052	934.8711	11810.45	10850.1
847.5504	936.892	11741.15	10784.15
847.6955	938.9123	11691.55	10728.3
847.8407	940.9318	11675.75	10712.65
847.9858	942.9506	11633.45	10675.85
848.131	944.9688	11549.4	10587.65
848.2761	946.9862	11459.9	10499.7
848.4213	949.003	11362	10401.85
848.5664	951.019	11271.25	10311.2
848.7115	953.0344	11266.9	10306
848.8567	955.0491	11264.5	10306.6
849.0018	957.063	11317.5	10359.85
849.147	959.0763	11407.65	10448.2
849.2921	961.0888	11446.3	10484.6
849.4373	963.1007	11516.75	10562.7
849.5824	965.1119	11546.1	10597.85
849.7275	967.1223	11538.85	10595.65
849.8727	969.1321	11518.1	10579.5
850.0178	971.1412	11548.1	10603.05
850.1629	973.1495	11533.35	10578.65
850.3081	975.1572	11577.95	10566.5
850.4532	977.1641	11581	10619.6
850.5983	979.1704	11547	10586.25
850.7435	981.1759	11531.25	10571.45
850.8886	983.1808	11583.9	10621.9
851.0337	985.1849	11620.45	10649.5
851.1788	987.1884	11712.35	10751.15
851.324	989.1911	11821.65	10863.6
851.4691	991.1932	11897.8	10941.2
851.6142	993.1945	11931.65	10973.35
851.7593	995.1951	11900.25	10941.2
851.9045	997.1951	11893.95	10929.05
852.0496	999.1943	11818.55	10859.45
852.1947	1001.1928	11782.8	10821.4
852.3398	1003.1906	11849.25	10895.6
852.4849	1005.1877	11938.25	10977.1
852.63	1007.1841	11985.75	11028.4
852.7751	1009.1798	11956.55	10998
852.9202	1011.1748	11859	10902.7
853.0653	1013.1691	11706.1	10748.75
853.2104	1015.1627	11489.5	10530.2
853.3555	1017.1556	11295.65	10340.35
853.5006	1019.1477	11172.85	10218.45
853.6457	1021.1392	11052.25	10104.95
853.7908	1023.1299	11043.5	10097.4
853.9359	1025.12	11056.8	10118.95
854.081	1027.1093	11095.65	10168.4
854.2261	1029.0979	11205.5	10281.3
854.3712	1031.0859	11306.75	10376.2
854.5163	1033.0731	11352.3	10407.5
854.6613	1035.0596	11293.75	10345.9
854.8064	1037.0454	11180.5	10227.55
854.9515	1039.0304	11067.1	10112.25
855.0965	1041.0148	10948.8	9995.6
855.2416	1042.9985	10847.4	9890.3
855.3867	1044.9814	10824.15	9868.7
855.5317	1046.9636	10760.15	9805.5
855.6768	1048.9452	10745.55	9790.8
855.8219	1050.926	10762.75	9811.15
855.9669	1052.9061	10793.5	9840.05
856.112	1054.8855	10801.75	9845.55
856.257	1056.8642	10841.3	9882.8
856.4021	1058.8421	10887.4	9927.85
856.5471	1060.8194	10925.5	9969.6
856.6921	1062.7959	10968.95	10013.85
856.8372	1064.7717	11036.8	10081.7
856.9822	1066.7469	11105.2	10149.7
857.1272	1068.7213	11145.2	10187.45
857.2723	1070.695	11203.65	10250.3
857.4173	1072.6679	11173.05	10214.9
857.5623	1074.6402	11177.9	10219.4
857.7073	1076.6117	11154.2	10188.25
857.8523	1078.5826	11084.9	10124.8
857.9973	1080.5527	10990.05	10031
858.1423	1082.5221	10954.55	10000.4
858.2873	1084.4908	10986.45	10031
858.4323	1086.4587	11059.75	10101.7
858.5773	1088.426	11156.5	10200.5
858.7223	1090.3925	11158.2	10196.85
858.8673	1092.3584	11153.15	10195.5
859.0123	1094.3235	11113.6	10160.7
859.1573	1096.2879	11155.35	10200.55
859.3022	1098.2515	11243.2	10288.2
859.4472	1100.2145	11397	10443.6
859.5922	1102.1767	11564.7	10607.5
859.7371	1104.1382	11750.55	10797.55
859.8821	1106.099	11974.45	11020.25
860.027	1108.0591	12200.9	11247.6
860.172	1110.0185	12352.3	11390.2
860.3169	1111.9771	12413.3	11458.25
860.4619	1113.9351	12308.8	11353.15
860.6068	1115.8923	12109.85	11155.95
860.7517	1117.8488	11944.8	10988.8
860.8967	1119.8045	11702.85	10747.95
861.0416	1121.7596	11575.7	10621.8
861.1865	1123.7139	11442.4	10489.65
861.3314	1125.6675	11440	10491.3
861.4763	1127.6204	11478.8	10525
861.6212	1129.5726	11422.85	10465.8
861.7661	1131.524	11384.3	10433.75
861.911	1133.4748	11252	10296.65
862.0559	1135.4248	11132.4	10177.65
862.2008	1137.3741	11012.7	10060.2
862.3457	1139.3226	10922	9966.45
862.4905	1141.2705	10876.2	9921.15
862.6354	1143.2176	10787.6	9825.35
862.7803	1145.164	10758.9	9803.45
862.9251	1147.1097	10722.25	9771.85
863.07	1149.0546	10652.35	9697.35
863.2148	1150.9989	10555.4	9602.2
863.3597	1152.9424	10425.35	9471.75
863.5045	1154.8852	10352.95	9399
863.6493	1156.8272	10299	9346.05
863.7942	1158.7686	10289.15	9326.3
863.939	1160.7092	10284.35	9326.15
864.0838	1162.6491	10299.05	9339.75
864.2286	1164.5883	10413.55	9457.9
864.3734	1166.5267	10537.7	9586.95
864.5182	1168.4644	10675.15	9722.65
864.663	1170.4014	10877.9	9923.2
864.8078	1172.3377	11124.65	10173.6
864.9526	1174.2732	11401.5	10451.1
865.0974	1176.2081	11776.3	10822.2
865.2421	1178.1421	12194.45	11241.75
865.3869	1180.0755	12625.6	11672.05
865.5317	1182.0082	12891.45	11941.8
865.6764	1183.9401	13062.65	12111.9
865.8212	1185.8713	12922.9	11978.95
865.9659	1187.8017	12607.2	11671.05
866.1106	1189.7315	12250.9	11320.75
866.2554	1191.6605	11906.3	10977.05
866.4001	1193.5888	11622.45	10689.3
866.5448	1195.5163	11493.95	10551.9
866.6895	1197.4432	11425.65	10477.55
866.8342	1199.3693	11383.45	10433.6
866.9789	1201.2947	11349.05	10392.15
867.1236	1203.2193	11343.7	10395.85
867.2683	1205.1432	11322	10369.75
867.413	1207.0664	11311.3	10363.95
867.5576	1208.9889	11317.45	10365
867.7023	1210.9106	11269.6	10317.55
867.847	1212.8316	11276.95	10327.4
867.9916	1214.7519	11351.85	10395.3
868.1363	1216.6715	11353.05	10404.05
868.2809	1218.5903	11422.8	10473.4
868.4255	1220.5084	11464.6	10513.8
868.5701	1222.4257	11539.2	10590.85
868.7148	1224.3424	11550.15	10605.6
868.8594	1226.2583	11655.75	10700.75
869.004	1228.1735	11777	10829.55
869.1486	1230.0879	11883.75	10937.05
869.2932	1232.0016	12052.55	11103.3
869.4377	1233.9146	12140	11193.1
869.5823	1235.8269	12128.6	11180.7
869.7269	1237.7384	12068.7	11123.9
869.8715	1239.6492	11910.45	10963.35
870.016	1241.5592	11858.65	10910
870.1606	1243.4686	11874.75	10925.75
870.3051	1245.3772	11967.6	11019.85
870.4496	1247.285	12104.95	11159.9
870.5941	1249.1922	12213.45	11262.15
870.7387	1251.0986	12330.75	11384.25
870.8832	1253.0042	12350.45	11403.45
871.0277	1254.9092	12413.95	11468.85
871.1722	1256.8134	12520.2	11577
871.3167	1258.7169	12663.75	11715.9
871.4611	1260.6196	12835.1	11889.5
871.6056	1262.5216	13062.3	12113.9
871.7501	1264.4229	13241.9	12300.5
871.8945	1266.3234	13436.85	12490.7
872.039	1268.2232	13567.25	12619.75
872.1834	1270.1223	13634.7	12685
872.3278	1272.0207	13626.05	12678.6
872.4723	1273.9183	13617.8	12664
872.6167	1275.8151	13540.15	12595.75
872.7611	1277.7113	13497.05	12550.85
872.9055	1279.6067	13519.25	12574.65
873.0499	1281.5014	13642.65	12694.55
873.1943	1283.3953	13876.05	12927.4
873.3386	1285.2885	14261.7	13315.65
873.483	1287.181	14609.9	13662.3
873.6274	1289.0727	14976.35	14034.9
873.7717	1290.9637	15215.95	14269.2
873.9161	1292.854	15395.15	14448.25
874.0604	1294.7435	15428.9	14482.05
874.2047	1296.6323	15451.85	14509.05
874.349	1298.5204	15367.35	14417
874.4933	1300.4077	15332.45	14387.35
874.6376	1302.2943	15221.95	14276.6
874.7819	1304.1802	14990.6	14047.55
874.9262	1306.0653	14635.9	13692.15
875.0705	1307.9497	14254.55	13313.25
875.2147	1309.8333	13918.05	12976.1
875.359	1311.7162	13681.15	12735.5
875.5032	1313.5984	13551.65	12599.85
875.6475	1315.4798	13445.9	12486.05
875.7917	1317.3605	13407.1	12445.45
875.9359	1319.2405	13329.55	12381.6
876.0801	1321.1197	13143.95	12193.95
876.2243	1322.9982	12909.5	11962.05
876.3685	1324.876	12679.55	11735.55
876.5127	1326.753	12471.4	11524.7
876.6569	1328.6293	12330.65	11382.7
876.801	1330.5048	12217.6	11267.05
876.9452	1332.3796	12084.6	11135.85
877.0893	1334.2537	12012.1	11043.1
877.2335	1336.127	11923.85	10980.15
877.3776	1337.9996	11919.85	10974
877.5217	1339.8714	11909.4	10963.2
877.6658	1341.7426	11919.25	10927.05
877.8099	1343.6129	11919.6	10972
877.954	1345.4826	11895.2	10946.8
878.0981	1347.3515	11904.55	10956
878.2422	1349.2196	11904.75	10956.35
878.3862	1351.087	11928.05	10982.2
878.5303	1352.9537	11971.45	11022.2
878.6743	1354.8197	12078.35	11127.45
878.8184	1356.6849	12226.55	11279
878.9624	1358.5493	12367.15	11421.35
879.1064	1360.4131	12506.05	11563.25
879.2504	1362.276	12588.05	11643.8
879.3944	1364.1383	12535	11590.65
879.5384	1365.9998	12325.35	11375.2
879.6823	1367.8606	11996.9	11053.1
879.8263	1369.7206	11646.25	10700
879.9702	1371.5799	11352.75	10405.05
880.1142	1373.4384	11084.45	10139.25
880.2581	1375.2962	10887.65	9941.85
880.402	1377.1533	10581.85	9638.85
880.5459	1379.0096	10207.55	9267.3
880.6898	1380.8652	9879.4	8942.25
880.8337	1382.7201	9611	8670.1
880.9776	1384.5742	9320.45	8375.5
881.1215	1386.4275	9154.05	8209.05
881.2653	1388.2802	9046.5	8101.6
881.4092	1390.132	8926.15	7979.1
881.553	1391.9832	8869.4	7925.55
881.6968	1393.8336	8760.4	7812.7
881.8406	1395.6832	8737.3	7792.95
881.9844	1397.5322	8696	7746.95
882.1282	1399.3803	8644.9	7696.4
882.272	1401.2278	8628.6	7686.6
882.4158	1403.0745	8623.1	7683.6
882.5595	1404.9204	8603.05	7660.85
882.7033	1406.7656	8612.3	7670.1
882.847	1408.6101	8637.35	7696.15
882.9908	1410.4538	8669.85	7726.15
883.1345	1412.2968	8723.85	7781.25
883.2782	1414.139	8770.4	7830.35
883.4219	1415.9805	8844.45	7902.85
883.5656	1417.8213	8907.7	7957.95
883.7092	1419.6613	9016.4	8075.55
883.8529	1421.5006	9145.1	8201.95
883.9965	1423.3391	9381.6	8441.95
884.1402	1425.1769	9672.5	8729.7
884.2838	1427.0139	10114.25	9172.05
884.4274	1428.8502	10631.85	9690.1
884.571	1430.6858	11201.45	10256.55
884.7146	1432.5206	11594.8	10653.3
884.8582	1434.3547	11831.1	10890.6
885.0018	1436.188	11860.45	10917.85
885.1453	1438.0206	11788.65	10849.5
885.2889	1439.8524	11610.15	10669.05
885.4324	1441.6835	11484.4	10543.55
885.5759	1443.5139	11364.45	10425.55
885.7194	1445.3435	11305.15	10365.9
885.8629	1447.1724	11265.45	10324.6
886.0064	1449.0005	11226.7	10290.35
886.1499	1450.8279	11120.45	10180.05
886.2933	1452.6545	11137.65	10200.15
886.4368	1454.4804	11162.55	10227.05
886.5802	1456.3056	11138.4	10197.1
886.7237	1458.13	11039.95	10103.95
886.8671	1459.9536	10871.5	9935.25
887.0105	1461.7766	10582.75	9647.45
887.1539	1463.5987	10222.2	9281.6
887.2972	1465.4202	9880.65	8940.8
887.4406	1467.2409	9516.4	8577.95
887.584	1469.0608	9270.8	8334.6
887.7273	1470.88	9002.05	8063
887.8706	1472.6984	8784.85	7849.75
888.0139	1474.5161	8570.65	7629.65
888.1572	1476.3331	8435.65	7497
888.3005	1478.1493	8270.8	7329.55
888.4438	1479.9648	8191.2	7251.45
888.5871	1481.7795	8109.65	7167.75
888.7303	1483.5935	8033.5	7095.15
888.8736	1485.4067	7977.4	7038.75
889.0168	1487.2192	7950.3	7011.75
889.16	1489.031	7898.15	6959
889.3032	1490.842	7870.35	6933.85
889.4464	1492.6522	7819.05	6880.3
889.5896	1494.4618	7773.8	6833.15
889.7327	1496.2705	7764.55	6832.2
889.8759	1498.0785	7706.75	6771.2
890.019	1499.8858	7679.9	6739.8
890.1622	1501.6924	7636.7	6698.2
890.3053	1503.4981	7616.2	6680.25
890.4484	1505.3032	7565.15	6627.85
890.5914	1507.1075	7525.15	6588.5
890.7345	1508.911	7481.95	6544.6
890.8776	1510.7138	7429.9	6491.1
891.0206	1512.5159	7400.75	6465.45
891.1637	1514.3172	7343.6	6407.1
891.3067	1516.1178	7298.5	6364.3
891.4497	1517.9176	7278.55	6339.9
891.5927	1519.7166	7227.7	6294.1
891.7357	1521.515	7195.45	6254.7
891.8786	1523.3126	7178.3	6243
892.0216	1525.1094	7145.7	6207.05
892.1645	1526.9055	7119.1	6185.45
892.3074	1528.7008	7105.95	6173.6
892.4503	1530.4954	7047.3	6111.55
892.5932	1532.2893	7046.3	6111.9
892.7361	1534.0824	7020.35	6085.55
892.879	1535.8747	6997.7	6063.35
893.0218	1537.6663	7000.25	6071.75
893.1647	1539.4572	7001.7	6070.55
893.3075	1541.2473	7007.15	6077
893.4503	1543.0367	7009.55	6080.95
893.5931	1544.8253	7003.5	6068.9
893.7359	1546.6132	7009.3	6076.2
893.8787	1548.4003	7047.3	6109.15
894.0214	1550.1867	7076	6139.4
894.1642	1551.9723	7150.35	6220.95
894.3069	1553.7572	7203.85	6276.85
894.4496	1555.5414	7277.75	6352.25
894.5923	1557.3247	7431	6509.15
894.735	1559.1074	7555.35	6634.55
894.8777	1560.8893	7696.8	6772.9
895.0204	1562.6705	7824.55	6899.95
895.163	1564.4509	7922.65	6997.95
895.3056	1566.2305	7991.75	7075
895.4482	1568.0094	8041.15	7122.9
895.5908	1569.7876	8056.75	7138.9
895.7334	1571.565	8026.25	7104.75
895.876	1573.3417	8016.55	7095.6
896.0186	1575.1176	7992.35	7072.45
896.1611	1576.8928	7980.2	7059.25
896.3036	1578.6672	7949	7036.5
896.4461	1580.4409	7934.7	7024.5
896.5886	1582.2138	7914.85	6998.8
896.7311	1583.986	7903.7	6984.45
896.8736	1585.7575	7955.85	7037.6
897.0161	1587.5282	7960.45	7044.55
897.1585	1589.2981	8038.5	7126.25
897.3009	1591.0673	8073.95	7157.9
897.4433	1592.8358	8168.15	7257.9
897.5857	1594.6035	8256.75	7340.05
897.7281	1596.3704	8325.05	7406.75
897.8705	1598.1366	8393.15	7476.35
898.0128	1599.9021	8524.55	7609.35
898.1551	1601.6668	8608.15	7691.1
898.2975	1603.4308	8702.4	7782.25
898.4398	1605.194	8884.45	7962
898.5821	1606.9564	9050.8	8141.6
898.7243	1608.7182	9268.05	8359.5
898.8666	1610.4791	9516.85	8618.7
899.0088	1612.2394	9787.9	8890.35
899.1511	1613.9988	10052.85	9151.9
899.2933	1615.7576	10306.5	9398.2
899.4355	1617.5156	10535.4	9615.75
899.5776	1619.2728	10621.8	9706.05
899.7198	1621.0293	10590.05	9673.75
899.862	1622.785	10480.45	9566.1
900.0041	1624.54	10212.8	9301.75
900.1462	1626.2942	9911.5	9001.75
900.2883	1628.0477	9558.6	8646.3
900.4304	1629.8005	9261.5	8349.4
900.5725	1631.5525	8982.65	8075.75
900.7145	1633.3037	8743.2	7836.45
900.8566	1635.0542	8537.55	7629.95
900.9986	1636.804	8402.45	7496.4
901.1406	1638.553	8356.65	7358.35
901.2826	1640.3013	8258.4	7347.9
901.4245	1642.0488	8201.75	7290.55
901.5665	1643.7955	8232.25	7326.5
901.7085	1645.5416	8300.5	7392.05
901.8504	1647.2868	8393.75	7487.05
901.9923	1649.0313	8514.4	7603.6
902.1342	1650.7751	8658.5	7745.6
902.2761	1652.5181	8831.45	7927.3
902.4179	1654.2604	8999.35	8095.85
902.5598	1656.0019	9214.25	8307.85
902.7016	1657.7427	9495.75	8589.4
902.8434	1659.4828	9758.2	8848.65
902.9852	1661.222	9932.35	9022
903.127	1662.9606	9897.4	8985.65
903.2687	1664.6984	9651.15	8739.2
903.4105	1666.4354	9206.55	8291
903.5522	1668.1717	8672.2	7760.45
903.6939	1669.9072	8109.5	7197.35
903.8356	1671.642	7641.6	6728
903.9773	1673.3761	7252.35	6338.4
904.119	1675.1094	6927.5	6016.95
904.2606	1676.8419	6682.8	5770.75
904.4022	1678.5737	6500.85	5590.4
904.5439	1680.3048	6324.45	5412.35
904.6855	1682.0351	6191.6	5280.25
904.827	1683.7646	6080.7	5167.95
904.9686	1685.4934	6003.5	5094.6
905.1101	1687.2215	5917.2	5008.15
905.2517	1688.9488	5849.5	4944.15
905.3932	1690.6754	5789.9	4883.9
905.5347	1692.4012	5752.6	4843.6
905.6761	1694.1263	5693.2	4784.25
905.8176	1695.8506	5670.9	4763.2
905.9591	1697.5742	5609.3	4704.15
906.1005	1699.297	5574.9	4672.95
906.2419	1701.0191	5527.8	4626
906.3833	1702.7404	5505.8	4602.3
906.5246	1704.461	5451.1	4545.35
906.666	1706.1808	5431.3	4525
906.8073	1707.8999	5394.8	4489.7
906.9487	1709.6182	5360.15	4462.35
907.09	1711.3358	5344.2	4446.25
907.2313	1713.0527	5317.8	4421.05
907.3725	1714.7688	5282.55	4377.4
907.5138	1716.4841	5254.15	4348.75
907.655	1718.1987	5243.35	4331.25
907.7962	1719.9126	5222.85	4323.55
907.9374	1721.6257	5187.85	4286.5
908.0786	1723.338	5185.55	4288.4
908.2198	1725.0496	5144.2	4246.55
908.3609	1726.7605	5142.95	4240.15
908.502	1728.4706	5109.4	4209.95
908.6431	1730.18	5093.4	4195
908.7842	1731.8886	5080	4180.85
908.9253	1733.5964	5103.55	4184.2
909.0664	1735.3036	5061.95	4160.95
909.2074	1737.0099	5030.4	4130.65
909.3484	1738.7156	5013.9	4113.25
909.4894	1740.4204	4985.2	4085.2
909.6304	1742.1246	4964.8	4061.45
909.7714	1743.8279	4962.9	4065.3
909.9123	1745.5306	4929.6	4032.5
910.0532	1747.2325	4912.7	4017
910.1941	1748.9336	4897.2	3999.2
910.335	1750.634	4879	3977.1
910.4759	1752.3336	4862.9	3963
910.6168	1754.0325	4835.8	3941.1
910.7576	1755.7307	4829.85	3933.7
910.8984	1757.4281	4835.8	3935.8
911.0392	1759.1247	4825.35	3916.3
911.18	1760.8206	4796.05	3890.95
911.3208	1762.5158	4788.55	3881.4
911.4615	1764.2102	4784.55	3885.7
911.6022	1765.9039	4765.35	3868.5
911.7429	1767.5968	4756.1	3861.15
911.8836	1769.289	4737.55	3842.6
912.0243	1770.9804	4717.45	3817.75
912.1649	1772.6711	4720.65	3817.1
912.3056	1774.361	4707.45	3805.45
912.4462	1776.0502	4708.85	3807.7
912.5868	1777.7386	4678.65	3777.15
912.7274	1779.4263	4667.9	3770.2
912.8679	1781.1132	4666.65	3772.35
913.0084	1782.7994	4639.95	3745.55
913.149	1784.4849	4635.1	3740.55
913.2895	1786.1696	4644.45	3726.1
913.4299	1787.8535	4628	3732.95
913.5704	1789.5367	4610.45	3717.7
913.7108	1791.2192	4605.25	3711.5
913.8513	1792.9009	4598.2	3674.3
913.9917	1794.5818	4581.85	3681.45
914.132	1796.2621	4559.75	3662.35
914.2724	1797.9415	4555.75	3655.35
914.4128	1799.6202	4540.05	3641.3
914.5531	1801.2982	4538.35	3638.8
914.6934	1802.9755	4532.1	3632.6
914.8337	1804.6519	4514.25	3615.3
914.9739	1806.3277	4511.75	3612.35
915.1142	1808.0027	4476.85	3583.95
915.2544	1809.6769	4481.2	3590.35
915.3946	1811.3504	4478.4	3585.3
915.5348	1813.0231	4462.65	3568.2
915.675	1814.6951	4460.3	3566.2
915.8151	1816.3664	4464.7	3566.2
915.9553	1818.0369	4433.15	3534.6
916.0954	1819.7067	4430.7	3535.1
916.2355	1821.3757	4429.95	3529.15
916.3755	1823.044	4428	3528.9
916.5156	1824.7115	4422.6	3523.1
916.6556	1826.3783	4402.1	3503.65
916.7956	1828.0443	4388.05	3491.55
916.9356	1829.7096	4375.35	3476.25
917.0756	1831.3741	4381.3	3481.2
917.2155	1833.0379	4357.15	3462.3
917.3555	1834.701	4345.65	3452.25
917.4954	1836.3633	4352.75	3462.45
917.6353	1838.0248	4342.55	3447.35
917.7751	1839.6856	4330.9	3433.6
917.915	1841.3457	4327.25	3430.4
918.0548	1843.005	4313	3415.15
918.1946	1844.6636	4312.5	3417.25
918.3344	1846.3214	4311.75	3415.15
918.4742	1847.9785	4295.95	3400.35
918.6139	1849.6349	4309.85	3409.7
918.7537	1851.2904	4298.8	3390.35
918.8934	1852.9453	4285.5	3387.05
919.0331	1854.5994	4261.95	3361.05
919.1727	1856.2528	4265.35	3363
919.3124	1857.9054	4259.6	3361.35
919.452	1859.5572	4256.75	3361.55
919.5916	1861.2083	4248	3351.45
919.7312	1862.8587	4249.45	3351.05
919.8708	1864.5084	4237.9	3338.55
920.0103	1866.1572	4229.55	3329.1
920.1498	1867.8054	4209.1	3308.45
920.2893	1869.4528	4205.2	3304.8
920.4288	1871.0994	4216.8	3317
920.5683	1872.7453	4172	3272.2
920.7077	1874.3905	4169	3264.6
920.8471	1876.0349	4146.8	3247.85
920.9865	1877.6786	4161.95	3260.35
921.1259	1879.3215	4156.85	3259.65
921.2653	1880.9637	4154.65	3256.8
921.4046	1882.6051	4131.4	3238.95
921.5439	1884.2458	4135.25	3236.7
921.6832	1885.8858	4114.05	3219.15
921.8225	1887.525	4111.6	3212.3
921.9617	1889.1634	4104.55	3202.95
922.101	1890.8011	4091.05	3193.6
922.2402	1892.4381	4076.45	3179.6
922.3794	1894.0743	4084.7	3187.75
922.5185	1895.7098	4074.05	3175.4
922.6577	1897.3446	4058.75	3161.1
922.7968	1898.9786	4030.15	3127.75
922.9359	1900.6118	4035.1	3140.35
923.075	1902.2443	4022.55	3125.65
923.214	1903.8761	4022.4	3127
923.3531	1905.5071	3996.55	3099
923.4921	1907.1374	3990.9	3094.6
923.6311	1908.7669	3972.95	3078.45
923.77	1910.3957	3977.5	3083.1
923.909	1912.0237	3961.65	3064.2
924.0479	1913.651	3954.8	3055.35
924.1868	1915.2776	3959.1	3063.8
924.3257	1916.9034	3925.2	3031.4
924.4646	1918.5285	3908.55	3013.65
924.6034	1920.1528	3895.85	3000.6
924.7422	1921.7764	3896	3001.2
924.881	1923.3992	3886	2990.15
925.0198	1925.0213	3874.35	2976
925.1586	1926.6427	3866.1	2972.8
925.2973	1928.2633	3923.8	2948.65
925.436	1929.8832	3864.1	2966.25
925.5747	1931.5023	3833.05	2937.45
925.7134	1933.1207	3818.75	2924.45
925.852	1934.7383	3829	2932.6
925.9906	1936.3552	3799.6	2905.8
926.1292	1937.9714	3802.15	2908
926.2678	1939.5868	3773.8	2874.55
926.4064	1941.2015	3776.8	2879.15
926.5449	1942.8154	3755.3	2858.05
926.6834	1944.4286	3751.2	2854.75
926.8219	1946.041	3760.5	2846.75
926.9604	1947.6528	3735.7	2836.4
927.0988	1949.2637	3720.75	2824.7
927.2372	1950.8739	3709.45	2814.45
927.3756	1952.4834	3692.75	2797
927.514	1954.0921	3699.8	2804.25
927.6523	1955.7001	3685.45	2788.2
927.7907	1957.3074	3670	2780.35
927.929	1958.9139	3655.15	2764.3
928.0673	1960.5197	3665.8	2774.05
928.2055	1962.1247	3630.85	2737.1
928.3438	1963.729	3629.4	2738.35
928.482	1965.3325	3611.9	2716.55
928.6202	1966.9353	3616.9	2727.3
928.7584	1968.5374	3610.7	2718.65
928.8965	1970.1387	3593.05	2701
929.0346	1971.7393	3585.6	2694.45
929.1727	1973.3392	3555.85	2665.6
929.3108	1974.9383	3560.7	2671.25
929.4489	1976.5366	3552.05	2663.6
929.5869	1978.1342	3541.6	2652.3
929.7249	1979.7311	3523.5	2634.55
929.8629	1981.3273	3525.5	2636.45
930.0009	1982.9227	3521.85	2632.05
930.1388	1984.5173	3514	2626.75
930.2767	1986.1112	3501.6	2612.75
930.4146	1987.7044	3485.2	2597
930.5525	1989.2968	3498.8	2609.65
930.6904	1990.8885	3489.55	2601.05
930.8282	1992.4795	3478.65	2591.55
930.966	1994.0697	3450.8	2565.9
931.1038	1995.6592	3440.7	2553.3
931.2415	1997.2479	3446.75	2560.4
931.3793	1998.8359	3441.65	2556.55
931.517	2000.4232	3421.15	2538.6
931.6547	2002.0097	3410.25	2529.15
931.7923	2003.5955	3400.75	2516.85
931.93	2005.1805	3406.35	2520.5
932.0676	2006.7648	3397.5	2514.4
932.2052	2008.3484	3392.95	2508.25
932.3427	2009.9312	3386.55	2503.9
932.4803	2011.5133	3389.1	2509.35
932.6178	2013.0946	3381.2	2498.8
932.7553	2014.6752	3369.05	2486.35
932.8928	2016.2551	3368.5	2483.15
933.0302	2017.8342	3353.2	2468.25
933.1676	2019.4126	3337.95	2456.05
933.305	2020.9902	3319.5	2441.6
933.4424	2022.5672	3315.6	2434.25
933.5798	2024.1433	3314.95	2429.75
933.7171	2025.7188	3305.25	2424.25
933.8544	2027.2935	3294.35	2413.6
933.9917	2028.8674	3295.35	2415.45
934.129	2030.4406	3287	2408.2
934.2662	2032.0131	3264.95	2387.2
934.4034	2033.5849	3266	2384.1
934.5406	2035.1559	3262.05	2381.1
934.6778	2036.7261	3238.7	2355.2
934.8149	2038.2957	3253.8	2368.6
934.952	2039.8645	3251.65	2366.4
935.0891	2041.4325	3257.45	2370.45
935.2262	2042.9998	3240.95	2356.75
935.3632	2044.5664	3242.9	2360.7
935.5002	2046.1323	3216.5	2335.45
935.6372	2047.6974	3212.55	2332.7
935.7742	2049.2617	3206.2	2327.1
935.9111	2050.8254	3224.45	2322.5
936.048	2052.3883	3202.75	2318.8
936.1849	2053.9504	3188.35	2303.7
936.3218	2055.5118	3188.3	2302.05
936.4586	2057.0725	3174.55	2287.85
936.5955	2058.6325	3166.6	2283.25
936.7323	2060.1917	3160.6	2280.25
936.869	2061.7502	3161.55	2279.55
937.0058	2063.3079	3140.4	2261.4
937.1425	2064.8649	3139.85	2257.2
937.2792	2066.4212	3145.15	2262.5
937.4159	2067.9767	3127.9	2242
937.5525	2069.5315	3118.55	2236.35
937.6891	2071.0856	3121.25	2237.45
937.8257	2072.6389	3108.25	2227.3
937.9623	2074.1915	3094.05	2213
938.0989	2075.7433	3080.9	2197.3
938.2354	2077.2945	3073.55	2191.25
938.3719	2078.8448	3077.85	2191.8
938.5084	2080.3945	3063.95	2179.2
938.6448	2081.9434	3057	2169.2
938.7812	2083.4916	3059.55	2171.05
938.9176	2085.039	3051.1	2159.1
939.054	2086.5857	3056.25	2161.5
939.1903	2088.1317	3051.8	2157.45
939.3267	2089.677	3044	2150.65
939.463	2091.2215	3037.35	2145.7
939.5992	2092.7652	3044.65	2152.75
939.7355	2094.3083	3032.75	2140.95
939.8717	2095.8506	3020.4	2133.2
940.0079	2097.3921	3011.2	2123.8
940.1441	2098.933	2996.75	2108.65
940.2802	2100.4731	2997.25	2110.6
940.4163	2102.0124	2993.75	2098.75
940.5524	2103.5511	2992.45	2103.05
940.6885	2105.089	2977.75	2087.15
940.8245	2106.6261	2983.95	2093.6
940.9606	2108.1626	2975.5	2087.05
941.0965	2109.6983	2997.15	2079.9
941.2325	2111.2332	2974	2084.9
941.3684	2112.7675	2961.8	2073.05
941.5044	2114.301	2943.15	2052.75
941.6403	2115.8337	2946.5	2056.5
941.7761	2117.3657	2935.55	2045.5
941.912	2118.897	2949.4	2058.8
942.0478	2120.4276	2939.4	2042.65
942.1835	2121.9575	2929.7	2039
942.3193	2123.4866	2924	2032.5
942.455	2125.0149	2920.6	2030.45
942.5907	2126.5426	2897.15	2011.65
942.7264	2128.0695	2907.1	2021.05
942.8621	2129.5956	2889.95	2008.95
942.9977	2131.1211	2885.7	1997.15
943.1333	2132.6458	2877.45	1988.65
943.2689	2134.1698	2888.3	1998.35
943.4044	2135.693	2884.55	1991.25
943.54	2137.2155	2871.2	1977.2
943.6755	2138.7373	2888.9	1999.8
943.8109	2140.2584	2864.35	1980
943.9464	2141.7787	2854.3	1967
944.0818	2143.2983	2828.8	1950.15
944.2172	2144.8171	2820.95	1942.45
944.3526	2146.3353	2836.35	1952.6
944.4879	2147.8527	2822.2	1938.7
944.6232	2149.3693	2827.5	1939.55
944.7585	2150.8853	2820.85	1931.65
944.8938	2152.4005	2807.45	1918
945.029	2153.9149	2812.25	1920.8
945.1642	2155.4287	2794.05	1901.45
945.2994	2156.9417	2789.55	1901
945.4346	2158.454	2794.8	1906.85
945.5697	2159.9655	2782.3	1898.85
945.7048	2161.4764	2768	1883.15
945.8399	2162.9865	2768.9	1884.25
945.9749	2164.4958	2768.85	1884.7
946.1099	2166.0045	2764.15	1875.8
946.2449	2167.5124	2769.4	1885.25
946.3799	2169.0195	2751.45	1864.4
946.5148	2170.526	2752.8	1861.95
946.6498	2172.0317	2755.65	1869
946.7846	2173.5367	2732.75	1845.95
946.9195	2175.0409	2746.1	1858.3
947.0543	2176.5445	2732.65	1841.75
947.1891	2178.0473	2739.05	1847.8
947.3239	2179.5494	2713.85	1821.7
947.4587	2181.0507	2714.05	1828.8
947.5934	2182.5513	2708.75	1822.05
947.7281	2184.0512	2715.15	1826.2
947.8628	2185.5504	2696.15	1808.4
947.9974	2187.0488	2682.6	1794.85
948.132	2188.5465	2683.55	1799.6
948.2666	2190.0435	2681.75	1795.4
948.4012	2191.5397	2675.5	1787.05
948.5357	2193.0353	2661.2	1771.65
948.6702	2194.5301	2663.55	1771
948.8047	2196.0241	2652.3	1760.15
948.9392	2197.5175	2659.85	1766.3
949.0736	2199.0101	2651.85	1757.25
949.208	2200.502	2640	1749.3
949.3424	2201.9931	2612.9	1726.15
949.4767	2203.4835	2627.1	1739.95
949.611	2204.9733	2616.85	1725.15
949.7453	2206.4622	2619.55	1736
949.8796	2207.9505	2613.1	1729.4
950.0138	2209.438	2596.05	1714.65
950.148	2210.9248	2600.95	1715.35
950.2822	2212.4109	2587.4	1699.8
950.4164	2213.8962	2586.6	1693.8
950.5505	2215.3809	2586.1	1692.45
950.6846	2216.8648	2574.35	1679.25
950.8186	2218.3479	2580.95	1682.75
950.9527	2219.8304	2573.7	1676.4
951.0867	2221.3121	2558.3	1662.35
951.2207	2222.7931	2562.75	1672.8
951.3546	2224.2733	2549.2	1658.4
951.4886	2225.7529	2542.15	1652.5
951.6225	2227.2317	2534.7	1645.6
951.7563	2228.7098	2528.8	1645.05
951.8902	2230.1872	2524.7	1640.2
952.024	2231.6638	2517.8	1631.65
952.1578	2233.1397	2514.55	1625.35
952.2916	2234.6149	2508.75	1623.05
952.4253	2236.0894	2512	1623.1
952.559	2237.5632	2507.9	1610.1
952.6927	2239.0362	2493.25	1604.65
952.8263	2240.5085	2492.05	1605.85
952.9599	2241.9801	2488.25	1599.05
953.0935	2243.4509	2487.15	1595.65
953.2271	2244.921	2474.95	1582.8
953.3606	2246.3904	2478.3	1582.2
953.4941	2247.8591	2470.45	1579.4
953.6276	2249.3271	2461.2	1570.7
953.7611	2250.7943	2451.65	1558.35
953.8945	2252.2608	2454.2	1564.15
954.0279	2253.7266	2441.55	1550.8
954.1612	2255.1917	2437.55	1548.7
954.2946	2256.656	2434	1547.2
954.4279	2258.1197	2427.9	1543.5
954.5612	2259.5826	2420.65	1532.5
954.6944	2261.0447	2418.6	1527.3
954.8276	2262.5062	2409.6	1518.35
954.9608	2263.9669	2415.75	1524.8
955.094	2265.4269	2399.4	1508.05
955.2271	2266.8862	2405.75	1516.45
955.3602	2268.3448	2396.9	1508.8
955.4933	2269.8026	2398	1512.4
955.6264	2271.2598	2383.65	1497.85
955.7594	2272.7162	2384.35	1494.55
955.8924	2274.1719	2381.35	1492.05
956.0253	2275.6268	2382	1488.2
956.1583	2277.0811	2377.2	1486.8
956.2912	2278.5346	2384.6	1498.45
956.4241	2279.9874	2369.1	1481.45
956.5569	2281.4395	2365.85	1480.2
956.6897	2282.8908	2362.8	1472.55
956.8225	2284.3414	2366.7	1476.75
956.9553	2285.7914	2349.6	1462.15
957.088	2287.2406	2359.5	1465.2
957.2207	2288.689	2352.5	1460.8
957.3534	2290.1368	2350.45	1457.2
957.486	2291.5838	2352.35	1454.2
957.6186	2293.0302	2355.65	1460.35
957.7512	2294.4758	2336.05	1442.5
957.8838	2295.9206	2328.35	1435.55
958.0163	2297.3648	2315.45	1425.2
958.1488	2298.8082	2326.8	1436.4
958.2813	2300.251	2324.75	1432.85
958.4137	2301.693	2314	1419.4
958.5461	2303.1343	2307.35	1414.65
958.6785	2304.5748	2301.8	1415.5
958.8108	2306.0147	2285.65	1398.85
958.9432	2307.4538	2295.85	1407.5
959.0754	2308.8922	2285.55	1402.55
959.2077	2310.3299	2285.6	1398.1
959.3399	2311.7669	2272.85	1387.7
959.4721	2313.2031	2277.45	1386.05
959.6043	2314.6387	2268.7	1378.25
959.7365	2316.0735	2263.4	1373.25
959.8686	2317.5076	2271.45	1379.85
960.0006	2318.941	2258.45	1368
960.1327	2320.3737	2250.6	1356.5
960.2647	2321.8056	2255.9	1361.35
960.3967	2323.2369	2256.9	1365.35
960.5287	2324.6674	2250.15	1358.8
960.6606	2326.0972	2243.15	1351.1
960.7925	2327.5263	2247.85	1356.65
960.9244	2328.9547	2242.25	1350.6
961.0562	2330.3823	2238.75	1346.05
961.1881	2331.8092	2241.8	1344.95
961.3198	2333.2355	2228.45	1335.95
961.4516	2334.661	2234.7	1341.3
961.5833	2336.0858	2229.2	1335.85
961.715	2337.5098	2226.4	1332.45
961.8467	2338.9332	2211.15	1319.9
961.9783	2340.3558	2214.6	1323.05
962.1099	2341.7778	2197.5	1310.55
962.2415	2343.199	2195.2	1306.6
962.373	2344.6195	2185.65	1295.8
962.5045	2346.0393	2180.7	1293.55
962.636	2347.4583	2187.05	1294.35
962.7675	2348.8767	2194.65	1302.4
962.8989	2350.2943	2194.2	1300.8
963.0303	2351.7113	2191.9	1297.85
963.1617	2353.1275	2178.45	1282.95
963.293	2354.543	2186.8	1286.05
963.4243	2355.9578	2176.65	1285.5
963.5556	2357.3718	2163.45	1275.15
963.6868	2358.7852	2159.1	1269.35
963.818	2360.1978	2155.55	1267.8
963.9492	2361.6098	2155.2	1267.25
964.0803	2363.021	2157.35	1262.9
964.2114	2364.4315	2145.45	1254.3
964.3425	2365.8413	2147.7	1256.05
964.4736	2367.2504	2129.7	1241
964.6046	2368.6587	2143.35	1257.85
964.7356	2370.0664	2119.45	1229.85
964.8666	2371.4733	2118.35	1230.05
964.9975	2372.8795	2124	1234.85
965.1284	2374.285	2115.95	1224.7
965.2593	2375.6899	2107.85	1219.55
965.3901	2377.0939	2105.55	1218.1
965.5209	2378.4973	2108	1220
965.6517	2379.9	2106.2	1217.65
965.7825	2381.3019	2101.25	1213.8
965.9132	2382.7032	2095.95	1208.75
966.0439	2384.1037	2083	1198.65
966.1745	2385.5035	2078.85	1193.7
966.3051	2386.9027	2069.55	1185.05
966.4357	2388.3011	2077.55	1188.35
966.5663	2389.6987	2071.7	1186.8
966.6968	2391.0957	2060.85	1172.9
966.8273	2392.492	2065	1178.7
966.9578	2393.8876	2061.45	1172
967.0882	2395.2824	2062.6	1174.7
967.2186	2396.6765	2043.45	1155.55
967.349	2398.07	2046.25	1156.35
967.4793	2399.4627	2040	1150.1
967.6097	2400.8547	2050.35	1162.35
967.7399	2402.246	2045.5	1152.15
967.8702	2403.6366	2033	1145.15
968.0004	2405.0265	2022.05	1134.7
968.1306	2406.4156	2021.65	1129.65
968.2607	2407.8041	2025.4	1135.65
968.3909	2409.1918	2015.7	1123.75
968.521	2410.5789	2017.75	1127.25
968.651	2411.9652	2012.7	1119.65
968.781	2413.3508	2008.55	1120.9
968.911	2414.7358	2008	1119.35
969.041	2416.12	1993.75	1102.9
969.1709	2417.5035	1993.75	1105.5
969.3008	2418.8863	1995.45	1105.4
969.4307	2420.2684	1995.05	1104.6
969.5606	2421.6497	1983.55	1094.25
969.6904	2423.0304	1979.05	1090.45
969.8201	2424.4104	1970.75	1083.65
969.9499	2425.7896	1980.8	1089.35
970.0796	2427.1682	1973.8	1085.85
970.2093	2428.546	1972.45	1082.9
970.3389	2429.9232	1973.3	1084.15
970.4685	2431.2996	1956.65	1067.3
970.5981	2432.6753	1958.85	1067.3
970.7277	2434.0503	1958.95	1068.4
970.8572	2435.4246	1951.1	1063.05
970.9867	2436.7982	1950.2	1059.55
971.1161	2438.1711	1948.85	1060
971.2456	2439.5433	1944	1054.1
971.375	2440.9148	1940.45	1044.65
971.5043	2442.2856	1940.9	1052.15
971.6336	2443.6557	1933.05	1043.75
971.7629	2445.025	1932.4	1041.85
971.8922	2446.3937	1926.95	1036.55
972.0214	2447.7617	1923.25	1032.35
972.1506	2449.1289	1922.15	1032.8
972.2798	2450.4955	1915.9	1023
972.4089	2451.8613	1909.1	1020.1
972.538	2453.2265	1911.75	1024.4
972.6671	2454.5909	1902.6	1011.25
972.7961	2455.9546	1905.85	1016.8
972.9251	2457.3177	1900.4	1011.5
973.0541	2458.68	1903.65	1013.2
973.1831	2460.0416	1904.2	1016.2
973.312	2461.4025	1900.95	1011.25
973.4408	2462.7627	1894.4	994.35
973.5697	2464.1222	1887.7	1003.9
973.6985	2465.4811	1892.85	1005.65
973.8273	2466.8392	1878.3	991.45
973.956	2468.1966	1890.45	999.35
974.0847	2469.5533	1886.4	992.9
974.2134	2470.9093	1883.7	993.05
974.3421	2472.2645	1881.8	989.55
974.4707	2473.6191	1878.5	989.7
974.5993	2474.973	1872.85	983.85
974.7278	2476.3262	1867.75	975.05
974.8563	2477.6787	1864.5	977.35
974.9848	2479.0305	1853.9	965.9
975.1132	2480.3816	1860.55	971.85
975.2417	2481.7319	1852.6	965.9
975.37	2483.0816	1860.4	970.3
975.4984	2484.4306	1845.95	956.85
975.6267	2485.7789	1844.65	957.85
975.755	2487.1264	1842.9	951.85
975.8833	2488.4733	1838.75	953.5
976.0115	2489.8195	1836.8	941.45
976.1397	2491.165	1847.5	955.2
976.2678	2492.5097	1834.75	946
976.3959	2493.8538	1821.35	934.85
976.524	2495.1972	1820.1	932.1
976.6521	2496.5398	1809.35	920
976.7801	2497.8818	1823.5	931.45
976.9081	2499.2231	1820.4	928.55
977.036	2500.5637	1807.15	914.8
977.164	2501.9035	1803.1	912.9
977.2918	2503.2427	1810.65	915.65
977.4197	2504.5812	1806.95	915.65
977.5475	2505.919	1803.4	913.45
977.6753	2507.256	1802.8	911.85
977.8031	2508.5924	1793	905.25
977.9308	2509.9281	1794.05	901.05
978.0585	2511.2631	1792.55	904.7
978.1861	2512.5974	1785.9	895.5
978.3137	2513.9309	1782.5	894.2
978.4413	2515.2638	1814.25	899.05
978.5689	2516.596	1784.25	894.9
978.6964	2517.9275	1778.15	889.35
978.8239	2519.2583	1772.5	882
978.9513	2520.5884	1771	879.85
979.0788	2521.9178	1767.2	878.55
979.2062	2523.2465	1767	879.75
979.3335	2524.5745	1767.45	882.3
979.4608	2525.9018	1763.55	875.9
979.5881	2527.2284	1761.85	877.5
979.7154	2528.5543	1758.9	870.1
979.8426	2529.8796	1761.5	873
979.9698	2531.2041	1753.85	864.2
980.0969	2532.5279	1758.4	871.45
980.224	2533.851	1750.7	860.3
980.3511	2535.1735	1751.6	863.3
980.4781	2536.4952	1752.05	862.2
980.6052	2537.8163	1743.1	852.05
980.7321	2539.1366	1748.7	859.7
980.8591	2540.4562	1738.65	847.95
980.986	2541.7752	1740.1	850.8
981.1129	2543.0935	1742.4	853.45
981.2397	2544.411	1735.25	843.2
981.3665	2545.7279	1740	850.4
981.4933	2547.0441	1727.8	836.7
981.62	2548.3596	1738.2	844.55
981.7467	2549.6744	1731.65	840.75
981.8734	2550.9885	1725.55	834.3
982.0001	2552.3019	1725.7	837
982.1267	2553.6146	1721.2	832
982.2532	2554.9266	1732.8	845.1
982.3798	2556.2379	1721.15	832.1
982.5063	2557.5485	1717.15	829.95
982.6327	2558.8585	1720.8	823.1
982.7592	2560.1677	1717.5	823.2
982.8856	2561.4762	1713.85	825.05
983.0119	2562.7841	1714.5	822.55
983.1383	2564.0913	1707	820.05
983.2646	2565.3977	1707.4	818
983.3908	2566.7035	1710.8	820.85
983.517	2568.0086	1707.05	813.9
983.6432	2569.313	1700.65	809.7
983.7694	2570.6167	1695.5	801.35
983.8955	2571.9197	1693.5	804.1
984.0216	2573.222	1702.6	811.3
984.1476	2574.5236	1699.75	809.1
984.2737	2575.8246	1702.05	808.95
984.3996	2577.1248	1690.05	797.85
984.5256	2578.4244	1699.55	810.15
984.6515	2579.7232	1685.6	797.45
984.7774	2581.0214	1719.15	802.9
984.9032	2582.3189	1681.55	794.35
985.029	2583.6157	1696.8	804.15
985.1548	2584.9118	1692.5	803.4
985.2806	2586.2072	1681.95	793.25
985.4063	2587.5019	1694.2	807.1
985.5319	2588.7959	1689.05	796.5
985.6576	2590.0893	1693.95	802.5
985.7832	2591.3819	1695.45	806.35
985.9087	2592.6739	1681.55	794.45
986.0343	2593.9652	1698.6	812.8
986.1597	2595.2557	1696.3	807.6
986.2852	2596.5456	1681.95	790.25
986.4106	2597.8348	1683.35	794.75
986.536	2599.1234	1677.55	791.95
986.6614	2600.4112	1688.2	802.6
986.7867	2601.6983	1686.45	794.75
986.912	2602.9848	1681.8	790.15
987.0372	2604.2705	1684.3	789.3
987.1624	2605.5556	1681.65	792.45
987.2876	2606.84	1671.05	782.75
987.4128	2608.1237	1671	784.25
987.5379	2609.4067	1661.05	771
987.6629	2610.689	1679.8	781.65
987.788	2611.9707	1667.8	773.05
987.913	2613.2516	1659.25	766.6
988.0379	2614.5319	1657.05	768.95
988.1629	2615.8115	1647.25	759.4
988.2878	2617.0903	1644.55	755.4
988.4126	2618.3685	1644.4	757.5
988.5375	2619.6461	1639.05	752.8
988.6622	2620.9229	1634.05	747.05
988.787	2622.199	1644.75	757.15
988.9117	2623.4745	1644.45	757.2
989.0364	2624.7493	1637	747.35
989.161	2626.0234	1635.5	748.3
989.2857	2627.2968	1636.85	750.85
989.4102	2628.5695	1641.5	750.25
989.5348	2629.8415	1629.5	742.7
989.6593	2631.1128	1627.7	737.95
989.7837	2632.3835	1621.95	734.35
989.9082	2633.6535	1623.7	738.55
990.0326	2634.9228	1623.55	737.35
990.1569	2636.1914	1625.3	738.9
990.2812	2637.4593	1619.45	729.9
990.4055	2638.7265	1619.4	731.7
990.5298	2639.9931	1620.3	732.1
990.654	2641.259	1616.05	726.65
990.7782	2642.5242	1609.65	721.15
990.9023	2643.7887	1604.55	716.35
991.0264	2645.0525	1604.1	717.35
991.1505	2646.3156	1601.8	714.7
991.2745	2647.5781	1601.8	714.9
991.3985	2648.8398	1594.05	709.65
991.5225	2650.1009	1625.8	702.05
991.6464	2651.3613	1606.6	720.55
991.7703	2652.6211	1590.5	701.35
991.8942	2653.8801	1590.1	704.2
992.018	2655.1385	1595	704.9
992.1418	2656.3961	1589.95	703.5
992.2655	2657.6531	1594.1	708.05
992.3892	2658.9094	1590.75	704.7
992.5129	2660.1651	1594.8	710.8
992.6366	2661.42	1595.55	710.25
992.7602	2662.6743	1593	705
992.8837	2663.9279	1592.2	704.95
993.0073	2665.1808	1589.7	704.6
993.1307	2666.433	1595.8	709
993.2542	2667.6846	1598.2	711.75
993.3776	2668.9354	1605.2	713.85
993.501	2670.1856	1602.85	716.45
993.6244	2671.4351	1607	722.3
993.7477	2672.6839	1595.5	707.1
993.8709	2673.9321	1606.3	718.4
993.9942	2675.1795	1606.6	719.45
994.1174	2676.4263	1606.6	720.75
994.2405	2677.6724	1604.95	719.35
994.3637	2678.9179	1606.3	720.1
994.4868	2680.1626	1605.2	718.7
994.6098	2681.4067	1605.05	720.85
994.7328	2682.6501	1604.55	715.8
994.8558	2683.8928	1596.8	712.5
994.9788	2685.1348	1598.2	710.15
995.1017	2686.3761	1586.55	701.3
995.2245	2687.6168	1590.9	706.3
995.3474	2688.8568	1579.05	692.5
995.4702	2690.0961	1571.05	686.6
995.5929	2691.3348	1572.6	686.05
995.7156	2692.5727	1570.9	684.85
995.8383	2693.81	1569.05	683.25
995.961	2695.0466	1575.05	691.05
996.0836	2696.2826	1568.45	681.35
996.2062	2697.5178	1590.2	683.7
996.3287	2698.7524	1570.6	682.55
996.4512	2699.9863	1572.5	686.15
996.5737	2701.2195	1564.1	678.05
996.6961	2702.452	1580.4	693.5
996.8185	2703.6839	1575.85	689.85
996.9408	2704.9151	1575.55	691.05
997.0631	2706.1456	1579	692.25
997.1854	2707.3755	1595.6	708.65
997.3077	2708.6046	1597.1	709.75
997.4299	2709.8331	1599.9	713.4
997.552	2711.0609	1605.1	720.55
997.6742	2712.2881	1614.8	728.2
997.7963	2713.5145	1620.15	731.9
997.9183	2714.7403	1613.25	727.8
998.0403	2715.9654	1629.8	744
998.1623	2717.1899	1659.1	757.65
998.2842	2718.4136	1653.15	767.1
998.4062	2719.6367	1664.25	777.65
998.528	2720.8591	1677.7	784.65
998.6498	2722.0809	1686.15	800.65
998.7716	2723.3019	1698.65	809.35
998.8934	2724.5223	1707.5	821.05
999.0151	2725.7421	1710.4	823.05
999.1368	2726.9611	1712	825
999.2584	2728.1795	1716.9	828
999.38	2729.3972	1703.75	818.3
999.5016	2730.6142	1698.5	801.5
999.6231	2731.8306	1679.85	793.5
999.7446	2733.0462	1660.3	773.3
999.8661	2734.2612	1649.75	760.4
999.9875	2735.4756	1625.15	738.15
1000.1089	2736.6892	1612.05	726.55
1000.2302	2737.9022	1597.55	713.85
1000.3515	2739.1145	1579.6	691.55
1000.4728	2740.3262	1575.35	682.75
1000.594	2741.5372	1560.9	675.85
1000.7152	2742.7475	1552.4	666.35
1000.8363	2743.9571	1546.7	660.15
1000.9575	2745.1661	1531.95	640.75
1001.0785	2746.3744	1520.65	634.75
1001.1996	2747.582	1517.3	631.6
1001.3206	2748.7889	1507.45	621.75
1001.4415	2749.9952	1495.85	612.55
1001.5625	2751.2008	1491.8	606.2
1001.6833	2752.4057	1491.35	603.95
1001.8042	2753.61	1483.7	597.25
1001.925	2754.8136	1483.3	596.95
1002.0458	2756.0165	1484.45	598.85
1002.1665	2757.2188	1480.3	597.65
1002.2872	2758.4204	1485.65	600.8
1002.4078	2759.6213	1479.85	591.4
1002.5285	2760.8215	1485.7	597.1
1002.649	2762.0211	1472.2	584.1
1002.7696	2763.22	1469.6	581.75
1002.8901	2764.4182	1475.15	589.45
1003.0106	2765.6158	1470.5	585.45
1003.131	2766.8127	1471.55	586.35
1003.2514	2768.009	1464.7	577.95
1003.3717	2769.2045	1457.95	570.95
1003.492	2770.3994	1466.15	580.1
1003.6123	2771.5936	1453.05	567.7
1003.7325	2772.7872	1448.25	564.55
1003.8527	2773.9801	1442.5	558.25
1003.9729	2775.1723	1462.7	560.6
1004.093	2776.3639	1449.5	565.75
1004.2131	2777.5548	1438.8	552.3
1004.3331	2778.745	1444.3	558.75
1004.4531	2779.9346	1440.1	555.5
1004.5731	2781.1235	1442	556.65
1004.693	2782.3117	1447.5	565.55
1004.8129	2783.4992	1446	564.9
1004.9328	2784.6861	1456.9	573.75
1005.0526	2785.8723	1455.1	571.55
1005.1723	2787.0579	1459.85	574.8
1005.2921	2788.2428	1459.95	580
1005.4118	2789.427	1470.9	586.25
1005.5314	2790.6106	1473.3	589.25
1005.651	2791.7935	1484.3	598.6
1005.7706	2792.9757	1486.65	605.15
1005.8902	2794.1573	1498.6	612.8
1006.0097	2795.3382	1504.9	619.8
1006.1291	2796.5184	1515.8	631
1006.2485	2797.698	1521.95	638.65
1006.3679	2798.8769	1540.15	657.1
1006.4873	2800.0551	1544.6	659.2
1006.6066	2801.2327	1573.9	688.05
1006.7258	2802.4096	1574.15	689.85
1006.8451	2803.5859	1597.55	714.2
1006.9642	2804.7615	1606.85	726.5
1007.0834	2805.9364	1637.4	754.7
1007.2025	2807.1106	1650.1	764.2
1007.3216	2808.2842	1676.4	792.65
1007.4406	2809.4572	1710	828.15
1007.5596	2810.6294	1736.2	852.45
1007.6785	2811.801	1763.6	880.35
1007.7975	2812.972	1804.75	924.6
1007.9163	2814.1423	1840.55	958.4
1008.0352	2815.3119	1893.8	1010.7
1008.154	2816.4808	1925.45	1042.35
1008.2727	2817.6491	1979.6	1094.85
1008.3914	2818.8167	2037.9	1156.1
1008.5101	2819.9837	2076.4	1189.35
1008.6288	2821.15	2135.7	1252.15
1008.7474	2822.3157	2180.45	1298.65
1008.8659	2823.4807	2232	1347.65
1008.9844	2824.645	2296.05	1411
1009.1029	2825.8086	2342	1460.65
1009.2214	2826.9716	2402.05	1519.5
1009.3398	2828.134	2457.9	1576.45
1009.4581	2829.2957	2502.25	1618.9
1009.5764	2830.4567	2530.2	1646.75
1009.6947	2831.617	2562.95	1679.7
1009.813	2832.7767	2561.7	1680.85
1009.9312	2833.9358	2558.5	1676.85
1010.0493	2835.0941	2550.6	1665.5
1010.1675	2836.2519	2543.75	1662.6
1010.2855	2837.4089	2529.1	1646.95
1010.4036	2838.5653	2526.55	1645.15
1010.5216	2839.7211	2508.1	1627.65
1010.6396	2840.8761	2508.7	1623.3
1010.7575	2842.0306	2528.3	1645.6
1010.8754	2843.1843	2544.15	1661.65
1010.9932	2844.3374	2581.55	1700
1011.111	2845.4899	2621.35	1740.1
1011.2288	2846.6417	2682.15	1800.55
1011.3465	2847.7928	2744.75	1865.6
1011.4642	2848.9433	2795.95	1913.25
1011.5818	2850.0931	2857.15	1976.75
1011.6995	2851.2422	2930.45	2045.9
1011.817	2852.3907	3000.1	2117.6
1011.9345	2853.5385	3063.8	2179.65
1012.052	2854.6857	3107.7	2213.05
1012.1695	2855.8323	3147.75	2266.95
1012.2869	2856.9781	3202.4	2320
1012.4042	2858.1233	3256.25	2375.25
1012.5216	2859.2679	3305.5	2425.2
1012.6389	2860.4118	3340.85	2459.2
1012.7561	2861.555	3406.45	2521.3
1012.8733	2862.6976	3442.25	2557.85
1012.9905	2863.8395	3466.95	2587.95
1013.1076	2864.9808	3495.3	2615.25
1013.2247	2866.1214	3517.35	2636.1
1013.3417	2867.2614	3531.8	2648.5
1013.4587	2868.4007	3549.95	2665.4
1013.5757	2869.5393	3574.3	2688.95
1013.6926	2870.6773	3580.95	2694.65
1013.8095	2871.8146	3591.85	2706.9
1013.9263	2872.9513	3591.55	2704.85
1014.0431	2874.0874	3583.95	2701.7
1014.1599	2875.2227	3578.75	2694.35
1014.2766	2876.3574	3558.15	2676.4
1014.3933	2877.4915	3550.55	2666.2
1014.51	2878.6249	3517.25	2636.3
1014.6266	2879.7577	3476.85	2593.8
1014.7431	2880.8898	3474.65	2583.25
1014.8596	2882.0212	3449.1	2569.05
1014.9761	2883.152	3437.65	2556.8
1015.0925	2884.2821	3419.5	2538.5
1015.2089	2885.4116	3407.85	2527.1
1015.3253	2886.5405	3412.1	2532.15
1015.4416	2887.6686	3424.8	2537.2
1015.5579	2888.7962	3420.95	2543.15
1015.6741	2889.923	3428.4	2548.6
1015.7903	2891.0493	3451.5	2570.75
1015.9065	2892.1748	3449.45	2570.25
1016.0226	2893.2997	3474.05	2593.8
1016.1387	2894.424	3481.3	2602.25
1016.2547	2895.5476	3493.85	2613.05
1016.3707	2896.6706	3521.9	2642.45
1016.4866	2897.7929	3539.5	2656.55
1016.6025	2898.9145	3568.3	2688.8
1016.7184	2900.0355	3598.95	2716.75
1016.8342	2901.1559	3624.25	2742.75
1016.95	2902.2756	3650.45	2763.3
1017.0658	2903.3946	3690.8	2809.45
1017.1815	2904.513	3716.55	2832.9
1017.2971	2905.6308	3736.7	2856.25
1017.4127	2906.7479	3749.95	2867.3
1017.5283	2907.8643	3785.75	2902.35
1017.6439	2908.9801	3791.45	2909.6
1017.7594	2910.0953	3795.1	2914.05
1017.8748	2911.2098	3807.95	2922.05
1017.9902	2912.3236	3801.25	2912.25
1018.1056	2913.4368	3792.15	2909.9
1018.2209	2914.5494	3764.35	2881.4
1018.3362	2915.6613	3732.65	2845.5
1018.4515	2916.7725	3700.9	2819.1
1018.5667	2917.8831	3682.8	2800.25
1018.6819	2918.9931	3638.15	2756.35
1018.797	2920.1024	3618.55	2738.05
1018.9121	2921.211	3611.3	2730.95
1019.0271	2922.319	3591.3	2711.75
1019.1421	2923.4264	3577.3	2696.45
1019.2571	2924.5331	3569.6	2691.55
1019.372	2925.6391	3554.55	2676.4
1019.4869	2926.7445	3564.45	2685.2
1019.6017	2927.8493	3551	2672.05
1019.7165	2928.9534	3550.65	2669.65
1019.8313	2930.0569	3548.65	2664.85
1019.946	2931.1597	3553.85	2671.85
1020.0606	2932.2619	3554.25	2673.35
1020.1753	2933.3634	3556.4	2673.45
1020.2899	2934.4643	3556.5	2668.55
1020.4044	2935.5645	3536.8	2651.05
1020.5189	2936.6641	3519.1	2634.65
1020.6334	2937.763	3487.05	2608.5
1020.7478	2938.8613	3434.55	2554.9
1020.8622	2939.959	3403.8	2518.6
1020.9765	2941.056	3339.25	2459.6
1021.0908	2942.1523	3253.15	2371.4
1021.2051	2943.248	3183.85	2303.2
1021.3193	2944.3431	3082.1	2202.3
1021.4334	2945.4375	2999.25	2119.4
1021.5476	2946.5313	2895.45	2014.8
1021.6617	2947.6244	2799.65	1919.55
1021.7757	2948.7169	2696.75	1814.4
1021.8897	2949.8087	2603.2	1724.35
1022.0037	2950.8999	2505.65	1624.15
1022.1176	2951.9904	2439	1560.2
1022.2315	2953.0803	2374.85	1492.95
1022.3453	2954.1696	2309.05	1430.95
1022.4591	2955.2582	2246.65	1367.55
1022.5728	2956.3462	2205.85	1326.3
1022.6865	2957.4335	2166.25	1286.95
1022.8002	2958.5202	2142	1259.8
1022.9138	2959.6062	2101.2	1221.6
1023.0274	2960.6916	2085.4	1207.8
1023.141	2961.7764	2053.4	1173.15
1023.2545	2962.8605	2052.15	1171.1
1023.3679	2963.9439	2037.15	1158.1
1023.4813	2965.0267	2018.35	1136.5
1023.5947	2966.1089	2028.55	1124.65
1023.708	2967.1905	2000.8	1121.85
1023.8213	2968.2714	2000.95	1122.05
1023.9346	2969.3516	2012.9	1134.35
1024.0478	2970.4312	2017.05	1128.3
1024.1609	2971.5102	2002.35	1123.95
1024.274	2972.5885	2011.45	1132.6
1024.3871	2973.6662	2020.35	1136.8
1024.5002	2974.7432	2011	1132.45
1024.6132	2975.8196	2003.8	1124
1024.7261	2976.8954	1999.95	1120.6
1024.839	2977.9705	1988.65	1110.9
1024.9519	2979.045	1971.45	1092.35
1025.0647	2980.1188	1961.8	1084.3
1025.1775	2981.192	1946.45	1067.15
1025.2902	2982.2645	1928.4	1050.05
1025.4029	2983.3364	1901.55	1020.9
1025.5156	2984.4077	1878.85	999.5
1025.6282	2985.4783	1855.8	970.1
1025.7407	2986.5483	1823.45	944.8
1025.8532	2987.6177	1788.35	909.1
1025.9657	2988.6864	1756.85	878.35
1026.0782	2989.7545	1725.65	844.45
1026.1906	2990.8219	1692.6	814.4
1026.3029	2991.8887	1668.2	789.8
1026.4152	2992.9548	1626.15	746.8
1026.5275	2994.0204	1589.8	711.4
1026.6397	2995.0852	1568	691.25
1026.7519	2996.1495	1543.95	664.7
1026.864	2997.2131	1517.5	639
1026.9761	2998.276	1500.8	620.9
1027.0882	2999.3383	1472.6	594.05
1027.2002	3000.4	1461.3	580.8
1027.3122	3001.4611	1427.35	548.85
1027.4241	3002.5215	1417.95	539.3
1027.536	3003.5812	1406	529.5
1027.6478	3004.6404	1387.5	509.25
1027.7596	3005.6989	1376.65	497
1027.8714	3006.7567	1371.25	493.05
1027.9831	3007.8139	1386.75	481.5
1028.0947	3008.8705	1338.25	457.65
1028.2064	3009.9264	1346.6	466
1028.3179	3010.9818	1332.9	455.85
1028.4295	3012.0364	1324.45	441.6
1028.541	3013.0905	1319.75	440.9
1028.6524	3014.1439	1315.15	436.55
1028.7638	3015.1966	1322.15	444.35
1028.8752	3016.2487	1310.4	431.7
1028.9865	3017.3002	1311.75	430.65
1029.0978	3018.3511	1303.95	428.85
1029.209	3019.4013	1304.35	427.05
1029.3202	3020.4509	1296.35	419.05
1029.4314	3021.4998	1301.5	422.95
1029.5425	3022.5481	1292.35	411.75
1029.6535	3023.5958	1295.55	416.9
1029.7645	3024.6428	1299.8	418.8
1029.8755	3025.6892	1291.9	414.45
1029.9864	3026.735	1295.75	417.75
1030.0973	3027.7802	1292.75	415.1
1030.2082	3028.8247	1286.35	409.45
1030.319	3029.8685	1297.05	418.05
1030.4297	3030.9118	1300.05	421.8
1030.5404	3031.9544	1299.85	423.85
1030.6511	3032.9963	1304.2	426.6
1030.7617	3034.0376	1308.7	430.2
1030.8723	3035.0783	1317.6	437.7
1030.9829	3036.1184	1310.2	431.7
1031.0934	3037.1578	1314.65	436.35
1031.2038	3038.1966	1315.55	436.6
1031.3142	3039.2348	1309.05	431.6
1031.4246	3040.2723	1320.4	433.9
1031.5349	3041.3092	1315.1	438.2
1031.6452	3042.3455	1310.65	434.1
1031.7554	3043.3811	1317.45	437.45
1031.8656	3044.4161	1306.75	425.45
1031.9758	3045.4505	1308.05	432.85
1032.0859	3046.4842	1307.45	428.15
1032.1959	3047.5173	1298.75	421.15
1032.3059	3048.5498	1291.85	412.85
1032.4159	3049.5816	1294.65	418.15
1032.5258	3050.6128	1293.35	414.9
1032.6357	3051.6434	1286.9	409.6
1032.7455	3052.6734	1286.75	407.65
1032.8553	3053.7027	1280.25	402.4
1032.9651	3054.7314	1275.7	399.2
1033.0748	3055.7594	1273.85	397.7
1033.1845	3056.7868	1268.6	390.8
1033.2941	3057.8136	1262.5	384.45
1033.4037	3058.8398	1258.8	381.35
1033.5132	3059.8653	1259.85	381.15
1033.6227	3060.8902	1257.15	380.1
1033.7321	3061.9145	1251.9	374.9
1033.8415	3062.9381	1250.7	372.65
1033.9509	3063.9612	1262.35	368.65
1034.0602	3064.9835	1242.65	366.4
1034.1694	3066.0053	1236.1	355.95
1034.2787	3067.0264	1229.8	354.05
1034.3878	3068.0469	1230.3	350.5
1034.497	3069.0668	1227.1	346.1
1034.6061	3070.086	1219.55	344.3
1034.7151	3071.1046	1211.6	334.9
1034.8241	3072.1226	1205.35	326.6
1034.9331	3073.1399	1200.75	325.5
1035.042	3074.1567	1194.75	316.05
1035.1508	3075.1727	1181.35	304.3
1035.2597	3076.1882	1174.15	298.55
1035.3684	3077.203	1171.85	293.95
1035.4772	3078.2173	1161.6	281.9
1035.5859	3079.2308	1153.75	274.75
1035.6945	3080.2438	1152.6	273.55
1035.8031	3081.2561	1139.7	262.1
1035.9117	3082.2678	1138.15	262.05
1036.0202	3083.2789	1132.95	255.1
1036.1286	3084.2893	1123.35	244.4
1036.2371	3085.2991	1120.45	243.35
1036.3454	3086.3083	1121.25	240
1036.4538	3087.3169	1112.2	234.3
1036.562	3088.3248	1110.3	232.2
1036.6703	3089.3321	1106.45	227.95
1036.7785	3090.3388	1095.35	218.05
1036.8866	3091.3449	1092.7	216.6
1036.9948	3092.3503	1090.15	211.45
1037.1028	3093.3551	1089	213.75
1037.2108	3094.3593	1082.3	206.6
1037.3188	3095.3629	1078.35	201.7
1037.4267	3096.3658	1073.15	194.2
1037.5346	3097.3681	1074.9	196.95
1037.6425	3098.3698	1073.5	195.25
1037.7503	3099.3708	1072.2	189.6
1037.858	3100.3713	1066.05	190.15
1037.9657	3101.3711	1065.2	186.35
1038.0734	3102.3702	1178.4	187.8
1038.181	3103.3688	1059.2	180.7
1038.2886	3104.3667	1054.95	176.55
1038.3961	3105.364	1051.8	175
1038.5036	3106.3607	1053.95	174.15
1038.611	3107.3568	1049.45	174.1
1038.7184	3108.3522	1047.3	171.95
1038.8257	3109.347	1048.45	171.75
1038.933	3110.3412	1048.55	167.3
1039.0403	3111.3348	1043.15	165.6
1039.1475	3112.3277	1035.15	158.1
1039.2547	3113.32	1040.85	165.25
1039.3618	3114.3117	1040.4	164.05
1039.4689	3115.3028	1040.6	164.25
1039.5759	3116.2932	1039.25	159.15
1039.6829	3117.2831	1040.25	158.65
1039.7898	3118.2723	1032	155.55
1039.8967	3119.2608	1030.55	155.3
1040.0035	3120.2488	1027.35	151.1
1040.1103	3121.2361	1025.45	148
1040.2171	3122.2229	1025.35	147.75
1040.3238	3123.209	1024.85	146.7
1040.4305	3124.1944	1023.1	147.45
1040.5371	3125.1793	1020.8	141.35
1040.6437	3126.1635	1022.65	145.2
1040.7502	3127.1471	1018.6	143.15
1040.8567	3128.1301	1021.3	145.55
1040.9631	3129.1125	1014.35	137.9
1041.0695	3130.0942	1013.45	136.8
1041.1759	3131.0753	1023.6	138.1
1041.2822	3132.0558	1015.15	136.25
1041.3884	3133.0357	1011.1	134.45
1041.4946	3134.015	1008.75	131.45
1041.6008	3134.9936	1012.75	135.55
1041.7069	3135.9716	1028.1	130.65
1041.813	3136.949	1005.15	130.75
1041.919	3137.9258	1022.2	126
1042.025	3138.902	1010.15	129.4
1042.1309	3139.8775	1003.35	126.8
1042.2368	3140.8524	1002.05	127.15
1042.3427	3141.8267	1003.15	124.2
1042.4485	3142.8004	1001.25	124.85
1042.5542	3143.7735	1004.55	124.15
1042.6599	3144.7459	999.4	120.8
1042.7656	3145.7178	998.25	121.35
1042.8712	3146.689	999.05	126.35
1042.9768	3147.6596	998.15	119.75
1043.0823	3148.6295	997.5	120.25
1043.1878	3149.5989	993.85	115.4
1043.2932	3150.5676	995.75	120.95
1043.3986	3151.5357	990.25	114.6
1043.5039	3152.5032	988.95	113.05
1043.6092	3153.4701	986.85	109.2
1043.7145	3154.4364	992.8	115.1
1043.8197	3155.402	985.6	111.05
1043.9248	3156.367	989.8	112.35
1044.03	3157.3315	1023.4	108.45
1044.135	3158.2952	985.7	110.05
1044.24	3159.2584	984.85	108.45
1044.345	3160.221	986.6	110.25
1044.4499	3161.1829	984.3	108.05
1044.5548	3162.1442	979.8	103.25
1044.6596	3163.105	982.15	105.45
1044.7644	3164.065	981.9	105.6
1044.8692	3165.0245	983.95	105.45
1044.9739	3165.9834	980.45	106.45
1045.0785	3166.9416	976.2	99.25
1045.1831	3167.8993	977.4	100.95
1045.2877	3168.8563	977.7	101.5
1045.3922	3169.8127	974.45	100.55
1045.4966	3170.7684	972.85	96.55
1045.6011	3171.7236	975.95	99.85
1045.7054	3172.6782	974.5	96.3
1045.8098	3173.6321	976.7	99.05
1045.914	3174.5854	976.15	94.1
1046.0183	3175.5381	973.95	96.7
1046.1224	3176.4902	971.75	94.7
1046.2266	3177.4417	970.45	94.7
1046.3307	3178.3926	970.85	95.1
1046.4347	3179.3428	970.7	96.1
1046.5387	3180.2924	969.9	93.65
1046.6427	3181.2415	966.55	90.4
1046.7466	3182.1899	971.15	95.55
1046.8504	3183.1377	968.75	94.55
1046.9542	3184.0848	971.1	91.85
1047.058	3185.0314	969.2	92.65
1047.1617	3185.9773	966.05	88
1047.2654	3186.9227	965.65	89
1047.369	3187.8674	967.6	91.55
1047.4726	3188.8115	966.45	86.2
1047.5761	3189.755	964.5	87.3
1047.6796	3190.6979	966.9	92.35
1047.783	3191.6402	963.2	88.5
1047.8864	3192.5818	961.4	84.55
1047.9898	3193.5229	967.6	86.3
1048.0931	3194.4633	960.55	86.1
1048.1963	3195.4031	961.2	85.4
1048.2995	3196.3423	958.2	82.3
1048.4027	3197.2809	957.7	80.45
1048.5058	3198.2189	959.15	83.55
1048.6089	3199.1563	965.3	81.4
1048.7119	3200.0931	959.7	85.65
1048.8148	3201.0292	958.65	82.6
1048.9178	3201.9648	955.85	79.7
1049.0206	3202.8997	961.15	81.95
1049.1235	3203.834	956.2	81
1049.2262	3204.7677	956.1	80.9
1049.329	3205.7008	955.25	78.15
1049.4317	3206.6333	952.45	78.15
1049.5343	3207.5652	959.4	79.95
1049.6369	3208.4964	953.95	77.8
1049.7394	3209.4271	956.75	81.3
1049.8419	3210.3571	953.55	77.8
1049.9444	3211.2865	955	80.45
1050.0468	3212.2154	952.05	76.65
1050.1491	3213.1436	955.5	77.25
1050.2514	3214.0712	957.5	75.1
1050.3537	3214.9982	951.05	74.35
1050.4559	3215.9246	945.65	69.1
1050.5581	3216.8503	946.95	70.95
1050.6602	3217.7755	949.8	75.05
1050.7623	3218.7001	948	72.6
1050.8643	3219.624	949.45	73.65
1050.9663	3220.5473	948.3	73.55
1051.0682	3221.4701	953.75	78.15
1051.1701	3222.3922	950.1	72.7
1051.2719	3223.3137	947.7	72.5
1051.3737	3224.2346	947.85	72.2
1051.4754	3225.1549	943.9	67.35
1051.5771	3226.0746	944.7	67.1
1051.6788	3226.9937	948.15	71.2
1051.7804	3227.9121	945.3	72.7
1051.8819	3228.83	943.1	70.5
1051.9834	3229.7473	945.65	70.3
1052.0849	3230.6639	944.1	68.25
1052.1863	3231.5799	941.7	66.6
1052.2876	3232.4954	943.05	67.55
1052.3889	3233.4102	940.65	66.9
1052.4902	3234.3244	941.9	65.9
1052.5914	3235.238	945.9	71.1
1052.6926	3236.151	966.9	69.2
1052.7937	3237.0634	937.95	65.1
1052.8948	3237.9752	940.2	64.4
1052.9958	3238.8864	938.15	62.75
1053.0968	3239.797	939.2	64.3
1053.1977	3240.7069	941.65	65.95
1053.2986	3241.6163	937.85	62.45
1053.3994	3242.5251	938.65	64.35
1053.5002	3243.4332	936.55	60.1
1053.6009	3244.3408	940.35	64.3
1053.7016	3245.2477	938.45	63.45
1053.8022	3246.154	938.8	64.3
1053.9028	3247.0598	936.55	59.8
1054.0034	3247.9649	934.15	60.4
1054.1039	3248.8694	937.2	61.85
1054.2043	3249.7733	934.5	58.1
1054.3047	3250.6766	929.85	55.65
1054.4051	3251.5793	936.55	59.3
1054.5054	3252.4814	931.9	59
1054.6056	3253.3829	934.3	60.75
1054.7058	3254.2838	929.9	55.55
1054.806	3255.1841	930.05	54.1
1054.9061	3256.0838	930	55.35
1055.0061	3256.9829	927.8	53.55
1055.1062	3257.8814	933.6	56
1055.2061	3258.7792	931.9	52.9
1055.306	3259.6765	928.1	52.05
1055.4059	3260.5731	928.7	54.3
1055.5057	3261.4692	927.45	50.15
1055.6055	3262.3647	927.05	52.8
1055.7052	3263.2595	924.75	49.85
1055.8049	3264.1538	926.1	51.65
1055.9045	3265.0474	925.65	51
1056.0041	3265.9404	923.9	50.4
1056.1036	3266.8329	921.8	47.6
1056.2031	3267.7247	932.05	47.95
1056.3025	3268.616	920.7	47.95
1056.4019	3269.5066	921	45.1
1056.5013	3270.3966	917.9	41.9
1056.6005	3271.286	913	39.3
