Software Version:	3.9.2.0
Unit SN:	10000200
Spectrometer SN:	6960
Date:	3/8/2024 12:06:05 PM
Data Line Index:	25
Spectral Points:	2048
Integration time (ms):	125
Averages:	20
Delay (ms):	30000
Sequence Number:	1
Processing:	dark subtract
Laser Power (mW):	305
Laser Current (mA):	823
Laser Diode Temp (C):	25.1
Laser Case Temp (C):	25.6
System Temp (C):	25.6
Spectrometer Temp (C):	23.5
CCD Temp (C):	-0.003
Secondary Temp (C):	20.008
Heatsink Temp (C):	20.431
CCDPCB Temp (C):	35.818
SecondaryPCB Temp (C):	28.737

Wavelength	RamanShift	Raw Counts	Dark Subtracted
787.061	30.1047	415.3	6.05
787.2016	32.3739	412.9	5.45
787.3422	34.6426	415.9	5.65
787.4828	36.9109	416.65	6.05
787.6235	39.1787	420.35	6.1
787.7642	41.4461	428.95	10.75
787.9049	43.7131	430.05	7.35
788.0456	45.9796	431.45	7.45
788.1863	48.2456	437.3	6.7
788.3271	50.5112	442.3	8.4
788.4679	52.7764	447.25	12.25
788.6087	55.0411	451.6	10.15
788.7496	57.3054	457.35	11.3
788.8904	59.5692	461.15	14
789.0313	61.8326	462.65	15.6
789.1722	64.0955	469.4	17.75
789.3132	66.3579	473.85	14.95
789.4541	68.6199	482.1	20.5
789.5951	70.8815	492.6	25.45
789.7361	73.1426	510.05	38.65
789.8771	75.4032	546.35	71.95
790.0181	77.6634	619.25	142.6
790.1592	79.9231	793.3	308.8
790.3003	82.1824	1162.55	670.8
790.4414	84.4412	1761.85	1251.55
790.5825	86.6995	2516	1983.2
790.7237	88.9574	3237.15	2688.9
790.8648	91.2148	3719.2	3157.95
791.006	93.4717	3939.25	3366.6
791.1472	95.7282	3959.8	3385.2
791.2885	97.9842	3964.95	3388.1
791.4297	100.2398	3895.25	3316.65
791.571	102.4949	3840.2	3257.05
791.7123	104.7495	3800.6	3211.3
791.8536	107.0036	3731.15	3145.4
791.9949	109.2573	3654.9	3068.2
792.1363	111.5105	3563.6	2975.6
792.2777	113.7632	3441.25	2850.15
792.4191	116.0154	3360.05	2756.95
792.5605	118.2672	3245.05	2650.85
792.7019	120.5185	3127.8	2525.7
792.8434	122.7693	3040.25	2438.6
792.9849	125.0197	2949.85	2344.7
793.1264	127.2696	2882.1	2271.85
793.2679	129.519	2854.05	2243.3
793.4094	131.7679	2828.25	2218.55
793.551	134.0163	2803.55	2188
793.6926	136.2642	2784.45	2161.3
793.8342	138.5117	2770.95	2142
793.9758	140.7587	2746.55	2121.2
794.1175	143.0052	2689.35	2060.95
794.2591	145.2512	2638.35	2013.25
794.4008	147.4967	2579.8	1950.55
794.5425	149.7417	2544	1909.45
794.6842	151.9863	2523.85	1889.35
794.826	154.2304	2516.6	1876.5
794.9677	156.4739	2516.85	1870.2
795.1095	158.717	2528.1	1880.2
795.2513	160.9596	2549.15	1899.85
795.3931	163.2017	2554.8	1904.15
795.535	165.4433	2560.2	1906.5
795.6768	167.6844	2537.45	1882.3
795.8187	169.925	2505.95	1845.35
795.9606	172.1651	2456.95	1794.5
796.1025	174.4047	2410.25	1744.85
796.2445	176.6439	2387.5	1721.05
796.3864	178.8825	2363.75	1690.15
796.5284	181.1206	2336.9	1660.9
796.6704	183.3582	2333.55	1652.6
796.8124	185.5954	2324.95	1644.65
796.9544	187.832	2324.6	1638.35
797.0965	190.0681	2330.7	1642.5
797.2386	192.3037	2331.6	1642.8
797.3806	194.5388	2332.05	1639.35
797.5228	196.7734	2355.15	1656.85
797.6649	199.0075	2375.35	1680.15
797.807	201.2411	2390.5	1692.9
797.9492	203.4742	2400.7	1701.6
798.0914	205.7068	2428.1	1722.85
798.2336	207.9389	2456.6	1749.35
798.3758	210.1704	2466.9	1768.75
798.518	212.4015	2469.35	1786.25
798.6603	214.632	2447.1	1766.8
798.8025	216.862	2459.95	1779.05
798.9448	219.0915	2459.9	1776.6
799.0871	221.3205	2484.95	1798.65
799.2294	223.549	2482.7	1800.6
799.3718	225.777	2472.45	1789.65
799.5141	228.0044	2479.7	1788.95
799.6565	230.2314	2455.2	1764.8
799.7989	232.4578	2444.85	1750.25
799.9413	234.6837	2449.5	1747.6
800.0837	236.909	2430.3	1725.5
800.2262	239.1339	2443.35	1713.4
800.3687	241.3582	2428.25	1714.9
800.5111	243.582	2450.4	1707
800.6536	245.8053	2450.2	1717.3
800.7961	248.0281	2461.7	1735.85
800.9387	250.2503	2459.8	1727.25
801.0812	252.472	2476.4	1744.6
801.2238	254.6932	2483.5	1753.8
801.3664	256.9139	2479.35	1747.75
801.509	259.134	2510	1774.5
801.6516	261.3536	2530.8	1795.75
801.7942	263.5727	2578.1	1840.85
801.9369	265.7912	2615.2	1878.1
802.0795	268.0092	2681.2	1945.75
802.2222	270.2267	2737.45	1997.95
802.3649	272.4436	2787.1	2048.1
802.5076	274.6601	2823.2	2075.05
802.6504	276.8759	2836.7	2090.9
802.7931	279.0913	2856.2	2108.35
802.9359	281.3061	2866.75	2118.9
803.0787	283.5204	2894.2	2140.6
803.2215	285.7341	2921.5	2168.15
803.3643	287.9473	2931.45	2178.15
803.5071	290.16	2922.5	2167.75
803.6499	292.3721	2903.3	2153
803.7928	294.5837	2865.95	2111.35
803.9357	296.7947	2843.65	2092.25
804.0786	299.0052	2835	2080.15
804.2215	301.2152	2821.95	2066.45
804.3644	303.4246	2800.4	2046.1
804.5074	305.6334	2769.25	2016.3
804.6503	307.8418	2746.85	1988.95
804.7933	310.0495	2721.4	1961.25
804.9363	312.2568	2689.2	1930.05
805.0793	314.4635	2643.35	1881.25
805.2223	316.6696	2591.1	1826.65
805.3653	318.8752	2552.8	1780.45
805.5084	321.0802	2523.75	1756.55
805.6514	323.2847	2520.65	1752.3
805.7945	325.4887	2527.1	1757.6
805.9376	327.692	2543.85	1772.75
806.0807	329.8949	2589.4	1819.7
806.2238	332.0972	2620.35	1851.45
806.367	334.2989	2636.25	1858.9
806.5101	336.5001	2630.1	1854.3
806.6533	338.7007	2586.6	1806.45
806.7965	340.9008	2549.3	1770
806.9397	343.1003	2489.15	1707.3
807.0829	345.2992	2453.45	1672.85
807.2261	347.4976	2412.75	1631
807.3693	349.6955	2382.55	1597.35
807.5126	351.8927	2371.4	1586.35
807.6559	354.0895	2357.3	1560.4
807.7991	356.2856	2344.3	1555.4
807.9424	358.4812	2336.95	1549.15
808.0857	360.6763	2333.25	1541.3
808.2291	362.8707	2331.15	1537.4
808.3724	365.0646	2335.35	1540.15
808.5158	367.258	2346.3	1548.7
808.6591	369.4508	2355.75	1553.7
808.8025	371.643	2393.95	1592.85
808.9459	373.8346	2418.95	1615.45
809.0893	376.0257	2450.75	1647.1
809.2327	378.2162	2457.25	1653.8
809.3762	380.4062	2475.25	1673
809.5196	382.5956	2453.25	1654.9
809.6631	384.7844	2398.95	1602
809.8066	386.9726	2372.9	1575.45
809.9501	389.1603	2343.65	1550.45
810.0936	391.3474	2365.15	1535.95
810.2371	393.5339	2331.6	1535.5
810.3806	395.7199	2337.35	1543.75
810.5241	397.9052	2372.85	1578.3
810.6677	400.09	2401.7	1606.2
810.8113	402.2743	2450.65	1652.25
810.9548	404.4579	2485.6	1685.15
811.0984	406.641	2524.9	1723.05
811.2421	408.8235	2587	1786
811.3857	411.0054	2622.35	1815.8
811.5293	413.1868	2680.15	1872.45
811.673	415.3675	2727.6	1914.85
811.8166	417.5477	2723.35	1911.2
811.9603	419.7273	2653.35	1837.05
812.104	421.9064	2576.6	1753.65
812.2477	424.0848	2531.9	1715.45
812.3914	426.2627	2477.7	1662.75
812.5351	428.4399	2415.3	1599.4
812.6788	430.6166	2363.45	1544
812.8226	432.7928	2315.75	1496.2
812.9663	434.9683	2271.8	1449.75
813.1101	437.1432	2242.85	1419.1
813.2539	439.3176	2234.85	1416.4
813.3977	441.4914	2213.95	1397.3
813.5415	443.6645	2205.45	1386.25
813.6853	445.8371	2206.3	1384.15
813.8291	448.0091	2208.2	1387.05
813.973	450.1806	2201	1378.65
814.1168	452.3514	2203.4	1380.75
814.2607	454.5216	2211.7	1379.25
814.4046	456.6913	2189.65	1362
814.5485	458.8603	2207.1	1384.3
814.6924	461.0288	2208.6	1385.1
814.8363	463.1967	2208.7	1390.7
814.9802	465.3639	2218.8	1396.2
815.1241	467.5306	2189.1	1362.85
815.2681	469.6967	2185.85	1366.35
815.412	471.8622	2178.4	1354.1
815.556	474.0271	2177.1	1354.1
815.7	476.1914	2172.35	1345
815.844	478.3551	2172.45	1344.6
815.988	480.5182	2178.75	1353.3
816.132	482.6807	2176.95	1352.9
816.276	484.8426	2203.6	1383.05
816.4201	487.0039	2241.15	1416.7
816.5641	489.1647	2297.25	1466.6
816.7082	491.3248	2341.35	1513.15
816.8522	493.4843	2346.75	1521
816.9963	495.6432	2336.35	1511.4
817.1404	497.8015	2316.7	1483.4
817.2845	499.9592	2284.5	1448.45
817.4286	502.1163	2232.5	1396.45
817.5727	504.2728	2182.15	1348.6
817.7168	506.4287	2158.3	1330.3
817.861	508.5839	2137.4	1304.2
818.0051	510.7386	2140.1	1308.75
818.1493	512.8927	2143.3	1304.75
818.2935	515.0461	2144.65	1309.4
818.4377	517.199	2165.1	1327.75
818.5818	519.3512	2208.45	1370.7
818.726	521.5029	2277.75	1435
818.8703	523.6539	2330.4	1492.05
819.0145	525.8043	2328.45	1485.5
819.1587	527.9541	2286.35	1443.4
819.303	530.1033	2217.2	1376.35
819.4472	532.2519	2179.35	1338.5
819.5915	534.3999	2149.55	1306.7
819.7357	536.5472	2138.15	1293.7
819.88	538.694	2150.7	1308.6
820.0243	540.8401	2161.8	1316.5
820.1686	542.9856	2182.15	1333
820.3129	545.1305	2193.95	1344.2
820.4572	547.2748	2196.7	1345.05
820.6016	549.4185	2210.2	1356.35
820.7459	551.5615	2226.9	1373.35
820.8902	553.704	2236.5	1388
821.0346	555.8458	2256.55	1410.15
821.1789	557.987	2287.35	1439.7
821.3233	560.1276	2303.35	1453.35
821.4677	562.2675	2358.3	1510.5
821.6121	564.4069	2412.6	1562.4
821.7565	566.5456	2447.75	1601.15
821.9009	568.6837	2439	1592.6
822.0453	570.8212	2366.35	1520.1
822.1897	572.958	2295.4	1444.05
822.3342	575.0942	2237.65	1390.65
822.4786	577.2299	2207.15	1358.9
822.6231	579.3648	2163.85	1323.55
822.7675	581.4992	2158	1318.4
822.912	583.6329	2168.4	1330.05
823.0565	585.766	2199.4	1355.65
823.201	587.8985	2242.65	1399.35
823.3454	590.0304	2305.05	1444.45
823.4899	592.1616	2315.85	1461.35
823.6345	594.2922	2298.55	1442.4
823.779	596.4222	2252.75	1396
823.9235	598.5515	2197.15	1336.1
824.068	600.6802	2153.2	1296.9
824.2126	602.8083	2118.15	1260.4
824.3571	604.9358	2115.8	1261.4
824.5017	607.0626	2105.8	1249
824.6462	609.1888	2123.95	1263.25
824.7908	611.3144	2148.95	1288.1
824.9354	613.4393	2188.9	1328.45
825.08	615.5636	2232	1367.55
825.2246	617.6873	2275.4	1414.95
825.3692	619.8103	2299.2	1439
825.5138	621.9327	2294.85	1431.8
825.6584	624.0544	2254.4	1394.65
825.803	626.1756	2203.05	1344.1
825.9477	628.2961	2162.9	1302.2
826.0923	630.4159	2149.05	1290
826.237	632.5351	2148.6	1286.65
826.3816	634.6537	2132.7	1269.45
826.5263	636.7716	2113.8	1247
826.6709	638.8889	2114.2	1246.35
826.8156	641.0056	2118.65	1253.75
826.9603	643.1216	2129.85	1262.75
827.105	645.237	2130.9	1262.2
827.2497	647.3518	2110.1	1246.55
827.3944	649.4659	2076.15	1215.95
827.5391	651.5793	2058.35	1199.55
827.6838	653.6922	2047.25	1183.25
827.8285	655.8043	2043.75	1181.6
827.9733	657.9159	2034.5	1169.4
828.118	660.0268	2026.05	1158.95
828.2627	662.137	2024.15	1159
828.4075	664.2466	2026.45	1155.6
828.5522	666.3556	2022.45	1152.1
828.697	668.4639	2018.45	1150.3
828.8418	670.5716	2003.75	1141.85
828.9865	672.6786	1999.8	1129.6
829.1313	674.785	2002.75	1130.45
829.2761	676.8907	1997.25	1125.2
829.4209	678.9958	1985.45	1120
829.5657	681.1002	1989.3	1120.4
829.7105	683.204	2001.25	1126.4
829.8553	685.3072	1988.75	1115.3
830.0001	687.4097	1993.6	1118.95
830.1449	689.5115	1994.8	1125.6
830.2898	691.6127	1985	1115
830.4346	693.7132	1977.1	1105.8
830.5794	695.8131	2004	1108.95
830.7243	697.9123	2002.05	1125.85
830.8691	700.0109	1998.55	1121.8
831.014	702.1089	2009.35	1134.8
831.1588	704.2061	2020.9	1148.1
831.3037	706.3028	2037.35	1160.75
831.4486	708.3987	2064.75	1188.35
831.5935	710.4941	2065	1190.15
831.7383	712.5887	2082.9	1207.85
831.8832	714.6827	2077.85	1199.6
832.0281	716.7761	2065.65	1191.25
832.173	718.8688	2064.6	1190.35
832.3179	720.9608	2082.95	1199.4
832.4628	723.0522	2091.7	1206.7
832.6077	725.1429	2114.85	1234.25
832.7527	727.233	2158.35	1282.05
832.8976	729.3224	2214.7	1338.75
833.0425	731.4112	2256.6	1376.1
833.1874	733.4993	2261.1	1382.45
833.3324	735.5867	2217.25	1340.05
833.4773	737.6735	2136.05	1254.6
833.6222	739.7596	2100.9	1221.95
833.7672	741.845	2066.35	1187.9
833.9122	743.9298	2052.45	1174.15
834.0571	746.014	2058.1	1180
834.2021	748.0974	2070.35	1188
834.347	750.1802	2071.45	1188.9
834.492	752.2624	2068.9	1188.3
834.637	754.3439	2052.65	1168.5
834.782	756.4247	2046.5	1157.65
834.9269	758.5048	2042.25	1157.9
835.0719	760.5843	2085.35	1202.65
835.2169	762.6631	2114.1	1229.5
835.3619	764.7413	2157.65	1275.05
835.5069	766.8188	2244.6	1358.9
835.6519	768.8956	2323.45	1436.25
835.7969	770.9718	2373.1	1490.6
835.9419	773.0473	2360.85	1478.9
836.0869	775.1221	2334.05	1452.4
836.232	777.1962	2341.2	1456.75
836.377	779.2697	2397.2	1511.35
836.522	781.3426	2488.5	1585.85
836.667	783.4147	2533.35	1647.1
836.8121	785.4862	2502.95	1617.55
836.9571	787.557	2420.75	1536.1
837.1021	789.6271	2299.65	1416.25
837.2472	791.6966	2181.55	1294.9
837.3922	793.7654	2097.7	1209.2
837.5373	795.8335	2049.55	1163.8
837.6823	797.901	2016.6	1130.6
837.8274	799.9678	2011.1	1123.4
837.9724	802.0339	2008.55	1121.05
838.1175	804.0993	2023.7	1129.9
838.2626	806.1641	1995.55	1108.55
838.4076	808.2282	1979.25	1092.95
838.5527	810.2916	1959.75	1069.45
838.6978	812.3544	1947.2	1064.65
838.8428	814.4164	1943.05	1058.25
838.9879	816.4778	1954.7	1065.65
839.133	818.5385	1962.15	1076.45
839.2781	820.5986	1994.35	1103.95
839.4232	822.658	2035.75	1143.85
839.5682	824.7166	2109.5	1223.65
839.7133	826.7747	2194.95	1309
839.8584	828.832	2277.7	1387.3
840.0035	830.8886	2330.5	1437.4
840.1486	832.9446	2355.35	1463
840.2937	834.9999	2304.9	1416.35
840.4388	837.0545	2237.85	1344.85
840.5839	839.1085	2154.8	1264.6
840.729	841.1618	2091.95	1194.8
840.8741	843.2143	2044.8	1155.95
841.0192	845.2662	2006.65	1117.1
841.1643	847.3175	1984.7	1093.55
841.3095	849.368	1973.55	1081.2
841.4546	851.4179	1976.3	1086
841.5997	853.467	1973.45	1084.1
841.7448	855.5155	1971.7	1083.35
841.8899	857.5633	1968.85	1076.8
842.0351	859.6105	1965.1	1074.45
842.1802	861.6569	1960.5	1069
842.3253	863.7027	1957.05	1064.9
842.4704	865.7478	1938.15	1045.2
842.6156	867.7922	1933.95	1042.65
842.7607	869.8359	1923.45	1028.2
842.9058	871.8789	1923.55	1027.5
843.0509	873.9212	1951	1027.75
843.1961	875.9629	1928.8	1033.3
843.3412	878.0039	1945.65	1053.45
843.4863	880.0441	1953.6	1061.1
843.6315	882.0837	1961.15	1067.05
843.7766	884.1226	1997.6	1100.55
843.9218	886.1609	2031.45	1139.75
844.0669	888.1984	2079.75	1188.85
844.212	890.2352	2128.9	1233.3
844.3572	892.2714	2121.55	1223.6
844.5023	894.3069	2105.45	1210.85
844.6475	896.3416	2049.6	1153.55
844.7926	898.3757	2018.2	1122.65
844.9377	900.4091	1994.5	1099.55
845.0829	902.4418	1998.45	1097.7
845.228	904.4739	2019.75	1122.15
845.3732	906.5052	2010.5	1112.05
845.5183	908.5358	2009.15	1112.45
845.6635	910.5658	1985.65	1085.5
845.8086	912.595	1957.9	1064.05
845.9538	914.6236	1920.25	1022.35
846.0989	916.6515	1897.5	1001.8
846.2441	918.6786	1871.75	971.2
846.3892	920.7051	1869.75	967.7
846.5344	922.7309	1874.75	978.15
846.6795	924.756	1861.1	963.8
846.8246	926.7804	1888.65	991.45
846.9698	928.8041	1892.05	995
847.1149	930.8272	1912.25	1015.35
847.2601	932.8495	1921.55	1024.75
847.4052	934.8711	1914.05	1014.8
847.5504	936.892	1929.5	1031.75
847.6955	938.9123	1942.65	1044.2
847.8407	940.9318	1965.6	1067.8
847.9858	942.9506	1983.05	1083.65
848.131	944.9688	1955.1	1055.05
848.2761	946.9862	1941.65	1045.5
848.4213	949.003	1912.75	1016.95
848.5664	951.019	1878.9	980.35
848.7115	953.0344	1864.75	966.65
848.8567	955.0491	1859.65	959.9
849.0018	957.063	1850	950.35
849.147	959.0763	1854.05	956.2
849.2921	961.0888	1848.8	949.3
849.4373	963.1007	1846.35	951.1
849.5824	965.1119	1843.55	950.9
849.7275	967.1223	1836.9	944.2
849.8727	969.1321	1830.95	941.9
850.0178	971.1412	1826.9	933.3
850.1629	973.1495	1821	925.7
850.3081	975.1572	1854.95	923.7
850.4532	977.1641	1831	934.75
850.5983	979.1704	1820.3	920.5
850.7435	981.1759	1819.6	917.35
850.8886	983.1808	1821.9	922.3
851.0337	985.1849	1822.95	911.85
851.1788	987.1884	1825.9	925.75
851.324	989.1911	1819.9	916.55
851.4691	991.1932	1821.25	919.7
851.6142	993.1945	1817.5	917.1
851.7593	995.1951	1820.4	918.1
851.9045	997.1951	1817.35	913.4
852.0496	999.1943	1801.45	900.75
852.1947	1001.1928	1820.15	922
852.3398	1003.1906	1831.1	932.35
852.4849	1005.1877	1847.35	945.95
852.63	1007.1841	1866.9	964.45
852.7751	1009.1798	1877	977.3
852.9202	1011.1748	1866.05	964.5
853.0653	1013.1691	1840.7	941.95
853.2104	1015.1627	1809.75	910.95
853.3555	1017.1556	1782.9	888.4
853.5006	1019.1477	1778.5	877.95
853.6457	1021.1392	1750.95	856.25
853.7908	1023.1299	1736.6	842.25
853.9359	1025.12	1741.7	847.6
854.081	1027.1093	1752	866.1
854.2261	1029.0979	1765.8	879.6
854.3712	1031.0859	1784.95	896.9
854.5163	1033.0731	1793.55	899.6
854.6613	1035.0596	1801.7	905.25
854.8064	1037.0454	1785.5	885.95
854.9515	1039.0304	1772.45	872.75
855.0965	1041.0148	1750.75	851.45
855.2416	1042.9985	1747.05	845.35
855.3867	1044.9814	1732.95	836.55
855.5317	1046.9636	1732.6	830.5
855.6768	1048.9452	1732.7	832.35
855.8219	1050.926	1748.7	849.1
855.9669	1052.9061	1755.65	855.3
856.112	1054.8855	1773.35	875.3
856.257	1056.8642	1773.7	870.95
856.4021	1058.8421	1774.1	871.15
856.5471	1060.8194	1767.4	867.2
856.6921	1062.7959	1761.35	861.45
856.8372	1064.7717	1760.35	857.9
856.9822	1066.7469	1771.55	869.4
857.1272	1068.7213	1780.45	877.15
857.2723	1070.695	1769.05	870.1
857.4173	1072.6679	1798.1	895.8
857.5623	1074.6402	1821.2	923.1
857.7073	1076.6117	1823.35	918.15
857.8523	1078.5826	1799.45	900.7
857.9973	1080.5527	1766.8	863.05
858.1423	1082.5221	1737.5	836.45
858.2873	1084.4908	1720.65	820.4
858.4323	1086.4587	1704.2	801.45
858.5773	1088.426	1698.75	794.7
858.7223	1090.3925	1698.95	793.5
858.8673	1092.3584	1706.25	805.1
859.0123	1094.3235	1699.05	798.7
859.1573	1096.2879	1723.25	821.9
859.3022	1098.2515	1753.1	851.5
859.4472	1100.2145	1780.55	880.9
859.5922	1102.1767	1820.95	919.5
859.7371	1104.1382	1850.9	950.85
859.8821	1106.099	1909.5	1007.2
860.027	1108.0591	1949.6	1049.3
860.172	1110.0185	1976.5	1074.55
860.3169	1111.9771	2019.35	1116.5
860.4619	1113.9351	2063.9	1161.9
860.6068	1115.8923	2105.6	1202.95
860.7517	1117.8488	2126	1225.1
860.8967	1119.8045	2066.1	1166.65
861.0416	1121.7596	1984.25	1083.15
861.1865	1123.7139	1893.8	995.35
861.3314	1125.6675	1860.15	958.85
861.4763	1127.6204	1854.65	953.4
861.6212	1129.5726	1869.5	968.9
861.7661	1131.524	1859.25	958.1
861.911	1133.4748	1816.15	915.2
862.0559	1135.4248	1776.4	875.15
862.2008	1137.3741	1730.75	830.1
862.3457	1139.3226	1715.55	810.85
862.4905	1141.2705	1711.05	811.4
862.6354	1143.2176	1718.4	811.85
862.7803	1145.164	1725.6	819.45
862.9251	1147.1097	1721.35	818.2
863.07	1149.0546	1694.8	795.75
863.2148	1150.9989	1676.5	777
863.3597	1152.9424	1656.65	755.1
863.5045	1154.8852	1640.2	738.85
863.6493	1156.8272	1642.2	740.55
863.7942	1158.7686	1642.65	734.45
863.939	1160.7092	1638.5	735.95
864.0838	1162.6491	1654.3	750.2
864.2286	1164.5883	1655	752.35
864.3734	1166.5267	1673.45	769.7
864.5182	1168.4644	1691.75	790.3
864.663	1170.4014	1737.1	834.3
864.8078	1172.3377	1770.3	872.25
864.9526	1174.2732	1821.1	922.1
865.0974	1176.2081	1916.85	1015.6
865.2421	1178.1421	2021.95	1116.65
865.3869	1180.0755	2128.5	1225.85
865.5317	1182.0082	2168.6	1265.6
865.6764	1183.9401	2128.4	1224.75
865.8212	1185.8713	2032.15	1131.15
865.9659	1187.8017	1919.65	1023.1
866.1106	1189.7315	1824.05	931.4
866.2554	1191.6605	1755.05	865.75
866.4001	1193.5888	1728.4	834.05
866.5448	1195.5163	1695.65	798.3
866.6895	1197.4432	1687.65	786.6
866.8342	1199.3693	1662.9	760.9
866.9789	1201.2947	1655.2	752.85
867.1236	1203.2193	1644.9	742.8
867.2683	1205.1432	1637.7	736.65
867.413	1207.0664	1645.55	745.9
867.5576	1208.9889	1644	741.7
867.7023	1210.9106	1646.55	746.05
867.847	1212.8316	1649.1	747.35
867.9916	1214.7519	1669.9	759.65
868.1363	1216.6715	1667.4	767.1
868.2809	1218.5903	1689.9	791.9
868.4255	1220.5084	1702.85	801.9
868.5701	1222.4257	1712.45	810.25
868.7148	1224.3424	1721.1	822.65
868.8594	1226.2583	1740.5	833.65
869.004	1228.1735	1779.25	877.6
869.1486	1230.0879	1817.05	915.55
869.2932	1232.0016	1850.9	949.7
869.4377	1233.9146	1891.65	990.8
869.5823	1235.8269	1911.5	1011.2
869.7269	1237.7384	1917.85	1017
869.8715	1239.6492	1909.9	1009.1
870.016	1241.5592	1938.15	1037.35
870.1606	1243.4686	1982.1	1081
870.3051	1245.3772	2055.25	1157.35
870.4496	1247.285	2135	1235.25
870.5941	1249.1922	2213.4	1313.35
870.7387	1251.0986	2277.8	1377.1
870.8832	1253.0042	2360	1459.5
871.0277	1254.9092	2417.4	1516.65
871.1722	1256.8134	2491.3	1592.65
871.3167	1258.7169	2541.55	1638.05
871.4611	1260.6196	2551.95	1650.25
871.6056	1262.5216	2552.2	1649.85
871.7501	1264.4229	2531.45	1633.2
871.8945	1266.3234	2497.35	1598.15
872.039	1268.2232	2466.7	1564.75
872.1834	1270.1223	2406.25	1502.4
872.3278	1272.0207	2386	1482.2
872.4723	1273.9183	2388.15	1479.65
872.6167	1275.8151	2381.1	1481
872.7611	1277.7113	2440.35	1538.95
872.9055	1279.6067	2507.2	1606.55
873.0499	1281.5014	2647.45	1744.35
873.1943	1283.3953	2806.6	1903.7
873.3386	1285.2885	2945.85	2043.3
873.483	1287.181	3059.45	2157.7
873.6274	1289.0727	3079.85	2181
873.7717	1290.9637	3038.85	2138.8
873.9161	1292.854	2973.5	2071.85
874.0604	1294.7435	2880.55	1977.05
874.2047	1296.6323	2795.4	1894.7
874.349	1298.5204	2727.75	1823.4
874.4933	1300.4077	2666.9	1764.2
874.6376	1302.2943	2623.85	1722.85
874.7819	1304.1802	2599.7	1698.5
874.9262	1306.0653	2563.2	1659.1
875.0705	1307.9497	2521.45	1620.8
875.2147	1309.8333	2481.1	1579.95
875.359	1311.7162	2442.3	1540.15
875.5032	1313.5984	2411.8	1506.05
875.6475	1315.4798	2388.4	1483.85
875.7917	1317.3605	2388.2	1469.6
875.9359	1319.2405	2350.2	1444.9
876.0801	1321.1197	2314.15	1410.35
876.2243	1322.9982	2252.95	1346.65
876.3685	1324.876	2176.05	1275.8
876.5127	1326.753	2096.35	1194.4
876.6569	1328.6293	2023.3	1119.45
876.801	1330.5048	1952.35	1047.8
876.9452	1332.3796	1900.85	999.15
877.0893	1334.2537	1881.85	952.65
877.2335	1336.127	1820.15	915.65
877.3776	1337.9996	1791.05	887.45
877.5217	1339.8714	1777.45	876.45
877.6658	1341.7426	1806.95	859.6
877.8099	1343.6129	1759.85	858
877.954	1345.4826	1753.15	848.35
878.0981	1347.3515	1734.3	830.55
878.2422	1349.2196	1723.5	823.65
878.3862	1351.087	1719	816.15
878.5303	1352.9537	1706.8	801.6
878.6743	1354.8197	1714.2	811.1
878.8184	1356.6849	1723.25	822.1
878.9624	1358.5493	1732.25	831.9
879.1064	1360.4131	1768.2	867.2
879.2504	1362.276	1798.3	897.3
879.3944	1364.1383	1829	926.4
879.5384	1365.9998	1834.55	926.6
879.6823	1367.8606	1820.6	917.45
879.8263	1369.7206	1818.2	915.6
879.9702	1371.5799	1809.55	908
880.1142	1373.4384	1804.65	902.3
880.2581	1375.2962	1771.45	870.3
880.402	1377.1533	1720.45	821.15
880.5459	1379.0096	1673.2	771.6
880.6898	1380.8652	1641.05	739.75
880.8337	1382.7201	1618.7	722.7
880.9776	1384.5742	1594.45	692.4
881.1215	1386.4275	1577.05	675.35
881.2653	1388.2802	1568.7	669.15
881.4092	1390.132	1557.5	655.05
881.553	1391.9832	1542.7	638.5
881.6968	1393.8336	1531.75	630.5
881.8406	1395.6832	1531.4	628.35
881.9844	1397.5322	1515.35	612.85
882.1282	1399.3803	1511.65	606.8
882.272	1401.2278	1501.35	599.05
882.4158	1403.0745	1492.15	592.05
882.5595	1404.9204	1482.7	582.2
882.7033	1406.7656	1484.85	581.7
882.847	1408.6101	1483.7	581.3
882.9908	1410.4538	1480.45	578.05
883.1345	1412.2968	1478.95	578.55
883.2782	1414.139	1478.25	577.3
883.4219	1415.9805	1486.1	584.9
883.5656	1417.8213	1522.4	600.65
883.7092	1419.6613	1515.85	614.2
883.8529	1421.5006	1542	638.25
883.9965	1423.3391	1571.5	669.45
884.1402	1425.1769	1617.4	716
884.2838	1427.0139	1683.7	780.5
884.4274	1428.8502	1771.85	869.45
884.571	1430.6858	1818.25	917.3
884.7146	1432.5206	1841.3	939.3
884.8582	1434.3547	1831.35	929.55
885.0018	1436.188	1819.75	920.05
885.1453	1438.0206	1806.4	905.9
885.2889	1439.8524	1794.15	890.95
885.4324	1441.6835	1802.95	901.05
885.5759	1443.5139	1794.3	891.5
885.7194	1445.3435	1803.3	903.6
885.8629	1447.1724	1799.95	900.7
886.0064	1449.0005	1803.45	905.35
886.1499	1450.8279	1779.8	877.4
886.2933	1452.6545	1784.75	884.2
886.4368	1454.4804	1780	881
886.5802	1456.3056	1775.15	866.9
886.7237	1458.13	1753.05	855.05
886.8671	1459.9536	1738.8	837.95
887.0105	1461.7766	1699.1	798.5
887.1539	1463.5987	1661.5	759.85
887.2972	1465.4202	1627	726.75
887.4406	1467.2409	1591.9	692.2
887.584	1469.0608	1567.35	666.9
887.7273	1470.88	1537.7	637.85
887.8706	1472.6984	1521.85	621.75
888.0139	1474.5161	1505.2	602.4
888.1572	1476.3331	1485.9	586.3
888.3005	1478.1493	1482	579.4
888.4438	1479.9648	1476.35	576.6
888.5871	1481.7795	1466.6	565.9
888.7303	1483.5935	1463.35	563.55
888.8736	1485.4067	1462.1	561.1
889.0168	1487.2192	1474.1	571.75
889.16	1489.031	1477.35	574.25
889.3032	1490.842	1464.25	563.15
889.4464	1492.6522	1456.7	555.3
889.5896	1494.4618	1462.1	560.1
889.7327	1496.2705	1459.2	560.15
889.8759	1498.0785	1445.85	545.75
890.019	1499.8858	1442.35	542.25
890.1622	1501.6924	1442.25	543.15
890.3053	1503.4981	1424.95	526.2
890.4484	1505.3032	1423.25	524.3
890.5914	1507.1075	1416.5	517.5
890.7345	1508.911	1416.65	517
890.8776	1510.7138	1407	504.2
891.0206	1512.5159	1400.85	501.85
891.1637	1514.3172	1395.25	495.5
891.3067	1516.1178	1385.9	487.55
891.4497	1517.9176	1390	487.4
891.5927	1519.7166	1382.95	483.85
891.7357	1521.515	1379.15	475.1
891.8786	1523.3126	1366.8	467.35
892.0216	1525.1094	1375.8	475.7
892.1645	1526.9055	1364.5	467.6
892.3074	1528.7008	1364.65	465.3
892.4503	1530.4954	1359.45	453.15
892.5932	1532.2893	1346.35	449.4
892.7361	1534.0824	1356.6	453.9
892.879	1535.8747	1352.3	454
893.0218	1537.6663	1351.4	454.7
893.1647	1539.4572	1356.6	458.7
893.3075	1541.2473	1348.25	450.3
893.4503	1543.0367	1352.9	456
893.5931	1544.8253	1352.75	449.75
893.7359	1546.6132	1355.95	454.4
893.8787	1548.4003	1363.25	454.2
894.0214	1550.1867	1373.4	466.35
894.1642	1551.9723	1380.75	478.4
894.3069	1553.7572	1386.05	489.95
894.4496	1555.5414	1407	510.45
894.5923	1557.3247	1432.65	538.8
894.735	1559.1074	1459.5	564.6
894.8777	1560.8893	1500.1	605.25
895.0204	1562.6705	1524.8	632.35
895.163	1564.4509	1538.85	642.55
895.3056	1566.2305	1549.85	657.5
895.4482	1568.0094	1549.7	656.5
895.5908	1569.7876	1551.7	657.05
895.7334	1571.565	1539.1	643.85
895.876	1573.3417	1538.45	641.85
896.0186	1575.1176	1550.4	656.2
896.1611	1576.8928	1563.4	666.9
896.3036	1578.6672	1583.1	690.95
896.4461	1580.4409	1594.1	704.25
896.5886	1582.2138	1624.1	727.85
896.7311	1583.986	1651.4	757.1
896.8736	1585.7575	1684.4	791.8
897.0161	1587.5282	1714.65	821.45
897.1585	1589.2981	1736.15	847.25
897.3009	1591.0673	1756.45	863.45
897.4433	1592.8358	1756.75	864
897.5857	1594.6035	1777.15	882
897.7281	1596.3704	1755.75	861.35
897.8705	1598.1366	1741.2	849.1
898.0128	1599.9021	1723.8	831.75
898.1551	1601.6668	1709.7	814.95
898.2975	1603.4308	1712.25	816.2
898.4398	1605.194	1718.5	819
898.5821	1606.9564	1746.4	858
898.7243	1608.7182	1798.25	907.15
898.8666	1610.4791	1864.4	976.25
899.0088	1612.2394	1938	1051.9
899.1511	1613.9988	2011.05	1124.05
899.2933	1615.7576	2062.7	1174.45
899.4355	1617.5156	2084.15	1186.4
899.5776	1619.2728	2031.7	1137.9
899.7198	1621.0293	1953.2	1061.25
899.862	1622.785	1859.7	962.1
900.0041	1624.54	1756.25	861.35
900.1462	1626.2942	1658	766.85
900.2883	1628.0477	1586.3	692.95
900.4304	1629.8005	1519.1	624.75
900.5725	1631.5525	1457.15	568.75
900.7145	1633.3037	1422.55	533.2
900.8566	1635.0542	1384.7	494.2
900.9986	1636.804	1357.55	465.95
901.1406	1638.553	1407.8	447.45
901.2826	1640.3013	1325.35	434.4
901.4245	1642.0488	1304.15	411.3
901.5665	1643.7955	1284.9	396.4
901.7085	1645.5416	1285.8	393.65
901.8504	1647.2868	1273.4	383.85
901.9923	1649.0313	1267.7	377.5
902.1342	1650.7751	1262.4	370.55
902.2761	1652.5181	1264.15	377.45
902.4179	1654.2604	1262	373.2
902.5598	1656.0019	1273.65	384.95
902.7016	1657.7427	1283.45	393.8
902.8434	1659.4828	1298.2	405.1
902.9852	1661.222	1321.45	428.2
903.127	1662.9606	1356.1	465.7
903.2687	1664.6984	1369.7	476.7
903.4105	1666.4354	1366.25	472.3
903.5522	1668.1717	1342.05	450.6
903.6939	1669.9072	1299.35	405.15
903.8356	1671.642	1265.45	369.8
903.9773	1673.3761	1235.05	343.55
904.119	1675.1094	1210.8	318.3
904.2606	1676.8419	1204.5	312.7
904.4022	1678.5737	1186.05	295.75
904.5439	1680.3048	1181.05	287.75
904.6855	1682.0351	1177.35	286.35
904.827	1683.7646	1168.55	275.9
904.9686	1685.4934	1165.4	275.2
905.1101	1687.2215	1159.2	268.9
905.2517	1688.9488	1151.55	263.3
905.3932	1690.6754	1158.75	267.4
905.5347	1692.4012	1155.4	262.85
905.6761	1694.1263	1146.35	253.5
905.8176	1695.8506	1144.5	250.1
905.9591	1697.5742	1140.75	252.15
906.1005	1699.297	1136	248.45
906.2419	1701.0191	1135.15	245.55
906.3833	1702.7404	1131.05	239.6
906.5246	1704.461	1129.3	238.95
906.666	1706.1808	1135.15	243.5
906.8073	1707.8999	1126.4	236.25
906.9487	1709.6182	1127.35	238.2
907.09	1711.3358	1124.65	237.15
907.2313	1713.0527	1118.5	232.75
907.3725	1714.7688	1127	234.2
907.5138	1716.4841	1126.85	235.75
907.655	1718.1987	1128.75	232.05
907.7962	1719.9126	1117.9	229.3
907.9374	1721.6257	1118.35	229.45
908.0786	1723.338	1116.05	227.45
908.2198	1725.0496	1113.2	225.35
908.3609	1726.7605	1111.3	221
908.502	1728.4706	1108.9	218.35
908.6431	1730.18	1116.5	225.95
908.7842	1731.8886	1106.2	220.15
908.9253	1733.5964	1130.45	222.3
909.0664	1735.3036	1112.85	223.55
909.2074	1737.0099	1110.5	221.8
909.3484	1738.7156	1101.8	214.9
909.4894	1740.4204	1106.8	216.3
909.6304	1742.1246	1112.35	221.5
909.7714	1743.8279	1109.15	219.55
909.9123	1745.5306	1107.15	217.3
910.0532	1747.2325	1100.45	212.55
910.1941	1748.9336	1103.9	217.1
910.335	1750.634	1104.05	215.05
910.4759	1752.3336	1102.3	214.4
910.6168	1754.0325	1099.95	214.85
910.7576	1755.7307	1097.5	212.05
910.8984	1757.4281	1104.15	216.75
911.0392	1759.1247	1110.95	214.05
911.18	1760.8206	1109.4	210.7
911.3208	1762.5158	1109.4	213.65
911.4615	1764.2102	1097.55	207.35
911.6022	1765.9039	1093.25	204.65
911.7429	1767.5968	1097.6	211.9
911.8836	1769.289	1095.35	209.7
912.0243	1770.9804	1095.85	205.6
912.1649	1772.6711	1101.45	209.5
912.3056	1774.361	1102.6	212.55
912.4462	1776.0502	1091.3	201.9
912.5868	1777.7386	1100.55	206.6
912.7274	1779.4263	1094.25	205.95
912.8679	1781.1132	1093.3	205.5
913.0084	1782.7994	1091.3	202.9
913.149	1784.4849	1089.4	202.2
913.2895	1786.1696	1108.4	202.8
913.4299	1787.8535	1088.1	199.85
913.5704	1789.5367	1085.9	201.35
913.7108	1791.2192	1089.65	203.55
913.8513	1792.9009	1113.4	198.95
913.9917	1794.5818	1089.9	197.15
914.132	1796.2621	1086.75	197.05
914.2724	1797.9415	1087.95	198.8
914.4128	1799.6202	1088.25	200.1
914.5531	1801.2982	1084.15	195
914.6934	1802.9755	1085.8	194.5
914.8337	1804.6519	1084.75	194.65
914.9739	1806.3277	1082.05	194.5
915.1142	1808.0027	1076.2	189.65
915.2544	1809.6769	1080.25	194.4
915.3946	1811.3504	1079.1	192.75
915.5348	1813.0231	1077.25	188.85
915.675	1814.6951	1079.45	192.7
915.8151	1816.3664	1082.15	190.45
915.9553	1818.0369	1081.8	191.9
916.0954	1819.7067	1076	187.95
916.2355	1821.3757	1077.45	186.6
916.3755	1823.044	1078.75	188.65
916.5156	1824.7115	1078.8	188.65
916.6556	1826.3783	1078.65	190.2
916.7956	1828.0443	1071.35	183.1
916.9356	1829.7096	1077.5	189.9
917.0756	1831.3741	1074.55	185.3
917.2155	1833.0379	1075.45	188
917.3555	1834.701	1072.7	184.25
917.4954	1836.3633	1072.4	187.4
917.6353	1838.0248	1079.6	191.3
917.7751	1839.6856	1068.45	180.25
917.915	1841.3457	1073.2	187.45
918.0548	1843.005	1070.15	181.8
918.1946	1844.6636	1065.15	177.35
918.3344	1846.3214	1070.4	181.8
918.4742	1847.9785	1073.45	185.6
918.6139	1849.6349	1074.25	181.8
918.7537	1851.2904	1080.6	181.6
918.8934	1852.9453	1068.95	178.5
919.0331	1854.5994	1073.9	184.4
919.1727	1856.2528	1071.55	176.25
919.3124	1857.9054	1066.3	176.2
919.452	1859.5572	1066.35	179.65
919.5916	1861.2083	1066	177.45
919.7312	1862.8587	1067.75	179
919.8708	1864.5084	1069.15	179.6
920.0103	1866.1572	1064.1	175.2
920.1498	1867.8054	1064.25	173.65
920.2893	1869.4528	1061.25	171.1
920.4288	1871.0994	1065.1	173.85
920.5683	1872.7453	1061.7	172.15
920.7077	1874.3905	1068.55	171.75
920.8471	1876.0349	1061	168.7
920.9865	1877.6786	1063.6	174.7
921.1259	1879.3215	1062.1	171.1
921.2653	1880.9637	1060.1	169.3
921.4046	1882.6051	1057.4	169.15
921.5439	1884.2458	1061.15	172.15
921.6832	1885.8858	1059.25	169.45
921.8225	1887.525	1058.85	168.45
921.9617	1889.1634	1056.65	166.3
922.101	1890.8011	1061.3	171
922.2402	1892.4381	1064.05	175
922.3794	1894.0743	1051.85	165.15
922.5185	1895.7098	1058.2	168.2
922.6577	1897.3446	1056.7	167.95
922.7968	1898.9786	1060.55	168.3
922.9359	1900.6118	1054.25	164
923.075	1902.2443	1053.95	164.5
923.214	1903.8761	1049	162.15
923.3531	1905.5071	1057.9	168.1
923.4921	1907.1374	1052.65	162.75
923.6311	1908.7669	1050.1	162.9
923.77	1910.3957	1050.65	162.55
923.909	1912.0237	1052.45	164.7
924.0479	1913.651	1049.4	161.05
924.1868	1915.2776	1049.4	162.1
924.3257	1916.9034	1046.4	161.1
924.4646	1918.5285	1046.8	161.45
924.6034	1920.1528	1043.25	154.5
924.7422	1921.7764	1048.15	159.15
924.881	1923.3992	1048.95	160.95
925.0198	1925.0213	1041.8	153.85
925.1586	1926.6427	1047.05	158.6
925.2973	1928.2633	1256.55	155.4
925.436	1929.8832	1053.85	160.45
925.5747	1931.5023	1042.7	154.6
925.7134	1933.1207	1044.05	156.2
925.852	1934.7383	1044.2	154.45
925.9906	1936.3552	1043.05	154.45
926.1292	1937.9714	1041	151.95
926.2678	1939.5868	1044.2	154.35
926.4064	1941.2015	1041.4	150.9
926.5449	1942.8154	1044.75	155.7
926.6834	1944.4286	1041.7	151.85
926.8219	1946.041	1063	152.45
926.9604	1947.6528	1049	155.75
927.0988	1949.2637	1040.05	152.7
927.2372	1950.8739	1043.25	156.05
927.3756	1952.4834	1038.5	152.8
927.514	1954.0921	1041.95	153.6
927.6523	1955.7001	1036.05	143.5
927.7907	1957.3074	1035	150.35
927.929	1958.9139	1034	146.8
928.0673	1960.5197	1035.7	145.8
928.2055	1962.1247	1033.65	149.2
928.3438	1963.729	1033.2	145.45
928.482	1965.3325	1037.3	147.4
928.6202	1966.9353	1030.3	145.5
928.7584	1968.5374	1033.35	147.4
928.8965	1970.1387	1035	150.2
929.0346	1971.7393	1030.15	144.8
929.1727	1973.3392	1030.6	146.3
929.3108	1974.9383	1028.05	142.65
929.4489	1976.5366	1032.5	147.05
929.5869	1978.1342	1029.25	144.3
929.7249	1979.7311	1028.05	142
929.8629	1981.3273	1030.8	147.7
930.0009	1982.9227	1028.25	141.7
930.1388	1984.5173	1023.85	139.35
930.2767	1986.1112	1026.15	141.5
930.4146	1987.7044	1024.3	139.95
930.5525	1989.2968	1028.85	143.5
930.6904	1990.8885	1029.25	141.7
930.8282	1992.4795	1029.5	145.7
930.966	1994.0697	1024.75	141.1
931.1038	1995.6592	1025.45	142.25
931.2415	1997.2479	1024.4	140.65
931.3793	1998.8359	1025.4	142.1
931.517	2000.4232	1018.6	136.85
931.6547	2002.0097	1020.4	141.75
931.7923	2003.5955	1020.25	138
931.93	2005.1805	1023.25	139.9
932.0676	2006.7648	1024.55	141.35
932.2052	2008.3484	1021.15	139.8
932.3427	2009.9312	1021.7	139.3
932.4803	2011.5133	1018.15	138.65
932.6178	2013.0946	1023.1	141.85
932.7553	2014.6752	1020.75	142.3
932.8928	2016.2551	1021.6	139.75
933.0302	2017.8342	1020.45	137.15
933.1676	2019.4126	1019.25	137.65
933.305	2020.9902	1018.95	140.4
933.4424	2022.5672	1017.75	137.9
933.5798	2024.1433	1020.5	134.05
933.7171	2025.7188	1015.1	136.2
933.8544	2027.2935	1016.6	134.85
933.9917	2028.8674	1015.8	135.35
934.129	2030.4406	1017.15	138.05
934.2662	2032.0131	1013.85	133.1
934.4034	2033.5849	1024.5	139.9
934.5406	2035.1559	1016.7	137.4
934.6778	2036.7261	1015.7	135.35
934.8149	2038.2957	1017.35	132.8
934.952	2039.8645	1017.15	134.75
935.0891	2041.4325	1023.1	136.35
935.2262	2042.9998	1017.95	135.65
935.3632	2044.5664	1020.25	137.05
935.5002	2046.1323	1014.95	135.35
935.6372	2047.6974	1013.8	133.5
935.7742	2049.2617	1014.2	134.25
935.9111	2050.8254	1020.15	133.3
936.048	2052.3883	1016.45	131.7
936.1849	2053.9504	1018.35	136.5
936.3218	2055.5118	1016.3	134.45
936.4586	2057.0725	1019.55	133.65
936.5955	2058.6325	1014.2	134.9
936.7323	2060.1917	1014.65	135
936.869	2061.7502	1018	135.65
937.0058	2063.3079	1011.4	132.6
937.1425	2064.8649	1018.15	134.9
937.2792	2066.4212	1017.45	135.6
937.4159	2067.9767	1013.2	133.3
937.5525	2069.5315	1015.55	133.85
937.6891	2071.0856	1011.25	128
937.8257	2072.6389	1013.5	131.05
937.9623	2074.1915	1009.3	130.55
938.0989	2075.7433	1012.35	129.7
938.2354	2077.2945	1011	131.5
938.3719	2078.8448	1013.2	131.6
938.5084	2080.3945	1009.7	127.3
938.6448	2081.9434	1014.25	132.3
938.7812	2083.4916	1008.6	125.7
938.9176	2085.039	1018.25	132.75
939.054	2086.5857	1016.65	132.8
939.1903	2088.1317	1017.05	130.95
939.3267	2089.677	1016.75	132.45
939.463	2091.2215	1017.5	129.85
939.5992	2092.7652	1011.85	125.6
939.7355	2094.3083	1014.1	128.25
939.8717	2095.8506	1015.1	132.4
940.0079	2097.3921	1008.55	125.05
940.1441	2098.933	1012.35	131.45
940.2802	2100.4731	1015.05	129.8
940.4163	2102.0124	1029.55	127.1
940.5524	2103.5511	1011.25	127.35
940.6885	2105.089	1011.55	127.6
940.8245	2106.6261	1012.6	131.2
940.9606	2108.1626	1011.8	128.45
941.0965	2109.6983	1042.9	130.75
941.2325	2111.2332	1013.4	128.2
941.3684	2112.7675	1012.35	127.15
941.5044	2114.301	1013.5	126.95
941.6403	2115.8337	1012.45	128.2
941.7761	2117.3657	1011.25	130.6
941.912	2118.897	1012.1	126.45
942.0478	2120.4276	1019.55	127.95
942.1835	2121.9575	1012.45	127.35
942.3193	2123.4866	1016.65	129.35
942.455	2125.0149	1015.6	130.7
942.5907	2126.5426	1009.1	127.2
942.7264	2128.0695	1014	129.15
942.8621	2129.5956	1004.5	124.05
942.9977	2131.1211	1012.6	126.05
943.1333	2132.6458	1007.55	124.6
943.2689	2134.1698	1013.15	128.2
943.4044	2135.693	1014.9	128.7
943.54	2137.2155	1010.85	124.65
943.6755	2138.7373	1006.35	125.15
943.8109	2140.2584	1007.9	126.7
943.9464	2141.7787	1005.95	120.3
944.0818	2143.2983	1004.75	126.35
944.2172	2144.8171	1005.5	125.5
944.3526	2146.3353	1010.8	128.7
944.4879	2147.8527	1008.1	126.95
944.6232	2149.3693	1010.9	129
944.7585	2150.8853	1011.9	126.9
944.8938	2152.4005	1010.45	126.25
945.029	2153.9149	1012.1	128.35
945.1642	2155.4287	1007.75	123.15
945.2994	2156.9417	1011.75	125.55
945.4346	2158.454	1004.5	120.6
945.5697	2159.9655	1008.6	128.1
945.7048	2161.4764	1002.65	120.2
945.8399	2162.9865	1004.15	122.85
945.9749	2164.4958	1006.05	122.5
946.1099	2166.0045	1008.1	125.95
946.2449	2167.5124	1006.2	123.45
946.3799	2169.0195	1004.2	119.95
946.5148	2170.526	1009.7	125.7
946.6498	2172.0317	1006.05	122.45
946.7846	2173.5367	1007.75	124.95
946.9195	2175.0409	1004.35	121.6
947.0543	2176.5445	1001.35	118.85
947.1891	2178.0473	1008.15	124.7
947.3239	2179.5494	1007.2	119.95
947.4587	2181.0507	1006.1	124.65
947.5934	2182.5513	1004.65	122.25
947.7281	2184.0512	1002.5	117.95
947.8628	2185.5504	1005.1	121
947.9974	2187.0488	1004.7	121.15
948.132	2188.5465	998.8	116.4
948.2666	2190.0435	1001.55	119.35
948.4012	2191.5397	1003.4	121.1
948.5357	2193.0353	1005.85	124
948.6702	2194.5301	1003.35	116.55
948.8047	2196.0241	1001.2	115.3
948.9392	2197.5175	999.2	113.4
949.0736	2199.0101	1007.15	119
949.208	2200.502	1003.55	122
949.3424	2201.9931	997.2	115.8
949.4767	2203.4835	998.5	114.1
949.611	2204.9733	1006.1	118
949.7453	2206.4622	998.15	116.95
949.8796	2207.9505	998.85	115.15
950.0138	2209.438	997.35	117.75
950.148	2210.9248	996.1	115.85
950.2822	2212.4109	997.3	116.7
950.4164	2213.8962	1001.6	112.85
950.5505	2215.3809	1004.1	118.55
950.6846	2216.8648	998	115.35
950.8186	2218.3479	1004.4	114.85
950.9527	2219.8304	1002.2	113.05
951.0867	2221.3121	1002.1	114.05
951.2207	2222.7931	994.8	112.05
951.3546	2224.2733	996.1	112.1
951.4886	2225.7529	995.6	112.5
951.6225	2227.2317	998.45	115.7
951.7563	2228.7098	994.95	112.85
951.8902	2230.1872	995.6	114.8
952.024	2231.6638	993	113.45
952.1578	2233.1397	995.3	108.85
952.2916	2234.6149	994.45	113.45
952.4253	2236.0894	995.05	111.7
952.559	2237.5632	1000.4	108.7
952.6927	2239.0362	992.65	108.4
952.8263	2240.5085	991.9	108.1
952.9599	2241.9801	991.3	107.25
953.0935	2243.4509	992.4	109
953.2271	2244.921	991.05	105.65
953.3606	2246.3904	992.75	108.55
953.4941	2247.8591	990.1	108.15
953.6276	2249.3271	991.7	109.2
953.7611	2250.7943	993.2	108.05
953.8945	2252.2608	987.4	104.9
954.0279	2253.7266	990.65	107.15
954.1612	2255.1917	992.5	107.85
954.2946	2256.656	989.4	104.35
954.4279	2258.1197	987.35	105.1
954.5612	2259.5826	989.9	105.5
954.6944	2261.0447	990.4	106.8
954.8276	2262.5062	991.95	104.35
954.9608	2263.9669	988.6	102.35
955.094	2265.4269	990.05	107.8
955.2271	2266.8862	986.55	103.25
955.3602	2268.3448	985.95	103.25
955.4933	2269.8026	986.1	102.25
955.6264	2271.2598	984.85	101.65
955.7594	2272.7162	983.2	101.95
955.8924	2274.1719	986.75	103.55
956.0253	2275.6268	984.55	100.25
956.1583	2277.0811	986.55	102.2
956.2912	2278.5346	985.45	103.15
956.4241	2279.9874	989.2	107.45
956.5569	2281.4395	982.8	103.4
956.6897	2282.8908	987.7	101.3
956.8225	2284.3414	989.35	104.9
956.9553	2285.7914	985	102.5
957.088	2287.2406	989.95	106.3
957.2207	2288.689	987.2	101.1
957.3534	2290.1368	984.5	98.9
957.486	2291.5838	988.35	99.9
957.6186	2293.0302	988.85	102.9
957.7512	2294.4758	984.6	99.25
957.8838	2295.9206	986.3	99.9
958.0163	2297.3648	981.55	98
958.1488	2298.8082	984.85	102.45
958.2813	2300.251	985.4	100.3
958.4137	2301.693	986.8	99.15
958.5461	2303.1343	982.6	96.3
958.6785	2304.5748	984.1	101.95
958.8108	2306.0147	982.5	99.7
958.9432	2307.4538	983.2	98
959.0754	2308.8922	976.35	95.7
959.2077	2310.3299	982.5	100.9
959.3399	2311.7669	980.85	99.9
959.4721	2313.2031	976.8	92.95
959.6043	2314.6387	981.65	99
959.7365	2316.0735	976.1	92.2
959.8686	2317.5076	985.6	101.65
960.0006	2318.941	978.15	95.4
960.1327	2320.3737	979.7	96.65
960.2647	2321.8056	983.05	97.45
960.3967	2323.2369	985.65	101.3
960.5287	2324.6674	986.95	98.5
960.6606	2326.0972	984.65	98.15
960.7925	2327.5263	983.9	100.7
960.9244	2328.9547	989.55	106.1
961.0562	2330.3823	989.25	104.55
961.1881	2331.8092	984.35	96.65
961.3198	2333.2355	980.7	94.85
961.4516	2334.661	981.5	96.7
961.5833	2336.0858	982.2	97.05
961.715	2337.5098	978.55	95.6
961.8467	2338.9332	981.35	97.1
961.9783	2340.3558	979	91.05
962.1099	2341.7778	977.1	94
962.2415	2343.199	978.55	93.95
962.373	2344.6195	974.35	91.75
962.5045	2346.0393	976.35	93.05
962.636	2347.4583	975	90.9
962.7675	2348.8767	978.1	90.7
962.8989	2350.2943	976.9	91.85
963.0303	2351.7113	980.2	93
963.1617	2353.1275	977.5	91.3
963.293	2354.543	1004.4	93.4
963.4243	2355.9578	974	88.15
963.5556	2357.3718	973.05	87
963.6868	2358.7852	972.55	86.95
963.818	2360.1978	972.4	87.7
963.9492	2361.6098	977.3	93.15
964.0803	2363.021	973.75	84.65
964.2114	2364.4315	974.65	88.85
964.3425	2365.8413	973.35	87.25
964.4736	2367.2504	973.8	92.1
964.6046	2368.6587	972.7	87.6
964.7356	2370.0664	971.8	90.2
964.8666	2371.4733	972.9	88.1
964.9975	2372.8795	974	88.85
965.1284	2374.285	973.55	88.7
965.2593	2375.6899	971.55	85.7
965.3901	2377.0939	970.15	87.45
965.5209	2378.4973	972.5	87.6
965.6517	2379.9	970.7	83.6
965.7825	2381.3019	969.1	86.65
965.9132	2382.7032	968.35	84.65
966.0439	2384.1037	965.05	80.35
966.1745	2385.5035	967.6	84.15
966.3051	2386.9027	969.95	87.55
966.4357	2388.3011	972.7	87.15
966.5663	2389.6987	970.45	83.5
966.6968	2391.0957	969.45	85.8
966.8273	2392.492	963.45	76.75
966.9578	2393.8876	969.5	84.4
967.0882	2395.2824	967.25	82.15
967.2186	2396.6765	967.05	83.25
967.349	2398.07	968.9	81.3
967.4793	2399.4627	968.6	82.35
967.6097	2400.8547	970.4	83.7
967.7399	2402.246	974.1	78.3
967.8702	2403.6366	968.35	83.8
968.0004	2405.0265	966.95	82.5
968.1306	2406.4156	970.85	81.95
968.2607	2407.8041	970.2	80.2
968.3909	2409.1918	971.05	82.15
968.521	2410.5789	969.35	83.65
968.651	2411.9652	968.65	78.9
968.781	2413.3508	967.25	80.55
968.911	2414.7358	969.05	83.2
969.041	2416.12	964.15	77.75
969.1709	2417.5035	965.4	80.85
969.3008	2418.8863	965.55	77.85
969.4307	2420.2684	965.65	80.6
969.5606	2421.6497	966.95	80.7
969.6904	2423.0304	963.65	78.5
969.8201	2424.4104	966.85	80.25
969.9499	2425.7896	971.05	78.75
970.0796	2427.1682	965.1	80.05
970.2093	2428.546	964.7	77.5
970.3389	2429.9232	965	78.05
970.4685	2431.2996	961.25	75.2
970.5981	2432.6753	961.8	73.8
970.7277	2434.0503	963.85	77.5
970.8572	2435.4246	961.6	76.35
970.9867	2436.7982	969.85	82.35
971.1161	2438.1711	960.5	77.2
971.2456	2439.5433	962.25	73.85
971.375	2440.9148	970.75	79.05
971.5043	2442.2856	958.75	73.45
971.6336	2443.6557	962.4	77.05
971.7629	2445.025	962.85	76.35
971.8922	2446.3937	960.1	72.75
972.0214	2447.7617	958.75	71.35
972.1506	2449.1289	959.1	74.2
972.2798	2450.4955	961.7	72.65
972.4089	2451.8613	957.75	70.05
972.538	2453.2265	957.2	71.9
972.6671	2454.5909	957.65	71.45
972.7961	2455.9546	960.75	74.3
972.9251	2457.3177	957.7	72
973.0541	2458.68	958.55	69.4
973.1831	2460.0416	961.6	75.1
973.312	2461.4025	962.85	76.75
973.4408	2462.7627	968.4	71.35
973.5697	2464.1222	957.85	74.1
973.6985	2465.4811	955.6	71.7
973.8273	2466.8392	957.6	72.05
973.956	2468.1966	958.85	71.8
974.0847	2469.5533	960.5	74.45
974.2134	2470.9093	959.95	74.65
974.3421	2472.2645	955.2	69.2
974.4707	2473.6191	954.85	69.5
974.5993	2474.973	955.85	71.6
974.7278	2476.3262	958.4	71.8
974.8563	2477.6787	955.25	70.9
974.9848	2479.0305	954.3	68.3
975.1132	2480.3816	959.15	72.45
975.2417	2481.7319	959.3	74.65
975.37	2483.0816	958.15	70.3
975.4984	2484.4306	956.4	71
975.6267	2485.7789	955.85	70.85
975.755	2487.1264	955.7	69.65
975.8833	2488.4733	953.1	71.2
976.0115	2489.8195	966.25	63.2
976.1397	2491.165	960.3	74.1
976.2678	2492.5097	954.7	70.95
976.3959	2493.8538	953.5	69.15
976.524	2495.1972	954.65	69.55
976.6521	2496.5398	953.7	66.45
976.7801	2497.8818	956.3	71.35
976.9081	2499.2231	954.05	68.05
977.036	2500.5637	953.45	66.3
977.164	2501.9035	952.65	66.1
977.2918	2503.2427	957.2	66.15
977.4197	2504.5812	952.95	68.15
977.5475	2505.919	953.95	67.4
977.6753	2507.256	954.15	69.7
977.8031	2508.5924	956.4	74
977.9308	2509.9281	960.2	69.75
978.0585	2511.2631	950.85	67.6
978.1861	2512.5974	952.7	69.75
978.3137	2513.9309	947.65	62.4
978.4413	2515.2638	978.65	68.3
978.5689	2516.596	953.7	68.5
978.6964	2517.9275	951.45	65.3
978.8239	2519.2583	951.8	66.7
978.9513	2520.5884	952.85	68.8
979.0788	2521.9178	951.3	67.5
979.2062	2523.2465	949.05	65.05
979.3335	2524.5745	950.45	67.6
979.4608	2525.9018	948.35	63.7
979.5881	2527.2284	946.55	61.85
979.7154	2528.5543	948	67.6
979.8426	2529.8796	950.55	64.7
979.9698	2531.2041	950.3	66.7
980.0969	2532.5279	949.7	66.8
980.224	2533.851	948.25	64.3
980.3511	2535.1735	948.35	63.35
980.4781	2536.4952	947	62.2
980.6052	2537.8163	948.4	60.25
980.7321	2539.1366	949.1	63.4
980.8591	2540.4562	948.2	61.3
980.986	2541.7752	949.75	64
981.1129	2543.0935	950.2	65.6
981.2397	2544.411	947.8	60.75
981.3665	2545.7279	946.2	62.45
981.4933	2547.0441	945.25	59.1
981.62	2548.3596	951.05	65.3
981.7467	2549.6744	945.1	59.05
981.8734	2550.9885	955.8	61.45
982.0001	2552.3019	944.45	60.85
982.1267	2553.6146	945.6	61.4
982.2532	2554.9266	947.45	62
982.3798	2556.2379	948.3	63
982.5063	2557.5485	943.5	60.55
982.6327	2558.8585	952.55	61.9
982.7592	2560.1677	950.2	60.15
982.8856	2561.4762	948.25	64.25
983.0119	2562.7841	949.1	60.4
983.1383	2564.0913	943.2	60.7
983.2646	2565.3977	944.5	61
983.3908	2566.7035	945.45	61.45
983.517	2568.0086	949.85	62.25
983.6432	2569.313	945.85	58.4
983.7694	2570.6167	950.3	61.8
983.8955	2571.9197	943.7	59
984.0216	2573.222	947.85	61.55
984.1476	2574.5236	946.55	60.65
984.2737	2575.8246	944.25	56.65
984.3996	2577.1248	947.95	59.5
984.5256	2578.4244	945.25	61.05
984.6515	2579.7232	943.95	61.85
984.7774	2581.0214	968.2	57.3
984.9032	2582.3189	944.9	61.3
985.029	2583.6157	947.75	58.5
985.1548	2584.9118	942.9	56.6
985.2806	2586.2072	942.75	61.8
985.4063	2587.5019	945.4	62.1
985.5319	2588.7959	945.65	59.85
985.6576	2590.0893	944.45	58.25
985.7832	2591.3819	941.7	58.15
985.9087	2592.6739	940	55.35
986.0343	2593.9652	942.95	57
986.1597	2595.2557	941.85	57.45
986.2852	2596.5456	949.8	62.95
986.4106	2597.8348	943.9	59.95
986.536	2599.1234	944.15	58.15
986.6614	2600.4112	944.6	60.5
986.7867	2601.6983	948	60.45
986.912	2602.9848	941.15	57.45
987.0372	2604.2705	948.15	58.55
987.1624	2605.5556	944.25	60.65
987.2876	2606.84	938.15	53.75
987.4128	2608.1237	941.75	57.6
987.5379	2609.4067	940.95	56.6
987.6629	2610.689	951.6	57
987.788	2611.9707	946.65	57.9
987.913	2613.2516	948.05	60.65
988.0379	2614.5319	941.15	57.15
988.1629	2615.8115	939.65	54.9
988.2878	2617.0903	937.55	52.15
988.4126	2618.3685	942.4	59.35
988.5375	2619.6461	938.65	55.15
988.6622	2620.9229	940.85	59.55
988.787	2622.199	940.5	57.1
988.9117	2623.4745	941.7	53.95
989.0364	2624.7493	940.85	55.6
989.161	2626.0234	937.95	54
989.2857	2627.2968	938.6	54.55
989.4102	2628.5695	939.8	54.9
989.5348	2629.8415	936.65	52.9
989.6593	2631.1128	935.65	51.65
989.7837	2632.3835	936.8	53
989.9082	2633.6535	934.2	53.05
990.0326	2634.9228	937.25	54.75
990.1569	2636.1914	936.6	54.4
990.2812	2637.4593	936.75	52.25
990.4055	2638.7265	938.05	52.8
990.5298	2639.9931	936.4	51.6
990.654	2641.259	938.3	52.75
990.7782	2642.5242	938.25	54.65
990.9023	2643.7887	937.3	51.7
991.0264	2645.0525	936	51.2
991.1505	2646.3156	932.7	48.75
991.2745	2647.5781	934.5	52.35
991.3985	2648.8398	932.6	50.85
991.5225	2650.1009	944.65	51.3
991.6464	2651.3613	935.05	50.95
991.7703	2652.6211	935.15	52.35
991.8942	2653.8801	931.9	49.85
992.018	2655.1385	935.15	50.1
992.1418	2656.3961	933.1	49.2
992.2655	2657.6531	933.2	48.8
992.3892	2658.9094	933.7	51.1
992.5129	2660.1651	932.7	48.85
992.6366	2661.42	934.45	49.7
992.7602	2662.6743	933.9	48.85
992.8837	2663.9279	932.95	49.45
993.0073	2665.1808	934.15	51.15
993.1307	2666.433	933.75	49.35
993.2542	2667.6846	933.6	50.4
993.3776	2668.9354	936.55	51.6
993.501	2670.1856	935.7	51.2
993.6244	2671.4351	932.9	52.45
993.7477	2672.6839	935.25	51.1
993.8709	2673.9321	931.45	48.9
993.9942	2675.1795	937.85	54.9
994.1174	2676.4263	932.6	49.75
994.2405	2677.6724	933.6	50.95
994.3637	2678.9179	936.4	52.55
994.4868	2680.1626	933	50.6
994.6098	2681.4067	932.8	49
994.7328	2682.6501	932.45	49.5
994.8558	2683.8928	932.1	48.55
994.9788	2685.1348	933.95	51.1
995.1017	2686.3761	929.35	47.2
995.2245	2687.6168	931.1	47.3
995.3474	2688.8568	931.4	47.55
995.4702	2690.0961	930.8	49.2
995.5929	2691.3348	933.2	49.6
995.7156	2692.5727	929.85	46.05
995.8383	2693.81	930	48.8
995.961	2695.0466	928.35	45.7
996.0836	2696.2826	930.2	47.5
996.2062	2697.5178	949.8	47.1
996.3287	2698.7524	929.6	46.65
996.4512	2699.9863	930.5	46.6
996.5737	2701.2195	927.5	45.85
996.6961	2702.452	932.25	48.85
996.8185	2703.6839	931.25	46.25
996.9408	2704.9151	930.25	47.55
997.0631	2706.1456	931.05	45.65
997.1854	2707.3755	931.3	48.35
997.3077	2708.6046	934.05	47.2
997.4299	2709.8331	930.75	47.2
997.552	2711.0609	933.15	49.7
997.6742	2712.2881	930.95	48.3
997.7963	2713.5145	936	52.25
997.9183	2714.7403	932.7	50.75
998.0403	2715.9654	933.45	50.15
998.1623	2717.1899	952.2	55.85
998.2842	2718.4136	934.6	52.85
998.4062	2719.6367	936.85	53.7
998.528	2720.8591	942.2	54.05
998.6498	2722.0809	941.6	58
998.7716	2723.3019	940.25	53.4
998.8934	2724.5223	940.3	55.75
999.0151	2725.7421	937.7	54.05
999.1368	2726.9611	937.9	51.7
999.2584	2728.1795	943.6	55.75
999.38	2729.3972	938.25	55.8
999.5016	2730.6142	942.6	53.25
999.6231	2731.8306	931.55	47.2
999.7446	2733.0462	934.15	51
999.8661	2734.2612	935.8	50.45
999.9875	2735.4756	934.05	50.45
1000.1089	2736.6892	931.1	48.9
1000.2302	2737.9022	930	49.35
1000.3515	2739.1145	926.6	44.95
1000.4728	2740.3262	936.8	47.25
1000.594	2741.5372	925	44.35
1000.7152	2742.7475	928.55	44
1000.8363	2743.9571	927.3	43.05
1000.9575	2745.1661	932.75	44.25
1001.0785	2746.3744	924.95	44.85
1001.1996	2747.582	923.75	42.7
1001.3206	2748.7889	926.2	41.35
1001.4415	2749.9952	925.15	42.5
1001.5625	2751.2008	925.15	41.1
1001.6833	2752.4057	926.05	42.75
1001.8042	2753.61	921.25	40
1001.925	2754.8136	922.85	38.85
1002.0458	2756.0165	921.7	40.65
1002.1665	2757.2188	923.35	42.35
1002.2872	2758.4204	921.55	41.65
1002.4078	2759.6213	926.35	41.05
1002.5285	2760.8215	926.8	41.4
1002.649	2762.0211	925.15	41.65
1002.7696	2763.22	925.05	39.65
1002.8901	2764.4182	922.3	41.05
1003.0106	2765.6158	924.05	42.35
1003.131	2766.8127	920.65	39.55
1003.2514	2768.009	922	42.4
1003.3717	2769.2045	919.9	38.85
1003.492	2770.3994	922.5	39.15
1003.6123	2771.5936	921.1	40.55
1003.7325	2772.7872	918.65	37.3
1003.8527	2773.9801	922.8	38.75
1003.9729	2775.1723	936	35.25
1004.093	2776.3639	919.15	38
1004.2131	2777.5548	920.85	36.8
1004.3331	2778.745	921.45	39.05
1004.4531	2779.9346	920.1	39.15
1004.5731	2781.1235	920.45	38.55
1004.693	2782.3117	916.2	36.7
1004.8129	2783.4992	917.85	37.4
1004.9328	2784.6861	916.7	36.1
1005.0526	2785.8723	921.3	37.4
1005.1723	2787.0579	920.4	38.2
1005.2921	2788.2428	920.15	38.25
1005.4118	2789.427	918.9	37.25
1005.5314	2790.6106	919.15	38
1005.651	2791.7935	921.15	39.7
1005.7706	2792.9757	920.15	39.95
1005.8902	2794.1573	921.75	37.55
1006.0097	2795.3382	919.7	37.85
1006.1291	2796.5184	920.1	39.4
1006.2485	2797.698	918	33.55
1006.3679	2798.8769	919.95	39.45
1006.4873	2800.0551	920.85	37.95
1006.6066	2801.2327	923.7	40.4
1006.7258	2802.4096	921.6	41.7
1006.8451	2803.5859	919.7	38.05
1006.9642	2804.7615	921.95	40.85
1007.0834	2805.9364	920.05	41.05
1007.2025	2807.1106	921.25	42.05
1007.3216	2808.2842	922.75	39.7
1007.4406	2809.4572	925.75	44
1007.5596	2810.6294	927.25	44.6
1007.6785	2811.801	924.9	45.45
1007.7975	2812.972	929.9	51.05
1007.9163	2814.1423	930.05	47.45
1008.0352	2815.3119	929.65	47
1008.154	2816.4808	931.5	50.05
1008.2727	2817.6491	937.5	54.55
1008.3914	2818.8167	941.6	61.3
1008.5101	2819.9837	944.9	59
1008.6288	2821.15	947.5	64.25
1008.7474	2822.3157	952.1	73.75
1008.8659	2823.4807	957.25	75.65
1008.9844	2824.645	965.45	81.6
1009.1029	2825.8086	970.85	89.15
1009.2214	2826.9716	976.55	96.65
1009.3398	2828.134	982.75	104.15
1009.4581	2829.2957	988.55	105.2
1009.5764	2830.4567	991.85	111.75
1009.6947	2831.617	998.2	115.05
1009.813	2832.7767	1000.1	120.8
1009.9312	2833.9358	999.35	119.2
1010.0493	2835.0941	998.75	115.85
1010.1675	2836.2519	996.85	117.3
1010.2855	2837.4089	991.65	109.8
1010.4036	2838.5653	989.2	107.9
1010.5216	2839.7211	985.05	107.4
1010.6396	2840.8761	981.05	99.5
1010.7575	2842.0306	979.05	98.95
1010.8754	2843.1843	979.7	99.45
1010.9932	2844.3374	982	99.95
1011.111	2845.4899	983.5	99.85
1011.2288	2846.6417	985.65	104.35
1011.3465	2847.7928	989.15	110.6
1011.4642	2848.9433	987.6	106.25
1011.5818	2850.0931	989.6	109.1
1011.6995	2851.2422	995.7	115.7
1011.817	2852.3907	994.65	113.25
1011.9345	2853.5385	995.2	113
1012.052	2854.6857	1018.65	111.05
1012.1695	2855.8323	1000.7	119.8
1012.2869	2856.9781	1001.5	121.8
1012.4042	2858.1233	1003.55	120.35
1012.5216	2859.2679	1005.65	125.7
1012.6389	2860.4118	1006.3	125.05
1012.7561	2861.555	1019.25	131.7
1012.8733	2862.6976	1015	134
1012.9905	2863.8395	1013.55	133.85
1013.1076	2864.9808	1011.9	131.95
1013.2247	2866.1214	1016.8	138.3
1013.3417	2867.2614	1015.7	134.25
1013.4587	2868.4007	1021	138.75
1013.5757	2869.5393	1019.95	138.5
1013.6926	2870.6773	1023.2	138.7
1013.8095	2871.8146	1027.85	142.25
1013.9263	2872.9513	1029.8	145.7
1014.0431	2874.0874	1030.7	148.95
1014.1599	2875.2227	1029.9	147.8
1014.2766	2876.3574	1029.05	149.4
1014.3933	2877.4915	1032.3	152.4
1014.51	2878.6249	1030.2	149.35
1014.6266	2879.7577	1033.55	151.45
1014.7431	2880.8898	1041.6	151.5
1014.8596	2882.0212	1032.95	155.65
1014.9761	2883.152	1038.1	158
1015.0925	2884.2821	1036.35	154.95
1015.2089	2885.4116	1042	164.5
1015.3253	2886.5405	1040.7	160
1015.4416	2887.6686	1048.65	165.7
1015.5579	2888.7962	1041.8	163.85
1015.6741	2889.923	1042	163.25
1015.7903	2891.0493	1042.35	161.9
1015.9065	2892.1748	1043.5	163.2
1016.0226	2893.2997	1042.9	163.15
1016.1387	2894.424	1042.9	165.7
1016.2547	2895.5476	1040.65	162.65
1016.3707	2896.6706	1045.8	167.4
1016.4866	2897.7929	1043.2	161.55
1016.6025	2898.9145	1047.85	167.35
1016.7184	2900.0355	1046.35	165.6
1016.8342	2901.1559	1044.9	162.7
1016.95	2902.2756	1050.4	162.7
1017.0658	2903.3946	1046.8	166.8
1017.1815	2904.513	1045.35	162.65
1017.2971	2905.6308	1042.1	161.75
1017.4127	2906.7479	1040.5	156.9
1017.5283	2907.8643	1042.65	160.7
1017.6439	2908.9801	1040.7	161.4
1017.7594	2910.0953	1041.5	160.55
1017.8748	2911.2098	1049	166.15
1017.9902	2912.3236	1053.5	164.45
1018.1056	2913.4368	1047.35	162.3
1018.2209	2914.5494	1045.6	164.3
1018.3362	2915.6613	1046.65	158.65
1018.4515	2916.7725	1039.15	155.95
1018.5667	2917.8831	1034.4	153.55
1018.6819	2918.9931	1034.85	150.85
1018.797	2920.1024	1033.05	153.1
1018.9121	2921.211	1031.85	150.3
1019.0271	2922.319	1027.8	148
1019.1421	2923.4264	1024.85	146.85
1019.2571	2924.5331	1025.05	145.2
1019.372	2925.6391	1025.1	148.5
1019.4869	2926.7445	1024.4	145.6
1019.6017	2927.8493	1030.55	150.6
1019.7165	2928.9534	1024.85	145.35
1019.8313	2930.0569	1031.55	150.1
1019.946	2931.1597	1029.25	148.8
1020.0606	2932.2619	1029.25	148.45
1020.1753	2933.3634	1033.8	154.2
1020.2899	2934.4643	1041.5	154.45
1020.4044	2935.5645	1036.6	150.65
1020.5189	2936.6641	1041.45	158.85
1020.6334	2937.763	1035.45	155.1
1020.7478	2938.8613	1034.5	155.4
1020.8622	2939.959	1036	148.2
1020.9765	2941.056	1027.75	147.85
1021.0908	2942.1523	1021.35	137.95
1021.2051	2943.248	1015.6	136.75
1021.3193	2944.3431	1007.3	127.1
1021.4334	2945.4375	1005.45	126.1
1021.5476	2946.5313	995.4	117.85
1021.6617	2947.6244	991.7	111.8
1021.7757	2948.7169	985.65	104.7
1021.8897	2949.8087	979.9	101.25
1022.0037	2950.8999	974.95	94.85
1022.1176	2951.9904	973.45	93.25
1022.2315	2953.0803	965.6	84.7
1022.3453	2954.1696	962.55	82.85
1022.4591	2955.2582	961.5	82
1022.5728	2956.3462	957.3	76.85
1022.6865	2957.4335	957.15	77.1
1022.8002	2958.5202	953.95	72.5
1022.9138	2959.6062	954.95	74.65
1023.0274	2960.6916	953.55	74.4
1023.141	2961.7764	953.3	71.4
1023.2545	2962.8605	955.25	74.25
1023.3679	2963.9439	951.7	74.3
1023.4813	2965.0267	953.95	73
1023.5947	2966.1089	973.55	73.85
1023.708	2967.1905	953.95	74.7
1023.8213	2968.2714	948.45	68.35
1023.9346	2969.3516	950.2	71.4
1024.0478	2970.4312	961.15	74.5
1024.1609	2971.5102	951.95	71.6
1024.274	2972.5885	952.65	73.55
1024.3871	2973.6662	954.45	69.15
1024.5002	2974.7432	951.4	71.8
1024.6132	2975.8196	948.95	69.15
1024.7261	2976.8954	950.2	71.2
1024.839	2977.9705	951.1	72.35
1024.9519	2979.045	949.95	70.55
1025.0647	2980.1188	952	71.7
1025.1775	2981.192	950.8	74.15
1025.2902	2982.2645	951.8	71.75
1025.4029	2983.3364	953.7	74.55
1025.5156	2984.4077	943.35	64.55
1025.6282	2985.4783	952.75	66.95
1025.7407	2986.5483	939.7	61.45
1025.8532	2987.6177	940.15	60.95
1025.9657	2988.6864	939.25	59.25
1026.0782	2989.7545	938.6	59.5
1026.1906	2990.8219	933.2	52.65
1026.3029	2991.8887	932.1	50.85
1026.4152	2992.9548	928.95	48.8
1026.5275	2994.0204	928.9	50.4
1026.6397	2995.0852	921.1	43.1
1026.7519	2996.1495	924.2	44
1026.864	2997.2131	919.45	40.5
1026.9761	2998.276	919.8	42.15
1027.0882	2999.3383	918.95	40.4
1027.2002	3000.4	917.6	38.65
1027.3122	3001.4611	913.35	35.35
1027.4241	3002.5215	915.35	35.15
1027.536	3003.5812	911.1	32.7
1027.6478	3004.6404	910.1	30.15
1027.7596	3005.6989	912.7	31.4
1027.8714	3006.7567	909.25	30.65
1027.9831	3007.8139	936.2	26.85
1028.0947	3008.8705	906.75	26.15
1028.2064	3009.9264	913.5	31.55
1028.3179	3010.9818	907.85	28.6
1028.4295	3012.0364	904.25	22.55
1028.541	3013.0905	906.95	26.6
1028.6524	3014.1439	907.4	27.35
1028.7638	3015.1966	903.5	23.8
1028.8752	3016.2487	906.35	27.8
1028.9865	3017.3002	906.95	23.4
1029.0978	3018.3511	904.05	28.1
1029.209	3019.4013	904.05	22.95
1029.3202	3020.4509	904.3	25.1
1029.4314	3021.4998	903.45	25.1
1029.5425	3022.5481	901.9	23.9
1029.6535	3023.5958	902.4	23.95
1029.7645	3024.6428	903.15	22.5
1029.8755	3025.6892	902.7	25.1
1029.9864	3026.735	904.1	23.55
1030.0973	3027.7802	900.55	19.1
1030.2082	3028.8247	901.55	23.5
1030.319	3029.8685	904	25.4
1030.4297	3030.9118	901.85	21.95
1030.5404	3031.9544	902.7	23.95
1030.6511	3032.9963	903.95	24.2
1030.7617	3034.0376	904.25	26.8
1030.8723	3035.0783	907.05	25.75
1030.9829	3036.1184	902.25	22.9
1031.0934	3037.1578	902.55	23.9
1031.2038	3038.1966	901.75	20
1031.3142	3039.2348	903.45	25.9
1031.4246	3040.2723	909.9	22.6
1031.5349	3041.3092	901.15	24.35
1031.6452	3042.3455	902.6	22
1031.7554	3043.3811	902.45	24
1031.8656	3044.4161	904.5	23
1031.9758	3045.4505	900.6	22.1
1032.0859	3046.4842	904.3	25.6
1032.1959	3047.5173	901.35	23.4
1032.3059	3048.5498	902	23.65
1032.4159	3049.5816	903.25	24.9
1032.5258	3050.6128	901.95	21.85
1032.6357	3051.6434	903.4	25.25
1032.7455	3052.6734	904.8	24.5
1032.8553	3053.7027	903.4	25.3
1032.9651	3054.7314	901.05	21.5
1033.0748	3055.7594	903.35	24.75
1033.1845	3056.7868	905	25.95
1033.2941	3057.8136	903	25.95
1033.4037	3058.8398	902.6	24.65
1033.5132	3059.8653	904.05	26.6
1033.6227	3060.8902	902.3	22.8
1033.7321	3061.9145	902.6	21.9
1033.8415	3062.9381	905.7	27.55
1033.9509	3063.9612	919.95	25.45
1034.0602	3064.9835	904.95	27.15
1034.1694	3066.0053	904.15	21.9
1034.2787	3067.0264	905	29.15
1034.3878	3068.0469	906.15	27.45
1034.497	3069.0668	906	26.55
1034.6061	3070.086	901.45	23.45
1034.7151	3071.1046	902.2	23.7
1034.8241	3072.1226	903.95	24.3
1034.9331	3073.1399	905.2	26.7
1035.042	3074.1567	900.8	21.8
1035.1508	3075.1727	904.95	26.1
1035.2597	3076.1882	900.6	20.9
1035.3684	3077.203	900	20.85
1035.4772	3078.2173	901.05	20.25
1035.5859	3079.2308	902.85	20.95
1035.6945	3080.2438	903.15	21.55
1035.8031	3081.2561	898.15	18.8
1035.9117	3082.2678	898.2	20.05
1036.0202	3083.2789	899.25	21.7
1036.1286	3084.2893	897.1	16.9
1036.2371	3085.2991	898.4	19.3
1036.3454	3086.3083	902.55	19.9
1036.4538	3087.3169	899.55	19.55
1036.562	3088.3248	898.7	18.85
1036.6703	3089.3321	896.35	14.8
1036.7785	3090.3388	895.2	17.9
1036.8866	3091.3449	897.6	18.75
1036.9948	3092.3503	897.65	16.35
1037.1028	3093.3551	893.9	16.6
1037.2108	3094.3593	895	19
1037.3188	3095.3629	895	16.8
1037.4267	3096.3658	896.2	16.65
1037.5346	3097.3681	897.1	17.8
1037.6425	3098.3698	896.45	16.5
1037.7503	3099.3708	893.45	15.4
1037.858	3100.3713	893.75	15.25
1037.9657	3101.3711	895.95	15
1038.0734	3102.3702	1031.4	16.75
1038.181	3103.3688	895.9	15.65
1038.2886	3104.3667	890.15	11.15
1038.3961	3105.364	892.65	14.5
1038.5036	3106.3607	894.7	14.1
1038.611	3107.3568	895.85	15.5
1038.7184	3108.3522	893.9	16.05
1038.8257	3109.347	893.35	13.8
1038.933	3110.3412	896.6	14.1
1039.0403	3111.3348	892.8	14.7
1039.1475	3112.3277	893.75	14.05
1039.2547	3113.32	891.5	11.1
1039.3618	3114.3117	893.55	13.4
1039.4689	3115.3028	893.4	16.05
1039.5759	3116.2932	894.55	16.1
1039.6829	3117.2831	897	12.95
1039.7898	3118.2723	890.3	12.35
1039.8967	3119.2608	888.85	11.05
1040.0035	3120.2488	891.3	13.2
1040.1103	3121.2361	892.4	14
1040.2171	3122.2229	890.75	10.65
1040.3238	3123.209	891.95	10.9
1040.4305	3124.1944	888.1	10.15
1040.5371	3125.1793	890.5	11
1040.6437	3126.1635	890.85	14.85
1040.7502	3127.1471	889.7	10
1040.8567	3128.1301	889.45	10.75
1040.9631	3129.1125	889.1	11.5
1041.0695	3130.0942	887.3	8.55
1041.1759	3131.0753	898.5	13.25
1041.2822	3132.0558	891.8	9.15
1041.3884	3133.0357	890.65	10.75
1041.4946	3134.015	890.9	11.2
1041.6008	3134.9936	890.5	9.1
1041.7069	3135.9716	908.95	7.05
1041.813	3136.949	890.1	13.45
1041.919	3137.9258	908.15	11.6
1042.025	3138.902	895.4	12.3
1042.1309	3139.8775	887.05	8.55
1042.2368	3140.8524	888.45	11.5
1042.3427	3141.8267	890.95	10.45
1042.4485	3142.8004	887.3	8.8
1042.5542	3143.7735	893.65	9.85
1042.6599	3144.7459	891.25	10.35
1042.7656	3145.7178	889.3	10.1
1042.8712	3146.689	886.9	11.15
1042.9768	3147.6596	888.35	6.75
1043.0823	3148.6295	889.25	10.55
1043.1878	3149.5989	886.3	7.5
1043.2932	3150.5676	885.9	7.3
1043.3986	3151.5357	886.3	8.85
1043.5039	3152.5032	885.85	7.9
1043.6092	3153.4701	888.75	10.4
1043.7145	3154.4364	890.45	10.5
1043.8197	3155.402	886.3	9.65
1043.9248	3156.367	888.3	10.25
1044.03	3157.3315	921.1	7.4
1044.135	3158.2952	888.6	11.15
1044.24	3159.2584	887.1	8
1044.345	3160.221	886.05	6.75
1044.4499	3161.1829	886.75	8.3
1044.5548	3162.1442	888.5	11.65
1044.6596	3163.105	888.5	9.6
1044.7644	3164.065	886.55	8.65
1044.8692	3165.0245	890.45	9.3
1044.9739	3165.9834	883.9	7.9
1045.0785	3166.9416	885.05	5.85
1045.1831	3167.8993	887.85	11.15
1045.2877	3168.8563	886.7	7.65
1045.3922	3169.8127	886.35	8.95
1045.4966	3170.7684	887.7	9.25
1045.6011	3171.7236	886.4	7.5
1045.7054	3172.6782	887.45	8.85
1045.8098	3173.6321	888.35	10.4
1045.914	3174.5854	891.65	10.1
1046.0183	3175.5381	886.85	10.75
1046.1224	3176.4902	885.3	7.05
1046.2266	3177.4417	886.4	8.65
1046.3307	3178.3926	884.5	5.2
1046.4347	3179.3428	885	8.1
1046.5387	3180.2924	887.7	10.65
1046.6427	3181.2415	885.7	8.65
1046.7466	3182.1899	888.85	9.8
1046.8504	3183.1377	884.4	9.05
1046.9542	3184.0848	888.2	6
1047.058	3185.0314	887.35	10.95
1047.1617	3185.9773	884.25	3.85
1047.2654	3186.9227	886.3	7.95
1047.369	3187.8674	887.35	9.35
1047.4726	3188.8115	890.25	7.25
1047.5761	3189.755	887.45	11
1047.6796	3190.6979	883.65	6.15
1047.783	3191.6402	885	9.05
1047.8864	3192.5818	883.15	4.4
1047.9898	3193.5229	902.1	5.55
1048.0931	3194.4633	885.65	8.6
1048.1963	3195.4031	886	7.2
1048.2995	3196.3423	884.4	5.25
1048.4027	3197.2809	885.75	7.35
1048.5058	3198.2189	885.05	6.65
1048.6089	3199.1563	901.9	4.55
1048.7119	3200.0931	882.65	6.75
1048.8148	3201.0292	883.75	6.85
1048.9178	3201.9648	885.65	9.05
1049.0206	3202.8997	885.85	5.35
1049.1235	3203.834	885.15	7
1049.2262	3204.7677	883.3	6.8
1049.329	3205.7008	886.65	6.45
1049.4317	3206.6333	884.2	7.95
1049.5343	3207.5652	886.9	5.2
1049.6369	3208.4964	884.8	7
1049.7394	3209.4271	882.35	4.35
1049.8419	3210.3571	885.7	6.35
1049.9444	3211.2865	886.45	8.15
1050.0468	3212.2154	885.65	8.3
1050.1491	3213.1436	888.7	6.25
1050.2514	3214.0712	892.2	5.6
1050.3537	3214.9982	885.15	7.9
1050.4559	3215.9246	885.45	5.75
1050.5581	3216.8503	881.75	4.8
1050.6602	3217.7755	886	7.65
1050.7623	3218.7001	884.85	7.95
1050.8643	3219.624	884.35	5.65
1050.9663	3220.5473	884.2	7.25
1051.0682	3221.4701	885.1	6.6
1051.1701	3222.3922	886.3	8.4
1051.2719	3223.3137	883.8	6.75
1051.3737	3224.2346	882.8	3.7
1051.4754	3225.1549	883.4	5.65
1051.5771	3226.0746	884.4	5.15
1051.6788	3226.9937	884.2	7.5
1051.7804	3227.9121	881.6	4.15
1051.8819	3228.83	884.05	7.25
1051.9834	3229.7473	886.6	8
1052.0849	3230.6639	885.3	7.85
1052.1863	3231.5799	883.25	5.9
1052.2876	3232.4954	886.35	6.65
1052.3889	3233.4102	880.3	2.85
1052.4902	3234.3244	882.75	3.85
1052.5914	3235.238	882.15	4.35
1052.6926	3236.151	908.6	8.05
1052.7937	3237.0634	883.6	9.05
1052.8948	3237.9752	883.25	5.6
1052.9958	3238.8864	883.3	4.5
1053.0968	3239.797	883.5	5.65
1053.1977	3240.7069	885.9	7.05
1053.2986	3241.6163	886.1	7.55
1053.3994	3242.5251	880.6	1.55
1053.5002	3243.4332	882.25	5.75
1053.6009	3244.3408	884.45	5.8
1053.7016	3245.2477	881.8	3.1
1053.8022	3246.154	884.9	6.5
1053.9028	3247.0598	883.2	6.3
1054.0034	3247.9649	883.9	6
1054.1039	3248.8694	885.65	9.35
1054.2043	3249.7733	882.25	4.2
1054.3047	3250.6766	883.95	7.55
1054.4051	3251.5793	886.15	6.8
1054.5054	3252.4814	883.1	5.85
1054.6056	3253.3829	883.3	5.4
1054.7058	3254.2838	883.25	5.65
1054.806	3255.1841	882.95	6.75
1054.9061	3256.0838	882.6	6
1055.0061	3256.9829	882.35	5.6
1055.1062	3257.8814	884.05	3.8
1055.2061	3258.7792	882.45	3.6
1055.306	3259.6765	882.7	4.7
1055.4059	3260.5731	882.6	5.65
1055.5057	3261.4692	882.35	2.85
1055.6055	3262.3647	884.6	6.15
1055.7052	3263.2595	879.5	0.8
1055.8049	3264.1538	882.7	7.55
1055.9045	3265.0474	881.4	3.1
1056.0041	3265.9404	882.25	6.05
1056.1036	3266.8329	882.25	3.8
1056.2031	3267.7247	889.7	3.65
1056.3025	3268.616	881.1	3.4
1056.4019	3269.5066	881.95	2.95
1056.5013	3270.3966	886.35	7.9
1056.6005	3271.286	879.7	2.65
