Software Version:	3.9.2.0
Unit SN:	10000200
Spectrometer SN:	6960
Date:	3/8/2024 11:37:18 AM
Data Line Index:	25
Spectral Points:	2048
Integration time (ms):	125
Averages:	20
Delay (ms):	30000
Sequence Number:	1
Processing:	dark subtract
Laser Power (mW):	300
Laser Current (mA):	822
Laser Diode Temp (C):	25.1
Laser Case Temp (C):	25.2
System Temp (C):	25.1
Spectrometer Temp (C):	22.9
CCD Temp (C):	0.005
Secondary Temp (C):	20.008
Heatsink Temp (C):	19.958
CCDPCB Temp (C):	33.45
SecondaryPCB Temp (C):	27.292

Wavelength	RamanShift	Raw Counts	Dark Subtracted
787.061	30.1047	415.1	4.85
787.2016	32.3739	414.05	4.5
787.3422	34.6426	414.6	4.95
787.4828	36.9109	417.45	7.2
787.6235	39.1787	420.9	6.8
787.7642	41.4461	425.2	6.8
787.9049	43.7131	430.15	7
788.0456	45.9796	433.25	9.25
788.1863	48.2456	436.85	8.4
788.3271	50.5112	441.5	8.1
788.4679	52.7764	444.5	9.55
788.6087	55.0411	451.95	12.15
788.7496	57.3054	458.4	14.15
788.8904	59.5692	460.2	13.2
789.0313	61.8326	463.4	14.25
789.1722	64.0955	466.9	14.95
789.3132	66.3579	474.85	18.6
789.4541	68.6199	480.85	21.5
789.5951	70.8815	492.65	26.15
789.7361	73.1426	509.3	38.75
789.8771	75.4032	543.65	68.85
790.0181	77.6634	620.4	142.8
790.1592	79.9231	792.8	312.95
790.3003	82.1824	1152.75	665.05
790.4414	84.4412	1753.5	1252.8
790.5825	86.6995	2494.85	1980.05
790.7237	88.9574	3205.45	2676.15
790.8648	91.2148	3692.5	3157.85
791.006	93.4717	3896.25	3353.8
791.1472	95.7282	3910.9	3364.7
791.2885	97.9842	3886.75	3338.5
791.4297	100.2398	3829.8	3280.3
791.571	102.4949	3773.2	3219.2
791.7123	104.7495	3754	3196.15
791.8536	107.0036	3702	3143.3
791.9949	109.2573	3626.4	3069.1
792.1363	111.5105	3520.1	2960.4
792.2777	113.7632	3426.35	2862.1
792.4191	116.0154	3320.8	2747.55
792.5605	118.2672	3209.7	2643.5
792.7019	120.5185	3099.65	2529.6
792.8434	122.7693	3010.65	2438.6
792.9849	125.0197	2910.4	2333.65
793.1264	127.2696	2840.15	2260.05
793.2679	129.519	2798.75	2215.5
793.4094	131.7679	2766	2179.55
793.551	134.0163	2739.9	2151.3
793.6926	136.2642	2731.45	2139.3
793.8342	138.5117	2724.15	2128.2
793.9758	140.7587	2708.35	2116.35
794.1175	143.0052	2649.75	2049.8
794.2591	145.2512	2590.55	1990.85
794.4008	147.4967	2553.05	1951.7
794.5425	149.7417	2494.2	1891.8
794.6842	151.9863	2476.85	1870.65
794.826	154.2304	2466.3	1853.95
794.9677	156.4739	2459.05	1841.35
795.1095	158.717	2468.25	1853
795.2513	160.9596	2494.6	1872.05
795.3931	163.2017	2531.3	1909.45
795.535	165.4433	2542.9	1917.6
795.6768	167.6844	2525.15	1897.85
795.8187	169.925	2502.75	1871.85
795.9606	172.1651	2452.2	1820.9
796.1025	174.4047	2391.5	1754.8
796.2445	176.6439	2348.3	1706.5
796.3864	178.8825	2322.75	1683.25
796.5284	181.1206	2309.15	1662
796.6704	183.3582	2306.9	1657.1
796.8124	185.5954	2294.95	1644
796.9544	187.832	2291.15	1636.4
797.0965	190.0681	2289.85	1632.9
797.2386	192.3037	2303.95	1642.55
797.3806	194.5388	2309.3	1643.75
797.5228	196.7734	2322.95	1658.65
797.6649	199.0075	2333.15	1666.05
797.807	201.2411	2352.55	1681.2
797.9492	203.4742	2370	1699.85
798.0914	205.7068	2407.95	1732.95
798.2336	207.9389	2437.75	1761.6
798.3758	210.1704	2449.3	1777.15
798.518	212.4015	2438.25	1773.25
798.6603	214.632	2432.4	1778.45
798.8025	216.862	2438.95	1786.3
798.9448	219.0915	2446.95	1793.2
799.0871	221.3205	2468.5	1812.3
799.2294	223.549	2460.95	1808.7
799.3718	225.777	2461.3	1805.65
799.5141	228.0044	2460.5	1799.8
799.6565	230.2314	2454.45	1793.25
799.7989	232.4578	2439	1773.7
799.9413	234.6837	2428.55	1751.4
800.0837	236.909	2420.75	1742.5
800.2262	239.1339	2435.45	1736.4
800.3687	241.3582	2412.25	1727
800.5111	243.582	2440.15	1725.15
800.6536	245.8053	2441.8	1741.2
800.7961	248.0281	2435.6	1738.2
800.9387	250.2503	2446.05	1742.35
801.0812	252.472	2450.3	1747.6
801.2238	254.6932	2451.6	1746.2
801.3664	256.9139	2470.1	1763.35
801.509	259.134	2479.75	1770.95
801.6516	261.3536	2514.65	1807
801.7942	263.5727	2555.1	1847.6
801.9369	265.7912	2580.35	1873.55
802.0795	268.0092	2671.95	1963.25
802.2222	270.2267	2716.5	2006
802.3649	272.4436	2772.95	2062.5
802.5076	274.6601	2816.05	2092.85
802.6504	276.8759	2833.5	2112.5
802.7931	279.0913	2862.7	2145.55
802.9359	281.3061	2860.85	2142.95
803.0787	283.5204	2891.4	2168.6
803.2215	285.7341	2907.45	2178.95
803.3643	287.9473	2940.2	2210.85
803.5071	290.16	2944	2212.85
803.6499	292.3721	2900.8	2179.65
803.7928	294.5837	2848.3	2122.55
803.9357	296.7947	2823.5	2097.1
804.0786	299.0052	2827.5	2100.95
804.2215	301.2152	2795.35	2066.1
804.3644	303.4246	2778.95	2052
804.5074	305.6334	2761.95	2035.75
804.6503	307.8418	2752.95	2020.15
804.7933	310.0495	2713.6	1982.15
804.9363	312.2568	2680.35	1948.9
805.0793	314.4635	2626.5	1891.65
805.2223	316.6696	2595.7	1859
805.3653	318.8752	2554.5	1808.8
805.5084	321.0802	2510.15	1770.5
805.6514	323.2847	2513.5	1771.25
805.7945	325.4887	2509.7	1770.85
805.9376	327.692	2537.95	1795.65
806.0807	329.8949	2583.1	1837.4
806.2238	332.0972	2607.4	1860.75
806.367	334.2989	2649.65	1897.7
806.5101	336.5001	2634.9	1885.1
806.6533	338.7007	2611	1859.35
806.7965	340.9008	2560.45	1809.9
806.9397	343.1003	2505.65	1753.4
807.0829	345.2992	2455.15	1699.95
807.2261	347.4976	2421.5	1665.95
807.3693	349.6955	2392.05	1631.4
807.5126	351.8927	2366.3	1607.15
807.6559	354.0895	2351.4	1581.65
807.7991	356.2856	2339.05	1574.95
807.9424	358.4812	2332.2	1568.1
808.0857	360.6763	2324.2	1559.85
808.2291	362.8707	2320.95	1555.85
808.3724	365.0646	2322.85	1555.8
808.5158	367.258	2334	1563.05
808.6591	369.4508	2358.65	1584.45
808.8025	371.643	2377	1604.7
808.9459	373.8346	2404.65	1629.4
809.0893	376.0257	2454.2	1675.6
809.2327	378.2162	2469.35	1692.1
809.3762	380.4062	2490.25	1713.75
809.5196	382.5956	2447.5	1668.3
809.6631	384.7844	2408.05	1635.25
809.8066	386.9726	2369.6	1599.55
809.9501	389.1603	2332.25	1563.65
810.0936	391.3474	2342.35	1538.3
810.2371	393.5339	2315.25	1542.1
810.3806	395.7199	2328.6	1559.45
810.5241	397.9052	2360.6	1591.15
810.6677	400.09	2411.4	1638.6
810.8113	402.2743	2456	1682.1
810.9548	404.4579	2490.4	1719.3
811.0984	406.641	2547.4	1770.7
811.2421	408.8235	2594.85	1816.6
811.3857	411.0054	2634.5	1853.95
811.5293	413.1868	2705.95	1925.4
811.673	415.3675	2745.65	1959.45
811.8166	417.5477	2737.1	1950.75
811.9603	419.7273	2676.5	1887.65
812.104	421.9064	2604.85	1809.45
812.2477	424.0848	2545.95	1755.1
812.3914	426.2627	2482.8	1689.9
812.5351	428.4399	2418.4	1626.9
812.6788	430.6166	2342.9	1548.3
812.8226	432.7928	2313.95	1515.85
812.9663	434.9683	2273.4	1475.25
813.1101	437.1432	2234.4	1435.05
813.2539	439.3176	2212.7	1416.4
813.3977	441.4914	2201.95	1406
813.5415	443.6645	2203.75	1408.4
813.6853	445.8371	2201.4	1403.9
813.8291	448.0091	2204.65	1407.25
813.973	450.1806	2197.2	1400.8
814.1168	452.3514	2192.9	1392.85
814.2607	454.5216	2207.9	1401.3
814.4046	456.6913	2194.2	1389.9
814.5485	458.8603	2200.8	1398.6
814.6924	461.0288	2206.1	1406.7
814.8363	463.1967	2194.2	1394.35
814.9802	465.3639	2208.2	1403.6
815.1241	467.5306	2190.95	1384.4
815.2681	469.6967	2187.7	1383.75
815.412	471.8622	2173.1	1370.7
815.556	474.0271	2179.55	1377.1
815.7	476.1914	2173.4	1363.5
815.844	478.3551	2163.9	1359.65
815.988	480.5182	2168.25	1364.6
816.132	482.6807	2174.85	1369.5
816.276	484.8426	2196.25	1392.8
816.4201	487.0039	2237.15	1432.35
816.5641	489.1647	2289.5	1480.45
816.7082	491.3248	2333.55	1525.1
816.8522	493.4843	2348.2	1540.8
816.9963	495.6432	2342.5	1534.15
817.1404	497.8015	2316.7	1502.95
817.2845	499.9592	2274.95	1461.4
817.4286	502.1163	2215.2	1400.05
817.5727	504.2728	2168.2	1352.4
817.7168	506.4287	2138.4	1329.3
817.861	508.5839	2130.85	1318.7
818.0051	510.7386	2117.25	1303.4
818.1493	512.8927	2136.25	1311.4
818.2935	515.0461	2151.2	1334.8
818.4377	517.199	2165.2	1348.35
818.5818	519.3512	2200.3	1381.7
818.726	521.5029	2273.25	1451.65
818.8703	523.6539	2330.1	1511.05
819.0145	525.8043	2343.8	1524
819.1587	527.9541	2284.65	1461.45
819.303	530.1033	2211.15	1391.95
819.4472	532.2519	2159.5	1340.35
819.5915	534.3999	2135.5	1313.95
819.7357	536.5472	2123.4	1300.15
819.88	538.694	2137.15	1316
820.0243	540.8401	2149.55	1325.65
820.1686	542.9856	2169.7	1341.25
820.3129	545.1305	2173.35	1344.85
820.4572	547.2748	2205.6	1377.4
820.6016	549.4185	2188.15	1357.3
820.7459	551.5615	2200.9	1374.3
820.8902	553.704	2228.35	1400.45
821.0346	555.8458	2255.95	1426.2
821.1789	557.987	2267.35	1441.55
821.3233	560.1276	2294.15	1465.05
821.4677	562.2675	2357.6	1530.4
821.6121	564.4069	2416.8	1588.1
821.7565	566.5456	2470.4	1644.65
821.9009	568.6837	2449.15	1619.95
822.0453	570.8212	2363.95	1539.05
822.1897	572.958	2285.8	1455.4
822.3342	575.0942	2216.6	1389.45
822.4786	577.2299	2195.35	1366.8
822.6231	579.3648	2153.05	1326.7
822.7675	581.4992	2136.55	1313.4
822.912	583.6329	2148.6	1326.05
823.0565	585.766	2188.2	1365.35
823.201	587.8985	2227.8	1399.95
823.3454	590.0304	2293.15	1448.6
823.4899	592.1616	2314.8	1479.85
823.6345	594.2922	2318.45	1485.35
823.779	596.4222	2262.7	1426.5
823.9235	598.5515	2217.5	1381.3
824.068	600.6802	2153.8	1318.15
824.2126	602.8083	2114.7	1277.9
824.3571	604.9358	2094.4	1256.55
824.5017	607.0626	2104.5	1268.05
824.6462	609.1888	2106.75	1267.75
824.7908	611.3144	2143.65	1301
824.9354	613.4393	2162.65	1322.1
825.08	615.5636	2230.35	1393.85
825.2246	617.6873	2284.3	1445.85
825.3692	619.8103	2304.9	1465.5
825.5138	621.9327	2301.5	1459.1
825.6584	624.0544	2264.55	1425.05
825.803	626.1756	2200	1360.65
825.9477	628.2961	2150.45	1307.9
826.0923	630.4159	2138.6	1294
826.237	632.5351	2132.45	1289.5
826.3816	634.6537	2117.65	1274.3
826.5263	636.7716	2103.65	1257.25
826.6709	638.8889	2105.95	1261.2
826.8156	641.0056	2112.35	1265.5
826.9603	643.1216	2113.6	1267.75
827.105	645.237	2126.3	1279.65
827.2497	647.3518	2097.55	1254.75
827.3944	649.4659	2071.45	1229.85
827.5391	651.5793	2049	1205.25
827.6838	653.6922	2034.85	1191.35
827.8285	655.8043	2029.5	1184.95
827.9733	657.9159	2015.95	1169.45
828.118	660.0268	2006.2	1156.8
828.2627	662.137	2000.95	1151.5
828.4075	664.2466	2006.3	1156.4
828.5522	666.3556	2007.5	1160.55
828.697	668.4639	1989.25	1138.5
828.8418	670.5716	1991.6	1143.85
828.9865	672.6786	1980.4	1130
829.1313	674.785	1972.9	1121.8
829.2761	676.8907	1967.25	1119.4
829.4209	678.9958	1971.4	1123.9
829.5657	681.1002	1978.1	1126.95
829.7105	683.204	1975.3	1119.45
829.8553	685.3072	1977.8	1123.2
830.0001	687.4097	1976.65	1124.55
830.1449	689.5115	1974.3	1122.05
830.2898	691.6127	1966.05	1113.45
830.4346	693.7132	1958.45	1106.6
830.5794	695.8131	1981.2	1117.7
830.7243	697.9123	1975.9	1119.4
830.8691	700.0109	1978.9	1124.8
831.014	702.1089	1987.9	1133.6
831.1588	704.2061	2002.9	1149.45
831.3037	706.3028	2020.65	1163.3
831.4486	708.3987	2047.15	1193.6
831.5935	710.4941	2056.45	1200.25
831.7383	712.5887	2064.8	1205.1
831.8832	714.6827	2065.45	1203.1
832.0281	716.7761	2051.45	1194.7
832.173	718.8688	2054	1195.7
832.3179	720.9608	2055.7	1194.75
832.4628	723.0522	2069.9	1206.5
832.6077	725.1429	2096.45	1237.7
832.7527	727.233	2138.5	1280.45
832.8976	729.3224	2212.4	1353.15
833.0425	731.4112	2250.55	1389.6
833.1874	733.4993	2256.05	1393.3
833.3324	735.5867	2213.55	1354.8
833.4773	737.6735	2139.75	1276.3
833.6222	739.7596	2081.4	1218.8
833.7672	741.845	2036.8	1175.3
833.9122	743.9298	2040.65	1174.85
834.0571	746.014	2040.7	1179.6
834.2021	748.0974	2052.55	1187.15
834.347	750.1802	2057.7	1193.35
834.492	752.2624	2031.45	1168.4
834.637	754.3439	2037.7	1169.6
834.782	756.4247	2042.95	1170.4
834.9269	758.5048	2045.65	1182.95
835.0719	760.5843	2058.05	1193.35
835.2169	762.6631	2084.65	1218.55
835.3619	764.7413	2151.85	1288.55
835.5069	766.8188	2240.3	1375.75
835.6519	768.8956	2328.7	1461.4
835.7969	770.9718	2377	1512.5
835.9419	773.0473	2365.5	1502.75
836.0869	775.1221	2333.65	1469.5
836.232	777.1962	2323.5	1459.1
836.377	779.2697	2384.85	1516.95
836.522	781.3426	2494.2	1613.1
836.667	783.4147	2551.65	1686
836.8121	785.4862	2539.3	1673.5
836.9571	787.557	2447.55	1579.4
837.1021	789.6271	2317.55	1450.9
837.2472	791.6966	2172.2	1303.5
837.3922	793.7654	2074	1203.45
837.5373	795.8335	2029.2	1162.1
837.6823	797.901	1997.55	1129.7
837.8274	799.9678	1985.8	1117.25
837.9724	802.0339	1972.6	1105.9
838.1175	804.0993	1992.4	1113.25
838.2626	806.1641	1986.5	1117.05
838.4076	808.2282	1958.55	1089.85
838.5527	810.2916	1946.8	1074.9
838.6978	812.3544	1931.1	1062.9
838.8428	814.4164	1921.4	1056.7
838.9879	816.4778	1929.15	1059.15
839.133	818.5385	1939.05	1068.35
839.2781	820.5986	1971.3	1103.75
839.4232	822.658	2029.7	1156.95
839.5682	824.7166	2092.15	1222.15
839.7133	826.7747	2185.2	1316.35
839.8584	828.832	2267.1	1395.5
840.0035	830.8886	2331.2	1456.9
840.1486	832.9446	2347.7	1474.15
840.2937	834.9999	2312.5	1440.8
840.4388	837.0545	2256	1380.05
840.5839	839.1085	2145.9	1273.9
840.729	841.1618	2084.3	1209.25
840.8741	843.2143	2026.2	1154.8
841.0192	845.2662	1986.5	1115.45
841.1643	847.3175	1965.65	1094.3
841.3095	849.368	1959.3	1085.5
841.4546	851.4179	1956.85	1085.15
841.5997	853.467	1957.35	1082.75
841.7448	855.5155	1962.75	1090.55
841.8899	857.5633	1963.55	1089.25
842.0351	859.6105	1952.75	1078.1
842.1802	861.6569	1941.65	1068.35
842.3253	863.7027	1933.65	1057.25
842.4704	865.7478	1916.55	1042
842.6156	867.7922	1908.15	1032.9
842.7607	869.8359	1897.05	1021.9
842.9058	871.8789	1901.2	1026
843.0509	873.9212	1918.2	1012.1
843.1961	875.9629	1900.1	1025
843.3412	878.0039	1909	1034.2
843.4863	880.0441	1933.45	1057.95
843.6315	882.0837	1953.6	1076
843.7766	884.1226	1978.55	1101.4
843.9218	886.1609	2006.55	1133.45
844.0669	888.1984	2060.8	1185.9
844.212	890.2352	2114.1	1238.8
844.3572	892.2714	2120.35	1239.85
844.5023	894.3069	2100.25	1222.3
844.6475	896.3416	2036.3	1159.3
844.7926	898.3757	1996.1	1118.25
844.9377	900.4091	1976.9	1097.95
845.0829	902.4418	1979.35	1097.1
845.228	904.4739	1998.35	1117.5
845.3732	906.5052	2009.85	1130.1
845.5183	908.5358	2000	1123.85
845.6635	910.5658	1974.15	1093.15
845.8086	912.595	1946.35	1068.3
845.9538	914.6236	1902.2	1025.2
846.0989	916.6515	1874.45	995.8
846.2441	918.6786	1864.55	985.1
846.3892	920.7051	1847	967.45
846.5344	922.7309	1841.25	961.25
846.6795	924.756	1840.4	962.55
846.8246	926.7804	1864.9	982.8
846.9698	928.8041	1866.2	983.85
847.1149	930.8272	1886.6	1006.05
847.2601	932.8495	1897.4	1016.55
847.4052	934.8711	1897.6	1018.35
847.5504	936.892	1913.85	1032.2
847.6955	938.9123	1923.65	1040.65
847.8407	940.9318	1957.9	1077.25
847.9858	942.9506	1959.2	1077.9
848.131	944.9688	1959.5	1080
848.2761	946.9862	1934.25	1053.1
848.4213	949.003	1891.9	1011.5
848.5664	951.019	1880.1	998.8
848.7115	953.0344	1858.85	977.2
848.8567	955.0491	1839.8	958.15
849.0018	957.063	1826.5	945.3
849.147	959.0763	1836.8	957.05
849.2921	961.0888	1833.5	951.2
849.4373	963.1007	1835.95	955.1
849.5824	965.1119	1815.5	935.65
849.7275	967.1223	1821.55	941.6
849.8727	969.1321	1804.75	924.1
850.0178	971.1412	1805.05	927.45
850.1629	973.1495	1798.9	917.45
850.3081	975.1572	1842	929.5
850.4532	977.1641	1798.45	915.6
850.5983	979.1704	1804.05	922.75
850.7435	981.1759	1807.8	919.65
850.8886	983.1808	1797.5	913.05
851.0337	985.1849	1795.65	901.95
851.1788	987.1884	1787.8	900.35
851.324	989.1911	1794.2	907.4
851.4691	991.1932	1798.55	914.8
851.6142	993.1945	1799.25	916.85
851.7593	995.1951	1799.35	917.25
851.9045	997.1951	1803.35	915.65
852.0496	999.1943	1788.35	904.35
852.1947	1001.1928	1801.95	917.25
852.3398	1003.1906	1793.6	910.75
852.4849	1005.1877	1832.45	945.8
852.63	1007.1841	1854.5	969.05
852.7751	1009.1798	1868.8	984.95
852.9202	1011.1748	1849.8	966.45
853.0653	1013.1691	1833.45	948.3
853.2104	1015.1627	1794.5	911.05
853.3555	1017.1556	1778.45	895.35
853.5006	1019.1477	1751.1	868.75
853.6457	1021.1392	1721.85	840.35
853.7908	1023.1299	1725.5	843.85
853.9359	1025.12	1724.15	845
854.081	1027.1093	1728.8	851.8
854.2261	1029.0979	1748.85	873.35
854.3712	1031.0859	1770.65	893.25
854.5163	1033.0731	1777.9	894.8
854.6613	1035.0596	1783.6	903.75
854.8064	1037.0454	1776.1	892.85
854.9515	1039.0304	1762.2	879.45
855.0965	1041.0148	1734.7	849
855.2416	1042.9985	1728.5	842.4
855.3867	1044.9814	1707.35	824.45
855.5317	1046.9636	1707.8	820.8
855.6768	1048.9452	1715.9	832.75
855.8219	1050.926	1733.35	849.05
855.9669	1052.9061	1751.05	866.35
856.112	1054.8855	1751.3	866.15
856.257	1056.8642	1753.05	867.85
856.4021	1058.8421	1747.7	858.35
856.5471	1060.8194	1758.45	874.95
856.6921	1062.7959	1741.95	856
856.8372	1064.7717	1748.85	862.85
856.9822	1066.7469	1743.95	856.05
857.1272	1068.7213	1754.75	864.35
857.2723	1070.695	1760.3	872.6
857.4173	1072.6679	1779.9	892.75
857.5623	1074.6402	1811.5	923.35
857.7073	1076.6117	1816.85	925.65
857.8523	1078.5826	1794.45	907.65
857.9973	1080.5527	1750.25	859.85
858.1423	1082.5221	1718.1	829.5
858.2873	1084.4908	1689.25	804.05
858.4323	1086.4587	1678.4	793.25
858.5773	1088.426	1677.85	790.15
858.7223	1090.3925	1675.1	784.8
858.8673	1092.3584	1680.5	794.8
859.0123	1094.3235	1683.25	797.4
859.1573	1096.2879	1698.15	812.4
859.3022	1098.2515	1723.35	834.55
859.4472	1100.2145	1752.45	865.45
859.5922	1102.1767	1793.3	905.65
859.7371	1104.1382	1839.25	952.5
859.8821	1106.099	1890.95	1004.05
860.027	1108.0591	1935.25	1047.8
860.172	1110.0185	1979.05	1091.3
860.3169	1111.9771	2017.5	1130.7
860.4619	1113.9351	2067.85	1180.75
860.6068	1115.8923	2119.85	1232.3
860.7517	1117.8488	2156.5	1268.3
860.8967	1119.8045	2104.55	1217.3
861.0416	1121.7596	1995.25	1107.2
861.1865	1123.7139	1897.75	1011.95
861.3314	1125.6675	1847.8	961.35
861.4763	1127.6204	1847.5	960.35
861.6212	1129.5726	1869.4	977.35
861.7661	1131.524	1855.15	971.3
861.911	1133.4748	1820.45	933.5
862.0559	1135.4248	1762.95	873
862.2008	1137.3741	1711.95	826.05
862.3457	1139.3226	1678.9	790.95
862.4905	1141.2705	1680.05	793.2
862.6354	1143.2176	1697.45	805.15
862.7803	1145.164	1709.7	822
862.9251	1147.1097	1702.2	813.9
863.07	1149.0546	1683.6	794.85
863.2148	1150.9989	1650.4	763.25
863.3597	1152.9424	1630	743.1
863.5045	1154.8852	1627.4	740.65
863.6493	1156.8272	1617.5	729.5
863.7942	1158.7686	1626.15	729.55
863.939	1160.7092	1616.4	725.5
864.0838	1162.6491	1613.4	723.25
864.2286	1164.5883	1632	745.65
864.3734	1166.5267	1651.85	763.1
864.5182	1168.4644	1668.5	779.55
864.663	1170.4014	1712.6	821.8
864.8078	1172.3377	1744.4	856.45
864.9526	1174.2732	1799.75	911.35
865.0974	1176.2081	1884.05	994.6
865.2421	1178.1421	2009.5	1115.5
865.3869	1180.0755	2132.3	1244.6
865.5317	1182.0082	2193.65	1305.7
865.6764	1183.9401	2168.75	1280.4
865.8212	1185.8713	2063	1178.45
865.9659	1187.8017	1941.85	1058.05
866.1106	1189.7315	1827.45	947.4
866.2554	1191.6605	1786.4	875.15
866.4001	1193.5888	1710.65	824.2
866.5448	1195.5163	1684.5	795.95
866.6895	1197.4432	1657.8	771.2
866.8342	1199.3693	1644.6	757
866.9789	1201.2947	1638.1	747.8
867.1236	1203.2193	1614.5	724.8
867.2683	1205.1432	1625.05	736.4
867.413	1207.0664	1612.5	724.6
867.5576	1208.9889	1628.25	737.7
867.7023	1210.9106	1621.7	733.45
867.847	1212.8316	1624.05	736.45
867.9916	1214.7519	1633.85	735.45
868.1363	1216.6715	1648.5	761.3
868.2809	1218.5903	1658.75	767.05
868.4255	1220.5084	1672.3	784.05
868.5701	1222.4257	1688.4	800.75
868.7148	1224.3424	1700.2	813.5
868.8594	1226.2583	1720.1	826.65
869.004	1228.1735	1746.85	854.8
869.1486	1230.0879	1793.3	902.65
869.2932	1232.0016	1837.95	948.3
869.4377	1233.9146	1863.75	974.3
869.5823	1235.8269	1887.75	999.55
869.7269	1237.7384	1885.9	995.2
869.8715	1239.6492	1892.4	1005.7
870.016	1241.5592	1908.45	1018.9
870.1606	1243.4686	1958.2	1067.45
870.3051	1245.3772	2033.45	1145.6
870.4496	1247.285	2117.75	1228.3
870.5941	1249.1922	2195.6	1303.75
870.7387	1251.0986	2271.8	1381.45
870.8832	1253.0042	2339.25	1449
871.0277	1254.9092	2433	1544
871.1722	1256.8134	2516.7	1630.65
871.3167	1258.7169	2587.5	1698.45
871.4611	1260.6196	2622.15	1731.75
871.6056	1262.5216	2635.85	1745.9
871.7501	1264.4229	2613.4	1725.25
871.8945	1266.3234	2586.3	1696.5
872.039	1268.2232	2542	1651.65
872.1834	1270.1223	2485.75	1595.85
872.3278	1272.0207	2441.7	1549.75
872.4723	1273.9183	2440.5	1544.6
872.6167	1275.8151	2433.35	1546.5
872.7611	1277.7113	2480.15	1590.25
872.9055	1279.6067	2568.65	1680.95
873.0499	1281.5014	2706.65	1813.85
873.1943	1283.3953	2880.9	1988.05
873.3386	1285.2885	3055.25	2167.9
873.483	1287.181	3193.3	2301.85
873.6274	1289.0727	3250.1	2361.25
873.7717	1290.9637	3187.35	2294.9
873.9161	1292.854	3102.35	2210.6
874.0604	1294.7435	2988.8	2099.35
874.2047	1296.6323	2892.8	2001.65
874.349	1298.5204	2799.3	1904.65
874.4933	1300.4077	2726.25	1836.25
874.6376	1302.2943	2664.2	1773.5
874.7819	1304.1802	2637.8	1749.3
874.9262	1306.0653	2600.75	1711.1
875.0705	1307.9497	2569.9	1679.05
875.2147	1309.8333	2523.4	1633.95
875.359	1311.7162	2483.4	1592.65
875.5032	1313.5984	2460.95	1566.55
875.6475	1315.4798	2443.35	1541.8
875.7917	1317.3605	2427.35	1531.45
875.9359	1319.2405	2431.75	1538.9
876.0801	1321.1197	2405.95	1514.15
876.2243	1322.9982	2352.65	1457.4
876.3685	1324.876	2259.75	1369.45
876.5127	1326.753	2174.15	1285.25
876.6569	1328.6293	2086.3	1195
876.801	1330.5048	2007.4	1113.55
876.9452	1332.3796	1932.6	1042.3
877.0893	1334.2537	1889.75	974.55
877.2335	1336.127	1841.3	951.85
877.3776	1337.9996	1813.95	922.7
877.5217	1339.8714	1790.1	895.5
877.6658	1341.7426	1817.8	882.6
877.8099	1343.6129	1762.65	870.05
877.954	1345.4826	1746.5	855.55
878.0981	1347.3515	1719.9	826.1
878.2422	1349.2196	1720.95	828.15
878.3862	1351.087	1710.9	819.4
878.5303	1352.9537	1701.4	811.8
878.6743	1354.8197	1710	819.15
878.8184	1356.6849	1718.35	827
878.9624	1358.5493	1737.15	845.15
879.1064	1360.4131	1757.6	866.55
879.2504	1362.276	1797.7	909.75
879.3944	1364.1383	1829.35	939.45
879.5384	1365.9998	1854.2	957.15
879.6823	1367.8606	1834.4	941.25
879.8263	1369.7206	1818.3	927.1
879.9702	1371.5799	1822.15	928.75
880.1142	1373.4384	1815.75	924.55
880.2581	1375.2962	1787.1	896.05
880.402	1377.1533	1740.25	849.1
880.5459	1379.0096	1681.4	791.4
880.6898	1380.8652	1659.2	771.35
880.8337	1382.7201	1622.1	732.55
880.9776	1384.5742	1594.4	702.45
881.1215	1386.4275	1578.5	685
881.2653	1388.2802	1550.75	658.7
881.4092	1390.132	1549.25	660.75
881.553	1391.9832	1534.75	642.2
881.6968	1393.8336	1526.35	634.9
881.8406	1395.6832	1524.35	629.8
881.9844	1397.5322	1518.3	626
882.1282	1399.3803	1508.95	614.95
882.272	1401.2278	1499.65	608.35
882.4158	1403.0745	1492.6	601.45
882.5595	1404.9204	1477.95	586.75
882.7033	1406.7656	1475	583.5
882.847	1408.6101	1471.85	579.75
882.9908	1410.4538	1469.7	578.2
883.1345	1412.2968	1474.7	585.35
883.2782	1414.139	1476.05	585.2
883.4219	1415.9805	1477.1	586.45
883.5656	1417.8213	1501.95	606.95
883.7092	1419.6613	1513.8	624.45
883.8529	1421.5006	1538.15	647.1
883.9965	1423.3391	1575.75	683.6
884.1402	1425.1769	1634.15	742.65
884.2838	1427.0139	1693.7	803.45
884.4274	1428.8502	1787.2	896.2
884.571	1430.6858	1844.45	951.3
884.7146	1432.5206	1872.05	982.35
884.8582	1434.3547	1870.3	978.5
885.0018	1436.188	1851.6	961.05
885.1453	1438.0206	1844.6	953.1
885.2889	1439.8524	1826.8	936.05
885.4324	1441.6835	1824.45	932.5
885.5759	1443.5139	1826.4	932.85
885.7194	1445.3435	1824.4	935.3
885.8629	1447.1724	1825.15	935.85
886.0064	1449.0005	1818.8	928.05
886.1499	1450.8279	1814.5	920.55
886.2933	1452.6545	1817.4	927.2
886.4368	1454.4804	1811.55	922.35
886.5802	1456.3056	1801.25	905.1
886.7237	1458.13	1782.15	894.65
886.8671	1459.9536	1764.4	874.1
887.0105	1461.7766	1730.6	839.25
887.1539	1463.5987	1682.4	789.25
887.2972	1465.4202	1648.45	758.35
887.4406	1467.2409	1612.7	721.6
887.584	1469.0608	1577.2	685.45
887.7273	1470.88	1542.15	648.8
887.8706	1472.6984	1516.35	624.65
888.0139	1474.5161	1503.9	610.75
888.1572	1476.3331	1478.9	590.8
888.3005	1478.1493	1475.7	584.7
888.4438	1479.9648	1475	582.55
888.5871	1481.7795	1470.85	579.45
888.7303	1483.5935	1468.9	577
888.8736	1485.4067	1467.8	575.9
889.0168	1487.2192	1475.45	582.45
889.16	1489.031	1479.25	588.25
889.3032	1490.842	1461.4	572.35
889.4464	1492.6522	1468.5	578.35
889.5896	1494.4618	1464.4	572.05
889.7327	1496.2705	1459	567.3
889.8759	1498.0785	1456.1	565.4
890.019	1499.8858	1446.7	556.5
890.1622	1501.6924	1441.6	551.8
890.3053	1503.4981	1439.3	548
890.4484	1505.3032	1423.75	534.65
890.5914	1507.1075	1426.95	533.5
890.7345	1508.911	1418.35	527.5
890.8776	1510.7138	1413.5	522.65
891.0206	1512.5159	1399.05	506.25
891.1637	1514.3172	1398.45	509.3
891.3067	1516.1178	1394.5	504.6
891.4497	1517.9176	1393.1	500.8
891.5927	1519.7166	1382.1	490.05
891.7357	1521.515	1388.5	492
891.8786	1523.3126	1365.45	472.35
892.0216	1525.1094	1374.5	480.9
892.1645	1526.9055	1361.6	471.2
892.3074	1528.7008	1361.85	472.15
892.4503	1530.4954	1360.75	464
892.5932	1532.2893	1359	469.65
892.7361	1534.0824	1352.05	456.95
892.879	1535.8747	1348.15	458.3
893.0218	1537.6663	1346.7	457.3
893.1647	1539.4572	1349.6	457.05
893.3075	1541.2473	1348.95	458.8
893.4503	1543.0367	1353.15	467.25
893.5931	1544.8253	1352.35	459.3
893.7359	1546.6132	1359.8	467.4
893.8787	1548.4003	1359.75	460.45
894.0214	1550.1867	1379.2	481.7
894.1642	1551.9723	1378.5	483.9
894.3069	1553.7572	1392.1	502.6
894.4496	1555.5414	1410.15	521.6
894.5923	1557.3247	1431.95	542.4
894.735	1559.1074	1465	578.35
894.8777	1560.8893	1515.05	626.85
895.0204	1562.6705	1535.45	649
895.163	1564.4509	1563.05	675.35
895.3056	1566.2305	1573.5	686.4
895.4482	1568.0094	1571.9	684.95
895.5908	1569.7876	1566.15	678.4
895.7334	1571.565	1566.85	678.15
895.876	1573.3417	1564.5	676.4
896.0186	1575.1176	1571	682.95
896.1611	1576.8928	1582.3	695.7
896.3036	1578.6672	1606.95	721.85
896.4461	1580.4409	1632.65	749.15
896.5886	1582.2138	1659.35	770.2
896.7311	1583.986	1692.3	804.1
896.8736	1585.7575	1731.25	845.95
897.0161	1587.5282	1766.6	882.5
897.1585	1589.2981	1785.2	899.45
897.3009	1591.0673	1799.5	913.25
897.4433	1592.8358	1812.25	926.7
897.5857	1594.6035	1815.95	925.95
897.7281	1596.3704	1800.95	912.85
897.8705	1598.1366	1790.2	904.7
898.0128	1599.9021	1762.95	876.15
898.1551	1601.6668	1744.45	856.55
898.2975	1603.4308	1736.45	846.55
898.4398	1605.194	1737.6	847.2
898.5821	1606.9564	1757.65	869.55
898.7243	1608.7182	1820.8	930.55
898.8666	1610.4791	1902.5	1020.1
899.0088	1612.2394	1983.85	1099.5
899.1511	1613.9988	2069.9	1184.9
899.2933	1615.7576	2143.95	1256.4
899.4355	1617.5156	2170.55	1276.9
899.5776	1619.2728	2140.1	1252.6
899.7198	1621.0293	2057	1170.5
899.862	1622.785	1949.85	1061.25
900.0041	1624.54	1827	939.5
900.1462	1626.2942	1720.6	834.45
900.2883	1628.0477	1628.05	738.25
900.4304	1629.8005	1554.9	665.5
900.5725	1631.5525	1487.85	602.7
900.7145	1633.3037	1446.9	563.35
900.8566	1635.0542	1398.95	517.4
900.9986	1636.804	1378.6	492.45
901.1406	1638.553	1406.9	459.1
901.2826	1640.3013	1335.15	449.35
901.4245	1642.0488	1310.25	423.15
901.5665	1643.7955	1297.85	415.35
901.7085	1645.5416	1295.95	410.25
901.8504	1647.2868	1284	399.1
901.9923	1649.0313	1275.8	389.75
902.1342	1650.7751	1269.4	380.3
902.2761	1652.5181	1270	386.4
902.4179	1654.2604	1263.75	376.25
902.5598	1656.0019	1269.25	384.8
902.7016	1657.7427	1282.25	397.3
902.8434	1659.4828	1305.3	419.75
902.9852	1661.222	1337.95	450.65
903.127	1662.9606	1364.9	478.3
903.2687	1664.6984	1392.35	506.05
903.4105	1666.4354	1393.2	505.65
903.5522	1668.1717	1364.3	476.35
903.6939	1669.9072	1327.95	441.3
903.8356	1671.642	1290.45	399.7
903.9773	1673.3761	1254.45	368.9
904.119	1675.1094	1231.75	345.55
904.2606	1676.8419	1209.95	325.1
904.4022	1678.5737	1198.15	312.55
904.5439	1680.3048	1187.8	300.15
904.6855	1682.0351	1182.05	294.1
904.827	1683.7646	1178.8	290.15
904.9686	1685.4934	1174.55	287.4
905.1101	1687.2215	1166.3	277.4
905.2517	1688.9488	1163.75	275.9
905.3932	1690.6754	1157.3	273.4
905.5347	1692.4012	1155.45	268.55
905.6761	1694.1263	1154.9	268.75
905.8176	1695.8506	1147.65	259.75
905.9591	1697.5742	1145.2	259.5
906.1005	1699.297	1143.25	256.95
906.2419	1701.0191	1145.3	261.2
906.3833	1702.7404	1143.35	258.2
906.5246	1704.461	1141.25	253.85
906.666	1706.1808	1136.85	249.15
906.8073	1707.8999	1131.5	245
906.9487	1709.6182	1134.95	250.25
907.09	1711.3358	1131.7	247.45
907.2313	1713.0527	1130.9	249.25
907.3725	1714.7688	1131.45	242.15
907.5138	1716.4841	1129.75	242.55
907.655	1718.1987	1131.9	240.8
907.7962	1719.9126	1123.2	238.15
907.9374	1721.6257	1126.2	238.65
908.0786	1723.338	1123.6	239.9
908.2198	1725.0496	1119.9	234.2
908.3609	1726.7605	1122.6	236.25
908.502	1728.4706	1113.75	228.25
908.6431	1730.18	1115.55	226.95
908.7842	1731.8886	1114.75	231.4
908.9253	1733.5964	1136.2	230.65
909.0664	1735.3036	1114.05	225.8
909.2074	1737.0099	1115.05	230.75
909.3484	1738.7156	1111.95	227.75
909.4894	1740.4204	1114.9	227.6
909.6304	1742.1246	1109.5	221.95
909.7714	1743.8279	1111.05	228
909.9123	1745.5306	1114.25	227.9
910.0532	1747.2325	1110.8	225.95
910.1941	1748.9336	1108.5	226.15
910.335	1750.634	1110.7	222.05
910.4759	1752.3336	1106.75	222
910.6168	1754.0325	1108.85	225
910.7576	1755.7307	1110.95	227.05
910.8984	1757.4281	1105.1	222.5
911.0392	1759.1247	1116.75	221.85
911.18	1760.8206	1112.55	221.6
911.3208	1762.5158	1111.6	219.7
911.4615	1764.2102	1110.55	225
911.6022	1765.9039	1101.8	217.65
911.7429	1767.5968	1107.85	222.8
911.8836	1769.289	1095.6	212.35
912.0243	1770.9804	1103.85	217.4
912.1649	1772.6711	1098.85	212.45
912.3056	1774.361	1103	216.1
912.4462	1776.0502	1104.95	218.75
912.5868	1777.7386	1107.75	217.45
912.7274	1779.4263	1100.35	214.55
912.8679	1781.1132	1095.8	210.8
913.0084	1782.7994	1093.25	207.2
913.149	1784.4849	1096.7	211.6
913.2895	1786.1696	1112.55	209.75
913.4299	1787.8535	1095.5	213.4
913.5704	1789.5367	1091.7	206.3
913.7108	1791.2192	1089.9	206.85
913.8513	1792.9009	1121.45	209.5
913.9917	1794.5818	1097.5	209.45
914.132	1796.2621	1091.8	206.75
914.2724	1797.9415	1094.7	208.15
914.4128	1799.6202	1088.9	204.7
914.5531	1801.2982	1089.45	204.55
914.6934	1802.9755	1093.2	206.1
914.8337	1804.6519	1088.75	205
914.9739	1806.3277	1089.55	206.5
915.1142	1808.0027	1085.45	202.9
915.2544	1809.6769	1087.55	204.15
915.3946	1811.3504	1081.2	196.05
915.5348	1813.0231	1080	197.15
915.675	1814.6951	1083.95	201.6
915.8151	1816.3664	1087.9	200.85
915.9553	1818.0369	1085.7	201.3
916.0954	1819.7067	1082.65	196.75
916.2355	1821.3757	1084	197.65
916.3755	1823.044	1084.3	199.15
916.5156	1824.7115	1082.9	194.95
916.6556	1826.3783	1084.05	200.55
916.7956	1828.0443	1082.7	197.35
916.9356	1829.7096	1076.7	191.05
917.0756	1831.3741	1084.15	197.75
917.2155	1833.0379	1078.2	194.05
917.3555	1834.701	1080.6	192.6
917.4954	1836.3633	1081.2	196.4
917.6353	1838.0248	1081.2	194.7
917.7751	1839.6856	1076.85	193.7
917.915	1841.3457	1077.95	193.3
918.0548	1843.005	1076.85	192.8
918.1946	1844.6636	1074.05	190.25
918.3344	1846.3214	1074.35	187.5
918.4742	1847.9785	1073.6	189.1
918.6139	1849.6349	1077.7	188.4
918.7537	1851.2904	1083.65	188.75
918.8934	1852.9453	1075.3	188.1
919.0331	1854.5994	1078.45	188.75
919.1727	1856.2528	1076.35	186.2
919.3124	1857.9054	1071.8	186.1
919.452	1859.5572	1068.5	185.5
919.5916	1861.2083	1070.8	183.05
919.7312	1862.8587	1075.7	191.1
919.8708	1864.5084	1071	185.45
920.0103	1866.1572	1069.2	184.1
920.1498	1867.8054	1066.7	179.7
920.2893	1869.4528	1070.05	184.75
920.4288	1871.0994	1070.45	182.8
920.5683	1872.7453	1070.1	185.4
920.7077	1874.3905	1072.45	177.95
920.8471	1876.0349	1068.35	183.55
920.9865	1877.6786	1068.8	180.95
921.1259	1879.3215	1063.15	178.05
921.2653	1880.9637	1067.4	181.7
921.4046	1882.6051	1063.6	179.45
921.5439	1884.2458	1067.35	179.55
921.6832	1885.8858	1067.95	183.25
921.8225	1887.525	1063.85	176.35
921.9617	1889.1634	1062.4	177.4
922.101	1890.8011	1063.15	175.55
922.2402	1892.4381	1055.15	169.05
922.3794	1894.0743	1063.15	178.45
922.5185	1895.7098	1064.9	180.05
922.6577	1897.3446	1064.45	179.65
922.7968	1898.9786	1062.2	173.3
922.9359	1900.6118	1057.2	173.35
923.075	1902.2443	1059	173.55
923.214	1903.8761	1058.8	172.5
923.3531	1905.5071	1061.85	174.95
923.4921	1907.1374	1059.05	171.3
923.6311	1908.7669	1058.7	174.25
923.77	1910.3957	1056.7	172.55
923.909	1912.0237	1053.4	166.3
924.0479	1913.651	1058.1	171.95
924.1868	1915.2776	1057.2	172
924.3257	1916.9034	1051.1	166.15
924.4646	1918.5285	1054.35	170.9
924.6034	1920.1528	1053.4	166.4
924.7422	1921.7764	1049.2	164.7
924.881	1923.3992	1050.4	167.35
925.0198	1925.0213	1055.15	169.9
925.1586	1926.6427	1047.15	163.85
925.2973	1928.2633	1262.85	168.9
925.436	1929.8832	1053.35	166.5
925.5747	1931.5023	1048.6	163.1
925.7134	1933.1207	1044.7	158.35
925.852	1934.7383	1051.6	167.15
925.9906	1936.3552	1044.75	157.95
926.1292	1937.9714	1048.8	164.15
926.2678	1939.5868	1046.9	160.95
926.4064	1941.2015	1046.35	158.8
926.5449	1942.8154	1050.25	165.6
926.6834	1944.4286	1047.35	160.55
926.8219	1946.041	1066.65	158.25
926.9604	1947.6528	1049	159.65
927.0988	1949.2637	1041.15	156.05
927.2372	1950.8739	1043.5	155.85
927.3756	1952.4834	1043.85	161
927.514	1954.0921	1043.05	159.2
927.6523	1955.7001	1046	158.65
927.7907	1957.3074	1039.7	156.8
927.929	1958.9139	1039.55	157.2
928.0673	1960.5197	1041.3	156.35
928.2055	1962.1247	1039.85	155.85
928.3438	1963.729	1037.2	154.45
928.482	1965.3325	1042.5	154.55
928.6202	1966.9353	1037.1	154.9
928.7584	1968.5374	1041.25	156.85
928.8965	1970.1387	1036.45	152.3
929.0346	1971.7393	1039.05	158
929.1727	1973.3392	1036.55	151.7
929.3108	1974.9383	1037.6	155.95
929.4489	1976.5366	1033.5	150.35
929.5869	1978.1342	1036.6	153.4
929.7249	1979.7311	1035.65	150.45
929.8629	1981.3273	1032.3	149.4
930.0009	1982.9227	1031.7	147.95
930.1388	1984.5173	1029.6	149.55
930.2767	1986.1112	1027.4	146.7
930.4146	1987.7044	1035.05	154.35
930.5525	1989.2968	1032.25	147.15
930.6904	1990.8885	1032.65	147.85
930.8282	1992.4795	1031.45	149.3
930.966	1994.0697	1030.45	148.6
931.1038	1995.6592	1033.1	150.2
931.2415	1997.2479	1029.3	146.45
931.3793	1998.8359	1029.65	146.2
931.517	2000.4232	1026.2	148.15
931.6547	2002.0097	1020.95	141.4
931.7923	2003.5955	1025.05	145.5
931.93	2005.1805	1030.4	147.05
932.0676	2006.7648	1027.25	147.6
932.2052	2008.3484	1028	146.1
932.3427	2009.9312	1025.5	142.75
932.4803	2011.5133	1022.85	144.45
932.6178	2013.0946	1022.35	140.6
932.7553	2014.6752	1026.05	146.95
932.8928	2016.2551	1027.1	143.85
933.0302	2017.8342	1025.65	145.45
933.1676	2019.4126	1019.35	139.85
933.305	2020.9902	1019.45	139.85
933.4424	2022.5672	1020.55	139.1
933.5798	2024.1433	1025.3	140.8
933.7171	2025.7188	1019.3	141.75
933.8544	2027.2935	1024.5	142
933.9917	2028.8674	1018.35	141.35
934.129	2030.4406	1021.55	143.1
934.2662	2032.0131	1019.6	140.3
934.4034	2033.5849	1023.35	141.15
934.5406	2035.1559	1020.3	139.6
934.6778	2036.7261	1020.1	140.1
934.8149	2038.2957	1016.75	136.95
934.952	2039.8645	1019.05	137.65
935.0891	2041.4325	1024.65	139.9
935.2262	2042.9998	1020.35	140.9
935.3632	2044.5664	1020.9	140.4
935.5002	2046.1323	1018.7	138.8
935.6372	2047.6974	1021.6	141.05
935.7742	2049.2617	1015	136.65
935.9111	2050.8254	1022.5	137.6
936.048	2052.3883	1025.5	142.3
936.1849	2053.9504	1018.3	136.2
936.3218	2055.5118	1019.7	137.65
936.4586	2057.0725	1023.05	136.95
936.5955	2058.6325	1015.85	136
936.7323	2060.1917	1014.4	132.2
936.869	2061.7502	1019.35	137.55
937.0058	2063.3079	1016.65	139.55
937.1425	2064.8649	1024.05	141.75
937.2792	2066.4212	1021.9	140.45
937.4159	2067.9767	1018.45	136.4
937.5525	2069.5315	1014.05	133.35
937.6891	2071.0856	1018.9	135.8
937.8257	2072.6389	1016.8	134.1
937.9623	2074.1915	1009.75	131.1
938.0989	2075.7433	1020.4	139.8
938.2354	2077.2945	1010.5	132.05
938.3719	2078.8448	1017.65	134.65
938.5084	2080.3945	1014.15	132.65
938.6448	2081.9434	1017.15	135.75
938.7812	2083.4916	1015.35	133.8
938.9176	2085.039	1017.75	136.2
939.054	2086.5857	1016.1	131.25
939.1903	2088.1317	1020.75	135.35
939.3267	2089.677	1018.9	133.35
939.463	2091.2215	1016	132.4
939.5992	2092.7652	1015.35	130.5
939.7355	2094.3083	1015.15	132.25
939.8717	2095.8506	1014.9	135.4
940.0079	2097.3921	1015.65	134.8
940.1441	2098.933	1010.75	128.3
940.2802	2100.4731	1012.65	131.75
940.4163	2102.0124	1033.45	134.4
940.5524	2103.5511	1013.6	131.1
940.6885	2105.089	1016.95	133.9
940.8245	2106.6261	1016.05	135.2
940.9606	2108.1626	1016.65	133.75
941.0965	2109.6983	1037.85	128.6
941.2325	2111.2332	1017.05	134.8
941.3684	2112.7675	1015.25	132.8
941.5044	2114.301	1021.65	138.6
941.6403	2115.8337	1016.05	133.35
941.7761	2117.3657	1013.2	130.75
941.912	2118.897	1010.5	127.3
942.0478	2120.4276	1021.3	133.55
942.1835	2121.9575	1015.25	133.85
942.3193	2123.4866	1028.65	132.7
942.455	2125.0149	1016.45	132.85
942.5907	2126.5426	1010.75	129.95
942.7264	2128.0695	1013.5	128.35
942.8621	2129.5956	1008.45	130.95
942.9977	2131.1211	1014.2	130.1
943.1333	2132.6458	1010.2	130.8
943.2689	2134.1698	1013.75	132.65
943.4044	2135.693	1016.2	132.8
943.54	2137.2155	1015.05	131.4
943.6755	2138.7373	1012.1	129.45
943.8109	2140.2584	1010.1	131.75
943.9464	2141.7787	1015.6	127.8
944.0818	2143.2983	1009.75	132.45
944.2172	2144.8171	1003.95	125.55
944.3526	2146.3353	1014.9	132.05
944.4879	2147.8527	1012.7	134.35
944.6232	2149.3693	1013.1	130.25
944.7585	2150.8853	1012.95	131.3
944.8938	2152.4005	1007.35	125.1
945.029	2153.9149	1009.25	127.6
945.1642	2155.4287	1009.35	127.05
945.2994	2156.9417	1006.05	123.8
945.4346	2158.454	1010.35	125.6
945.5697	2159.9655	1007.6	126.45
945.7048	2161.4764	1007.55	126.4
945.8399	2162.9865	1006.55	124.75
945.9749	2164.4958	1008.7	127.05
946.1099	2166.0045	1009.05	126.45
946.2449	2167.5124	1006.95	124.8
946.3799	2169.0195	1007.15	125.95
946.5148	2170.526	1010.25	128.25
946.6498	2172.0317	1005.95	125.4
946.7846	2173.5367	1004.55	121.3
946.9195	2175.0409	1001.45	122.7
947.0543	2176.5445	1004.55	124
947.1891	2178.0473	1007.3	125.2
947.3239	2179.5494	1012.45	127.95
947.4587	2181.0507	1005.7	125.1
947.5934	2182.5513	1004	123.25
947.7281	2184.0512	1006.1	123.65
947.8628	2185.5504	1002.2	119.8
947.9974	2187.0488	999.7	121.2
948.132	2188.5465	1006.35	125.9
948.2666	2190.0435	1002.05	123.75
948.4012	2191.5397	1003.4	123.95
948.5357	2193.0353	1002.65	121.55
948.6702	2194.5301	1004.1	121
948.8047	2196.0241	1001.9	118.35
948.9392	2197.5175	1005.4	125.45
949.0736	2199.0101	1006.8	120
949.208	2200.502	1001.55	120.95
949.3424	2201.9931	1000.2	120.45
949.4767	2203.4835	1001.7	119.4
949.611	2204.9733	1016.2	118.25
949.7453	2206.4622	996.95	116.25
949.8796	2207.9505	1003.05	120.85
950.0138	2209.438	996.8	117.25
950.148	2210.9248	999.45	117.6
950.2822	2212.4109	999.15	118.1
950.4164	2213.8962	1003.95	117.7
950.5505	2215.3809	1001.35	116.9
950.6846	2216.8648	1002.5	119.1
950.8186	2218.3479	1006.95	119.5
950.9527	2219.8304	1001.2	116.6
951.0867	2221.3121	1002.4	118.15
951.2207	2222.7931	996.45	115.2
951.3546	2224.2733	999.15	117.85
951.4886	2225.7529	997.1	115.45
951.6225	2227.2317	998.25	115.4
951.7563	2228.7098	993.35	111.95
951.8902	2230.1872	991.8	111.1
952.024	2231.6638	992.9	113.4
952.1578	2233.1397	995.6	110.5
952.2916	2234.6149	993.8	114.2
952.4253	2236.0894	997.2	116.7
952.559	2237.5632	1007.45	116.9
952.6927	2239.0362	995.3	115.35
952.8263	2240.5085	995.65	112.65
952.9599	2241.9801	991.1	111.25
953.0935	2243.4509	990.05	108.6
953.2271	2244.921	991.35	107.7
953.3606	2246.3904	996.65	111.85
953.4941	2247.8591	991.3	110.35
953.6276	2249.3271	990.7	108
953.7611	2250.7943	992.05	111.25
953.8945	2252.2608	990	106.75
954.0279	2253.7266	989.25	108.2
954.1612	2255.1917	990.65	109.7
954.2946	2256.656	989.3	106.05
954.4279	2258.1197	987.8	108.15
954.5612	2259.5826	991.85	109.55
954.6944	2261.0447	996.6	115.45
954.8276	2262.5062	986.9	103.9
954.9608	2263.9669	989.6	107.45
955.094	2265.4269	988.6	108.7
955.2271	2266.8862	988.45	106.1
955.3602	2268.3448	986.75	106.1
955.4933	2269.8026	988.55	107.6
955.6264	2271.2598	987.35	104.65
955.7594	2272.7162	985.6	107.6
955.8924	2274.1719	986.9	102.95
956.0253	2275.6268	985.6	102.4
956.1583	2277.0811	985.95	104.25
956.2912	2278.5346	988.1	107
956.4241	2279.9874	983.8	102.6
956.5569	2281.4395	984.1	104
956.6897	2282.8908	990.6	104.8
956.8225	2284.3414	988.15	105.85
956.9553	2285.7914	984.15	104.55
957.088	2287.2406	980.45	97.85
957.2207	2288.689	984.15	102.75
957.3534	2290.1368	986.4	102.45
957.486	2291.5838	986.8	101.6
957.6186	2293.0302	985.75	100.3
957.7512	2294.4758	982.55	102.35
957.8838	2295.9206	988.7	103
958.0163	2297.3648	984.05	102.3
958.1488	2298.8082	983.55	101.1
958.2813	2300.251	982.95	102.05
958.4137	2301.693	985.4	101.75
958.5461	2303.1343	985.55	104.45
958.6785	2304.5748	983.25	103.2
958.8108	2306.0147	979.7	96.6
958.9432	2307.4538	985.7	101.05
959.0754	2308.8922	981.1	103
959.2077	2310.3299	982.4	103.4
959.3399	2311.7669	978.3	97.05
959.4721	2313.2031	979.6	97.5
959.6043	2314.6387	981.6	100.65
959.7365	2316.0735	980.25	99.05
959.8686	2317.5076	980.35	96.75
960.0006	2318.941	982.2	100.7
960.1327	2320.3737	981	99.25
960.2647	2321.8056	985.55	104.85
960.3967	2323.2369	979.7	98.1
960.5287	2324.6674	986.35	103
960.6606	2326.0972	988.85	107.8
960.7925	2327.5263	989.95	109.7
960.9244	2328.9547	991.7	107.3
961.0562	2330.3823	987.9	106.05
961.1881	2331.8092	984.85	101.65
961.3198	2333.2355	985.05	102.55
961.4516	2334.661	981.45	96.85
961.5833	2336.0858	982.65	96.6
961.715	2337.5098	978.05	95.7
961.8467	2338.9332	979.25	97.45
961.9783	2340.3558	980.55	94.1
962.1099	2341.7778	977.55	96.3
962.2415	2343.199	976	92.6
962.373	2344.6195	976.25	94.4
962.5045	2346.0393	974.15	93.6
962.636	2347.4583	976.7	92.8
962.7675	2348.8767	980.8	98.25
962.8989	2350.2943	978.9	94.35
963.0303	2351.7113	978.4	97
963.1617	2353.1275	976.3	94.65
963.293	2354.543	998.6	93
963.4243	2355.9578	974.2	92.15
963.5556	2357.3718	977	94.5
963.6868	2358.7852	976.8	92.1
963.818	2360.1978	975.85	92.9
963.9492	2361.6098	970.3	88.05
964.0803	2363.021	977.75	91.05
964.2114	2364.4315	972.25	91.95
964.3425	2365.8413	980.05	90.5
964.4736	2367.2504	973.7	92.55
964.6046	2368.6587	971.45	89.8
964.7356	2370.0664	972.4	90.6
964.8666	2371.4733	969.85	86.55
964.9975	2372.8795	972.65	91
965.1284	2374.285	968.75	85.05
965.2593	2375.6899	972.25	91.65
965.3901	2377.0939	971.55	87.8
965.5209	2378.4973	972.85	91.55
965.6517	2379.9	973.6	88.8
965.7825	2381.3019	970.7	88.6
965.9132	2382.7032	970.95	89.5
966.0439	2384.1037	968.35	88.3
966.1745	2385.5035	968.35	87.65
966.3051	2386.9027	967.4	87.45
966.4357	2388.3011	973.6	87.55
966.5663	2389.6987	971.8	91.65
966.6968	2391.0957	973.45	91.55
966.8273	2392.492	965	83.45
966.9578	2393.8876	968.45	86.05
967.0882	2395.2824	969.25	86.9
967.2186	2396.6765	966.3	83.95
967.349	2398.07	968.5	84.4
967.4793	2399.4627	971.45	84.65
967.6097	2400.8547	966.95	82.8
967.7399	2402.246	973.5	83.45
967.8702	2403.6366	967.15	83.4
968.0004	2405.0265	963.85	82
968.1306	2406.4156	970.9	82.1
968.2607	2407.8041	970.15	83.75
968.3909	2409.1918	970.2	83.9
968.521	2410.5789	964.55	81.3
968.651	2411.9652	968.85	81.2
968.781	2413.3508	968.35	82.7
968.911	2414.7358	968.8	83.55
969.041	2416.12	966.4	83.85
969.1709	2417.5035	961.95	80.35
969.3008	2418.8863	967.65	83.05
969.4307	2420.2684	966.8	83.4
969.5606	2421.6497	969.4	85.1
969.6904	2423.0304	965.05	84.5
969.8201	2424.4104	963.2	77.8
969.9499	2425.7896	971.05	81.2
970.0796	2427.1682	961.9	77.85
970.2093	2428.546	964.3	81.45
970.3389	2429.9232	968.55	81.6
970.4685	2431.2996	960.55	77.55
970.5981	2432.6753	960.8	77.1
970.7277	2434.0503	962.45	80.05
970.8572	2435.4246	960.85	77.6
970.9867	2436.7982	964.95	80.35
971.1161	2438.1711	962.25	79.2
971.2456	2439.5433	962.2	77.8
971.375	2440.9148	961.6	77.85
971.5043	2442.2856	959.75	75.35
971.6336	2443.6557	957.85	73.2
971.7629	2445.025	960.05	77.7
971.8922	2446.3937	961.6	77.05
972.0214	2447.7617	961.9	79.2
972.1506	2449.1289	961.1	78.5
972.2798	2450.4955	959.85	74.6
972.4089	2451.8613	959.15	77.1
972.538	2453.2265	958.65	76.3
972.6671	2454.5909	958.7	75.65
972.7961	2455.9546	959.8	77.25
972.9251	2457.3177	958.8	75.95
973.0541	2458.68	961.5	75.35
973.1831	2460.0416	956.35	75
973.312	2461.4025	959.75	74.55
973.4408	2462.7627	967.7	73.65
973.5697	2464.1222	954.95	73.3
973.6985	2465.4811	956.55	71.55
973.8273	2466.8392	956.5	72.5
973.956	2468.1966	956.95	71.6
974.0847	2469.5533	960.55	74.55
974.2134	2470.9093	958.6	74.25
974.3421	2472.2645	960.6	76.5
974.4707	2473.6191	956.85	74.95
974.5993	2474.973	955.05	72.65
974.7278	2476.3262	956.5	72.7
974.8563	2477.6787	956.8	76.8
974.9848	2479.0305	955.6	74.15
975.1132	2480.3816	955.7	70.8
975.2417	2481.7319	953.75	70.1
975.37	2483.0816	957.4	74.45
975.4984	2484.4306	955.45	74.25
975.6267	2485.7789	954.7	74.5
975.755	2487.1264	958.4	75.1
975.8833	2488.4733	952.05	71.25
976.0115	2489.8195	962.4	72.1
976.1397	2491.165	959.9	77.55
976.2678	2492.5097	955	67.35
976.3959	2493.8538	955.55	71.65
976.524	2495.1972	952.85	70.3
976.6521	2496.5398	951.5	68
976.7801	2497.8818	954.75	72.35
976.9081	2499.2231	956.85	74.45
977.036	2500.5637	954.9	70.6
977.164	2501.9035	950.2	67.5
977.2918	2503.2427	954.8	69.05
977.4197	2504.5812	951.7	69.95
977.5475	2505.919	958.2	73.9
977.6753	2507.256	952.95	68.15
977.8031	2508.5924	951.45	70.8
977.9308	2509.9281	956.95	69.7
978.0585	2511.2631	952.65	71.2
978.1861	2512.5974	951.45	70.1
978.3137	2513.9309	951.1	68.35
978.4413	2515.2638	980.55	70.8
978.5689	2516.596	955.35	73.25
978.6964	2517.9275	951.3	66.5
978.8239	2519.2583	948.95	65.1
978.9513	2520.5884	950.15	66.6
979.0788	2521.9178	950.75	69.1
979.2062	2523.2465	949.2	67.65
979.3335	2524.5745	950.4	69.55
979.4608	2525.9018	950.85	68.05
979.5881	2527.2284	951.85	71.1
979.7154	2528.5543	948.05	66.05
979.8426	2529.8796	948.2	65.1
979.9698	2531.2041	948.45	65.8
980.0969	2532.5279	945.95	65.05
980.224	2533.851	949.25	67.3
980.3511	2535.1735	944.95	62.1
980.4781	2536.4952	948.35	62.5
980.6052	2537.8163	948	64.85
980.7321	2539.1366	947	65.45
980.8591	2540.4562	950.25	64.6
980.986	2541.7752	946.85	64.75
981.1129	2543.0935	945.9	62.2
981.2397	2544.411	946.75	64.95
981.3665	2545.7279	949.4	66.9
981.4933	2547.0441	946.15	62.5
981.62	2548.3596	949.8	64.9
981.7467	2549.6744	946.65	65.6
981.8734	2550.9885	951.9	61.2
982.0001	2552.3019	946.05	65.2
982.1267	2553.6146	947.2	65.1
982.2532	2554.9266	942.75	60.3
982.3798	2556.2379	944.8	60.95
982.5063	2557.5485	945.35	62.35
982.6327	2558.8585	949.05	59.8
982.7592	2560.1677	948.85	61
982.8856	2561.4762	942.75	62.15
983.0119	2562.7841	948.2	61.45
983.1383	2564.0913	941.7	60.5
983.2646	2565.3977	942.15	61.25
983.3908	2566.7035	946.5	64.15
983.517	2568.0086	948.05	63
983.6432	2569.313	948.3	64.75
983.7694	2570.6167	948.1	62
983.8955	2571.9197	946.1	64.8
984.0216	2573.222	950.5	63.35
984.1476	2574.5236	944.65	61.5
984.2737	2575.8246	946.7	61.4
984.3996	2577.1248	947.9	62.45
984.5256	2578.4244	942.3	59.4
984.6515	2579.7232	945.15	61.8
984.7774	2581.0214	976	58.95
984.9032	2582.3189	942.85	62.25
985.029	2583.6157	948.15	60.85
985.1548	2584.9118	944.1	62.55
985.2806	2586.2072	943.15	61.3
985.4063	2587.5019	942.8	60.8
985.5319	2588.7959	944.95	62.8
985.6576	2590.0893	946.2	60.8
985.7832	2591.3819	941.6	62.7
985.9087	2592.6739	944.65	61.35
986.0343	2593.9652	945.5	63.25
986.1597	2595.2557	943.9	59.65
986.2852	2596.5456	944.15	59.95
986.4106	2597.8348	942.35	62.2
986.536	2599.1234	941.85	61
986.6614	2600.4112	946	65.4
986.7867	2601.6983	945.65	60.2
986.912	2602.9848	942.75	58.6
987.0372	2604.2705	949.6	59.1
987.1624	2605.5556	945.65	62.3
987.2876	2606.84	943.3	62.2
987.4128	2608.1237	943.15	60.9
987.5379	2609.4067	941.7	59.75
987.6629	2610.689	949.85	58.1
987.788	2611.9707	944.7	59.05
987.913	2613.2516	945.15	60.55
988.0379	2614.5319	942.3	61.75
988.1629	2615.8115	941.4	58.95
988.2878	2617.0903	941.1	57.45
988.4126	2618.3685	940.8	57.95
988.5375	2619.6461	937.95	54.1
988.6622	2620.9229	938.4	55.9
988.787	2622.199	937.85	52.45
988.9117	2623.4745	940.55	59.3
989.0364	2624.7493	939.85	59.35
989.161	2626.0234	935.15	53.35
989.2857	2627.2968	936.85	53.4
989.4102	2628.5695	940.5	56.9
989.5348	2629.8415	937	55.05
989.6593	2631.1128	941.55	58.35
989.7837	2632.3835	938.3	56.55
989.9082	2633.6535	935.4	54.75
990.0326	2634.9228	939.1	56.85
990.1569	2636.1914	938.3	56.1
990.2812	2637.4593	944.4	55.65
990.4055	2638.7265	938	55.5
990.5298	2639.9931	936.1	54.6
990.654	2641.259	937.75	55.6
990.7782	2642.5242	936.9	57.2
990.9023	2643.7887	935.15	53.75
991.0264	2645.0525	936.4	54.7
991.1505	2646.3156	934.55	49.8
991.2745	2647.5781	934.9	50.7
991.3985	2648.8398	934.9	53.3
991.5225	2650.1009	946.2	54.8
991.6464	2651.3613	935.35	54.25
991.7703	2652.6211	933.6	51.35
991.8942	2653.8801	933.7	52.7
992.018	2655.1385	936	52.95
992.1418	2656.3961	935.1	53.25
992.2655	2657.6531	933.05	51.35
992.3892	2658.9094	935.35	52.05
992.5129	2660.1651	932.1	50.5
992.6366	2661.42	934.75	51.65
992.7602	2662.6743	934.35	51.4
992.8837	2663.9279	935.3	53.1
993.0073	2665.1808	934.35	53.55
993.1307	2666.433	938.35	55.8
993.2542	2667.6846	931.2	50.15
993.3776	2668.9354	935.25	49.65
993.501	2670.1856	936.3	54.95
993.6244	2671.4351	932.55	51.15
993.7477	2672.6839	935.4	53.75
993.8709	2673.9321	934.15	53.65
993.9942	2675.1795	935.5	53.7
994.1174	2676.4263	932.2	50.3
994.2405	2677.6724	937.7	55.9
994.3637	2678.9179	938.05	55.45
994.4868	2680.1626	935.35	55.5
994.6098	2681.4067	934.7	54.2
994.7328	2682.6501	935.05	52.85
994.8558	2683.8928	934.95	55.3
994.9788	2685.1348	932.45	52
995.1017	2686.3761	931.45	50.6
995.2245	2687.6168	933.55	51.7
995.3474	2688.8568	932.25	50.3
995.4702	2690.0961	930.45	51.7
995.5929	2691.3348	932.65	50.8
995.7156	2692.5727	934.05	53.75
995.8383	2693.81	934.9	51.15
995.961	2695.0466	930.2	50.85
996.0836	2696.2826	931.3	48.45
996.2062	2697.5178	933.95	50.55
996.3287	2698.7524	931.5	49.9
996.4512	2699.9863	934.25	50.4
996.5737	2701.2195	929	50.2
996.6961	2702.452	932.75	47.55
996.8185	2703.6839	933.35	51.05
996.9408	2704.9151	932.95	52.95
997.0631	2706.1456	931.45	50
997.1854	2707.3755	931.1	51
997.3077	2708.6046	937.95	55
997.4299	2709.8331	936.05	51.75
997.552	2711.0609	932.55	52.4
997.6742	2712.2881	936.85	54.55
997.7963	2713.5145	936.2	51.5
997.9183	2714.7403	935.1	55.2
998.0403	2715.9654	934.8	53.7
998.1623	2717.1899	950.15	54.4
998.2842	2718.4136	935.85	54.75
998.4062	2719.6367	936.95	57.05
998.528	2720.8591	944.3	55.6
998.6498	2722.0809	942.5	59.8
998.7716	2723.3019	944.25	60.25
998.8934	2724.5223	944.1	62.7
999.0151	2725.7421	943.2	62.75
999.1368	2726.9611	939.45	56.1
999.2584	2728.1795	941.45	57.05
999.38	2729.3972	937.85	56.15
999.5016	2730.6142	943.55	57.75
999.6231	2731.8306	935.5	53.2
999.7446	2733.0462	936.5	52.4
999.8661	2734.2612	937.35	49.9
999.9875	2735.4756	933.05	52.1
1000.1089	2736.6892	931.75	49.45
1000.2302	2737.9022	933.25	54.6
1000.3515	2739.1145	931.4	50.25
1000.4728	2740.3262	937.25	48.15
1000.594	2741.5372	929	47.1
1000.7152	2742.7475	929.75	47.7
1000.8363	2743.9571	926.35	45.25
1000.9575	2745.1661	933.5	47.4
1001.0785	2746.3744	926.1	43.3
1001.1996	2747.582	926.75	44.65
1001.3206	2748.7889	928.45	46
1001.4415	2749.9952	925.3	45.7
1001.5625	2751.2008	925.8	42.95
1001.6833	2752.4057	925.3	43.2
1001.8042	2753.61	925.75	46.6
1001.925	2754.8136	923.6	37.05
1002.0458	2756.0165	924.05	45.25
1002.1665	2757.2188	922.8	43.55
1002.2872	2758.4204	919.85	38.5
1002.4078	2759.6213	923.2	41.55
1002.5285	2760.8215	925.7	40.5
1002.649	2762.0211	923.9	40.85
1002.7696	2763.22	924.45	39.8
1002.8901	2764.4182	922.8	40.4
1003.0106	2765.6158	922.55	40.25
1003.131	2766.8127	920.95	37.55
1003.2514	2768.009	922.85	42.45
1003.3717	2769.2045	922.9	41.8
1003.492	2770.3994	922.05	37.25
1003.6123	2771.5936	920.95	38.65
1003.7325	2772.7872	919.75	40.6
1003.8527	2773.9801	922.65	40
1003.9729	2775.1723	938.05	40
1004.093	2776.3639	920.55	40.25
1004.2131	2777.5548	920.8	37.65
1004.3331	2778.745	919.95	37
1004.4531	2779.9346	916.65	35.35
1004.5731	2781.1235	920.3	39.05
1004.693	2782.3117	917.8	38.4
1004.8129	2783.4992	918.8	40.15
1004.9328	2784.6861	920.35	38.9
1005.0526	2785.8723	924.3	43.05
1005.1723	2787.0579	921.15	37.3
1005.2921	2788.2428	921.05	39.05
1005.4118	2789.427	916.65	34.55
1005.5314	2790.6106	920.6	39.95
1005.651	2791.7935	918.7	38
1005.7706	2792.9757	919.85	42.05
1005.8902	2794.1573	921.75	40.2
1006.0097	2795.3382	919.95	38.3
1006.1291	2796.5184	919.9	42.5
1006.2485	2797.698	921.35	40.6
1006.3679	2798.8769	921	39.9
1006.4873	2800.0551	921.7	40.05
1006.6066	2801.2327	925.35	42.4
1006.7258	2802.4096	923.1	42.4
1006.8451	2803.5859	921.6	41.75
1006.9642	2804.7615	921.5	40.5
1007.0834	2805.9364	921.05	40.7
1007.2025	2807.1106	924.6	44.3
1007.3216	2808.2842	926.45	43.65
1007.4406	2809.4572	925.9	44.2
1007.5596	2810.6294	929.55	47.35
1007.6785	2811.801	927.95	49.3
1007.7975	2812.972	929.6	50.15
1007.9163	2814.1423	929.5	48.65
1008.0352	2815.3119	935.4	54.25
1008.154	2816.4808	935.4	56.1
1008.2727	2817.6491	938.1	56.5
1008.3914	2818.8167	945.4	67.35
1008.5101	2819.9837	950.85	63.75
1008.6288	2821.15	950	69.65
1008.7474	2822.3157	953.85	74.35
1008.8659	2823.4807	960.7	79.55
1008.9844	2824.645	967.75	85.45
1009.1029	2825.8086	976.35	94.35
1009.2214	2826.9716	982.35	103.05
1009.3398	2828.134	990.5	110.9
1009.4581	2829.2957	993.7	114.9
1009.5764	2830.4567	997.5	117.35
1009.6947	2831.617	1006.7	126.4
1009.813	2832.7767	1008.05	130.65
1009.9312	2833.9358	1006.7	126.45
1010.0493	2835.0941	1008.95	127.05
1010.1675	2836.2519	1002.8	124.15
1010.2855	2837.4089	1000.65	117.9
1010.4036	2838.5653	997.6	118.15
1010.5216	2839.7211	991.2	110.65
1010.6396	2840.8761	990.85	104.8
1010.7575	2842.0306	988.7	110.8
1010.8754	2843.1843	990.4	111.25
1010.9932	2844.3374	990.45	109.7
1011.111	2845.4899	994	115.65
1011.2288	2846.6417	993.7	112.65
1011.3465	2847.7928	994.25	115.65
1011.4642	2848.9433	995.8	115.1
1011.5818	2850.0931	998.6	118.3
1011.6995	2851.2422	999.1	117.55
1011.817	2852.3907	999	118.55
1011.9345	2853.5385	1001.65	120.5
1012.052	2854.6857	1026.75	121
1012.1695	2855.8323	1001.25	121.55
1012.2869	2856.9781	1008	126.55
1012.4042	2858.1233	1007.65	127.9
1012.5216	2859.2679	1011.65	130.95
1012.6389	2860.4118	1018.4	139.9
1012.7561	2861.555	1025.8	143.8
1012.8733	2862.6976	1026.55	145.85
1012.9905	2863.8395	1026.25	147.7
1013.1076	2864.9808	1025.85	146.25
1013.2247	2866.1214	1024.8	145.05
1013.3417	2867.2614	1029.8	151
1013.4587	2868.4007	1029.45	148.1
1013.5757	2869.5393	1026.35	144.1
1013.6926	2870.6773	1034.9	151.65
1013.8095	2871.8146	1039.55	159.3
1013.9263	2872.9513	1036.95	154.15
1014.0431	2874.0874	1032.95	150.95
1014.1599	2875.2227	1044.5	165.2
1014.2766	2876.3574	1040.65	160.15
1014.3933	2877.4915	1044.45	166.25
1014.51	2878.6249	1046.1	166.45
1014.6266	2879.7577	1047.1	168
1014.7431	2880.8898	1061.45	169.85
1014.8596	2882.0212	1052.85	176.3
1014.9761	2883.152	1053.85	173.25
1015.0925	2884.2821	1056.45	175.4
1015.2089	2885.4116	1054.9	175.15
1015.3253	2886.5405	1056.6	176.2
1015.4416	2887.6686	1064.75	180.8
1015.5579	2888.7962	1058.9	180.85
1015.6741	2889.923	1060.4	180.35
1015.7903	2891.0493	1061	183.4
1015.9065	2892.1748	1056.2	176
1016.0226	2893.2997	1059.8	179.7
1016.1387	2894.424	1059.65	181.6
1016.2547	2895.5476	1061.3	182.05
1016.3707	2896.6706	1062.05	184.4
1016.4866	2897.7929	1058.5	178.8
1016.6025	2898.9145	1060.8	180.5
1016.7184	2900.0355	1062.05	182.9
1016.8342	2901.1559	1060.9	180.05
1016.95	2902.2756	1064.55	181.95
1017.0658	2903.3946	1062.25	181.6
1017.1815	2904.513	1063.05	181.6
1017.2971	2905.6308	1059.65	179.5
1017.4127	2906.7479	1059.6	178.95
1017.5283	2907.8643	1054.6	173.3
1017.6439	2908.9801	1059.9	179.4
1017.7594	2910.0953	1056.95	178.4
1017.8748	2911.2098	1057.75	175.1
1017.9902	2912.3236	1068.1	179.9
1018.1056	2913.4368	1060.75	177.45
1018.2209	2914.5494	1055.8	176.25
1018.3362	2915.6613	1066.4	181.65
1018.4515	2916.7725	1057.35	176.35
1018.5667	2917.8831	1046.5	164.75
1018.6819	2918.9931	1048.3	165.2
1018.797	2920.1024	1040.55	159.85
1018.9121	2921.211	1042.95	162.7
1019.0271	2922.319	1044.65	165.45
1019.1421	2923.4264	1040.45	160.1
1019.2571	2924.5331	1036.3	158.9
1019.372	2925.6391	1037.5	157.95
1019.4869	2926.7445	1035.85	157.1
1019.6017	2927.8493	1036.6	156.8
1019.7165	2928.9534	1041.45	160.45
1019.8313	2930.0569	1038	157.25
1019.946	2931.1597	1041.95	161.55
1020.0606	2932.2619	1041.25	161.3
1020.1753	2933.3634	1040.45	161.65
1020.2899	2934.4643	1054.85	168.2
1020.4044	2935.5645	1050	164.9
1020.5189	2936.6641	1050.5	166.7
1020.6334	2937.763	1047.55	168.45
1020.7478	2938.8613	1043.9	165.7
1020.8622	2939.959	1048.9	164.75
1020.9765	2941.056	1040.1	160.3
1021.0908	2942.1523	1036.85	153.55
1021.2051	2943.248	1027.65	146.85
1021.3193	2944.3431	1019.05	141.95
1021.4334	2945.4375	1010.7	129.25
1021.5476	2946.5313	1003.05	127.25
1021.6617	2947.6244	1003.1	123.6
1021.7757	2948.7169	995.15	115.9
1021.8897	2949.8087	986.4	106.7
1022.0037	2950.8999	982.25	103.05
1022.1176	2951.9904	974.8	96.2
1022.2315	2953.0803	970.9	89.5
1022.3453	2954.1696	968.1	88
1022.4591	2955.2582	963.95	85.8
1022.5728	2956.3462	965.5	86.45
1022.6865	2957.4335	963.1	81.15
1022.8002	2958.5202	965.8	83.05
1022.9138	2959.6062	960.7	80.1
1023.0274	2960.6916	959.35	81.9
1023.141	2961.7764	957.9	79.4
1023.2545	2962.8605	960.4	80.6
1023.3679	2963.9439	959	78.55
1023.4813	2965.0267	959.8	80.9
1023.5947	2966.1089	981.45	81
1023.708	2967.1905	958.8	81.3
1023.8213	2968.2714	957.35	77.85
1023.9346	2969.3516	960.3	80.7
1024.0478	2970.4312	967.4	78.7
1024.1609	2971.5102	954.25	74.9
1024.274	2972.5885	956.9	77.4
1024.3871	2973.6662	960.8	77.5
1024.5002	2974.7432	954.95	76.05
1024.6132	2975.8196	954.65	75.65
1024.7261	2976.8954	958.6	82
1024.839	2977.9705	956.6	75.7
1024.9519	2979.045	955.65	80
1025.0647	2980.1188	954.95	74.8
1025.1775	2981.192	955.15	76.4
1025.2902	2982.2645	955.65	76.25
1025.4029	2983.3364	954.55	75.15
1025.5156	2984.4077	952.75	72.45
1025.6282	2985.4783	956.45	69.65
1025.7407	2986.5483	945.6	66.8
1025.8532	2987.6177	943.6	64.45
1025.9657	2988.6864	942.05	62.2
1026.0782	2989.7545	943.6	62.3
1026.1906	2990.8219	939.65	62.25
1026.3029	2991.8887	938.15	56.3
1026.4152	2992.9548	935.6	53.8
1026.5275	2994.0204	929.85	51.85
1026.6397	2995.0852	925.65	47.3
1026.7519	2996.1495	927.25	46.25
1026.864	2997.2131	920.8	42.05
1026.9761	2998.276	921.3	40.1
1027.0882	2999.3383	919.9	41.3
1027.2002	3000.4	919.15	38.5
1027.3122	3001.4611	915.2	38.15
1027.4241	3002.5215	913.25	33.2
1027.536	3003.5812	914.25	35
1027.6478	3004.6404	909.85	32.5
1027.7596	3005.6989	913.8	34.15
1027.8714	3006.7567	911.8	33.7
1027.9831	3007.8139	941.8	29.4
1028.0947	3008.8705	909.65	30.9
1028.2064	3009.9264	911.5	28.7
1028.3179	3010.9818	909.1	29.1
1028.4295	3012.0364	906.6	27.55
1028.541	3013.0905	907.5	26.35
1028.6524	3014.1439	905.15	26.9
1028.7638	3015.1966	906.35	30.2
1028.8752	3016.2487	905.5	25.6
1028.9865	3017.3002	911.15	28.35
1029.0978	3018.3511	902.85	26.2
1029.209	3019.4013	906.1	26.65
1029.3202	3020.4509	903.05	24.3
1029.4314	3021.4998	903.6	23.35
1029.5425	3022.5481	903.8	25.35
1029.6535	3023.5958	902.55	24.9
1029.7645	3024.6428	908.3	27.25
1029.8755	3025.6892	901.3	24.75
1029.9864	3026.735	903	22.95
1030.0973	3027.7802	903.4	24.6
1030.2082	3028.8247	902.3	24.9
1030.319	3029.8685	905.5	26.35
1030.4297	3030.9118	905.3	26.95
1030.5404	3031.9544	902.2	23.2
1030.6511	3032.9963	904.25	24.4
1030.7617	3034.0376	904	24.2
1030.8723	3035.0783	904.4	22.55
1030.9829	3036.1184	906.1	25.75
1031.0934	3037.1578	903.6	25.95
1031.2038	3038.1966	904.2	25.2
1031.3142	3039.2348	901.55	26
1031.4246	3040.2723	913.4	26.25
1031.5349	3041.3092	902.2	22.9
1031.6452	3042.3455	903.35	24.95
1031.7554	3043.3811	903.65	22.35
1031.8656	3044.4161	902.7	23.2
1031.9758	3045.4505	902.05	22.85
1032.0859	3046.4842	905.65	26.4
1032.1959	3047.5173	906.5	28.6
1032.3059	3048.5498	905.85	28.05
1032.4159	3049.5816	904.45	25.1
1032.5258	3050.6128	904.1	23.3
1032.6357	3051.6434	904.7	25.45
1032.7455	3052.6734	904.8	24.85
1032.8553	3053.7027	903	23.6
1032.9651	3054.7314	902.3	22.6
1033.0748	3055.7594	902.1	22.5
1033.1845	3056.7868	905.75	25.55
1033.2941	3057.8136	904.1	24.7
1033.4037	3058.8398	905.5	26.1
1033.5132	3059.8653	904.75	23.65
1033.6227	3060.8902	904.75	27.25
1033.7321	3061.9145	902.15	24
1033.8415	3062.9381	905.5	27.55
1033.9509	3063.9612	919.35	24.1
1034.0602	3064.9835	907	29.5
1034.1694	3066.0053	905.65	25.6
1034.2787	3067.0264	905.9	27.2
1034.3878	3068.0469	907.75	27.05
1034.497	3069.0668	908	25
1034.6061	3070.086	906.8	28.45
1034.7151	3071.1046	904.45	26
1034.8241	3072.1226	904.9	26.45
1034.9331	3073.1399	905	26.5
1035.042	3074.1567	903.75	24.5
1035.1508	3075.1727	907.05	26.1
1035.2597	3076.1882	902.4	24.55
1035.3684	3077.203	904.75	25.5
1035.4772	3078.2173	902.2	23.9
1035.5859	3079.2308	902	20.5
1035.6945	3080.2438	902.95	23
1035.8031	3081.2561	897.45	20.3
1035.9117	3082.2678	896.7	19.2
1036.0202	3083.2789	898.35	21.45
1036.1286	3084.2893	898.55	18.4
1036.2371	3085.2991	899.7	21.2
1036.3454	3086.3083	903.25	20.55
1036.4538	3087.3169	901.25	22.95
1036.562	3088.3248	899.9	18.55
1036.6703	3089.3321	901.95	22.05
1036.7785	3090.3388	897.6	20.75
1036.8866	3091.3449	897.1	18.75
1036.9948	3092.3503	899.4	17.85
1037.1028	3093.3551	896.3	17.6
1037.2108	3094.3593	893.65	16.9
1037.3188	3095.3629	897.2	19.3
1037.4267	3096.3658	896.55	16.25
1037.5346	3097.3681	894.95	14.8
1037.6425	3098.3698	897.85	16.05
1037.7503	3099.3708	897.2	17.55
1037.858	3100.3713	894.7	16.9
1037.9657	3101.3711	895.3	16.5
1038.0734	3102.3702	1029.25	15.75
1038.181	3103.3688	897	16.95
1038.2886	3104.3667	891.8	13.65
1038.3961	3105.364	892.4	13.7
1038.5036	3106.3607	895.5	13.3
1038.611	3107.3568	898.65	19.35
1038.7184	3108.3522	893.3	15.75
1038.8257	3109.347	892.7	12.55
1038.933	3110.3412	897.55	13.35
1039.0403	3111.3348	894.4	16.75
1039.1475	3112.3277	892.95	13.9
1039.2547	3113.32	890.5	13.3
1039.3618	3114.3117	891.25	10
1039.4689	3115.3028	892.75	15.35
1039.5759	3116.2932	893.6	11.65
1039.6829	3117.2831	898.65	16.45
1039.7898	3118.2723	892.15	13.6
1039.8967	3119.2608	893.35	14.15
1040.0035	3120.2488	894.5	14.4
1040.1103	3121.2361	891.8	13.1
1040.2171	3122.2229	889.35	10.8
1040.3238	3123.209	890.45	10.3
1040.4305	3124.1944	890.85	13.45
1040.5371	3125.1793	892.05	13.6
1040.6437	3126.1635	888.4	11.5
1040.7502	3127.1471	890.65	11.6
1040.8567	3128.1301	888.55	9.15
1040.9631	3129.1125	889.25	9.9
1041.0695	3130.0942	889.8	11.65
1041.1759	3131.0753	898.05	9.7
1041.2822	3132.0558	893.05	12.4
1041.3884	3133.0357	889.95	12.1
1041.4946	3134.015	889.1	9.25
1041.6008	3134.9936	890.75	12
1041.7069	3135.9716	908.15	9.95
1041.813	3136.949	892.25	14.6
1041.919	3137.9258	907.15	10.35
1042.025	3138.902	894.55	9.75
1042.1309	3139.8775	888.5	9.8
1042.2368	3140.8524	885.85	7.5
1042.3427	3141.8267	890.5	9.55
1042.4485	3142.8004	890	12.15
1042.5542	3143.7735	895.5	10.7
1042.6599	3144.7459	891.25	11.1
1042.7656	3145.7178	887.5	11.05
1042.8712	3146.689	886.95	7.95
1042.9768	3147.6596	890.1	11.25
1043.0823	3148.6295	889.7	10.75
1043.1878	3149.5989	887.05	7.05
1043.2932	3150.5676	888.85	10.8
1043.3986	3151.5357	886.65	9.45
1043.5039	3152.5032	888.85	11.9
1043.6092	3153.4701	887.6	9.05
1043.7145	3154.4364	891.05	9.75
1043.8197	3155.402	887.8	11
1043.9248	3156.367	889.05	8.15
1044.03	3157.3315	932.2	7.4
1044.135	3158.2952	887.85	8.7
1044.24	3159.2584	885.75	7.3
1044.345	3160.221	886.7	6.05
1044.4499	3161.1829	887.2	6.9
1044.5548	3162.1442	887.75	10.1
1044.6596	3163.105	888.35	10.75
1044.7644	3164.065	889.75	13.15
1044.8692	3165.0245	891.95	10.5
1044.9739	3165.9834	885.8	8.55
1045.0785	3166.9416	887	10.2
1045.1831	3167.8993	887.6	8.7
1045.2877	3168.8563	888.45	9.9
1045.3922	3169.8127	886.35	11.05
1045.4966	3170.7684	887	7.15
1045.6011	3171.7236	888.7	9.05
1045.7054	3172.6782	887.65	10.05
1045.8098	3173.6321	888.35	8.9
1045.914	3174.5854	891.5	9
1046.0183	3175.5381	886.35	9.15
1046.1224	3176.4902	887.6	10
1046.2266	3177.4417	886.25	8.6
1046.3307	3178.3926	886.2	9.2
1046.4347	3179.3428	886.55	10.5
1046.5387	3180.2924	885.6	7.45
1046.6427	3181.2415	887.1	8.4
1046.7466	3182.1899	888.55	7.35
1046.8504	3183.1377	885.75	7.85
1046.9542	3184.0848	889.35	9.95
1047.058	3185.0314	885.65	6.8
1047.1617	3185.9773	885.45	7.5
1047.2654	3186.9227	886.2	6.7
1047.369	3187.8674	887.55	6.75
1047.4726	3188.8115	891.5	8.8
1047.5761	3189.755	886.45	7.8
1047.6796	3190.6979	886.15	7.95
1047.783	3191.6402	885.1	8.85
1047.8864	3192.5818	883.8	3.65
1047.9898	3193.5229	911.5	8.8
1048.0931	3194.4633	884.9	6.45
1048.1963	3195.4031	886.95	9.25
1048.2995	3196.3423	884.9	6.55
1048.4027	3197.2809	886.75	8.25
1048.5058	3198.2189	887.6	9.45
1048.6089	3199.1563	890.8	5.65
1048.7119	3200.0931	884	5.9
1048.8148	3201.0292	884.55	7.35
1048.9178	3201.9648	887.25	8.15
1049.0206	3202.8997	888.6	7.95
1049.1235	3203.834	885.6	6.1
1049.2262	3204.7677	886.85	9.3
1049.329	3205.7008	886.65	5.65
1049.4317	3206.6333	883.25	6.1
1049.5343	3207.5652	887.25	7.35
1049.6369	3208.4964	885.5	6.95
1049.7394	3209.4271	883.55	7.45
1049.8419	3210.3571	884.8	7.4
1049.9444	3211.2865	884.75	4.25
1050.0468	3212.2154	883.9	5.9
1050.1491	3213.1436	887.8	6.3
1050.2514	3214.0712	891.2	7.05
1050.3537	3214.9982	886.4	7.45
1050.4559	3215.9246	884.45	6.05
1050.5581	3216.8503	884	8.1
1050.6602	3217.7755	885.45	7.2
1050.7623	3218.7001	884.8	6.45
1050.8643	3219.624	883.55	5.45
1050.9663	3220.5473	884.75	7.35
1051.0682	3221.4701	885.65	7.25
1051.1701	3222.3922	888.65	8.35
1051.2719	3223.3137	883.2	6.15
1051.3737	3224.2346	883.35	6
1051.4754	3225.1549	883.2	4.95
1051.5771	3226.0746	883.7	5.3
1051.6788	3226.9937	884.2	5.1
1051.7804	3227.9121	884	8.2
1051.8819	3228.83	884.65	9.2
1051.9834	3229.7473	884.4	6.25
1052.0849	3230.6639	883.4	4.9
1052.1863	3231.5799	884.45	5.55
1052.2876	3232.4954	886.4	7.05
1052.3889	3233.4102	883.5	6.15
1052.4902	3234.3244	883.1	3.65
1052.5914	3235.238	884.6	6.85
1052.6926	3236.151	908.6	8.7
1052.7937	3237.0634	883.55	8.45
1052.8948	3237.9752	882.55	4.25
1052.9958	3238.8864	884.85	5.75
1053.0968	3239.797	883.4	3.35
1053.1977	3240.7069	885.1	6.55
1053.2986	3241.6163	886.25	7.35
1053.3994	3242.5251	882.95	5.55
1053.5002	3243.4332	882	4.95
1053.6009	3244.3408	882.85	4.9
1053.7016	3245.2477	884.45	5.9
1053.8022	3246.154	883.95	4.8
1053.9028	3247.0598	884.1	5
1054.0034	3247.9649	882.7	5.8
1054.1039	3248.8694	884.75	6.45
1054.2043	3249.7733	882.05	3.6
1054.3047	3250.6766	882.25	3.45
1054.4051	3251.5793	884	2.9
1054.5054	3252.4814	881.3	5.7
1054.6056	3253.3829	883.45	8.6
1054.7058	3254.2838	881.95	3.35
1054.806	3255.1841	881	3.5
1054.9061	3256.0838	883.8	5.15
1055.0061	3256.9829	882.4	4.5
1055.1062	3257.8814	882.85	4.6
1055.2061	3258.7792	888.2	10.15
1055.306	3259.6765	883.8	5.2
1055.4059	3260.5731	883.55	4.15
1055.5057	3261.4692	883.5	4.75
1055.6055	3262.3647	881.9	2.65
1055.7052	3263.2595	881	5
1055.8049	3264.1538	882.2	2.7
1055.9045	3265.0474	883.05	4.05
1056.0041	3265.9404	884.3	7.2
1056.1036	3266.8329	882.3	6.75
1056.2031	3267.7247	892.65	5.55
1056.3025	3268.616	881.55	3.85
1056.4019	3269.5066	881.25	0.95
1056.5013	3270.3966	882.95	3.05
1056.6005	3271.286	881.35	5.25
