Software Version:	3.9.2.0
Unit SN:	10000200
Spectrometer SN:	6960
Date:	3/8/2024 2:11:30 PM
Data Line Index:	25
Spectral Points:	2048
Integration time (ms):	125
Averages:	20
Delay (ms):	30000
Sequence Number:	1
Processing:	dark subtract
Laser Power (mW):	305
Laser Current (mA):	823
Laser Diode Temp (C):	25
Laser Case Temp (C):	26.3
System Temp (C):	26.3
Spectrometer Temp (C):	24.2
CCD Temp (C):	0.004
Secondary Temp (C):	20
Heatsink Temp (C):	21.277
CCDPCB Temp (C):	36.362
SecondaryPCB Temp (C):	32.138

Wavelength	RamanShift	Raw Counts	Dark Subtracted
787.061	30.1047	467.7	60.2
787.2016	32.3739	467.45	61.05
787.3422	34.6426	475.35	67.8
787.4828	36.9109	477.6	67.55
787.6235	39.1787	489.35	76
787.7642	41.4461	498.85	81.1
787.9049	43.7131	506.8	84.5
788.0456	45.9796	520	96.4
788.1863	48.2456	523.2	94.1
788.3271	50.5112	537.95	105.5
788.4679	52.7764	546.1	111.65
788.6087	55.0411	558.65	118.05
788.7496	57.3054	573.15	128.8
788.8904	59.5692	581.5	134.8
789.0313	61.8326	589.05	140.7
789.1722	64.0955	602.2	149.1
789.3132	66.3579	623.1	166.25
789.4541	68.6199	640.45	179.05
789.5951	70.8815	681.6	215.65
789.7361	73.1426	769.25	299.9
789.8771	75.4032	984	511.05
790.0181	77.6634	1508.6	1028.75
790.1592	79.9231	2776.85	2288.7
790.3003	82.1824	5500.65	4996.05
790.4414	84.4412	10436.45	9900.7
790.5825	86.6995	17222.4	16645.7
790.7237	88.9574	23819.05	23211.3
790.8648	91.2148	28358.1	27722.3
791.006	93.4717	30514.55	29866.4
791.1472	95.7282	31062.2	30410
791.2885	97.9842	31017.15	30355.2
791.4297	100.2398	30566	29905.15
791.571	102.4949	29998.4	29332.75
791.7123	104.7495	29324	28659.25
791.8536	107.0036	28539.2	27874.35
791.9949	109.2573	27764.2	27095.3
792.1363	111.5105	27091.7	26419.2
792.2777	113.7632	26407.05	25734.45
792.4191	116.0154	25802.85	25115.7
792.5605	118.2672	25380.25	24704.4
792.7019	120.5185	24924.95	24244.45
792.8434	122.7693	24578	23897.1
792.9849	125.0197	24342	23656.35
793.1264	127.2696	24051.9	23359.9
793.2679	129.519	23901.35	23206.85
793.4094	131.7679	23727.15	23028.95
793.551	134.0163	23620.75	22918.45
793.6926	136.2642	23432.9	22730.25
793.8342	138.5117	23290.65	22577.25
793.9758	140.7587	23047.15	22336.85
794.1175	143.0052	22906.55	22196.2
794.2591	145.2512	22653.95	21943.2
794.4008	147.4967	22484	21775.2
794.5425	149.7417	22333.8	21621.45
794.6842	151.9863	22226.15	21510.5
794.826	154.2304	22170.8	21444.8
794.9677	156.4739	22045.95	21315.4
795.1095	158.717	21985.55	21255.65
795.2513	160.9596	21862.55	21123.35
795.3931	163.2017	21661.75	20924.15
795.535	165.4433	21411.35	20672
795.6768	167.6844	21081.9	20346.05
795.8187	169.925	20783.75	20043.5
795.9606	172.1651	20391.05	19646.7
796.1025	174.4047	20159.75	19413.7
796.2445	176.6439	19879.45	19132.2
796.3864	178.8825	19661.9	18908.95
796.5284	181.1206	19504.75	18750.35
796.6704	183.3582	19351.15	18590.3
796.8124	185.5954	19271.35	18506.7
796.9544	187.832	19220.65	18456.45
797.0965	190.0681	19187.55	18418.75
797.2386	192.3037	19228.9	18458.6
797.3806	194.5388	19239.8	18459.6
797.5228	196.7734	19307.5	18532.45
797.6649	199.0075	19399.45	18620.65
797.807	201.2411	19568.45	18782.8
797.9492	203.4742	19645.05	18861.8
798.0914	205.7068	19815.95	19026.6
798.2336	207.9389	19917.65	19132.55
798.3758	210.1704	20083.05	19304.6
798.518	212.4015	20220.95	19451.45
798.6603	214.632	20417.7	19655.95
798.8025	216.862	20633.9	19870.2
798.9448	219.0915	20774.6	20007.25
799.0871	221.3205	21028.25	20255.85
799.2294	223.549	21304.15	20538.8
799.3718	225.777	21639.5	20873.7
799.5141	228.0044	22045.45	21273.05
799.6565	230.2314	22531.9	21756.95
799.7989	232.4578	22944	22171.35
799.9413	234.6837	23370.15	22585.5
800.0837	236.909	23604.15	22820.5
800.2262	239.1339	23613	22799.5
800.3687	241.3582	23406.15	22606.05
800.5111	243.582	23091.4	22259.85
800.6536	245.8053	22728	21913.95
800.7961	248.0281	22430.65	21624.2
800.9387	250.2503	22162.2	21352.05
801.0812	252.472	22038.3	21227.9
801.2238	254.6932	21974.95	21166.45
801.3664	256.9139	21899.2	21087.6
801.509	259.134	21906.25	21084.45
801.6516	261.3536	21866.05	21048
801.7942	263.5727	21971.7	21153
801.9369	265.7912	21891.9	21070.75
802.0795	268.0092	21895.9	21082.15
802.2222	270.2267	21878.15	21059
802.3649	272.4436	21856.95	21035.9
802.5076	274.6601	21785.9	20955.85
802.6504	276.8759	21750	20924.3
802.7931	279.0913	21754.9	20931.55
802.9359	281.3061	21758.65	20932.6
803.0787	283.5204	21853.15	21020.5
803.2215	285.7341	21924.9	21090.55
803.3643	287.9473	22136.95	21294.3
803.5071	290.16	22352.75	21518.3
803.6499	292.3721	22657.35	21825.55
803.7928	294.5837	23132.65	22298.6
803.9357	296.7947	23464.6	22630.45
804.0786	299.0052	23714.8	22882.05
804.2215	301.2152	23549.45	22710.8
804.3644	303.4246	23254.8	22419.8
804.5074	305.6334	22733.45	21901.85
804.6503	307.8418	22220.3	21383.25
804.7933	310.0495	21837.15	21000.75
804.9363	312.2568	21547.1	20705.7
805.0793	314.4635	21331.5	20490.85
805.2223	316.6696	21260.35	20413.6
805.3653	318.8752	21192.15	20337.45
805.5084	321.0802	21266.35	20415.55
805.6514	323.2847	21427.8	20576.3
805.7945	325.4887	21470.7	20622.55
805.9376	327.692	21441.65	20590
806.0807	329.8949	21346.7	20496.2
806.2238	332.0972	21112.8	20261.2
806.367	334.2989	20873.25	20017.75
806.5101	336.5001	20596.55	19741.45
806.6533	338.7007	20393.3	19539.4
806.7965	340.9008	20313.1	19453.3
806.9397	343.1003	20180.9	19323.2
807.0829	345.2992	20148.05	19289.5
807.2261	347.4976	20159.1	19295.15
807.3693	349.6955	20135.1	19271.5
807.5126	351.8927	20259.35	19393.15
807.6559	354.0895	20255.7	19374.95
807.7991	356.2856	20330.55	19458
807.9424	358.4812	20289.6	19422.6
808.0857	360.6763	20367	19493.85
808.2291	362.8707	20327.65	19454.45
808.3724	365.0646	20418.5	19544.5
808.5158	367.258	20407.05	19531.7
808.6591	369.4508	20475.65	19597.4
808.8025	371.643	20529.15	19646.95
808.9459	373.8346	20537.1	19654.85
809.0893	376.0257	20521.95	19639.7
809.2327	378.2162	20446.45	19572.6
809.3762	380.4062	20403.2	19526.15
809.5196	382.5956	20255.9	19378
809.6631	384.7844	20162.25	19297.9
809.8066	386.9726	20056.8	19189.25
809.9501	389.1603	20008.85	19140.95
810.0936	391.3474	20001.6	19103.75
810.2371	393.5339	20032.7	19157.95
810.3806	395.7199	19965.4	19091.85
810.5241	397.9052	19999.5	19127.75
810.6677	400.09	20042	19172.1
810.8113	402.2743	20100.5	19226.65
810.9548	404.4579	20194.25	19318.45
811.0984	406.641	20351.5	19475.1
811.2421	408.8235	20612.15	19737.3
811.3857	411.0054	20895.85	20014.75
811.5293	413.1868	21401.6	20516.25
811.673	415.3675	21720.45	20834.1
811.8166	417.5477	21964	21075.2
811.9603	419.7273	22026.4	21136.7
812.104	421.9064	21943.2	21053.3
812.2477	424.0848	21766.7	20885.4
812.3914	426.2627	21543	20657.7
812.5351	428.4399	21279.55	20388.65
812.6788	430.6166	20942.45	20047.95
812.8226	432.7928	20606.2	19711.75
812.9663	434.9683	20292.35	19401.25
813.1101	437.1432	20051.45	19161.25
813.2539	439.3176	19885.85	19003.95
813.3977	441.4914	19766.15	18887.15
813.5415	443.6645	19794.25	18911.15
813.6853	445.8371	19718.75	18830.45
813.8291	448.0091	19641.6	18751
813.973	450.1806	19605.45	18718.75
814.1168	452.3514	19583.3	18701.4
814.2607	454.5216	19612.05	18717.7
814.4046	456.6913	19528.8	18640.6
814.5485	458.8603	19576.45	18691.65
814.6924	461.0288	19669.85	18789.85
814.8363	463.1967	19691.35	18815.4
814.9802	465.3639	19837.45	18953.35
815.1241	467.5306	19931.05	19043
815.2681	469.6967	20081.95	19200.7
815.412	471.8622	20246.55	19366.35
815.556	474.0271	20420.05	19538.4
815.7	476.1914	20477.6	19587.6
815.844	478.3551	20491.75	19601.3
815.988	480.5182	20492.6	19605.75
816.132	482.6807	20477.05	19599.95
816.276	484.8426	20607.2	19736.8
816.4201	487.0039	20889.6	20013.9
816.5641	489.1647	21303.95	20415.05
816.7082	491.3248	21780.7	20889.5
816.8522	493.4843	21972.05	21089.1
816.9963	495.6432	21980.85	21096
817.1404	497.8015	21907.25	21010.25
817.2845	499.9592	21935.85	21034.1
817.4286	502.1163	21906.5	21002.3
817.5727	504.2728	21643.35	20751.65
817.7168	506.4287	21423.55	20546.1
817.861	508.5839	20951.25	20071
818.0051	510.7386	20659.4	19770.15
818.1493	512.8927	20489.8	19591.3
818.2935	515.0461	20402.35	19504.65
818.4377	517.199	20383.65	19482.35
818.5818	519.3512	20336.55	19434.2
818.726	521.5029	20454.45	19553.9
818.8703	523.6539	20508.8	19612.2
819.0145	525.8043	20577.9	19678.25
819.1587	527.9541	20609.35	19706.25
819.303	530.1033	20611.9	19712.55
819.4472	532.2519	20625.5	19725.3
819.5915	534.3999	20804.15	19899.65
819.7357	536.5472	21093.6	20194.3
819.88	538.694	21551.55	20656.95
820.0243	540.8401	22180.05	21278
820.1686	542.9856	22695.85	21783.8
820.3129	545.1305	22894.55	21978.4
820.4572	547.2748	22812.35	21886
820.6016	549.4185	22450.55	21529.2
820.7459	551.5615	22098.25	21178
820.8902	553.704	21988.35	21074.3
821.0346	555.8458	21890.95	20977.6
821.1789	557.987	21906.8	20996.2
821.3233	560.1276	21928.3	21016.4
821.4677	562.2675	21928.15	21013.3
821.6121	564.4069	21939.25	21025.45
821.7565	566.5456	21945.7	21032.3
821.9009	568.6837	21857.55	20948.25
822.0453	570.8212	21600.55	20693.4
822.1897	572.958	21296.7	20389.75
822.3342	575.0942	21031.9	20124.05
822.4786	577.2299	20870.6	19968.25
822.6231	579.3648	20805.75	19919.55
822.7675	581.4992	20873.95	19993.85
822.912	583.6329	21117.75	20240.95
823.0565	585.766	21355.95	20469.6
823.201	587.8985	21473	20583.4
823.3454	590.0304	21510.55	20593.85
823.4899	592.1616	21442.55	20527.7
823.6345	594.2922	21352.15	20437.25
823.779	596.4222	21225.2	20308.55
823.9235	598.5515	21069.35	20150.4
824.068	600.6802	20932.2	20013.15
824.2126	602.8083	20713.65	19798.45
824.3571	604.9358	20703.7	19787.5
824.5017	607.0626	20639	19715.85
824.6462	609.1888	20633	19704.15
824.7908	611.3144	20547.05	19623.05
824.9354	613.4393	20456.15	19530.45
825.08	615.5636	20353.8	19425.8
825.2246	617.6873	20293.4	19373.55
825.3692	619.8103	20231.85	19303.4
825.5138	621.9327	20149.45	19226.95
825.6584	624.0544	20121.8	19209.8
825.803	626.1756	20182.35	19264.3
825.9477	628.2961	20122.5	19200.05
826.0923	630.4159	20056.85	19130.8
826.237	632.5351	20060.85	19137.1
826.3816	634.6537	20011.95	19089.45
826.5263	636.7716	20028	19099.2
826.6709	638.8889	20047.1	19114.4
826.8156	641.0056	20114.65	19181.4
826.9603	643.1216	20094.2	19164.3
827.105	645.237	20163.9	19232.9
827.2497	647.3518	20109.35	19185.15
827.3944	649.4659	20164.95	19250.55
827.5391	651.5793	20184.55	19270.55
827.6838	653.6922	20191.6	19271.4
827.8285	655.8043	20163.65	19245.2
827.9733	657.9159	20203.3	19282.65
828.118	660.0268	20130.2	19210.2
828.2627	662.137	20074.8	19147.5
828.4075	664.2466	20094.55	19163.2
828.5522	666.3556	20059.95	19129.65
828.697	668.4639	20073.85	19153.3
828.8418	670.5716	20123.6	19204.9
828.9865	672.6786	20257.95	19334.4
829.1313	674.785	20276	19345.15
829.2761	676.8907	20337.45	19411.8
829.4209	678.9958	20442.85	19521.75
829.5657	681.1002	20418.95	19489.3
829.7105	683.204	20430.45	19493.2
829.8553	685.3072	20412	19471
830.0001	687.4097	20366.75	19435.05
830.1449	689.5115	20338.05	19401.8
830.2898	691.6127	20311.4	19382.7
830.4346	693.7132	20240.4	19318.05
830.5794	695.8131	20209.6	19258.75
830.7243	697.9123	20222.1	19286.25
830.8691	700.0109	20184.9	19243.75
831.014	702.1089	20205.9	19274.65
831.1588	704.2061	20230.6	19296.15
831.3037	706.3028	20274.95	19340.65
831.4486	708.3987	20327.25	19391.45
831.5935	710.4941	20406.5	19471.2
831.7383	712.5887	20616.4	19683.95
831.8832	714.6827	20926.65	19989.1
832.0281	716.7761	21306.6	20377.85
832.173	718.8688	21702.1	20768.95
832.3179	720.9608	21884.9	20941.65
832.4628	723.0522	21964.2	21019.9
832.6077	725.1429	21791.25	20847.9
832.7527	727.233	21478.55	20540
832.8976	729.3224	21309.8	20370.15
833.0425	731.4112	20979.7	20039.4
833.1874	733.4993	20765.95	19829.75
833.3324	735.5867	20618.7	19685.05
833.4773	737.6735	20557.3	19619.1
833.6222	739.7596	20487.4	19548.55
833.7672	741.845	20495	19558.95
833.9122	743.9298	20419.15	19485.85
834.0571	746.014	20434.65	19496.4
834.2021	748.0974	20467	19523.3
834.347	750.1802	20494.1	19550.15
834.492	752.2624	20474.55	19533.3
834.637	754.3439	20529.55	19582.05
834.782	756.4247	20591.8	19640.8
834.9269	758.5048	20686.05	19744.8
835.0719	760.5843	20927.35	19979
835.2169	762.6631	21229.45	20283.25
835.3619	764.7413	21649	20707.65
835.5069	766.8188	22240.1	21296.55
835.6519	768.8956	22699.15	21753.8
835.7969	770.9718	23040.15	22099.3
835.9419	773.0473	22858.9	21915.2
836.0869	775.1221	22567.25	21621
836.232	777.1962	22173.9	21228.15
836.377	779.2697	22035.95	21090.2
836.522	781.3426	22063.4	21100.95
836.667	783.4147	22303.25	21359.9
836.8121	785.4862	22674.3	21729.6
836.9571	787.557	22686.05	21737.95
837.1021	789.6271	22373.65	21422.65
837.2472	791.6966	21849	20904.25
837.3922	793.7654	21304.65	20357.85
837.5373	795.8335	21017.1	20072.45
837.6823	797.901	20833.05	19888.55
837.8274	799.9678	20820.85	19872.7
837.9724	802.0339	20833.1	19884.2
838.1175	804.0993	20882.5	19920.3
838.2626	806.1641	20919.95	19970.7
838.4076	808.2282	20873.85	19926.15
838.5527	810.2916	20823	19874.65
838.6978	812.3544	20694.85	19750.9
838.8428	814.4164	20617.45	19668.9
838.9879	816.4778	20653.65	19702.5
839.133	818.5385	20627.85	19675.65
839.2781	820.5986	20719.85	19767.45
839.4232	822.658	20818.5	19865.95
839.5682	824.7166	20912.1	19959.35
839.7133	826.7747	21183.45	20234.95
839.8584	828.832	21385.05	20433.4
840.0035	830.8886	21484.15	20529.4
840.1486	832.9446	21635.25	20684.5
840.2937	834.9999	21667.85	20717.4
840.4388	837.0545	21730.8	20775.35
840.5839	839.1085	21732.2	20782.6
840.729	841.1618	21716.9	20759.55
840.8741	843.2143	21709.55	20760.15
841.0192	845.2662	21606	20653.4
841.1643	847.3175	21566.3	20615.75
841.3095	849.368	21461.85	20508.5
841.4546	851.4179	21368.9	20419.65
841.5997	853.467	21202.95	20249.4
841.7448	855.5155	21178.4	20224.35
841.8899	857.5633	21099.1	20144.05
842.0351	859.6105	20956.3	19999.6
842.1802	861.6569	20904	19948.95
842.3253	863.7027	20875.05	19915.55
842.4704	865.7478	20913.45	19954
842.6156	867.7922	20917.05	19955.65
842.7607	869.8359	20981.15	20023.55
842.9058	871.8789	21074.75	20117.6
843.0509	873.9212	21290.5	20307.5
843.1961	875.9629	21409.35	20456.45
843.3412	878.0039	21588.5	20630.35
843.4863	880.0441	21741.9	20785.1
843.6315	882.0837	21749.45	20794.75
843.7766	884.1226	21703.15	20749.3
843.9218	886.1609	21606.5	20653.3
844.0669	888.1984	21523	20567.85
844.212	890.2352	21555.9	20600.15
844.3572	892.2714	21497.1	20533.9
844.5023	894.3069	21521.55	20567.55
844.6475	896.3416	21437.45	20483.55
844.7926	898.3757	21435.25	20479.95
844.9377	900.4091	21430.9	20473.05
845.0829	902.4418	21465.5	20503.2
845.228	904.4739	21462	20503.85
845.3732	906.5052	21502	20544.3
845.5183	908.5358	21374.35	20416.9
845.6635	910.5658	21215.35	20252.15
845.8086	912.595	21081.65	20122.55
845.9538	914.6236	20977.05	20019.9
846.0989	916.6515	20967.2	20008.3
846.2441	918.6786	20926	19963.9
846.3892	920.7051	21014.85	20054.35
846.5344	922.7309	21120.9	20160.95
846.6795	924.756	21200.75	20241.65
846.8246	926.7804	21305.8	20347.95
846.9698	928.8041	21228.25	20268.5
847.1149	930.8272	21295.25	20334.55
847.2601	932.8495	21214.95	20250.1
847.4052	934.8711	21136.3	20175.35
847.5504	936.892	20973.95	20013.15
847.6955	938.9123	20858.7	19899.05
847.8407	940.9318	20761.35	19804.2
847.9858	942.9506	20639.8	19680.75
848.131	944.9688	20528.75	19570.7
848.2761	946.9862	20449.75	19489.25
848.4213	949.003	20386.95	19426.75
848.5664	951.019	20382.8	19421.5
848.7115	953.0344	20413.95	19456.05
848.8567	955.0491	20457.5	19498.15
849.0018	957.063	20630.7	19671.75
849.147	959.0763	20775.9	19820.15
849.2921	961.0888	20783.9	19824.15
849.4373	963.1007	20827.2	19872.85
849.5824	965.1119	20872.35	19925.05
849.7275	967.1223	20929.75	19990.35
849.8727	969.1321	21016.65	20075.55
850.0178	971.1412	21009.05	20059.85
850.1629	973.1495	21028.85	20074
850.3081	975.1572	21131.25	20124.2
850.4532	977.1641	21175.8	20218.25
850.5983	979.1704	21092.5	20133.8
850.7435	981.1759	21125.9	20162.45
850.8886	983.1808	21182.4	20221.6
851.0337	985.1849	21295.1	20322.55
851.1788	987.1884	21396.25	20435.75
851.324	989.1911	21604.15	20646.2
851.4691	991.1932	21716.95	20759.9
851.6142	993.1945	21787.05	20829.8
851.7593	995.1951	21697.65	20742.3
851.9045	997.1951	21683.7	20717.4
852.0496	999.1943	21609.3	20649.9
852.1947	1001.1928	21519.15	20557.55
852.3398	1003.1906	21517.45	20561.75
852.4849	1005.1877	21581.7	20620.7
852.63	1007.1841	21551.35	20595
852.7751	1009.1798	21461.9	20502.6
852.9202	1011.1748	21241.85	20287.9
853.0653	1013.1691	21053.45	20092.35
853.2104	1015.1627	20857.1	19901.1
853.3555	1017.1556	20625.45	19670.75
853.5006	1019.1477	20541.35	19587.6
853.6457	1021.1392	20435.3	19489.35
853.7908	1023.1299	20427.7	19482.45
853.9359	1025.12	20421.65	19486.25
854.081	1027.1093	20418.95	19495.2
854.2261	1029.0979	20511.65	19587.25
854.3712	1031.0859	20564.95	19633.7
854.5163	1033.0731	20594.1	19653.9
854.6613	1035.0596	20509.15	19562.55
854.8064	1037.0454	20337.15	19384.75
854.9515	1039.0304	20239.05	19282.8
855.0965	1041.0148	20086.6	19135.15
855.2416	1042.9985	20005.75	19050.55
855.3867	1044.9814	19987.2	19033.5
855.5317	1046.9636	19895.4	18938
855.6768	1048.9452	19893.4	18944.5
855.8219	1050.926	19941	18986.15
855.9669	1052.9061	19909.2	18955.4
856.112	1054.8855	19899.75	18946.85
856.257	1056.8642	19971.9	19011.35
856.4021	1058.8421	20047.1	19087.85
856.5471	1060.8194	20041.65	19083.05
856.6921	1062.7959	20058.6	19098.8
856.8372	1064.7717	20094.4	19135.1
856.9822	1066.7469	20121.2	19163.95
857.1272	1068.7213	20108.35	19151.55
857.2723	1070.695	20084.35	19129.1
857.4173	1072.6679	20011.85	19052.95
857.5623	1074.6402	19994.15	19035.45
857.7073	1076.6117	19966.4	19004.5
857.8523	1078.5826	19987.1	19029.8
857.9973	1080.5527	19974.75	19015
858.1423	1082.5221	20086.1	19128.05
858.2873	1084.4908	20242.6	19285.95
858.4323	1086.4587	20461.05	19504.05
858.5773	1088.426	20602.4	19646.15
858.7223	1090.3925	20588.25	19625.2
858.8673	1092.3584	20552.35	19595.15
859.0123	1094.3235	20391.2	19437.45
859.1573	1096.2879	20299.8	19344.65
859.3022	1098.2515	20266.05	19315.6
859.4472	1100.2145	20383.65	19428.6
859.5922	1102.1767	20469.7	19512.7
859.7371	1104.1382	20580.45	19625.35
859.8821	1106.099	20766.3	19810.3
860.027	1108.0591	21002.1	20047.25
860.172	1110.0185	21122.65	20165.25
860.3169	1111.9771	21177.3	20223.65
860.4619	1113.9351	20935.6	19979.4
860.6068	1115.8923	20618	19662.7
860.7517	1117.8488	20319.4	19365.55
860.8967	1119.8045	20052.05	19098.8
861.0416	1121.7596	19908.4	18953.15
861.1865	1123.7139	19859.2	18909.45
861.3314	1125.6675	19870.15	18917.75
861.4763	1127.6204	19978	19020.65
861.6212	1129.5726	19934.5	18979.45
861.7661	1131.524	19915.9	18964.2
861.911	1133.4748	19930.05	18976.55
862.0559	1135.4248	19900.9	18945.4
862.2008	1137.3741	19871.2	18920.85
862.3457	1139.3226	19834.1	18879.25
862.4905	1141.2705	19833.15	18881.75
862.6354	1143.2176	19733.75	18775.3
862.7803	1145.164	19739.65	18787.05
862.9251	1147.1097	19733.3	18780.15
863.07	1149.0546	19720.95	18769.85
863.2148	1150.9989	19635.1	18680.4
863.3597	1152.9424	19550.35	18596.6
863.5045	1154.8852	19387.2	18435.85
863.6493	1156.8272	19264.85	18310.45
863.7942	1158.7686	19222.6	18264.4
863.939	1160.7092	19174.15	18220.65
864.0838	1162.6491	19091.75	18134.55
864.2286	1164.5883	19206.1	18254.05
864.3734	1166.5267	19278.65	18323.55
864.5182	1168.4644	19405.7	18452.45
864.663	1170.4014	19598.85	18643.25
864.8078	1172.3377	19860.1	18911.05
864.9526	1174.2732	20085.35	19138.4
865.0974	1176.2081	20323.8	19374.25
865.2421	1178.1421	20536	19579.1
865.3869	1180.0755	20743.55	19791.75
865.5317	1182.0082	20810.8	19857.95
865.6764	1183.9401	20832.9	19885.6
865.8212	1185.8713	20642.3	19699.85
865.9659	1187.8017	20417.6	19480.55
866.1106	1189.7315	20165.95	19239.55
866.2554	1191.6605	19887	18962.2
866.4001	1193.5888	19659.85	18728.15
866.5448	1195.5163	19522	18581.3
866.6895	1197.4432	19447.1	18497.95
866.8342	1199.3693	19359.65	18411.6
866.9789	1201.2947	19336.9	18381.85
867.1236	1203.2193	19301.6	18353.3
867.2683	1205.1432	19286.25	18336.15
867.413	1207.0664	19308.45	18359.95
867.5576	1208.9889	19306.65	18354.5
867.7023	1210.9106	19393.5	18442.35
867.847	1212.8316	19412.45	18463.1
867.9916	1214.7519	19482.8	18523.8
868.1363	1216.6715	19458.05	18506.7
868.2809	1218.5903	19441.75	18491.45
868.4255	1220.5084	19437.45	18491.35
868.5701	1222.4257	19431.2	18482.35
868.7148	1224.3424	19325.3	18378.85
868.8594	1226.2583	19382.35	18430.95
869.004	1228.1735	19475.55	18527.4
869.1486	1230.0879	19560.75	18608.85
869.2932	1232.0016	19671.6	18721.6
869.4377	1233.9146	19663.85	18713.05
869.5823	1235.8269	19578.75	18632.2
869.7269	1237.7384	19464.05	18514.8
869.8715	1239.6492	19249.25	18299.2
870.016	1241.5592	19147.55	18203.2
870.1606	1243.4686	19059.95	18112.25
870.3051	1245.3772	19015.85	18068.95
870.4496	1247.285	18973.4	18023.8
870.5941	1249.1922	18944.9	17997.05
870.7387	1251.0986	18994.35	18048.5
870.8832	1253.0042	18915.45	17971.4
871.0277	1254.9092	18974.9	18028.85
871.1722	1256.8134	19058.1	18113.15
871.3167	1258.7169	19187.6	18245.15
871.4611	1260.6196	19335.6	18390.8
871.6056	1262.5216	19515.55	18566.75
871.7501	1264.4229	19675.35	18732.5
871.8945	1266.3234	19787.4	18840.4
872.039	1268.2232	19858.5	18912.6
872.1834	1270.1223	19837	18888.65
872.3278	1272.0207	19832.65	18882.65
872.4723	1273.9183	19812.35	18860.4
872.6167	1275.8151	19748.85	18802.65
872.7611	1277.7113	19626.4	18682.15
872.9055	1279.6067	19516.35	18572.85
873.0499	1281.5014	19372.7	18424.55
873.1943	1283.3953	19341.75	18394.4
873.3386	1285.2885	19338.7	18395
873.483	1287.181	19354.7	18410.8
873.6274	1289.0727	19453.05	18511.65
873.7717	1290.9637	19486.45	18542.9
873.9161	1292.854	19620.65	18675.95
874.0604	1294.7435	19715.1	18770.2
874.2047	1296.6323	19924.95	18978.35
874.349	1298.5204	20154.8	19205.55
874.4933	1300.4077	20352.9	19404.8
874.6376	1302.2943	20513.65	19568.35
874.7819	1304.1802	20580.45	19638.65
874.9262	1306.0653	20446.15	19500.5
875.0705	1307.9497	20294.55	19352.05
875.2147	1309.8333	20138.95	19198.2
875.359	1311.7162	20014.95	19069.1
875.5032	1313.5984	20042.95	19094.65
875.6475	1315.4798	20075.1	19120
875.7917	1317.3605	20141.05	19178.45
875.9359	1319.2405	20212.9	19267.1
876.0801	1321.1197	20158.95	19212.45
876.2243	1322.9982	20041.35	19093.9
876.3685	1324.876	19976.4	19031.9
876.5127	1326.753	19886.95	18942.5
876.6569	1328.6293	19843	18895.7
876.801	1330.5048	19838.65	18890.4
876.9452	1332.3796	19800.05	18854.05
877.0893	1334.2537	19775.5	18807.6
877.2335	1336.127	19690.6	18745.15
877.3776	1337.9996	19650.55	18705.95
877.5217	1339.8714	19599.85	18654.6
877.6658	1341.7426	19556.45	18567.1
877.8099	1343.6129	19536.05	18589.2
877.954	1345.4826	19460.75	18514.05
878.0981	1347.3515	19438.15	18491.25
878.2422	1349.2196	19384.5	18437.65
878.3862	1351.087	19362.3	18415.85
878.5303	1352.9537	19408.25	18461.95
878.6743	1354.8197	19531.8	18585.8
878.8184	1356.6849	19685.25	18739.4
878.9624	1358.5493	19755.85	18809.35
879.1064	1360.4131	19780.35	18834.3
879.2504	1362.276	19721.15	18779.4
879.3944	1364.1383	19543.5	18599.75
879.5384	1365.9998	19272.35	18320.25
879.6823	1367.8606	18965.25	18019.55
879.8263	1369.7206	18693.05	17749.65
879.9702	1371.5799	18437.35	17491.35
880.1142	1373.4384	18272.95	17327.3
880.2581	1375.2962	18140.2	17194.1
880.402	1377.1533	17843.35	16902
880.5459	1379.0096	17541.95	16599.7
880.6898	1380.8652	17241.75	16302.5
880.8337	1382.7201	16963.9	16024.9
880.9776	1384.5742	16743.5	15801.7
881.1215	1386.4275	16547.15	15603.3
881.2653	1388.2802	16418.2	15472.35
881.4092	1390.132	16272.55	15327.5
881.553	1391.9832	16247.05	15300.75
881.6968	1393.8336	16097.15	15152.05
881.8406	1395.6832	16032.5	15088.55
881.9844	1397.5322	15950.8	15007.8
882.1282	1399.3803	15957.05	15009.7
882.272	1401.2278	15880.25	14939.7
882.4158	1403.0745	15869.9	14927.95
882.5595	1404.9204	15798.05	14855.85
882.7033	1406.7656	15813.9	14873.15
882.847	1408.6101	15784.45	14841.5
882.9908	1410.4538	15798.95	14856.05
883.1345	1412.2968	15808.85	14868.1
883.2782	1414.139	15815.1	14872.45
883.4219	1415.9805	15899.55	14956.45
883.5656	1417.8213	15915.9	14968.1
883.7092	1419.6613	16065	15125.85
883.8529	1421.5006	16214.6	15272.6
883.9965	1423.3391	16434.15	15492.9
884.1402	1425.1769	16716.95	15773.75
884.2838	1427.0139	17195.05	16252.6
884.4274	1428.8502	17762.25	16822.4
884.571	1430.6858	18323.25	17384.1
884.7146	1432.5206	18692.35	17751.15
884.8582	1434.3547	18936.6	17994.75
885.0018	1436.188	18897.8	17955.3
885.1453	1438.0206	18887.5	17944.9
885.2889	1439.8524	18702.05	17760.8
885.4324	1441.6835	18579.9	17639.5
885.5759	1443.5139	18506.9	17561.05
885.7194	1445.3435	18402	17464.25
885.8629	1447.1724	18366.35	17428.55
886.0064	1449.0005	18242.95	17307.5
886.1499	1450.8279	18144.2	17203.8
886.2933	1452.6545	18117.6	17178.2
886.4368	1454.4804	18118.95	17184.1
886.5802	1456.3056	18122.8	17177.45
886.7237	1458.13	18001.35	17064.05
886.8671	1459.9536	17778	16838.3
887.0105	1461.7766	17417.15	16476.45
887.1539	1463.5987	16997.65	16060.4
887.2972	1465.4202	16629.35	15690.5
887.4406	1467.2409	16246.3	15303.4
887.584	1469.0608	15992.1	15051.7
887.7273	1470.88	15750.05	14811.9
887.8706	1472.6984	15476.85	14537.4
888.0139	1474.5161	15210.85	14269.75
888.1572	1476.3331	15065.05	14130.8
888.3005	1478.1493	14928.15	13988.95
888.4438	1479.9648	14822.4	13883.5
888.5871	1481.7795	14738.75	13800.8
888.7303	1483.5935	14667.15	13727.75
888.8736	1485.4067	14598.05	13658
889.0168	1487.2192	14501.1	13561.05
889.16	1489.031	14503.9	13560.95
889.3032	1490.842	14396.85	13459.25
889.4464	1492.6522	14398.85	13459.85
889.5896	1494.4618	14323.9	13383.05
889.7327	1496.2705	14296.1	13359.15
889.8759	1498.0785	14230.85	13294.35
890.019	1499.8858	14224.95	13287.6
890.1622	1501.6924	14153.4	13216.75
890.3053	1503.4981	14122.5	13182.35
890.4484	1505.3032	14078.3	13141.65
890.5914	1507.1075	14059.9	13122.2
890.7345	1508.911	14025.8	13087.95
890.8776	1510.7138	13969.1	13033.5
891.0206	1512.5159	13906.85	12969.85
891.1637	1514.3172	13825.6	12889.3
891.3067	1516.1178	13729.25	12796.55
891.4497	1517.9176	13729.85	12792.35
891.5927	1519.7166	13691.5	12756.25
891.7357	1521.515	13632.3	12690.85
891.8786	1523.3126	13584.55	12648.65
892.0216	1525.1094	13547.15	12612.25
892.1645	1526.9055	13498.4	12561.85
892.3074	1528.7008	13438.25	12503.1
892.4503	1530.4954	13364.8	12431.3
892.5932	1532.2893	13382.45	12455.55
892.7361	1534.0824	13266.7	12332.85
892.879	1535.8747	13298.3	12370.55
893.0218	1537.6663	13219.85	12292.45
893.1647	1539.4572	13180.85	12250
893.3075	1541.2473	13180.3	12248.05
893.4503	1543.0367	13171.8	12240.25
893.5931	1544.8253	13144.8	12210.7
893.7359	1546.6132	13136.45	12199.85
893.8787	1548.4003	13087.2	12147.6
894.0214	1550.1867	13110.25	12175.2
894.1642	1551.9723	13113.45	12185.5
894.3069	1553.7572	13114.45	12185.15
894.4496	1555.5414	13133.2	12207.6
894.5923	1557.3247	13159.1	12234.8
894.735	1559.1074	13190.8	12270.3
894.8777	1560.8893	13245.05	12319.15
895.0204	1562.6705	13325.3	12402
895.163	1564.4509	13375.8	12453.3
895.3056	1566.2305	13375.1	12455.8
895.4482	1568.0094	13472.7	12554.35
895.5908	1569.7876	13503.25	12584.7
895.7334	1571.565	13524.05	12600.45
895.876	1573.3417	13566.95	12644.7
896.0186	1575.1176	13510	12590.7
896.1611	1576.8928	13433.35	12517.4
896.3036	1578.6672	13332.1	12421.75
896.4461	1580.4409	13240.35	12331.2
896.5886	1582.2138	13089.7	12172.95
896.7311	1583.986	12977.95	12057.6
896.8736	1585.7575	12925.05	12007.95
897.0161	1587.5282	12820.8	11905.4
897.1585	1589.2981	12790.25	11880
897.3009	1591.0673	12732.45	11821.55
897.4433	1592.8358	12708.65	11794.6
897.5857	1594.6035	12734.45	11818.25
897.7281	1596.3704	12720.6	11802.5
897.8705	1598.1366	12708.1	11792.85
898.0128	1599.9021	12745.65	11829.4
898.1551	1601.6668	12791.05	11873.8
898.2975	1603.4308	12845.75	11928.35
898.4398	1605.194	12938.95	12018.1
898.5821	1606.9564	12989.1	12083.65
898.7243	1608.7182	13092.85	12188.9
898.8666	1610.4791	13241.55	12345
899.0088	1612.2394	13361.15	12462.4
899.1511	1613.9988	13525.95	12623.5
899.2933	1615.7576	13732.85	12825.65
899.4355	1617.5156	13951.35	13030.7
899.5776	1619.2728	14144.55	13225.5
899.7198	1621.0293	14241.75	13325.45
899.862	1622.785	14299.65	13383.1
900.0041	1624.54	14167.15	13257
900.1462	1626.2942	14001.5	13094.75
900.2883	1628.0477	13733.3	12822.65
900.4304	1629.8005	13500.65	12590.7
900.5725	1631.5525	13266.65	12363.35
900.7145	1633.3037	13069.9	12163.45
900.8566	1635.0542	12950.3	12047.35
900.9986	1636.804	12801.8	11893.65
901.1406	1638.553	12787.65	11796.95
901.2826	1640.3013	12679.8	11770.2
901.4245	1642.0488	12615.15	11704.25
901.5665	1643.7955	12642.75	11737.8
901.7085	1645.5416	12662.9	11759.9
901.8504	1647.2868	12750.2	11845.9
901.9923	1649.0313	12814.6	11906.55
902.1342	1650.7751	12917.05	12006.15
902.2761	1652.5181	13064.8	12158.5
902.4179	1654.2604	13219.95	12316.35
902.5598	1656.0019	13501.05	12596.45
902.7016	1657.7427	13785.75	12879.15
902.8434	1659.4828	14094.6	13186.95
902.9852	1661.222	14263.65	13351.15
903.127	1662.9606	14267.55	13358.85
903.2687	1664.6984	14083.9	13172.4
903.4105	1666.4354	13702.35	12790.35
903.5522	1668.1717	13178.75	12266.15
903.6939	1669.9072	12684.95	11774.3
903.8356	1671.642	12246.7	11333.5
903.9773	1673.3761	11907.85	10996.8
904.119	1675.1094	11602.3	10694.65
904.2606	1676.8419	11364.6	10456.05
904.4022	1678.5737	11194.4	10284.2
904.5439	1680.3048	11041.7	10130.8
904.6855	1682.0351	10921.35	10013.2
904.827	1683.7646	10827.8	9918.4
904.9686	1685.4934	10745.8	9839.55
905.1101	1687.2215	10677.65	9768.45
905.2517	1688.9488	10579.65	9671.4
905.3932	1690.6754	10530.25	9625.3
905.5347	1692.4012	10473.55	9565.35
905.6761	1694.1263	10426.55	9517.75
905.8176	1695.8506	10390.1	9481.35
905.9591	1697.5742	10352.1	9447.65
906.1005	1699.297	10298.25	9396.95
906.2419	1701.0191	10221.1	9322.6
906.3833	1702.7404	10156.85	9255.85
906.5246	1704.461	10115.4	9206.65
906.666	1706.1808	10067.55	9162.9
906.8073	1707.8999	10038.7	9137.55
906.9487	1709.6182	9996.7	9097.3
907.09	1711.3358	9938.65	9041
907.2313	1713.0527	9947.75	9051.1
907.3725	1714.7688	9872.1	8968.45
907.5138	1716.4841	9825	8922.45
907.655	1718.1987	9834.6	8927
907.7962	1719.9126	9769.3	8872.25
907.9374	1721.6257	9737.6	8839.35
908.0786	1723.338	9703.8	8808.15
908.2198	1725.0496	9668.55	8765.6
908.3609	1726.7605	9644.25	8742.35
908.502	1728.4706	9588.55	8687.75
908.6431	1730.18	9531.1	8632.85
908.7842	1731.8886	9541.95	8647.95
908.9253	1733.5964	9523.85	8622.45
909.0664	1735.3036	9494.6	8593.35
909.2074	1737.0099	9449.25	8551.75
909.3484	1738.7156	9452.85	8557.75
909.4894	1740.4204	9363.65	8462.4
909.6304	1742.1246	9359.65	8458.2
909.7714	1743.8279	9349.95	8451.6
909.9123	1745.5306	9316.95	8420.75
910.0532	1747.2325	9272.65	8376.75
910.1941	1748.9336	9233.7	8335.7
910.335	1750.634	9197.35	8294.25
910.4759	1752.3336	9164.3	8265.65
910.6168	1754.0325	9162.75	8268.25
910.7576	1755.7307	9146.95	8251.35
910.8984	1757.4281	9152.05	8255.1
911.0392	1759.1247	9123.8	8216.65
911.18	1760.8206	9113.4	8204.25
911.3208	1762.5158	9090.35	8183.55
911.4615	1764.2102	9056.35	8157.3
911.6022	1765.9039	9002.5	8103.25
911.7429	1767.5968	8993.2	8098.35
911.8836	1769.289	8936.7	8040.9
912.0243	1770.9804	8920.35	8020.65
912.1649	1772.6711	8928.5	8028.25
912.3056	1774.361	8903.9	8001.25
912.4462	1776.0502	8868.65	7968.95
912.5868	1777.7386	8841.55	7937.5
912.7274	1779.4263	8825.45	7927.5
912.8679	1781.1132	8786.4	7892.7
913.0084	1782.7994	8771.1	7876.8
913.149	1784.4849	8743.55	7853.05
913.2895	1786.1696	8740.7	7840.35
913.4299	1787.8535	8726.7	7836.45
913.5704	1789.5367	8693.4	7802.2
913.7108	1791.2192	8710.05	7816.6
913.8513	1792.9009	8678.2	7756.55
913.9917	1794.5818	8632.45	7731.05
914.132	1796.2621	8589.2	7692.1
914.2724	1797.9415	8601.8	7703.85
914.4128	1799.6202	8551	7653.3
914.5531	1801.2982	8544.85	7646.65
914.6934	1802.9755	8522.15	7620.4
914.8337	1804.6519	8511.75	7615.65
914.9739	1806.3277	8457.15	7559.85
915.1142	1808.0027	8415.15	7520.9
915.2544	1809.6769	8422.65	7530.35
915.3946	1811.3504	8410.6	7520
915.5348	1813.0231	8386.25	7494.85
915.675	1814.6951	8377.3	7484.1
915.8151	1816.3664	8373.45	7476.7
915.9553	1818.0369	8347.05	7448.05
916.0954	1819.7067	8313.3	7418.05
916.2355	1821.3757	8285.25	7385.4
916.3755	1823.044	8292	7392.2
916.5156	1824.7115	8271.5	7374.35
916.6556	1826.3783	8240.95	7346.3
916.7956	1828.0443	8223.5	7328
916.9356	1829.7096	8211.95	7314.4
917.0756	1831.3741	8182.45	7286.6
917.2155	1833.0379	8152.85	7260.2
917.3555	1834.701	8141.95	7249.8
917.4954	1836.3633	8129.1	7237.2
917.6353	1838.0248	8095.35	7200.4
917.7751	1839.6856	8102.1	7206.85
917.915	1841.3457	8102.35	7206.95
918.0548	1843.005	8056.4	7161.6
918.1946	1844.6636	8049.4	7152.9
918.3344	1846.3214	8015.85	7120.25
918.4742	1847.9785	8008.5	7113.2
918.6139	1849.6349	7972.7	7075.85
918.7537	1851.2904	7969.7	7062.55
918.8934	1852.9453	7952.15	7052.9
919.0331	1854.5994	7914.25	7014.45
919.1727	1856.2528	7942.05	7041.8
919.3124	1857.9054	7918	7021.4
919.452	1859.5572	7896.85	7003.1
919.5916	1861.2083	7888.2	6992.25
919.7312	1862.8587	7895.65	6994.85
919.8708	1864.5084	7866.55	6966.95
920.0103	1866.1572	7832.55	6932.35
920.1498	1867.8054	7791	6890.2
920.2893	1869.4528	7780.5	6879.5
920.4288	1871.0994	7772.95	6872.7
920.5683	1872.7453	7753	6855.4
920.7077	1874.3905	7763.25	6848.5
920.8471	1876.0349	7715.55	6817.2
920.9865	1877.6786	7708.2	6810.45
921.1259	1879.3215	7663.7	6767
921.2653	1880.9637	7655.4	6758.4
921.4046	1882.6051	7635.55	6739.45
921.5439	1884.2458	7635.1	6739.3
921.6832	1885.8858	7595.15	6700.4
921.8225	1887.525	7576.4	6679.65
921.9617	1889.1634	7557.65	6660
922.101	1890.8011	7522.35	6623.05
922.2402	1892.4381	7509.75	6610.4
922.3794	1894.0743	7508.05	6611.6
922.5185	1895.7098	7482.8	6587.3
922.6577	1897.3446	7465	6566.5
922.7968	1898.9786	7462.75	6562.15
922.9359	1900.6118	7460.65	6567.3
923.075	1902.2443	7394.65	6498.15
923.214	1903.8761	7390.65	6495.55
923.3531	1905.5071	7351.45	6454.2
923.4921	1907.1374	7336.6	6441.55
923.6311	1908.7669	7319.5	6427.1
923.77	1910.3957	7300.4	6407.4
923.909	1912.0237	7269.35	6377.1
924.0479	1913.651	7241	6344.7
924.1868	1915.2776	7239.45	6345.4
924.3257	1916.9034	7194.2	6303.9
924.4646	1918.5285	7186.1	6293.75
924.6034	1920.1528	7140.3	6245.85
924.7422	1921.7764	7150.4	6254.35
924.881	1923.3992	7096.3	6201.95
925.0198	1925.0213	7074.1	6178.35
925.1586	1926.6427	7053.4	6160.7
925.2973	1928.2633	7124.95	6127.8
925.436	1929.8832	7035.55	6139.75
925.5747	1931.5023	6996.25	6102.5
925.7134	1933.1207	6977.45	6080.65
925.852	1934.7383	6952.25	6056.7
925.9906	1936.3552	6927.5	6034.4
926.1292	1937.9714	6905.25	6012.05
926.2678	1939.5868	6878.75	5984.5
926.4064	1941.2015	6864.65	5967.15
926.5449	1942.8154	6845	5946.55
926.6834	1944.4286	6815.1	5918.55
926.8219	1946.041	6800.4	5877.7
926.9604	1947.6528	6751.9	5850.85
927.0988	1949.2637	6736.55	5843.4
927.2372	1950.8739	6706.45	5811.7
927.3756	1952.4834	6692.6	5798.25
927.514	1954.0921	6685.8	5790.6
927.6523	1955.7001	6659.05	5762.6
927.7907	1957.3074	6640.5	5751.25
927.929	1958.9139	6604.6	5715.2
928.0673	1960.5197	6604.85	5712.2
928.2055	1962.1247	6580	5688.4
928.3438	1963.729	6551.15	5662.1
928.482	1965.3325	6521.1	5628.7
928.6202	1966.9353	6511.3	5625.65
928.7584	1968.5374	6475.95	5585.8
928.8965	1970.1387	6465.05	5576.65
929.0346	1971.7393	6422.25	5533.65
929.1727	1973.3392	6418.1	5531.35
929.3108	1974.9383	6401.75	5513.35
929.4489	1976.5366	6373.1	5484.35
929.5869	1978.1342	6359.55	5474.65
929.7249	1979.7311	6335.05	5446
929.8629	1981.3273	6328.25	5441.35
930.0009	1982.9227	6304	5416.55
930.1388	1984.5173	6291.9	5405.25
930.2767	1986.1112	6279.55	5391.7
930.4146	1987.7044	6249.75	5362.3
930.5525	1989.2968	6236.45	5347.25
930.6904	1990.8885	6231.45	5342.85
930.8282	1992.4795	6190.6	5304.65
930.966	1994.0697	6180.45	5296.65
931.1038	1995.6592	6164.65	5279.9
931.2415	1997.2479	6137.9	5250.4
931.3793	1998.8359	6136.2	5252.85
931.517	2000.4232	6093.9	5211.85
931.6547	2002.0097	6083.15	5201.9
931.7923	2003.5955	6048.9	5169.35
931.93	2005.1805	6054.25	5169
932.0676	2006.7648	6034.35	5152.2
932.2052	2008.3484	6024.95	5141.4
932.3427	2009.9312	6031.4	5152.45
932.4803	2011.5133	6006.8	5128.35
932.6178	2013.0946	5968.15	5086.95
932.7553	2014.6752	5981.6	5100.9
932.8928	2016.2551	5945.7	5062.25
933.0302	2017.8342	5942.4	5058.45
933.1676	2019.4126	5915.7	5034.4
933.305	2020.9902	5897.25	5018.05
933.4424	2022.5672	5871.5	4989.7
933.5798	2024.1433	5859.4	4977.75
933.7171	2025.7188	5826.2	4949.6
933.8544	2027.2935	5822.85	4940.7
933.9917	2028.8674	5818.85	4939.9
934.129	2030.4406	5802.65	4925.4
934.2662	2032.0131	5781.85	4904.25
934.4034	2033.5849	5771.6	4887.65
934.5406	2035.1559	5749.65	4869.9
934.6778	2036.7261	5735.15	4851.85
934.8149	2038.2957	5728.85	4844.55
934.952	2039.8645	5704.7	4819.55
935.0891	2041.4325	5720.45	4831.3
935.2262	2042.9998	5698.55	4816.4
935.3632	2044.5664	5674.8	4792.05
935.5002	2046.1323	5656.45	4777.1
935.6372	2047.6974	5636.7	4757.6
935.7742	2049.2617	5600.3	4722.45
935.9111	2050.8254	5618.1	4731.05
936.048	2052.3883	5622.5	4739.85
936.1849	2053.9504	5602.45	4717.65
936.3218	2055.5118	5579.25	4694.45
936.4586	2057.0725	5555.15	4668.25
936.5955	2058.6325	5553.3	4668.85
936.7323	2060.1917	5547.7	4667
936.869	2061.7502	5504.9	4622.1
937.0058	2063.3079	5493.4	4617.8
937.1425	2064.8649	5474.95	4591.6
937.2792	2066.4212	5469.2	4589.6
937.4159	2067.9767	5441.6	4558.4
937.5525	2069.5315	5432.8	4550.95
937.6891	2071.0856	5402.9	4521.5
937.8257	2072.6389	5394.9	4513.1
937.9623	2074.1915	5361.4	4481.85
938.0989	2075.7433	5350.5	4468.5
938.2354	2077.2945	5337.7	4456.6
938.3719	2078.8448	5342.1	4459.1
938.5084	2080.3945	5300.75	4416.6
938.6448	2081.9434	5296.75	4412.4
938.7812	2083.4916	5306	4417.9
938.9176	2085.039	5279.4	4390.3
939.054	2086.5857	5263.65	4371
939.1903	2088.1317	5258.9	4367.2
939.3267	2089.677	5230	4340.1
939.463	2091.2215	5216.7	4323.6
939.5992	2092.7652	5201.55	4307.2
939.7355	2094.3083	5208.2	4315.05
939.8717	2095.8506	5176.05	4288.2
940.0079	2097.3921	5183	4297.05
940.1441	2098.933	5167.3	4280.7
940.2802	2100.4731	5153.8	4266.9
940.4163	2102.0124	5167.1	4262.8
940.5524	2103.5511	5155.95	4266.35
940.6885	2105.089	5118.75	4228.85
940.8245	2106.6261	5108.35	4221.65
940.9606	2108.1626	5121.9	4234.65
941.0965	2109.6983	5115.95	4202.4
941.2325	2111.2332	5086.8	4197.15
941.3684	2112.7675	5074.9	4186.4
941.5044	2114.301	5049.95	4157.8
941.6403	2115.8337	5051.85	4164.25
941.7761	2117.3657	5029	4143.95
941.912	2118.897	5041.3	4151.95
942.0478	2120.4276	5033.9	4136.7
942.1835	2121.9575	4991.4	4101.75
942.3193	2123.4866	5008.65	4105.35
942.455	2125.0149	4981	4091.55
942.5907	2126.5426	4955.55	4072.05
942.7264	2128.0695	4942.6	4056.75
942.8621	2129.5956	4926.4	4047.45
942.9977	2131.1211	4913.75	4022.25
943.1333	2132.6458	4894.5	4008.85
943.2689	2134.1698	4890.95	4001.85
943.4044	2135.693	4893.5	3998.3
943.54	2137.2155	4888.8	3995.85
943.6755	2138.7373	4878.35	3992.1
943.8109	2140.2584	4843.1	3960.35
943.9464	2141.7787	4834	3947.55
944.0818	2143.2983	4804.1	3921.4
944.2172	2144.8171	4794.35	3914.45
944.3526	2146.3353	4770.5	3884.65
944.4879	2147.8527	4768	3884.55
944.6232	2149.3693	4767	3878.9
944.7585	2150.8853	4758.95	3868.5
944.8938	2152.4005	4742.15	3853.5
945.029	2153.9149	4716.95	3826.6
945.1642	2155.4287	4726.2	3836.15
945.2994	2156.9417	4709.05	3818.6
945.4346	2158.454	4697.5	3809.45
945.5697	2159.9655	4696.85	3812.9
945.7048	2161.4764	4682.3	3796.6
945.8399	2162.9865	4655.9	3770.45
945.9749	2164.4958	4657.65	3773.15
946.1099	2166.0045	4644.6	3756.95
946.2449	2167.5124	4626.5	3742.6
946.3799	2169.0195	4639.65	3749.75
946.5148	2170.526	4629.05	3741
946.6498	2172.0317	4613.95	3725.9
946.7846	2173.5367	4602.45	3715.9
946.9195	2175.0409	4592.95	3709.05
947.0543	2176.5445	4590.8	3702.65
947.1891	2178.0473	4575	3684.95
947.3239	2179.5494	4561.95	3670
947.4587	2181.0507	4525.45	3637.6
947.5934	2182.5513	4505.35	3617.3
947.7281	2184.0512	4508.65	3617.4
947.8628	2185.5504	4503.2	3617.6
947.9974	2187.0488	4477.75	3594.55
948.132	2188.5465	4470.7	3587.7
948.2666	2190.0435	4461.25	3573.4
948.4012	2191.5397	4442.7	3556.05
948.5357	2193.0353	4434.75	3545.05
948.6702	2194.5301	4417.65	3526.8
948.8047	2196.0241	4403.45	3510
948.9392	2197.5175	4402.05	3509.2
949.0736	2199.0101	4379.15	3481.95
949.208	2200.502	4381.35	3492.65
949.3424	2201.9931	4355.45	3470.5
949.4767	2203.4835	4348.35	3461.85
949.611	2204.9733	4337.35	3448.25
949.7453	2206.4622	4338.9	3456.05
949.8796	2207.9505	4309.55	3424.15
950.0138	2209.438	4273.4	3392.4
950.148	2210.9248	4274.85	3389.5
950.2822	2212.4109	4266.6	3379.15
950.4164	2213.8962	4252.4	3360.65
950.5505	2215.3809	4242.45	3348.35
950.6846	2216.8648	4254.85	3359.5
950.8186	2218.3479	4239.5	3341.45
950.9527	2219.8304	4222.85	3326.55
951.0867	2221.3121	4211.7	3313.75
951.2207	2222.7931	4198.2	3305.1
951.3546	2224.2733	4165.1	3273.9
951.4886	2225.7529	4161.25	3272.85
951.6225	2227.2317	4156.25	3267.4
951.7563	2228.7098	4139.35	3256.3
951.8902	2230.1872	4122.8	3237.9
952.024	2231.6638	4115.8	3233.1
952.1578	2233.1397	4106.5	3219.5
952.2916	2234.6149	4108.95	3224.9
952.4253	2236.0894	4090.05	3202.35
952.559	2237.5632	4091.25	3194.35
952.6927	2239.0362	4070.6	3183.45
952.8263	2240.5085	4061.2	3174.45
952.9599	2241.9801	4059.35	3171.55
953.0935	2243.4509	4038.5	3147.3
953.2271	2244.921	4022.65	3130.65
953.3606	2246.3904	4014.6	3119.5
953.4941	2247.8591	3998.45	3107.55
953.6276	2249.3271	4002.45	3110.2
953.7611	2250.7943	3974.6	3083.85
953.8945	2252.2608	3955.7	3063.8
954.0279	2253.7266	3949	3059.3
954.1612	2255.1917	3942.95	3052.55
954.2946	2256.656	3929.5	3042.35
954.4279	2258.1197	3918.35	3032.65
954.5612	2259.5826	3922.55	3034.15
954.6944	2261.0447	3909.35	3019.7
954.8276	2262.5062	3894.45	3005
954.9608	2263.9669	3892.4	2998.6
955.094	2265.4269	3892.6	3002.75
955.2271	2266.8862	3871.4	2982.7
955.3602	2268.3448	3869.4	2984.75
955.4933	2269.8026	3862.5	2976.05
955.6264	2271.2598	3849.15	2963.75
955.7594	2272.7162	3837	2951.25
955.8924	2274.1719	3828.4	2937.8
956.0253	2275.6268	3826.85	2935.6
956.1583	2277.0811	3825.85	2933.55
956.2912	2278.5346	3825.55	2937.25
956.4241	2279.9874	3786.6	2900.35
956.5569	2281.4395	3790.75	2906.7
956.6897	2282.8908	3772.85	2879.3
956.8225	2284.3414	3778.5	2888.45
956.9553	2285.7914	3758	2869
957.088	2287.2406	3758.2	2867
957.2207	2288.689	3743.5	2851.35
957.3534	2290.1368	3750.3	2853.95
957.486	2291.5838	3736.9	2840
957.6186	2293.0302	3719.8	2823.3
957.7512	2294.4758	3709.8	2813.55
957.8838	2295.9206	3703.4	2810.6
958.0163	2297.3648	3686	2798.4
958.1488	2298.8082	3685.75	2795.45
958.2813	2300.251	3677.15	2786.05
958.4137	2301.693	3679.95	2784.45
958.5461	2303.1343	3662.95	2770.8
958.6785	2304.5748	3649.6	2759.85
958.8108	2306.0147	3641.35	2754.5
958.9432	2307.4538	3641.35	2754.5
959.0754	2308.8922	3616.3	2731.45
959.2077	2310.3299	3610.3	2724.9
959.3399	2311.7669	3615.45	2728.9
959.4721	2313.2031	3598.85	2709.45
959.6043	2314.6387	3581.95	2692.9
959.7365	2316.0735	3583.6	2693.25
959.8686	2317.5076	3581.2	2691.35
960.0006	2318.941	3572.5	2681.8
960.1327	2320.3737	3551	2659.3
960.2647	2321.8056	3562.55	2666.05
960.3967	2323.2369	3533.4	2641.15
960.5287	2324.6674	3521.95	2628.1
960.6606	2326.0972	3513.7	2625.3
960.7925	2327.5263	3508.95	2618.3
960.9244	2328.9547	3513	2620.8
961.0562	2330.3823	3483.25	2591.95
961.1881	2331.8092	3494.9	2596.2
961.3198	2333.2355	3492.15	2599.8
961.4516	2334.661	3475.7	2579.85
961.5833	2336.0858	3456	2562
961.715	2337.5098	3467.05	2576.4
961.8467	2338.9332	3450.2	2559.7
961.9783	2340.3558	3432.15	2540.05
962.1099	2341.7778	3441.05	2553.05
962.2415	2343.199	3422.35	2531.95
962.373	2344.6195	3411.7	2524.15
962.5045	2346.0393	3397.1	2510.3
962.636	2347.4583	3410.95	2519.65
962.7675	2348.8767	3405.25	2512.45
962.8989	2350.2943	3411.2	2518.85
963.0303	2351.7113	3411.25	2516.25
963.1617	2353.1275	3386.8	2492.4
963.293	2354.543	3387.35	2486.6
963.4243	2355.9578	3371.85	2479.55
963.5556	2357.3718	3362.6	2474.4
963.6868	2358.7852	3341.85	2452.9
963.818	2360.1978	3327.4	2439.6
963.9492	2361.6098	3318.65	2432.1
964.0803	2363.021	3325.45	2432.55
964.2114	2364.4315	3322.95	2435.75
964.3425	2365.8413	3308.1	2418.15
964.4736	2367.2504	3289.4	2402.85
964.6046	2368.6587	3274.85	2389.3
964.7356	2370.0664	3270.35	2383.5
964.8666	2371.4733	3269.95	2384.05
964.9975	2372.8795	3257.3	2368.3
965.1284	2374.285	3240.35	2354.3
965.2593	2375.6899	3230.95	2345.1
965.3901	2377.0939	3212.75	2325.4
965.5209	2378.4973	3194.2	2309.6
965.6517	2379.9	3205.05	2317.45
965.7825	2381.3019	3190.95	2306.35
965.9132	2382.7032	3195.3	2313.15
966.0439	2384.1037	3175.6	2293.15
966.1745	2385.5035	3163.7	2280.1
966.3051	2386.9027	3148.25	2266.45
966.4357	2388.3011	3155.65	2269.05
966.5663	2389.6987	3150.4	2267.8
966.6968	2391.0957	3127.65	2245.7
966.8273	2392.492	3123.55	2241.3
966.9578	2393.8876	3125.2	2239.1
967.0882	2395.2824	3095	2211.7
967.2186	2396.6765	3092.2	2208.25
967.349	2398.07	3096.75	2213.2
967.4793	2399.4627	3097	2208.95
967.6097	2400.8547	3077.55	2191.45
967.7399	2402.246	3081.65	2190.2
967.8702	2403.6366	3069.4	2184.4
968.0004	2405.0265	3060.15	2178.95
968.1306	2406.4156	3047.6	2158.35
968.2607	2407.8041	3038.25	2151.5
968.3909	2409.1918	3024.55	2137.45
968.521	2410.5789	3022	2136.8
968.651	2411.9652	3009.45	2122
968.781	2413.3508	3004.35	2116.15
968.911	2414.7358	2999.25	2113.5
969.041	2416.12	2978.3	2091.85
969.1709	2417.5035	2977.2	2093.35
969.3008	2418.8863	2980.25	2095.15
969.4307	2420.2684	2970.05	2083.4
969.5606	2421.6497	2966.9	2080.15
969.6904	2423.0304	2946.05	2062.65
969.8201	2424.4104	2952.6	2066.55
969.9499	2425.7896	2928.5	2042.3
970.0796	2427.1682	2933.15	2046.65
970.2093	2428.546	2922.05	2036
970.3389	2429.9232	2921.1	2036
970.4685	2431.2996	2923.9	2038.15
970.5981	2432.6753	2901.35	2015.65
970.7277	2434.0503	2914.25	2029.35
970.8572	2435.4246	2898.25	2011.9
970.9867	2436.7982	2888.15	1999.45
971.1161	2438.1711	2876.1	1992.55
971.2456	2439.5433	2868.85	1981.45
971.375	2440.9148	2877.15	1985.95
971.5043	2442.2856	2853.95	1969.8
971.6336	2443.6557	2852.5	1966.35
971.7629	2445.025	2842.5	1957.5
971.8922	2446.3937	2838.25	1952.05
972.0214	2447.7617	2831.8	1945.1
972.1506	2449.1289	2828.25	1943.7
972.2798	2450.4955	2822.65	1935
972.4089	2451.8613	2812.15	1928.55
972.538	2453.2265	2804.4	1918.35
972.6671	2454.5909	2812.95	1925.65
972.7961	2455.9546	2806.7	1920.5
972.9251	2457.3177	2786.9	1901.35
973.0541	2458.68	2788	1900.55
973.1831	2460.0416	2782.75	1895.75
973.312	2461.4025	2780.5	1890.85
973.4408	2462.7627	2779	1880.6
973.5697	2464.1222	2772.05	1888.85
973.6985	2465.4811	2760.5	1876.85
973.8273	2466.8392	2737.85	1852
973.956	2468.1966	2747.9	1861.1
974.0847	2469.5533	2756.25	1866.55
974.2134	2470.9093	2751.35	1865.7
974.3421	2472.2645	2738.5	1852.6
974.4707	2473.6191	2735.25	1849.45
974.5993	2474.973	2740.55	1854.5
974.7278	2476.3262	2718.95	1830.1
974.8563	2477.6787	2709	1824.05
974.9848	2479.0305	2700.3	1815.6
975.1132	2480.3816	2697.1	1807.95
975.2417	2481.7319	2687.55	1800.7
975.37	2483.0816	2685.15	1797.9
975.4984	2484.4306	2682.55	1794.6
975.6267	2485.7789	2660.3	1775.05
975.755	2487.1264	2658	1769.7
975.8833	2488.4733	2665	1780.05
976.0115	2489.8195	2668.7	1765.35
976.1397	2491.165	2648.35	1758.45
976.2678	2492.5097	2629.35	1740.25
976.3959	2493.8538	2626.15	1739.75
976.524	2495.1972	2620.5	1736
976.6521	2496.5398	2610.55	1721.65
976.7801	2497.8818	2609.55	1721.8
976.9081	2499.2231	2607.55	1721.9
977.036	2500.5637	2606.85	1716.3
977.164	2501.9035	2596.3	1708.35
977.2918	2503.2427	2582.05	1692.1
977.4197	2504.5812	2577.5	1688.85
977.5475	2505.919	2583.85	1693.4
977.6753	2507.256	2572.3	1684.5
977.8031	2508.5924	2553.95	1666.7
977.9308	2509.9281	2561.15	1669
978.0585	2511.2631	2555.85	1669.25
978.1861	2512.5974	2545.55	1660.9
978.3137	2513.9309	2531.4	1643.5
978.4413	2515.2638	2545.5	1628.8
978.5689	2516.596	2524.05	1637.05
978.6964	2517.9275	2514.15	1621.75
978.8239	2519.2583	2512.6	1624.2
978.9513	2520.5884	2502.85	1611.3
979.0788	2521.9178	2498.5	1610.65
979.2062	2523.2465	2501.4	1615.85
979.3335	2524.5745	2479.95	1593.35
979.4608	2525.9018	2486.3	1601.75
979.5881	2527.2284	2478.9	1592.55
979.7154	2528.5543	2479.75	1592.9
979.8426	2529.8796	2467.25	1579.45
979.9698	2531.2041	2481.1	1595.9
980.0969	2532.5279	2467.85	1582.5
980.224	2533.851	2468.7	1583.75
980.3511	2535.1735	2452.25	1564.3
980.4781	2536.4952	2462.15	1574.05
980.6052	2537.8163	2444.2	1555.55
980.7321	2539.1366	2448.4	1559.9
980.8591	2540.4562	2447.6	1558.9
980.986	2541.7752	2447.7	1561.9
981.1129	2543.0935	2430.35	1542.4
981.2397	2544.411	2429.25	1540.45
981.3665	2545.7279	2421.8	1532.9
981.4933	2547.0441	2428.3	1539.85
981.62	2548.3596	2419.9	1529.1
981.7467	2549.6744	2407	1520.2
981.8734	2550.9885	2413.05	1516.85
982.0001	2552.3019	2398.8	1511.25
982.1267	2553.6146	2401.75	1513.25
982.2532	2554.9266	2395.75	1506.65
982.3798	2556.2379	2392.2	1502.4
982.5063	2557.5485	2382.3	1496.1
982.6327	2558.8585	2390.65	1496.65
982.7592	2560.1677	2380	1485.85
982.8856	2561.4762	2394.35	1507.65
983.0119	2562.7841	2386.6	1495.15
983.1383	2564.0913	2384.5	1496.75
983.2646	2565.3977	2369.75	1483.55
983.3908	2566.7035	2364.8	1476.85
983.517	2568.0086	2356	1466
983.6432	2569.313	2357.5	1468.4
983.7694	2570.6167	2354.2	1461.8
983.8955	2571.9197	2345.85	1459.5
984.0216	2573.222	2349.25	1457.75
984.1476	2574.5236	2334.3	1445.7
984.2737	2575.8246	2339.5	1449.95
984.3996	2577.1248	2340.9	1450.4
984.5256	2578.4244	2331.1	1444.3
984.6515	2579.7232	2322.45	1431.9
984.7774	2581.0214	2358.05	1437.1
984.9032	2582.3189	2331.3	1443.55
985.029	2583.6157	2326.35	1431.4
985.1548	2584.9118	2330.5	1441.15
985.2806	2586.2072	2321.7	1434.3
985.4063	2587.5019	2315.2	1426.75
985.5319	2588.7959	2311	1423.7
985.6576	2590.0893	2314.5	1425.1
985.7832	2591.3819	2301.7	1414.85
985.9087	2592.6739	2309.3	1422.35
986.0343	2593.9652	2324.15	1434.4
986.1597	2595.2557	2298.7	1409.15
986.2852	2596.5456	2294.15	1404.75
986.4106	2597.8348	2298.55	1409.25
986.536	2599.1234	2293.5	1407.4
986.6614	2600.4112	2293.3	1404.8
986.7867	2601.6983	2289.9	1397.8
986.912	2602.9848	2278.1	1389.95
987.0372	2604.2705	2288	1393.55
987.1624	2605.5556	2275.8	1386.15
987.2876	2606.84	2268.45	1379.15
987.4128	2608.1237	2264.3	1375.25
987.5379	2609.4067	2248.85	1360.25
987.6629	2610.689	2252.9	1355.65
987.788	2611.9707	2247	1355.2
987.913	2613.2516	2235.65	1343.55
988.0379	2614.5319	2224.85	1337.25
988.1629	2615.8115	2229.5	1342.6
988.2878	2617.0903	2223.9	1334.75
988.4126	2618.3685	2207.05	1318.9
988.5375	2619.6461	2200.25	1310.3
988.6622	2620.9229	2206.05	1316.85
988.787	2622.199	2205.85	1317.3
988.9117	2623.4745	2205	1316.25
989.0364	2624.7493	2200.2	1314.15
989.161	2626.0234	2196.25	1309.75
989.2857	2627.2968	2191.25	1304
989.4102	2628.5695	2191.1	1302.4
989.5348	2629.8415	2173.2	1287.2
989.6593	2631.1128	2186.75	1298
989.7837	2632.3835	2172.85	1284.6
989.9082	2633.6535	2169.65	1283.85
990.0326	2634.9228	2172.7	1286.55
990.1569	2636.1914	2155.15	1268.1
990.2812	2637.4593	2162.2	1273.55
990.4055	2638.7265	2165.05	1277.5
990.5298	2639.9931	2145.65	1261.65
990.654	2641.259	2150.45	1262
990.7782	2642.5242	2157	1272.05
990.9023	2643.7887	2143.4	1253.55
991.0264	2645.0525	2131.5	1245.2
991.1505	2646.3156	2137.75	1252.05
991.2745	2647.5781	2126.5	1240
991.3985	2648.8398	2119	1233.3
991.5225	2650.1009	2126.75	1232.9
991.6464	2651.3613	2113.65	1223.85
991.7703	2652.6211	2107.95	1222.4
991.8942	2653.8801	2108.6	1218.7
992.018	2655.1385	2112.4	1224.3
992.1418	2656.3961	2101.9	1215.5
992.2655	2657.6531	2095.4	1206.75
992.3892	2658.9094	2096.9	1208.9
992.5129	2660.1651	2093.7	1206.9
992.6366	2661.42	2101.5	1216.05
992.7602	2662.6743	2099.25	1213.55
992.8837	2663.9279	2096.75	1210.6
993.0073	2665.1808	2082.85	1197.55
993.1307	2666.433	2098.4	1210.65
993.2542	2667.6846	2087.3	1199.4
993.3776	2668.9354	2094.6	1202.15
993.501	2670.1856	2088.75	1197.75
993.6244	2671.4351	2079.05	1192.4
993.7477	2672.6839	2081.6	1193.3
993.8709	2673.9321	2086.35	1201.25
993.9942	2675.1795	2078.2	1190.85
994.1174	2676.4263	2093.35	1205.15
994.2405	2677.6724	2079.5	1195.4
994.3637	2678.9179	2077.6	1188.7
994.4868	2680.1626	2083	1198.3
994.6098	2681.4067	2075.65	1189.05
994.7328	2682.6501	2066.35	1178.1
994.8558	2683.8928	2069.45	1181
994.9788	2685.1348	2064.15	1177.85
995.1017	2686.3761	2055.65	1170.35
995.2245	2687.6168	2061	1173.8
995.3474	2688.8568	2049.3	1162.35
995.4702	2690.0961	2039.1	1152.1
995.5929	2691.3348	2031.4	1143.7
995.7156	2692.5727	2026.95	1138.2
995.8383	2693.81	2024.05	1137.85
995.961	2695.0466	2023.5	1137.55
996.0836	2696.2826	2026.5	1139.8
996.2062	2697.5178	2024.7	1135.45
996.3287	2698.7524	2019.7	1134.85
996.4512	2699.9863	2022.2	1132.65
996.5737	2701.2195	2008.8	1120
996.6961	2702.452	2019.7	1132.2
996.8185	2703.6839	2009.85	1120.7
996.9408	2704.9151	2012.1	1125.55
997.0631	2706.1456	2022.1	1137.3
997.1854	2707.3755	2027.4	1139.8
997.3077	2708.6046	2038.1	1148.65
997.4299	2709.8331	2034.9	1146.65
997.552	2711.0609	2035.55	1148.85
997.6742	2712.2881	2039.65	1154
997.7963	2713.5145	2046	1155.9
997.9183	2714.7403	2056.2	1172.95
998.0403	2715.9654	2065.05	1177.25
998.1623	2717.1899	2089	1187.35
998.2842	2718.4136	2077.85	1191.9
998.4062	2719.6367	2081.35	1195.75
998.528	2720.8591	2107.1	1213.1
998.6498	2722.0809	2104.25	1217.3
998.7716	2723.3019	2122.6	1234.55
998.8934	2724.5223	2119.2	1234.05
999.0151	2725.7421	2127.9	1238.4
999.1368	2726.9611	2120.4	1231.3
999.2584	2728.1795	2123.15	1231.6
999.38	2729.3972	2109.5	1224.65
999.5016	2730.6142	2105.55	1206.9
999.6231	2731.8306	2084.35	1197.1
999.7446	2733.0462	2057.6	1169.4
999.8661	2734.2612	2036.85	1145.9
999.9875	2735.4756	2032.8	1144.5
1000.1089	2736.6892	2009.5	1123.55
1000.2302	2737.9022	1986.6	1100.75
1000.3515	2739.1145	1966.25	1080.05
1000.4728	2740.3262	1966.3	1072.8
1000.594	2741.5372	1936.25	1051.45
1000.7152	2742.7475	1929.2	1041.5
1000.8363	2743.9571	1914.4	1028.4
1000.9575	2745.1661	1918.1	1029.55
1001.0785	2746.3744	1898.75	1013.55
1001.1996	2747.582	1886.2	1000.05
1001.3206	2748.7889	1879.95	991.45
1001.4415	2749.9952	1865.55	977.15
1001.5625	2751.2008	1858.7	972.45
1001.6833	2752.4057	1851.75	963
1001.8042	2753.61	1851.2	965.25
1001.925	2754.8136	1851.2	964
1002.0458	2756.0165	1841.05	955.9
1002.1665	2757.2188	1839.6	956.3
1002.2872	2758.4204	1842.95	956.6
1002.4078	2759.6213	1835.75	946.4
1002.5285	2760.8215	1834.5	942.9
1002.649	2762.0211	1835.55	946.65
1002.7696	2763.22	1836.15	947.2
1002.8901	2764.4182	1820.65	931.15
1003.0106	2765.6158	1815.75	931.05
1003.131	2766.8127	1803.95	917.2
1003.2514	2768.009	1811.65	926.7
1003.3717	2769.2045	1798.25	913.9
1003.492	2770.3994	1801.05	912.9
1003.6123	2771.5936	1806.25	919.65
1003.7325	2772.7872	1791.15	908.15
1003.8527	2773.9801	1786.85	902.55
1003.9729	2775.1723	1794.15	891.4
1004.093	2776.3639	1781.55	898.35
1004.2131	2777.5548	1777.15	891.85
1004.3331	2778.745	1775.35	887.75
1004.4531	2779.9346	1782.2	897.25
1004.5731	2781.1235	1779.2	893.15
1004.693	2782.3117	1785.5	903.85
1004.8129	2783.4992	1780.8	897.7
1004.9328	2784.6861	1788.6	903.6
1005.0526	2785.8723	1797.65	911.9
1005.1723	2787.0579	1792.9	906.65
1005.2921	2788.2428	1796.9	912.8
1005.4118	2789.427	1789.65	905
1005.5314	2790.6106	1804.05	920.15
1005.651	2791.7935	1819.4	934.85
1005.7706	2792.9757	1826.9	943.4
1005.8902	2794.1573	1840.3	954.9
1006.0097	2795.3382	1841.25	958.8
1006.1291	2796.5184	1854.25	972.65
1006.2485	2797.698	1880.25	992.55
1006.3679	2798.8769	1891.2	1007.9
1006.4873	2800.0551	1898.95	1013.3
1006.6066	2801.2327	1918.1	1032.65
1006.7258	2802.4096	1930.05	1047.25
1006.8451	2803.5859	1951.95	1068.1
1006.9642	2804.7615	1963.55	1078.5
1007.0834	2805.9364	1991.5	1106
1007.2025	2807.1106	2012.2	1127.1
1007.3216	2808.2842	2038.75	1156
1007.4406	2809.4572	2064.25	1181.2
1007.5596	2810.6294	2107.45	1222.95
1007.6785	2811.801	2142.55	1260.65
1007.7975	2812.972	2183.85	1299.7
1007.9163	2814.1423	2220.1	1336.15
1008.0352	2815.3119	2262.2	1375.35
1008.154	2816.4808	2299.45	1417.15
1008.2727	2817.6491	2359.6	1475.05
1008.3914	2818.8167	2390.9	1510.1
1008.5101	2819.9837	2451.3	1561.65
1008.6288	2821.15	2489	1606.05
1008.7474	2822.3157	2533.9	1651.3
1008.8659	2823.4807	2567.4	1685.15
1008.9844	2824.645	2627.6	1742.3
1009.1029	2825.8086	2676.75	1792.7
1009.2214	2826.9716	2718.3	1834.7
1009.3398	2828.134	2758.85	1873.8
1009.4581	2829.2957	2803.25	1918.85
1009.5764	2830.4567	2816.95	1935.35
1009.6947	2831.617	2840.7	1955.05
1009.813	2832.7767	2841.8	1959.9
1009.9312	2833.9358	2855.75	1971.85
1010.0493	2835.0941	2847.55	1963.45
1010.1675	2836.2519	2835.05	1952.8
1010.2855	2837.4089	2828.8	1944.8
1010.4036	2838.5653	2817.25	1932.4
1010.5216	2839.7211	2806.2	1922.7
1010.6396	2840.8761	2826.55	1940.9
1010.7575	2842.0306	2848.6	1967.05
1010.8754	2843.1843	2880.25	1996.05
1010.9932	2844.3374	2916.4	2031.35
1011.111	2845.4899	2984.85	2100.5
1011.2288	2846.6417	3051.65	2168.9
1011.3465	2847.7928	3121.45	2238.55
1011.4642	2848.9433	3185.7	2302
1011.5818	2850.0931	3276.3	2395.9
1011.6995	2851.2422	3333.95	2448.1
1011.817	2852.3907	3408.55	2525.4
1011.9345	2853.5385	3463.9	2581.65
1012.052	2854.6857	3546.45	2634.65
1012.1695	2855.8323	3575.1	2693.05
1012.2869	2856.9781	3628.6	2746.35
1012.4042	2858.1233	3675.6	2793.15
1012.5216	2859.2679	3717.05	2834
1012.6389	2860.4118	3760.7	2876.6
1012.7561	2861.555	3817.05	2930.15
1012.8733	2862.6976	3835.35	2950.8
1012.9905	2863.8395	3866.25	2983.05
1013.1076	2864.9808	3892.55	3008.4
1013.2247	2866.1214	3908.1	3025.9
1013.3417	2867.2614	3904.2	3023.2
1013.4587	2868.4007	3916.8	3035.25
1013.5757	2869.5393	3931.55	3045.65
1013.6926	2870.6773	3944.35	3060.5
1013.8095	2871.8146	3960.3	3074.6
1013.9263	2872.9513	3957.85	3070.65
1014.0431	2874.0874	3951.5	3068.8
1014.1599	2875.2227	3936.8	3051.55
1014.2766	2876.3574	3905.45	3021.85
1014.3933	2877.4915	3900.45	3018.4
1014.51	2878.6249	3880.15	2997.1
1014.6266	2879.7577	3859.85	2978.7
1014.7431	2880.8898	3843.75	2950.05
1014.8596	2882.0212	3824.85	2942.85
1014.9761	2883.152	3830.75	2948.15
1015.0925	2884.2821	3790.85	2909
1015.2089	2885.4116	3782.85	2901.8
1015.3253	2886.5405	3770.85	2887.05
1015.4416	2887.6686	3792.9	2908.55
1015.5579	2888.7962	3777.75	2897.1
1015.6741	2889.923	3791.25	2911.4
1015.7903	2891.0493	3803.65	2921.3
1015.9065	2892.1748	3812.85	2931.3
1016.0226	2893.2997	3829.15	2946.6
1016.1387	2894.424	3827.05	2946.5
1016.2547	2895.5476	3850.3	2968.85
1016.3707	2896.6706	3888.45	3007.35
1016.4866	2897.7929	3902.55	3018.4
1016.6025	2898.9145	3935.3	3053.45
1016.7184	2900.0355	3960.85	3079.45
1016.8342	2901.1559	3994.45	3112.5
1016.95	2902.2756	4022.4	3135.95
1017.0658	2903.3946	4061.75	3179.75
1017.1815	2904.513	4083.7	3198.2
1017.2971	2905.6308	4110.15	3228.65
1017.4127	2906.7479	4138.3	3255.35
1017.5283	2907.8643	4154.25	3272.3
1017.6439	2908.9801	4175	3293.35
1017.7594	2910.0953	4186.25	3305.75
1017.8748	2911.2098	4170.65	3285.05
1017.9902	2912.3236	4168	3278.3
1018.1056	2913.4368	4155.05	3270.65
1018.2209	2914.5494	4136.55	3253.95
1018.3362	2915.6613	4096.2	3208.1
1018.4515	2916.7725	4068.75	3184.95
1018.5667	2917.8831	4050.45	3167.5
1018.6819	2918.9931	4011.55	3129.2
1018.797	2920.1024	3995.1	3111.35
1018.9121	2921.211	3960.25	3080.3
1019.0271	2922.319	3938.25	3057.2
1019.1421	2923.4264	3911	3029.25
1019.2571	2924.5331	3916	3035.3
1019.372	2925.6391	3901.95	3019.3
1019.4869	2926.7445	3895.5	3015.3
1019.6017	2927.8493	3876.65	2993.6
1019.7165	2928.9534	3891.95	3009.5
1019.8313	2930.0569	3883.9	3000.55
1019.946	2931.1597	3865.7	2981.5
1020.0606	2932.2619	3842.55	2961.6
1020.1753	2933.3634	3850.55	2968.65
1020.2899	2934.4643	3847.5	2958.9
1020.4044	2935.5645	3830.65	2943.8
1020.5189	2936.6641	3773.7	2887.45
1020.6334	2937.763	3758.1	2879.25
1020.7478	2938.8613	3678.95	2797.65
1020.8622	2939.959	3634.6	2749.2
1020.9765	2941.056	3554.35	2673.2
1021.0908	2942.1523	3478.45	2596.05
1021.2051	2943.248	3400.75	2522.1
1021.3193	2944.3431	3300.6	2419.2
1021.4334	2945.4375	3198.55	2315.15
1021.5476	2946.5313	3101.1	2221.75
1021.6617	2947.6244	2990.75	2110.35
1021.7757	2948.7169	2900.65	2018.6
1021.8897	2949.8087	2802.55	1920
1022.0037	2950.8999	2712.1	1829.85
1022.1176	2951.9904	2629.25	1748.55
1022.2315	2953.0803	2558	1675.6
1022.3453	2954.1696	2492.35	1609.55
1022.4591	2955.2582	2430.35	1550.4
1022.5728	2956.3462	2389.1	1507
1022.6865	2957.4335	2364.35	1482
1022.8002	2958.5202	2312.1	1428.9
1022.9138	2959.6062	2289.6	1407.8
1023.0274	2960.6916	2264.15	1384.7
1023.141	2961.7764	2240.85	1358.45
1023.2545	2962.8605	2223.5	1341.2
1023.3679	2963.9439	2212.85	1333.75
1023.4813	2965.0267	2198.8	1315.95
1023.5947	2966.1089	2203.25	1300.5
1023.708	2967.1905	2180.4	1299.2
1023.8213	2968.2714	2176.9	1297.85
1023.9346	2969.3516	2180.2	1299.25
1024.0478	2970.4312	2191.2	1304.3
1024.1609	2971.5102	2187.2	1306.5
1024.274	2972.5885	2177.65	1299.35
1024.3871	2973.6662	2181.05	1293.75
1024.5002	2974.7432	2164.65	1283.6
1024.6132	2975.8196	2159.8	1279.1
1024.7261	2976.8954	2158.15	1279.65
1024.839	2977.9705	2145.45	1265.7
1024.9519	2979.045	2135.4	1254.45
1025.0647	2980.1188	2114.55	1234.6
1025.1775	2981.192	2087.6	1208.65
1025.2902	2982.2645	2074.45	1194.05
1025.4029	2983.3364	2049.05	1166.9
1025.5156	2984.4077	2017.55	1138.8
1025.6282	2985.4783	1988.25	1101.7
1025.7407	2986.5483	1952.35	1073.2
1025.8532	2987.6177	1911.8	1030.65
1025.9657	2988.6864	1877.1	997.05
1026.0782	2989.7545	1850.1	970.2
1026.1906	2990.8219	1813.1	933.95
1026.3029	2991.8887	1784.55	902.45
1026.4152	2992.9548	1761.55	881
1026.5275	2994.0204	1722.4	844.85
1026.6397	2995.0852	1692.55	812.2
1026.7519	2996.1495	1674.2	791.6
1026.864	2997.2131	1645.8	765.3
1026.9761	2998.276	1619.1	739.7
1027.0882	2999.3383	1597.65	716.7
1027.2002	3000.4	1579.05	698.65
1027.3122	3001.4611	1561.2	681.75
1027.4241	3002.5215	1560.7	681.8
1027.536	3003.5812	1534.7	653.6
1027.6478	3004.6404	1517.75	637.8
1027.7596	3005.6989	1513.1	630.55
1027.8714	3006.7567	1501.5	622.45
1027.9831	3007.8139	1516.5	605.3
1028.0947	3008.8705	1482.35	601.8
1028.2064	3009.9264	1485.55	602.25
1028.3179	3010.9818	1477.6	598.55
1028.4295	3012.0364	1473.85	593.9
1028.541	3013.0905	1472.25	590.65
1028.6524	3014.1439	1464.65	584.4
1028.7638	3015.1966	1461.45	581.2
1028.8752	3016.2487	1449.85	570.5
1028.9865	3017.3002	1460.15	576.6
1029.0978	3018.3511	1447.05	568.5
1029.209	3019.4013	1447.1	568.3
1029.3202	3020.4509	1448.3	568.85
1029.4314	3021.4998	1453.25	573.3
1029.5425	3022.5481	1444.9	566.25
1029.6535	3023.5958	1447.65	568.9
1029.7645	3024.6428	1450.1	569.1
1029.8755	3025.6892	1448.35	568.75
1029.9864	3026.735	1445.45	563.5
1030.0973	3027.7802	1450.6	570.6
1030.2082	3028.8247	1455.7	578.5
1030.319	3029.8685	1453.45	573.9
1030.4297	3030.9118	1450.1	570.65
1030.5404	3031.9544	1464.3	584.9
1030.6511	3032.9963	1460.9	582.65
1030.7617	3034.0376	1464.6	587.3
1030.8723	3035.0783	1473.35	590.35
1030.9829	3036.1184	1478.55	598.6
1031.0934	3037.1578	1477.95	599.25
1031.2038	3038.1966	1479.5	599.65
1031.3142	3039.2348	1484.85	606.3
1031.4246	3040.2723	1487.45	598.1
1031.5349	3041.3092	1472.6	596
1031.6452	3042.3455	1477	596.8
1031.7554	3043.3811	1474.75	595.15
1031.8656	3044.4161	1468.5	590.1
1031.9758	3045.4505	1458.6	581.4
1032.0859	3046.4842	1455.8	574.75
1032.1959	3047.5173	1446.2	567.65
1032.3059	3048.5498	1446.1	565.85
1032.4159	3049.5816	1431.45	552.15
1032.5258	3050.6128	1427.15	546.35
1032.6357	3051.6434	1426.2	547.45
1032.7455	3052.6734	1414.85	536.1
1032.8553	3053.7027	1411.4	533.5
1032.9651	3054.7314	1403.2	525.65
1033.0748	3055.7594	1403.6	526.75
1033.1845	3056.7868	1390.75	511.25
1033.2941	3057.8136	1385.75	508.55
1033.4037	3058.8398	1376.15	499
1033.5132	3059.8653	1382.2	501.7
1033.6227	3060.8902	1372.6	495.45
1033.7321	3061.9145	1364.55	485.75
1033.8415	3062.9381	1374	497.35
1033.9509	3063.9612	1372.5	477.35
1034.0602	3064.9835	1346.5	469.3
1034.1694	3066.0053	1342.35	462.2
1034.2787	3067.0264	1333.05	455.4
1034.3878	3068.0469	1332.55	452.95
1034.497	3069.0668	1328.05	448.4
1034.6061	3070.086	1318.95	440.65
1034.7151	3071.1046	1314.45	436.9
1034.8241	3072.1226	1295.35	415.2
1034.9331	3073.1399	1293.95	417.85
1035.042	3074.1567	1283	403.45
1035.1508	3075.1727	1272.05	393.9
1035.2597	3076.1882	1266.45	385.8
1035.3684	3077.203	1253.2	375.1
1035.4772	3078.2173	1247.25	368.35
1035.5859	3079.2308	1240.95	359.1
1035.6945	3080.2438	1232.05	351
1035.8031	3081.2561	1223	343.8
1035.9117	3082.2678	1214.2	334.65
1036.0202	3083.2789	1210.3	331.65
1036.1286	3084.2893	1208.2	329.7
1036.2371	3085.2991	1194.5	314.15
1036.3454	3086.3083	1199.4	317.35
1036.4538	3087.3169	1186.7	307.2
1036.562	3088.3248	1184.35	302.85
1036.6703	3089.3321	1181.45	300.9
1036.7785	3090.3388	1169.5	293.55
1036.8866	3091.3449	1166.65	290.45
1036.9948	3092.3503	1158.05	276.9
1037.1028	3093.3551	1156.95	282.35
1037.2108	3094.3593	1159.25	281.8
1037.3188	3095.3629	1152.6	275.4
1037.4267	3096.3658	1147.45	267.1
1037.5346	3097.3681	1144.15	267
1037.6425	3098.3698	1142	263.2
1037.7503	3099.3708	1145	258.95
1037.858	3100.3713	1132.55	255.7
1037.9657	3101.3711	1131.65	253.45
1038.0734	3102.3702	1247.15	251.85
1038.181	3103.3688	1130.05	250.25
1038.2886	3104.3667	1124.4	245.7
1038.3961	3105.364	1124.4	249.55
1038.5036	3106.3607	1130.55	249.65
1038.611	3107.3568	1118.95	239.55
1038.7184	3108.3522	1111.55	234.65
1038.8257	3109.347	1117.6	236.5
1038.933	3110.3412	1116.95	234.8
1039.0403	3111.3348	1104	225
1039.1475	3112.3277	1108.35	232.25
1039.2547	3113.32	1105.6	230.1
1039.3618	3114.3117	1101	221.7
1039.4689	3115.3028	1108.35	230.4
1039.5759	3116.2932	1106.55	225.65
1039.6829	3117.2831	1106.65	224.4
1039.7898	3118.2723	1095.7	220.1
1039.8967	3119.2608	1097.95	219.45
1040.0035	3120.2488	1094	216.05
1040.1103	3121.2361	1089.95	210.65
1040.2171	3122.2229	1095.65	217.75
1040.3238	3123.209	1084.7	208.5
1040.4305	3124.1944	1082.2	204.2
1040.5371	3125.1793	1087.7	207.5
1040.6437	3126.1635	1081.8	204.8
1040.7502	3127.1471	1082.55	206.8
1040.8567	3128.1301	1076.7	200.9
1040.9631	3129.1125	1077.65	198.5
1041.0695	3130.0942	1080.15	201.15
1041.1759	3131.0753	1084.55	197.35
1041.2822	3132.0558	1076.05	198.3
1041.3884	3133.0357	1075.35	197.4
1041.4946	3134.015	1071.55	192.45
1041.6008	3134.9936	1071.8	191.1
1041.7069	3135.9716	1092.8	195.45
1041.813	3136.949	1068.55	191.5
1041.919	3137.9258	1083.8	187.9
1042.025	3138.902	1069.6	183.85
1042.1309	3139.8775	1067.1	191.7
1042.2368	3140.8524	1062.85	185.05
1042.3427	3141.8267	1066.75	188.35
1042.4485	3142.8004	1064.1	186.95
1042.5542	3143.7735	1067.8	183.15
1042.6599	3144.7459	1057.85	179.7
1042.7656	3145.7178	1058.05	179.2
1042.8712	3146.689	1050.7	174.75
1042.9768	3147.6596	1052.9	173.5
1043.0823	3148.6295	1051.9	175.8
1043.1878	3149.5989	1051.5	174.9
1043.2932	3150.5676	1047.2	171.2
1043.3986	3151.5357	1048	171.25
1043.5039	3152.5032	1049	171.5
1043.6092	3153.4701	1044.25	165.7
1043.7145	3154.4364	1045.7	167.65
1043.8197	3155.402	1044.65	169.9
1043.9248	3156.367	1045.2	166.7
1044.03	3157.3315	1070.7	167.15
1044.135	3158.2952	1040.15	163.75
1044.24	3159.2584	1038.4	161.45
1044.345	3160.221	1037.85	160.35
1044.4499	3161.1829	1033.6	155.6
1044.5548	3162.1442	1035.1	157.5
1044.6596	3163.105	1031.75	154.05
1044.7644	3164.065	1032.1	155.05
1044.8692	3165.0245	1031.4	152.05
1044.9739	3165.9834	1028.75	153.75
1045.0785	3166.9416	1030.8	151.7
1045.1831	3167.8993	1028	151.35
1045.2877	3168.8563	1028.2	149.3
1045.3922	3169.8127	1027	150.15
1045.4966	3170.7684	1025.6	148.15
1045.6011	3171.7236	1027.45	149.05
1045.7054	3172.6782	1023.75	146.75
1045.8098	3173.6321	1022.4	147.7
1045.914	3174.5854	1028.6	147.8
1046.0183	3175.5381	1021.9	146.2
1046.1224	3176.4902	1014.35	138.2
1046.2266	3177.4417	1018.15	140.85
1046.3307	3178.3926	1021.55	144.05
1046.4347	3179.3428	1015.8	140.15
1046.5387	3180.2924	1014.6	139.4
1046.6427	3181.2415	1014	136.35
1046.7466	3182.1899	1016.95	140.05
1046.8504	3183.1377	1012.85	137.3
1046.9542	3184.0848	1012.3	132.15
1047.058	3185.0314	1012.9	136.8
1047.1617	3185.9773	1009.95	132.05
1047.2654	3186.9227	1008	132.15
1047.369	3187.8674	1009.85	133.15
1047.4726	3188.8115	1014.9	134.65
1047.5761	3189.755	1006.1	130
1047.6796	3190.6979	1006.6	128.25
1047.783	3191.6402	1007.2	133.25
1047.8864	3192.5818	1007.8	130.7
1047.9898	3193.5229	1010.85	127.4
1048.0931	3194.4633	1006.65	131.85
1048.1963	3195.4031	1003.5	125.05
1048.2995	3196.3423	1002.75	127.45
1048.4027	3197.2809	1001	123.75
1048.5058	3198.2189	1005.1	127.95
1048.6089	3199.1563	1019.65	127
1048.7119	3200.0931	1001.2	125
1048.8148	3201.0292	996.9	121.7
1048.9178	3201.9648	997.25	120.45
1049.0206	3202.8997	1000.8	122.95
1049.1235	3203.834	994	119.9
1049.2262	3204.7677	994.15	118.05
1049.329	3205.7008	1001.5	123.45
1049.4317	3206.6333	994.7	120.9
1049.5343	3207.5652	997.1	118.85
1049.6369	3208.4964	995.35	119.2
1049.7394	3209.4271	992.65	116.55
1049.8419	3210.3571	988.55	113.1
1049.9444	3211.2865	991.4	115.65
1050.0468	3212.2154	989.5	112.55
1050.1491	3213.1436	990.4	111.85
1050.2514	3214.0712	998.15	115.25
1050.3537	3214.9982	989.2	114.15
1050.4559	3215.9246	988.5	113.5
1050.5581	3216.8503	986.3	111.65
1050.6602	3217.7755	985.1	108.05
1050.7623	3218.7001	986.4	109.6
1050.8643	3219.624	985.6	110.15
1050.9663	3220.5473	986.65	109.7
1051.0682	3221.4701	983.65	106.85
1051.1701	3222.3922	986.65	110.5
1051.2719	3223.3137	982.65	107.55
1051.3737	3224.2346	981.35	106.95
1051.4754	3225.1549	978.7	103.6
1051.5771	3226.0746	980.4	103.95
1051.6788	3226.9937	978.9	103.05
1051.7804	3227.9121	977.9	104.3
1051.8819	3228.83	979.65	103.95
1051.9834	3229.7473	978.45	102.7
1052.0849	3230.6639	977.6	101.45
1052.1863	3231.5799	979.95	105.75
1052.2876	3232.4954	976.1	102.15
1052.3889	3233.4102	977.35	102.05
1052.4902	3234.3244	980.75	104.35
1052.5914	3235.238	975.2	100.6
1052.6926	3236.151	988.45	99.85
1052.7937	3237.0634	970.5	94.85
1052.8948	3237.9752	976.15	100.9
1052.9958	3238.8864	975.25	99.25
1053.0968	3239.797	969.6	93.95
1053.1977	3240.7069	972	97.65
1053.2986	3241.6163	970.75	94.85
1053.3994	3242.5251	970.85	95.5
1053.5002	3243.4332	971.85	98.55
1053.6009	3244.3408	969.3	92.5
1053.7016	3245.2477	966	91.1
1053.8022	3246.154	966.5	90.1
1053.9028	3247.0598	967.4	90.6
1054.0034	3247.9649	965.95	89.95
1054.1039	3248.8694	965.05	89.3
1054.2043	3249.7733	964.4	89.8
1054.3047	3250.6766	962.4	87.35
1054.4051	3251.5793	964.75	88.8
1054.5054	3252.4814	962.4	88.25
1054.6056	3253.3829	959.3	83.55
1054.7058	3254.2838	957.45	82.85
1054.806	3255.1841	960.65	85.85
1054.9061	3256.0838	960.05	84.5
1055.0061	3256.9829	959.2	85.05
1055.1062	3257.8814	959.9	81.65
1055.2061	3258.7792	963.2	86.2
1055.306	3259.6765	954.9	78.4
1055.4059	3260.5731	958.45	83.45
1055.5057	3261.4692	952.2	75.4
1055.6055	3262.3647	954.05	79.45
1055.7052	3263.2595	947.45	72.3
1055.8049	3264.1538	951.75	77.15
1055.9045	3265.0474	948.95	72.85
1056.0041	3265.9404	949.25	74.25
1056.1036	3266.8329	944.7	71.85
1056.2031	3267.7247	955.55	71.3
1056.3025	3268.616	939.25	65.8
1056.4019	3269.5066	944.6	69
1056.5013	3270.3966	942	64.65
1056.6005	3271.286	937	62.8
