Software Version:	3.9.2.0
Unit SN:	10000200
Spectrometer SN:	6960
Date:	3/8/2024 12:02:03 PM
Data Line Index:	25
Spectral Points:	2048
Integration time (ms):	125
Averages:	20
Delay (ms):	30000
Sequence Number:	1
Processing:	dark subtract
Laser Power (mW):	305
Laser Current (mA):	821
Laser Diode Temp (C):	25
Laser Case Temp (C):	25.6
System Temp (C):	25.5
Spectrometer Temp (C):	23.4
CCD Temp (C):	0.007
Secondary Temp (C):	20.033
Heatsink Temp (C):	20.294
CCDPCB Temp (C):	34.228
SecondaryPCB Temp (C):	27.97

Wavelength	RamanShift	Raw Counts	Dark Subtracted
787.061	30.1047	415.1	6.6
787.2016	32.3739	413.65	5.85
787.3422	34.6426	413.8	6.65
787.4828	36.9109	415.95	6.7
787.6235	39.1787	420.7	7.05
787.7642	41.4461	426.6	7.9
787.9049	43.7131	430.2	7.45
788.0456	45.9796	432.45	8
788.1863	48.2456	438	8.9
788.3271	50.5112	443.1	10.15
788.4679	52.7764	447.15	10.9
788.6087	55.0411	450.75	11.55
788.7496	57.3054	455.65	10.45
788.8904	59.5692	458.95	12.15
789.0313	61.8326	463.7	15
789.1722	64.0955	466.05	13.95
789.3132	66.3579	473.45	15.15
789.4541	68.6199	478.7	15.75
789.5951	70.8815	491	24
789.7361	73.1426	506.2	37.25
789.8771	75.4032	539.45	66.7
790.0181	77.6634	614.85	137.6
790.1592	79.9231	782.9	299.95
790.3003	82.1824	1128.15	636.9
790.4414	84.4412	1686.7	1176.5
790.5825	86.6995	2398.35	1863.25
790.7237	88.9574	3074.95	2522.95
790.8648	91.2148	3518.65	2953.55
791.006	93.4717	3729.2	3154.4
791.1472	95.7282	3748.5	3171.45
791.2885	97.9842	3735.6	3156.15
791.4297	100.2398	3673.9	3092.55
791.571	102.4949	3616.75	3030.65
791.7123	104.7495	3583.2	2996
791.8536	107.0036	3526.45	2934.9
791.9949	109.2573	3447.7	2857.65
792.1363	111.5105	3352.35	2757.35
792.2777	113.7632	3259.3	2662.7
792.4191	116.0154	3170.9	2562.7
792.5605	118.2672	3055.9	2456.05
792.7019	120.5185	2961.8	2360.4
792.8434	122.7693	2860.4	2256.2
792.9849	125.0197	2786.8	2179.35
793.1264	127.2696	2717.8	2101.45
793.2679	129.519	2694.6	2077.6
793.4094	131.7679	2666.95	2047.55
793.551	134.0163	2650	2029.9
793.6926	136.2642	2633.5	2006.9
793.8342	138.5117	2631.7	1998.85
793.9758	140.7587	2580.85	1953.1
794.1175	143.0052	2544.5	1913.6
794.2591	145.2512	2491	1860.9
794.4008	147.4967	2440.35	1808.2
794.5425	149.7417	2409.7	1774.55
794.6842	151.9863	2386.05	1746.2
794.826	154.2304	2382.75	1738.85
794.9677	156.4739	2368.45	1717.5
795.1095	158.717	2382.3	1732.35
795.2513	160.9596	2416.05	1760.7
795.3931	163.2017	2432.15	1779
795.535	165.4433	2429.7	1772.35
795.6768	167.6844	2424.4	1763.65
795.8187	169.925	2383.65	1721.2
795.9606	172.1651	2337.1	1669.7
796.1025	174.4047	2295.85	1629.55
796.2445	176.6439	2247.7	1578.45
796.3864	178.8825	2232.65	1556.15
796.5284	181.1206	2205.45	1528.55
796.6704	183.3582	2199.6	1520.2
796.8124	185.5954	2199.35	1515.35
796.9544	187.832	2205.2	1517.4
797.0965	190.0681	2206.95	1518.1
797.2386	192.3037	2210.6	1516.25
797.3806	194.5388	2214.75	1518
797.5228	196.7734	2228.4	1528.85
797.6649	199.0075	2237.4	1539.4
797.807	201.2411	2260.55	1560.8
797.9492	203.4742	2283.9	1583.5
798.0914	205.7068	2312.55	1605.1
798.2336	207.9389	2327.5	1620.5
798.3758	210.1704	2338.1	1632.05
798.518	212.4015	2323.05	1630.5
798.6603	214.632	2333.55	1648.65
798.8025	216.862	2346.1	1664.9
798.9448	219.0915	2342.35	1656.4
799.0871	221.3205	2352.45	1664.45
799.2294	223.549	2353.4	1669.35
799.3718	225.777	2348.6	1662.85
799.5141	228.0044	2353.85	1663.3
799.6565	230.2314	2344.75	1650.85
799.7989	232.4578	2330.2	1633.9
799.9413	234.6837	2325.1	1615.6
800.0837	236.909	2301.85	1593.9
800.2262	239.1339	2323.15	1588.55
800.3687	241.3582	2300.6	1581.8
800.5111	243.582	2335.35	1586.85
800.6536	245.8053	2325.75	1591.25
800.7961	248.0281	2332.95	1605.3
800.9387	250.2503	2339.15	1602.75
801.0812	252.472	2348.1	1610.65
801.2238	254.6932	2355.15	1621.95
801.3664	256.9139	2363.75	1628.3
801.509	259.134	2375.45	1633.35
801.6516	261.3536	2406.4	1666.35
801.7942	263.5727	2441	1704.15
801.9369	265.7912	2484.45	1745
802.0795	268.0092	2548.25	1807.55
802.2222	270.2267	2589.35	1848.2
802.3649	272.4436	2627.35	1883.5
802.5076	274.6601	2666.6	1913.25
802.6504	276.8759	2690.8	1943.05
802.7931	279.0913	2713.6	1967.05
802.9359	281.3061	2716.75	1969.55
803.0787	283.5204	2731.85	1976.2
803.2215	285.7341	2779.4	2024.45
803.3643	287.9473	2782.85	2027.5
803.5071	290.16	2788.2	2027.1
803.6499	292.3721	2750.75	1995.6
803.7928	294.5837	2717	1961
803.9357	296.7947	2699	1941.2
804.0786	299.0052	2704.6	1946.75
804.2215	301.2152	2673.05	1914.7
804.3644	303.4246	2658.7	1902.9
804.5074	305.6334	2629.4	1873.7
804.6503	307.8418	2625.2	1864.4
804.7933	310.0495	2589.45	1829.4
804.9363	312.2568	2550.15	1784.8
805.0793	314.4635	2504.65	1737.55
805.2223	316.6696	2462	1695.3
805.3653	318.8752	2427.25	1651.65
805.5084	321.0802	2399	1627.65
805.6514	323.2847	2388.5	1616.65
805.7945	325.4887	2402	1632.8
805.9376	327.692	2421.6	1647.4
806.0807	329.8949	2454.35	1680.35
806.2238	332.0972	2484.85	1711.8
806.367	334.2989	2510.4	1730.45
806.5101	336.5001	2499.35	1720.5
806.6533	338.7007	2460.9	1682
806.7965	340.9008	2437.3	1656
806.9397	343.1003	2385.2	1604.45
807.0829	345.2992	2341.45	1558.6
807.2261	347.4976	2286.2	1502.3
807.3693	349.6955	2274.2	1486.05
807.5126	351.8927	2260.9	1472.1
807.6559	354.0895	2251.55	1450.35
807.7991	356.2856	2241.9	1450.5
807.9424	358.4812	2215.35	1423.75
808.0857	360.6763	2213.2	1420.1
808.2291	362.8707	2212.2	1417.75
808.3724	365.0646	2213.5	1416.75
808.5158	367.258	2229.2	1429.35
808.6591	369.4508	2242	1440.2
808.8025	371.643	2274.5	1468.65
808.9459	373.8346	2299	1494.8
809.0893	376.0257	2324.1	1515.5
809.2327	378.2162	2356.15	1550.5
809.3762	380.4062	2348.75	1540.95
809.5196	382.5956	2322.8	1515.9
809.6631	384.7844	2296.55	1495.05
809.8066	386.9726	2249.5	1452.05
809.9501	389.1603	2230.9	1434.9
810.0936	391.3474	2247.65	1416.75
810.2371	393.5339	2226.55	1425.7
810.3806	395.7199	2218.75	1418.4
810.5241	397.9052	2258.95	1460.75
810.6677	400.09	2292.5	1491.5
810.8113	402.2743	2339.65	1539.1
810.9548	404.4579	2378.7	1576.4
811.0984	406.641	2416.95	1614.55
811.2421	408.8235	2462.85	1660.05
811.3857	411.0054	2489.9	1686.3
811.5293	413.1868	2555.45	1744.15
811.673	415.3675	2612.9	1799.1
811.8166	417.5477	2602	1786.3
811.9603	419.7273	2540.95	1725.65
812.104	421.9064	2469.45	1647.2
812.2477	424.0848	2406.35	1587.85
812.3914	426.2627	2359.2	1540.5
812.5351	428.4399	2290.35	1471.2
812.6788	430.6166	2258.3	1437.15
812.8226	432.7928	2204.55	1379.3
812.9663	434.9683	2175.1	1350.9
813.1101	437.1432	2148.4	1326.2
813.2539	439.3176	2116.7	1292.75
813.3977	441.4914	2112.4	1295.85
813.5415	443.6645	2113.2	1290.8
813.6853	445.8371	2121	1298.7
813.8291	448.0091	2104.65	1282.3
813.973	450.1806	2105.35	1282.05
814.1168	452.3514	2096.9	1271.45
814.2607	454.5216	2108.75	1274.85
814.4046	456.6913	2107.05	1280.6
814.5485	458.8603	2112.4	1287.35
814.6924	461.0288	2104.8	1281.05
814.8363	463.1967	2101.85	1276.15
814.9802	465.3639	2105.95	1280.6
815.1241	467.5306	2100.35	1272.65
815.2681	469.6967	2091.35	1268.15
815.412	471.8622	2076.7	1253
815.556	474.0271	2072.75	1246.1
815.7	476.1914	2080.55	1248.9
815.844	478.3551	2075.45	1248.05
815.988	480.5182	2084.45	1255.95
816.132	482.6807	2068.6	1242.4
816.276	484.8426	2102.95	1281.2
816.4201	487.0039	2141.4	1315.85
816.5641	489.1647	2195.05	1362.35
816.7082	491.3248	2235.1	1406.75
816.8522	493.4843	2227.6	1397.1
816.9963	495.6432	2225.25	1395.25
817.1404	497.8015	2203.5	1366.4
817.2845	499.9592	2173.55	1333.55
817.4286	502.1163	2126.1	1287.75
817.5727	504.2728	2068.8	1233.05
817.7168	506.4287	2058.4	1227.5
817.861	508.5839	2032.3	1199.45
818.0051	510.7386	2033.95	1196.15
818.1493	512.8927	2043.35	1203
818.2935	515.0461	2054.55	1216.3
818.4377	517.199	2077.3	1237
818.5818	519.3512	2104.65	1263.7
818.726	521.5029	2177.7	1333.2
818.8703	523.6539	2223.05	1380
819.0145	525.8043	2231.4	1386.2
819.1587	527.9541	2179.6	1335.55
819.303	530.1033	2125.55	1283.25
819.4472	532.2519	2074.65	1229.25
819.5915	534.3999	2045.85	1202.35
819.7357	536.5472	2042.8	1200
819.88	538.694	2037.05	1192.9
820.0243	540.8401	2062.9	1218.45
820.1686	542.9856	2082	1230.8
820.3129	545.1305	2095.55	1241.95
820.4572	547.2748	2109.35	1257.35
820.6016	549.4185	2109	1252.4
820.7459	551.5615	2111.3	1259.5
820.8902	553.704	2142.9	1288.5
821.0346	555.8458	2148.1	1299.85
821.1789	557.987	2169.4	1322.45
821.3233	560.1276	2198.05	1347.7
821.4677	562.2675	2239.85	1393.15
821.6121	564.4069	2293.55	1443.5
821.7565	566.5456	2339.85	1489.05
821.9009	568.6837	2330.25	1480.1
822.0453	570.8212	2251.2	1400.35
822.1897	572.958	2205.2	1355.35
822.3342	575.0942	2148.65	1301.9
822.4786	577.2299	2101.15	1253.75
822.6231	579.3648	2070.4	1227.35
822.7675	581.4992	2060.2	1218.45
822.912	583.6329	2071.85	1232.95
823.0565	585.766	2101.75	1259.7
823.201	587.8985	2143.6	1297.85
823.3454	590.0304	2195.15	1332.65
823.4899	592.1616	2201.15	1342.55
823.6345	594.2922	2198.55	1342.75
823.779	596.4222	2161.1	1302
823.9235	598.5515	2102.1	1245
824.068	600.6802	2056	1199.15
824.2126	602.8083	2027.9	1169.8
824.3571	604.9358	2008.35	1150.4
824.5017	607.0626	2007.65	1149.05
824.6462	609.1888	2034.35	1173.85
824.7908	611.3144	2055.9	1193.95
824.9354	613.4393	2093.7	1234.4
825.08	615.5636	2139.4	1278.95
825.2246	617.6873	2167.35	1305.5
825.3692	619.8103	2198.2	1336.4
825.5138	621.9327	2200.4	1336.65
825.6584	624.0544	2165.25	1304.6
825.803	626.1756	2101.7	1240.65
825.9477	628.2961	2068.6	1203.55
826.0923	630.4159	2049.9	1185.25
826.237	632.5351	2038.9	1178.3
826.3816	634.6537	2028.5	1163.25
826.5263	636.7716	2026.3	1155.75
826.6709	638.8889	2015.1	1146.5
826.8156	641.0056	2021	1152.75
826.9603	643.1216	2031.2	1163.25
827.105	645.237	2030.05	1161.6
827.2497	647.3518	1999.45	1137.6
827.3944	649.4659	1986.15	1127.15
827.5391	651.5793	1983.6	1121.95
827.6838	653.6922	1975.6	1111.85
827.8285	655.8043	1954.85	1091.15
827.9733	657.9159	1947	1081.45
828.118	660.0268	1938.1	1073.3
828.2627	662.137	1941.1	1073.75
828.4075	664.2466	1934.25	1061.3
828.5522	666.3556	1938.95	1067.45
828.697	668.4639	1932.6	1062.4
828.8418	670.5716	1916.25	1048.4
828.9865	672.6786	1919.05	1048.3
829.1313	674.785	1913.45	1042.65
829.2761	676.8907	1902.35	1033.25
829.4209	678.9958	1912.45	1048.35
829.5657	681.1002	1915.65	1044.05
829.7105	683.204	1914.6	1037.15
829.8553	685.3072	1906.75	1031.35
830.0001	687.4097	1903.2	1031.9
830.1449	689.5115	1909.85	1035.3
830.2898	691.6127	1905.5	1033.95
830.4346	693.7132	1900.6	1030.35
830.5794	695.8131	1927.25	1034.8
830.7243	697.9123	1913.7	1037.85
830.8691	700.0109	1909.85	1035.85
831.014	702.1089	1922.3	1047.45
831.1588	704.2061	1940.95	1066.05
831.3037	706.3028	1962.5	1085.8
831.4486	708.3987	1977.65	1101.4
831.5935	710.4941	1986.35	1112.5
831.7383	712.5887	1996.35	1119.95
831.8832	714.6827	1992.5	1112.2
832.0281	716.7761	1977	1100.75
832.173	718.8688	1969.4	1090.65
832.3179	720.9608	1986.3	1103.15
832.4628	723.0522	2012.9	1128.45
832.6077	725.1429	2028.4	1148.4
832.7527	727.233	2067.45	1190.5
832.8976	729.3224	2125.6	1245.6
833.0425	731.4112	2160.2	1279.9
833.1874	733.4993	2173.7	1296
833.3324	735.5867	2109.95	1228.1
833.4773	737.6735	2044.15	1163.75
833.6222	739.7596	1999.3	1117
833.7672	741.845	1973.55	1095.1
833.9122	743.9298	1975.35	1094.55
834.0571	746.014	1982.85	1104.45
834.2021	748.0974	1984.7	1098.5
834.347	750.1802	1995.45	1111.85
834.492	752.2624	1978.6	1096.95
834.637	754.3439	1970.2	1085.4
834.782	756.4247	1968.05	1078.45
834.9269	758.5048	1974.1	1093.4
835.0719	760.5843	1995.15	1111.85
835.2169	762.6631	2018.5	1132.25
835.3619	764.7413	2065.75	1182.9
835.5069	766.8188	2149.45	1261.7
835.6519	768.8956	2221.9	1337.75
835.7969	770.9718	2275.45	1392.2
835.9419	773.0473	2270.85	1385.5
836.0869	775.1221	2253.25	1369.05
836.232	777.1962	2239.5	1355.85
836.377	779.2697	2292.2	1406.3
836.522	781.3426	2385.55	1484.35
836.667	783.4147	2416.5	1529.3
836.8121	785.4862	2392.1	1509.7
836.9571	787.557	2306.95	1418.85
837.1021	789.6271	2194.85	1304.55
837.2472	791.6966	2079.9	1193.15
837.3922	793.7654	2001.2	1114.5
837.5373	795.8335	1956.85	1071.05
837.6823	797.901	1929.25	1043.75
837.8274	799.9678	1927.2	1036.75
837.9724	802.0339	1932.45	1043.55
838.1175	804.0993	1940.85	1043.55
838.2626	806.1641	1908.1	1020.15
838.4076	808.2282	1898.4	1007.75
838.5527	810.2916	1874.35	985.2
838.6978	812.3544	1865	977.9
838.8428	814.4164	1862.5	976.45
838.9879	816.4778	1868.25	978.5
839.133	818.5385	1877.75	986.75
839.2781	820.5986	1921.55	1033.55
839.4232	822.658	1960.95	1070.1
839.5682	824.7166	2017.55	1126.95
839.7133	826.7747	2108.55	1217.25
839.8584	828.832	2172.6	1281.8
840.0035	830.8886	2229.7	1335.35
840.1486	832.9446	2251.6	1357.8
840.2937	834.9999	2200.5	1309.7
840.4388	837.0545	2148.1	1255
840.5839	839.1085	2069.3	1178.8
840.729	841.1618	2000.8	1104.5
840.8741	843.2143	1953.6	1061.05
841.0192	845.2662	1923.05	1029.75
841.1643	847.3175	1907.65	1015.25
841.3095	849.368	1900.45	1010.3
841.4546	851.4179	1887.55	995.35
841.5997	853.467	1894.95	1002.85
841.7448	855.5155	1905.9	1015.05
841.8899	857.5633	1900.6	1006.05
842.0351	859.6105	1895.05	1002.65
842.1802	861.6569	1877.15	983.9
842.3253	863.7027	1869.75	975.9
842.4704	865.7478	1860.25	966.95
842.6156	867.7922	1855.85	963.85
842.7607	869.8359	1848.25	955.15
842.9058	871.8789	1847.5	951.6
843.0509	873.9212	1878.9	953
843.1961	875.9629	1858.55	962.95
843.3412	878.0039	1866.05	970.5
843.4863	880.0441	1874.25	981.35
843.6315	882.0837	1895.1	998.05
843.7766	884.1226	1918.7	1023.45
843.9218	886.1609	1957.75	1062.6
844.0669	888.1984	1993.15	1099.2
844.212	890.2352	2030.15	1137.65
844.3572	892.2714	2041.35	1142.25
844.5023	894.3069	2021	1124.15
844.6475	896.3416	1973.65	1076.65
844.7926	898.3757	1936.4	1041.2
844.9377	900.4091	1913.55	1018.05
845.0829	902.4418	1910.85	1008.15
845.228	904.4739	1931.55	1034.7
845.3732	906.5052	1938.8	1040.25
845.5183	908.5358	1934.1	1036.65
845.6635	910.5658	1908.45	1011.3
845.8086	912.595	1882.25	983.85
845.9538	914.6236	1846.15	948.05
846.0989	916.6515	1823.05	925.9
846.2441	918.6786	1798.75	901.9
846.3892	920.7051	1793.8	893.7
846.5344	922.7309	1804.2	907.05
846.6795	924.756	1794.65	897.35
846.8246	926.7804	1807.65	909.55
846.9698	928.8041	1811.75	911.15
847.1149	930.8272	1825.2	925.65
847.2601	932.8495	1836.8	937.95
847.4052	934.8711	1844.6	945.95
847.5504	936.892	1845.1	945.7
847.6955	938.9123	1868.6	967.35
847.8407	940.9318	1890.3	989.8
847.9858	942.9506	1899.95	1001.3
848.131	944.9688	1891.7	993.15
848.2761	946.9862	1866	966.7
848.4213	949.003	1838.75	939.05
848.5664	951.019	1811.9	912.5
848.7115	953.0344	1797.75	895
848.8567	955.0491	1790.65	891.55
849.0018	957.063	1781.75	882.25
849.147	959.0763	1786.7	887.95
849.2921	961.0888	1783	883.55
849.4373	963.1007	1767.75	869.45
849.5824	965.1119	1769.35	876
849.7275	967.1223	1762.25	868.15
849.8727	969.1321	1761.45	870.35
850.0178	971.1412	1756.8	864.3
850.1629	973.1495	1753.15	854.9
850.3081	975.1572	1781.2	848.1
850.4532	977.1641	1759.15	860.05
850.5983	979.1704	1755.55	858.25
850.7435	981.1759	1754.9	851.95
850.8886	983.1808	1739.65	838.9
851.0337	985.1849	1756.6	842.5
851.1788	987.1884	1743.1	842.5
851.324	989.1911	1748	846.25
851.4691	991.1932	1749.45	848.35
851.6142	993.1945	1740.1	841.6
851.7593	995.1951	1748.65	848.25
851.9045	997.1951	1750.7	844.75
852.0496	999.1943	1743.3	842.65
852.1947	1001.1928	1749.65	848.55
852.3398	1003.1906	1759.5	858.45
852.4849	1005.1877	1785.2	883.75
852.63	1007.1841	1802.7	897.8
852.7751	1009.1798	1811.3	911.3
852.9202	1011.1748	1795.2	896.3
853.0653	1013.1691	1781.3	876.85
853.2104	1015.1627	1746.55	844.4
853.3555	1017.1556	1723.75	824.8
853.5006	1019.1477	1707.15	808.55
853.6457	1021.1392	1686.5	793.95
853.7908	1023.1299	1669.2	774.15
853.9359	1025.12	1681.25	785.65
854.081	1027.1093	1687.65	797.4
854.2261	1029.0979	1691.3	809.1
854.3712	1031.0859	1715.75	826.6
854.5163	1033.0731	1730	837.05
854.6613	1035.0596	1737.15	838.75
854.8064	1037.0454	1723	822.35
854.9515	1039.0304	1710.95	808.65
855.0965	1041.0148	1689.4	789.5
855.2416	1042.9985	1679.9	779.25
855.3867	1044.9814	1665.4	766.8
855.5317	1046.9636	1668.95	767.3
855.6768	1048.9452	1675.05	775.2
855.8219	1050.926	1691.4	789.8
855.9669	1052.9061	1698.85	799.85
856.112	1054.8855	1706.95	805.75
856.257	1056.8642	1704.9	802.55
856.4021	1058.8421	1700.3	795.75
856.5471	1060.8194	1697.25	796.6
856.6921	1062.7959	1694.45	793.3
856.8372	1064.7717	1702.55	798.75
856.9822	1066.7469	1701.5	799.5
857.1272	1068.7213	1709.25	804.85
857.2723	1070.695	1721.25	821.65
857.4173	1072.6679	1730.75	830.85
857.5623	1074.6402	1752.25	848.6
857.7073	1076.6117	1759.65	851.4
857.8523	1078.5826	1729.4	823.45
857.9973	1080.5527	1706.15	802.4
858.1423	1082.5221	1674.65	771.6
858.2873	1084.4908	1649.75	747.95
858.4323	1086.4587	1640.25	736.75
858.5773	1088.426	1633.15	728.2
858.7223	1090.3925	1640.15	735.55
858.8673	1092.3584	1636.35	734.1
859.0123	1094.3235	1661.2	760.4
859.1573	1096.2879	1665.05	760.9
859.3022	1098.2515	1681.9	781.95
859.4472	1100.2145	1715.85	816.05
859.5922	1102.1767	1756.5	852.45
859.7371	1104.1382	1782.6	880
859.8821	1106.099	1821.35	916.05
860.027	1108.0591	1864.95	963
860.172	1110.0185	1907.75	1005
860.3169	1111.9771	1937.35	1036.1
860.4619	1113.9351	1986.1	1084.7
860.6068	1115.8923	2027.4	1125.6
860.7517	1117.8488	2045.35	1138.75
860.8967	1119.8045	1986.05	1082.35
861.0416	1121.7596	1911	1009.1
861.1865	1123.7139	1819.2	916.85
861.3314	1125.6675	1783.3	882.6
861.4763	1127.6204	1784	884.35
861.6212	1129.5726	1800.35	897.8
861.7661	1131.524	1791.5	888.8
861.911	1133.4748	1757.45	854.75
862.0559	1135.4248	1706.1	801.6
862.2008	1137.3741	1661.65	761.15
862.3457	1139.3226	1646.95	742.5
862.4905	1141.2705	1653.7	751.05
862.6354	1143.2176	1649.65	742.65
862.7803	1145.164	1665.55	760.75
862.9251	1147.1097	1651.85	747.95
863.07	1149.0546	1636.5	732.85
863.2148	1150.9989	1610.5	709.25
863.3597	1152.9424	1595.55	691.75
863.5045	1154.8852	1586.05	683.55
863.6493	1156.8272	1590.05	689.05
863.7942	1158.7686	1586.75	677.1
863.939	1160.7092	1587.85	684.6
864.0838	1162.6491	1585.3	680.25
864.2286	1164.5883	1600	696.65
864.3734	1166.5267	1617.6	713.5
864.5182	1168.4644	1633.8	732.8
864.663	1170.4014	1670.2	763.1
864.8078	1172.3377	1702.65	804.35
864.9526	1174.2732	1747.6	845.55
865.0974	1176.2081	1837.05	935.3
865.2421	1178.1421	1947.85	1038.9
865.3869	1180.0755	2036.85	1133.05
865.5317	1182.0082	2068.9	1167.3
865.6764	1183.9401	2057.55	1156.35
865.8212	1185.8713	1959.55	1060.45
865.9659	1187.8017	1849.7	955.55
866.1106	1189.7315	1758.05	865.6
866.2554	1191.6605	1719.75	801.1
866.4001	1193.5888	1661.75	763.2
866.5448	1195.5163	1631.6	735.35
866.6895	1197.4432	1620.1	719.9
866.8342	1199.3693	1605.15	705
866.9789	1201.2947	1597.35	693.4
867.1236	1203.2193	1583.05	680.5
867.2683	1205.1432	1588.05	686.5
867.413	1207.0664	1587.8	687
867.5576	1208.9889	1589.8	686.7
867.7023	1210.9106	1587.1	684.2
867.847	1212.8316	1590.4	689.3
867.9916	1214.7519	1604.25	692.65
868.1363	1216.6715	1611.2	709.9
868.2809	1218.5903	1624.75	721.15
868.4255	1220.5084	1638.95	738.3
868.5701	1222.4257	1654.6	751.1
868.7148	1224.3424	1658.45	758.45
868.8594	1226.2583	1683.4	779.25
869.004	1228.1735	1708.2	806.7
869.1486	1230.0879	1740.15	835.9
869.2932	1232.0016	1781.55	877.9
869.4377	1233.9146	1813.5	910.45
869.5823	1235.8269	1831.6	930.3
869.7269	1237.7384	1840.8	940
869.8715	1239.6492	1845.15	943.65
870.016	1241.5592	1865.6	962.1
870.1606	1243.4686	1902.9	1001.45
870.3051	1245.3772	1967.1	1064.2
870.4496	1247.285	2042.45	1138.15
870.5941	1249.1922	2125.75	1222.7
870.7387	1251.0986	2186.5	1285.4
870.8832	1253.0042	2247	1347.45
871.0277	1254.9092	2331.8	1430.2
871.1722	1256.8134	2392.3	1491.65
871.3167	1258.7169	2447.95	1544.9
871.4611	1260.6196	2435.55	1533.1
871.6056	1262.5216	2436.8	1532.8
871.7501	1264.4229	2424.25	1522.2
871.8945	1266.3234	2395.7	1493.95
872.039	1268.2232	2356.15	1451.45
872.1834	1270.1223	2327.5	1423.15
872.3278	1272.0207	2296.3	1393.05
872.4723	1273.9183	2280.35	1371.7
872.6167	1275.8151	2285.15	1384.65
872.7611	1277.7113	2332.35	1429.8
872.9055	1279.6067	2412.2	1511.5
873.0499	1281.5014	2526.85	1621.85
873.1943	1283.3953	2688.05	1785.25
873.3386	1285.2885	2821.85	1918.15
873.483	1287.181	2921.85	2019.55
873.6274	1289.0727	2950.95	2052.5
873.7717	1290.9637	2917.2	2014.1
873.9161	1292.854	2842.05	1942.65
874.0604	1294.7435	2761.9	1859.1
874.2047	1296.6323	2682.7	1779.7
874.349	1298.5204	2602.3	1695.15
874.4933	1300.4077	2549.65	1643.6
874.6376	1302.2943	2509.55	1606.8
874.7819	1304.1802	2492.1	1589.9
874.9262	1306.0653	2451.95	1547.2
875.0705	1307.9497	2414.35	1512.25
875.2147	1309.8333	2371.5	1470.2
875.359	1311.7162	2345.65	1443.8
875.5032	1313.5984	2313.6	1408.75
875.6475	1315.4798	2302.4	1389.6
875.7917	1317.3605	2293.3	1372.8
875.9359	1319.2405	2266.6	1361.75
876.0801	1321.1197	2226.75	1322.75
876.2243	1322.9982	2178.15	1269.85
876.3685	1324.876	2109.85	1206.85
876.5127	1326.753	2013.6	1111.5
876.6569	1328.6293	1951.95	1048.2
876.801	1330.5048	1883	979.1
876.9452	1332.3796	1829	926.2
877.0893	1334.2537	1812.35	883.35
877.2335	1336.127	1757	853.75
877.3776	1337.9996	1735.3	831.15
877.5217	1339.8714	1708.1	806.45
877.6658	1341.7426	1740.45	791.5
877.8099	1343.6129	1700.55	794.25
877.954	1345.4826	1675.1	770.1
878.0981	1347.3515	1674.05	770.25
878.2422	1349.2196	1666.25	763.25
878.3862	1351.087	1657.2	754.45
878.5303	1352.9537	1659.15	754.85
878.6743	1354.8197	1652.9	750.65
878.8184	1356.6849	1665.85	761.25
878.9624	1358.5493	1682	780.2
879.1064	1360.4131	1700.1	796.5
879.2504	1362.276	1729.25	825.65
879.3944	1364.1383	1761.55	860.75
879.5384	1365.9998	1779.85	869.05
879.6823	1367.8606	1759.7	854.1
879.8263	1369.7206	1750.6	847.4
879.9702	1371.5799	1750.85	845.75
880.1142	1373.4384	1737.7	834.9
880.2581	1375.2962	1712.55	808.65
880.402	1377.1533	1664.1	761.85
880.5459	1379.0096	1620.25	719.55
880.6898	1380.8652	1590.4	690.25
880.8337	1382.7201	1561.2	663.95
880.9776	1384.5742	1546.45	642.4
881.1215	1386.4275	1536.8	632.65
881.2653	1388.2802	1520.4	617.9
881.4092	1390.132	1501.05	598.7
881.553	1391.9832	1494.25	589.2
881.6968	1393.8336	1486.65	585.3
881.8406	1395.6832	1480.45	575.75
881.9844	1397.5322	1470.85	565.45
882.1282	1399.3803	1460.05	551.75
882.272	1401.2278	1448.4	546
882.4158	1403.0745	1438.35	536.75
882.5595	1404.9204	1440.9	542.65
882.7033	1406.7656	1441.95	539.35
882.847	1408.6101	1443.55	539.35
882.9908	1410.4538	1427.05	523.35
883.1345	1412.2968	1435.95	534.25
883.2782	1414.139	1434.5	533.75
883.4219	1415.9805	1443.1	539.25
883.5656	1417.8213	1461.65	552.55
883.7092	1419.6613	1460.45	558.85
883.8529	1421.5006	1490.55	587.25
883.9965	1423.3391	1518.25	615.1
884.1402	1425.1769	1565.05	660.85
884.2838	1427.0139	1631.8	727.45
884.4274	1428.8502	1709.55	804.05
884.571	1430.6858	1755.35	852.95
884.7146	1432.5206	1777.95	876.45
884.8582	1434.3547	1781.4	877
885.0018	1436.188	1756.1	855.35
885.1453	1438.0206	1745.25	843.45
885.2889	1439.8524	1738.35	837.2
885.4324	1441.6835	1739.55	837.75
885.5759	1443.5139	1734.85	830.5
885.7194	1445.3435	1732.1	829.75
885.8629	1447.1724	1742.85	841.3
886.0064	1449.0005	1733.3	835.1
886.1499	1450.8279	1730.45	828.9
886.2933	1452.6545	1724.4	822.7
886.4368	1454.4804	1719.75	821
886.5802	1456.3056	1722.25	814.8
886.7237	1458.13	1704.55	805.9
886.8671	1459.9536	1680.75	776.05
887.0105	1461.7766	1649.55	748.95
887.1539	1463.5987	1613.75	708.3
887.2972	1465.4202	1586.3	684.9
887.4406	1467.2409	1545.4	643.8
887.584	1469.0608	1520.25	618.55
887.7273	1470.88	1498.5	594.5
887.8706	1472.6984	1474.55	574.45
888.0139	1474.5161	1458.95	554.9
888.1572	1476.3331	1434.1	534.85
888.3005	1478.1493	1437.6	535.1
888.4438	1479.9648	1425.4	524.65
888.5871	1481.7795	1435.15	531.45
888.7303	1483.5935	1431.9	530.45
888.8736	1485.4067	1429.15	527
889.0168	1487.2192	1431.5	528.2
889.16	1489.031	1427.95	524.15
889.3032	1490.842	1420.95	521.8
889.4464	1492.6522	1417.35	519.9
889.5896	1494.4618	1410.05	508.9
889.7327	1496.2705	1415.35	513.8
889.8759	1498.0785	1412.65	510.55
890.019	1499.8858	1399.25	496.9
890.1622	1501.6924	1405.45	505.3
890.3053	1503.4981	1390.6	490.05
890.4484	1505.3032	1389.95	486.45
890.5914	1507.1075	1380.35	481.15
890.7345	1508.911	1381.45	482.65
890.8776	1510.7138	1371.75	471.1
891.0206	1512.5159	1365.35	464.75
891.1637	1514.3172	1355.6	455.1
891.3067	1516.1178	1348.15	449.95
891.4497	1517.9176	1358.8	456.45
891.5927	1519.7166	1345.5	447
891.7357	1521.515	1340.75	434.9
891.8786	1523.3126	1333.65	435.45
892.0216	1525.1094	1336.35	432.9
892.1645	1526.9055	1323.55	425.25
892.3074	1528.7008	1322.25	422.15
892.4503	1530.4954	1327.2	424.5
892.5932	1532.2893	1321.95	422.75
892.7361	1534.0824	1319.75	416.2
892.879	1535.8747	1314.85	414.15
893.0218	1537.6663	1318.85	420.15
893.1647	1539.4572	1314.5	414.5
893.3075	1541.2473	1311.2	411.05
893.4503	1543.0367	1314.25	415.65
893.5931	1544.8253	1318.55	416.05
893.7359	1546.6132	1318.7	418.05
893.8787	1548.4003	1327.15	419.95
894.0214	1550.1867	1337.75	430.35
894.1642	1551.9723	1348.9	446.5
894.3069	1553.7572	1351.6	453
894.4496	1555.5414	1367.3	470.4
894.5923	1557.3247	1394	497.2
894.735	1559.1074	1421.3	525.75
894.8777	1560.8893	1450.5	556.15
895.0204	1562.6705	1483.8	586.25
895.163	1564.4509	1503.6	609.05
895.3056	1566.2305	1504.25	611.45
895.4482	1568.0094	1501.3	607.6
895.5908	1569.7876	1504.95	611.75
895.7334	1571.565	1495.15	598.15
895.876	1573.3417	1498.95	604.95
896.0186	1575.1176	1513	619.05
896.1611	1576.8928	1514.4	619.55
896.3036	1578.6672	1527.15	636.2
896.4461	1580.4409	1550.25	659.95
896.5886	1582.2138	1579.55	685.95
896.7311	1583.986	1603.7	709.75
896.8736	1585.7575	1634.3	741.8
897.0161	1587.5282	1658.15	766.55
897.1585	1589.2981	1674.5	783.25
897.3009	1591.0673	1698.9	806.95
897.4433	1592.8358	1700.65	811.1
897.5857	1594.6035	1707.15	809.15
897.7281	1596.3704	1697.4	803.6
897.8705	1598.1366	1678.85	786.7
898.0128	1599.9021	1669.4	776.5
898.1551	1601.6668	1647	752.65
898.2975	1603.4308	1643.05	747.1
898.4398	1605.194	1653.2	754.5
898.5821	1606.9564	1684.8	792.25
898.7243	1608.7182	1732.65	842.8
898.8666	1610.4791	1793.65	907.55
899.0088	1612.2394	1867.7	980.2
899.1511	1613.9988	1931.7	1044.15
899.2933	1615.7576	1991.95	1100.15
899.4355	1617.5156	2011.45	1112.5
899.5776	1619.2728	1965.2	1070.85
899.7198	1621.0293	1886.65	992.65
899.862	1622.785	1802.3	906.25
900.0041	1624.54	1694.55	802.5
900.1462	1626.2942	1603.9	711.35
900.2883	1628.0477	1535.25	641.15
900.4304	1629.8005	1480.5	585.45
900.5725	1631.5525	1420.3	530.65
900.7145	1633.3037	1382.45	492.2
900.8566	1635.0542	1342.85	453.25
900.9986	1636.804	1326.95	434.45
901.1406	1638.553	1379.75	418.35
901.2826	1640.3013	1291.15	401.95
901.4245	1642.0488	1271.75	379.75
901.5665	1643.7955	1258.2	369.25
901.7085	1645.5416	1252.3	361.9
901.8504	1647.2868	1245.65	356.15
901.9923	1649.0313	1234.15	340.65
902.1342	1650.7751	1239.9	345.95
902.2761	1652.5181	1230	339.05
902.4179	1654.2604	1231.55	341.7
902.5598	1656.0019	1236.9	347.5
902.7016	1657.7427	1251.6	363.05
902.8434	1659.4828	1269.65	377.85
902.9852	1661.222	1297.7	404.15
903.127	1662.9606	1315.8	423.25
903.2687	1664.6984	1340.3	446.9
903.4105	1666.4354	1331.15	435.6
903.5522	1668.1717	1309.45	414.95
903.6939	1669.9072	1272.2	376.45
903.8356	1671.642	1243.3	348.45
903.9773	1673.3761	1209.2	317.05
904.119	1675.1094	1190.6	297.55
904.2606	1676.8419	1172.1	280.65
904.4022	1678.5737	1163.35	270.5
904.5439	1680.3048	1158.9	265.6
904.6855	1682.0351	1151.95	258.75
904.827	1683.7646	1151.3	257.4
904.9686	1685.4934	1141.35	248.25
905.1101	1687.2215	1138	247.05
905.2517	1688.9488	1134.6	243.7
905.3932	1690.6754	1127.65	238.15
905.5347	1692.4012	1133.95	243.75
905.6761	1694.1263	1132.15	239.05
905.8176	1695.8506	1125.3	232.95
905.9591	1697.5742	1125.4	232.55
906.1005	1699.297	1120.45	229.5
906.2419	1701.0191	1114.25	225.2
906.3833	1702.7404	1118.95	229.35
906.5246	1704.461	1117.1	227.35
906.666	1706.1808	1114.2	222.05
906.8073	1707.8999	1106.75	215.75
906.9487	1709.6182	1103.35	214.15
907.09	1711.3358	1101.3	213.45
907.2313	1713.0527	1103.55	217
907.3725	1714.7688	1106.3	211.15
907.5138	1716.4841	1101.7	209.1
907.655	1718.1987	1107.45	214
907.7962	1719.9126	1097.85	209.3
907.9374	1721.6257	1100.9	211.15
908.0786	1723.338	1096.95	208.6
908.2198	1725.0496	1096.85	207.9
908.3609	1726.7605	1096	205.6
908.502	1728.4706	1099.15	210.85
908.6431	1730.18	1092.65	202.1
908.7842	1731.8886	1092.8	205.9
908.9253	1733.5964	1113.35	202.1
909.0664	1735.3036	1096.55	203.25
909.2074	1737.0099	1093.75	204.25
909.3484	1738.7156	1091.4	205.35
909.4894	1740.4204	1092	198.9
909.6304	1742.1246	1091.55	199.65
909.7714	1743.8279	1086.65	195.65
909.9123	1745.5306	1086.4	197.95
910.0532	1747.2325	1083.9	195.95
910.1941	1748.9336	1088.45	199.5
910.335	1750.634	1089.9	198.8
910.4759	1752.3336	1083.45	196.9
910.6168	1754.0325	1082.7	196.25
910.7576	1755.7307	1082	194.95
910.8984	1757.4281	1084.8	195.5
911.0392	1759.1247	1098.15	199.8
911.18	1760.8206	1092.55	197.4
911.3208	1762.5158	1087.2	192
911.4615	1764.2102	1079.6	189.45
911.6022	1765.9039	1077.4	189.65
911.7429	1767.5968	1075.6	188.1
911.8836	1769.289	1077.2	189.05
912.0243	1770.9804	1082.9	193
912.1649	1772.6711	1082.15	187.9
912.3056	1774.361	1084.75	192.95
912.4462	1776.0502	1081.25	192.5
912.5868	1777.7386	1080.8	188.2
912.7274	1779.4263	1078.5	190.85
912.8679	1781.1132	1077.4	189.95
913.0084	1782.7994	1077.95	190.1
913.149	1784.4849	1075.85	188.25
913.2895	1786.1696	1091.45	184.55
913.4299	1787.8535	1071.95	185.4
913.5704	1789.5367	1068.55	181
913.7108	1791.2192	1072.05	185.05
913.8513	1792.9009	1097.6	182.4
913.9917	1794.5818	1073.15	180.9
914.132	1796.2621	1070.95	182.2
914.2724	1797.9415	1070.2	180
914.4128	1799.6202	1072.3	180.9
914.5531	1801.2982	1073.5	183.45
914.6934	1802.9755	1072.1	179.85
914.8337	1804.6519	1068.1	178.1
914.9739	1806.3277	1068.35	179.9
915.1142	1808.0027	1063.3	177.2
915.2544	1809.6769	1058.65	173.65
915.3946	1811.3504	1063.15	176.05
915.5348	1813.0231	1062.3	176.3
915.675	1814.6951	1062.55	175
915.8151	1816.3664	1063.65	171.75
915.9553	1818.0369	1062.2	173.8
916.0954	1819.7067	1060.2	171.3
916.2355	1821.3757	1062.1	169.05
916.3755	1823.044	1063.45	176.2
916.5156	1824.7115	1062.95	172.1
916.6556	1826.3783	1063.45	176.05
916.7956	1828.0443	1060.35	170.6
916.9356	1829.7096	1062.3	171.05
917.0756	1831.3741	1063.7	171.5
917.2155	1833.0379	1054.8	166.85
917.3555	1834.701	1059.55	171.9
917.4954	1836.3633	1053.1	165.45
917.6353	1838.0248	1055.25	167.25
917.7751	1839.6856	1062.05	175
917.915	1841.3457	1061.05	175.2
918.0548	1843.005	1058.5	171.1
918.1946	1844.6636	1051.9	164.6
918.3344	1846.3214	1058	169.05
918.4742	1847.9785	1052.1	161.4
918.6139	1849.6349	1062.3	172.5
918.7537	1851.2904	1067.9	168.6
918.8934	1852.9453	1054.15	164.05
919.0331	1854.5994	1060.75	168.6
919.1727	1856.2528	1060.3	167.45
919.3124	1857.9054	1050.9	160.45
919.452	1859.5572	1052.85	164.1
919.5916	1861.2083	1050.4	162.1
919.7312	1862.8587	1048.95	158.6
919.8708	1864.5084	1054.65	162.9
920.0103	1866.1572	1054.35	161.9
920.1498	1867.8054	1051.2	160.15
920.2893	1869.4528	1049.7	159.7
920.4288	1871.0994	1054.65	164.55
920.5683	1872.7453	1050.5	161.55
920.7077	1874.3905	1057.15	158.65
920.8471	1876.0349	1049.35	158.85
920.9865	1877.6786	1047.5	158.3
921.1259	1879.3215	1048.1	160.3
921.2653	1880.9637	1049.55	159.1
921.4046	1882.6051	1048.65	160.55
921.5439	1884.2458	1047.85	159
921.6832	1885.8858	1050.35	160.35
921.8225	1887.525	1044.8	155.35
921.9617	1889.1634	1047.3	159.1
922.101	1890.8011	1049.25	158.55
922.2402	1892.4381	1046.7	157.85
922.3794	1894.0743	1043.7	156.35
922.5185	1895.7098	1042.8	156
922.6577	1897.3446	1044.45	155.5
922.7968	1898.9786	1044.75	152.5
922.9359	1900.6118	1038.9	149.35
923.075	1902.2443	1041.85	152.55
923.214	1903.8761	1039.4	149.35
923.3531	1905.5071	1038.65	151.75
923.4921	1907.1374	1041.6	153.2
923.6311	1908.7669	1042.25	151.85
923.77	1910.3957	1037.55	147.55
923.909	1912.0237	1039.25	150.95
924.0479	1913.651	1041.5	150.8
924.1868	1915.2776	1037.95	152.05
924.3257	1916.9034	1032.5	146.25
924.4646	1918.5285	1032.55	145.75
924.6034	1920.1528	1033.75	142.7
924.7422	1921.7764	1035	149.3
924.881	1923.3992	1036.75	148.55
925.0198	1925.0213	1037.85	149.35
925.1586	1926.6427	1030.6	143.55
925.2973	1928.2633	1243	137.4
925.436	1929.8832	1037.85	144.7
925.5747	1931.5023	1028.95	139.25
925.7134	1933.1207	1031.9	143.1
925.852	1934.7383	1030.7	141.3
925.9906	1936.3552	1030.4	142.1
926.1292	1937.9714	1028.9	139.1
926.2678	1939.5868	1033.35	142.85
926.4064	1941.2015	1027.4	135.8
926.5449	1942.8154	1032.3	141.65
926.6834	1944.4286	1031.15	141.3
926.8219	1946.041	1058.5	147.2
926.9604	1947.6528	1031.4	137.95
927.0988	1949.2637	1028.15	139.4
927.2372	1950.8739	1027.3	139.4
927.3756	1952.4834	1024	136
927.514	1954.0921	1027.4	139.25
927.6523	1955.7001	1030.9	137.95
927.7907	1957.3074	1021.4	134.7
927.929	1958.9139	1023.2	138.05
928.0673	1960.5197	1022.05	133.6
928.2055	1962.1247	1025.15	137.35
928.3438	1963.729	1022.45	139.75
928.482	1965.3325	1029.2	138.85
928.6202	1966.9353	1019.25	133.85
928.7584	1968.5374	1020.15	132.4
928.8965	1970.1387	1023.1	135.75
929.0346	1971.7393	1020.95	134.35
929.1727	1973.3392	1022.9	136.35
929.3108	1974.9383	1018.05	134.1
929.4489	1976.5366	1016.2	130.05
929.5869	1978.1342	1018.8	133.85
929.7249	1979.7311	1019.75	134
929.8629	1981.3273	1016.25	131
930.0009	1982.9227	1020.8	135.35
930.1388	1984.5173	1017.8	137.45
930.2767	1986.1112	1012.65	126.05
930.4146	1987.7044	1013.05	131.4
930.5525	1989.2968	1017.8	132.3
930.6904	1990.8885	1014.35	126.05
930.8282	1992.4795	1017.1	132.4
930.966	1994.0697	1007.45	122.4
931.1038	1995.6592	1013.25	130.9
931.2415	1997.2479	1012.05	128.4
931.3793	1998.8359	1014.7	131.9
931.517	2000.4232	1015.05	134.25
931.6547	2002.0097	1008.5	128.1
931.7923	2003.5955	1012.65	130.4
931.93	2005.1805	1013.05	128.5
932.0676	2006.7648	1010.9	130
932.2052	2008.3484	1009.35	126.75
932.3427	2009.9312	1010.15	126.5
932.4803	2011.5133	1007.85	130.2
932.6178	2013.0946	1007.85	126.2
932.7553	2014.6752	1006.85	126.7
932.8928	2016.2551	1007.75	124.6
933.0302	2017.8342	1008.95	126.75
933.1676	2019.4126	1009.85	129.4
933.305	2020.9902	1003.4	123.7
933.4424	2022.5672	1009.55	129.65
933.5798	2024.1433	1011.95	126.35
933.7171	2025.7188	1003.7	124.65
933.8544	2027.2935	1003.6	122.45
933.9917	2028.8674	1006.35	128.2
934.129	2030.4406	997.95	117.1
934.2662	2032.0131	1000.95	123.05
934.4034	2033.5849	1011.95	128.15
934.5406	2035.1559	1001.65	123.15
934.6778	2036.7261	1003.15	120.3
934.8149	2038.2957	1007.4	127.3
934.952	2039.8645	1005.75	122.65
935.0891	2041.4325	1009.1	126
935.2262	2042.9998	1002.85	123.9
935.3632	2044.5664	1006.2	124.8
935.5002	2046.1323	1000.45	121.6
935.6372	2047.6974	1003.95	124.3
935.7742	2049.2617	999.85	121.7
935.9111	2050.8254	1010.4	123.95
936.048	2052.3883	1008.2	126.35
936.1849	2053.9504	1007.9	125.8
936.3218	2055.5118	1005.9	122.6
936.4586	2057.0725	1007.25	122.2
936.5955	2058.6325	1001.55	119.95
936.7323	2060.1917	1003.75	125.6
936.869	2061.7502	1004.5	122.15
937.0058	2063.3079	1001.5	123.5
937.1425	2064.8649	1001.4	117.3
937.2792	2066.4212	1005.4	125.35
937.4159	2067.9767	1002.95	121.75
937.5525	2069.5315	1002.65	119.35
937.6891	2071.0856	1001.15	119.55
937.8257	2072.6389	1002.3	119.35
937.9623	2074.1915	998.75	118.95
938.0989	2075.7433	1003.65	122.3
938.2354	2077.2945	998.9	117.9
938.3719	2078.8448	1002.85	119.2
938.5084	2080.3945	1001.5	120.1
938.6448	2081.9434	1003.2	122.15
938.7812	2083.4916	1003.1	120.05
938.9176	2085.039	1003.8	117.9
939.054	2086.5857	1005.75	122.7
939.1903	2088.1317	1007.8	122.55
939.3267	2089.677	1003.7	117.6
939.463	2091.2215	1004.75	119.1
939.5992	2092.7652	1005.6	120.25
939.7355	2094.3083	1001	114.4
939.8717	2095.8506	1004.1	121.25
940.0079	2097.3921	1000.1	119.15
940.1441	2098.933	1000.6	118.45
940.2802	2100.4731	999.55	116.55
940.4163	2102.0124	1022	119.9
940.5524	2103.5511	1002.5	119.3
940.6885	2105.089	1003	120.4
940.8245	2106.6261	1002.6	118.9
940.9606	2108.1626	1000.9	115.5
941.0965	2109.6983	1031.05	118.2
941.2325	2111.2332	997.65	114.15
941.3684	2112.7675	1003.8	118.9
941.5044	2114.301	1005.65	120.6
941.6403	2115.8337	1003.15	121.75
941.7761	2117.3657	1004.3	119.35
941.912	2118.897	998.5	114.6
942.0478	2120.4276	1005.95	115.6
942.1835	2121.9575	1001.05	116.9
942.3193	2123.4866	1005.6	118.55
942.455	2125.0149	1003.6	117.65
942.5907	2126.5426	999.1	118.1
942.7264	2128.0695	1000.1	114.95
942.8621	2129.5956	994.85	117.95
942.9977	2131.1211	1003.95	120.85
943.1333	2132.6458	998.8	118.55
943.2689	2134.1698	1001.25	117.75
943.4044	2135.693	1001.6	114.25
943.54	2137.2155	1004.95	117.3
943.6755	2138.7373	997.8	113.1
943.8109	2140.2584	995.95	114.5
943.9464	2141.7787	1001.9	117.7
944.0818	2143.2983	993.75	115.2
944.2172	2144.8171	994.25	116.9
944.3526	2146.3353	995.35	112.1
944.4879	2147.8527	995.45	116.65
944.6232	2149.3693	998.6	116.8
944.7585	2150.8853	998.45	112.95
944.8938	2152.4005	996.7	111.35
945.029	2153.9149	997.65	112.35
945.1642	2155.4287	992.55	108.7
945.2994	2156.9417	998.35	114.05
945.4346	2158.454	995.6	110.5
945.5697	2159.9655	996.25	117.15
945.7048	2161.4764	996.45	115.45
945.8399	2162.9865	998.55	117.25
945.9749	2164.4958	996.3	114.6
946.1099	2166.0045	995.65	109.65
946.2449	2167.5124	999.5	117.75
946.3799	2169.0195	994.25	113
946.5148	2170.526	992.15	108
946.6498	2172.0317	999.3	117.45
946.7846	2173.5367	995.55	110.75
946.9195	2175.0409	991.7	109.5
947.0543	2176.5445	994.3	112.25
947.1891	2178.0473	997.65	114.35
947.3239	2179.5494	996.85	112.7
947.4587	2181.0507	993.4	109.6
947.5934	2182.5513	993.2	111
947.7281	2184.0512	996.15	114.2
947.8628	2185.5504	995.9	113.25
947.9974	2187.0488	995.8	115.35
948.132	2188.5465	989.7	109.15
948.2666	2190.0435	990.85	108.85
948.4012	2191.5397	994.05	112.4
948.5357	2193.0353	992.45	109
948.6702	2194.5301	996.6	112.45
948.8047	2196.0241	998.2	113.65
948.9392	2197.5175	994.35	108.65
949.0736	2199.0101	995.35	109.25
949.208	2200.502	990.5	108.05
949.3424	2201.9931	992.35	110.85
949.4767	2203.4835	992.85	110.95
949.611	2204.9733	1004.45	107
949.7453	2206.4622	989.95	112.15
949.8796	2207.9505	989	107.25
950.0138	2209.438	984.6	106.85
950.148	2210.9248	989.15	105.6
950.2822	2212.4109	989.25	109.3
950.4164	2213.8962	992.2	104.8
950.5505	2215.3809	993.65	107.45
950.6846	2216.8648	992.4	107.15
950.8186	2218.3479	994.2	103.55
950.9527	2219.8304	993.45	105.3
951.0867	2221.3121	991.8	104.3
951.2207	2222.7931	984.9	100.6
951.3546	2224.2733	986.7	102.6
951.4886	2225.7529	982.35	97.45
951.6225	2227.2317	988.35	100.65
951.7563	2228.7098	987	107.75
951.8902	2230.1872	984.4	102.8
952.024	2231.6638	985.15	105.85
952.1578	2233.1397	987.2	102
952.2916	2234.6149	983.45	101.05
952.4253	2236.0894	985.85	104.8
952.559	2237.5632	993.95	102.3
952.6927	2239.0362	984.45	101.95
952.8263	2240.5085	980.05	97.9
952.9599	2241.9801	982.9	98.85
953.0935	2243.4509	985.65	104.65
953.2271	2244.921	985.75	101
953.3606	2246.3904	987.3	99.9
953.4941	2247.8591	982.5	101.35
953.6276	2249.3271	981.05	97.5
953.7611	2250.7943	980	96.35
953.8945	2252.2608	979.65	97.05
954.0279	2253.7266	982.85	99.2
954.1612	2255.1917	982.65	97.85
954.2946	2256.656	981	98.55
954.4279	2258.1197	978.1	96.9
954.5612	2259.5826	978.75	94.85
954.6944	2261.0447	983.35	98.05
954.8276	2262.5062	981.8	97.35
954.9608	2263.9669	984.25	97.45
955.094	2265.4269	981.2	99.05
955.2271	2266.8862	979.85	98.8
955.3602	2268.3448	977.45	93.85
955.4933	2269.8026	976.45	93.5
955.6264	2271.2598	974.2	90.3
955.7594	2272.7162	979	99.2
955.8924	2274.1719	977.7	95.25
956.0253	2275.6268	980.3	97.7
956.1583	2277.0811	980.8	96.25
956.2912	2278.5346	973.15	89.7
956.4241	2279.9874	978.75	96.65
956.5569	2281.4395	975.4	91.8
956.6897	2282.8908	982.15	95.5
956.8225	2284.3414	976.1	93
956.9553	2285.7914	976.1	93.4
957.088	2287.2406	979.45	95.6
957.2207	2288.689	977.5	95.75
957.3534	2290.1368	978.1	92.6
957.486	2291.5838	982.25	94.1
957.6186	2293.0302	981.05	93.95
957.7512	2294.4758	975.8	90.95
957.8838	2295.9206	979.05	93.6
958.0163	2297.3648	970.9	88
958.1488	2298.8082	975.7	93.1
958.2813	2300.251	977.25	94
958.4137	2301.693	977.5	91.35
958.5461	2303.1343	976.05	93.4
958.6785	2304.5748	973.35	90.65
958.8108	2306.0147	973.35	91.15
958.9432	2307.4538	973.3	91.15
959.0754	2308.8922	968.6	86.05
959.2077	2310.3299	972.15	91.75
959.3399	2311.7669	967.9	85.2
959.4721	2313.2031	969.6	89.05
959.6043	2314.6387	972.1	89.75
959.7365	2316.0735	976	92.25
959.8686	2317.5076	971.2	85.7
960.0006	2318.941	970.7	90.05
960.1327	2320.3737	976.25	90.9
960.2647	2321.8056	975.5	89.4
960.3967	2323.2369	973.85	88.15
960.5287	2324.6674	974.4	89.3
960.6606	2326.0972	975.35	90.9
960.7925	2327.5263	979.35	96.5
960.9244	2328.9547	981.3	97
961.0562	2330.3823	978.7	94.9
961.1881	2331.8092	979.5	91.75
961.3198	2333.2355	973.85	88.6
961.4516	2334.661	969.35	85.95
961.5833	2336.0858	971.4	85.65
961.715	2337.5098	968.3	84
961.8467	2338.9332	970.95	88.45
961.9783	2340.3558	975.45	89.5
962.1099	2341.7778	967.75	84.75
962.2415	2343.199	971.75	86.35
962.373	2344.6195	967.45	84.8
962.5045	2346.0393	966.55	85.1
962.636	2347.4583	972.05	88.15
962.7675	2348.8767	968.55	84
962.8989	2350.2943	968.8	83.45
963.0303	2351.7113	972	83.65
963.1617	2353.1275	968	82.3
963.293	2354.543	994.95	85.05
963.4243	2355.9578	970.2	84.65
963.5556	2357.3718	967.65	86.25
963.6868	2358.7852	966.85	80.8
963.818	2360.1978	967.15	84.55
963.9492	2361.6098	963.45	80.1
964.0803	2363.021	967.75	78.05
964.2114	2364.4315	974.35	92.7
964.3425	2365.8413	966.6	79.5
964.4736	2367.2504	964.5	84.35
964.6046	2368.6587	966.1	82.3
964.7356	2370.0664	962.1	77.45
964.8666	2371.4733	964.6	78.7
964.9975	2372.8795	966.8	79.75
965.1284	2374.285	966.3	79.6
965.2593	2375.6899	962.75	80.8
965.3901	2377.0939	964.8	81.15
965.5209	2378.4973	964.15	80.55
965.6517	2379.9	967.35	83.15
965.7825	2381.3019	962.6	78.55
965.9132	2382.7032	964.55	82.4
966.0439	2384.1037	961.85	80.35
966.1745	2385.5035	961.85	78.5
966.3051	2386.9027	959	74.4
966.4357	2388.3011	963.95	78
966.5663	2389.6987	963.9	79.25
966.6968	2391.0957	959.9	76.85
966.8273	2392.492	960.7	77.35
966.9578	2393.8876	962	78.25
967.0882	2395.2824	959.05	73.85
967.2186	2396.6765	959.95	74.55
967.349	2398.07	963.5	77.9
967.4793	2399.4627	966.15	79.7
967.6097	2400.8547	961.4	72.9
967.7399	2402.246	967.05	75.95
967.8702	2403.6366	964.9	78.85
968.0004	2405.0265	956.85	71.65
968.1306	2406.4156	963.4	73.8
968.2607	2407.8041	966.9	79.7
968.3909	2409.1918	965.4	77.1
968.521	2410.5789	961.7	75.9
968.651	2411.9652	961.1	71.25
968.781	2413.3508	963.2	75.55
968.911	2414.7358	962	75.5
969.041	2416.12	956.45	71.5
969.1709	2417.5035	958.55	72.85
969.3008	2418.8863	959.2	72.95
969.4307	2420.2684	962	76.2
969.5606	2421.6497	961.15	74.3
969.6904	2423.0304	955.35	70.3
969.8201	2424.4104	957.95	72.3
969.9499	2425.7896	961.8	71.2
970.0796	2427.1682	958.3	73.95
970.2093	2428.546	954.3	68.9
970.3389	2429.9232	959.2	70.95
970.4685	2431.2996	955.55	69.5
970.5981	2432.6753	955.9	68.6
970.7277	2434.0503	956.75	72.65
970.8572	2435.4246	953.1	69.1
970.9867	2436.7982	957.35	70.9
971.1161	2438.1711	957.4	71.3
971.2456	2439.5433	958.7	72.8
971.375	2440.9148	958.35	71.25
971.5043	2442.2856	955.7	73.65
971.6336	2443.6557	954.9	67.65
971.7629	2445.025	953.6	69.15
971.8922	2446.3937	955.15	69.3
972.0214	2447.7617	954.2	68.75
972.1506	2449.1289	954.95	70.4
972.2798	2450.4955	958.65	72.25
972.4089	2451.8613	952.6	70.15
972.538	2453.2265	953.55	68.35
972.6671	2454.5909	955.65	69.25
972.7961	2455.9546	949.6	64.3
972.9251	2457.3177	951.3	64.5
973.0541	2458.68	953.4	66.3
973.1831	2460.0416	954.35	68.1
973.312	2461.4025	954.8	68.05
973.4408	2462.7627	960.85	66.1
973.5697	2464.1222	948.95	66.75
973.6985	2465.4811	952.75	67.85
973.8273	2466.8392	950.95	68.6
973.956	2468.1966	954.15	67.85
974.0847	2469.5533	951.25	64.85
974.2134	2470.9093	952.9	67.7
974.3421	2472.2645	954.3	69.65
974.4707	2473.6191	952.25	68.15
974.5993	2474.973	952.8	67.05
974.7278	2476.3262	952.15	65
974.8563	2477.6787	950.3	66.25
974.9848	2479.0305	951.25	68.3
975.1132	2480.3816	948.8	61.45
975.2417	2481.7319	949.1	64.75
975.37	2483.0816	951.2	66.8
975.4984	2484.4306	949.25	63.65
975.6267	2485.7789	949.05	65.25
975.755	2487.1264	949.45	63.6
975.8833	2488.4733	946.2	61
976.0115	2489.8195	969.75	67.95
976.1397	2491.165	951.05	63.95
976.2678	2492.5097	950.9	65.85
976.3959	2493.8538	946.9	64.05
976.524	2495.1972	946.55	62.1
976.6521	2496.5398	948.8	63.1
976.7801	2497.8818	950.8	64.95
976.9081	2499.2231	946.7	61
977.036	2500.5637	951.7	66.5
977.164	2501.9035	948.45	59.05
977.2918	2503.2427	952.6	64.5
977.4197	2504.5812	946.9	62.7
977.5475	2505.919	946.45	60.55
977.6753	2507.256	946.4	62.95
977.8031	2508.5924	944	60.35
977.9308	2509.9281	954.9	66.05
978.0585	2511.2631	944.5	59.35
978.1861	2512.5974	944.65	59.85
978.3137	2513.9309	946.05	61
978.4413	2515.2638	968.1	56.35
978.5689	2516.596	946.55	63.75
978.6964	2517.9275	946.3	60.3
978.8239	2519.2583	946.45	62.7
978.9513	2520.5884	946.25	61.8
979.0788	2521.9178	942.25	58.05
979.2062	2523.2465	943	60.85
979.3335	2524.5745	944.65	60.5
979.4608	2525.9018	941.25	57.1
979.5881	2527.2284	944.25	61.2
979.7154	2528.5543	943.2	59.95
979.8426	2529.8796	945.35	63.85
979.9698	2531.2041	942.55	57.5
980.0969	2532.5279	940.65	57.5
980.224	2533.851	940	56.35
980.3511	2535.1735	940	56
980.4781	2536.4952	945.1	61.45
980.6052	2537.8163	942.3	56.55
980.7321	2539.1366	942.5	59.8
980.8591	2540.4562	944.4	59.2
980.986	2541.7752	943.45	59.4
981.1129	2543.0935	942.1	57.65
981.2397	2544.411	949.3	65.35
981.3665	2545.7279	943.1	59.1
981.4933	2547.0441	943.25	57.45
981.62	2548.3596	941.7	53.85
981.7467	2549.6744	940.8	56.3
981.8734	2550.9885	949.25	57.35
982.0001	2552.3019	939	55.2
982.1267	2553.6146	941.8	57.45
982.2532	2554.9266	939	52.7
982.3798	2556.2379	942.4	56.7
982.5063	2557.5485	939.7	58.5
982.6327	2558.8585	947	54.2
982.7592	2560.1677	945.75	56.75
982.8856	2561.4762	939.95	55.15
983.0119	2562.7841	944.4	58.25
983.1383	2564.0913	938.95	56.8
983.2646	2565.3977	939.7	54.3
983.3908	2566.7035	941.05	56
983.517	2568.0086	942.1	55.35
983.6432	2569.313	942.3	55.45
983.7694	2570.6167	941.9	52.85
983.8955	2571.9197	938.2	54.7
984.0216	2573.222	942.8	55.7
984.1476	2574.5236	940.75	56
984.2737	2575.8246	941.9	56.35
984.3996	2577.1248	945.45	57.85
984.5256	2578.4244	940	57.55
984.6515	2579.7232	939.5	54.05
984.7774	2581.0214	964.6	54.2
984.9032	2582.3189	939.65	56.75
985.029	2583.6157	942.45	53.9
985.1548	2584.9118	942.4	55.8
985.2806	2586.2072	938.75	57.4
985.4063	2587.5019	939.1	54.15
985.5319	2588.7959	940.95	57
985.6576	2590.0893	940.4	55.9
985.7832	2591.3819	939.2	55.05
985.9087	2592.6739	938.6	56.25
986.0343	2593.9652	938.95	54.05
986.1597	2595.2557	938.35	54.3
986.2852	2596.5456	942.55	55.15
986.4106	2597.8348	940.05	56.95
986.536	2599.1234	939.55	54.65
986.6614	2600.4112	937.15	53.85
986.7867	2601.6983	939.95	52
986.912	2602.9848	938.35	53.65
987.0372	2604.2705	946.8	57.1
987.1624	2605.5556	939.65	55.8
987.2876	2606.84	939.55	56.7
987.4128	2608.1237	937.6	52.25
987.5379	2609.4067	938.35	53.65
987.6629	2610.689	943.5	53
987.788	2611.9707	938.65	50.25
987.913	2613.2516	942.45	53.45
988.0379	2614.5319	937.4	55.15
988.1629	2615.8115	938.25	53.25
988.2878	2617.0903	935.95	52.85
988.4126	2618.3685	932.9	47.8
988.5375	2619.6461	931.95	48.3
988.6622	2620.9229	934.4	52.55
988.787	2622.199	935.7	51.55
988.9117	2623.4745	933.3	48.5
989.0364	2624.7493	933.55	53.1
989.161	2626.0234	935.65	52.5
989.2857	2627.2968	931.65	47.65
989.4102	2628.5695	936.85	53.3
989.5348	2629.8415	933.3	50.35
989.6593	2631.1128	936.05	51.85
989.7837	2632.3835	933.95	50.7
989.9082	2633.6535	930.8	47.8
990.0326	2634.9228	932.05	49.3
990.1569	2636.1914	935.95	53.2
990.2812	2637.4593	934.85	50.35
990.4055	2638.7265	932.55	48.1
990.5298	2639.9931	932.95	48.2
990.654	2641.259	934.6	49.4
990.7782	2642.5242	931.1	45.15
990.9023	2643.7887	931.45	47.6
991.0264	2645.0525	934.25	51.7
991.1505	2646.3156	932.1	48.6
991.2745	2647.5781	930.8	47.95
991.3985	2648.8398	929.65	49
991.5225	2650.1009	941.6	48.65
991.6464	2651.3613	927.8	46.1
991.7703	2652.6211	927.75	43.4
991.8942	2653.8801	931.7	49.05
992.018	2655.1385	932.4	44.95
992.1418	2656.3961	929.25	46.1
992.2655	2657.6531	930	46.85
992.3892	2658.9094	932.2	50.3
992.5129	2660.1651	928.65	47.65
992.6366	2661.42	929.15	47.85
992.7602	2662.6743	931.55	47.5
992.8837	2663.9279	927.5	45.2
993.0073	2665.1808	929.7	44.4
993.1307	2666.433	931.8	49.05
993.2542	2667.6846	932.15	47.8
993.3776	2668.9354	934.65	47.15
993.501	2670.1856	932.5	48.75
993.6244	2671.4351	930.3	47.7
993.7477	2672.6839	931.25	46.4
993.8709	2673.9321	928.5	45.8
993.9942	2675.1795	928.9	47
994.1174	2676.4263	934.05	52.6
994.2405	2677.6724	925.65	45.1
994.3637	2678.9179	931.65	48.1
994.4868	2680.1626	925.55	44.6
994.6098	2681.4067	930.65	47.35
994.7328	2682.6501	931.45	50.8
994.8558	2683.8928	928.65	48.75
994.9788	2685.1348	927.65	45.5
995.1017	2686.3761	926.95	45.45
995.2245	2687.6168	928.05	44.8
995.3474	2688.8568	927.2	45.7
995.4702	2690.0961	924.85	41.9
995.5929	2691.3348	927.35	44.35
995.7156	2692.5727	926.05	45.1
995.8383	2693.81	925.3	41.2
995.961	2695.0466	926.5	45.65
996.0836	2696.2826	927.3	44.45
996.2062	2697.5178	945.15	43.9
996.3287	2698.7524	926.85	43.05
996.4512	2699.9863	926.3	40.45
996.5737	2701.2195	922.4	38.3
996.6961	2702.452	926.95	44.75
996.8185	2703.6839	926.25	42.25
996.9408	2704.9151	926.5	44.75
997.0631	2706.1456	928.75	49.4
997.1854	2707.3755	929.65	46.55
997.3077	2708.6046	930.3	47
997.4299	2709.8331	928.7	44.95
997.552	2711.0609	929.6	47.45
997.6742	2712.2881	926.75	43.6
997.7963	2713.5145	929.85	45.3
997.9183	2714.7403	928.3	46.7
998.0403	2715.9654	929.05	47.45
998.1623	2717.1899	944.75	47.85
998.2842	2718.4136	933.15	49.6
998.4062	2719.6367	934.45	51.8
998.528	2720.8591	940	51.9
998.6498	2722.0809	933.55	50.6
998.7716	2723.3019	934.55	50.4
998.8934	2724.5223	935.1	51.75
999.0151	2725.7421	934.85	50.5
999.1368	2726.9611	936.7	53.85
999.2584	2728.1795	935.4	50.8
999.38	2729.3972	932.1	48.65
999.5016	2730.6142	937.6	48.1
999.6231	2731.8306	930.65	47.8
999.7446	2733.0462	929.65	44.05
999.8661	2734.2612	933.3	44.25
999.9875	2735.4756	928.95	45.75
1000.1089	2736.6892	928.5	46.7
1000.2302	2737.9022	925.15	43.1
1000.3515	2739.1145	925.8	41.85
1000.4728	2740.3262	932.8	42.5
1000.594	2741.5372	923.65	43.15
1000.7152	2742.7475	924	41.15
1000.8363	2743.9571	924.9	39.15
1000.9575	2745.1661	928.75	42.6
1001.0785	2746.3744	922.8	40.2
1001.1996	2747.582	921.6	40.4
1001.3206	2748.7889	923.15	39.45
1001.4415	2749.9952	918.45	36.75
1001.5625	2751.2008	920.35	37.75
1001.6833	2752.4057	921	37.25
1001.8042	2753.61	921.9	40.7
1001.925	2754.8136	918.4	35.05
1002.0458	2756.0165	918.45	36.45
1002.1665	2757.2188	917.2	35.85
1002.2872	2758.4204	919.25	39.8
1002.4078	2759.6213	921.7	38.25
1002.5285	2760.8215	924.45	39.75
1002.649	2762.0211	920.7	36.6
1002.7696	2763.22	920.75	37.25
1002.8901	2764.4182	920.7	38.35
1003.0106	2765.6158	920.5	39.45
1003.131	2766.8127	917.1	35
1003.2514	2768.009	914.95	31.85
1003.3717	2769.2045	917.4	37.95
1003.492	2770.3994	919.2	36.4
1003.6123	2771.5936	918.6	36.6
1003.7325	2772.7872	915.85	35.2
1003.8527	2773.9801	917.5	34.7
1003.9729	2775.1723	931.75	33.7
1004.093	2776.3639	917.05	38.45
1004.2131	2777.5548	917.3	33.05
1004.3331	2778.745	916.15	34.35
1004.4531	2779.9346	913.1	30.65
1004.5731	2781.1235	916.25	36.75
1004.693	2782.3117	917.15	36.3
1004.8129	2783.4992	915.15	35.05
1004.9328	2784.6861	916.95	37.15
1005.0526	2785.8723	916.45	33.5
1005.1723	2787.0579	916.75	35.35
1005.2921	2788.2428	914.45	32.25
1005.4118	2789.427	915.7	35.15
1005.5314	2790.6106	915.3	33.75
1005.651	2791.7935	917.65	37.95
1005.7706	2792.9757	916.1	36.55
1005.8902	2794.1573	918.95	35.1
1006.0097	2795.3382	914.55	33.9
1006.1291	2796.5184	914.8	34.9
1006.2485	2797.698	918.05	36.15
1006.3679	2798.8769	914.45	36.1
1006.4873	2800.0551	918.5	36.35
1006.6066	2801.2327	919.4	34.7
1006.7258	2802.4096	916.1	34.15
1006.8451	2803.5859	918	35.45
1006.9642	2804.7615	918.15	35.65
1007.0834	2805.9364	920.9	38.9
1007.2025	2807.1106	917.85	37.3
1007.3216	2808.2842	921.05	37.5
1007.4406	2809.4572	920.45	39.95
1007.5596	2810.6294	924.9	42.3
1007.6785	2811.801	923.15	46.6
1007.7975	2812.972	922.65	43.1
1007.9163	2814.1423	924.65	44.55
1008.0352	2815.3119	925.45	44.7
1008.154	2816.4808	928.55	49.2
1008.2727	2817.6491	934.7	54.4
1008.3914	2818.8167	931.75	52.5
1008.5101	2819.9837	942.2	56.75
1008.6288	2821.15	942.75	60.45
1008.7474	2822.3157	944.7	64.15
1008.8659	2823.4807	948.95	67.8
1008.9844	2824.645	956.25	73.95
1009.1029	2825.8086	963.85	81.95
1009.2214	2826.9716	972.6	95
1009.3398	2828.134	972.8	92.45
1009.4581	2829.2957	983.35	102.05
1009.5764	2830.4567	980.75	102.9
1009.6947	2831.617	989.1	109.65
1009.813	2832.7767	988.5	109.65
1009.9312	2833.9358	991.8	110.25
1010.0493	2835.0941	991.1	108.15
1010.1675	2836.2519	987.55	106.95
1010.2855	2837.4089	987.75	106.5
1010.4036	2838.5653	981.35	100.5
1010.5216	2839.7211	979.35	100.8
1010.6396	2840.8761	979.4	96
1010.7575	2842.0306	977.15	98
1010.8754	2843.1843	974.6	93.15
1010.9932	2844.3374	974.3	95.7
1011.111	2845.4899	976.65	95.8
1011.2288	2846.6417	978.1	99.25
1011.3465	2847.7928	979	101
1011.4642	2848.9433	984.25	105.1
1011.5818	2850.0931	980.85	99.15
1011.6995	2851.2422	983.1	103.6
1011.817	2852.3907	986.9	106.4
1011.9345	2853.5385	988.2	106.7
1012.052	2854.6857	1013.45	104.05
1012.1695	2855.8323	987.5	109.3
1012.2869	2856.9781	994.6	113.1
1012.4042	2858.1233	999.05	118.6
1012.5216	2859.2679	993.85	114.7
1012.6389	2860.4118	999.45	116.5
1012.7561	2861.555	1003.85	120.1
1012.8733	2862.6976	1006.25	124.5
1012.9905	2863.8395	1006.25	128.85
1013.1076	2864.9808	1006.6	125.5
1013.2247	2866.1214	1006.25	126.5
1013.3417	2867.2614	1008.1	127.05
1013.4587	2868.4007	1009.35	128.9
1013.5757	2869.5393	1010.55	127.25
1013.6926	2870.6773	1016.15	132.7
1013.8095	2871.8146	1020.25	136.65
1013.9263	2872.9513	1020.1	138.8
1014.0431	2874.0874	1013.4	132
1014.1599	2875.2227	1017.95	136.4
1014.2766	2876.3574	1019.9	138.95
1014.3933	2877.4915	1018.25	136.9
1014.51	2878.6249	1020.6	141.65
1014.6266	2879.7577	1025.7	143.8
1014.7431	2880.8898	1033.55	141.7
1014.8596	2882.0212	1025.4	145.95
1014.9761	2883.152	1027.5	148.8
1015.0925	2884.2821	1029.85	151.3
1015.2089	2885.4116	1029.85	148.7
1015.3253	2886.5405	1035.5	155.55
1015.4416	2887.6686	1032.45	149.25
1015.5579	2888.7962	1031.9	155.7
1015.6741	2889.923	1031	153.15
1015.7903	2891.0493	1032.35	154.25
1015.9065	2892.1748	1031.15	147.55
1016.0226	2893.2997	1034.25	154.4
1016.1387	2894.424	1029.1	149.2
1016.2547	2895.5476	1036.15	156.55
1016.3707	2896.6706	1031.8	154.6
1016.4866	2897.7929	1032.8	151.85
1016.6025	2898.9145	1037.15	157.15
1016.7184	2900.0355	1036.75	156.05
1016.8342	2901.1559	1033.95	152.75
1016.95	2902.2756	1040.35	157.1
1017.0658	2903.3946	1036.85	158.4
1017.1815	2904.513	1035.4	152
1017.2971	2905.6308	1035.05	156.55
1017.4127	2906.7479	1032.65	152.25
1017.5283	2907.8643	1031	149.8
1017.6439	2908.9801	1029.85	150
1017.7594	2910.0953	1028.5	148.1
1017.8748	2911.2098	1034.85	152.75
1017.9902	2912.3236	1041.85	154.35
1018.1056	2913.4368	1034.95	151.05
1018.2209	2914.5494	1031.3	151.6
1018.3362	2915.6613	1034.65	148.95
1018.4515	2916.7725	1030.95	148.95
1018.5667	2917.8831	1027.45	147.3
1018.6819	2918.9931	1021.7	140.65
1018.797	2920.1024	1022.85	143.3
1018.9121	2921.211	1024	144.3
1019.0271	2922.319	1017.85	139.65
1019.1421	2923.4264	1017.05	137.75
1019.2571	2924.5331	1009.6	130.85
1019.372	2925.6391	1014.3	135.65
1019.4869	2926.7445	1013.8	135.25
1019.6017	2927.8493	1016.65	135.9
1019.7165	2928.9534	1013.7	134
1019.8313	2930.0569	1018.35	135.85
1019.946	2931.1597	1018.95	138.55
1020.0606	2932.2619	1022.65	143.45
1020.1753	2933.3634	1020.75	140.3
1020.2899	2934.4643	1028.85	143.3
1020.4044	2935.5645	1028.3	142.95
1020.5189	2936.6641	1026.85	142.85
1020.6334	2937.763	1017	138.55
1020.7478	2938.8613	1023.65	145.35
1020.8622	2939.959	1024.8	140.2
1020.9765	2941.056	1018.4	138.7
1021.0908	2942.1523	1013.7	133.15
1021.2051	2943.248	1009.55	129.8
1021.3193	2944.3431	998.2	118.95
1021.4334	2945.4375	994.15	113.85
1021.5476	2946.5313	989	111.65
1021.6617	2947.6244	984.25	105.75
1021.7757	2948.7169	974.5	94.85
1021.8897	2949.8087	971.85	94.2
1022.0037	2950.8999	963.6	84
1022.1176	2951.9904	961.45	82.35
1022.2315	2953.0803	960.6	78.9
1022.3453	2954.1696	954.2	72.6
1022.4591	2955.2582	954.7	76.55
1022.5728	2956.3462	948.5	69.1
1022.6865	2957.4335	951.95	71.2
1022.8002	2958.5202	950.95	69.45
1022.9138	2959.6062	948.95	68.45
1023.0274	2960.6916	945.1	65.7
1023.141	2961.7764	948.25	68.9
1023.2545	2962.8605	951.7	71.9
1023.3679	2963.9439	948.9	70.15
1023.4813	2965.0267	948.2	66.15
1023.5947	2966.1089	968.65	65.65
1023.708	2967.1905	945.1	67.25
1023.8213	2968.2714	946.9	68
1023.9346	2969.3516	944.5	63.9
1024.0478	2970.4312	953.85	66.9
1024.1609	2971.5102	946.15	70.05
1024.274	2972.5885	945.15	66.3
1024.3871	2973.6662	955.35	71.4
1024.5002	2974.7432	940.4	63.1
1024.6132	2975.8196	948.9	70
1024.7261	2976.8954	943.25	65.2
1024.839	2977.9705	943.4	62.6
1024.9519	2979.045	946.7	67.95
1025.0647	2980.1188	944.55	64.5
1025.1775	2981.192	940.5	61.65
1025.2902	2982.2645	947.7	68.2
1025.4029	2983.3364	947.3	68.65
1025.5156	2984.4077	941.45	64.2
1025.6282	2985.4783	945.9	62.35
1025.7407	2986.5483	938.45	60.25
1025.8532	2987.6177	928.55	52.2
1025.9657	2988.6864	934.15	52.7
1026.0782	2989.7545	935.6	54.9
1026.1906	2990.8219	930.2	50.7
1026.3029	2991.8887	928.1	48.05
1026.4152	2992.9548	927.2	49.85
1026.5275	2994.0204	920.3	41.95
1026.6397	2995.0852	922.75	44.4
1026.7519	2996.1495	918.35	38.3
1026.864	2997.2131	916.65	37.15
1026.9761	2998.276	914.95	37.55
1027.0882	2999.3383	914.95	36.2
1027.2002	3000.4	912.6	33.5
1027.3122	3001.4611	911.15	31.75
1027.4241	3002.5215	911.7	32.75
1027.536	3003.5812	908.45	29.8
1027.6478	3004.6404	905.65	26
1027.7596	3005.6989	908.05	30.2
1027.8714	3006.7567	909.1	28
1027.9831	3007.8139	938.4	27
1028.0947	3008.8705	906.75	26.85
1028.2064	3009.9264	905.95	23.9
1028.3179	3010.9818	903.6	26.5
1028.4295	3012.0364	903.85	25.5
1028.541	3013.0905	903.95	24.1
1028.6524	3014.1439	903.3	22.3
1028.7638	3015.1966	903.05	26.6
1028.8752	3016.2487	900.3	22.7
1028.9865	3017.3002	905.3	23.55
1029.0978	3018.3511	900.6	21.5
1029.209	3019.4013	900.65	22.6
1029.3202	3020.4509	899.55	22.15
1029.4314	3021.4998	903	26.45
1029.5425	3022.5481	900.05	21.15
1029.6535	3023.5958	900.25	21.35
1029.7645	3024.6428	903.95	24.9
1029.8755	3025.6892	899	21.6
1029.9864	3026.735	899.35	19.45
1030.0973	3027.7802	900	21
1030.2082	3028.8247	901.4	23.85
1030.319	3029.8685	897.7	18.9
1030.4297	3030.9118	901.15	21.2
1030.5404	3031.9544	899.05	23.15
1030.6511	3032.9963	900.2	21.6
1030.7617	3034.0376	896	18.7
1030.8723	3035.0783	903.2	24.05
1030.9829	3036.1184	898.9	18.6
1031.0934	3037.1578	899.2	22.6
1031.2038	3038.1966	904.2	25.15
1031.3142	3039.2348	898.65	22.15
1031.4246	3040.2723	908.7	23.45
1031.5349	3041.3092	897.4	21.05
1031.6452	3042.3455	897.7	19.15
1031.7554	3043.3811	898.75	19.5
1031.8656	3044.4161	900.6	20.45
1031.9758	3045.4505	899.55	22.4
1032.0859	3046.4842	899.65	20.8
1032.1959	3047.5173	900.05	20.85
1032.3059	3048.5498	901.6	23.85
1032.4159	3049.5816	899.6	21.8
1032.5258	3050.6128	902.1	23.4
1032.6357	3051.6434	902.05	24.6
1032.7455	3052.6734	900	19.05
1032.8553	3053.7027	900.65	21.05
1032.9651	3054.7314	897.85	18.65
1033.0748	3055.7594	902.15	22.3
1033.1845	3056.7868	902.45	23.5
1033.2941	3057.8136	899.9	23.35
1033.4037	3058.8398	899.55	23.35
1033.5132	3059.8653	899.3	21.1
1033.6227	3060.8902	901.1	22.55
1033.7321	3061.9145	901.5	23.1
1033.8415	3062.9381	898.55	20.25
1033.9509	3063.9612	917.75	22.8
1034.0602	3064.9835	900.85	22
1034.1694	3066.0053	901	20.4
1034.2787	3067.0264	904.25	27.5
1034.3878	3068.0469	901.75	22.1
1034.497	3069.0668	904.65	23.3
1034.6061	3070.086	899.85	25.25
1034.7151	3071.1046	900.5	22.15
1034.8241	3072.1226	903.4	25
1034.9331	3073.1399	900.3	23.05
1035.042	3074.1567	899.95	19.5
1035.1508	3075.1727	901.15	21.15
1035.2597	3076.1882	898.6	19.05
1035.3684	3077.203	900.2	23
1035.4772	3078.2173	900.05	21.15
1035.5859	3079.2308	901.5	21.1
1035.6945	3080.2438	900.95	21.05
1035.8031	3081.2561	895.1	17.85
1035.9117	3082.2678	895.55	18.6
1036.0202	3083.2789	895.65	20.5
1036.1286	3084.2893	895.3	16.6
1036.2371	3085.2991	896.1	18.05
1036.3454	3086.3083	898.35	15.95
1036.4538	3087.3169	896.35	17.7
1036.562	3088.3248	895.6	15.35
1036.6703	3089.3321	896.45	16.35
1036.7785	3090.3388	892.75	15.25
1036.8866	3091.3449	891.95	11.7
1036.9948	3092.3503	898.05	17.45
1037.1028	3093.3551	891.75	14.65
1037.2108	3094.3593	894.35	17.75
1037.3188	3095.3629	891.8	15.5
1037.4267	3096.3658	895	15.95
1037.5346	3097.3681	891.65	13.65
1037.6425	3098.3698	895.4	14.15
1037.7503	3099.3708	893	14.5
1037.858	3100.3713	892.5	16.05
1037.9657	3101.3711	894.3	15.2
1038.0734	3102.3702	1030.7	16.1
1038.181	3103.3688	898.1	17.95
1038.2886	3104.3667	890.1	12.95
1038.3961	3105.364	890.45	14.05
1038.5036	3106.3607	894.05	13.7
1038.611	3107.3568	892	13.75
1038.7184	3108.3522	890.15	13.6
1038.8257	3109.347	891.55	13.35
1038.933	3110.3412	895.5	12.75
1039.0403	3111.3348	888.05	9.25
1039.1475	3112.3277	889.7	11.7
1039.2547	3113.32	887.75	10.2
1039.3618	3114.3117	889.25	10.85
1039.4689	3115.3028	889.3	11.3
1039.5759	3116.2932	892.6	11.55
1039.6829	3117.2831	897.35	15.05
1039.7898	3118.2723	890.2	14.8
1039.8967	3119.2608	889.35	11.65
1040.0035	3120.2488	890.4	13.5
1040.1103	3121.2361	890.7	11.2
1040.2171	3122.2229	889.85	10.3
1040.3238	3123.209	890.4	11.45
1040.4305	3124.1944	885.15	8.15
1040.5371	3125.1793	888.95	9.55
1040.6437	3126.1635	886.45	7.25
1040.7502	3127.1471	889.05	11.55
1040.8567	3128.1301	889.9	12
1040.9631	3129.1125	889.15	12.35
1041.0695	3130.0942	887.5	9.65
1041.1759	3131.0753	897.35	12.55
1041.2822	3132.0558	890.9	12.75
1041.3884	3133.0357	889.3	11
1041.4946	3134.015	886.8	8.7
1041.6008	3134.9936	889.85	9.55
1041.7069	3135.9716	909.8	7.7
1041.813	3136.949	886.25	8.45
1041.919	3137.9258	906.5	10.5
1042.025	3138.902	891.35	9.25
1042.1309	3139.8775	887.2	10.4
1042.2368	3140.8524	886.5	9.5
1042.3427	3141.8267	888.4	8.55
1042.4485	3142.8004	886.3	6.8
1042.5542	3143.7735	893.95	12.25
1042.6599	3144.7459	887.35	9.55
1042.7656	3145.7178	887.4	9.15
1042.8712	3146.689	885	7.05
1042.9768	3147.6596	888.3	8.35
1043.0823	3148.6295	885.5	8.15
1043.1878	3149.5989	886	6.75
1043.2932	3150.5676	885.3	8.65
1043.3986	3151.5357	882.1	6.75
1043.5039	3152.5032	886.45	10.5
1043.6092	3153.4701	885.7	8.75
1043.7145	3154.4364	889.85	9
1043.8197	3155.402	884.95	7.55
1043.9248	3156.367	887.85	8.25
1044.03	3157.3315	929.75	8.3
1044.135	3158.2952	886.4	7.95
1044.24	3159.2584	885.9	7
1044.345	3160.221	886.55	7.15
1044.4499	3161.1829	884.75	6.85
1044.5548	3162.1442	885.25	7.1
1044.6596	3163.105	886.35	11.15
1044.7644	3164.065	885.1	7.55
1044.8692	3165.0245	887.25	6.4
1044.9739	3165.9834	883.1	8.45
1045.0785	3166.9416	885.2	7.9
1045.1831	3167.8993	884	6.95
1045.2877	3168.8563	886	7.4
1045.3922	3169.8127	885.05	7.3
1045.4966	3170.7684	887	10.15
1045.6011	3171.7236	886.9	7.85
1045.7054	3172.6782	884.3	6.95
1045.8098	3173.6321	884.7	7.1
1045.914	3174.5854	890.1	6.85
1046.0183	3175.5381	885.25	9.4
1046.1224	3176.4902	882.55	5.7
1046.2266	3177.4417	885.45	6.45
1046.3307	3178.3926	884.6	8.55
1046.4347	3179.3428	882	2.3
1046.5387	3180.2924	882	2.85
1046.6427	3181.2415	885.45	6.15
1046.7466	3182.1899	887.45	9
1046.8504	3183.1377	884.35	7.25
1046.9542	3184.0848	887.2	6.8
1047.058	3185.0314	882.9	4.5
1047.1617	3185.9773	885.15	8.55
1047.2654	3186.9227	885.05	6.75
1047.369	3187.8674	884	6.55
1047.4726	3188.8115	885.45	4.85
1047.5761	3189.755	884.3	9.25
1047.6796	3190.6979	883.9	4.4
1047.783	3191.6402	884	7.75
1047.8864	3192.5818	884.4	7.7
1047.9898	3193.5229	901.85	5.1
1048.0931	3194.4633	885.4	7.2
1048.1963	3195.4031	885.35	6.75
1048.2995	3196.3423	883.3	6.75
1048.4027	3197.2809	884.1	6.85
1048.5058	3198.2189	883.7	7.3
1048.6089	3199.1563	899.75	5.4
1048.7119	3200.0931	883.7	7.4
1048.8148	3201.0292	880.8	2.15
1048.9178	3201.9648	884.9	7.15
1049.0206	3202.8997	887.25	7.3
1049.1235	3203.834	884.15	9.35
1049.2262	3204.7677	883.55	6.25
1049.329	3205.7008	885.85	6.75
1049.4317	3206.6333	879.7	2.55
1049.5343	3207.5652	887.35	8.6
1049.6369	3208.4964	882.65	5.35
1049.7394	3209.4271	882.1	4.5
1049.8419	3210.3571	881.4	4.65
1049.9444	3211.2865	883.75	7
1050.0468	3212.2154	885.7	7.35
1050.1491	3213.1436	884.35	4.15
1050.2514	3214.0712	889.8	7.45
1050.3537	3214.9982	883.75	6.35
1050.4559	3215.9246	883.75	5.85
1050.5581	3216.8503	882.65	4.95
1050.6602	3217.7755	882.65	4.7
1050.7623	3218.7001	883.2	5.45
1050.8643	3219.624	884.9	7.85
1050.9663	3220.5473	883.4	5.85
1051.0682	3221.4701	883.45	6.55
1051.1701	3222.3922	886.9	7.3
1051.2719	3223.3137	883.45	6.1
1051.3737	3224.2346	882.7	6.15
1051.4754	3225.1549	882.7	6.45
1051.5771	3226.0746	881.2	3.55
1051.6788	3226.9937	883.5	5.1
1051.7804	3227.9121	880.15	1.75
1051.8819	3228.83	882.45	5.55
1051.9834	3229.7473	880.65	3.95
1052.0849	3230.6639	883.3	7.3
1052.1863	3231.5799	881.1	4.45
1052.2876	3232.4954	882.5	5.4
1052.3889	3233.4102	882.55	4.5
1052.4902	3234.3244	882.7	5.1
1052.5914	3235.238	881.2	6.7
1052.6926	3236.151	905.1	3.6
1052.7937	3237.0634	879.65	4.25
1052.8948	3237.9752	880.85	4.35
1052.9958	3238.8864	881.75	5.15
1053.0968	3239.797	881.2	4.05
1053.1977	3240.7069	882.35	4.3
1053.2986	3241.6163	883.7	5.5
1053.3994	3242.5251	881.4	5.85
1053.5002	3243.4332	881.8	5.75
1053.6009	3244.3408	881.4	4.6
1053.7016	3245.2477	881	4.25
1053.8022	3246.154	882.1	2.85
1053.9028	3247.0598	883	4.45
1054.0034	3247.9649	878.7	2.35
1054.1039	3248.8694	881.65	4.7
1054.2043	3249.7733	883.1	6.95
1054.3047	3250.6766	881.75	4.45
1054.4051	3251.5793	882.15	4.2
1054.5054	3252.4814	880.9	4.3
1054.6056	3253.3829	881.7	5.5
1054.7058	3254.2838	882.2	3.7
1054.806	3255.1841	881.85	4.05
1054.9061	3256.0838	882.4	6.15
1055.0061	3256.9829	880.3	3.85
1055.1062	3257.8814	884.25	4.85
1055.2061	3258.7792	882.5	4.95
1055.306	3259.6765	881.75	3.05
1055.4059	3260.5731	879.05	4.25
1055.5057	3261.4692	882.35	4.15
1055.6055	3262.3647	880.8	3.35
1055.7052	3263.2595	879.65	4.9
1055.8049	3264.1538	881.1	2.3
1055.9045	3265.0474	879.4	3.05
1056.0041	3265.9404	879.95	3.7
1056.1036	3266.8329	879.4	4.2
1056.2031	3267.7247	890.05	5.2
1056.3025	3268.616	879.1	3.6
1056.4019	3269.5066	882.15	4.5
1056.5013	3270.3966	880.9	1.8
1056.6005	3271.286	877.7	2.55
