Software Version:	3.9.2.0
Unit SN:	10000200
Spectrometer SN:	6960
Date:	3/8/2024 11:56:25 AM
Data Line Index:	25
Spectral Points:	2048
Integration time (ms):	125
Averages:	20
Delay (ms):	30000
Sequence Number:	1
Processing:	dark subtract
Laser Power (mW):	300
Laser Current (mA):	823
Laser Diode Temp (C):	25.1
Laser Case Temp (C):	25.4
System Temp (C):	25.4
Spectrometer Temp (C):	23.3
CCD Temp (C):	0.009
Secondary Temp (C):	20.003
Heatsink Temp (C):	20.181
CCDPCB Temp (C):	35.029
SecondaryPCB Temp (C):	28.07

Wavelength	RamanShift	Raw Counts	Dark Subtracted
787.061	30.1047	414.35	4.1
787.2016	32.3739	412.8	4.7
787.3422	34.6426	414.4	6.5
787.4828	36.9109	416.2	6.05
787.6235	39.1787	420.7	7.9
787.7642	41.4461	427.5	8.1
787.9049	43.7131	431.15	9.75
788.0456	45.9796	434	9.35
788.1863	48.2456	437.9	9.75
788.3271	50.5112	441.9	9.95
788.4679	52.7764	445.9	9.85
788.6087	55.0411	450.9	10.55
788.7496	57.3054	457.1	9.35
788.8904	59.5692	458.85	11.85
789.0313	61.8326	463	12.9
789.1722	64.0955	466.95	14.35
789.3132	66.3579	475	17
789.4541	68.6199	481.15	18.05
789.5951	70.8815	490.2	24.2
789.7361	73.1426	509.8	39.8
789.8771	75.4032	543.35	70.85
790.0181	77.6634	613.45	137.45
790.1592	79.9231	781.45	300.75
790.3003	82.1824	1132.1	642.15
790.4414	84.4412	1693.6	1186.2
790.5825	86.6995	2404.1	1878.45
790.7237	88.9574	3079.65	2538.65
790.8648	91.2148	3540.6	2988.95
791.006	93.4717	3722.55	3159.35
791.1472	95.7282	3762.05	3194.55
791.2885	97.9842	3740.05	3172
791.4297	100.2398	3670.25	3100
791.571	102.4949	3607.6	3036.1
791.7123	104.7495	3587.95	3012.2
791.8536	107.0036	3533.35	2957.35
791.9949	109.2573	3447.85	2872.9
792.1363	111.5105	3361.5	2781.5
792.2777	113.7632	3260.15	2677.2
792.4191	116.0154	3173.35	2579.85
792.5605	118.2672	3057.2	2471.2
792.7019	120.5185	2956.2	2368.75
792.8434	122.7693	2869.7	2280.2
792.9849	125.0197	2782.1	2186.3
793.1264	127.2696	2716.95	2117
793.2679	129.519	2679.15	2076.5
793.4094	131.7679	2652.5	2051.35
793.551	134.0163	2633.8	2027.55
793.6926	136.2642	2616.15	2005.95
793.8342	138.5117	2611.05	1991.3
793.9758	140.7587	2569.5	1956.35
794.1175	143.0052	2531.65	1912.75
794.2591	145.2512	2487.85	1869.8
794.4008	147.4967	2432.15	1816
794.5425	149.7417	2390.8	1771.05
794.6842	151.9863	2373.6	1747.7
794.826	154.2304	2374.7	1746.1
794.9677	156.4739	2351.8	1719.5
795.1095	158.717	2358.75	1723.65
795.2513	160.9596	2384.8	1744.2
795.3931	163.2017	2410.45	1768.35
795.535	165.4433	2427.95	1784
795.6768	167.6844	2401.35	1755.85
795.8187	169.925	2372.3	1725.25
795.9606	172.1651	2323.15	1671.95
796.1025	174.4047	2273.2	1617.95
796.2445	176.6439	2238.6	1582.2
796.3864	178.8825	2206.5	1545.05
796.5284	181.1206	2202.6	1540.2
796.6704	183.3582	2196.2	1529.55
796.8124	185.5954	2182.65	1513.75
796.9544	187.832	2185.5	1511.55
797.0965	190.0681	2187.95	1511.95
797.2386	192.3037	2185.3	1506.7
797.3806	194.5388	2189.2	1507.2
797.5228	196.7734	2212.45	1527.5
797.6649	199.0075	2215.85	1532.6
797.807	201.2411	2239.9	1552.9
797.9492	203.4742	2266.2	1575.55
798.0914	205.7068	2275.4	1582
798.2336	207.9389	2308.85	1614.4
798.3758	210.1704	2319.5	1630.9
798.518	212.4015	2305.9	1628.2
798.6603	214.632	2315.6	1641.9
798.8025	216.862	2317.55	1645.7
798.9448	219.0915	2316.95	1644.3
799.0871	221.3205	2348.45	1674.7
799.2294	223.549	2337.65	1667.15
799.3718	225.777	2339.8	1670.7
799.5141	228.0044	2346.85	1669.3
799.6565	230.2314	2331.1	1650.25
799.7989	232.4578	2305.6	1621.65
799.9413	234.6837	2307.25	1616.25
800.0837	236.909	2290.65	1596.45
800.2262	239.1339	2305.85	1586.6
800.3687	241.3582	2285.5	1580.8
800.5111	243.582	2315.75	1580.35
800.6536	245.8053	2313.15	1593.9
800.7961	248.0281	2313.05	1596.9
800.9387	250.2503	2329.3	1608.8
801.0812	252.472	2324.8	1602
801.2238	254.6932	2333.7	1614.1
801.3664	256.9139	2337.3	1614.6
801.509	259.134	2359.85	1633.85
801.6516	261.3536	2375.7	1655.7
801.7942	263.5727	2436.45	1706.75
801.9369	265.7912	2479.45	1753.5
802.0795	268.0092	2527.95	1802.5
802.2222	270.2267	2590.05	1864.7
802.3649	272.4436	2631.75	1904.3
802.5076	274.6601	2669.15	1929.2
802.6504	276.8759	2692.25	1956.55
802.7931	279.0913	2694	1958.75
802.9359	281.3061	2710.2	1973.05
803.0787	283.5204	2738.3	1998.3
803.2215	285.7341	2760.3	2018.9
803.3643	287.9473	2774.1	2031.75
803.5071	290.16	2763.85	2019.75
803.6499	292.3721	2746.6	2009.65
803.7928	294.5837	2715.65	1974.85
803.9357	296.7947	2691	1950.35
804.0786	299.0052	2680.4	1936.65
804.2215	301.2152	2680.6	1934.25
804.3644	303.4246	2644	1900.35
804.5074	305.6334	2627.9	1887
804.6503	307.8418	2606.1	1857.75
804.7933	310.0495	2579.1	1830.6
804.9363	312.2568	2560.5	1812.3
805.0793	314.4635	2501.85	1753.05
805.2223	316.6696	2453.1	1700.35
805.3653	318.8752	2415.55	1655.5
805.5084	321.0802	2383.8	1634.35
805.6514	323.2847	2373.2	1617.25
805.7945	325.4887	2396.7	1639.05
805.9376	327.692	2404.75	1648.55
806.0807	329.8949	2458.05	1698.7
806.2238	332.0972	2489.1	1729.35
806.367	334.2989	2507.3	1743
806.5101	336.5001	2491.3	1726.25
806.6533	338.7007	2459.7	1697.65
806.7965	340.9008	2417.4	1650.7
806.9397	343.1003	2370.45	1600.15
807.0829	345.2992	2323.35	1554.85
807.2261	347.4976	2287.05	1516.1
807.3693	349.6955	2259.25	1483.45
807.5126	351.8927	2234.15	1458.2
807.6559	354.0895	2231	1445.7
807.7991	356.2856	2210.5	1436.45
807.9424	358.4812	2196.9	1421.85
808.0857	360.6763	2208.95	1427.55
808.2291	362.8707	2207.9	1425.8
808.3724	365.0646	2210.95	1425.75
808.5158	367.258	2221.15	1435.6
808.6591	369.4508	2231.55	1441.15
808.8025	371.643	2257.15	1467.3
808.9459	373.8346	2274.8	1483.8
809.0893	376.0257	2327.85	1532.35
809.2327	378.2162	2331.8	1538.3
809.3762	380.4062	2344.65	1552.85
809.5196	382.5956	2311.35	1517.45
809.6631	384.7844	2284.1	1500.9
809.8066	386.9726	2236.95	1449.75
809.9501	389.1603	2224.6	1440.55
810.0936	391.3474	2231.1	1413.5
810.2371	393.5339	2212.35	1424.8
810.3806	395.7199	2214.7	1431.35
810.5241	397.9052	2245.7	1463.75
810.6677	400.09	2278.35	1492.2
810.8113	402.2743	2324.2	1539.4
810.9548	404.4579	2365.25	1579.2
811.0984	406.641	2394.7	1603.9
811.2421	408.8235	2438.55	1647.55
811.3857	411.0054	2491.3	1697.75
811.5293	413.1868	2556.5	1757.8
811.673	415.3675	2614.45	1814
811.8166	417.5477	2595.95	1795.45
811.9603	419.7273	2532.35	1728.3
812.104	421.9064	2450	1639.9
812.2477	424.0848	2408.8	1605.2
812.3914	426.2627	2339.15	1537.85
812.5351	428.4399	2286.9	1482.9
812.6788	430.6166	2241.8	1431.95
812.8226	432.7928	2183.7	1369.5
812.9663	434.9683	2149.65	1338
813.1101	437.1432	2139.05	1325.05
813.2539	439.3176	2103.2	1291.9
813.3977	441.4914	2090.15	1283.95
813.5415	443.6645	2085.35	1273.4
813.6853	445.8371	2088.8	1277.45
813.8291	448.0091	2095.05	1282.8
813.973	450.1806	2079.2	1267.7
814.1168	452.3514	2081.25	1267.75
814.2607	454.5216	2092.5	1269.25
814.4046	456.6913	2081.1	1268
814.5485	458.8603	2090.4	1274.9
814.6924	461.0288	2094.2	1281.1
814.8363	463.1967	2085.05	1275.7
814.9802	465.3639	2094.4	1278.2
815.1241	467.5306	2087.85	1270.25
815.2681	469.6967	2075.05	1261.55
815.412	471.8622	2072.4	1258.65
815.556	474.0271	2066.9	1251.35
815.7	476.1914	2065.4	1246.4
815.844	478.3551	2068.75	1252.2
815.988	480.5182	2068	1248.05
816.132	482.6807	2067.5	1255.2
816.276	484.8426	2088.35	1278.1
816.4201	487.0039	2125.65	1310.25
816.5641	489.1647	2167.85	1347
816.7082	491.3248	2222.4	1402.6
816.8522	493.4843	2230.5	1414
816.9963	495.6432	2229.95	1410.4
817.1404	497.8015	2208.8	1385.55
817.2845	499.9592	2157.6	1331.85
817.4286	502.1163	2106.95	1281.05
817.5727	504.2728	2070.7	1244.35
817.7168	506.4287	2033.8	1210.65
817.861	508.5839	2025.2	1202.75
818.0051	510.7386	2020	1195.6
818.1493	512.8927	2033.7	1204.85
818.2935	515.0461	2033.55	1206.15
818.4377	517.199	2049.4	1219.5
818.5818	519.3512	2089.7	1259.6
818.726	521.5029	2158	1321.9
818.8703	523.6539	2209.05	1378.75
819.0145	525.8043	2220.6	1390.75
819.1587	527.9541	2165.5	1333.9
819.303	530.1033	2101.95	1271.85
819.4472	532.2519	2052.35	1222.4
819.5915	534.3999	2028.7	1194.7
819.7357	536.5472	2017.25	1185
819.88	538.694	2022.65	1190.65
820.0243	540.8401	2046.1	1211.4
820.1686	542.9856	2071	1233.25
820.3129	545.1305	2084.35	1243.95
820.4572	547.2748	2093.35	1255.45
820.6016	549.4185	2099.85	1258.45
820.7459	551.5615	2106.5	1267.2
820.8902	553.704	2126.25	1289
821.0346	555.8458	2152.95	1316.15
821.1789	557.987	2160.65	1326.45
821.3233	560.1276	2184.15	1344.3
821.4677	562.2675	2233	1394
821.6121	564.4069	2292.05	1453.7
821.7565	566.5456	2332.45	1495.65
821.9009	568.6837	2304.75	1467.5
822.0453	570.8212	2240.55	1404.2
822.1897	572.958	2183.65	1343.85
822.3342	575.0942	2126.1	1287.15
822.4786	577.2299	2099.1	1260.85
822.6231	579.3648	2061	1225.7
822.7675	581.4992	2044.4	1214.2
822.912	583.6329	2046.95	1212.7
823.0565	585.766	2091.5	1257.4
823.201	587.8985	2128.1	1290.75
823.3454	590.0304	2179.55	1325.7
823.4899	592.1616	2203.85	1356.1
823.6345	594.2922	2188.3	1340.4
823.779	596.4222	2155.6	1306.95
823.9235	598.5515	2106.4	1261.25
824.068	600.6802	2053.85	1208
824.2126	602.8083	2010.05	1166
824.3571	604.9358	1999.3	1154.7
824.5017	607.0626	2007	1158.55
824.6462	609.1888	2010.5	1160.4
824.7908	611.3144	2042.15	1190.9
824.9354	613.4393	2078.3	1227.4
825.08	615.5636	2125.45	1275.8
825.2246	617.6873	2170.05	1319.2
825.3692	619.8103	2199.05	1347
825.5138	621.9327	2190.45	1338.7
825.6584	624.0544	2148.65	1299.85
825.803	626.1756	2101.05	1254.8
825.9477	628.2961	2062.7	1211.45
826.0923	630.4159	2042.8	1191.55
826.237	632.5351	2043	1187.75
826.3816	634.6537	2029.3	1174.45
826.5263	636.7716	2015.9	1159.85
826.6709	638.8889	2010.8	1153.25
826.8156	641.0056	2010.2	1154.25
826.9603	643.1216	2021.3	1167.45
827.105	645.237	2026.9	1170.6
827.2497	647.3518	1997.65	1144.35
827.3944	649.4659	1980.55	1127.55
827.5391	651.5793	1957.8	1106.35
827.6838	653.6922	1945.25	1090.45
827.8285	655.8043	1936.7	1082.7
827.9733	657.9159	1929.3	1074.85
828.118	660.0268	1927.65	1071.8
828.2627	662.137	1919.95	1064.9
828.4075	664.2466	1924.3	1062.7
828.5522	666.3556	1927.8	1068.4
828.697	668.4639	1918.55	1058.35
828.8418	670.5716	1909.35	1052.35
828.9865	672.6786	1904.55	1045.5
829.1313	674.785	1896.95	1038.1
829.2761	676.8907	1891.8	1037
829.4209	678.9958	1898	1041.75
829.5657	681.1002	1895.7	1037.5
829.7105	683.204	1891.15	1024.75
829.8553	685.3072	1896.8	1034.6
830.0001	687.4097	1892.7	1030.4
830.1449	689.5115	1894.85	1032.3
830.2898	691.6127	1888.35	1025.8
830.4346	693.7132	1873.95	1009.6
830.5794	695.8131	1905.6	1021.45
830.7243	697.9123	1906.65	1042.6
830.8691	700.0109	1902.8	1037.35
831.014	702.1089	1913.6	1049.3
831.1588	704.2061	1925.75	1062.3
831.3037	706.3028	1951.75	1087.65
831.4486	708.3987	1965.55	1098.8
831.5935	710.4941	1965.4	1101.7
831.7383	712.5887	1980.35	1116.4
831.8832	714.6827	1979.2	1112.75
832.0281	716.7761	1969.45	1105.75
832.173	718.8688	1969.2	1102.85
832.3179	720.9608	1969.5	1099.55
832.4628	723.0522	1989.85	1119.35
832.6077	725.1429	2009.75	1138.3
832.7527	727.233	2053.55	1186.05
832.8976	729.3224	2115.8	1247.6
833.0425	731.4112	2165.5	1294.75
833.1874	733.4993	2158.85	1290.6
833.3324	735.5867	2105.6	1236.2
833.4773	737.6735	2041.4	1170.6
833.6222	739.7596	1989.5	1120.1
833.7672	741.845	1972.05	1102.65
833.9122	743.9298	1962.9	1090.65
834.0571	746.014	1962.1	1092.8
834.2021	748.0974	1982.2	1109.8
834.347	750.1802	1967.6	1096.1
834.492	752.2624	1961.3	1088.75
834.637	754.3439	1957.25	1084.55
834.782	756.4247	1963.7	1079.8
834.9269	758.5048	1955.75	1084.1
835.0719	760.5843	1973.4	1099.4
835.2169	762.6631	2004.6	1129.8
835.3619	764.7413	2055.6	1182.75
835.5069	766.8188	2142.6	1269.3
835.6519	768.8956	2220.5	1346.65
835.7969	770.9718	2281.8	1409.55
835.9419	773.0473	2266.75	1393
836.0869	775.1221	2248.3	1373.65
836.232	777.1962	2240.45	1366.75
836.377	779.2697	2290.75	1415.05
836.522	781.3426	2392.2	1498.75
836.667	783.4147	2427.1	1549.7
836.8121	785.4862	2413.6	1539
836.9571	787.557	2307.85	1432.3
837.1021	789.6271	2194.8	1320.5
837.2472	791.6966	2090.85	1215.4
837.3922	793.7654	1999.95	1122.95
837.5373	795.8335	1957.15	1083.75
837.6823	797.901	1922.45	1049.35
837.8274	799.9678	1920.75	1041.8
837.9724	802.0339	1922.7	1048.85
838.1175	804.0993	1922.8	1032.05
838.2626	806.1641	1886.15	1009.7
838.4076	808.2282	1888.05	1011.15
838.5527	810.2916	1877.35	998.2
838.6978	812.3544	1863.65	986.8
838.8428	814.4164	1846.1	971.05
838.9879	816.4778	1862.3	983
839.133	818.5385	1868.2	991.6
839.2781	820.5986	1903.15	1024.35
839.4232	822.658	1950.2	1073.15
839.5682	824.7166	2020.9	1140.6
839.7133	826.7747	2097.25	1220.35
839.8584	828.832	2174	1294.75
840.0035	830.8886	2224.3	1343.8
840.1486	832.9446	2250.5	1368
840.2937	834.9999	2214.9	1335.75
840.4388	837.0545	2149.25	1266.75
840.5839	839.1085	2062.5	1179.8
840.729	841.1618	2005.5	1120.5
840.8741	843.2143	1947.5	1066.6
841.0192	845.2662	1910.35	1028.2
841.1643	847.3175	1898.65	1018.6
841.3095	849.368	1891.2	1012.7
841.4546	851.4179	1882.3	999.5
841.5997	853.467	1888.95	1009.85
841.7448	855.5155	1896.15	1012.55
841.8899	857.5633	1893.65	1013.15
842.0351	859.6105	1893.45	1011
842.1802	861.6569	1878.7	992.4
842.3253	863.7027	1865.8	982.05
842.4704	865.7478	1855.4	972.35
842.6156	867.7922	1838.95	958.45
842.7607	869.8359	1837.9	953.25
842.9058	871.8789	1825.1	942.3
843.0509	873.9212	1864.7	948.3
843.1961	875.9629	1839.75	954.9
843.3412	878.0039	1856.1	973.45
843.4863	880.0441	1864	982.8
843.6315	882.0837	1887.1	1001.5
843.7766	884.1226	1906.3	1023.2
843.9218	886.1609	1944.3	1058.2
844.0669	888.1984	1983.65	1100.65
844.212	890.2352	2028.3	1144.9
844.3572	892.2714	2042.1	1153.15
844.5023	894.3069	2012.9	1128.45
844.6475	896.3416	1958.8	1072.7
844.7926	898.3757	1920.4	1037.05
844.9377	900.4091	1918.15	1032.1
845.0829	902.4418	1914.4	1025.5
845.228	904.4739	1916.6	1028.8
845.3732	906.5052	1929.6	1042.3
845.5183	908.5358	1924.95	1039.8
845.6635	910.5658	1908.05	1019.3
845.8086	912.595	1867.55	979.2
845.9538	914.6236	1838.6	954.9
846.0989	916.6515	1814.15	927.55
846.2441	918.6786	1789.55	901.3
846.3892	920.7051	1776.85	888.8
846.5344	922.7309	1781.2	893.4
846.6795	924.756	1785.1	896.45
846.8246	926.7804	1792.35	902.95
846.9698	928.8041	1802.05	912.9
847.1149	930.8272	1825.3	935.05
847.2601	932.8495	1823.15	935.45
847.4052	934.8711	1837.25	949.15
847.5504	936.892	1849.4	962.5
847.6955	938.9123	1873.5	984.95
847.8407	940.9318	1879.15	991.05
847.9858	942.9506	1895.4	1006.3
848.131	944.9688	1888.45	1000.85
848.2761	946.9862	1858.95	970.65
848.4213	949.003	1829.15	941.7
848.5664	951.019	1810.1	920.9
848.7115	953.0344	1792.3	903.15
848.8567	955.0491	1777.1	885.6
849.0018	957.063	1777.3	889.4
849.147	959.0763	1769.05	877.55
849.2921	961.0888	1763.45	872.65
849.4373	963.1007	1773.35	884.5
849.5824	965.1119	1757.05	871.15
849.7275	967.1223	1760.15	875.15
849.8727	969.1321	1751.15	866.25
850.0178	971.1412	1744.8	856.85
850.1629	973.1495	1744.25	856
850.3081	975.1572	1774.7	854.65
850.4532	977.1641	1752.75	864.2
850.5983	979.1704	1745	855.7
850.7435	981.1759	1755.5	860.95
850.8886	983.1808	1740.15	848.3
851.0337	985.1849	1747.75	844.65
851.1788	987.1884	1729.85	837.55
851.324	989.1911	1747.75	853.7
851.4691	991.1932	1732.95	841.5
851.6142	993.1945	1737.6	847.65
851.7593	995.1951	1736.65	847
851.9045	997.1951	1743.6	849.9
852.0496	999.1943	1736.35	846.65
852.1947	1001.1928	1734.6	845
852.3398	1003.1906	1749.35	861.25
852.4849	1005.1877	1768.55	877.7
852.63	1007.1841	1790.65	899.9
852.7751	1009.1798	1803.4	912.1
852.9202	1011.1748	1781.5	889.25
853.0653	1013.1691	1769	875.5
853.2104	1015.1627	1742.05	853.65
853.3555	1017.1556	1711.2	821.9
853.5006	1019.1477	1694.85	805.5
853.6457	1021.1392	1681.75	793.7
853.7908	1023.1299	1672.3	784.6
853.9359	1025.12	1675.75	788.35
854.081	1027.1093	1671.65	790.75
854.2261	1029.0979	1687.2	808.45
854.3712	1031.0859	1708.8	822.55
854.5163	1033.0731	1717.55	830
854.6613	1035.0596	1723.85	837.05
854.8064	1037.0454	1716.35	826
854.9515	1039.0304	1706.9	816.65
855.0965	1041.0148	1678.05	786.95
855.2416	1042.9985	1665.55	774.45
855.3867	1044.9814	1659.55	767.45
855.5317	1046.9636	1665.7	772.95
855.6768	1048.9452	1665.9	775.55
855.8219	1050.926	1684.7	794.35
855.9669	1052.9061	1695.85	805.95
856.112	1054.8855	1692.8	802.8
856.257	1056.8642	1690.75	798.55
856.4021	1058.8421	1696.65	803.15
856.5471	1060.8194	1689.85	796.3
856.6921	1062.7959	1692.45	798.4
856.8372	1064.7717	1699.7	805.35
856.9822	1066.7469	1685.15	792.3
857.1272	1068.7213	1696.55	803.8
857.2723	1070.695	1709.2	817.3
857.4173	1072.6679	1725.6	833.5
857.5623	1074.6402	1755.45	863.6
857.7073	1076.6117	1752.9	857.3
857.8523	1078.5826	1736.25	844.05
857.9973	1080.5527	1696.4	802.3
858.1423	1082.5221	1668.1	775.85
858.2873	1084.4908	1646.3	751.8
858.4323	1086.4587	1625.05	729.85
858.5773	1088.426	1628.1	733.85
858.7223	1090.3925	1620.75	723.8
858.8673	1092.3584	1634.6	742.1
859.0123	1094.3235	1640.25	748.9
859.1573	1096.2879	1655.65	760.85
859.3022	1098.2515	1681.85	791.85
859.4472	1100.2145	1703.15	812
859.5922	1102.1767	1741.7	848.15
859.7371	1104.1382	1782.4	888.5
859.8821	1106.099	1824.5	930
860.027	1108.0591	1871.85	980
860.172	1110.0185	1907.8	1012.1
860.3169	1111.9771	1948.6	1056.55
860.4619	1113.9351	1992.65	1098.95
860.6068	1115.8923	2037.35	1145.25
860.7517	1117.8488	2056.1	1162.25
860.8967	1119.8045	1999.55	1106
861.0416	1121.7596	1914.15	1022.05
861.1865	1123.7139	1830.6	938.55
861.3314	1125.6675	1779.6	887.55
861.4763	1127.6204	1786.4	895.15
861.6212	1129.5726	1791.1	893.85
861.7661	1131.524	1792.65	900.5
861.911	1133.4748	1756.05	862.55
862.0559	1135.4248	1699.7	804.55
862.2008	1137.3741	1662.95	768.4
862.3457	1139.3226	1641.15	745
862.4905	1141.2705	1641.5	748.75
862.6354	1143.2176	1659.15	759
862.7803	1145.164	1649.2	753.8
862.9251	1147.1097	1645.3	752.3
863.07	1149.0546	1630.25	734.25
863.2148	1150.9989	1604.3	710.45
863.3597	1152.9424	1601.85	708.7
863.5045	1154.8852	1579.45	685.35
863.6493	1156.8272	1566.8	672
863.7942	1158.7686	1575.95	675.15
863.939	1160.7092	1576.9	683.95
864.0838	1162.6491	1583.35	687.3
864.2286	1164.5883	1590.3	695.4
864.3734	1166.5267	1602.3	705.75
864.5182	1168.4644	1624.4	729.35
864.663	1170.4014	1667.6	769
864.8078	1172.3377	1693	801.8
864.9526	1174.2732	1749.7	858.1
865.0974	1176.2081	1841.6	949.2
865.2421	1178.1421	1957.1	1061.5
865.3869	1180.0755	2049.05	1157.8
865.5317	1182.0082	2101.45	1208.8
865.6764	1183.9401	2059	1164.45
865.8212	1185.8713	1964.3	1072.1
865.9659	1187.8017	1849.35	962.3
866.1106	1189.7315	1750.45	860.55
866.2554	1191.6605	1714.3	799.5
866.4001	1193.5888	1664.2	775.85
866.5448	1195.5163	1626.8	735.9
866.6895	1197.4432	1615	722.65
866.8342	1199.3693	1598.4	708.55
866.9789	1201.2947	1593.15	696.8
867.1236	1203.2193	1581.05	687.25
867.2683	1205.1432	1579.2	685.2
867.413	1207.0664	1578	682.45
867.5576	1208.9889	1576.45	679.4
867.7023	1210.9106	1583.95	688.8
867.847	1212.8316	1585.05	692.5
867.9916	1214.7519	1603.45	701.6
868.1363	1216.6715	1599.7	706
868.2809	1218.5903	1627.2	735.1
868.4255	1220.5084	1636.7	743.35
868.5701	1222.4257	1646.95	754.05
868.7148	1224.3424	1654.3	760.65
868.8594	1226.2583	1682.9	784.4
869.004	1228.1735	1708.8	814.6
869.1486	1230.0879	1737.5	842.1
869.2932	1232.0016	1780.85	887.45
869.4377	1233.9146	1818	921.35
869.5823	1235.8269	1832.55	941.4
869.7269	1237.7384	1838.9	944.95
869.8715	1239.6492	1843.35	950.45
870.016	1241.5592	1864.1	970.7
870.1606	1243.4686	1900.9	1008.4
870.3051	1245.3772	1966.85	1073.15
870.4496	1247.285	2046.85	1151.35
870.5941	1249.1922	2118.25	1225.3
870.7387	1251.0986	2197	1302.15
870.8832	1253.0042	2264.35	1368.45
871.0277	1254.9092	2329.65	1436.2
871.1722	1256.8134	2397.65	1506.15
871.3167	1258.7169	2466.2	1571.6
871.4611	1260.6196	2460.75	1568.5
871.6056	1262.5216	2477.7	1580.75
871.7501	1264.4229	2448.35	1555.55
871.8945	1266.3234	2423.3	1528.8
872.039	1268.2232	2386.8	1491.95
872.1834	1270.1223	2353	1457.7
872.3278	1272.0207	2315.95	1421.6
872.4723	1273.9183	2304.7	1403.2
872.6167	1275.8151	2307.65	1411.65
872.7611	1277.7113	2347	1449.7
872.9055	1279.6067	2431.45	1538.7
873.0499	1281.5014	2566.75	1671.5
873.1943	1283.3953	2722.65	1826.1
873.3386	1285.2885	2861.25	1966.9
873.483	1287.181	2963.05	2067.95
873.6274	1289.0727	2989.05	2096.15
873.7717	1290.9637	2963.55	2067.65
873.9161	1292.854	2895.75	2001
874.0604	1294.7435	2801.6	1903.2
874.2047	1296.6323	2721.05	1825.45
874.349	1298.5204	2651.05	1752.85
874.4933	1300.4077	2578.7	1683.1
874.6376	1302.2943	2535.6	1640.55
874.7819	1304.1802	2503.45	1609.25
874.9262	1306.0653	2472.65	1576.75
875.0705	1307.9497	2436.75	1543.3
875.2147	1309.8333	2391.8	1496.25
875.359	1311.7162	2357.75	1463.7
875.5032	1313.5984	2320.45	1421.35
875.6475	1315.4798	2317.85	1414.1
875.7917	1317.3605	2295.7	1393.75
875.9359	1319.2405	2291.55	1395.55
876.0801	1321.1197	2259.55	1362.9
876.2243	1322.9982	2193.55	1292.95
876.3685	1324.876	2128.1	1233.6
876.5127	1326.753	2041.9	1147.85
876.6569	1328.6293	1974.8	1076.5
876.801	1330.5048	1894.1	996.2
876.9452	1332.3796	1831.1	936.55
877.0893	1334.2537	1817.9	895.4
877.2335	1336.127	1764.7	869.45
877.3776	1337.9996	1739.15	845.9
877.5217	1339.8714	1719.95	824.4
877.6658	1341.7426	1752.65	815.55
877.8099	1343.6129	1692.95	797.6
877.954	1345.4826	1682.05	787.8
878.0981	1347.3515	1674.75	776.05
878.2422	1349.2196	1662.3	765.75
878.3862	1351.087	1662.3	765.8
878.5303	1352.9537	1653.95	758.1
878.6743	1354.8197	1660.55	764.5
878.8184	1356.6849	1668.75	771.15
878.9624	1358.5493	1687.75	791.45
879.1064	1360.4131	1704.6	810.4
879.2504	1362.276	1737.25	842.25
879.3944	1364.1383	1773.7	880.2
879.5384	1365.9998	1784.75	883.95
879.6823	1367.8606	1771.15	873.65
879.8263	1369.7206	1759.75	860.6
879.9702	1371.5799	1750.7	853.75
880.1142	1373.4384	1744.3	846.05
880.2581	1375.2962	1716	822.35
880.402	1377.1533	1664.9	770.25
880.5459	1379.0096	1612.1	719.9
880.6898	1380.8652	1587.55	692.85
880.8337	1382.7201	1562.6	669.05
880.9776	1384.5742	1545.05	650.45
881.1215	1386.4275	1542.45	646
881.2653	1388.2802	1511.45	617.35
881.4092	1390.132	1499.05	604.5
881.553	1391.9832	1498.75	602.1
881.6968	1393.8336	1484.55	589.7
881.8406	1395.6832	1478.85	583.35
881.9844	1397.5322	1475.4	578.2
882.1282	1399.3803	1463.85	564
882.272	1401.2278	1448.35	554.2
882.4158	1403.0745	1439.8	545.25
882.5595	1404.9204	1438.25	544.45
882.7033	1406.7656	1432	536.45
882.847	1408.6101	1443.5	546.3
882.9908	1410.4538	1434.6	537.9
883.1345	1412.2968	1427	531.35
883.2782	1414.139	1433.95	540.2
883.4219	1415.9805	1440.75	545.05
883.5656	1417.8213	1454.15	553
883.7092	1419.6613	1468.85	572.2
883.8529	1421.5006	1495.65	599.6
883.9965	1423.3391	1531.05	634.65
884.1402	1425.1769	1569.95	672.25
884.2838	1427.0139	1636.6	740.25
884.4274	1428.8502	1705.65	808.75
884.571	1430.6858	1762.75	868.05
884.7146	1432.5206	1793.4	897.7
884.8582	1434.3547	1794.85	899.2
885.0018	1436.188	1769.2	873.3
885.1453	1438.0206	1755.1	858.3
885.2889	1439.8524	1741	844.1
885.4324	1441.6835	1740	844.15
885.5759	1443.5139	1744.15	846.8
885.7194	1445.3435	1743.45	846.8
885.8629	1447.1724	1744.5	848.55
886.0064	1449.0005	1743.55	849.3
886.1499	1450.8279	1741.15	845.35
886.2933	1452.6545	1734.65	838.9
886.4368	1454.4804	1736.3	843.6
886.5802	1456.3056	1727.3	824.55
886.7237	1458.13	1701.85	810.3
886.8671	1459.9536	1681.85	785.25
887.0105	1461.7766	1654.6	760.2
887.1539	1463.5987	1619	721.75
887.2972	1465.4202	1584.55	687.9
887.4406	1467.2409	1553.75	659.15
887.584	1469.0608	1520.95	625.75
887.7273	1470.88	1491.7	594.85
887.8706	1472.6984	1470.05	573.05
888.0139	1474.5161	1456.3	559.15
888.1572	1476.3331	1438.6	543.75
888.3005	1478.1493	1432.75	537.4
888.4438	1479.9648	1440	546.1
888.5871	1481.7795	1430.6	534.55
888.7303	1483.5935	1430.3	534.05
888.8736	1485.4067	1434.75	542.1
889.0168	1487.2192	1430.8	534.75
889.16	1489.031	1429.65	530.75
889.3032	1490.842	1430.55	537.5
889.4464	1492.6522	1423.6	528.75
889.5896	1494.4618	1424.2	529.15
889.7327	1496.2705	1416.65	521.3
889.8759	1498.0785	1408.45	512.05
890.019	1499.8858	1409.35	512.25
890.1622	1501.6924	1398.7	504.65
890.3053	1503.4981	1391.6	497.1
890.4484	1505.3032	1392.1	498.65
890.5914	1507.1075	1386.35	491.8
890.7345	1508.911	1378.1	482.7
890.8776	1510.7138	1369.4	475.75
891.0206	1512.5159	1360.65	464.7
891.1637	1514.3172	1358.9	467.75
891.3067	1516.1178	1356.9	463.95
891.4497	1517.9176	1358.1	461.7
891.5927	1519.7166	1347.2	454.65
891.7357	1521.515	1344.85	444.7
891.8786	1523.3126	1336.75	443.85
892.0216	1525.1094	1334.95	440
892.1645	1526.9055	1332.05	438.6
892.3074	1528.7008	1321.1	428.45
892.4503	1530.4954	1320.05	419
892.5932	1532.2893	1314.6	423.5
892.7361	1534.0824	1321.45	425.8
892.879	1535.8747	1316.85	423.3
893.0218	1537.6663	1312.55	420.55
893.1647	1539.4572	1314.85	418.8
893.3075	1541.2473	1311.25	417.1
893.4503	1543.0367	1312.15	420.2
893.5931	1544.8253	1319.8	421.5
893.7359	1546.6132	1325.15	427.75
893.8787	1548.4003	1334.4	429.55
894.0214	1550.1867	1339.95	440.55
894.1642	1551.9723	1337.95	440.3
894.3069	1553.7572	1354.85	462.45
894.4496	1555.5414	1369.4	477.75
894.5923	1557.3247	1391.6	499.7
894.735	1559.1074	1414	524.75
894.8777	1560.8893	1451	563.65
895.0204	1562.6705	1489.05	597.5
895.163	1564.4509	1505.85	615.1
895.3056	1566.2305	1508.9	620.05
895.4482	1568.0094	1515	625.1
895.5908	1569.7876	1511.9	620.25
895.7334	1571.565	1501.25	609.15
895.876	1573.3417	1508.15	618
896.0186	1575.1176	1504.7	612.7
896.1611	1576.8928	1522.9	632.4
896.3036	1578.6672	1535.65	649.85
896.4461	1580.4409	1556.05	670.15
896.5886	1582.2138	1587.25	697.25
896.7311	1583.986	1612.9	722.15
896.8736	1585.7575	1650.7	760.85
897.0161	1587.5282	1676.1	787.85
897.1585	1589.2981	1693.35	804.75
897.3009	1591.0673	1712.1	824.3
897.4433	1592.8358	1716	828.5
897.5857	1594.6035	1717.05	826.4
897.7281	1596.3704	1712.6	823.75
897.8705	1598.1366	1699	809.25
898.0128	1599.9021	1680.55	794.65
898.1551	1601.6668	1670.9	782.7
898.2975	1603.4308	1658.55	767.85
898.4398	1605.194	1668.4	774.05
898.5821	1606.9564	1687.65	802.15
898.7243	1608.7182	1744.2	853.6
898.8666	1610.4791	1806.75	921.8
899.0088	1612.2394	1893.6	1010.2
899.1511	1613.9988	1958.9	1074.8
899.2933	1615.7576	2021.1	1134.55
899.4355	1617.5156	2034.95	1138.05
899.5776	1619.2728	1992.95	1103.55
899.7198	1621.0293	1914.8	1025.85
899.862	1622.785	1823.15	931.95
900.0041	1624.54	1713.1	822.15
900.1462	1626.2942	1632.1	743.55
900.2883	1628.0477	1542.25	652.9
900.4304	1629.8005	1482.6	591.35
900.5725	1631.5525	1426.6	538.9
900.7145	1633.3037	1382.45	496.9
900.8566	1635.0542	1354.85	468.25
900.9986	1636.804	1327.85	441
901.1406	1638.553	1381.55	423.75
901.2826	1640.3013	1294.25	405.4
901.4245	1642.0488	1274.7	387.85
901.5665	1643.7955	1262.3	373.85
901.7085	1645.5416	1247.6	361.9
901.8504	1647.2868	1242.35	357.4
901.9923	1649.0313	1239.75	350.3
902.1342	1650.7751	1240.35	349.4
902.2761	1652.5181	1235	349
902.4179	1654.2604	1233.5	346.8
902.5598	1656.0019	1236.45	350.75
902.7016	1657.7427	1257.35	369.35
902.8434	1659.4828	1271.05	383.85
902.9852	1661.222	1300.15	409.6
903.127	1662.9606	1313.35	425.4
903.2687	1664.6984	1339.75	451.2
903.4105	1666.4354	1342.4	455.55
903.5522	1668.1717	1313.7	422.75
903.6939	1669.9072	1277.8	387.1
903.8356	1671.642	1248.15	358.05
903.9773	1673.3761	1213.95	327.55
904.119	1675.1094	1191.75	305.65
904.2606	1676.8419	1179.7	293.7
904.4022	1678.5737	1169.95	280.75
904.5439	1680.3048	1159.7	269.5
904.6855	1682.0351	1154.15	265.75
904.827	1683.7646	1155.5	262.75
904.9686	1685.4934	1143.75	256.35
905.1101	1687.2215	1138.4	249.15
905.2517	1688.9488	1136.65	251.75
905.3932	1690.6754	1128.75	242.35
905.5347	1692.4012	1128.75	240.7
905.6761	1694.1263	1128.15	242.8
905.8176	1695.8506	1123.8	234.55
905.9591	1697.5742	1120.8	232.85
906.1005	1699.297	1120.05	232.15
906.2419	1701.0191	1117.65	233.05
906.3833	1702.7404	1118.1	230.2
906.5246	1704.461	1117.85	226.95
906.666	1706.1808	1114.55	223.3
906.8073	1707.8999	1109.95	221.55
906.9487	1709.6182	1110.8	225.75
907.09	1711.3358	1099.15	213.75
907.2313	1713.0527	1104.4	221.1
907.3725	1714.7688	1106.6	215.85
907.5138	1716.4841	1104.5	216.65
907.655	1718.1987	1105.3	214.4
907.7962	1719.9126	1103.2	219.45
907.9374	1721.6257	1101.95	212.9
908.0786	1723.338	1093.25	208.55
908.2198	1725.0496	1099	210.25
908.3609	1726.7605	1093.9	206.25
908.502	1728.4706	1096.45	209.9
908.6431	1730.18	1091.5	203.65
908.7842	1731.8886	1093.6	208.4
908.9253	1733.5964	1111.5	204.25
909.0664	1735.3036	1094.2	206.3
909.2074	1737.0099	1088.35	203.2
909.3484	1738.7156	1088.45	201.9
909.4894	1740.4204	1091.45	203.55
909.6304	1742.1246	1088.25	200.75
909.7714	1743.8279	1088	202.25
909.9123	1745.5306	1085.7	200.35
910.0532	1747.2325	1084.95	199.15
910.1941	1748.9336	1086.9	199.65
910.335	1750.634	1086.5	196.15
910.4759	1752.3336	1079.75	193.2
910.6168	1754.0325	1080.6	196.55
910.7576	1755.7307	1086.7	202.75
910.8984	1757.4281	1084.75	198.6
911.0392	1759.1247	1096.95	201.65
911.18	1760.8206	1093.75	201.9
911.3208	1762.5158	1088.75	195.2
911.4615	1764.2102	1084.15	198.05
911.6022	1765.9039	1083.55	196.75
911.7429	1767.5968	1078.75	192.5
911.8836	1769.289	1077.95	192.8
912.0243	1770.9804	1084.05	194.9
912.1649	1772.6711	1079.85	194.2
912.3056	1774.361	1084.7	196.65
912.4462	1776.0502	1082.7	196.3
912.5868	1777.7386	1084.4	193.55
912.7274	1779.4263	1075.35	188
912.8679	1781.1132	1074.05	187.7
913.0084	1782.7994	1075.15	188.4
913.149	1784.4849	1072.5	187.5
913.2895	1786.1696	1089.75	183.85
913.4299	1787.8535	1072.85	187.55
913.5704	1789.5367	1072.95	188.3
913.7108	1791.2192	1074.55	189.25
913.8513	1792.9009	1098	186.35
913.9917	1794.5818	1077	189
914.132	1796.2621	1069.85	183.4
914.2724	1797.9415	1072.7	183.8
914.4128	1799.6202	1073.15	186.1
914.5531	1801.2982	1072.55	185.5
914.6934	1802.9755	1070.55	184.1
914.8337	1804.6519	1072	184.15
914.9739	1806.3277	1064.9	179.4
915.1142	1808.0027	1063.2	181
915.2544	1809.6769	1065.05	180.4
915.3946	1811.3504	1066.7	179.75
915.5348	1813.0231	1066.8	181.35
915.675	1814.6951	1062.35	178.2
915.8151	1816.3664	1068.45	178.45
915.9553	1818.0369	1060.8	173
916.0954	1819.7067	1064.95	178.35
916.2355	1821.3757	1069.05	180.15
916.3755	1823.044	1062.55	177.05
916.5156	1824.7115	1063.9	176.25
916.6556	1826.3783	1061.3	174.35
916.7956	1828.0443	1058.2	171.6
916.9356	1829.7096	1059.8	172.05
917.0756	1831.3741	1066.25	175.65
917.2155	1833.0379	1058.55	172.3
917.3555	1834.701	1055.95	169.7
917.4954	1836.3633	1056.2	170.9
917.6353	1838.0248	1056.65	170.6
917.7751	1839.6856	1060.45	174.65
917.915	1841.3457	1058.4	172.9
918.0548	1843.005	1057.25	169.55
918.1946	1844.6636	1059.4	174.8
918.3344	1846.3214	1055.4	167.65
918.4742	1847.9785	1054.85	168.95
918.6139	1849.6349	1057.75	169.2
918.7537	1851.2904	1067.05	169.25
918.8934	1852.9453	1053.7	167.3
919.0331	1854.5994	1058.9	169.1
919.1727	1856.2528	1057.55	166.6
919.3124	1857.9054	1051.4	164.65
919.452	1859.5572	1048.15	163.1
919.5916	1861.2083	1052.6	165.35
919.7312	1862.8587	1052.6	168.15
919.8708	1864.5084	1058.5	169.55
920.0103	1866.1572	1054.45	166.6
920.1498	1867.8054	1056.85	170
920.2893	1869.4528	1055.35	167.15
920.4288	1871.0994	1048.65	160.15
920.5683	1872.7453	1048.75	160.55
920.7077	1874.3905	1056.3	161.55
920.8471	1876.0349	1052.3	164.55
920.9865	1877.6786	1047.25	157.3
921.1259	1879.3215	1050.05	164.6
921.2653	1880.9637	1049.65	162.1
921.4046	1882.6051	1044.35	158.85
921.5439	1884.2458	1051.75	163.65
921.6832	1885.8858	1045.75	160.2
921.8225	1887.525	1043.75	158
921.9617	1889.1634	1045.55	160.75
922.101	1890.8011	1046	157.4
922.2402	1892.4381	1043.2	155.5
922.3794	1894.0743	1041.9	156.65
922.5185	1895.7098	1041.95	154.5
922.6577	1897.3446	1045.85	158.5
922.7968	1898.9786	1050.45	159.65
922.9359	1900.6118	1045.25	157.5
923.075	1902.2443	1046.9	157.75
923.214	1903.8761	1039.45	153.75
923.3531	1905.5071	1038.3	150.55
923.4921	1907.1374	1042	154.55
923.6311	1908.7669	1042.2	153.6
923.77	1910.3957	1035.9	152.25
923.909	1912.0237	1040.85	154.75
924.0479	1913.651	1036.45	147.3
924.1868	1915.2776	1036.25	149.25
924.3257	1916.9034	1036.55	151.85
924.4646	1918.5285	1038.25	154.3
924.6034	1920.1528	1036.5	151.75
924.7422	1921.7764	1037.8	153.6
924.881	1923.3992	1035.35	150.5
925.0198	1925.0213	1038.7	153.45
925.1586	1926.6427	1031.75	148.6
925.2973	1928.2633	1244.5	142.6
925.436	1929.8832	1033.95	143
925.5747	1931.5023	1033.25	145.85
925.7134	1933.1207	1031.9	145.9
925.852	1934.7383	1037.35	154
925.9906	1936.3552	1032.6	146.85
926.1292	1937.9714	1030.6	143.95
926.2678	1939.5868	1030.9	142.95
926.4064	1941.2015	1032.95	145
926.5449	1942.8154	1036.8	151.1
926.6834	1944.4286	1029.6	142.45
926.8219	1946.041	1052.45	144.1
926.9604	1947.6528	1031.15	140.4
927.0988	1949.2637	1028.75	143.9
927.2372	1950.8739	1026.2	140.95
927.3756	1952.4834	1028.35	143.75
927.514	1954.0921	1029.6	145.4
927.6523	1955.7001	1030.85	139.95
927.7907	1957.3074	1022	137.55
927.929	1958.9139	1023.6	140.45
928.0673	1960.5197	1027.55	142.2
928.2055	1962.1247	1020.8	136.05
928.3438	1963.729	1019.95	137.95
928.482	1965.3325	1023.15	133.95
928.6202	1966.9353	1021.75	138.9
928.7584	1968.5374	1023.1	138.4
928.8965	1970.1387	1023.55	137.25
929.0346	1971.7393	1019.95	134.1
929.1727	1973.3392	1018.9	132.8
929.3108	1974.9383	1014.5	131.55
929.4489	1976.5366	1018.35	135.85
929.5869	1978.1342	1018.1	136.15
929.7249	1979.7311	1018.65	136.05
929.8629	1981.3273	1016.7	135.2
930.0009	1982.9227	1019.55	135.5
930.1388	1984.5173	1020.15	136.65
930.2767	1986.1112	1017.1	135.5
930.4146	1987.7044	1011.65	129.65
930.5525	1989.2968	1017.45	133.4
930.6904	1990.8885	1020.4	134.35
930.8282	1992.4795	1013.95	130.85
930.966	1994.0697	1013.2	132.7
931.1038	1995.6592	1012.25	131.5
931.2415	1997.2479	1015.05	132.75
931.3793	1998.8359	1011.9	132.1
931.517	2000.4232	1011.25	131.9
931.6547	2002.0097	1005.4	128
931.7923	2003.5955	1006.95	126.05
931.93	2005.1805	1011.25	126.9
932.0676	2006.7648	1012.05	130.95
932.2052	2008.3484	1013.25	132.95
932.3427	2009.9312	1013.4	132.55
932.4803	2011.5133	1011.7	131.85
932.6178	2013.0946	1008.2	128.25
932.7553	2014.6752	1007.3	128.15
932.8928	2016.2551	1008.95	126.4
933.0302	2017.8342	1009.85	129.75
933.1676	2019.4126	1006.1	127.85
933.305	2020.9902	1002.95	122.95
933.4424	2022.5672	1005.95	124.4
933.5798	2024.1433	1010	125.1
933.7171	2025.7188	1004.9	127.15
933.8544	2027.2935	1004.65	123.5
933.9917	2028.8674	1006.5	128.1
934.129	2030.4406	1006.25	128.25
934.2662	2032.0131	1004.8	126.25
934.4034	2033.5849	1008.45	125.25
934.5406	2035.1559	1002.05	122.05
934.6778	2036.7261	1008.15	128.9
934.8149	2038.2957	1008.75	129.2
934.952	2039.8645	1008.8	127
935.0891	2041.4325	1010.3	125.95
935.2262	2042.9998	1006.15	125.75
935.3632	2044.5664	1003.75	122.5
935.5002	2046.1323	1002.85	123.55
935.6372	2047.6974	1003	123.3
935.7742	2049.2617	1001.65	121.75
935.9111	2050.8254	1009.5	124.15
936.048	2052.3883	1005.9	122.55
936.1849	2053.9504	1005.5	122.95
936.3218	2055.5118	1010.25	125.65
936.4586	2057.0725	1009.75	124.1
936.5955	2058.6325	1008.5	129.4
936.7323	2060.1917	1010.35	131.1
936.869	2061.7502	1013.2	130.6
937.0058	2063.3079	1006.15	127.7
937.1425	2064.8649	1016.25	133.9
937.2792	2066.4212	1014.15	131.35
937.4159	2067.9767	1013.6	132.8
937.5525	2069.5315	1017.95	138.3
937.6891	2071.0856	1012.15	131.2
937.8257	2072.6389	1009.6	130.55
937.9623	2074.1915	1008.1	130.5
938.0989	2075.7433	1008.5	128.65
938.2354	2077.2945	1003	124.9
938.3719	2078.8448	1008.05	128.35
938.5084	2080.3945	1004.05	122
938.6448	2081.9434	1003.9	122.95
938.7812	2083.4916	1003.75	122.65
938.9176	2085.039	1004.65	119.85
939.054	2086.5857	1006.35	121.6
939.1903	2088.1317	1005.75	122.65
939.3267	2089.677	1005.55	122.55
939.463	2091.2215	1003.5	119.65
939.5992	2092.7652	1011.15	126.25
939.7355	2094.3083	1005.2	122.5
939.8717	2095.8506	1000.8	119.85
940.0079	2097.3921	1009.65	129.75
940.1441	2098.933	1004.35	122.4
940.2802	2100.4731	1000.3	120.3
940.4163	2102.0124	1021.55	122.2
940.5524	2103.5511	1004.15	121.6
940.6885	2105.089	1002.25	118.85
940.8245	2106.6261	999.8	118.55
940.9606	2108.1626	1001.45	119.7
941.0965	2109.6983	1030.1	119.55
941.2325	2111.2332	1006.35	123.15
941.3684	2112.7675	998.2	115.1
941.5044	2114.301	1003.2	119.5
941.6403	2115.8337	998.9	118.35
941.7761	2117.3657	1002.15	121.75
941.912	2118.897	1003.2	120.3
942.0478	2120.4276	1007.25	121.7
942.1835	2121.9575	1005.3	123.65
942.3193	2123.4866	1002.3	119.8
942.455	2125.0149	1004	118.45
942.5907	2126.5426	998.25	119.4
942.7264	2128.0695	1002.9	118.2
942.8621	2129.5956	994.95	117.25
942.9977	2131.1211	996.6	112.1
943.1333	2132.6458	995.85	116.3
943.2689	2134.1698	996.55	114.65
943.4044	2135.693	1004.55	120.25
943.54	2137.2155	1006.1	120.8
943.6755	2138.7373	999.95	118.85
943.8109	2140.2584	996.25	116.35
943.9464	2141.7787	1002.8	114.75
944.0818	2143.2983	991.75	113
944.2172	2144.8171	990.1	112.05
944.3526	2146.3353	997.05	116.2
944.4879	2147.8527	994.1	115.25
944.6232	2149.3693	999.7	118.4
944.7585	2150.8853	1000.25	118.9
944.8938	2152.4005	997.5	117
945.029	2153.9149	999.4	117.3
945.1642	2155.4287	997.9	116.65
945.2994	2156.9417	999.3	117.1
945.4346	2158.454	997.65	116.7
945.5697	2159.9655	998	117.25
945.7048	2161.4764	997.1	117.1
945.8399	2162.9865	994	112.8
945.9749	2164.4958	994.3	113.45
946.1099	2166.0045	1000.05	117.65
946.2449	2167.5124	995.55	116.4
946.3799	2169.0195	992.9	111.6
946.5148	2170.526	994.55	114
946.6498	2172.0317	999.05	116.85
946.7846	2173.5367	996.25	115.2
946.9195	2175.0409	997.9	118.55
947.0543	2176.5445	992.25	111.65
947.1891	2178.0473	993.6	110.5
947.3239	2179.5494	996.75	110.65
947.4587	2181.0507	992.95	111
947.5934	2182.5513	995.35	115.45
947.7281	2184.0512	995.75	113
947.8628	2185.5504	991	111.7
947.9974	2187.0488	992.2	112.95
948.132	2188.5465	994.65	116.25
948.2666	2190.0435	990.65	109.4
948.4012	2191.5397	989.1	107.75
948.5357	2193.0353	991.25	110
948.6702	2194.5301	995.8	114.7
948.8047	2196.0241	992	108.3
948.9392	2197.5175	992.15	109.75
949.0736	2199.0101	997.75	111.7
949.208	2200.502	989	108.05
949.3424	2201.9931	989.35	109.4
949.4767	2203.4835	987.8	104.85
949.611	2204.9733	1002.65	106.45
949.7453	2206.4622	989.4	110.3
949.8796	2207.9505	988.7	106.6
950.0138	2209.438	987.85	111.6
950.148	2210.9248	988	106.7
950.2822	2212.4109	986.35	108.2
950.4164	2213.8962	996.1	112.15
950.5505	2215.3809	988.45	105.95
950.6846	2216.8648	993.25	110.5
950.8186	2218.3479	995.05	105.95
950.9527	2219.8304	993.8	105.45
951.0867	2221.3121	991.45	106.2
951.2207	2222.7931	989.65	107.25
951.3546	2224.2733	989.95	107.55
951.4886	2225.7529	985.05	103.1
951.6225	2227.2317	985.9	102.5
951.7563	2228.7098	985.05	106.75
951.8902	2230.1872	985.15	106.15
952.024	2231.6638	981.2	103.5
952.1578	2233.1397	986.8	103.5
952.2916	2234.6149	983.85	104.6
952.4253	2236.0894	982.8	103.3
952.559	2237.5632	994.85	103.9
952.6927	2239.0362	981	100
952.8263	2240.5085	982.2	102
952.9599	2241.9801	982.05	99.65
953.0935	2243.4509	983.7	102.75
953.2271	2244.921	982.9	100.7
953.3606	2246.3904	987.2	102.45
953.4941	2247.8591	982.95	102.5
953.6276	2249.3271	983.3	101.7
953.7611	2250.7943	983.45	102
953.8945	2252.2608	981.5	97.25
954.0279	2253.7266	979.9	99.65
954.1612	2255.1917	981.9	98.85
954.2946	2256.656	981.9	101.65
954.4279	2258.1197	978.7	99
954.5612	2259.5826	979.35	97
954.6944	2261.0447	979	97.95
954.8276	2262.5062	978.5	94.65
954.9608	2263.9669	982.85	100.2
955.094	2265.4269	979.2	97.7
955.2271	2266.8862	980.05	98.6
955.3602	2268.3448	978.25	96.8
955.4933	2269.8026	976.6	95.85
955.6264	2271.2598	975.7	94.5
955.7594	2272.7162	976	96.95
955.8924	2274.1719	979.25	97.35
956.0253	2275.6268	982.7	100.4
956.1583	2277.0811	980.05	98.2
956.2912	2278.5346	974.65	95.4
956.4241	2279.9874	978.8	99.05
956.5569	2281.4395	974.9	95.25
956.6897	2282.8908	981.2	94.7
956.8225	2284.3414	979.7	99.1
956.9553	2285.7914	975.5	93.85
957.088	2287.2406	979.8	98.5
957.2207	2288.689	981.1	98.25
957.3534	2290.1368	979.25	96.45
957.486	2291.5838	978.95	93.2
957.6186	2293.0302	979.1	94.7
957.7512	2294.4758	976.2	92.9
957.8838	2295.9206	975.9	92.05
958.0163	2297.3648	973.65	92.3
958.1488	2298.8082	977.25	95.35
958.2813	2300.251	977.5	95.65
958.4137	2301.693	977.5	94.3
958.5461	2303.1343	975.35	92.05
958.6785	2304.5748	976.05	95.1
958.8108	2306.0147	973.25	91.35
958.9432	2307.4538	972.8	91.4
959.0754	2308.8922	967.6	92.35
959.2077	2310.3299	973.25	92.75
959.3399	2311.7669	971.75	92.05
959.4721	2313.2031	975	93.65
959.6043	2314.6387	977.9	96.25
959.7365	2316.0735	971.45	91.15
959.8686	2317.5076	971.7	89.25
960.0006	2318.941	972.25	90.6
960.1327	2320.3737	975.15	92
960.2647	2321.8056	978.55	94.2
960.3967	2323.2369	973.45	91.65
960.5287	2324.6674	977.8	92.95
960.6606	2326.0972	982.05	99.3
960.7925	2327.5263	979.6	97.65
960.9244	2328.9547	984.35	102.3
961.0562	2330.3823	982.4	100.45
961.1881	2331.8092	979.75	95.55
961.3198	2333.2355	976.65	94.55
961.4516	2334.661	975.65	93.75
961.5833	2336.0858	974.45	89.75
961.715	2337.5098	969.05	87
961.8467	2338.9332	968.85	85.75
961.9783	2340.3558	971.35	86.55
962.1099	2341.7778	970.7	89.65
962.2415	2343.199	971.1	90.6
962.373	2344.6195	969.4	86.9
962.5045	2346.0393	968.2	88.4
962.636	2347.4583	969.9	86.3
962.7675	2348.8767	969.5	87.45
962.8989	2350.2943	973.2	90.15
963.0303	2351.7113	970.65	85.65
963.1617	2353.1275	970.8	87.55
963.293	2354.543	991.5	83.4
963.4243	2355.9578	969.15	88.1
963.5556	2357.3718	967.4	84.95
963.6868	2358.7852	968.5	85.05
963.818	2360.1978	968.85	86.85
963.9492	2361.6098	969.2	87
964.0803	2363.021	968.7	83.7
964.2114	2364.4315	966	82.25
964.3425	2365.8413	968.35	83
964.4736	2367.2504	966.05	85.2
964.6046	2368.6587	964	80.85
964.7356	2370.0664	967.6	85.95
964.8666	2371.4733	965.8	80.55
964.9975	2372.8795	964	82.2
965.1284	2374.285	971.15	88.4
965.2593	2375.6899	964.65	85.1
965.3901	2377.0939	965.15	83.55
965.5209	2378.4973	968.4	87
965.6517	2379.9	964.55	79.3
965.7825	2381.3019	966.35	84.7
965.9132	2382.7032	963.3	81.05
966.0439	2384.1037	960.8	79.75
966.1745	2385.5035	959.55	78.4
966.3051	2386.9027	961.35	79.85
966.4357	2388.3011	963.45	76.6
966.5663	2389.6987	964.9	82.8
966.6968	2391.0957	962.45	80.1
966.8273	2392.492	962.4	81.1
966.9578	2393.8876	962.65	79.05
967.0882	2395.2824	960.55	77.7
967.2186	2396.6765	962.15	81.1
967.349	2398.07	966.5	81.95
967.4793	2399.4627	964.6	79.35
967.6097	2400.8547	965.05	81.2
967.7399	2402.246	969.6	80.6
967.8702	2403.6366	960.85	76.4
968.0004	2405.0265	959.6	74.5
968.1306	2406.4156	964.25	76.3
968.2607	2407.8041	964.6	78.45
968.3909	2409.1918	964.15	77.2
968.521	2410.5789	963.5	79.05
968.651	2411.9652	964.1	77.05
968.781	2413.3508	960.05	76.8
968.911	2414.7358	961.65	77.6
969.041	2416.12	955.35	73
969.1709	2417.5035	958.5	73.65
969.3008	2418.8863	962.85	80.25
969.4307	2420.2684	961.95	78.7
969.5606	2421.6497	959.75	76.1
969.6904	2423.0304	959.3	76.1
969.8201	2424.4104	957.75	73.3
969.9499	2425.7896	962.75	72.25
970.0796	2427.1682	958	76.7
970.2093	2428.546	954.7	68.95
970.3389	2429.9232	958.9	72.45
970.4685	2431.2996	956.7	72.4
970.5981	2432.6753	959.05	75.65
970.7277	2434.0503	957.85	74
970.8572	2435.4246	959.65	76.7
970.9867	2436.7982	960.1	76.5
971.1161	2438.1711	956.7	71.8
971.2456	2439.5433	958.9	73.85
971.375	2440.9148	957.15	70.8
971.5043	2442.2856	954.05	71.2
971.6336	2443.6557	957.05	70.8
971.7629	2445.025	956.5	72.6
971.8922	2446.3937	955.95	73
972.0214	2447.7617	954.25	69
972.1506	2449.1289	953.3	69.7
972.2798	2450.4955	956.85	71.1
972.4089	2451.8613	953	68.5
972.538	2453.2265	954.35	69.5
972.6671	2454.5909	956.4	72.3
972.7961	2455.9546	952.4	67.1
972.9251	2457.3177	951.3	68.15
973.0541	2458.68	955.35	71.15
973.1831	2460.0416	951.15	67.35
973.312	2461.4025	954.9	71.9
973.4408	2462.7627	963.6	69.6
973.5697	2464.1222	952.15	71.1
973.6985	2465.4811	956	72.65
973.8273	2466.8392	952.8	70.3
973.956	2468.1966	952.25	65.35
974.0847	2469.5533	954.8	70
974.2134	2470.9093	953.65	69.95
974.3421	2472.2645	955.2	74.05
974.4707	2473.6191	949.9	65.8
974.5993	2474.973	950.9	68.45
974.7278	2476.3262	956.95	73.2
974.8563	2477.6787	953.15	72.9
974.9848	2479.0305	947.85	66.05
975.1132	2480.3816	953.75	69.05
975.2417	2481.7319	950.65	69.55
975.37	2483.0816	949.7	64.1
975.4984	2484.4306	951.75	68.3
975.6267	2485.7789	947.65	68.2
975.755	2487.1264	951.7	68.55
975.8833	2488.4733	945.25	63
976.0115	2489.8195	966.45	64.9
976.1397	2491.165	950.95	65.05
976.2678	2492.5097	947.9	63.2
976.3959	2493.8538	947.05	65.3
976.524	2495.1972	948.25	64.05
976.6521	2496.5398	953	69.15
976.7801	2497.8818	951.75	66.6
976.9081	2499.2231	950.4	66.55
977.036	2500.5637	952.45	66.2
977.164	2501.9035	949.5	66.55
977.2918	2503.2427	954.15	67.85
977.4197	2504.5812	947.4	67.25
977.5475	2505.919	948.9	64.5
977.6753	2507.256	947.5	65.85
977.8031	2508.5924	948.75	67.2
977.9308	2509.9281	953.2	64.2
978.0585	2511.2631	948.25	65.9
978.1861	2512.5974	946.05	66
978.3137	2513.9309	947.45	63.85
978.4413	2515.2638	973.4	62.3
978.5689	2516.596	951.05	67.85
978.6964	2517.9275	946.6	61.4
978.8239	2519.2583	945.2	63.05
978.9513	2520.5884	947	63.3
979.0788	2521.9178	946.15	63.2
979.2062	2523.2465	946.6	64.85
979.3335	2524.5745	945.1	62.35
979.4608	2525.9018	943.45	59.95
979.5881	2527.2284	944.2	62.3
979.7154	2528.5543	941.5	60.35
979.8426	2529.8796	944.9	60.05
979.9698	2531.2041	945.8	62.9
980.0969	2532.5279	943.1	61.1
980.224	2533.851	945.75	63.3
980.3511	2535.1735	944	63.2
980.4781	2536.4952	943.25	61.35
980.6052	2537.8163	945.25	61.7
980.7321	2539.1366	943.9	62.5
980.8591	2540.4562	944.5	58.6
980.986	2541.7752	941.85	58.75
981.1129	2543.0935	944.7	62.4
981.2397	2544.411	946.95	63.3
981.3665	2545.7279	944.1	60.2
981.4933	2547.0441	943.55	62.1
981.62	2548.3596	949.8	64.4
981.7467	2549.6744	943.7	62.65
981.8734	2550.9885	952.25	63.2
982.0001	2552.3019	940.3	58.65
982.1267	2553.6146	943.5	59.05
982.2532	2554.9266	945.4	63.25
982.3798	2556.2379	943.35	59.3
982.5063	2557.5485	939.6	56.9
982.6327	2558.8585	947.1	59.55
982.7592	2560.1677	945.85	58.95
982.8856	2561.4762	945.9	62.7
983.0119	2562.7841	943.35	56
983.1383	2564.0913	939.85	59.2
983.2646	2565.3977	940.1	57.1
983.3908	2566.7035	941.95	60.15
983.517	2568.0086	940.95	57.1
983.6432	2569.313	943.75	61.9
983.7694	2570.6167	942.85	54.8
983.8955	2571.9197	941.8	61.9
984.0216	2573.222	944.15	59.5
984.1476	2574.5236	942.1	59.55
984.2737	2575.8246	942.95	57.95
984.3996	2577.1248	940.8	54.1
984.5256	2578.4244	936.95	53.95
984.6515	2579.7232	940.35	58.45
984.7774	2581.0214	965.4	56.9
984.9032	2582.3189	942.3	61.65
985.029	2583.6157	944.6	59.5
985.1548	2584.9118	941	60.4
985.2806	2586.2072	940.55	58.75
985.4063	2587.5019	937.65	55.1
985.5319	2588.7959	942.15	58.7
985.6576	2590.0893	940.7	56.8
985.7832	2591.3819	940.75	58.4
985.9087	2592.6739	938.5	56.25
986.0343	2593.9652	942.85	57.6
986.1597	2595.2557	940	57.6
986.2852	2596.5456	944	59.6
986.4106	2597.8348	937.3	54.8
986.536	2599.1234	939.3	58.35
986.6614	2600.4112	938.25	57.35
986.7867	2601.6983	946.3	60.55
986.912	2602.9848	941.1	59.9
987.0372	2604.2705	945.85	55.25
987.1624	2605.5556	941.75	62.15
987.2876	2606.84	939.6	55.85
987.4128	2608.1237	940.25	58.8
987.5379	2609.4067	941.2	58.9
987.6629	2610.689	948.4	57.9
987.788	2611.9707	941.15	55.25
987.913	2613.2516	943.25	53.5
988.0379	2614.5319	939.5	59.6
988.1629	2615.8115	938.5	55
988.2878	2617.0903	941.55	59.2
988.4126	2618.3685	938.7	57.4
988.5375	2619.6461	937.55	56.15
988.6622	2620.9229	937.05	54.1
988.787	2622.199	937.6	53.35
988.9117	2623.4745	937.8	56.4
989.0364	2624.7493	934.45	52.05
989.161	2626.0234	932.65	51.95
989.2857	2627.2968	932.55	49.6
989.4102	2628.5695	938.6	53.9
989.5348	2629.8415	936.8	58
989.6593	2631.1128	937.65	55.25
989.7837	2632.3835	934.7	52.5
989.9082	2633.6535	936.15	51.65
990.0326	2634.9228	934.5	51.8
990.1569	2636.1914	935.15	54.9
990.2812	2637.4593	939	51.25
990.4055	2638.7265	931.5	49.65
990.5298	2639.9931	936.55	56.6
990.654	2641.259	931.9	49.6
990.7782	2642.5242	932.15	49.05
990.9023	2643.7887	933.65	49.1
991.0264	2645.0525	931.45	50.75
991.1505	2646.3156	933.05	51.55
991.2745	2647.5781	933.55	51
991.3985	2648.8398	928.15	45.3
991.5225	2650.1009	942.1	51.25
991.6464	2651.3613	930.35	48.6
991.7703	2652.6211	932.6	50.4
991.8942	2653.8801	930.45	52.2
992.018	2655.1385	934.8	49.2
992.1418	2656.3961	930	48.7
992.2655	2657.6531	930.8	48.75
992.3892	2658.9094	928.45	47.3
992.5129	2660.1651	926.9	46.05
992.6366	2661.42	930	48.4
992.7602	2662.6743	934.6	50.8
992.8837	2663.9279	931.5	50.45
993.0073	2665.1808	932.25	48.8
993.1307	2666.433	930.65	46.75
993.2542	2667.6846	930.7	49.45
993.3776	2668.9354	933.3	48.3
993.501	2670.1856	932.25	49.5
993.6244	2671.4351	930.7	49.75
993.7477	2672.6839	934.9	53.55
993.8709	2673.9321	932.15	51.3
993.9942	2675.1795	931.1	50.65
994.1174	2676.4263	933.3	50.45
994.2405	2677.6724	930.4	51.45
994.3637	2678.9179	934.3	52.7
994.4868	2680.1626	932.2	50.5
994.6098	2681.4067	932.35	50.15
994.7328	2682.6501	933.35	51.45
994.8558	2683.8928	929.75	46.85
994.9788	2685.1348	928.9	47.55
995.1017	2686.3761	928.95	48.45
995.2245	2687.6168	929.65	49.8
995.3474	2688.8568	929.8	47.8
995.4702	2690.0961	927.4	47.8
995.5929	2691.3348	927	44.5
995.7156	2692.5727	927.55	44.55
995.8383	2693.81	927.75	45.95
995.961	2695.0466	925.95	45.05
996.0836	2696.2826	929.6	44.45
996.2062	2697.5178	932.55	47.5
996.3287	2698.7524	927.85	48.05
996.4512	2699.9863	930	48.1
996.5737	2701.2195	927.7	48
996.6961	2702.452	929.25	45.85
996.8185	2703.6839	931.2	49.25
996.9408	2704.9151	928.45	47.6
997.0631	2706.1456	925.45	44.95
997.1854	2707.3755	930.75	49.4
997.3077	2708.6046	931.85	50.3
997.4299	2709.8331	931	50.85
997.552	2711.0609	933.4	52.95
997.6742	2712.2881	930.65	48.4
997.7963	2713.5145	931.9	49.95
997.9183	2714.7403	930.95	52.8
998.0403	2715.9654	930.5	48.25
998.1623	2717.1899	948.2	52.75
998.2842	2718.4136	933.05	53.5
998.4062	2719.6367	933.75	52.05
998.528	2720.8591	941.15	55.4
998.6498	2722.0809	935	52.7
998.7716	2723.3019	941.1	56.25
998.8934	2724.5223	937.7	55.25
999.0151	2725.7421	938.25	55.25
999.1368	2726.9611	937.8	56.5
999.2584	2728.1795	935.6	48.65
999.38	2729.3972	932.1	52.25
999.5016	2730.6142	941.45	53.2
999.6231	2731.8306	931.75	49.85
999.7446	2733.0462	932.7	48.05
999.8661	2734.2612	936.05	51.3
999.9875	2735.4756	930.45	48.9
1000.1089	2736.6892	929.25	45.9
1000.2302	2737.9022	923.45	43.5
1000.3515	2739.1145	926	44.8
1000.4728	2740.3262	935.3	46.25
1000.594	2741.5372	927.5	47
1000.7152	2742.7475	924.95	43.9
1000.8363	2743.9571	928.15	45.9
1000.9575	2745.1661	932.05	46.05
1001.0785	2746.3744	924.15	43.2
1001.1996	2747.582	923.1	42
1001.3206	2748.7889	923.3	41.6
1001.4415	2749.9952	921.35	41.35
1001.5625	2751.2008	921.35	38.6
1001.6833	2752.4057	923.6	40.7
1001.8042	2753.61	919.4	39.35
1001.925	2754.8136	922.35	38.7
1002.0458	2756.0165	920.25	40.65
1002.1665	2757.2188	918.2	38.15
1002.2872	2758.4204	919.9	38.95
1002.4078	2759.6213	920.85	38.55
1002.5285	2760.8215	924.85	41.5
1002.649	2762.0211	921.55	39.7
1002.7696	2763.22	922.7	37.75
1002.8901	2764.4182	919.8	37.9
1003.0106	2765.6158	920.75	41.1
1003.131	2766.8127	920.5	40.05
1003.2514	2768.009	919.8	38.95
1003.3717	2769.2045	923.1	41.95
1003.492	2770.3994	923.35	41.15
1003.6123	2771.5936	918.8	37.2
1003.7325	2772.7872	918.2	37.45
1003.8527	2773.9801	920.05	37.45
1003.9729	2775.1723	933.8	35.7
1004.093	2776.3639	916.4	36.5
1004.2131	2777.5548	917.55	34.5
1004.3331	2778.745	919.15	39.2
1004.4531	2779.9346	917	37.6
1004.5731	2781.1235	917.95	37.85
1004.693	2782.3117	916.7	36.3
1004.8129	2783.4992	917.5	38.95
1004.9328	2784.6861	917.9	36.35
1005.0526	2785.8723	919.6	39.45
1005.1723	2787.0579	916	33.05
1005.2921	2788.2428	916.4	36.65
1005.4118	2789.427	916.8	37.6
1005.5314	2790.6106	917.05	36.2
1005.651	2791.7935	916.95	36.5
1005.7706	2792.9757	914.75	35.05
1005.8902	2794.1573	919.25	36.25
1006.0097	2795.3382	914.85	35.75
1006.1291	2796.5184	917.5	38.45
1006.2485	2797.698	918	37.7
1006.3679	2798.8769	917.45	39.2
1006.4873	2800.0551	917.55	37.75
1006.6066	2801.2327	918.3	35.7
1006.7258	2802.4096	918.3	38.25
1006.8451	2803.5859	919.9	38.05
1006.9642	2804.7615	921.4	40.7
1007.0834	2805.9364	918.8	38.9
1007.2025	2807.1106	919.95	39.9
1007.3216	2808.2842	923.9	44.45
1007.4406	2809.4572	921.75	42
1007.5596	2810.6294	924.6	43.7
1007.6785	2811.801	924.4	45.35
1007.7975	2812.972	925.15	43.5
1007.9163	2814.1423	928.25	47.3
1008.0352	2815.3119	928.95	48.2
1008.154	2816.4808	929.25	51.5
1008.2727	2817.6491	935.35	53.65
1008.3914	2818.8167	934.05	54.4
1008.5101	2819.9837	943.75	58.9
1008.6288	2821.15	943.55	64.35
1008.7474	2822.3157	949.2	70.75
1008.8659	2823.4807	955.85	77.1
1008.9844	2824.645	962.7	81.1
1009.1029	2825.8086	962.55	83.35
1009.2214	2826.9716	974.4	96.6
1009.3398	2828.134	976.8	96.9
1009.4581	2829.2957	985	104.15
1009.5764	2830.4567	988.8	110.5
1009.6947	2831.617	994.6	114.8
1009.813	2832.7767	993.45	114.25
1009.9312	2833.9358	993.7	114.65
1010.0493	2835.0941	997.25	116
1010.1675	2836.2519	990.05	109.5
1010.2855	2837.4089	986.25	104
1010.4036	2838.5653	985.3	104.85
1010.5216	2839.7211	983.05	106.25
1010.6396	2840.8761	979.95	98.05
1010.7575	2842.0306	979.65	103.25
1010.8754	2843.1843	978.25	99.7
1010.9932	2844.3374	979.25	97.35
1011.111	2845.4899	980.6	98.75
1011.2288	2846.6417	983.65	106.65
1011.3465	2847.7928	985.6	105.8
1011.4642	2848.9433	985.3	105.35
1011.5818	2850.0931	984.15	105.7
1011.6995	2851.2422	989.8	109.15
1011.817	2852.3907	990	111.2
1011.9345	2853.5385	992.2	111.2
1012.052	2854.6857	1021.25	112.9
1012.1695	2855.8323	989.05	107.4
1012.2869	2856.9781	992.25	111.5
1012.4042	2858.1233	997.75	114.45
1012.5216	2859.2679	1001.1	122.3
1012.6389	2860.4118	1000.85	121.85
1012.7561	2861.555	1014.1	129.45
1012.8733	2862.6976	1011.8	131.95
1012.9905	2863.8395	1008.65	128.5
1013.1076	2864.9808	1009.5	128.6
1013.2247	2866.1214	1009.75	130.7
1013.3417	2867.2614	1015.45	133.3
1013.4587	2868.4007	1018.95	137
1013.5757	2869.5393	1021	139.65
1013.6926	2870.6773	1018.35	135.3
1013.8095	2871.8146	1018.4	135.55
1013.9263	2872.9513	1023.75	142.65
1014.0431	2874.0874	1021	143.15
1014.1599	2875.2227	1025.95	146.15
1014.2766	2876.3574	1028.4	149.65
1014.3933	2877.4915	1029.7	150.6
1014.51	2878.6249	1026.6	147.25
1014.6266	2879.7577	1031.75	151.4
1014.7431	2880.8898	1039.6	151.7
1014.8596	2882.0212	1030.6	151.5
1014.9761	2883.152	1036.15	155.85
1015.0925	2884.2821	1032.4	154.9
1015.2089	2885.4116	1037.05	156.2
1015.3253	2886.5405	1034.75	156.65
1015.4416	2887.6686	1039.85	157.65
1015.5579	2888.7962	1043.2	164.2
1015.6741	2889.923	1035.75	155.9
1015.7903	2891.0493	1037.65	160.65
1015.9065	2892.1748	1038.1	158.1
1016.0226	2893.2997	1039.95	159.7
1016.1387	2894.424	1033.6	157.8
1016.2547	2895.5476	1038.4	158.55
1016.3707	2896.6706	1034.35	157.55
1016.4866	2897.7929	1038.45	156.25
1016.6025	2898.9145	1043.25	162.95
1016.7184	2900.0355	1042.9	162.25
1016.8342	2901.1559	1037.75	157.65
1016.95	2902.2756	1042.35	157.9
1017.0658	2903.3946	1037.8	158.55
1017.1815	2904.513	1042.3	160.95
1017.2971	2905.6308	1031.55	152.55
1017.4127	2906.7479	1039.25	157.65
1017.5283	2907.8643	1034.95	155.05
1017.6439	2908.9801	1035.6	156
1017.7594	2910.0953	1035.8	157.75
1017.8748	2911.2098	1043.65	161
1017.9902	2912.3236	1046.25	158.3
1018.1056	2913.4368	1041.45	161.1
1018.2209	2914.5494	1032.45	154.65
1018.3362	2915.6613	1040.85	156.15
1018.4515	2916.7725	1039.75	159.55
1018.5667	2917.8831	1028.1	146.55
1018.6819	2918.9931	1031.35	148.95
1018.797	2920.1024	1025.45	145.95
1018.9121	2921.211	1025.3	145.05
1019.0271	2922.319	1025.8	145.45
1019.1421	2923.4264	1021.4	142.8
1019.2571	2924.5331	1021.2	142.95
1019.372	2925.6391	1019.2	139.8
1019.4869	2926.7445	1019.7	140.35
1019.6017	2927.8493	1019.95	141.75
1019.7165	2928.9534	1023.2	142.95
1019.8313	2930.0569	1026.6	145.35
1019.946	2931.1597	1025.35	145.8
1020.0606	2932.2619	1022.85	145
1020.1753	2933.3634	1026.5	144.5
1020.2899	2934.4643	1037.6	149.95
1020.4044	2935.5645	1035.5	148.65
1020.5189	2936.6641	1035.5	153.7
1020.6334	2937.763	1028.45	150.25
1020.7478	2938.8613	1025.5	146.45
1020.8622	2939.959	1028.7	146.95
1020.9765	2941.056	1024.55	146.6
1021.0908	2942.1523	1019.15	138.45
1021.2051	2943.248	1013.9	131.85
1021.3193	2944.3431	1004	126.15
1021.4334	2945.4375	997.75	118.1
1021.5476	2946.5313	991.4	114.8
1021.6617	2947.6244	985.2	104.3
1021.7757	2948.7169	982.3	102.4
1021.8897	2949.8087	977.65	100.1
1022.0037	2950.8999	974.2	95.8
1022.1176	2951.9904	965.45	85.75
1022.2315	2953.0803	963.95	83.55
1022.3453	2954.1696	961.85	83.55
1022.4591	2955.2582	955.3	76.75
1022.5728	2956.3462	953.8	74.6
1022.6865	2957.4335	955.2	76.85
1022.8002	2958.5202	953.15	72
1022.9138	2959.6062	950.45	71.45
1023.0274	2960.6916	951.05	73.4
1023.141	2961.7764	951.35	69.8
1023.2545	2962.8605	952.75	75.65
1023.3679	2963.9439	948.1	68.45
1023.4813	2965.0267	949.05	68.7
1023.5947	2966.1089	974.25	72.05
1023.708	2967.1905	951.7	74
1023.8213	2968.2714	949.5	72.3
1023.9346	2969.3516	950.25	70.5
1024.0478	2970.4312	956.1	69.8
1024.1609	2971.5102	948.6	71.1
1024.274	2972.5885	948.2	69.15
1024.3871	2973.6662	955.5	70.55
1024.5002	2974.7432	949.3	72.2
1024.6132	2975.8196	949.35	69.4
1024.7261	2976.8954	948.3	72.35
1024.839	2977.9705	946.8	67.5
1024.9519	2979.045	948.35	69.6
1025.0647	2980.1188	948.7	70.05
1025.1775	2981.192	946.8	69.35
1025.2902	2982.2645	949.3	69.7
1025.4029	2983.3364	945.3	66.3
1025.5156	2984.4077	943.4	65.85
1025.6282	2985.4783	950.05	66.8
1025.7407	2986.5483	941.2	65.35
1025.8532	2987.6177	938.45	58.25
1025.9657	2988.6864	934.8	55.3
1026.0782	2989.7545	935.3	55.35
1026.1906	2990.8219	930.9	52.5
1026.3029	2991.8887	933.7	52.9
1026.4152	2992.9548	923.5	44.2
1026.5275	2994.0204	922.4	47.1
1026.6397	2995.0852	920.25	43.2
1026.7519	2996.1495	921	43.65
1026.864	2997.2131	916.8	39.05
1026.9761	2998.276	920.1	40.4
1027.0882	2999.3383	914.35	34.5
1027.2002	3000.4	915.25	37.5
1027.3122	3001.4611	914.65	36.1
1027.4241	3002.5215	909.7	29.9
1027.536	3003.5812	906.95	30.25
1027.6478	3004.6404	909	30.05
1027.7596	3005.6989	913.15	32.9
1027.8714	3006.7567	907.3	28.3
1027.9831	3007.8139	940.1	32.85
1028.0947	3008.8705	906.25	27.45
1028.2064	3009.9264	908.4	25.95
1028.3179	3010.9818	905.3	28.2
1028.4295	3012.0364	906.75	28.75
1028.541	3013.0905	904.15	25.55
1028.6524	3014.1439	904.8	25.7
1028.7638	3015.1966	905.15	27.25
1028.8752	3016.2487	903.75	27.5
1028.9865	3017.3002	909.15	26.85
1029.0978	3018.3511	901.9	25.65
1029.209	3019.4013	901.15	24.3
1029.3202	3020.4509	901.55	24.25
1029.4314	3021.4998	903.85	25.9
1029.5425	3022.5481	902.6	25.45
1029.6535	3023.5958	902.3	22.7
1029.7645	3024.6428	904	24.75
1029.8755	3025.6892	900.8	23.55
1029.9864	3026.735	901.7	23.35
1030.0973	3027.7802	902.65	25.55
1030.2082	3028.8247	899.8	20.9
1030.319	3029.8685	899.45	18.6
1030.4297	3030.9118	901.2	20.45
1030.5404	3031.9544	901.4	24.3
1030.6511	3032.9963	900.55	22.35
1030.7617	3034.0376	902.3	23.7
1030.8723	3035.0783	906	25.45
1030.9829	3036.1184	902.7	24.2
1031.0934	3037.1578	900.95	24.6
1031.2038	3038.1966	899.25	21.4
1031.3142	3039.2348	899.8	22.3
1031.4246	3040.2723	906.2	20.85
1031.5349	3041.3092	901.7	24.05
1031.6452	3042.3455	900.65	23
1031.7554	3043.3811	902.3	21.55
1031.8656	3044.4161	900.95	22.25
1031.9758	3045.4505	898.8	21.6
1032.0859	3046.4842	902.85	24.4
1032.1959	3047.5173	902.1	26.3
1032.3059	3048.5498	901.7	23.75
1032.4159	3049.5816	900.55	22.4
1032.5258	3050.6128	902.75	23.95
1032.6357	3051.6434	900.75	20.35
1032.7455	3052.6734	902.45	24.1
1032.8553	3053.7027	899.75	22.25
1032.9651	3054.7314	901.7	26.2
1033.0748	3055.7594	900.5	23.35
1033.1845	3056.7868	903	22.65
1033.2941	3057.8136	902.95	26.8
1033.4037	3058.8398	903.3	26.45
1033.5132	3059.8653	900.7	22.45
1033.6227	3060.8902	902.8	23.55
1033.7321	3061.9145	901.05	19.75
1033.8415	3062.9381	902.15	25.25
1033.9509	3063.9612	921.05	28.35
1034.0602	3064.9835	905.15	27.7
1034.1694	3066.0053	904.05	23.35
1034.2787	3067.0264	901.8	25.05
1034.3878	3068.0469	905.05	25.95
1034.497	3069.0668	904.8	23.1
1034.6061	3070.086	900.45	25.2
1034.7151	3071.1046	902.1	22.65
1034.8241	3072.1226	903.8	25.9
1034.9331	3073.1399	901.1	22.6
1035.042	3074.1567	900.95	22.45
1035.1508	3075.1727	903.85	24.75
1035.2597	3076.1882	899.15	24.5
1035.3684	3077.203	898.85	20.6
1035.4772	3078.2173	902.1	22.75
1035.5859	3079.2308	902.7	20.4
1035.6945	3080.2438	900.7	20.55
1035.8031	3081.2561	896.1	18.9
1035.9117	3082.2678	896.3	17.55
1036.0202	3083.2789	897.3	19.5
1036.1286	3084.2893	895.85	18.65
1036.2371	3085.2991	896.95	19.75
1036.3454	3086.3083	898.85	15.85
1036.4538	3087.3169	898.1	19.05
1036.562	3088.3248	896.55	15.1
1036.6703	3089.3321	897.2	17.95
1036.7785	3090.3388	894.2	19.7
1036.8866	3091.3449	895.35	18.1
1036.9948	3092.3503	897.25	15.85
1037.1028	3093.3551	892.2	15.45
1037.2108	3094.3593	893.9	17.75
1037.3188	3095.3629	892.15	15.6
1037.4267	3096.3658	895.55	16.65
1037.5346	3097.3681	896.1	17.45
1037.6425	3098.3698	893.45	13.25
1037.7503	3099.3708	892.9	13.85
1037.858	3100.3713	893.5	16.1
1037.9657	3101.3711	894.45	16.5
1038.0734	3102.3702	1030.85	17.65
1038.181	3103.3688	897.75	19.75
1038.2886	3104.3667	891	14.35
1038.3961	3105.364	889.35	11.75
1038.5036	3106.3607	892.75	13.1
1038.611	3107.3568	892.45	15.05
1038.7184	3108.3522	892.3	15.1
1038.8257	3109.347	894	15.05
1038.933	3110.3412	896.6	12.7
1039.0403	3111.3348	891.35	13.45
1039.1475	3112.3277	892.25	14.65
1039.2547	3113.32	886.75	7.55
1039.3618	3114.3117	891.45	11.85
1039.4689	3115.3028	889.05	10.45
1039.5759	3116.2932	895	14.45
1039.6829	3117.2831	895.2	11.8
1039.7898	3118.2723	891.9	14.4
1039.8967	3119.2608	891.35	13.65
1040.0035	3120.2488	888.8	10.85
1040.1103	3121.2361	889.4	9.95
1040.2171	3122.2229	888.2	9.8
1040.3238	3123.209	892.9	15.95
1040.4305	3124.1944	889.6	12.3
1040.5371	3125.1793	893.35	13.3
1040.6437	3126.1635	888.25	11.55
1040.7502	3127.1471	888.4	11.1
1040.8567	3128.1301	888.9	10.9
1040.9631	3129.1125	889	11.05
1041.0695	3130.0942	888.05	10.6
1041.1759	3131.0753	897.9	10.5
1041.2822	3132.0558	892.3	13.6
1041.3884	3133.0357	888.3	10.15
1041.4946	3134.015	888.45	8.5
1041.6008	3134.9936	889.9	10.95
1041.7069	3135.9716	908.85	8.35
1041.813	3136.949	890.95	13.65
1041.919	3137.9258	905.1	9.3
1042.025	3138.902	893.9	10.95
1042.1309	3139.8775	887.2	11.15
1042.2368	3140.8524	888.1	9.8
1042.3427	3141.8267	891.55	12.75
1042.4485	3142.8004	888.35	9.9
1042.5542	3143.7735	894.8	10.85
1042.6599	3144.7459	888.7	12.2
1042.7656	3145.7178	887.9	10.85
1042.8712	3146.689	888.05	10.7
1042.9768	3147.6596	886.7	6.45
1043.0823	3148.6295	888.3	10
1043.1878	3149.5989	886.9	8.35
1043.2932	3150.5676	884.4	7.35
1043.3986	3151.5357	885.5	10.5
1043.5039	3152.5032	886.7	11.2
1043.6092	3153.4701	888.1	11
1043.7145	3154.4364	889.75	9.75
1043.8197	3155.402	884.95	8
1043.9248	3156.367	888.8	8.45
1044.03	3157.3315	932.1	9.75
1044.135	3158.2952	886.45	9.65
1044.24	3159.2584	885.15	7.45
1044.345	3160.221	888.85	10.3
1044.4499	3161.1829	887.35	10.45
1044.5548	3162.1442	885.65	8.4
1044.6596	3163.105	885.45	7.6
1044.7644	3164.065	885.9	9.95
1044.8692	3165.0245	889.85	9.2
1044.9739	3165.9834	885.5	10.55
1045.0785	3166.9416	887.05	8.25
1045.1831	3167.8993	886.9	7.1
1045.2877	3168.8563	888.85	11.4
1045.3922	3169.8127	884.5	7.1
1045.4966	3170.7684	887.55	8.8
1045.6011	3171.7236	887	8.2
1045.7054	3172.6782	886.95	9.25
1045.8098	3173.6321	886.45	9.5
1045.914	3174.5854	891	9.55
1046.0183	3175.5381	887.65	8.55
1046.1224	3176.4902	885.35	6.9
1046.2266	3177.4417	884.8	7.15
1046.3307	3178.3926	885	9.7
1046.4347	3179.3428	884.45	9.2
1046.5387	3180.2924	884.3	8.4
1046.6427	3181.2415	886.1	7.95
1046.7466	3182.1899	885.95	5.6
1046.8504	3183.1377	884.4	6.55
1046.9542	3184.0848	887.7	9.65
1047.058	3185.0314	884.05	5.15
1047.1617	3185.9773	885.65	9.25
1047.2654	3186.9227	885.1	6.45
1047.369	3187.8674	887.15	10.5
1047.4726	3188.8115	890.4	5.95
1047.5761	3189.755	886.35	9.45
1047.6796	3190.6979	884.9	8.55
1047.783	3191.6402	883.15	6.9
1047.8864	3192.5818	884	8.7
1047.9898	3193.5229	904.55	8.65
1048.0931	3194.4633	887.35	9.8
1048.1963	3195.4031	884.7	6.7
1048.2995	3196.3423	883.9	7.55
1048.4027	3197.2809	886.35	8.95
1048.5058	3198.2189	886.45	8.3
1048.6089	3199.1563	901.15	3.15
1048.7119	3200.0931	885.4	9.1
1048.8148	3201.0292	882.55	6.2
1048.9178	3201.9648	883.75	7.5
1049.0206	3202.8997	887.55	8
1049.1235	3203.834	884.75	7.55
1049.2262	3204.7677	885.65	9.25
1049.329	3205.7008	886	7.15
1049.4317	3206.6333	882.2	6.65
1049.5343	3207.5652	885.65	7.45
1049.6369	3208.4964	883.6	5.05
1049.7394	3209.4271	884.7	7.3
1049.8419	3210.3571	883.3	5.5
1049.9444	3211.2865	882.05	3.9
1050.0468	3212.2154	883	5.75
1050.1491	3213.1436	888.6	9.2
1050.2514	3214.0712	891.1	6
1050.3537	3214.9982	884.45	6.1
1050.4559	3215.9246	886.05	7.55
1050.5581	3216.8503	881.55	5.95
1050.6602	3217.7755	884.3	6.75
1050.7623	3218.7001	881.05	4.7
1050.8643	3219.624	885.15	8.7
1050.9663	3220.5473	885.25	8.4
1051.0682	3221.4701	885.05	7
1051.1701	3222.3922	885.9	5.85
1051.2719	3223.3137	880.3	0.95
1051.3737	3224.2346	884.7	9.4
1051.4754	3225.1549	882.35	7.55
1051.5771	3226.0746	881.25	5.1
1051.6788	3226.9937	883.8	5.9
1051.7804	3227.9121	880.35	4.3
1051.8819	3228.83	883.1	6.9
1051.9834	3229.7473	884.9	7.3
1052.0849	3230.6639	882.2	4.7
1052.1863	3231.5799	883.9	9.35
1052.2876	3232.4954	883.5	4.05
1052.3889	3233.4102	882.15	3.55
1052.4902	3234.3244	882.35	3.2
1052.5914	3235.238	881.75	5.3
1052.6926	3236.151	908.35	7.5
1052.7937	3237.0634	882.4	5.5
1052.8948	3237.9752	882.05	6.35
1052.9958	3238.8864	883.2	7.5
1053.0968	3239.797	881.4	4.05
1053.1977	3240.7069	883.8	6.35
1053.2986	3241.6163	883.65	3.45
1053.3994	3242.5251	880.85	3.6
1053.5002	3243.4332	882.2	6.75
1053.6009	3244.3408	883.9	6.3
1053.7016	3245.2477	882.55	5.7
1053.8022	3246.154	882.8	5.05
1053.9028	3247.0598	883.3	4.5
1054.0034	3247.9649	881.5	5.7
1054.1039	3248.8694	883.3	7.55
1054.2043	3249.7733	881.65	6.15
1054.3047	3250.6766	881.9	4.1
1054.4051	3251.5793	883.15	6.45
1054.5054	3252.4814	880.35	3.55
1054.6056	3253.3829	882.9	4.3
1054.7058	3254.2838	880.55	3.55
1054.806	3255.1841	882.35	7.65
1054.9061	3256.0838	881.55	2.95
1055.0061	3256.9829	883.15	7.55
1055.1062	3257.8814	883.8	5.65
1055.2061	3258.7792	883.6	2.95
1055.306	3259.6765	881.15	2.75
1055.4059	3260.5731	883.65	9
1055.5057	3261.4692	882.45	5.2
1055.6055	3262.3647	884.35	5.75
1055.7052	3263.2595	882.35	4.5
1055.8049	3264.1538	883.5	7.1
1055.9045	3265.0474	883.2	6.75
1056.0041	3265.9404	880.05	3.65
1056.1036	3266.8329	881.25	3.8
1056.2031	3267.7247	889.7	2.35
1056.3025	3268.616	879.3	3.75
1056.4019	3269.5066	881.1	3.7
1056.5013	3270.3966	881.95	4.3
1056.6005	3271.286	882	6.8
