Software Version:	3.9.2.0
Unit SN:	10000200
Spectrometer SN:	6960
Date:	3/26/2024 1:58:36 PM
Data Line Index:	25
Spectral Points:	2048
Integration time (ms):	125
Averages:	20
Delay (ms):	30000
Sequence Number:	1
Processing:	dark subtract
Laser Power (mW):	305
Laser Current (mA):	821
Laser Diode Temp (C):	25
Laser Case Temp (C):	27.3
System Temp (C):	27.3
Spectrometer Temp (C):	25.2
CCD Temp (C):	0.008
Secondary Temp (C):	20.006
Heatsink Temp (C):	22.706
CCDPCB Temp (C):	36.863
SecondaryPCB Temp (C):	34.35

Wavelength	RamanShift	Raw Counts	Dark Subtracted
787.061	30.1047	587.05	178.6
787.2016	32.3739	599	192.2
787.3422	34.6426	611.45	202.35
787.4828	36.9109	619	207.1
787.6235	39.1787	639.7	225.2
787.7642	41.4461	660	240.8
787.9049	43.7131	683.05	259.25
788.0456	45.9796	699.45	271.55
788.1863	48.2456	718.6	287
788.3271	50.5112	744.9	310.35
788.4679	52.7764	766.05	328
788.6087	55.0411	780.65	340.25
788.7496	57.3054	809.75	364.3
788.8904	59.5692	836.5	387.95
789.0313	61.8326	867.2	414.2
789.1722	64.0955	896.2	437.8
789.3132	66.3579	939.65	477.3
789.4541	68.6199	977.7	511.8
789.5951	70.8815	1053.9	587.4
789.7361	73.1426	1215.25	742.9
789.8771	75.4032	1632.95	1154.25
790.0181	77.6634	2634.4	2150.2
790.1592	79.9231	5121.5	4625.75
790.3003	82.1824	10852.4	10336.85
790.4414	84.4412	22215.55	21662.35
790.5825	86.6995	42550.1	41947.25
790.7237	88.9574	56030.75	55377.4
790.8648	91.2148	61921.65	61231.95
791.006	93.4717	63032.2	62323.15
791.1472	95.7282	63478.15	62759
791.2885	97.9842	63671.45	62946.45
791.4297	100.2398	63578.15	62845.95
791.571	102.4949	63530	62796.1
791.7123	104.7495	63424.5	62688
791.8536	107.0036	63230.25	62500.5
791.9949	109.2573	63373.05	62641
792.1363	111.5105	63131.5	62395.05
792.2777	113.7632	63103.55	62366.9
792.4191	116.0154	63151.8	62403.45
792.5605	118.2672	63242.9	62499.95
792.7019	120.5185	63219.5	62473.55
792.8434	122.7693	63157.2	62412.5
792.9849	125.0197	62815.65	62064.45
793.1264	127.2696	63368.55	62615.45
793.2679	129.519	63212.85	62452.65
793.4094	131.7679	63427.2	62666.2
793.551	134.0163	62845.35	62080.6
793.6926	136.2642	63051.95	62283.4
793.8342	138.5117	63356.5	62586
793.9758	140.7587	63205.3	62430.9
794.1175	143.0052	63164.65	62388.75
794.2591	145.2512	62834.8	62063.4
794.4008	147.4967	63206.95	62434.5
794.5425	149.7417	63075.65	62302.55
794.6842	151.9863	63056.9	62277.85
794.826	154.2304	62853.25	62064.55
794.9677	156.4739	62957.75	62167.9
795.1095	158.717	63214.75	62429.65
795.2513	160.9596	62987.95	62195.8
795.3931	163.2017	62636.7	61839.4
795.535	165.4433	62926.8	62127.5
795.6768	167.6844	62705.25	61909.85
795.8187	169.925	62832.05	62029.1
795.9606	172.1651	62583.7	61781.3
796.1025	174.4047	62685.8	61882.75
796.2445	176.6439	62561.7	61754.7
796.3864	178.8825	62428.1	61620.85
796.5284	181.1206	62767.6	61956.65
796.6704	183.3582	62650.65	61832.1
796.8124	185.5954	62513.75	61695.7
796.9544	187.832	62536.95	61713.45
797.0965	190.0681	62269.2	61439.4
797.2386	192.3037	62655.5	61824.45
797.3806	194.5388	63029.1	62190.8
797.5228	196.7734	62010.1	61174.2
797.6649	199.0075	62960.95	62120.2
797.807	201.2411	62616.55	61775.5
797.9492	203.4742	63122.55	62281.2
798.0914	205.7068	62992.8	62147.8
798.2336	207.9389	62952.65	62106.3
798.3758	210.1704	62944.75	62101.9
798.518	212.4015	63282.85	62431.65
798.6603	214.632	62898.9	62047.35
798.8025	216.862	63328.9	62489.7
798.9448	219.0915	63087.3	62253
799.0871	221.3205	63077.4	62241.9
799.2294	223.549	63466.2	62638.6
799.3718	225.777	63419.8	62593.8
799.5141	228.0044	63636.35	62803.75
799.6565	230.2314	63519.15	62696.7
799.7989	232.4578	63555.9	62733.5
799.9413	234.6837	63659.9	62830.15
800.0837	236.909	64177.5	63342.1
800.2262	239.1339	63344.65	62481.05
800.3687	241.3582	63713.3	62866.85
800.5111	243.582	63678.25	62802.95
800.6536	245.8053	63598.4	62737.55
800.7961	248.0281	63650.55	62792.35
800.9387	250.2503	63699.7	62831.65
801.0812	252.472	63424.4	62549.15
801.2238	254.6932	63609.25	62736.35
801.3664	256.9139	63464.75	62595.55
801.509	259.134	63998.5	63117.25
801.6516	261.3536	63423.1	62545.3
801.7942	263.5727	63695.15	62813.85
801.9369	265.7912	63552.65	62676.15
802.0795	268.0092	63635.45	62762.5
802.2222	270.2267	63692.35	62815.15
802.3649	272.4436	63432.9	62551.3
802.5076	274.6601	63683.35	62800.15
802.6504	276.8759	63770.5	62893.2
802.7931	279.0913	63583.85	62700.15
802.9359	281.3061	63669.25	62783.75
803.0787	283.5204	63653.1	62767.35
803.2215	285.7341	63665.55	62770.45
803.3643	287.9473	63897.75	62993.65
803.5071	290.16	63745.15	62851.6
803.6499	292.3721	63888.5	62999.1
803.7928	294.5837	63735.6	62840.85
803.9357	296.7947	63604.05	62714.7
804.0786	299.0052	63990.4	63096.25
804.2215	301.2152	63804.45	62911.35
804.3644	303.4246	63869.6	62980.55
804.5074	305.6334	63828.7	62944.25
804.6503	307.8418	63498.05	62607.65
804.7933	310.0495	63461.95	62565.9
804.9363	312.2568	63438.2	62545.15
805.0793	314.4635	63398.65	62504.35
805.2223	316.6696	63542.45	62650.1
805.3653	318.8752	63678.1	62775.15
805.5084	321.0802	63086.05	62187.4
805.6514	323.2847	63398	62494.3
805.7945	325.4887	63349.45	62448
805.9376	327.692	63202.1	62296.2
806.0807	329.8949	63332.1	62429.05
806.2238	332.0972	63148.25	62241.6
806.367	334.2989	63249.6	62341.55
806.5101	336.5001	63404.75	62496.3
806.6533	338.7007	62931.65	62022.1
806.7965	340.9008	63164.65	62252.35
806.9397	343.1003	63176.95	62268.1
807.0829	345.2992	63324.8	62413.25
807.2261	347.4976	63067.1	62154.75
807.3693	349.6955	63189.7	62270.9
807.5126	351.8927	63010.2	62090.65
807.6559	354.0895	63190.85	62265.75
807.7991	356.2856	63175.3	62256.95
807.9424	358.4812	63362.3	62441
808.0857	360.6763	62978.85	62060.6
808.2291	362.8707	63301.5	62387
808.3724	365.0646	63088.8	62170.6
808.5158	367.258	63120.35	62198.05
808.6591	369.4508	62901.6	61974.5
808.8025	371.643	63307.5	62385.1
808.9459	373.8346	63092.7	62162.2
809.0893	376.0257	63109.4	62176.5
809.2327	378.2162	63011.65	62084.05
809.3762	380.4062	62699.25	61770.95
809.5196	382.5956	62928.55	61997.85
809.6631	384.7844	62889.25	61963.1
809.8066	386.9726	63025.65	62094.75
809.9501	389.1603	63035.95	62109.5
810.0936	391.3474	62751.85	61778.7
810.2371	393.5339	62942.3	62013.25
810.3806	395.7199	62579.9	61656.6
810.5241	397.9052	62648.6	61722.55
810.6677	400.09	62728.3	61809.55
810.8113	402.2743	62979.7	62060.9
810.9548	404.4579	62710.45	61789.3
811.0984	406.641	62728.55	61804.9
811.2421	408.8235	62862.55	61939.25
811.3857	411.0054	62936.75	62013.6
811.5293	413.1868	63032.7	62102.4
811.673	415.3675	62980.5	62052.9
811.8166	417.5477	62989.35	62061
811.9603	419.7273	62994.2	62064.2
812.104	421.9064	62937.3	61999.3
812.2477	424.0848	62957.3	62024.7
812.3914	426.2627	63122.9	62186.5
812.5351	428.4399	62758.05	61819.15
812.6788	430.6166	62415.8	61473.4
812.8226	432.7928	62731.15	61792.75
812.9663	434.9683	62405.65	61472.2
813.1101	437.1432	62367	61433.55
813.2539	439.3176	62582.05	61654.15
813.3977	441.4914	62123.8	61194.6
813.5415	443.6645	62209.8	61276.1
813.6853	445.8371	62238.7	61304.65
813.8291	448.0091	62034.95	61103.45
813.973	450.1806	61882.25	60951.4
814.1168	452.3514	61956.3	61028.5
814.2607	454.5216	61723.5	60784.45
814.4046	456.6913	61962.45	61029.65
814.5485	458.8603	62028.4	61102.35
814.6924	461.0288	61695.4	60768.65
814.8363	463.1967	61991.25	61067.25
814.9802	465.3639	61966.5	61034.95
815.1241	467.5306	61437.45	60509.05
815.2681	469.6967	61787.9	60863.35
815.412	471.8622	62026.45	61100.95
815.556	474.0271	61809.55	60880
815.7	476.1914	61870.5	60928.4
815.844	478.3551	61876.75	60939.75
815.988	480.5182	62203.05	61273
816.132	482.6807	61709.2	60783.9
816.276	484.8426	61782.9	60869.7
816.4201	487.0039	62242.5	61320
816.5641	489.1647	62280.1	61347.6
816.7082	491.3248	61848.65	60910.8
816.8522	493.4843	62404.2	61474.05
816.9963	495.6432	62408.35	61481.7
817.1404	497.8015	61884.85	60946.6
817.2845	499.9592	62188.7	61242.8
817.4286	502.1163	62140.1	61194.95
817.5727	504.2728	62076.25	61143.5
817.7168	506.4287	61978.7	61058.5
817.861	508.5839	61613.35	60687.55
818.0051	510.7386	61775.4	60844.6
818.1493	512.8927	61853.15	60911.9
818.2935	515.0461	61670.45	60732.2
818.4377	517.199	61891.95	60948.85
818.5818	519.3512	61683.1	60741.85
818.726	521.5029	61647.8	60705.75
818.8703	523.6539	61737.1	60799.4
819.0145	525.8043	61355.85	60415.15
819.1587	527.9541	61691.95	60748.8
819.303	530.1033	61659.55	60714.8
819.4472	532.2519	61469.45	60529.7
819.5915	534.3999	61744.3	60800.1
819.7357	536.5472	61980.45	61039.05
819.88	538.694	61532.25	60595.9
820.0243	540.8401	61931.8	60988.35
820.1686	542.9856	62014.75	61059.1
820.3129	545.1305	62199.9	61239.4
820.4572	547.2748	61840.35	60874.75
820.6016	549.4185	61783.85	60820.25
820.7459	551.5615	61988.2	61026.9
820.8902	553.704	61834.15	60876.75
821.0346	555.8458	61651.15	60699.2
821.1789	557.987	61730.9	60778.2
821.3233	560.1276	61828.3	60871.65
821.4677	562.2675	61659.05	60699.9
821.6121	564.4069	61737.65	60774.6
821.7565	566.5456	61958	61006.05
821.9009	568.6837	61552.15	60599.2
822.0453	570.8212	61689.75	60741.45
822.1897	572.958	61141.8	60187.35
822.3342	575.0942	61473.65	60527.25
822.4786	577.2299	61135.7	60197.75
822.6231	579.3648	61096.9	60170.4
822.7675	581.4992	60999.95	60084.55
822.912	583.6329	61003.8	60088.1
823.0565	585.766	61037.5	60115.8
823.201	587.8985	61197.1	60266.8
823.3454	590.0304	60711.2	59759.25
823.4899	592.1616	61031.15	60080.9
823.6345	594.2922	60820.65	59866.35
823.779	596.4222	60596.7	59638.75
823.9235	598.5515	60654.55	59697.5
824.068	600.6802	60773.85	59819.55
824.2126	602.8083	60361.15	59410
824.3571	604.9358	60315.95	59361.05
824.5017	607.0626	60539.1	59583.35
824.6462	609.1888	60073.6	59106.55
824.7908	611.3144	60388	59424.25
824.9354	613.4393	60146	59178.85
825.08	615.5636	59897.35	58935.05
825.2246	617.6873	60119.25	59156.25
825.3692	619.8103	59785.6	58824.05
825.5138	621.9327	60074.95	59118.2
825.6584	624.0544	60160.55	59208.9
825.803	626.1756	59932.2	58979.5
825.9477	628.2961	59886.05	58925.45
826.0923	630.4159	59704.05	58740.75
826.237	632.5351	59568.5	58610.75
826.3816	634.6537	60131.2	59169.45
826.5263	636.7716	59485.45	58517.85
826.6709	638.8889	59665.3	58699.15
826.8156	641.0056	59610.7	58643.35
826.9603	643.1216	59690.4	58724.05
827.105	645.237	59827.9	58864.15
827.2497	647.3518	59429.95	58477.15
827.3944	649.4659	59567.95	58620
827.5391	651.5793	59548.05	58597.8
827.6838	653.6922	59628.1	58673.45
827.8285	655.8043	59166.6	58207.25
827.9733	657.9159	59801.4	58844.8
828.118	660.0268	58726.6	57771.7
828.2627	662.137	59264.1	58305.55
828.4075	664.2466	59358.15	58387.4
828.5522	666.3556	59105.7	58141.9
828.697	668.4639	59311.05	58353.9
828.8418	670.5716	59073.1	58117.5
828.9865	672.6786	59328.85	58368.25
829.1313	674.785	58911.95	57947.3
829.2761	676.8907	58947.05	57987.2
829.4209	678.9958	59097.15	58142.8
829.5657	681.1002	59163.9	58204.55
829.7105	683.204	58788	57817.55
829.8553	685.3072	58576.15	57608.55
830.0001	687.4097	58676.45	57712.65
830.1449	689.5115	58602.6	57634.25
830.2898	691.6127	58819.1	57855
830.4346	693.7132	58511.8	57554.95
830.5794	695.8131	58553.05	57572
830.7243	697.9123	58589.7	57621.35
830.8691	700.0109	58688.1	57712.3
831.014	702.1089	58248.9	57278.45
831.1588	704.2061	58352.85	57386.25
831.3037	706.3028	58402.2	57438.65
831.4486	708.3987	58389.65	57420.6
831.5935	710.4941	58218.9	57253.1
831.7383	712.5887	58564	57596.55
831.8832	714.6827	58458.4	57494.55
832.0281	716.7761	58686.75	57725.55
832.173	718.8688	58805.4	57842.15
832.3179	720.9608	58602.25	57628.45
832.4628	723.0522	58657.05	57681.25
832.6077	725.1429	58239.85	57268.9
832.7527	727.233	58888.65	57917.65
832.8976	729.3224	57792.65	56822.4
833.0425	731.4112	58025.35	57057.35
833.1874	733.4993	58018.15	57050.85
833.3324	735.5867	57953.25	56985.2
833.4773	737.6735	57655	56683.9
833.6222	739.7596	57396.8	56424.5
833.7672	741.845	57323.1	56354.1
833.9122	743.9298	57607.45	56638.05
834.0571	746.014	57238.3	56265.4
834.2021	748.0974	57009.25	56035
834.347	750.1802	57455.2	56480.35
834.492	752.2624	56742.55	55766.3
834.637	754.3439	56833	55860.35
834.782	756.4247	57050.6	56063.9
834.9269	758.5048	56722.95	55748.85
835.0719	760.5843	56927.3	55953.15
835.2169	762.6631	57112.4	56139.7
835.3619	764.7413	57087.1	56112.7
835.5069	766.8188	57356.95	56379.9
835.6519	768.8956	57628.5	56653.7
835.7969	770.9718	57635.5	56662.65
835.9419	773.0473	57460.55	56488.55
836.0869	775.1221	56997.5	56026.3
836.232	777.1962	56833.15	55861.45
836.377	779.2697	56368.75	55388.9
836.522	781.3426	56603.4	55612.7
836.667	783.4147	56731.9	55752.25
836.8121	785.4862	56711.4	55734.7
836.9571	787.557	56439.15	55465.6
837.1021	789.6271	56592.65	55611.65
837.2472	791.6966	56067.1	55093.3
837.3922	793.7654	55521.1	54549.65
837.5373	795.8335	55392.4	54418.2
837.6823	797.901	55319.95	54343.4
837.8274	799.9678	55104.5	54124.7
837.9724	802.0339	55029	54049.6
838.1175	804.0993	55002.1	54014.4
838.2626	806.1641	54855.85	53878.2
838.4076	808.2282	54776.55	53801.7
838.5527	810.2916	54613.95	53637.7
838.6978	812.3544	54749.4	53778.65
838.8428	814.4164	54303.8	53327.7
838.9879	816.4778	54458.15	53476.4
839.133	818.5385	54385.9	53406.5
839.2781	820.5986	54349.7	53372.65
839.4232	822.658	54456.05	53475.15
839.5682	824.7166	54444.85	53473.1
839.7133	826.7747	54275.8	53293.75
839.8584	828.832	54476.45	53502.3
840.0035	830.8886	54624.8	53644.05
840.1486	832.9446	54671.55	53691.25
840.2937	834.9999	54064.8	53087.8
840.4388	837.0545	54303.8	53323.4
840.5839	839.1085	54348.6	53368.75
840.729	841.1618	54185.05	53200.35
840.8741	843.2143	53686.6	52711.3
841.0192	845.2662	53573	52594
841.1643	847.3175	53722.75	52742.75
841.3095	849.368	53069.1	52093.7
841.4546	851.4179	53424.35	52442.15
841.5997	853.467	52939.55	51963.2
841.7448	855.5155	53073.55	52095.6
841.8899	857.5633	52670.8	51690.4
842.0351	859.6105	52464.35	51486.9
842.1802	861.6569	52577.35	51595.5
842.3253	863.7027	52165	51181.85
842.4704	865.7478	52261.75	51280.65
842.6156	867.7922	52145.2	51166.85
842.7607	869.8359	52319.1	51337.8
842.9058	871.8789	51934.35	50953.25
843.0509	873.9212	52163.25	51151.1
843.1961	875.9629	52182.7	51202
843.3412	878.0039	52200.35	51217
843.4863	880.0441	52101.15	51124.8
843.6315	882.0837	52014.2	51033.1
843.7766	884.1226	51941	50960.95
843.9218	886.1609	51833.25	50856.4
844.0669	888.1984	51698.3	50718.45
844.212	890.2352	51955.9	50975.2
844.3572	892.2714	51512.5	50525.95
844.5023	894.3069	51600.7	50620.8
844.6475	896.3416	51317.95	50339.2
844.7926	898.3757	51224.35	50242.25
844.9377	900.4091	50826.8	49841.25
845.0829	902.4418	51201.65	50210.9
845.228	904.4739	50855.4	49869.45
845.3732	906.5052	50933.85	49948.7
845.5183	908.5358	50653.7	49674.4
845.6635	910.5658	50443.7	49459
845.8086	912.595	50256	49275.05
845.9538	914.6236	49816.65	48835.85
846.0989	916.6515	50213.55	49231.75
846.2441	918.6786	49608.5	48624.85
846.3892	920.7051	49739.7	48754.4
846.5344	922.7309	49725	48744.1
846.6795	924.756	49679.9	48700.45
846.8246	926.7804	49572.4	48592.2
846.9698	928.8041	49047.5	48064.65
847.1149	930.8272	49311.65	48327.85
847.2601	932.8495	49182.95	48196.05
847.4052	934.8711	48861.35	47879.75
847.5504	936.892	48598.15	47617.05
847.6955	938.9123	48545.45	47563.45
847.8407	940.9318	48273.55	47293
847.9858	942.9506	48138.8	47156.85
848.131	944.9688	48068.15	47090
848.2761	946.9862	47625.45	46645.9
848.4213	949.003	47571.05	46591.5
848.5664	951.019	47180.4	46201.7
848.7115	953.0344	47219.55	46240.65
848.8567	955.0491	47121.65	46142.2
849.0018	957.063	47260.1	46278.5
849.147	959.0763	47322.1	46335.75
849.2921	961.0888	47073.15	46094.05
849.4373	963.1007	47199.85	46224.75
849.5824	965.1119	47107.25	46138.3
849.7275	967.1223	46911	45948.3
849.8727	969.1321	47029.6	46067.65
850.0178	971.1412	46848.6	45878.1
850.1629	973.1495	46610.35	45632.75
850.3081	975.1572	46674.85	45654.1
850.4532	977.1641	46593.05	45614.35
850.5983	979.1704	46363.65	45381.75
850.7435	981.1759	46311.2	45326.45
850.8886	983.1808	46232.05	45251.25
851.0337	985.1849	46212.15	45221.9
851.1788	987.1884	46196.75	45219.65
851.324	989.1911	46312.6	45334.5
851.4691	991.1932	46027.1	45049.75
851.6142	993.1945	46021.95	45045.4
851.7593	995.1951	45903.35	44927.05
851.9045	997.1951	45698.15	44713.2
852.0496	999.1943	45512.95	44536
852.1947	1001.1928	45300.1	44318.2
852.3398	1003.1906	45247.1	44269.85
852.4849	1005.1877	45012.35	44031.05
852.63	1007.1841	44893	43914.9
852.7751	1009.1798	44713.1	43733.95
852.9202	1011.1748	44532.9	43557.55
853.0653	1013.1691	44294.9	43314.7
853.2104	1015.1627	43843	42864.35
853.3555	1017.1556	43497.65	42523.5
853.5006	1019.1477	43429	42458.35
853.6457	1021.1392	43059	42088.5
853.7908	1023.1299	42840.9	41876.6
853.9359	1025.12	42747.6	41791.55
854.081	1027.1093	42628.65	41683.05
854.2261	1029.0979	42532.5	41589.1
854.3712	1031.0859	42429.8	41482
854.5163	1033.0731	42246.6	41287.1
854.6613	1035.0596	42154.25	41188.9
854.8064	1037.0454	41881.2	40911.95
854.9515	1039.0304	41701.7	40732.8
855.0965	1041.0148	41415.85	40442.45
855.2416	1042.9985	41236.7	40262.1
855.3867	1044.9814	41221.9	40250.55
855.5317	1046.9636	40971	39999.55
855.6768	1048.9452	40827.25	39858.85
855.8219	1050.926	40787.85	39813.85
855.9669	1052.9061	40635.6	39665.3
856.112	1054.8855	40573	39598.75
856.257	1056.8642	40468.35	39495.35
856.4021	1058.8421	40445.9	39472.1
856.5471	1060.8194	40368.6	39391.95
856.6921	1062.7959	40329.35	39359.55
856.8372	1064.7717	40222.75	39247.65
856.9822	1066.7469	40148.9	39172.3
857.1272	1068.7213	40091.8	39116.45
857.2723	1070.695	40000.1	39028.75
857.4173	1072.6679	39782.85	38809.55
857.5623	1074.6402	39728.35	38754.5
857.7073	1076.6117	39597.55	38624.35
857.8523	1078.5826	39540.05	38564.85
857.9973	1080.5527	39422.75	38445.5
858.1423	1082.5221	39293.45	38321.05
858.2873	1084.4908	39317.95	38346.35
858.4323	1086.4587	39323.7	38349.55
858.5773	1088.426	39334.1	38357.85
858.7223	1090.3925	39224.95	38248.95
858.8673	1092.3584	39145.65	38173.85
859.0123	1094.3235	38843.55	37869.05
859.1573	1096.2879	38735.25	37765.45
859.3022	1098.2515	38718.7	37747.95
859.4472	1100.2145	38706.4	37738.85
859.5922	1102.1767	38622.75	37647.35
859.7371	1104.1382	38689.8	37716.6
859.8821	1106.099	38770.45	37798.5
860.027	1108.0591	38802.9	37830.2
860.172	1110.0185	38793.1	37817.6
860.3169	1111.9771	38809.85	37839.8
860.4619	1113.9351	38509.45	37538.55
860.6068	1115.8923	38211.7	37238.1
860.7517	1117.8488	37867.45	36892.95
860.8967	1119.8045	37541.35	36572.6
861.0416	1121.7596	37395.95	36428.2
861.1865	1123.7139	37162.25	36192.75
861.3314	1125.6675	37133.75	36167.15
861.4763	1127.6204	37203.65	36232.95
861.6212	1129.5726	37028	36057.2
861.7661	1131.524	36952.7	35981.8
861.911	1133.4748	36854.2	35881.8
862.0559	1135.4248	36668.05	35693.9
862.2008	1137.3741	36620.75	35649.3
862.3457	1139.3226	36491.05	35516.8
862.4905	1141.2705	36424.15	35456.3
862.6354	1143.2176	36143.7	35169.3
862.7803	1145.164	36092.15	35115.1
862.9251	1147.1097	35999.45	35027.95
863.07	1149.0546	35957.7	34987
863.2148	1150.9989	35851.15	34879.95
863.3597	1152.9424	35678.55	34707.25
863.5045	1154.8852	35516.4	34547.2
863.6493	1156.8272	35409.55	34441.5
863.7942	1158.7686	35412.85	34435
863.939	1160.7092	35183.2	34210.9
864.0838	1162.6491	35060.9	34084
864.2286	1164.5883	35093.85	34126.3
864.3734	1166.5267	35013.35	34044.05
864.5182	1168.4644	35089.5	34120.6
864.663	1170.4014	35203.1	34232.75
864.8078	1172.3377	35366	34405.7
864.9526	1174.2732	35407.05	34441.4
865.0974	1176.2081	35588	34625.85
865.2421	1178.1421	35736.15	34763.15
865.3869	1180.0755	35945.55	34980.5
865.5317	1182.0082	35917.05	34949.45
865.6764	1183.9401	35885.55	34923.85
865.8212	1185.8713	35677.95	34720.1
865.9659	1187.8017	35465.85	34516.25
866.1106	1189.7315	35191.9	34248.2
866.2554	1191.6605	34786.15	33841.8
866.4001	1193.5888	34497.9	33551.15
866.5448	1195.5163	34367.35	33406.9
866.6895	1197.4432	34147.2	33183.65
866.8342	1199.3693	34017.45	33056.45
866.9789	1201.2947	33909.7	32945.95
867.1236	1203.2193	33782.45	32820.9
867.2683	1205.1432	33741.4	32777.2
867.413	1207.0664	33598.7	32634.25
867.5576	1208.9889	33563.15	32596.3
867.7023	1210.9106	33452.95	32490.1
867.847	1212.8316	33367.55	32405.1
867.9916	1214.7519	33331.7	32358.8
868.1363	1216.6715	33234.35	32269.4
868.2809	1218.5903	33229.3	32265
868.4255	1220.5084	33110.8	32148.75
868.5701	1222.4257	33126.65	32163.65
868.7148	1224.3424	32959.45	31998.25
868.8594	1226.2583	32908.55	31945.95
869.004	1228.1735	32903.55	31939.75
869.1486	1230.0879	32783.5	31820.6
869.2932	1232.0016	32855.55	31892.45
869.4377	1233.9146	32810.6	31849
869.5823	1235.8269	32641	31676.8
869.7269	1237.7384	32588.25	31624.5
869.8715	1239.6492	32292.1	31331.1
870.016	1241.5592	32224.65	31261.3
870.1606	1243.4686	32070.25	31108.2
870.3051	1245.3772	32009.7	31049.2
870.4496	1247.285	31863.2	30901.5
870.5941	1249.1922	31831.65	30871.9
870.7387	1251.0986	31790.1	30827.2
870.8832	1253.0042	31636.5	30678.35
871.0277	1254.9092	31686.8	30726.65
871.1722	1256.8134	31643.6	30684.05
871.3167	1258.7169	31685.7	30728.1
871.4611	1260.6196	31728.4	30768.1
871.6056	1262.5216	31852.75	30891.25
871.7501	1264.4229	31869.65	30910.9
871.8945	1266.3234	32029.35	31069.5
872.039	1268.2232	31980.6	31018.85
872.1834	1270.1223	31908	30946.3
872.3278	1272.0207	31883	30919.85
872.4723	1273.9183	31763.85	30798.8
872.6167	1275.8151	31672.2	30714.35
872.7611	1277.7113	31550.05	30591.55
872.9055	1279.6067	31421.4	30462.4
873.0499	1281.5014	31292.45	30328
873.1943	1283.3953	31274.1	30312.4
873.3386	1285.2885	31338.1	30379.9
873.483	1287.181	31384.95	30424.25
873.6274	1289.0727	31539.85	30579.45
873.7717	1290.9637	31495.15	30540.4
873.9161	1292.854	31584.6	30627.45
874.0604	1294.7435	31540.8	30580.6
874.2047	1296.6323	31600.4	30641.45
874.349	1298.5204	31668.95	30704.8
874.4933	1300.4077	31671.2	30713.1
874.6376	1302.2943	31659.85	30701.65
874.7819	1304.1802	31627.9	30668.95
874.9262	1306.0653	31326.35	30366.15
875.0705	1307.9497	31110	30153.45
875.2147	1309.8333	30973.5	30015.15
875.359	1311.7162	30766.2	29807.9
875.5032	1313.5984	30785.7	29825.2
875.6475	1315.4798	30663.7	29693.85
875.7917	1317.3605	30612.05	29648.5
875.9359	1319.2405	30680.85	29719.35
876.0801	1321.1197	30535.6	29575.85
876.2243	1322.9982	30319.75	29357.6
876.3685	1324.876	30272.4	29315.1
876.5127	1326.753	30079.05	29119.5
876.6569	1328.6293	30040.2	29080.3
876.801	1330.5048	30012.2	29048.7
876.9452	1332.3796	29823.35	28863.3
877.0893	1334.2537	29861.3	28876.25
877.2335	1336.127	29719.15	28762
877.3776	1337.9996	29612.7	28657.3
877.5217	1339.8714	29547.35	28586.6
877.6658	1341.7426	29515.6	28510.55
877.8099	1343.6129	29433.85	28469.7
877.954	1345.4826	29355.25	28396.75
878.0981	1347.3515	29379.7	28416.1
878.2422	1349.2196	29248.25	28286.95
878.3862	1351.087	29225.7	28268.5
878.5303	1352.9537	29189.7	28231.2
878.6743	1354.8197	29314.2	28357.2
878.8184	1356.6849	29440.55	28480.65
878.9624	1358.5493	29408.8	28452.15
879.1064	1360.4131	29412.05	28450.65
879.2504	1362.276	29339.55	28382.5
879.3944	1364.1383	29227.9	28272.95
879.5384	1365.9998	28979.05	28017
879.6823	1367.8606	28680.6	27721.95
879.8263	1369.7206	28399.3	27440.65
879.9702	1371.5799	28105.7	27149.2
880.1142	1373.4384	27866.75	26905.2
880.2581	1375.2962	27696.45	26739.95
880.402	1377.1533	27389.6	26434.55
880.5459	1379.0096	27012.45	26061.7
880.6898	1380.8652	26734.85	25781.95
880.8337	1382.7201	26516.1	25564.05
880.9776	1384.5742	26229.95	25278
881.1215	1386.4275	26042.6	25083.05
881.2653	1388.2802	25870.85	24911.2
881.4092	1390.132	25686.3	24731.4
881.553	1391.9832	25617.85	24660.9
881.6968	1393.8336	25426.6	24472.1
881.8406	1395.6832	25351	24394.15
881.9844	1397.5322	25254	24297.45
882.1282	1399.3803	25167.6	24207.5
882.272	1401.2278	24997.65	24041.65
882.4158	1403.0745	24983.85	24030.45
882.5595	1404.9204	24835.2	23881.05
882.7033	1406.7656	24840.45	23885.35
882.847	1408.6101	24763.45	23810.65
882.9908	1410.4538	24703	23747.7
883.1345	1412.2968	24648.9	23694.2
883.2782	1414.139	24563.75	23611
883.4219	1415.9805	24622.1	23666.9
883.5656	1417.8213	24594.35	23622.15
883.7092	1419.6613	24633.75	23680.5
883.8529	1421.5006	24701.55	23747.5
883.9965	1423.3391	24839.8	23888
884.1402	1425.1769	24947.55	23992.8
884.2838	1427.0139	25304.25	24349.55
884.4274	1428.8502	25643.55	24691.25
884.571	1430.6858	26059.7	25109.25
884.7146	1432.5206	26244.9	25293.6
884.8582	1434.3547	26436.1	25481.65
885.0018	1436.188	26409.55	25454.45
885.1453	1438.0206	26309.4	25357.4
885.2889	1439.8524	26081.4	25128.7
885.4324	1441.6835	25963	25012.65
885.5759	1443.5139	25875.6	24926.1
885.7194	1445.3435	25757	24806.1
885.8629	1447.1724	25667.15	24720.9
886.0064	1449.0005	25576.75	24628.05
886.1499	1450.8279	25446.65	24492.95
886.2933	1452.6545	25380.95	24430.75
886.4368	1454.4804	25432.8	24483.05
886.5802	1456.3056	25359.65	24407.8
886.7237	1458.13	25230.55	24283.8
886.8671	1459.9536	25081.65	24130.7
887.0105	1461.7766	24843.8	23890.95
887.1539	1463.5987	24506.1	23552.75
887.2972	1465.4202	24188	23234.3
887.4406	1467.2409	23818.05	22868.2
887.584	1469.0608	23634.65	22684.35
887.7273	1470.88	23369.55	22416.25
887.8706	1472.6984	23167.9	22218.8
888.0139	1474.5161	22948.65	21998.6
888.1572	1476.3331	22728.45	21777.95
888.3005	1478.1493	22692.65	21740.1
888.4438	1479.9648	22587.1	21635.2
888.5871	1481.7795	22465.95	21512.85
888.7303	1483.5935	22399.2	21448.2
888.8736	1485.4067	22301.45	21352.1
889.0168	1487.2192	22229.55	21280
889.16	1489.031	22192.05	21242.6
889.3032	1490.842	22106.65	21157.25
889.4464	1492.6522	22068.3	21118.45
889.5896	1494.4618	21979.2	21029.05
889.7327	1496.2705	21943.5	20995.35
889.8759	1498.0785	21878.85	20929.75
890.019	1499.8858	21795.6	20847.45
890.1622	1501.6924	21716.9	20767.85
890.3053	1503.4981	21705.55	20757.9
890.4484	1505.3032	21649.7	20700.65
890.5914	1507.1075	21587.1	20637.05
890.7345	1508.911	21513.9	20566.65
890.8776	1510.7138	21447	20495
891.0206	1512.5159	21384.1	20436.3
891.1637	1514.3172	21293.2	20344.85
891.3067	1516.1178	21176.9	20230.6
891.4497	1517.9176	21162.2	20214.6
891.5927	1519.7166	21023.05	20079.55
891.7357	1521.515	20984.85	20030.2
891.8786	1523.3126	20947.4	20001.3
892.0216	1525.1094	20862.05	19915.85
892.1645	1526.9055	20782.5	19839.05
892.3074	1528.7008	20720.3	19774.4
892.4503	1530.4954	20596.15	19648.15
892.5932	1532.2893	20566.9	19626.85
892.7361	1534.0824	20449.4	19503.7
892.879	1535.8747	20445.35	19508.55
893.0218	1537.6663	20379.65	19440
893.1647	1539.4572	20320.7	19380.65
893.3075	1541.2473	20303.4	19360.8
893.4503	1543.0367	20216.3	19275
893.5931	1544.8253	20141.7	19198
893.7359	1546.6132	20122.35	19174.05
893.8787	1548.4003	20067.35	19116.65
894.0214	1550.1867	20082.35	19136.3
894.1642	1551.9723	20027.9	19083.7
894.3069	1553.7572	20030.6	19092.4
894.4496	1555.5414	19983.35	19048.7
894.5923	1557.3247	19980.7	19043.85
894.735	1559.1074	20020.95	19090.8
894.8777	1560.8893	20047.2	19116.55
895.0204	1562.6705	20090.9	19159.3
895.163	1564.4509	20069.4	19139.35
895.3056	1566.2305	20061.85	19131.45
895.4482	1568.0094	20146.4	19217.9
895.5908	1569.7876	20145.4	19215.35
895.7334	1571.565	20118.2	19188.55
895.876	1573.3417	20072.65	19141.3
896.0186	1575.1176	20031.35	19100.65
896.1611	1576.8928	19959.2	19033.25
896.3036	1578.6672	19865.55	18942.75
896.4461	1580.4409	19752.4	18830.65
896.5886	1582.2138	19671.95	18745
896.7311	1583.986	19564.8	18638.7
896.8736	1585.7575	19532.6	18604.95
897.0161	1587.5282	19446.25	18524.1
897.1585	1589.2981	19403.65	18482.2
897.3009	1591.0673	19335.5	18415.45
897.4433	1592.8358	19347.55	18424.2
897.5857	1594.6035	19340.95	18413.95
897.7281	1596.3704	19282.95	18353.1
897.8705	1598.1366	19283.95	18357.4
898.0128	1599.9021	19294.15	18370.05
898.1551	1601.6668	19259.25	18333.25
898.2975	1603.4308	19237.95	18311.35
898.4398	1605.194	19378.7	18447.45
898.5821	1606.9564	19398.7	18481.5
898.7243	1608.7182	19489.15	18573.75
898.8666	1610.4791	19574.7	18666.8
899.0088	1612.2394	19698.95	18793.8
899.1511	1613.9988	19799.65	18886
899.2933	1615.7576	19966.1	19048.5
899.4355	1617.5156	20109.25	19180.1
899.5776	1619.2728	20224.85	19298.85
899.7198	1621.0293	20233.05	19306.8
899.862	1622.785	20123.2	19202.75
900.0041	1624.54	19977.55	19059.3
900.1462	1626.2942	19822.15	18909.15
900.2883	1628.0477	19531.1	18613.7
900.4304	1629.8005	19322.05	18400.95
900.5725	1631.5525	19111.6	18196
900.7145	1633.3037	18935.1	18019.5
900.8566	1635.0542	18767.6	17850.7
900.9986	1636.804	18665.25	17748.8
901.1406	1638.553	18641.7	17672.05
901.2826	1640.3013	18502.5	17586.45
901.4245	1642.0488	18420.6	17503.6
901.5665	1643.7955	18457.4	17543.65
901.7085	1645.5416	18409.65	17496.2
901.8504	1647.2868	18453.7	17534.75
901.9923	1649.0313	18472.45	17554.15
902.1342	1650.7751	18609.05	17688.25
902.2761	1652.5181	18673.8	17761.1
902.4179	1654.2604	18746.3	17832.4
902.5598	1656.0019	18877.6	17960.7
902.7016	1657.7427	19055	18139.1
902.8434	1659.4828	19308.5	18389.55
902.9852	1661.222	19421.65	18503.05
903.127	1662.9606	19375.15	18457.9
903.2687	1664.6984	19194.25	18269.95
903.4105	1666.4354	18880.25	17954.5
903.5522	1668.1717	18403.8	17479.45
903.6939	1669.9072	17963.6	17038.75
903.8356	1671.642	17643.8	16720.3
903.9773	1673.3761	17331.45	16411.65
904.119	1675.1094	17039.5	16122.2
904.2606	1676.8419	16865.8	15945.15
904.4022	1678.5737	16672.3	15753.15
904.5439	1680.3048	16532.15	15610.9
904.6855	1682.0351	16430.9	15510.75
904.827	1683.7646	16274.95	15350.65
904.9686	1685.4934	16184.45	15266.2
905.1101	1687.2215	16132.25	15215.7
905.2517	1688.9488	15992.9	15080.2
905.3932	1690.6754	15917.8	15002.85
905.5347	1692.4012	15883.9	14965.2
905.6761	1694.1263	15812.75	14891.9
905.8176	1695.8506	15736.1	14817.8
905.9591	1697.5742	15672.55	14758.05
906.1005	1699.297	15627.15	14716.45
906.2419	1701.0191	15543.45	14634.1
906.3833	1702.7404	15482.8	14572.3
906.5246	1704.461	15404.4	14488.3
906.666	1706.1808	15334.7	14419.5
906.8073	1707.8999	15283.65	14373.75
906.9487	1709.6182	15241.6	14331.35
907.09	1711.3358	15201.5	14293.6
907.2313	1713.0527	15125.25	14219.15
907.3725	1714.7688	15068.5	14155.95
907.5138	1716.4841	15016	14102.6
907.655	1718.1987	15007.2	14088.95
907.7962	1719.9126	14896.25	13987.8
907.9374	1721.6257	14850.4	13942.7
908.0786	1723.338	14841.65	13936.2
908.2198	1725.0496	14746.95	13837.2
908.3609	1726.7605	14734.6	13822.65
908.502	1728.4706	14681.75	13769.2
908.6431	1730.18	14598.65	13689.95
908.7842	1731.8886	14549.45	13645.6
908.9253	1733.5964	14568.85	13642.05
909.0664	1735.3036	14517	13607.55
909.2074	1737.0099	14450.95	13543.3
909.3484	1738.7156	14443.85	13537.35
909.4894	1740.4204	14374.85	13468.1
909.6304	1742.1246	14342.4	13433.95
909.7714	1743.8279	14273.3	13366.95
909.9123	1745.5306	14273.75	13369.15
910.0532	1747.2325	14201	13293.65
910.1941	1748.9336	14179.7	13271.2
910.335	1750.634	14108.8	13196.15
910.4759	1752.3336	14095.8	13187.5
910.6168	1754.0325	14055.55	13153.1
910.7576	1755.7307	14035	13131.6
910.8984	1757.4281	14035.15	13128.05
911.0392	1759.1247	13983.7	13063.6
911.18	1760.8206	13940.95	13022.85
911.3208	1762.5158	13953.05	13039.85
911.4615	1764.2102	13864.1	12955.45
911.6022	1765.9039	13800.55	12893.95
911.7429	1767.5968	13777.45	12875.7
911.8836	1769.289	13731.1	12827.65
912.0243	1770.9804	13676.85	12768.5
912.1649	1772.6711	13679.45	12769.55
912.3056	1774.361	13654	12740.8
912.4462	1776.0502	13639.95	12728.8
912.5868	1777.7386	13593.75	12682.9
912.7274	1779.4263	13604.6	12697.8
912.8679	1781.1132	13568.3	12664.65
913.0084	1782.7994	13498.2	12595.9
913.149	1784.4849	13496.1	12595.25
913.2895	1786.1696	13444.2	12537.1
913.4299	1787.8535	13410.2	12511.7
913.5704	1789.5367	13368.65	12470
913.7108	1791.2192	13346.4	12445.2
913.8513	1792.9009	13297.5	12364.35
913.9917	1794.5818	13266.8	12357.5
914.132	1796.2621	13245.2	12339.2
914.2724	1797.9415	13229.05	12321.15
914.4128	1799.6202	13144.2	12238.25
914.5531	1801.2982	13134.7	12225.75
914.6934	1802.9755	13115.95	12207.25
914.8337	1804.6519	13104.05	12196.5
914.9739	1806.3277	13006.7	12101
915.1142	1808.0027	12977.05	12075.5
915.2544	1809.6769	12977	12080.05
915.3946	1811.3504	12904.1	12004.3
915.5348	1813.0231	12924.4	12023.45
915.675	1814.6951	12908.5	12007.15
915.8151	1816.3664	12904.85	11999.85
915.9553	1818.0369	12863.45	11959.6
916.0954	1819.7067	12826.6	11919.65
916.2355	1821.3757	12823.2	11915.6
916.3755	1823.044	12744.25	11835.3
916.5156	1824.7115	12740.8	11834.1
916.6556	1826.3783	12674.2	11768.8
916.7956	1828.0443	12635.5	11733.05
916.9356	1829.7096	12628.2	11723.55
917.0756	1831.3741	12613.85	11703.7
917.2155	1833.0379	12578.75	11677.4
917.3555	1834.701	12549.05	11646.8
917.4954	1836.3633	12535.7	11638.1
917.6353	1838.0248	12472.85	11570.75
917.7751	1839.6856	12447.05	11543.95
917.915	1841.3457	12427.7	11522.85
918.0548	1843.005	12438.15	11531.8
918.1946	1844.6636	12404.45	11499.7
918.3344	1846.3214	12373.9	11469.15
918.4742	1847.9785	12367.65	11463
918.6139	1849.6349	12348.35	11443.6
918.7537	1851.2904	12316.25	11398.95
918.8934	1852.9453	12283.05	11375.3
919.0331	1854.5994	12244.45	11336.15
919.1727	1856.2528	12239.35	11326.8
919.3124	1857.9054	12186.1	11279.15
919.452	1859.5572	12201.85	11294.85
919.5916	1861.2083	12207.2	11303.25
919.7312	1862.8587	12175.3	11269.85
919.8708	1864.5084	12154.85	11246.2
920.0103	1866.1572	12093.9	11184.55
920.1498	1867.8054	12030.35	11120.8
920.2893	1869.4528	12033.6	11122.75
920.4288	1871.0994	11972.2	11065.15
920.5683	1872.7453	11967.25	11059.55
920.7077	1874.3905	11941.9	11029.55
920.8471	1876.0349	11915.65	11009.85
920.9865	1877.6786	11898.55	10989.95
921.1259	1879.3215	11899.6	10992.85
921.2653	1880.9637	11836.45	10929.25
921.4046	1882.6051	11864.9	10960.1
921.5439	1884.2458	11813.65	10908.15
921.6832	1885.8858	11754.9	10851.6
921.8225	1887.525	11752.6	10846.05
921.9617	1889.1634	11673.9	10766.7
922.101	1890.8011	11653.8	10744.75
922.2402	1892.4381	11648.8	10745.9
922.3794	1894.0743	11626.5	10721.3
922.5185	1895.7098	11592.25	10687.65
922.6577	1897.3446	11597.35	10690.8
922.7968	1898.9786	11536.05	10625.9
922.9359	1900.6118	11535.2	10635.05
923.075	1902.2443	11454.25	10550.4
923.214	1903.8761	11461.55	10561.1
923.3531	1905.5071	11391	10484.4
923.4921	1907.1374	11370.95	10464.4
923.6311	1908.7669	11354.05	10451.75
923.77	1910.3957	11324.7	10423.3
923.909	1912.0237	11274	10369.65
924.0479	1913.651	11255.3	10351
924.1868	1915.2776	11180.3	10277.7
924.3257	1916.9034	11172.35	10270.7
924.4646	1918.5285	11104.4	10203.75
924.6034	1920.1528	11084.85	10181.8
924.7422	1921.7764	11055.5	10153.7
924.881	1923.3992	11013.9	10111.65
925.0198	1925.0213	10946.3	10043.15
925.1586	1926.6427	10925	10021.4
925.2973	1928.2633	10949.25	9973.3
925.436	1929.8832	10862.1	9957.85
925.5747	1931.5023	10840	9937.3
925.7134	1933.1207	10810.9	9908.45
925.852	1934.7383	10801.7	9897.9
925.9906	1936.3552	10753.75	9853.3
926.1292	1937.9714	10736.3	9833.1
926.2678	1939.5868	10700.35	9793.65
926.4064	1941.2015	10632.85	9724.7
926.5449	1942.8154	10580.6	9674.1
926.6834	1944.4286	10557.7	9651.75
926.8219	1946.041	10521.1	9598.15
926.9604	1947.6528	10474.55	9566.35
927.0988	1949.2637	10441.55	9538.1
927.2372	1950.8739	10430.55	9528.35
927.3756	1952.4834	10402	9500.35
927.514	1954.0921	10380.6	9480.3
927.6523	1955.7001	10326.2	9421
927.7907	1957.3074	10289.8	9391.95
927.929	1958.9139	10267.5	9373.1
928.0673	1960.5197	10224.55	9323.1
928.2055	1962.1247	10178.9	9282.35
928.3438	1963.729	10149.15	9250.4
928.482	1965.3325	10162.9	9241.75
928.6202	1966.9353	10094.1	9199.05
928.7584	1968.5374	10068.2	9169.25
928.8965	1970.1387	10035.05	9137.15
929.0346	1971.7393	9998.35	9100.55
929.1727	1973.3392	9952.65	9054.3
929.3108	1974.9383	9945.25	9051.85
929.4489	1976.5366	9890.9	8996.5
929.5869	1978.1342	9873.45	8978.85
929.7249	1979.7311	9851.9	8955.2
929.8629	1981.3273	9824.9	8931.55
930.0009	1982.9227	9775.45	8882.05
930.1388	1984.5173	9746.4	8852.75
930.2767	1986.1112	9712.45	8820.1
930.4146	1987.7044	9682.55	8790.4
930.5525	1989.2968	9684.2	8787.25
930.6904	1990.8885	9671.55	8776.45
930.8282	1992.4795	9640.15	8748.4
930.966	1994.0697	9576.55	8687.8
931.1038	1995.6592	9564.35	8671
931.2415	1997.2479	9554.4	8660.95
931.3793	1998.8359	9542.2	8650.2
931.517	2000.4232	9486.3	8596.3
931.6547	2002.0097	9446.2	8561.2
931.7923	2003.5955	9421.2	8534.95
931.93	2005.1805	9421.95	8530.75
932.0676	2006.7648	9385.4	8496.6
932.2052	2008.3484	9362.6	8473.85
932.3427	2009.9312	9366.8	8478.4
932.4803	2011.5133	9328.6	8442.95
932.6178	2013.0946	9301.1	8414.1
932.7553	2014.6752	9266.65	8380
932.8928	2016.2551	9250	8357.2
933.0302	2017.8342	9208.7	8317.1
933.1676	2019.4126	9170.55	8284.65
933.305	2020.9902	9149.25	8264.5
933.4424	2022.5672	9127.85	8241.25
933.5798	2024.1433	9109.2	8219.7
933.7171	2025.7188	9066.75	8182.5
933.8544	2027.2935	9042.45	8156
933.9917	2028.8674	9015.05	8131.05
934.129	2030.4406	8985.05	8102.15
934.2662	2032.0131	8961.75	8078.6
934.4034	2033.5849	8931.55	8040.75
934.5406	2035.1559	8922.6	8036.35
934.6778	2036.7261	8919.7	8033.85
934.8149	2038.2957	8872.95	7981.25
934.952	2039.8645	8868.1	7977.65
935.0891	2041.4325	8856.25	7963.3
935.2262	2042.9998	8797.3	7909.4
935.3632	2044.5664	8810.3	7923.1
935.5002	2046.1323	8753.65	7868.9
935.6372	2047.6974	8739	7853.4
935.7742	2049.2617	8700.95	7814.95
935.9111	2050.8254	8716.75	7806.15
936.048	2052.3883	8698.2	7808.6
936.1849	2053.9504	8675	7784.05
936.3218	2055.5118	8660.1	7768.1
936.4586	2057.0725	8597	7704.65
936.5955	2058.6325	8607.6	7721
936.7323	2060.1917	8567.8	7681.25
936.869	2061.7502	8552.35	7662.9
937.0058	2063.3079	8514.2	7629.4
937.1425	2064.8649	8486.45	7598.55
937.2792	2066.4212	8482.15	7595.15
937.4159	2067.9767	8449.35	7560.5
937.5525	2069.5315	8421.95	7532.9
937.6891	2071.0856	8377.65	7490.65
937.8257	2072.6389	8357.95	7472.05
937.9623	2074.1915	8316.8	7433
938.0989	2075.7433	8256.4	7366.8
938.2354	2077.2945	8271.1	7384.95
938.3719	2078.8448	8253.1	7364.75
938.5084	2080.3945	8218.3	7328.05
938.6448	2081.9434	8210.25	7321.2
938.7812	2083.4916	8182.25	7289.25
938.9176	2085.039	8175.4	7277.4
939.054	2086.5857	8181.35	7284.4
939.1903	2088.1317	8117.75	7219.3
939.3267	2089.677	8101.9	7201.75
939.463	2091.2215	8099.5	7200.7
939.5992	2092.7652	8072.8	7171.55
939.7355	2094.3083	8055.95	7158.35
939.8717	2095.8506	8019.85	7126.45
940.0079	2097.3921	8026.6	7133.55
940.1441	2098.933	8014.7	7123.5
940.2802	2100.4731	7980.75	7088.75
940.4163	2102.0124	7986.1	7084.7
940.5524	2103.5511	7977.85	7082.2
940.6885	2105.089	7960.3	7066.85
940.8245	2106.6261	7939.5	7047.4
940.9606	2108.1626	7908.4	7015.95
941.0965	2109.6983	7904.8	6987.65
941.2325	2111.2332	7847.4	6955
941.3684	2112.7675	7840.2	6944.65
941.5044	2114.301	7820.2	6925.3
941.6403	2115.8337	7824.85	6931.15
941.7761	2117.3657	7792.9	6899.6
941.912	2118.897	7768.75	6874.35
942.0478	2120.4276	7726.7	6826.3
942.1835	2121.9575	7716.1	6821.1
942.3193	2123.4866	7712.05	6815.4
942.455	2125.0149	7696.95	6800.35
942.5907	2126.5426	7634.35	6746.9
942.7264	2128.0695	7632.65	6743.15
942.8621	2129.5956	7611.8	6726.25
942.9977	2131.1211	7597.8	6704.8
943.1333	2132.6458	7585.8	6694.75
943.2689	2134.1698	7583.3	6685.65
943.4044	2135.693	7562.9	6664.85
943.54	2137.2155	7537.95	6639.7
943.6755	2138.7373	7535	6642.15
943.8109	2140.2584	7476.85	6589.15
943.9464	2141.7787	7475.6	6584.4
944.0818	2143.2983	7444.5	6560.6
944.2172	2144.8171	7390.6	6508.15
944.3526	2146.3353	7398.9	6507.4
944.4879	2147.8527	7386.9	6499.05
944.6232	2149.3693	7385.7	6491.95
944.7585	2150.8853	7352.25	6455.3
944.8938	2152.4005	7320.2	6423
945.029	2153.9149	7308.3	6413.5
945.1642	2155.4287	7358.85	6362.25
945.2994	2156.9417	7281.65	6385.8
945.4346	2158.454	7265.85	6374.05
945.5697	2159.9655	7222.6	6333.8
945.7048	2161.4764	7207.65	6318.25
945.8399	2162.9865	7183.95	6294.85
945.9749	2164.4958	7163	6273.5
946.1099	2166.0045	7133.75	6242.6
946.2449	2167.5124	7138.35	6246.25
946.3799	2169.0195	7125.7	6234
946.5148	2170.526	7106.2	6210.95
946.6498	2172.0317	7083.15	6190.7
946.7846	2173.5367	7082.85	6190.2
946.9195	2175.0409	7028.7	6137.8
947.0543	2176.5445	7044.05	6152.45
947.1891	2178.0473	7030.7	6135.3
947.3239	2179.5494	6979.45	6080.05
947.4587	2181.0507	6972.3	6080.15
947.5934	2182.5513	6934.15	6042.3
947.7281	2184.0512	6930.9	6037.95
947.8628	2185.5504	6925.15	6032.45
947.9974	2187.0488	6893.15	6003.35
948.132	2188.5465	6871.25	5982.35
948.2666	2190.0435	6858.15	5967.25
948.4012	2191.5397	6845.5	5953.45
948.5357	2193.0353	6815.5	5921.2
948.6702	2194.5301	6797.55	5900.6
948.8047	2196.0241	6778.65	5880.5
948.9392	2197.5175	6758.65	5859.45
949.0736	2199.0101	6717.85	5817.3
949.208	2200.502	6692.6	5796.75
949.3424	2201.9931	6680.25	5789.45
949.4767	2203.4835	6649.25	5758.35
949.611	2204.9733	6659.45	5753.9
949.7453	2206.4622	6620.15	5732.45
949.8796	2207.9505	6579.6	5690.85
950.0138	2209.438	6571.8	5685.35
950.148	2210.9248	6526.75	5637.95
950.2822	2212.4109	6521.7	5629.9
950.4164	2213.8962	6527.7	5632.75
950.5505	2215.3809	6509.3	5610.85
950.6846	2216.8648	6488.65	5589.55
950.8186	2218.3479	6487.3	5582.15
950.9527	2219.8304	6446.05	5545.05
951.0867	2221.3121	6418.8	5518.65
951.2207	2222.7931	6418.45	5523.7
951.3546	2224.2733	6400.75	5505.3
951.4886	2225.7529	6364.2	5471.85
951.6225	2227.2317	6349.9	5456.3
951.7563	2228.7098	6328.1	5440.75
951.8902	2230.1872	6292.6	5405.05
952.024	2231.6638	6274.95	5386.35
952.1578	2233.1397	6279.45	5386
952.2916	2234.6149	6253.45	5365.8
952.4253	2236.0894	6228.15	5336.2
952.559	2237.5632	6235.75	5341.45
952.6927	2239.0362	6202.35	5310.3
952.8263	2240.5085	6186.6	5295.4
952.9599	2241.9801	6163.55	5271.3
953.0935	2243.4509	6156.45	5262.35
953.2271	2244.921	6118.95	5222.25
953.3606	2246.3904	6106.95	5207.35
953.4941	2247.8591	6095.15	5200.65
953.6276	2249.3271	6081.6	5187.6
953.7611	2250.7943	6046.15	5150.55
953.8945	2252.2608	6007.35	5110.95
954.0279	2253.7266	6024.2	5129
954.1612	2255.1917	5982.3	5088.95
954.2946	2256.656	5982.65	5090.05
954.4279	2258.1197	5975.35	5086.1
954.5612	2259.5826	5952.95	5061.25
954.6944	2261.0447	5931.65	5037.3
954.8276	2262.5062	5919.95	5024.6
954.9608	2263.9669	5905.2	5008.4
955.094	2265.4269	5903.6	5010.65
955.2271	2266.8862	5886.25	4993.9
955.3602	2268.3448	5866.9	4973.95
955.4933	2269.8026	5874.1	4983.95
955.6264	2271.2598	5843.65	4953.05
955.7594	2272.7162	5817.5	4926.1
955.8924	2274.1719	5800.15	4903.65
956.0253	2275.6268	5785.9	4888.45
956.1583	2277.0811	5796.85	4900.8
956.2912	2278.5346	5783.95	4891.5
956.4241	2279.9874	5772.75	4882
956.5569	2281.4395	5761.3	4873.85
956.6897	2282.8908	5726.3	4830.6
956.8225	2284.3414	5718.25	4824.4
956.9553	2285.7914	5706.6	4814.5
957.088	2287.2406	5670.9	4775.4
957.2207	2288.689	5660.7	4764.4
957.3534	2290.1368	5658.25	4757.4
957.486	2291.5838	5656.7	4753.2
957.6186	2293.0302	5655.35	4754
957.7512	2294.4758	5600.25	4704.05
957.8838	2295.9206	5608.75	4711.75
958.0163	2297.3648	5579.25	4685.5
958.1488	2298.8082	5547.25	4656.25
958.2813	2300.251	5542.15	4646.35
958.4137	2301.693	5528.35	4629.85
958.5461	2303.1343	5537.25	4640.85
958.6785	2304.5748	5511.2	4616.4
958.8108	2306.0147	5496.45	4606.05
958.9432	2307.4538	5458.9	4568.6
959.0754	2308.8922	5454.7	4566.5
959.2077	2310.3299	5456.65	4568.2
959.3399	2311.7669	5435.9	4545.1
959.4721	2313.2031	5418.4	4524.7
959.6043	2314.6387	5378.85	4485.25
959.7365	2316.0735	5374.65	4479.55
959.8686	2317.5076	5359.55	4465.7
960.0006	2318.941	5380.15	4483.65
960.1327	2320.3737	5342	4444.9
960.2647	2321.8056	5315.75	4417.6
960.3967	2323.2369	5321.8	4426.8
960.5287	2324.6674	5310.6	4416.55
960.6606	2326.0972	5293.05	4395.85
960.7925	2327.5263	5271.8	4377.05
960.9244	2328.9547	5267.65	4370.15
961.0562	2330.3823	5245.6	4346.9
961.1881	2331.8092	5242.55	4342.2
961.3198	2333.2355	5208	4310.1
961.4516	2334.661	5202.75	4305.9
961.5833	2336.0858	5191.25	4294.3
961.715	2337.5098	5177	4281.1
961.8467	2338.9332	5166.8	4269.2
961.9783	2340.3558	5134.95	4237.6
962.1099	2341.7778	5128.7	4234.6
962.2415	2343.199	5117.2	4222.25
962.373	2344.6195	5109.8	4216.95
962.5045	2346.0393	5094.8	4203.1
962.636	2347.4583	5096.5	4203
962.7675	2348.8767	5085.2	4190
962.8989	2350.2943	5065.75	4167.15
963.0303	2351.7113	5069.85	4169.35
963.1617	2353.1275	5039.5	4142.35
963.293	2354.543	5069.45	4142.55
963.4243	2355.9578	5042.55	4141.9
963.5556	2357.3718	4982.1	4088.2
963.6868	2358.7852	4952.5	4059.45
963.818	2360.1978	4948.15	4054.25
963.9492	2361.6098	4950.65	4059.25
964.0803	2363.021	4926.2	4028
964.2114	2364.4315	4916.85	4023.85
964.3425	2365.8413	4916.5	4021
964.4736	2367.2504	4874.25	3981.85
964.6046	2368.6587	4869.4	3977.9
964.7356	2370.0664	4854.95	3963.7
964.8666	2371.4733	4829.4	3935.95
964.9975	2372.8795	4828.55	3936.3
965.1284	2374.285	4815	3921.65
965.2593	2375.6899	4796.05	3901
965.3901	2377.0939	4760.7	3866.5
965.5209	2378.4973	4756.95	3865.85
965.6517	2379.9	4755.8	3862.85
965.7825	2381.3019	4735	3842.7
965.9132	2382.7032	4719.4	3830.15
966.0439	2384.1037	4710.65	3820.35
966.1745	2385.5035	4686.5	3796.85
966.3051	2386.9027	4669.3	3780.65
966.4357	2388.3011	4663.85	3769.5
966.5663	2389.6987	4662.85	3770.6
966.6968	2391.0957	4656.7	3765.2
966.8273	2392.492	4628.7	3739.25
966.9578	2393.8876	4618.85	3726.5
967.0882	2395.2824	4595.7	3701.25
967.2186	2396.6765	4590.65	3696.45
967.349	2398.07	4578.65	3684.45
967.4793	2399.4627	4558.65	3659.75
967.6097	2400.8547	4542.15	3646.75
967.7399	2402.246	4531.85	3631.8
967.8702	2403.6366	4504.2	3611.45
968.0004	2405.0265	4494.9	3601.65
968.1306	2406.4156	4480.1	3584.4
968.2607	2407.8041	4468.8	3571.6
968.3909	2409.1918	4441.05	3543.3
968.521	2410.5789	4438.6	3545.05
968.651	2411.9652	4431.15	3533.3
968.781	2413.3508	4420.35	3525.45
968.911	2414.7358	4391.4	3497.5
969.041	2416.12	4375.3	3483.25
969.1709	2417.5035	4385.6	3492.9
969.3008	2418.8863	4358.3	3461.3
969.4307	2420.2684	4342.85	3448.55
969.5606	2421.6497	4334.4	3439.35
969.6904	2423.0304	4306.25	3412.95
969.8201	2424.4104	4295.9	3400.45
969.9499	2425.7896	4275.85	3379.75
970.0796	2427.1682	4282.8	3391.65
970.2093	2428.546	4274.85	3378
970.3389	2429.9232	4259.7	3364.25
970.4685	2431.2996	4264.4	3369.4
970.5981	2432.6753	4247.75	3352.4
970.7277	2434.0503	4230.3	3336.35
970.8572	2435.4246	4210.05	3316.2
970.9867	2436.7982	4201.8	3304.4
971.1161	2438.1711	4205.8	3311.6
971.2456	2439.5433	4192.1	3297.3
971.375	2440.9148	4167.75	3267.6
971.5043	2442.2856	4150.05	3258.15
971.6336	2443.6557	4140.15	3247.1
971.7629	2445.025	4125.5	3228.75
971.8922	2446.3937	4114.55	3219.75
972.0214	2447.7617	4111.6	3216.25
972.1506	2449.1289	4111.15	3218.3
972.2798	2450.4955	4092.8	3195.55
972.4089	2451.8613	4082.6	3191.7
972.538	2453.2265	4082.9	3190.7
972.6671	2454.5909	4064.65	3171.05
972.7961	2455.9546	4045.75	3152.8
972.9251	2457.3177	4036.25	3143.7
973.0541	2458.68	4036.35	3140.9
973.1831	2460.0416	4035.6	3142.2
973.312	2461.4025	4023.4	3125.6
973.4408	2462.7627	4010.35	3107.25
973.5697	2464.1222	3987.5	3097.8
973.6985	2465.4811	3982.05	3089.15
973.8273	2466.8392	3972.5	3077.55
973.956	2468.1966	3978.7	3084.1
974.0847	2469.5533	3970.2	3074.05
974.2134	2470.9093	3974.3	3080.55
974.3421	2472.2645	3944.65	3048.75
974.4707	2473.6191	3930.45	3036.95
974.5993	2474.973	3926.7	3029.3
974.7278	2476.3262	3925.35	3029.15
974.8563	2477.6787	3901.7	3010.15
974.9848	2479.0305	3878.3	2986.6
975.1132	2480.3816	3871.65	2977.8
975.2417	2481.7319	3868	2975
975.37	2483.0816	3831.75	2938.1
975.4984	2484.4306	3838.55	2942.9
975.6267	2485.7789	3823.05	2932.7
975.755	2487.1264	3812.2	2916.5
975.8833	2488.4733	3797.9	2909.05
976.0115	2489.8195	3790.35	2891.3
976.1397	2491.165	3792.85	2896.85
976.2678	2492.5097	3767.05	2873.7
976.3959	2493.8538	3767.05	2875.35
976.524	2495.1972	3747.85	2856
976.6521	2496.5398	3735.2	2840.3
976.7801	2497.8818	3728.15	2832.45
976.9081	2499.2231	3708.05	2811.9
977.036	2500.5637	3706.35	2811.35
977.164	2501.9035	3695.4	2799.75
977.2918	2503.2427	3683.1	2784.55
977.4197	2504.5812	3686.35	2792.1
977.5475	2505.919	3663.25	2769.65
977.6753	2507.256	3657.5	2763.85
977.8031	2508.5924	3655.55	2762.05
977.9308	2509.9281	3640.65	2740.95
978.0585	2511.2631	3634.75	2742.15
978.1861	2512.5974	3614.4	2721.55
978.3137	2513.9309	3615.2	2723.6
978.4413	2515.2638	3618.15	2699.45
978.5689	2516.596	3604.7	2713.65
978.6964	2517.9275	3574.7	2678.1
978.8239	2519.2583	3577.75	2682.75
978.9513	2520.5884	3543.9	2649.35
979.0788	2521.9178	3538.15	2645.6
979.2062	2523.2465	3532.6	2641.55
979.3335	2524.5745	3526.3	2634.95
979.4608	2525.9018	3517.75	2623.9
979.5881	2527.2284	3502.3	2610.45
979.7154	2528.5543	3512.35	2618.75
979.8426	2529.8796	3504.1	2610.05
979.9698	2531.2041	3496.95	2602.9
980.0969	2532.5279	3477.95	2586.4
980.224	2533.851	3466.55	2573.25
980.3511	2535.1735	3469.5	2578.5
980.4781	2536.4952	3463	2568.4
980.6052	2537.8163	3460.75	2566.05
980.7321	2539.1366	3439.1	2544.4
980.8591	2540.4562	3429.25	2531
980.986	2541.7752	3427.45	2533.6
981.1129	2543.0935	3417.5	2524.7
981.2397	2544.411	3412.9	2516.15
981.3665	2545.7279	3428.35	2533.2
981.4933	2547.0441	3421.45	2527.8
981.62	2548.3596	3429.55	2530.4
981.7467	2549.6744	3417.55	2522.8
981.8734	2550.9885	3401.25	2497.15
982.0001	2552.3019	3380.65	2485.8
982.1267	2553.6146	3363.65	2468.9
982.2532	2554.9266	3360.05	2465.5
982.3798	2556.2379	3362.7	2467.2
982.5063	2557.5485	3359.2	2467.2
982.6327	2558.8585	3340.55	2440.1
982.7592	2560.1677	3338.25	2440.1
982.8856	2561.4762	3333.8	2438.8
983.0119	2562.7841	3320.8	2421.8
983.1383	2564.0913	3323	2429
983.2646	2565.3977	3318.55	2424.95
983.3908	2566.7035	3318.4	2423.25
983.517	2568.0086	3308.4	2412.65
983.6432	2569.313	3289.75	2395.2
983.7694	2570.6167	3295.8	2395.55
983.8955	2571.9197	3276.1	2380.35
984.0216	2573.222	3280	2383.1
984.1476	2574.5236	3268.9	2374.5
984.2737	2575.8246	3278.45	2381.65
984.3996	2577.1248	3257.95	2359.9
984.5256	2578.4244	3267.15	2373.8
984.6515	2579.7232	3256.05	2361.85
984.7774	2581.0214	3279.35	2355.8
984.9032	2582.3189	3234.9	2342.45
985.029	2583.6157	3233.45	2334.95
985.1548	2584.9118	3230.8	2337.35
985.2806	2586.2072	3232	2338.35
985.4063	2587.5019	3220.6	2326.25
985.5319	2588.7959	3212	2316.95
985.6576	2590.0893	3213.75	2319.1
985.7832	2591.3819	3200.05	2304
985.9087	2592.6739	3189.95	2295.4
986.0343	2593.9652	3205.4	2310.2
986.1597	2595.2557	3179.8	2284.6
986.2852	2596.5456	3174.15	2276.75
986.4106	2597.8348	3165.1	2270.45
986.536	2599.1234	3157.55	2264.5
986.6614	2600.4112	3145.25	2249.8
986.7867	2601.6983	3147.25	2250.95
986.912	2602.9848	3141.2	2245.3
987.0372	2604.2705	3132.6	2234
987.1624	2605.5556	3115.85	2222.4
987.2876	2606.84	3107.45	2214.75
987.4128	2608.1237	3111.75	2216.35
987.5379	2609.4067	3091.8	2197.35
987.6629	2610.689	3100.45	2195.95
987.788	2611.9707	3076.05	2176.45
987.913	2613.2516	3077.65	2179.95
988.0379	2614.5319	3061.4	2166.4
988.1629	2615.8115	3051.5	2156.75
988.2878	2617.0903	3037	2143.45
988.4126	2618.3685	3045.25	2151.2
988.5375	2619.6461	3026.4	2131.15
988.6622	2620.9229	3011.6	2117
988.787	2622.199	3021.55	2126.75
988.9117	2623.4745	3007.55	2112.6
989.0364	2624.7493	3001.95	2108.1
989.161	2626.0234	2981.2	2090.2
989.2857	2627.2968	2977.5	2082.55
989.4102	2628.5695	2976.9	2081.5
989.5348	2629.8415	2969.1	2076.8
989.6593	2631.1128	2947.75	2053.2
989.7837	2632.3835	2952.05	2057.9
989.9082	2633.6535	2938.65	2045.4
990.0326	2634.9228	2938.85	2045.85
990.1569	2636.1914	2928.1	2035.05
990.2812	2637.4593	2915.8	2019.3
990.4055	2638.7265	2911.85	2015.1
990.5298	2639.9931	2898.5	2003.85
990.654	2641.259	2900.3	2004.25
990.7782	2642.5242	2893	2001.35
990.9023	2643.7887	2885.55	1994.25
991.0264	2645.0525	2898.85	2006.8
991.1505	2646.3156	2883.65	1978.7
991.2745	2647.5781	2863.8	1970.5
991.3985	2648.8398	2850.6	1957.95
991.5225	2650.1009	2865.7	1947.8
991.6464	2651.3613	2847.05	1955.1
991.7703	2652.6211	2838.55	1945.55
991.8942	2653.8801	2815.4	1921.95
992.018	2655.1385	2828	1932.35
992.1418	2656.3961	2831.95	1940.45
992.2655	2657.6531	2818.8	1925.7
992.3892	2658.9094	2815.95	1924.3
992.5129	2660.1651	2805.05	1913.6
992.6366	2661.42	2799.65	1908.75
992.7602	2662.6743	2801.8	1907.8
992.8837	2663.9279	2803.4	1910.4
993.0073	2665.1808	2795.15	1902.1
993.1307	2666.433	2794.25	1900.4
993.2542	2667.6846	2791	1898.15
993.3776	2668.9354	2781.05	1884.75
993.501	2670.1856	2777.6	1882
993.6244	2671.4351	2782.15	1890.35
993.7477	2672.6839	2781.25	1886.05
993.8709	2673.9321	2757.55	1865.3
993.9942	2675.1795	2764.8	1873.75
994.1174	2676.4263	2753.2	1861.85
994.2405	2677.6724	2744	1852.5
994.3637	2678.9179	2742.4	1848.75
994.4868	2680.1626	2744.25	1851.9
994.6098	2681.4067	2739.25	1847.45
994.7328	2682.6501	2737.5	1844.6
994.8558	2683.8928	2719.25	1827
994.9788	2685.1348	2716.15	1826.55
995.1017	2686.3761	2698.7	1806.85
995.2245	2687.6168	2697	1804.3
995.3474	2688.8568	2676.6	1782.15
995.4702	2690.0961	2696.65	1805.25
995.5929	2691.3348	2679.8	1788.4
995.7156	2692.5727	2667.65	1776.35
995.8383	2693.81	2676.15	1784.05
995.961	2695.0466	2645.25	1754.65
996.0836	2696.2826	2652.75	1759.6
996.2062	2697.5178	2643.65	1748.3
996.3287	2698.7524	2644.35	1752.2
996.4512	2699.9863	2648.95	1754.7
996.5737	2701.2195	2642.15	1750.25
996.6961	2702.452	2641.2	1746.55
996.8185	2703.6839	2636	1743.4
996.9408	2704.9151	2629.55	1738.1
997.0631	2706.1456	2638.5	1745.85
997.1854	2707.3755	2636.85	1742.75
997.3077	2708.6046	2625.25	1731.85
997.4299	2709.8331	2626.5	1732.25
997.552	2711.0609	2625.45	1731.5
997.6742	2712.2881	2629.85	1737.65
997.7963	2713.5145	2625.1	1730.95
997.9183	2714.7403	2622.7	1730.4
998.0403	2715.9654	2629.15	1736.8
998.1623	2717.1899	2636.2	1727.85
998.2842	2718.4136	2625.7	1734.5
998.4062	2719.6367	2640.05	1747.5
998.528	2720.8591	2637.75	1739.4
998.6498	2722.0809	2639.65	1746.65
998.7716	2723.3019	2633.95	1739.5
998.8934	2724.5223	2637.2	1744.9
999.0151	2725.7421	2631.85	1740.2
999.1368	2726.9611	2647.35	1752.95
999.2584	2728.1795	2626.05	1731.85
999.38	2729.3972	2627.25	1736.5
999.5016	2730.6142	2612.3	1713.05
999.6231	2731.8306	2590.85	1697.9
999.7446	2733.0462	2571.5	1680
999.8661	2734.2612	2562.6	1668.7
999.9875	2735.4756	2532.3	1640.55
1000.1089	2736.6892	2527.05	1636.7
1000.2302	2737.9022	2507.65	1617.75
1000.3515	2739.1145	2495.85	1605.2
1000.4728	2740.3262	2482.3	1584.05
1000.594	2741.5372	2466.25	1576
1000.7152	2742.7475	2442.7	1553.15
1000.8363	2743.9571	2449.4	1554.85
1000.9575	2745.1661	2433.65	1539.65
1001.0785	2746.3744	2422.3	1532.15
1001.1996	2747.582	2406.05	1515.05
1001.3206	2748.7889	2400.9	1508.75
1001.4415	2749.9952	2387.8	1496.85
1001.5625	2751.2008	2377.8	1488.3
1001.6833	2752.4057	2373.3	1481.05
1001.8042	2753.61	2359.3	1464.85
1001.925	2754.8136	2363.2	1472.65
1002.0458	2756.0165	2346.65	1454.85
1002.1665	2757.2188	2343.7	1453.95
1002.2872	2758.4204	2340.05	1449.45
1002.4078	2759.6213	2331.6	1437.7
1002.5285	2760.8215	2336.05	1440.9
1002.649	2762.0211	2332.2	1440
1002.7696	2763.22	2324.35	1431.15
1002.8901	2764.4182	2316.4	1422.7
1003.0106	2765.6158	2316.05	1423.6
1003.131	2766.8127	2310.8	1419.95
1003.2514	2768.009	2302.05	1412.55
1003.3717	2769.2045	2290.25	1398.05
1003.492	2770.3994	2294.8	1402.45
1003.6123	2771.5936	2285.15	1394.05
1003.7325	2772.7872	2278.85	1390.4
1003.8527	2773.9801	2270.95	1380.8
1003.9729	2775.1723	2284.15	1378.55
1004.093	2776.3639	2263.45	1375.95
1004.2131	2777.5548	2256.45	1364.55
1004.3331	2778.745	2253.9	1360.7
1004.4531	2779.9346	2237.9	1348.4
1004.5731	2781.1235	2256.9	1369.35
1004.693	2782.3117	2245.15	1356.4
1004.8129	2783.4992	2235.65	1347.95
1004.9328	2784.6861	2233.35	1344.55
1005.0526	2785.8723	2242.05	1351.35
1005.1723	2787.0579	2232	1344.4
1005.2921	2788.2428	2236.05	1347.55
1005.4118	2789.427	2242.35	1353.6
1005.5314	2790.6106	2248	1358.3
1005.651	2791.7935	2250.35	1361.15
1005.7706	2792.9757	2242.65	1352.8
1005.8902	2794.1573	2248.55	1358.4
1006.0097	2795.3382	2253.8	1365.4
1006.1291	2796.5184	2264.85	1376.4
1006.2485	2797.698	2260.7	1371.5
1006.3679	2798.8769	2274.1	1384.75
1006.4873	2800.0551	2286.4	1397.05
1006.6066	2801.2327	2288.65	1398.25
1006.7258	2802.4096	2294.7	1406.15
1006.8451	2803.5859	2297.4	1407.65
1006.9642	2804.7615	2315.75	1425.6
1007.0834	2805.9364	2318.35	1431.05
1007.2025	2807.1106	2334.3	1446.05
1007.3216	2808.2842	2364.25	1475.2
1007.4406	2809.4572	2369.9	1480.75
1007.5596	2810.6294	2409.5	1518.25
1007.6785	2811.801	2425.3	1537.05
1007.7975	2812.972	2453.45	1565.15
1007.9163	2814.1423	2469.8	1582.2
1008.0352	2815.3119	2512.55	1625
1008.154	2816.4808	2535.35	1648.5
1008.2727	2817.6491	2579	1692.1
1008.3914	2818.8167	2610.35	1722.7
1008.5101	2819.9837	2643.4	1749.05
1008.6288	2821.15	2686.15	1796.6
1008.7474	2822.3157	2718.95	1832
1008.8659	2823.4807	2759.8	1870
1008.9844	2824.645	2785	1896.8
1009.1029	2825.8086	2808.7	1919.6
1009.2214	2826.9716	2842.45	1955.65
1009.3398	2828.134	2886.9	1997.45
1009.4581	2829.2957	2910.6	2022.3
1009.5764	2830.4567	2922.5	2035.4
1009.6947	2831.617	2941.05	2053.3
1009.813	2832.7767	2955.65	2067.65
1009.9312	2833.9358	2945.55	2059
1010.0493	2835.0941	2950.3	2062.15
1010.1675	2836.2519	2926.55	2039.85
1010.2855	2837.4089	2910.65	2022.3
1010.4036	2838.5653	2906.5	2017.9
1010.5216	2839.7211	2889.75	2003.35
1010.6396	2840.8761	2899.35	2013.1
1010.7575	2842.0306	2908.05	2023.4
1010.8754	2843.1843	2936.15	2047.15
1010.9932	2844.3374	2948.6	2062.05
1011.111	2845.4899	2996.9	2108.8
1011.2288	2846.6417	3045.1	2159.35
1011.3465	2847.7928	3089.4	2201.6
1011.4642	2848.9433	3124.4	2236.85
1011.5818	2850.0931	3200.45	2312.1
1011.6995	2851.2422	3246.95	2357.7
1011.817	2852.3907	3278.9	2389.15
1011.9345	2853.5385	3332.3	2443.8
1012.052	2854.6857	3386.7	2490
1012.1695	2855.8323	3424.55	2537.2
1012.2869	2856.9781	3462.3	2574.35
1012.4042	2858.1233	3478.5	2590.4
1012.5216	2859.2679	3517.9	2632.7
1012.6389	2860.4118	3543.35	2655.9
1012.7561	2861.555	3573.1	2681.25
1012.8733	2862.6976	3605	2715.4
1012.9905	2863.8395	3622.2	2735.35
1013.1076	2864.9808	3635.35	2749.55
1013.2247	2866.1214	3635.8	2747.5
1013.3417	2867.2614	3663.4	2775.3
1013.4587	2868.4007	3675.4	2786.65
1013.5757	2869.5393	3670.85	2781.05
1013.6926	2870.6773	3679.1	2788.15
1013.8095	2871.8146	3700.6	2809.85
1013.9263	2872.9513	3687.1	2796.5
1014.0431	2874.0874	3681	2794.7
1014.1599	2875.2227	3659.7	2772.75
1014.2766	2876.3574	3645.55	2759.4
1014.3933	2877.4915	3619.95	2734.9
1014.51	2878.6249	3614.1	2726.7
1014.6266	2879.7577	3580.55	2692.55
1014.7431	2880.8898	3579.55	2679.75
1014.8596	2882.0212	3538	2653.3
1014.9761	2883.152	3530.55	2642.5
1015.0925	2884.2821	3537.55	2653.05
1015.2089	2885.4116	3515.65	2629.55
1015.3253	2886.5405	3512.85	2626.2
1015.4416	2887.6686	3525.5	2635.95
1015.5579	2888.7962	3515.8	2631.35
1015.6741	2889.923	3510.8	2626.8
1015.7903	2891.0493	3527.75	2641.95
1015.9065	2892.1748	3526.35	2642.3
1016.0226	2893.2997	3527.25	2640.35
1016.1387	2894.424	3532.3	2647.05
1016.2547	2895.5476	3544.05	2659.2
1016.3707	2896.6706	3582.3	2695.8
1016.4866	2897.7929	3576.85	2690.9
1016.6025	2898.9145	3598.5	2713.4
1016.7184	2900.0355	3605.45	2719.05
1016.8342	2901.1559	3626.5	2740.15
1016.95	2902.2756	3652.7	2766.55
1017.0658	2903.3946	3670.25	2784.65
1017.1815	2904.513	3694.85	2806.95
1017.2971	2905.6308	3717.25	2828.6
1017.4127	2906.7479	3720.5	2832.5
1017.5283	2907.8643	3736	2849.15
1017.6439	2908.9801	3751.45	2867.6
1017.7594	2910.0953	3758.7	2873.35
1017.8748	2911.2098	3750.4	2863
1017.9902	2912.3236	3739.3	2844.75
1018.1056	2913.4368	3727.35	2839.35
1018.2209	2914.5494	3694.2	2806.15
1018.3362	2915.6613	3680.15	2789.75
1018.4515	2916.7725	3666.9	2778.45
1018.5667	2917.8831	3644.45	2756.95
1018.6819	2918.9931	3609.8	2721.2
1018.797	2920.1024	3573.45	2687.55
1018.9121	2921.211	3569.9	2684.65
1019.0271	2922.319	3534.6	2649.5
1019.1421	2923.4264	3543.8	2658.25
1019.2571	2924.5331	3534.35	2650.8
1019.372	2925.6391	3500.2	2616
1019.4869	2926.7445	3499.35	2615.05
1019.6017	2927.8493	3496.3	2608.85
1019.7165	2928.9534	3505.05	2619
1019.8313	2930.0569	3496.8	2609.7
1019.946	2931.1597	3506.55	2620.4
1020.0606	2932.2619	3493.1	2606.8
1020.1753	2933.3634	3485.45	2599.1
1020.2899	2934.4643	3481.4	2589.65
1020.4044	2935.5645	3474.15	2581.85
1020.5189	2936.6641	3441.55	2550.25
1020.6334	2937.763	3406.8	2522.25
1020.7478	2938.8613	3377.95	2493.25
1020.8622	2939.959	3323.15	2430.45
1020.9765	2941.056	3267.65	2383.95
1021.0908	2942.1523	3225.2	2338.65
1021.2051	2943.248	3161.2	2276.6
1021.3193	2944.3431	3096.2	2213
1021.4334	2945.4375	2998.75	2115.1
1021.5476	2946.5313	2917.8	2033.55
1021.6617	2947.6244	2838	1952.95
1021.7757	2948.7169	2770.15	1885.25
1021.8897	2949.8087	2701.1	1816.6
1022.0037	2950.8999	2644.85	1760.1
1022.1176	2951.9904	2558.1	1674.3
1022.2315	2953.0803	2516.55	1632.2
1022.3453	2954.1696	2452.75	1569.65
1022.4591	2955.2582	2411.95	1529.55
1022.5728	2956.3462	2376.55	1489.4
1022.6865	2957.4335	2339.55	1456.05
1022.8002	2958.5202	2315.45	1429.05
1022.9138	2959.6062	2292.5	1408.5
1023.0274	2960.6916	2280.05	1392.6
1023.141	2961.7764	2259.35	1374.3
1023.2545	2962.8605	2240.2	1354.1
1023.3679	2963.9439	2234.55	1349.95
1023.4813	2965.0267	2220.45	1335.2
1023.5947	2966.1089	2232.45	1324
1023.708	2967.1905	2203.5	1320.95
1023.8213	2968.2714	2201.35	1319.3
1023.9346	2969.3516	2198.55	1314.55
1024.0478	2970.4312	2204.15	1312.55
1024.1609	2971.5102	2195.65	1311.85
1024.274	2972.5885	2194.3	1311.3
1024.3871	2973.6662	2192.8	1301.7
1024.5002	2974.7432	2194.3	1311.85
1024.6132	2975.8196	2180.8	1296.1
1024.7261	2976.8954	2177.4	1293.45
1024.839	2977.9705	2156.5	1271.7
1024.9519	2979.045	2158	1275.85
1025.0647	2980.1188	2136.15	1252.5
1025.1775	2981.192	2126.9	1242.6
1025.2902	2982.2645	2124.6	1238.35
1025.4029	2983.3364	2094.3	1210.05
1025.5156	2984.4077	2057.45	1175.7
1025.6282	2985.4783	2046.55	1155.5
1025.7407	2986.5483	2021.8	1139.25
1025.8532	2987.6177	1994.85	1110.45
1025.9657	2988.6864	1961.15	1079.1
1026.0782	2989.7545	1935.7	1049.15
1026.1906	2990.8219	1904.05	1020.4
1026.3029	2991.8887	1894.05	1008.8
1026.4152	2992.9548	1858.05	973.2
1026.5275	2994.0204	1827.3	943.6
1026.6397	2995.0852	1805.85	921.8
1026.7519	2996.1495	1791.45	906.45
1026.864	2997.2131	1772.2	888.65
1026.9761	2998.276	1750.2	867.35
1027.0882	2999.3383	1731.95	846.95
1027.2002	3000.4	1713.2	827.8
1027.3122	3001.4611	1698	814.65
1027.4241	3002.5215	1690.65	806
1027.536	3003.5812	1670.95	790.45
1027.6478	3004.6404	1659.45	775.35
1027.7596	3005.6989	1659.6	773.85
1027.8714	3006.7567	1635.25	752.15
1027.9831	3007.8139	1648.6	747.75
1028.0947	3008.8705	1634.15	748.6
1028.2064	3009.9264	1638.4	738.55
1028.3179	3010.9818	1622	737.05
1028.4295	3012.0364	1610.2	727
1028.541	3013.0905	1602.95	719.4
1028.6524	3014.1439	1604.05	718.85
1028.7638	3015.1966	1601	717.05
1028.8752	3016.2487	1596.9	713.65
1028.9865	3017.3002	1592.1	706.65
1029.0978	3018.3511	1586.7	703.9
1029.209	3019.4013	1592.5	708.4
1029.3202	3020.4509	1572.95	691.45
1029.4314	3021.4998	1577.9	692.3
1029.5425	3022.5481	1586.7	704.65
1029.6535	3023.5958	1579.1	694.1
1029.7645	3024.6428	1585.05	700.3
1029.8755	3025.6892	1573.95	692.55
1029.9864	3026.735	1570.9	690.4
1030.0973	3027.7802	1571.9	690.05
1030.2082	3028.8247	1578.7	694.9
1030.319	3029.8685	1571.25	685.9
1030.4297	3030.9118	1576.8	692.9
1030.5404	3031.9544	1577.45	696.3
1030.6511	3032.9963	1572.55	687.65
1030.7617	3034.0376	1573.3	691
1030.8723	3035.0783	1575.6	691.15
1030.9829	3036.1184	1577.8	693.8
1031.0934	3037.1578	1574.45	692.4
1031.2038	3038.1966	1580.95	697.15
1031.3142	3039.2348	1574.8	693.85
1031.4246	3040.2723	1586.05	693.8
1031.5349	3041.3092	1575.9	694.2
1031.6452	3042.3455	1572.8	692.15
1031.7554	3043.3811	1561.05	676.65
1031.8656	3044.4161	1555.8	671.8
1031.9758	3045.4505	1557.05	676.4
1032.0859	3046.4842	1555.75	671.65
1032.1959	3047.5173	1548.3	666.15
1032.3059	3048.5498	1539.35	656.7
1032.4159	3049.5816	1540.7	657.9
1032.5258	3050.6128	1538.8	656.15
1032.6357	3051.6434	1529.6	645.9
1032.7455	3052.6734	1527.1	644.85
1032.8553	3053.7027	1514.2	632.75
1032.9651	3054.7314	1518.6	634.6
1033.0748	3055.7594	1508.3	627.4
1033.1845	3056.7868	1511.9	629.1
1033.2941	3057.8136	1500.75	618.45
1033.4037	3058.8398	1496.2	614.65
1033.5132	3059.8653	1492.05	609.55
1033.6227	3060.8902	1489.15	606.3
1033.7321	3061.9145	1481.7	599.55
1033.8415	3062.9381	1480.95	597
1033.9509	3063.9612	1489.65	591.1
1034.0602	3064.9835	1467.85	584.7
1034.1694	3066.0053	1469.1	583.65
1034.2787	3067.0264	1456.4	575.1
1034.3878	3068.0469	1452.95	568.25
1034.497	3069.0668	1452.05	567.65
1034.6061	3070.086	1436.5	556.1
1034.7151	3071.1046	1435.45	551.2
1034.8241	3072.1226	1430.65	548.15
1034.9331	3073.1399	1414.5	531.4
1035.042	3074.1567	1416.4	534.5
1035.1508	3075.1727	1405.2	520.75
1035.2597	3076.1882	1401	516.4
1035.3684	3077.203	1394.7	511.15
1035.4772	3078.2173	1388.4	503.45
1035.5859	3079.2308	1383.75	499.1
1035.6945	3080.2438	1371.15	485.85
1035.8031	3081.2561	1363.3	482.1
1035.9117	3082.2678	1362.9	481.05
1036.0202	3083.2789	1355.6	474.2
1036.1286	3084.2893	1354.55	471.35
1036.2371	3085.2991	1346.2	462.75
1036.3454	3086.3083	1344.6	458.55
1036.4538	3087.3169	1331.55	449.05
1036.562	3088.3248	1332.5	449.2
1036.6703	3089.3321	1332.4	450.35
1036.7785	3090.3388	1314.05	434.95
1036.8866	3091.3449	1316.3	433.35
1036.9948	3092.3503	1319	435.9
1037.1028	3093.3551	1310.55	429.95
1037.2108	3094.3593	1301.8	420.25
1037.3188	3095.3629	1297.55	418.1
1037.4267	3096.3658	1292.15	409.3
1037.5346	3097.3681	1291.85	408.65
1037.6425	3098.3698	1290.25	404.6
1037.7503	3099.3708	1289.95	401.4
1037.858	3100.3713	1277.45	396.45
1037.9657	3101.3711	1279.05	394.8
1038.0734	3102.3702	1406.4	382.15
1038.181	3103.3688	1284	399.8
1038.2886	3104.3667	1268	388.55
1038.3961	3105.364	1265.45	384.7
1038.5036	3106.3607	1261.5	377.95
1038.611	3107.3568	1261.4	378.6
1038.7184	3108.3522	1257.15	377.6
1038.8257	3109.347	1263.05	381.35
1038.933	3110.3412	1257.7	372.85
1039.0403	3111.3348	1250.25	368.95
1039.1475	3112.3277	1244.3	364.15
1039.2547	3113.32	1249.4	370.05
1039.3618	3114.3117	1242.9	359.7
1039.4689	3115.3028	1244.8	364.1
1039.5759	3116.2932	1237.3	354.8
1039.6829	3117.2831	1241.7	352.45
1039.7898	3118.2723	1234.35	351.9
1039.8967	3119.2608	1232.8	349.7
1040.0035	3120.2488	1218.15	335.45
1040.1103	3121.2361	1227.05	344.75
1040.2171	3122.2229	1227.65	346.65
1040.3238	3123.209	1217.25	333.8
1040.4305	3124.1944	1217.55	335.6
1040.5371	3125.1793	1223.1	342.6
1040.6437	3126.1635	1217.2	337.8
1040.7502	3127.1471	1212.75	331.3
1040.8567	3128.1301	1207.3	327.15
1040.9631	3129.1125	1207.9	328
1041.0695	3130.0942	1207.9	324.75
1041.1759	3131.0753	1213.8	323.9
1041.2822	3132.0558	1207.05	322.2
1041.3884	3133.0357	1196.95	315.45
1041.4946	3134.015	1201.8	319.15
1041.6008	3134.9936	1195.6	313.85
1041.7069	3135.9716	1213.7	313.05
1041.813	3136.949	1197.4	314.5
1041.919	3137.9258	1207.65	308.5
1042.025	3138.902	1196.75	308.2
1042.1309	3139.8775	1192.35	311.95
1042.2368	3140.8524	1187	306.45
1042.3427	3141.8267	1185.5	302.95
1042.4485	3142.8004	1188.2	307.95
1042.5542	3143.7735	1190.45	301
1042.6599	3144.7459	1190	305.9
1042.7656	3145.7178	1183.9	301.4
1042.8712	3146.689	1176.15	295.8
1042.9768	3147.6596	1181.1	300.7
1043.0823	3148.6295	1172.45	291.1
1043.1878	3149.5989	1168.9	287.05
1043.2932	3150.5676	1171.75	289.9
1043.3986	3151.5357	1168.95	289.5
1043.5039	3152.5032	1166.9	285.55
1043.6092	3153.4701	1168.9	288.45
1043.7145	3154.4364	1165.8	281.25
1043.8197	3155.402	1164.95	285.8
1043.9248	3156.367	1162.15	279.2
1044.03	3157.3315	1194.6	277.3
1044.135	3158.2952	1153.2	272.45
1044.24	3159.2584	1153.25	270.85
1044.345	3160.221	1156.6	275.7
1044.4499	3161.1829	1154.6	272.2
1044.5548	3162.1442	1153.65	271.9
1044.6596	3163.105	1145.55	264
1044.7644	3164.065	1147.85	267.25
1044.8692	3165.0245	1149.85	264.6
1044.9739	3165.9834	1140.55	258.9
1045.0785	3166.9416	1140.75	261.1
1045.1831	3167.8993	1141.15	258.45
1045.2877	3168.8563	1137.25	254.5
1045.3922	3169.8127	1132.25	251.95
1045.4966	3170.7684	1131.55	250.6
1045.6011	3171.7236	1134.25	251.4
1045.7054	3172.6782	1138.6	257.3
1045.8098	3173.6321	1134.9	253.85
1045.914	3174.5854	1135.2	249.85
1046.0183	3175.5381	1132.35	251.85
1046.1224	3176.4902	1130.55	250.65
1046.2266	3177.4417	1130.8	251.2
1046.3307	3178.3926	1124.85	242
1046.4347	3179.3428	1118.8	239.05
1046.5387	3180.2924	1115.8	235.6
1046.6427	3181.2415	1127	248.4
1046.7466	3182.1899	1116.5	233.9
1046.8504	3183.1377	1120.7	243.4
1046.9542	3184.0848	1122.65	237.65
1047.058	3185.0314	1115.65	233.8
1047.1617	3185.9773	1114.2	235
1047.2654	3186.9227	1112.2	230.15
1047.369	3187.8674	1109.15	228.25
1047.4726	3188.8115	1111.3	225.55
1047.5761	3189.755	1112.85	231.95
1047.6796	3190.6979	1107.25	227.1
1047.783	3191.6402	1110.1	229
1047.8864	3192.5818	1109.2	230.75
1047.9898	3193.5229	1109.45	223.25
1048.0931	3194.4633	1097.1	216.75
1048.1963	3195.4031	1102.15	218.8
1048.2995	3196.3423	1103.2	222.45
1048.4027	3197.2809	1103.15	223.55
1048.5058	3198.2189	1102.55	221.75
1048.6089	3199.1563	1104.75	218.55
1048.7119	3200.0931	1099.95	218
1048.8148	3201.0292	1095.55	216.75
1048.9178	3201.9648	1095.6	214.85
1049.0206	3202.8997	1098.4	214.65
1049.1235	3203.834	1095.2	217.05
1049.2262	3204.7677	1089.3	210.95
1049.329	3205.7008	1088	207.1
1049.4317	3206.6333	1085.6	207.3
1049.5343	3207.5652	1089.2	205.05
1049.6369	3208.4964	1084.6	204.45
1049.7394	3209.4271	1077.15	196.35
1049.8419	3210.3571	1083.25	203.1
1049.9444	3211.2865	1086.1	206
1050.0468	3212.2154	1077.1	196.05
1050.1491	3213.1436	1085.55	202.3
1050.2514	3214.0712	1083.9	193
1050.3537	3214.9982	1081.65	201.4
1050.4559	3215.9246	1077.35	197.35
1050.5581	3216.8503	1079.35	200.3
1050.6602	3217.7755	1073.5	191
1050.7623	3218.7001	1076.05	196.35
1050.8643	3219.624	1074.6	194.8
1050.9663	3220.5473	1077.7	197.45
1051.0682	3221.4701	1073.45	192.75
1051.1701	3222.3922	1070.5	188.65
1051.2719	3223.3137	1074.05	192.8
1051.3737	3224.2346	1069	188.55
1051.4754	3225.1549	1066.95	186.4
1051.5771	3226.0746	1064.85	185.15
1051.6788	3226.9937	1066.8	186.15
1051.7804	3227.9121	1061.05	181.9
1051.8819	3228.83	1063.85	182.4
1051.9834	3229.7473	1062.45	182.6
1052.0849	3230.6639	1062.7	182.2
1052.1863	3231.5799	1059.6	181.25
1052.2876	3232.4954	1060.05	177.75
1052.3889	3233.4102	1059.5	179.95
1052.4902	3234.3244	1056.45	176.05
1052.5914	3235.238	1055.05	176.1
1052.6926	3236.151	1081.75	174.75
1052.7937	3237.0634	1056.8	178.9
1052.8948	3237.9752	1052.45	171.65
1052.9958	3238.8864	1047.95	168.55
1053.0968	3239.797	1055.45	175.7
1053.1977	3240.7069	1051.9	172.3
1053.2986	3241.6163	1049.55	166.9
1053.3994	3242.5251	1047.9	168.3
1053.5002	3243.4332	1047.8	168.15
1053.6009	3244.3408	1043.35	164.05
1053.7016	3245.2477	1047.05	167.2
1053.8022	3246.154	1044.8	163.05
1053.9028	3247.0598	1043.5	163.45
1054.0034	3247.9649	1046.2	164.5
1054.1039	3248.8694	1042.55	162.1
1054.2043	3249.7733	1039.9	160.2
1054.3047	3250.6766	1036.6	157.4
1054.4051	3251.5793	1038.8	159.8
1054.5054	3252.4814	1037.25	159.1
1054.6056	3253.3829	1032.8	154.6
1054.7058	3254.2838	1036	156.55
1054.806	3255.1841	1037.85	158.7
1054.9061	3256.0838	1031.6	151.3
1055.0061	3256.9829	1027.75	147.8
1055.1062	3257.8814	1033.65	151
1055.2061	3258.7792	1036.8	154.65
1055.306	3259.6765	1027.75	147.6
1055.4059	3260.5731	1027.15	147.5
1055.5057	3261.4692	1025.3	143.5
1055.6055	3262.3647	1022.55	144.2
1055.7052	3263.2595	1019.15	139.45
1055.8049	3264.1538	1014.95	135.75
1055.9045	3265.0474	1018.1	137.7
1056.0041	3265.9404	1017.35	140.05
1056.1036	3266.8329	1009.1	128.55
1056.2031	3267.7247	1018.8	128
1056.3025	3268.616	1007.6	131.15
1056.4019	3269.5066	1003.1	122
1056.5013	3270.3966	998.05	118.35
1056.6005	3271.286	991.35	114.55
