Software Version:	3.9.2.0
Unit SN:	10000200
Spectrometer SN:	6960
Date:	3/26/2024 1:51:26 PM
Data Line Index:	25
Spectral Points:	2048
Integration time (ms):	125
Averages:	20
Delay (ms):	30000
Sequence Number:	1
Processing:	dark subtract
Laser Power (mW):	305
Laser Current (mA):	820
Laser Diode Temp (C):	25
Laser Case Temp (C):	27.2
System Temp (C):	27.2
Spectrometer Temp (C):	25.2
CCD Temp (C):	-0.002
Secondary Temp (C):	20.007
Heatsink Temp (C):	22.718
CCDPCB Temp (C):	36.852
SecondaryPCB Temp (C):	34.295

Wavelength	RamanShift	Raw Counts	Dark Subtracted
787.061	30.1047	609.15	197.65
787.2016	32.3739	614.2	202.15
787.3422	34.6426	625.65	215.2
787.4828	36.9109	646.05	233.45
787.6235	39.1787	666.85	250.1
787.7642	41.4461	684.7	262.05
787.9049	43.7131	701.3	274.95
788.0456	45.9796	725.1	294.45
788.1863	48.2456	748.7	317.15
788.3271	50.5112	770.5	333.45
788.4679	52.7764	795.65	357.8
788.6087	55.0411	822.2	382.15
788.7496	57.3054	847.8	401.65
788.8904	59.5692	874.9	425.95
789.0313	61.8326	903.5	450
789.1722	64.0955	935.9	475.8
789.3132	66.3579	980.45	517.65
789.4541	68.6199	1034.15	569.35
789.5951	70.8815	1116.3	651.05
789.7361	73.1426	1288.05	816.95
789.8771	75.4032	1750.7	1272.7
790.0181	77.6634	2868.4	2382.85
790.1592	79.9231	5635.3	5142.85
790.3003	82.1824	11988.5	11476.35
790.4414	84.4412	25400.8	24854.75
790.5825	86.6995	48442.4	47849.05
790.7237	88.9574	59543.4	58912.85
790.8648	91.2148	62452.6	61793.65
791.006	93.4717	63020.75	62344.35
791.1472	95.7282	63275.05	62591.2
791.2885	97.9842	63406.1	62714.25
791.4297	100.2398	63370.05	62672.45
791.571	102.4949	63325.55	62627.9
791.7123	104.7495	63301.45	62598.8
791.8536	107.0036	63190.85	62491.1
791.9949	109.2573	63265.6	62564.05
792.1363	111.5105	63143.35	62439
792.2777	113.7632	63143.1	62439.15
792.4191	116.0154	63167	62451.95
792.5605	118.2672	63219.7	62509.95
792.7019	120.5185	63200.6	62487.7
792.8434	122.7693	63186.95	62473.25
792.9849	125.0197	63051.05	62333.7
793.1264	127.2696	63267.35	62551
793.2679	129.519	63223.4	62501.1
793.4094	131.7679	63311.7	62586.55
793.551	134.0163	63048.45	62316.55
793.6926	136.2642	63132.55	62399.05
793.8342	138.5117	63266.65	62528.75
793.9758	140.7587	63185.25	62443.3
794.1175	143.0052	63171.7	62430.35
794.2591	145.2512	63031.55	62293.55
794.4008	147.4967	63201.85	62462
794.5425	149.7417	63132.5	62390.1
794.6842	151.9863	63123.7	62374.8
794.826	154.2304	63018.3	62266.6
794.9677	156.4739	63077.45	62324.7
795.1095	158.717	63173.55	62423
795.2513	160.9596	63091.95	62330
795.3931	163.2017	62944.05	62180.65
795.535	165.4433	63054.95	62291.3
795.6768	167.6844	62956.8	62191.15
795.8187	169.925	63015.4	62253.85
795.9606	172.1651	62922.9	62152.3
796.1025	174.4047	62935.1	62164.8
796.2445	176.6439	62906.5	62134.85
796.3864	178.8825	62872.05	62101.95
796.5284	181.1206	62960.15	62180.95
796.6704	183.3582	62916.35	62136.15
796.8124	185.5954	62856.9	62071.3
796.9544	187.832	62867.85	62083.95
797.0965	190.0681	62794.9	62006.05
797.2386	192.3037	62926.4	62133.1
797.3806	194.5388	63073.15	62277.85
797.5228	196.7734	62730.8	61927.95
797.6649	199.0075	63040.55	62237.05
797.807	201.2411	62921.7	62115.9
797.9492	203.4742	63116.45	62310.55
798.0914	205.7068	63069.4	62259.9
798.2336	207.9389	63047.25	62237.75
798.3758	210.1704	63028.15	62217.4
798.518	212.4015	63156.35	62347.7
798.6603	214.632	62993.2	62184.8
798.8025	216.862	63177.05	62379.2
798.9448	219.0915	63096.5	62300.05
799.0871	221.3205	63074.55	62280.65
799.2294	223.549	63225.4	62436.45
799.3718	225.777	63227.4	62440.1
799.5141	228.0044	63302.5	62511.75
799.6565	230.2314	63257.6	62464.4
799.7989	232.4578	63258.95	62471.15
799.9413	234.6837	63291.1	62496.8
800.0837	236.909	63515.8	62715.5
800.2262	239.1339	63160.25	62331.55
800.3687	241.3582	63314.1	62503.15
800.5111	243.582	63311.8	62468.45
800.6536	245.8053	63295.05	62465.85
800.7961	248.0281	63317.3	62494.35
800.9387	250.2503	63334.4	62499.95
801.0812	252.472	63221.65	62386.75
801.2238	254.6932	63322.35	62487.3
801.3664	256.9139	63280.55	62446.65
801.509	259.134	63478.9	62639.15
801.6516	261.3536	63229.85	62385.85
801.7942	263.5727	63407	62564.2
801.9369	265.7912	63330.35	62495.6
802.0795	268.0092	63366.05	62527.5
802.2222	270.2267	63376.1	62534.5
802.3649	272.4436	63242.2	62402.7
802.5076	274.6601	63357.6	62510.9
802.6504	276.8759	63416.95	62575.9
802.7931	279.0913	63343.6	62498.35
802.9359	281.3061	63367.05	62515.6
803.0787	283.5204	63393.65	62544.3
803.2215	285.7341	63357.15	62506.55
803.3643	287.9473	63468.45	62601.55
803.5071	290.16	63394.3	62533.35
803.6499	292.3721	63447.3	62590.9
803.7928	294.5837	63385.95	62533.35
803.9357	296.7947	63318.5	62466.3
804.0786	299.0052	63455.05	62602.9
804.2215	301.2152	63401.15	62542.9
804.3644	303.4246	63458.65	62611.75
804.5074	305.6334	63431.05	62580.65
804.6503	307.8418	63252.75	62395.75
804.7933	310.0495	63254.3	62398.45
804.9363	312.2568	63242.25	62384.05
805.0793	314.4635	63203.5	62344.95
805.2223	316.6696	63259.25	62402.7
805.3653	318.8752	63302.45	62432.1
805.5084	321.0802	63040.55	62181.55
805.6514	323.2847	63143.6	62277.9
805.7945	325.4887	63154.5	62291.5
805.9376	327.692	63088	62222.7
806.0807	329.8949	63137.15	62270.9
806.2238	332.0972	63066.3	62201.8
806.367	334.2989	63094.15	62223.9
806.5101	336.5001	63162.7	62291.7
806.6533	338.7007	62952.55	62081.5
806.7965	340.9008	63049.15	62178.45
806.9397	343.1003	63060.35	62189.65
807.0829	345.2992	63116.45	62246.05
807.2261	347.4976	63002.5	62128.6
807.3693	349.6955	63037.85	62152.85
807.5126	351.8927	62969.1	62091.15
807.6559	354.0895	63044.45	62154.25
807.7991	356.2856	63023.05	62143.2
807.9424	358.4812	63113	62233.55
808.0857	360.6763	62966.75	62083.65
808.2291	362.8707	63098.55	62218.5
808.3724	365.0646	62999.75	62114.85
808.5158	367.258	63010.35	62125.05
808.6591	369.4508	62933.4	62045.85
808.8025	371.643	63062.65	62172.25
808.9459	373.8346	62976.9	62086.35
809.0893	376.0257	62994.8	62102.65
809.2327	378.2162	62961.3	62068.65
809.3762	380.4062	62843.9	61951.95
809.5196	382.5956	62919.9	62025.7
809.6631	384.7844	62906.3	62010.7
809.8066	386.9726	62914.3	62019.6
809.9501	389.1603	62902.9	62007.65
810.0936	391.3474	62801	61868.35
810.2371	393.5339	62910.15	62014.45
810.3806	395.7199	62761.1	61875.1
810.5241	397.9052	62765.35	61879.75
810.6677	400.09	62803.55	61920.5
810.8113	402.2743	62876	61990.25
810.9548	404.4579	62782.9	61895.3
811.0984	406.641	62796.3	61909.05
811.2421	408.8235	62850.25	61969.65
811.3857	411.0054	62861.25	61977.8
811.5293	413.1868	62906.7	62017
811.673	415.3675	62890.55	61998.75
811.8166	417.5477	62906	62016.1
811.9603	419.7273	62881.2	61988.2
812.104	421.9064	62853.8	61952.85
812.2477	424.0848	62869.2	61978.55
812.3914	426.2627	62898.1	62005
812.5351	428.4399	62773.1	61873.05
812.6788	430.6166	62676.2	61772.05
812.8226	432.7928	62735.2	61833.3
812.9663	434.9683	62629.4	61731.85
813.1101	437.1432	62614.55	61719.6
813.2539	439.3176	62680.35	61785.4
813.3977	441.4914	62548.45	61656.1
813.5415	443.6645	62534.5	61636.6
813.6853	445.8371	62531.85	61629.9
813.8291	448.0091	62440.7	61543.15
813.973	450.1806	62404.8	61507.6
814.1168	452.3514	62446.7	61553.35
814.2607	454.5216	62405.8	61500.05
814.4046	456.6913	62433.6	61535.65
814.5485	458.8603	62428.3	61529.05
814.6924	461.0288	62361.3	61464.15
814.8363	463.1967	62430.95	61543.7
814.9802	465.3639	62433.05	61538.2
815.1241	467.5306	62287.2	61390.05
815.2681	469.6967	62355.3	61456.05
815.412	471.8622	62377.7	61484.2
815.556	474.0271	62355.55	61457.5
815.7	476.1914	62353.6	61448.55
815.844	478.3551	62366.1	61464.9
815.988	480.5182	62421.65	61523.5
816.132	482.6807	62324.7	61429.2
816.276	484.8426	62355.25	61468.25
816.4201	487.0039	62469.45	61572.95
816.5641	489.1647	62493.35	61592.05
816.7082	491.3248	62390.8	61486.35
816.8522	493.4843	62502.95	61604.9
816.9963	495.6432	62509.95	61610.55
817.1404	497.8015	62391.3	61480.85
817.2845	499.9592	62454.8	61544
817.4286	502.1163	62439.35	61529.45
817.5727	504.2728	62417.8	61516.75
817.7168	506.4287	62393.6	61499.85
817.861	508.5839	62307.25	61412
818.0051	510.7386	62300.35	61400.65
818.1493	512.8927	62326.65	61419.35
818.2935	515.0461	62297.2	61391.9
818.4377	517.199	62332.6	61424.3
818.5818	519.3512	62307.35	61399.55
818.726	521.5029	62281.1	61367.15
818.8703	523.6539	62295.65	61388.15
819.0145	525.8043	62219.5	61309.65
819.1587	527.9541	62292.45	61381.7
819.303	530.1033	62270.05	61359.95
819.4472	532.2519	62226.6	61312.5
819.5915	534.3999	62259.6	61347.45
819.7357	536.5472	62333.05	61426.45
819.88	538.694	62232.45	61326.1
820.0243	540.8401	62347.85	61435.25
820.1686	542.9856	62337.95	61416.6
820.3129	545.1305	62371.15	61446.7
820.4572	547.2748	62313.1	61385.6
820.6016	549.4185	62291.05	61360
820.7459	551.5615	62326.55	61400.45
820.8902	553.704	62293.5	61370.25
821.0346	555.8458	62237.3	61316.6
821.1789	557.987	62258.05	61340.2
821.3233	560.1276	62297.75	61378.25
821.4677	562.2675	62257.45	61338.45
821.6121	564.4069	62288.85	61370.9
821.7565	566.5456	62334.65	61415.95
821.9009	568.6837	62249.55	61335.55
822.0453	570.8212	62266.6	61352.5
822.1897	572.958	62145.85	61231.65
822.3342	575.0942	62171.35	61259
822.4786	577.2299	62087.4	61176.25
822.6231	579.3648	62057.95	61156.65
822.7675	581.4992	62039.85	61146.05
822.912	583.6329	62039.05	61147.05
823.0565	585.766	62017.65	61116.35
823.201	587.8985	62021.7	61121.1
823.3454	590.0304	61934.45	61000.45
823.4899	592.1616	62012.1	61094.15
823.6345	594.2922	61940.15	61022.6
823.779	596.4222	61868	60946.7
823.9235	598.5515	61875.3	60951.15
824.068	600.6802	61880.15	60960.95
824.2126	602.8083	61768.25	60848.5
824.3571	604.9358	61748.05	60827.75
824.5017	607.0626	61811.05	60885.35
824.6462	609.1888	61659.85	60732.4
824.7908	611.3144	61771.8	60841.8
824.9354	613.4393	61678.75	60751.5
825.08	615.5636	61608.25	60681.85
825.2246	617.6873	61733.25	60807.3
825.3692	619.8103	61573.3	60648.55
825.5138	621.9327	61670.9	60749.05
825.6584	624.0544	61655.95	60735.15
825.803	626.1756	61592	60673.5
825.9477	628.2961	61565.75	60645.8
826.0923	630.4159	61495.2	60572.65
826.237	632.5351	61438.7	60513.75
826.3816	634.6537	61660.7	60736.8
826.5263	636.7716	61423.25	60496.3
826.6709	638.8889	61499.9	60569.6
826.8156	641.0056	61493.8	60559.6
826.9603	643.1216	61519.45	60590.8
827.105	645.237	61554	60626.05
827.2497	647.3518	61366.55	60447.1
827.3944	649.4659	61429.2	60509.45
827.5391	651.5793	61417	60498.65
827.6838	653.6922	61460.2	60537.25
827.8285	655.8043	61241.45	60321.7
827.9733	657.9159	61491.9	60567.35
828.118	660.0268	60995.65	60071.25
828.2627	662.137	61296.2	60369.7
828.4075	664.2466	61325.95	60393
828.5522	666.3556	61222.6	60291.4
828.697	668.4639	61278.15	60351.65
828.8418	670.5716	61154.95	60233.55
828.9865	672.6786	61239.9	60309.4
829.1313	674.785	61081.1	60152.05
829.2761	676.8907	61116.3	60191.5
829.4209	678.9958	61169.2	60247.85
829.5657	681.1002	61181.9	60251.4
829.7105	683.204	61020.95	60086.05
829.8553	685.3072	60930.45	59999.75
830.0001	687.4097	60987.25	60054.85
830.1449	689.5115	60941.5	60008.05
830.2898	691.6127	61101.15	60172.85
830.4346	693.7132	60922.8	59994.8
830.5794	695.8131	60936.7	59987.35
830.7243	697.9123	60969.05	60036.45
830.8691	700.0109	60990.2	60054.15
831.014	702.1089	60773.2	59840.3
831.1588	704.2061	60836.7	59903.25
831.3037	706.3028	60862.1	59929.6
831.4486	708.3987	60899.9	59967.15
831.5935	710.4941	60786.8	59858.2
831.7383	712.5887	60945.4	60018.05
831.8832	714.6827	60811.15	59882.8
832.0281	716.7761	60967.9	60040.4
832.173	718.8688	61014.85	60084.2
832.3179	720.9608	60884.5	59947.55
832.4628	723.0522	60899.5	59956.7
832.6077	725.1429	60775.55	59838.2
832.7527	727.233	61061.45	60127.1
832.8976	729.3224	60475.8	59541.8
833.0425	731.4112	60705	59774.1
833.1874	733.4993	60637.3	59704
833.3324	735.5867	60622.95	59688.4
833.4773	737.6735	60461.5	59524.1
833.6222	739.7596	60308.8	59374.55
833.7672	741.845	60280.55	59345.05
833.9122	743.9298	60488.1	59556.65
834.0571	746.014	60204.5	59270.2
834.2021	748.0974	60033	59091.45
834.347	750.1802	60388.75	59449.3
834.492	752.2624	59940.45	59002.35
834.637	754.3439	60018.85	59081.05
834.782	756.4247	60108.75	59160.15
834.9269	758.5048	59919.95	58981.8
835.0719	760.5843	60029.6	59091.35
835.2169	762.6631	60162.95	59222.65
835.3619	764.7413	60138.55	59204.35
835.5069	766.8188	60280.6	59337.75
835.6519	768.8956	60436.95	59499.8
835.7969	770.9718	60428.7	59495.55
835.9419	773.0473	60313.6	59379.25
836.0869	775.1221	60065.55	59131.8
836.232	777.1962	60013.35	59078.85
836.377	779.2697	59746.85	58804.55
836.522	781.3426	59893.45	58942.55
836.667	783.4147	59952.1	59010.85
836.8121	785.4862	59951.05	59013.2
836.9571	787.557	59657.3	58717.5
837.1021	789.6271	59849.1	58907.8
837.2472	791.6966	59535.25	58596.35
837.3922	793.7654	59147.7	58209.65
837.5373	795.8335	59069.25	58134.45
837.6823	797.901	59132.35	58197.15
837.8274	799.9678	58939.1	57997.1
837.9724	802.0339	58827.85	57889.3
838.1175	804.0993	58825.35	57874.8
838.2626	806.1641	58745.35	57801.4
838.4076	808.2282	58642.8	57705.55
838.5527	810.2916	58567.1	57625.6
838.6978	812.3544	58704.45	57768.6
838.8428	814.4164	58318.2	57378.95
838.9879	816.4778	58393.65	57452.75
839.133	818.5385	58418.35	57475.35
839.2781	820.5986	58393.15	57453.6
839.4232	822.658	58485.9	57545.8
839.5682	824.7166	58545.6	57606
839.7133	826.7747	58389.45	57448.25
839.8584	828.832	58604.5	57664.95
840.0035	830.8886	58744.25	57801.25
840.1486	832.9446	58755.3	57813.5
840.2937	834.9999	58185.15	57244.2
840.4388	837.0545	58420.3	57480.1
840.5839	839.1085	58498.3	57556.7
840.729	841.1618	58311.85	57369
840.8741	843.2143	57835.6	56895.05
841.0192	845.2662	57817.8	56875.5
841.1643	847.3175	57914.65	56973.05
841.3095	849.368	57302.15	56361.05
841.4546	851.4179	57726.8	56786.9
841.5997	853.467	57338.65	56398.8
841.7448	855.5155	57523.15	56581.35
841.8899	857.5633	57201.75	56263.05
842.0351	859.6105	56964.2	56022.2
842.1802	861.6569	57152.1	56208.65
842.3253	863.7027	56658.6	55717.25
842.4704	865.7478	56830.95	55886.3
842.6156	867.7922	56698.6	55755.7
842.7607	869.8359	56937.3	55996.1
842.9058	871.8789	56416.4	55473.15
843.0509	873.9212	56742.5	55771.25
843.1961	875.9629	56758.75	55817.9
843.3412	878.0039	56672.9	55728.3
843.4863	880.0441	56515.65	55578.35
843.6315	882.0837	56515.4	55573.2
843.7766	884.1226	56494.3	55549.7
843.9218	886.1609	56456.4	55518.7
844.0669	888.1984	56239.75	55296.25
844.212	890.2352	56677.05	55735.5
844.3572	892.2714	56127	55180.4
844.5023	894.3069	56346.25	55403.25
844.6475	896.3416	56005.4	55061.15
844.7926	898.3757	55925	54982.85
844.9377	900.4091	55299.75	54359.2
845.0829	902.4418	55997.95	55050.6
845.228	904.4739	55538.45	54592.2
845.3732	906.5052	55699.75	54754.65
845.5183	908.5358	55375.1	54428.7
845.6635	910.5658	55126.95	54182.15
845.8086	912.595	55018.9	54074.85
845.9538	914.6236	54258.35	53316.65
846.0989	916.6515	55170.8	54229.8
846.2441	918.6786	54074	53129.95
846.3892	920.7051	54336.35	53389.6
846.5344	922.7309	54211.8	53267
846.6795	924.756	54371.55	53431.25
846.8246	926.7804	54063.9	53121.65
846.9698	928.8041	53353.9	52405.7
847.1149	930.8272	53830.55	52882.2
847.2601	932.8495	53790.75	52844.95
847.4052	934.8711	53347.1	52403
847.5504	936.892	52965.8	52022.3
847.6955	938.9123	53148.8	52205.65
847.8407	940.9318	52817.6	51875.65
847.9858	942.9506	52735.35	51789.55
848.131	944.9688	52706.75	51765.35
848.2761	946.9862	51999.8	51057.85
848.4213	949.003	52171.6	51228.4
848.5664	951.019	51532.4	50588.15
848.7115	953.0344	51601.6	50657.55
848.8567	955.0491	51496.55	50550
849.0018	957.063	51671.7	50729.6
849.147	959.0763	51784.55	50832.15
849.2921	961.0888	51327.55	50382.45
849.4373	963.1007	51663.05	50721.85
849.5824	965.1119	51560.1	50623.6
849.7275	967.1223	51213.85	50280.75
849.8727	969.1321	51505	50570.65
850.0178	971.1412	50994.35	50056.05
850.1629	973.1495	50804.25	49865.05
850.3081	975.1572	50973.05	49995.15
850.4532	977.1641	50835	49892.6
850.5983	979.1704	50595.7	49650.8
850.7435	981.1759	50601.8	49656.6
850.8886	983.1808	50300.4	49355.65
851.0337	985.1849	50372.55	49418.4
851.1788	987.1884	50390.5	49446.2
851.324	989.1911	50612.6	49668.8
851.4691	991.1932	50003.75	49061.65
851.6142	993.1945	50042.3	49098.6
851.7593	995.1951	50109	49165.55
851.9045	997.1951	49772.85	48824.85
852.0496	999.1943	49558.5	48619.5
852.1947	1001.1928	49382.45	48437.5
852.3398	1003.1906	49377.85	48437.45
852.4849	1005.1877	49109.55	48168.25
852.63	1007.1841	48919.35	47977
852.7751	1009.1798	48774.1	47836.15
852.9202	1011.1748	48606.15	47666.8
853.0653	1013.1691	48420.6	47476.75
853.2104	1015.1627	47760	46817
853.3555	1017.1556	47516.85	46581.5
853.5006	1019.1477	47523.6	46586.9
853.6457	1021.1392	47046.4	46113.6
853.7908	1023.1299	46691.25	45756.95
853.9359	1025.12	46779.35	45849.15
854.081	1027.1093	46538.55	45618.85
854.2261	1029.0979	46509.65	45590.55
854.3712	1031.0859	46425.75	45500.4
854.5163	1033.0731	46120.3	45191.4
854.6613	1035.0596	46073.4	45140.8
854.8064	1037.0454	45761.15	44822.3
854.9515	1039.0304	45488	44553.6
855.0965	1041.0148	45223.1	44285.2
855.2416	1042.9985	45146.5	44205.85
855.3867	1044.9814	45070.95	44133.05
855.5317	1046.9636	44761.6	43821.85
855.6768	1048.9452	44563.1	43625.75
855.8219	1050.926	44533.25	43596.8
855.9669	1052.9061	44441.9	43506.4
856.112	1054.8855	44399.85	43462.9
856.257	1056.8642	44238.45	43298.8
856.4021	1058.8421	44216.25	43270.75
856.5471	1060.8194	44125.75	43186.9
856.6921	1062.7959	44066.65	43128.75
856.8372	1064.7717	43995.3	43057.25
856.9822	1066.7469	43932.4	42994.45
857.1272	1068.7213	43902.35	42962.65
857.2723	1070.695	43790.35	42851.2
857.4173	1072.6679	43550.1	42613
857.5623	1074.6402	43556.65	42617.15
857.7073	1076.6117	43507.7	42561.3
857.8523	1078.5826	43373.95	42436.05
857.9973	1080.5527	43175.75	42234.7
858.1423	1082.5221	43019.35	42084.6
858.2873	1084.4908	42989.5	42051.3
858.4323	1086.4587	42982	42045
858.5773	1088.426	42952.95	42013.2
858.7223	1090.3925	42801.8	41856.6
858.8673	1092.3584	42729.3	41793.65
859.0123	1094.3235	42411.1	41475.45
859.1573	1096.2879	42383.4	41445.3
859.3022	1098.2515	42328.2	41391.05
859.4472	1100.2145	42393.05	41453.4
859.5922	1102.1767	42370.95	41432.05
859.7371	1104.1382	42417.7	41480.3
859.8821	1106.099	42477.3	41539.1
860.027	1108.0591	42521.2	41586.95
860.172	1110.0185	42490.55	41552.5
860.3169	1111.9771	42543.15	41607.9
860.4619	1113.9351	42211.7	41274.5
860.6068	1115.8923	41986.25	41048.55
860.7517	1117.8488	41694.3	40754.6
860.8967	1119.8045	41354.75	40416.7
861.0416	1121.7596	41215.7	40281.3
861.1865	1123.7139	40925.65	39988.7
861.3314	1125.6675	40911.35	39976.6
861.4763	1127.6204	40961.95	40029.05
861.6212	1129.5726	40699.65	39762.95
861.7661	1131.524	40653.95	39720.8
861.911	1133.4748	40530.85	39592
862.0559	1135.4248	40291.35	39353.15
862.2008	1137.3741	40118.75	39182.35
862.3457	1139.3226	39961	39024.9
862.4905	1141.2705	39897.5	38962.8
862.6354	1143.2176	39599.55	38659.15
862.7803	1145.164	39544.35	38606.35
862.9251	1147.1097	39426.4	38490.1
863.07	1149.0546	39325.5	38387.5
863.2148	1150.9989	39195.8	38259.25
863.3597	1152.9424	39050.45	38115.4
863.5045	1154.8852	38915.45	37978.8
863.6493	1156.8272	38772.55	37835.5
863.7942	1158.7686	38778.6	37833.9
863.939	1160.7092	38631.85	37693.95
864.0838	1162.6491	38460.45	37522.35
864.2286	1164.5883	38541.9	37606.7
864.3734	1166.5267	38475.9	37537.9
864.5182	1168.4644	38538.55	37601.7
864.663	1170.4014	38630.85	37691.8
864.8078	1172.3377	38770.25	37836.5
864.9526	1174.2732	38898.4	37965.7
865.0974	1176.2081	39139	38203.3
865.2421	1178.1421	39311.65	38376.3
865.3869	1180.0755	39582.65	38649.3
865.5317	1182.0082	39597.35	38665.7
865.6764	1183.9401	39654.95	38720.4
865.8212	1185.8713	39488.2	38558.75
865.9659	1187.8017	39225	38298.9
866.1106	1189.7315	38886.4	37965.8
866.2554	1191.6605	38426.9	37507.7
866.4001	1193.5888	38088.1	37163.55
866.5448	1195.5163	37872.3	36944.15
866.6895	1197.4432	37658.2	36725.6
866.8342	1199.3693	37590.65	36659.4
866.9789	1201.2947	37463.45	36530.1
867.1236	1203.2193	37257.7	36323.5
867.2683	1205.1432	37266.15	36334.3
867.413	1207.0664	37090.05	36160.9
867.5576	1208.9889	37006.9	36070.2
867.7023	1210.9106	36855	35921.85
867.847	1212.8316	36738.5	35808.85
867.9916	1214.7519	36724.3	35782.3
868.1363	1216.6715	36586.65	35658.55
868.2809	1218.5903	36631.8	35700.55
868.4255	1220.5084	36526.45	35594.15
868.5701	1222.4257	36580.3	35650.65
868.7148	1224.3424	36353.9	35426.85
868.8594	1226.2583	36390.6	35457.4
869.004	1228.1735	36383.65	35452.2
869.1486	1230.0879	36347.05	35413.75
869.2932	1232.0016	36421.3	35488.3
869.4377	1233.9146	36335.1	35400.95
869.5823	1235.8269	36168.6	35238.55
869.7269	1237.7384	36099.2	35167.5
869.8715	1239.6492	35828.95	34899.7
870.016	1241.5592	35731.85	34799.35
870.1606	1243.4686	35570.5	34637.25
870.3051	1245.3772	35602.8	34672.65
870.4496	1247.285	35553.8	34624.95
870.5941	1249.1922	35575.65	34644.3
870.7387	1251.0986	35556.25	34626.45
870.8832	1253.0042	35473.8	34543.6
871.0277	1254.9092	35474.25	34545.95
871.1722	1256.8134	35465.4	34537.3
871.3167	1258.7169	35516.5	34588.25
871.4611	1260.6196	35533.05	34604.25
871.6056	1262.5216	35723	34791.2
871.7501	1264.4229	35704.65	34777
871.8945	1266.3234	35863.1	34932.7
872.039	1268.2232	35861.7	34930.9
872.1834	1270.1223	35803.8	34874.5
872.3278	1272.0207	35762.4	34829.65
872.4723	1273.9183	35623.1	34687.9
872.6167	1275.8151	35500.4	34567.85
872.7611	1277.7113	35441.85	34509.55
872.9055	1279.6067	35295.25	34367
873.0499	1281.5014	35292.55	34361.7
873.1943	1283.3953	35391.7	34461.7
873.3386	1285.2885	35563.75	34635.4
873.483	1287.181	35797.55	34867.95
873.6274	1289.0727	36035.45	35108.85
873.7717	1290.9637	36126.5	35198.9
873.9161	1292.854	36227.8	35301.15
874.0604	1294.7435	36155.85	35228.1
874.2047	1296.6323	36094.4	35167
874.349	1298.5204	36073.7	35141
874.4933	1300.4077	35990.5	35058.8
874.6376	1302.2943	35839.2	34910.9
874.7819	1304.1802	35700.35	34774.1
874.9262	1306.0653	35306.9	34376.65
875.0705	1307.9497	34972.2	34043.05
875.2147	1309.8333	34711.55	33781.65
875.359	1311.7162	34545.85	33617.1
875.5032	1313.5984	34421.15	33489.65
875.6475	1315.4798	34268.5	33328.45
875.7917	1317.3605	34160.4	33216.5
875.9359	1319.2405	34154.65	33224.1
876.0801	1321.1197	33942.3	33012.05
876.2243	1322.9982	33701.9	32770.45
876.3685	1324.876	33516.2	32586.65
876.5127	1326.753	33258.7	32331.45
876.6569	1328.6293	33118.3	32187.65
876.801	1330.5048	33073.5	32142.6
876.9452	1332.3796	32916.25	31989.95
877.0893	1334.2537	32821.85	31869.2
877.2335	1336.127	32668.25	31740.65
877.3776	1337.9996	32596.9	31671.1
877.5217	1339.8714	32522.35	31597.9
877.6658	1341.7426	32434.25	31461.25
877.8099	1343.6129	32410.1	31480.25
877.954	1345.4826	32354.75	31428.05
878.0981	1347.3515	32363.55	31431.45
878.2422	1349.2196	32226.95	31300.05
878.3862	1351.087	32209.05	31279.1
878.5303	1352.9537	32197.9	31266.5
878.6743	1354.8197	32245.2	31314.9
878.8184	1356.6849	32342.15	31411.5
878.9624	1358.5493	32371.2	31444.15
879.1064	1360.4131	32432.3	31505.9
879.2504	1362.276	32406.15	31477.5
879.3944	1364.1383	32305.65	31376
879.5384	1365.9998	32074.75	31140.65
879.6823	1367.8606	31736.3	30807.35
879.8263	1369.7206	31450.5	30521.3
879.9702	1371.5799	31093.35	30160.1
880.1142	1373.4384	30860.85	29933.2
880.2581	1375.2962	30629.9	29701
880.402	1377.1533	30265.5	29343.35
880.5459	1379.0096	29890.9	28965.95
880.6898	1380.8652	29567.35	28642.1
880.8337	1382.7201	29289.9	28365.2
880.9776	1384.5742	28973.3	28045.4
881.1215	1386.4275	28760	27832.7
881.2653	1388.2802	28564	27638.8
881.4092	1390.132	28395.1	27467.85
881.553	1391.9832	28344.6	27415.35
881.6968	1393.8336	28077.85	27151.25
881.8406	1395.6832	27988.6	27058.35
881.9844	1397.5322	27897.9	26969.7
882.1282	1399.3803	27794.75	26862.25
882.272	1401.2278	27603	26678.05
882.4158	1403.0745	27521.25	26597.2
882.5595	1404.9204	27410.15	26485.5
882.7033	1406.7656	27378.8	26452.45
882.847	1408.6101	27283.85	26358.45
882.9908	1410.4538	27211.1	26286.3
883.1345	1412.2968	27219.9	26295.25
883.2782	1414.139	27105.95	26177.75
883.4219	1415.9805	27176.4	26254.2
883.5656	1417.8213	27142.85	26196.7
883.7092	1419.6613	27127.25	26204.55
883.8529	1421.5006	27178	26252.25
883.9965	1423.3391	27299.55	26374.4
884.1402	1425.1769	27415.75	26491.1
884.2838	1427.0139	27774.9	26846.95
884.4274	1428.8502	28157.9	27229.4
884.571	1430.6858	28524.3	27598.75
884.7146	1432.5206	28738.35	27814.5
884.8582	1434.3547	28871.6	27946.8
885.0018	1436.188	28852.5	27927.65
885.1453	1438.0206	28741.6	27817.25
885.2889	1439.8524	28517.6	27594.95
885.4324	1441.6835	28434.75	27511.4
885.5759	1443.5139	28285.25	27356.8
885.7194	1445.3435	28155.05	27231.7
885.8629	1447.1724	28087.9	27166.95
886.0064	1449.0005	28058.5	27138.6
886.1499	1450.8279	27920.5	26995.9
886.2933	1452.6545	27867.55	26945.7
886.4368	1454.4804	27875.4	26953.3
886.5802	1456.3056	27829.55	26899.15
886.7237	1458.13	27690.95	26771.4
886.8671	1459.9536	27601.9	26679.7
887.0105	1461.7766	27277.95	26354.6
887.1539	1463.5987	26931.7	26008.55
887.2972	1465.4202	26597.1	25674.45
887.4406	1467.2409	26297.7	25376.05
887.584	1469.0608	26020.7	25097.3
887.7273	1470.88	25769.95	24846.5
887.8706	1472.6984	25566.35	24647.65
888.0139	1474.5161	25345.95	24420.35
888.1572	1476.3331	25153.6	24233.3
888.3005	1478.1493	25017.55	24093.45
888.4438	1479.9648	24948	24026.25
888.5871	1481.7795	24821.75	23896.3
888.7303	1483.5935	24728.05	23805.6
888.8736	1485.4067	24635.75	23715.7
889.0168	1487.2192	24597.3	23672
889.16	1489.031	24497.1	23573.25
889.3032	1490.842	24392.8	23472.45
889.4464	1492.6522	24328.1	23406.6
889.5896	1494.4618	24249.15	23327.9
889.7327	1496.2705	24170.7	23246.45
889.8759	1498.0785	24169.15	23241.85
890.019	1499.8858	24087.15	23169.25
890.1622	1501.6924	23966.75	23045.55
890.3053	1503.4981	23954.7	23034.6
890.4484	1505.3032	23898.4	22978.6
890.5914	1507.1075	23808.8	22887.4
890.7345	1508.911	23735.2	22817.35
890.8776	1510.7138	23708.7	22784.15
891.0206	1512.5159	23538.9	22616.5
891.1637	1514.3172	23508.1	22586.1
891.3067	1516.1178	23405.35	22484.2
891.4497	1517.9176	23336.5	22412.2
891.5927	1519.7166	23242.6	22320.5
891.7357	1521.515	23171.3	22246.5
891.8786	1523.3126	23097.35	22178
892.0216	1525.1094	23031.9	22109.55
892.1645	1526.9055	22944.4	22026.2
892.3074	1528.7008	22889.1	21969.15
892.4503	1530.4954	22704.05	21777.35
892.5932	1532.2893	22689.45	21772.9
892.7361	1534.0824	22556.65	21636
892.879	1535.8747	22574.5	21659.95
893.0218	1537.6663	22501.7	21587.2
893.1647	1539.4572	22393.95	21475.15
893.3075	1541.2473	22353.55	21437.15
893.4503	1543.0367	22318.25	21400.65
893.5931	1544.8253	22237.85	21316.55
893.7359	1546.6132	22230.45	21312.2
893.8787	1548.4003	22155.35	21228.8
894.0214	1550.1867	22192.35	21269.1
894.1642	1551.9723	22121.5	21202.45
894.3069	1553.7572	22140.75	21226
894.4496	1555.5414	22129.5	21218.5
894.5923	1557.3247	22121.8	21207.5
894.735	1559.1074	22182.7	21273.15
894.8777	1560.8893	22300.8	21391.65
895.0204	1562.6705	22287.1	21374.85
895.163	1564.4509	22353.7	21445.85
895.3056	1566.2305	22320.45	21413.35
895.4482	1568.0094	22344.25	21437.1
895.5908	1569.7876	22330.8	21419.3
895.7334	1571.565	22283.8	21374.15
895.876	1573.3417	22317.3	21405.8
896.0186	1575.1176	22229.3	21319.45
896.1611	1576.8928	22160.6	21254.25
896.3036	1578.6672	22028.6	21124.95
896.4461	1580.4409	22001	21098.6
896.5886	1582.2138	21917.75	21009.45
896.7311	1583.986	21846.75	20938.4
896.8736	1585.7575	21865.4	20956.6
897.0161	1587.5282	21801.85	20896.1
897.1585	1589.2981	21805.7	20904.75
897.3009	1591.0673	21723.05	20817.35
897.4433	1592.8358	21766.05	20862
897.5857	1594.6035	21777.35	20868.5
897.7281	1596.3704	21715.5	20808.7
897.8705	1598.1366	21758.45	20850.3
898.0128	1599.9021	21756.35	20851.35
898.1551	1601.6668	21735.1	20826.65
898.2975	1603.4308	21798.05	20888.65
898.4398	1605.194	21858.35	20945.6
898.5821	1606.9564	21916.6	21014.5
898.7243	1608.7182	22061.1	21159.2
898.8666	1610.4791	22235.85	21340.6
899.0088	1612.2394	22346.05	21450.85
899.1511	1613.9988	22485.6	21587.8
899.2933	1615.7576	22672.25	21771.9
899.4355	1617.5156	22843.5	21931.25
899.5776	1619.2728	22908.2	21998.1
899.7198	1621.0293	22909.55	22003.3
899.862	1622.785	22753.8	21850.3
900.0041	1624.54	22524.4	21623.6
900.1462	1626.2942	22301.95	21399.5
900.2883	1628.0477	21965.65	21059.55
900.4304	1629.8005	21690.8	20783.45
900.5725	1631.5525	21433.6	20531.8
900.7145	1633.3037	21176.75	20275.55
900.8566	1635.0542	21007.65	20105.95
900.9986	1636.804	20831.75	19928.65
901.1406	1638.553	20785.7	19831.05
901.2826	1640.3013	20649.1	19748.25
901.4245	1642.0488	20539.85	19636.05
901.5665	1643.7955	20549	19650.5
901.7085	1645.5416	20519	19618.1
901.8504	1647.2868	20609.05	19709.95
901.9923	1649.0313	20611.85	19708.25
902.1342	1650.7751	20713.25	19808.65
902.2761	1652.5181	20791.6	19892.15
902.4179	1654.2604	20854.45	19954.6
902.5598	1656.0019	21028.95	20130.25
902.7016	1657.7427	21182.9	20282.6
902.8434	1659.4828	21373.45	20470.75
902.9852	1661.222	21446.2	20543.25
903.127	1662.9606	21402.6	20501.55
903.2687	1664.6984	21225.5	20321.15
903.4105	1666.4354	20875.05	19968.85
903.5522	1668.1717	20423.4	19516.95
903.6939	1669.9072	19960	19053.15
903.8356	1671.642	19539.85	18631.5
903.9773	1673.3761	19237.25	18332.35
904.119	1675.1094	18947.35	18047.55
904.2606	1676.8419	18687.5	17785.2
904.4022	1678.5737	18483.7	17578.8
904.5439	1680.3048	18298.95	17393.2
904.6855	1682.0351	18148.95	17247.3
904.827	1683.7646	17984.15	17076.55
904.9686	1685.4934	17881.35	16979.65
905.1101	1687.2215	17821.75	16918.4
905.2517	1688.9488	17690.3	16788.65
905.3932	1690.6754	17565.9	16666.45
905.5347	1692.4012	17526.85	16623.15
905.6761	1694.1263	17441.2	16536.8
905.8176	1695.8506	17405.55	16499.75
905.9591	1697.5742	17316.15	16417.95
906.1005	1699.297	17237.35	16340
906.2419	1701.0191	17163.85	16266.15
906.3833	1702.7404	17109.6	16210
906.5246	1704.461	16993.75	16091.8
906.666	1706.1808	16892.7	15992.75
906.8073	1707.8999	16854.9	15954.75
906.9487	1709.6182	16807.1	15909
907.09	1711.3358	16737.65	15842.15
907.2313	1713.0527	16659.35	15765.5
907.3725	1714.7688	16611.2	15710.6
907.5138	1716.4841	16552.15	15651.35
907.655	1718.1987	16537.6	15634.9
907.7962	1719.9126	16457.3	15561
907.9374	1721.6257	16410.85	15511.2
908.0786	1723.338	16383.35	15487.7
908.2198	1725.0496	16248	15350.95
908.3609	1726.7605	16234.45	15337.05
908.502	1728.4706	16191.7	15294.55
908.6431	1730.18	16073.1	15175.8
908.7842	1731.8886	16044.5	15148.55
908.9253	1733.5964	16049.9	15136.25
909.0664	1735.3036	15982.1	15082.9
909.2074	1737.0099	15951.6	15054.85
909.3484	1738.7156	15906.9	15012.1
909.4894	1740.4204	15811.35	14913.45
909.6304	1742.1246	15793.15	14896.5
909.7714	1743.8279	15757	14860.2
909.9123	1745.5306	15694.9	14800.25
910.0532	1747.2325	15667.8	14772.8
910.1941	1748.9336	15605.05	14709.45
910.335	1750.634	15522.4	14623.9
910.4759	1752.3336	15501.75	14604.7
910.6168	1754.0325	15469.8	14577.1
910.7576	1755.7307	15448.7	14554.45
910.8984	1757.4281	15403.45	14509.9
911.0392	1759.1247	15414.5	14506.35
911.18	1760.8206	15368.2	14464.65
911.3208	1762.5158	15301.95	14398.75
911.4615	1764.2102	15266.1	14371.95
911.6022	1765.9039	15186.8	14292.5
911.7429	1767.5968	15197.9	14304.85
911.8836	1769.289	15153.4	14258.5
912.0243	1770.9804	15096.6	14198.95
912.1649	1772.6711	15130.05	14231.85
912.3056	1774.361	15036.85	14138.5
912.4462	1776.0502	15013.95	14115.05
912.5868	1777.7386	14977.45	14077.95
912.7274	1779.4263	14953.35	14058.2
912.8679	1781.1132	14942.55	14051.25
913.0084	1782.7994	14859.4	13966.75
913.149	1784.4849	14818.25	13926.75
913.2895	1786.1696	14782.6	13884.9
913.4299	1787.8535	14758.5	13866.2
913.5704	1789.5367	14732.5	13841.5
913.7108	1791.2192	14677.9	13783.65
913.8513	1792.9009	14661.25	13739.8
913.9917	1794.5818	14599.25	13700.8
914.132	1796.2621	14574.1	13678.3
914.2724	1797.9415	14556.3	13661.05
914.4128	1799.6202	14499.25	13604.3
914.5531	1801.2982	14487.25	13591.05
914.6934	1802.9755	14430.05	13532.65
914.8337	1804.6519	14427.15	13532.55
914.9739	1806.3277	14323.1	13428.4
915.1142	1808.0027	14285.95	13394.6
915.2544	1809.6769	14255.05	13363.45
915.3946	1811.3504	14230.3	13338.75
915.5348	1813.0231	14175	13283
915.675	1814.6951	14208.75	13317.6
915.8151	1816.3664	14206.7	13309.45
915.9553	1818.0369	14148.75	13252.85
916.0954	1819.7067	14111.15	13215.5
916.2355	1821.3757	14085	13187.4
916.3755	1823.044	14046.5	13151.55
916.5156	1824.7115	14017.85	13122.85
916.6556	1826.3783	13961.4	13067.1
916.7956	1828.0443	13923	13030.7
916.9356	1829.7096	13889.65	12990.8
917.0756	1831.3741	13870.65	12975.15
917.2155	1833.0379	13860.75	12968.1
917.3555	1834.701	13816.4	12923.9
917.4954	1836.3633	13771.25	12879.35
917.6353	1838.0248	13755	12863.25
917.7751	1839.6856	13721.15	12826.8
917.915	1841.3457	13690.9	12797.6
918.0548	1843.005	13678.9	12785.75
918.1946	1844.6636	13639.55	12747.9
918.3344	1846.3214	13599.85	12703.55
918.4742	1847.9785	13599.5	12705.3
918.6139	1849.6349	13558.5	12661.45
918.7537	1851.2904	13529.8	12624.3
918.8934	1852.9453	13514.15	12617.4
919.0331	1854.5994	13443.8	12545.85
919.1727	1856.2528	13475.45	12576.9
919.3124	1857.9054	13436.95	12543.2
919.452	1859.5572	13424.55	12530.1
919.5916	1861.2083	13378.35	12483.7
919.7312	1862.8587	13395.7	12500
919.8708	1864.5084	13355.1	12457.6
920.0103	1866.1572	13317.25	12422.85
920.1498	1867.8054	13231.15	12334.45
920.2893	1869.4528	13239.35	12344
920.4288	1871.0994	13189.95	12295.45
920.5683	1872.7453	13179.9	12282.7
920.7077	1874.3905	13133.65	12233.1
920.8471	1876.0349	13122	12225.9
920.9865	1877.6786	13097.65	12201.05
921.1259	1879.3215	13094.55	12200.25
921.2653	1880.9637	13050.05	12153.95
921.4046	1882.6051	13019.15	12127.2
921.5439	1884.2458	12980.8	12084.55
921.6832	1885.8858	12925.4	12032.25
921.8225	1887.525	12902.9	12008.8
921.9617	1889.1634	12851.3	11956.15
922.101	1890.8011	12796.5	11899.3
922.2402	1892.4381	12768.15	11872.75
922.3794	1894.0743	12787.1	11890.7
922.5185	1895.7098	12765.8	11871.35
922.6577	1897.3446	12731.9	11836.8
922.7968	1898.9786	12711.35	11812.55
922.9359	1900.6118	12657.7	11764.5
923.075	1902.2443	12575.25	11680.8
923.214	1903.8761	12581.2	11689.15
923.3531	1905.5071	12502.8	11606.9
923.4921	1907.1374	12470.05	11575.6
923.6311	1908.7669	12467.9	11575.3
923.77	1910.3957	12440.3	11546.7
923.909	1912.0237	12351.45	11459.15
924.0479	1913.651	12347.1	11453.6
924.1868	1915.2776	12308.25	11416.75
924.3257	1916.9034	12267.4	11378.55
924.4646	1918.5285	12208.55	11317
924.6034	1920.1528	12127.9	11236.05
924.7422	1921.7764	12174.3	11279.65
924.881	1923.3992	12125.25	11230.55
925.0198	1925.0213	12049.75	11155.75
925.1586	1926.6427	11970.6	11078.05
925.2973	1928.2633	12029.4	11064.2
925.436	1929.8832	11939.5	11044.45
925.5747	1931.5023	11897.3	11002.9
925.7134	1933.1207	11865.9	10971.65
925.852	1934.7383	11833.4	10939.75
925.9906	1936.3552	11791	10899.15
926.1292	1937.9714	11801.75	10908.7
926.2678	1939.5868	11746.2	10851.75
926.4064	1941.2015	11675.35	10779.8
926.5449	1942.8154	11622.25	10724
926.6834	1944.4286	11590.85	10696.1
926.8219	1946.041	11567.8	10652.9
926.9604	1947.6528	11527	10627.65
927.0988	1949.2637	11495.05	10601.75
927.2372	1950.8739	11419.3	10527.8
927.3756	1952.4834	11416.55	10526.25
927.514	1954.0921	11379.8	10486.5
927.6523	1955.7001	11335.4	10439.6
927.7907	1957.3074	11311.8	10422.2
927.929	1958.9139	11273.3	10384.05
928.0673	1960.5197	11233.65	10341.05
928.2055	1962.1247	11193.3	10304.4
928.3438	1963.729	11181.55	10291.35
928.482	1965.3325	11141.7	10230.15
928.6202	1966.9353	11085.4	10197.3
928.7584	1968.5374	11070.95	10181
928.8965	1970.1387	11027.3	10138.9
929.0346	1971.7393	10944.9	10053.9
929.1727	1973.3392	10953.4	10064.15
929.3108	1974.9383	10909.15	10021.3
929.4489	1976.5366	10866.7	9978.5
929.5869	1978.1342	10824.3	9934.8
929.7249	1979.7311	10816	9928.25
929.8629	1981.3273	10781.15	9893.7
930.0009	1982.9227	10747.45	9859.5
930.1388	1984.5173	10709.75	9823.25
930.2767	1986.1112	10674.65	9787.35
930.4146	1987.7044	10661.9	9774.7
930.5525	1989.2968	10614	9724.9
930.6904	1990.8885	10607.7	9719.05
930.8282	1992.4795	10559	9669.85
930.966	1994.0697	10518.55	9632.05
931.1038	1995.6592	10510.7	9625.15
931.2415	1997.2479	10474.4	9586.75
931.3793	1998.8359	10430.9	9543.65
931.517	2000.4232	10422.1	9537.9
931.6547	2002.0097	10388.55	9505.25
931.7923	2003.5955	10317.55	9433.3
931.93	2005.1805	10353.25	9468.3
932.0676	2006.7648	10310.65	9425.5
932.2052	2008.3484	10277.7	9393.55
932.3427	2009.9312	10256.4	9369.55
932.4803	2011.5133	10240.95	9357.75
932.6178	2013.0946	10191.3	9307.2
932.7553	2014.6752	10165.2	9282.6
932.8928	2016.2551	10160.75	9274.55
933.0302	2017.8342	10099.35	9216.55
933.1676	2019.4126	10078	9193.15
933.305	2020.9902	10020.2	9138.15
933.4424	2022.5672	10036.05	9151.95
933.5798	2024.1433	9998	9107.4
933.7171	2025.7188	9950.25	9068.75
933.8544	2027.2935	9924.35	9041.55
933.9917	2028.8674	9886.05	9002.2
934.129	2030.4406	9880.05	8997.2
934.2662	2032.0131	9826.8	8944.65
934.4034	2033.5849	9801.8	8916.5
934.5406	2035.1559	9792.45	8910.85
934.6778	2036.7261	9784.1	8899.35
934.8149	2038.2957	9744.65	8860.45
934.952	2039.8645	9731.3	8848.2
935.0891	2041.4325	9727.1	8839.1
935.2262	2042.9998	9671.65	8788.15
935.3632	2044.5664	9680.7	8793.7
935.5002	2046.1323	9630.1	8747
935.6372	2047.6974	9580.45	8698.2
935.7742	2049.2617	9563.15	8678.8
935.9111	2050.8254	9579.95	8672.7
936.048	2052.3883	9523.1	8639.7
936.1849	2053.9504	9502.6	8619.2
936.3218	2055.5118	9492.75	8607.5
936.4586	2057.0725	9447.35	8561.15
936.5955	2058.6325	9409.3	8524.2
936.7323	2060.1917	9387.3	8504.95
936.869	2061.7502	9370.2	8485.05
937.0058	2063.3079	9334.2	8451.5
937.1425	2064.8649	9297.5	8412.6
937.2792	2066.4212	9297.95	8413.75
937.4159	2067.9767	9275.1	8390.7
937.5525	2069.5315	9240.9	8357.25
937.6891	2071.0856	9190	8308.25
937.8257	2072.6389	9169.35	8284.15
937.9623	2074.1915	9118.95	8237.75
938.0989	2075.7433	9070.9	8186.5
938.2354	2077.2945	9067.85	8183.9
938.3719	2078.8448	9014.8	8130.6
938.5084	2080.3945	9008.05	8123.65
938.6448	2081.9434	8983.8	8099.65
938.7812	2083.4916	8963.25	8074.5
938.9176	2085.039	8925.85	8036.3
939.054	2086.5857	8926.4	8035.7
939.1903	2088.1317	8917.45	8029
939.3267	2089.677	8894.65	8004.95
939.463	2091.2215	8848.35	7959.85
939.5992	2092.7652	8839.4	7948.35
939.7355	2094.3083	8823.8	7933.65
939.8717	2095.8506	8805.55	7918.35
940.0079	2097.3921	8800.4	7911.75
940.1441	2098.933	8761.15	7876.15
940.2802	2100.4731	8771.25	7886.4
940.4163	2102.0124	8744.45	7851.5
940.5524	2103.5511	8727.15	7838.55
940.6885	2105.089	8695.2	7807.75
940.8245	2106.6261	8687.55	7801.35
940.9606	2108.1626	8654.9	7769.3
941.0965	2109.6983	8658.5	7744.25
941.2325	2111.2332	8618.2	7730.8
941.3684	2112.7675	8576.4	7688.05
941.5044	2114.301	8574.3	7686.85
941.6403	2115.8337	8563.35	7674.7
941.7761	2117.3657	8514.95	7628.6
941.912	2118.897	8504.2	7616.25
942.0478	2120.4276	8498.8	7606.9
942.1835	2121.9575	8461.85	7574.3
942.3193	2123.4866	8450.6	7559.8
942.455	2125.0149	8414.4	7524.35
942.5907	2126.5426	8378.95	7493.25
942.7264	2128.0695	8346.15	7460.8
942.8621	2129.5956	8340.75	7459.7
942.9977	2131.1211	8324.1	7436.15
943.1333	2132.6458	8314.65	7429.9
943.2689	2134.1698	8284.15	7395.65
943.4044	2135.693	8259.8	7370.15
943.54	2137.2155	8227.05	7337.65
943.6755	2138.7373	8236.55	7349.05
943.8109	2140.2584	8210.35	7324.7
943.9464	2141.7787	8201.6	7312.8
944.0818	2143.2983	8158.85	7277.5
944.2172	2144.8171	8102.25	7220.8
944.3526	2146.3353	8081.2	7194.1
944.4879	2147.8527	8062.55	7178.05
944.6232	2149.3693	8067.05	7181.4
944.7585	2150.8853	8049.05	7161.25
944.8938	2152.4005	8016.3	7128.5
945.029	2153.9149	7980.1	7092.15
945.1642	2155.4287	8024.5	7038.45
945.2994	2156.9417	7960.35	7073.2
945.4346	2158.454	7919	7031.45
945.5697	2159.9655	7900.45	7016.4
945.7048	2161.4764	7900.6	7015.6
945.8399	2162.9865	7880.25	6993.25
945.9749	2164.4958	7845.65	6961.05
946.1099	2166.0045	7809.45	6923.75
946.2449	2167.5124	7807.4	6922.45
946.3799	2169.0195	7795.95	6909.35
946.5148	2170.526	7801.8	6913.8
946.6498	2172.0317	7751.7	6864.45
946.7846	2173.5367	7725.55	6838.8
946.9195	2175.0409	7714.8	6828.6
947.0543	2176.5445	7715.85	6830.95
947.1891	2178.0473	7680.9	6792.95
947.3239	2179.5494	7663.05	6773.75
947.4587	2181.0507	7623.45	6736.9
947.5934	2182.5513	7590.4	6704.25
947.7281	2184.0512	7584.4	6697.05
947.8628	2185.5504	7581.35	6696.25
947.9974	2187.0488	7526.35	6641.25
948.132	2188.5465	7507.15	6623.55
948.2666	2190.0435	7466.7	6579.8
948.4012	2191.5397	7457.2	6573.05
948.5357	2193.0353	7429.75	6544.1
948.6702	2194.5301	7407.3	6518.15
948.8047	2196.0241	7390.35	6502.2
948.9392	2197.5175	7366.4	6477.8
949.0736	2199.0101	7348.15	6454.5
949.208	2200.502	7315.85	6429.25
949.3424	2201.9931	7276.35	6392.55
949.4767	2203.4835	7267.65	6381.3
949.611	2204.9733	7255.25	6354
949.7453	2206.4622	7217.25	6334.05
949.8796	2207.9505	7216.4	6330.15
950.0138	2209.438	7183.05	6298.3
950.148	2210.9248	7151.6	6266.35
950.2822	2212.4109	7130.7	6247.15
950.4164	2213.8962	7094.65	6204.4
950.5505	2215.3809	7099.05	6208.1
950.6846	2216.8648	7081.75	6191.95
950.8186	2218.3479	7053.65	6161.55
950.9527	2219.8304	7032.4	6140.35
951.0867	2221.3121	7024.55	6132.35
951.2207	2222.7931	6986.5	6097.05
951.3546	2224.2733	6955.45	6067.75
951.4886	2225.7529	6920.3	6033.65
951.6225	2227.2317	6907.1	6017.8
951.7563	2228.7098	6917.1	6033
951.8902	2230.1872	6895.5	6012.6
952.024	2231.6638	6880.65	5996.65
952.1578	2233.1397	6838.75	5950.95
952.2916	2234.6149	6823.05	5936.8
952.4253	2236.0894	6806.05	5921.15
952.559	2237.5632	6787.3	5902.2
952.6927	2239.0362	6749.1	5865.4
952.8263	2240.5085	6746.95	5862.4
952.9599	2241.9801	6720.8	5834.1
953.0935	2243.4509	6704.35	5818.25
953.2271	2244.921	6665.45	5777.1
953.3606	2246.3904	6633	5743.9
953.4941	2247.8591	6633.35	5746.4
953.6276	2249.3271	6625	5737.9
953.7611	2250.7943	6572.85	5680.95
953.8945	2252.2608	6566.4	5677.4
954.0279	2253.7266	6560	5673.9
954.1612	2255.1917	6544.35	5657.7
954.2946	2256.656	6524.45	5637.05
954.4279	2258.1197	6502.85	5618.6
954.5612	2259.5826	6493.45	5606.5
954.6944	2261.0447	6476.2	5590.8
954.8276	2262.5062	6468.15	5578.6
954.9608	2263.9669	6448.9	5557.9
955.094	2265.4269	6426.8	5539.6
955.2271	2266.8862	6407.95	5521.5
955.3602	2268.3448	6392.45	5507.35
955.4933	2269.8026	6374.75	5490.05
955.6264	2271.2598	6362.25	5476.9
955.7594	2272.7162	6344	5457.7
955.8924	2274.1719	6332.1	5444.85
956.0253	2275.6268	6302.1	5412.55
956.1583	2277.0811	6308.05	5421.5
956.2912	2278.5346	6270.4	5385.9
956.4241	2279.9874	6258.3	5372.15
956.5569	2281.4395	6243.15	5359.4
956.6897	2282.8908	6229	5337.35
956.8225	2284.3414	6228.9	5338.95
956.9553	2285.7914	6206.8	5322.85
957.088	2287.2406	6179.3	5291.1
957.2207	2288.689	6185.6	5296.2
957.3534	2290.1368	6181.4	5288.45
957.486	2291.5838	6157.35	5264.15
957.6186	2293.0302	6131.45	5242.6
957.7512	2294.4758	6102.6	5212.05
957.8838	2295.9206	6070.35	5180.35
958.0163	2297.3648	6058.7	5172.45
958.1488	2298.8082	6043.35	5153.95
958.2813	2300.251	6018.75	5130.5
958.4137	2301.693	6016.1	5125.1
958.5461	2303.1343	6003.1	5114.75
958.6785	2304.5748	5992.35	5105.4
958.8108	2306.0147	5968.55	5083.6
958.9432	2307.4538	5953.8	5066.7
959.0754	2308.8922	5937.55	5055.2
959.2077	2310.3299	5918.65	5033.7
959.3399	2311.7669	5891.95	5007.15
959.4721	2313.2031	5892.2	5006.65
959.6043	2314.6387	5872.6	4987.8
959.7365	2316.0735	5862.15	4974.55
959.8686	2317.5076	5842	4955.4
960.0006	2318.941	5831.85	4944.15
960.1327	2320.3737	5808.4	4916.95
960.2647	2321.8056	5814.5	4924.4
960.3967	2323.2369	5783.25	4895.05
960.5287	2324.6674	5757.2	4868.65
960.6606	2326.0972	5754	4866.05
960.7925	2327.5263	5736.2	4848.45
960.9244	2328.9547	5713.15	4824.55
961.0562	2330.3823	5701	4813.15
961.1881	2331.8092	5688.3	4794.65
961.3198	2333.2355	5662.55	4773.1
961.4516	2334.661	5663.6	4775.35
961.5833	2336.0858	5651.5	4758.95
961.715	2337.5098	5616.05	4727.75
961.8467	2338.9332	5626.2	4738
961.9783	2340.3558	5592.65	4703.1
962.1099	2341.7778	5580.45	4692.7
962.2415	2343.199	5580.25	4692.2
962.373	2344.6195	5544.1	4657.85
962.5045	2346.0393	5537.45	4650.1
962.636	2347.4583	5538.4	4650.4
962.7675	2348.8767	5524.7	4635
962.8989	2350.2943	5505.65	4616.05
963.0303	2351.7113	5519.45	4627.85
963.1617	2353.1275	5507.05	4616.8
963.293	2354.543	5464.45	4549.35
963.4243	2355.9578	5459.45	4571.85
963.5556	2357.3718	5416.25	4531.75
963.6868	2358.7852	5400.2	4511.75
963.818	2360.1978	5386.05	4497.7
963.9492	2361.6098	5371.6	4486.3
964.0803	2363.021	5374.8	4482.45
964.2114	2364.4315	5349.9	4461.5
964.3425	2365.8413	5341.25	4452.95
964.4736	2367.2504	5312.95	4425.65
964.6046	2368.6587	5288.6	4400.15
964.7356	2370.0664	5256.4	4371.6
964.8666	2371.4733	5260.3	4373.25
964.9975	2372.8795	5246.5	4357.15
965.1284	2374.285	5228.35	4340.15
965.2593	2375.6899	5201.65	4315.45
965.3901	2377.0939	5177.55	4290.3
965.5209	2378.4973	5155.3	4269.2
965.6517	2379.9	5147.5	4259.45
965.7825	2381.3019	5129.1	4243.95
965.9132	2382.7032	5132.45	4245
966.0439	2384.1037	5120.8	4237.85
966.1745	2385.5035	5088.6	4203.9
966.3051	2386.9027	5086.1	4203.4
966.4357	2388.3011	5060.85	4171.1
966.5663	2389.6987	5051	4165
966.6968	2391.0957	5035	4148.75
966.8273	2392.492	5029.8	4144
966.9578	2393.8876	5009.85	4123.95
967.0882	2395.2824	5004.95	4116.9
967.2186	2396.6765	4975.05	4089.1
967.349	2398.07	4956.25	4067.95
967.4793	2399.4627	4946.75	4056.75
967.6097	2400.8547	4945.55	4055.15
967.7399	2402.246	4923.1	4030.75
967.8702	2403.6366	4884.65	3997.05
968.0004	2405.0265	4886.35	3999.8
968.1306	2406.4156	4867.3	3975.65
968.2607	2407.8041	4842.2	3950.75
968.3909	2409.1918	4835.45	3943.4
968.521	2410.5789	4827.3	3937.85
968.651	2411.9652	4804.75	3912.55
968.781	2413.3508	4798.9	3909.9
968.911	2414.7358	4760.3	3872.75
969.041	2416.12	4752.05	3866.6
969.1709	2417.5035	4751.75	3864.65
969.3008	2418.8863	4724.9	3835.05
969.4307	2420.2684	4717.75	3827.7
969.5606	2421.6497	4690.95	3803.05
969.6904	2423.0304	4678.5	3791.3
969.8201	2424.4104	4668.7	3778.8
969.9499	2425.7896	4663.5	3773.7
970.0796	2427.1682	4642.55	3755.75
970.2093	2428.546	4621	3734.1
970.3389	2429.9232	4614.15	3722.75
970.4685	2431.2996	4604	3715.25
970.5981	2432.6753	4598.5	3711.2
970.7277	2434.0503	4598.6	3711.5
970.8572	2435.4246	4582.65	3693.5
970.9867	2436.7982	4564.3	3672.3
971.1161	2438.1711	4547.6	3659
971.2456	2439.5433	4535.55	3644.6
971.375	2440.9148	4528.15	3635.15
971.5043	2442.2856	4501.35	3614.5
971.6336	2443.6557	4489.75	3598.65
971.7629	2445.025	4454.6	3564.95
971.8922	2446.3937	4468	3577.45
972.0214	2447.7617	4447.05	3557.1
972.1506	2449.1289	4446.45	3558.65
972.2798	2450.4955	4438.65	3548.5
972.4089	2451.8613	4429.15	3542.95
972.538	2453.2265	4401.9	3513.85
972.6671	2454.5909	4387.45	3499.15
972.7961	2455.9546	4392.25	3503.6
972.9251	2457.3177	4367.3	3480.4
973.0541	2458.68	4373.55	3483.35
973.1831	2460.0416	4362.85	3474.15
973.312	2461.4025	4349.15	3459.3
973.4408	2462.7627	4334.25	3436.9
973.5697	2464.1222	4332.35	3447.45
973.6985	2465.4811	4323.4	3434.6
973.8273	2466.8392	4293.05	3407.15
973.956	2468.1966	4298.1	3409.35
974.0847	2469.5533	4298.85	3407.65
974.2134	2470.9093	4278.8	3390.05
974.3421	2472.2645	4278.15	3389.3
974.4707	2473.6191	4260.1	3373.4
974.5993	2474.973	4244.8	3358.6
974.7278	2476.3262	4231.5	3342.25
974.8563	2477.6787	4205.95	3318.65
974.9848	2479.0305	4182.6	3295.3
975.1132	2480.3816	4186.75	3296.2
975.2417	2481.7319	4178.5	3292.3
975.37	2483.0816	4163.2	3275.7
975.4984	2484.4306	4169.15	3279.45
975.6267	2485.7789	4126.4	3241.85
975.755	2487.1264	4115.95	3227.75
975.8833	2488.4733	4119.05	3233.4
976.0115	2489.8195	4114.6	3211.4
976.1397	2491.165	4082.15	3191.2
976.2678	2492.5097	4068.5	3181.05
976.3959	2493.8538	4051	3166.75
976.524	2495.1972	4037	3147.8
976.6521	2496.5398	4025.25	3137.65
976.7801	2497.8818	4032.7	3143.35
976.9081	2499.2231	4015.2	3125.65
977.036	2500.5637	3997.55	3106.95
977.164	2501.9035	3995.35	3105.8
977.2918	2503.2427	3979.05	3085.05
977.4197	2504.5812	3968.5	3082.55
977.5475	2505.919	3967.7	3079.25
977.6753	2507.256	3960.8	3071.75
977.8031	2508.5924	3936.75	3049
977.9308	2509.9281	3930.35	3036.8
978.0585	2511.2631	3919.9	3033.15
978.1861	2512.5974	3910.55	3023.95
978.3137	2513.9309	3907.7	3020.55
978.4413	2515.2638	3896.15	2984.2
978.5689	2516.596	3862.95	2975.9
978.6964	2517.9275	3855.75	2965.9
978.8239	2519.2583	3851.3	2962.4
978.9513	2520.5884	3843.35	2954.55
979.0788	2521.9178	3830.55	2943.85
979.2062	2523.2465	3820.75	2937.6
979.3335	2524.5745	3785.65	2897.3
979.4608	2525.9018	3793.75	2905.9
979.5881	2527.2284	3774.3	2887.1
979.7154	2528.5543	3772.55	2885.3
979.8426	2529.8796	3758.95	2871.75
979.9698	2531.2041	3766.9	2878.7
980.0969	2532.5279	3757	2872.7
980.224	2533.851	3748.85	2860.9
980.3511	2535.1735	3729.75	2843.25
980.4781	2536.4952	3723.75	2834.2
980.6052	2537.8163	3715.75	2827.95
980.7321	2539.1366	3701.1	2812.2
980.8591	2540.4562	3687.5	2798.3
980.986	2541.7752	3693.7	2805.1
981.1129	2543.0935	3689.4	2800.5
981.2397	2544.411	3673.05	2782.6
981.3665	2545.7279	3685.9	2796.7
981.4933	2547.0441	3675	2787.7
981.62	2548.3596	3671.25	2780.4
981.7467	2549.6744	3655.95	2766.8
981.8734	2550.9885	3646.75	2757.05
982.0001	2552.3019	3633.05	2743.2
982.1267	2553.6146	3634.3	2745.35
982.2532	2554.9266	3635.65	2747.45
982.3798	2556.2379	3614.1	2726.35
982.5063	2557.5485	3608.8	2721.7
982.6327	2558.8585	3606	2709.85
982.7592	2560.1677	3610.55	2718.65
982.8856	2561.4762	3603.95	2715.75
983.0119	2562.7841	3597.95	2706.1
983.1383	2564.0913	3575.5	2687.45
983.2646	2565.3977	3575	2687.6
983.3908	2566.7035	3555.05	2666.75
983.517	2568.0086	3554.35	2663.15
983.6432	2569.313	3555.2	2664.45
983.7694	2570.6167	3548.3	2657.75
983.8955	2571.9197	3518.5	2631.3
984.0216	2573.222	3537.3	2646.1
984.1476	2574.5236	3509.45	2618.75
984.2737	2575.8246	3523	2633.1
984.3996	2577.1248	3509.9	2618.2
984.5256	2578.4244	3491.5	2604
984.6515	2579.7232	3501.25	2611.35
984.7774	2581.0214	3506.5	2587.25
984.9032	2582.3189	3494.25	2605.55
985.029	2583.6157	3491.8	2598.2
985.1548	2584.9118	3482.1	2594.95
985.2806	2586.2072	3471.75	2583.05
985.4063	2587.5019	3453.4	2564.9
985.5319	2588.7959	3452.15	2563.1
985.6576	2590.0893	3453.9	2564.85
985.7832	2591.3819	3449.8	2563.1
985.9087	2592.6739	3411.75	2524.3
986.0343	2593.9652	3418.05	2528.95
986.1597	2595.2557	3421.35	2534.7
986.2852	2596.5456	3420.3	2529.1
986.4106	2597.8348	3409.15	2522.05
986.536	2599.1234	3388.7	2501.5
986.6614	2600.4112	3370.15	2481.4
986.7867	2601.6983	3375.95	2485.6
986.912	2602.9848	3375.15	2487.45
987.0372	2604.2705	3359.75	2465.65
987.1624	2605.5556	3354.55	2467.45
987.2876	2606.84	3340.05	2452.6
987.4128	2608.1237	3326.8	2439.65
987.5379	2609.4067	3325.75	2436.35
987.6629	2610.689	3309.45	2412.45
987.788	2611.9707	3303.25	2411.2
987.913	2613.2516	3289.8	2396.15
988.0379	2614.5319	3287.8	2400.35
988.1629	2615.8115	3273.6	2385.85
988.2878	2617.0903	3253.75	2365.15
988.4126	2618.3685	3239.7	2350.5
988.5375	2619.6461	3242.65	2354.25
988.6622	2620.9229	3233.6	2346.9
988.787	2622.199	3251.15	2360.4
988.9117	2623.4745	3202.2	2312.2
989.0364	2624.7493	3206.3	2317.35
989.161	2626.0234	3180.65	2293.45
989.2857	2627.2968	3198.55	2312.25
989.4102	2628.5695	3189.1	2301.65
989.5348	2629.8415	3162.8	2275.35
989.6593	2631.1128	3157.8	2267.25
989.7837	2632.3835	3141.2	2253.3
989.9082	2633.6535	3136.75	2248.75
990.0326	2634.9228	3127.75	2239.55
990.1569	2636.1914	3121.75	2235.3
990.2812	2637.4593	3124.1	2236.35
990.4055	2638.7265	3120	2232.05
990.5298	2639.9931	3118.6	2232.75
990.654	2641.259	3103.85	2213.65
990.7782	2642.5242	3098.05	2210.2
990.9023	2643.7887	3088.55	2200.6
991.0264	2645.0525	3082.55	2195.75
991.1505	2646.3156	3075.3	2173.1
991.2745	2647.5781	3059.05	2171.85
991.3985	2648.8398	3047	2160.8
991.5225	2650.1009	3072.7	2160.55
991.6464	2651.3613	3038.65	2151.1
991.7703	2652.6211	3036.6	2149.05
991.8942	2653.8801	3018.85	2131.8
992.018	2655.1385	3017.55	2127.4
992.1418	2656.3961	3028.15	2140.2
992.2655	2657.6531	2995.6	2107.85
992.3892	2658.9094	3004.9	2119.35
992.5129	2660.1651	2997.35	2111.25
992.6366	2661.42	2996.95	2108.55
992.7602	2662.6743	3003.55	2114.35
992.8837	2663.9279	2987.15	2099.4
993.0073	2665.1808	2982.3	2094
993.1307	2666.433	2973.6	2085.9
993.2542	2667.6846	2965.8	2077.4
993.3776	2668.9354	2975.6	2085.2
993.501	2670.1856	2957.9	2070.4
993.6244	2671.4351	2962.05	2075.7
993.7477	2672.6839	2967.4	2080.05
993.8709	2673.9321	2959.2	2071.55
993.9942	2675.1795	2943.2	2054.7
994.1174	2676.4263	2932.5	2045.55
994.2405	2677.6724	2928.25	2041.5
994.3637	2678.9179	2934	2046.2
994.4868	2680.1626	2925.3	2037.25
994.6098	2681.4067	2922.35	2036.3
994.7328	2682.6501	2905.05	2016.75
994.8558	2683.8928	2906.4	2021.15
994.9788	2685.1348	2896.3	2009.6
995.1017	2686.3761	2876.85	1991.6
995.2245	2687.6168	2882.2	1996.7
995.3474	2688.8568	2860.4	1974.65
995.4702	2690.0961	2856.2	1970.9
995.5929	2691.3348	2852.9	1963.4
995.7156	2692.5727	2851.1	1962.3
995.8383	2693.81	2842.3	1955.9
995.961	2695.0466	2823.5	1939.2
996.0836	2696.2826	2827.2	1939.1
996.2062	2697.5178	2823.5	1935.45
996.3287	2698.7524	2799.1	1912
996.4512	2699.9863	2812.35	1924.3
996.5737	2701.2195	2792.4	1903.65
996.6961	2702.452	2806.1	1918.85
996.8185	2703.6839	2794.6	1904.15
996.9408	2704.9151	2799.8	1912.55
997.0631	2706.1456	2793.6	1906.85
997.1854	2707.3755	2792.15	1905.35
997.3077	2708.6046	2792.5	1903.45
997.4299	2709.8331	2789	1901.45
997.552	2711.0609	2787.6	1898.05
997.6742	2712.2881	2779.9	1895.2
997.7963	2713.5145	2789.2	1901.8
997.9183	2714.7403	2799.05	1912.8
998.0403	2715.9654	2788.9	1902.8
998.1623	2717.1899	2796.25	1895.7
998.2842	2718.4136	2800.1	1914.35
998.4062	2719.6367	2796.65	1910.75
998.528	2720.8591	2794.35	1900.95
998.6498	2722.0809	2788.85	1902.75
998.7716	2723.3019	2808.35	1919.4
998.8934	2724.5223	2799.05	1910.65
999.0151	2725.7421	2802.4	1913.55
999.1368	2726.9611	2784.5	1897.1
999.2584	2728.1795	2780.2	1889.4
999.38	2729.3972	2768.2	1884.35
999.5016	2730.6142	2764.1	1868.15
999.6231	2731.8306	2739.1	1850.65
999.7446	2733.0462	2716.15	1827.35
999.8661	2734.2612	2720.25	1828.45
999.9875	2735.4756	2692.65	1806.4
1000.1089	2736.6892	2674.95	1788.55
1000.2302	2737.9022	2664.5	1779.5
1000.3515	2739.1145	2633.65	1748.85
1000.4728	2740.3262	2632.35	1739.25
1000.594	2741.5372	2621.15	1734.55
1000.7152	2742.7475	2593.35	1707
1000.8363	2743.9571	2590.1	1702.65
1000.9575	2745.1661	2580.7	1688.6
1001.0785	2746.3744	2564.15	1677.35
1001.1996	2747.582	2556.45	1671.55
1001.3206	2748.7889	2542.6	1656
1001.4415	2749.9952	2536.15	1649.85
1001.5625	2751.2008	2529	1641.6
1001.6833	2752.4057	2516.85	1629
1001.8042	2753.61	2510.55	1622.8
1001.925	2754.8136	2494.3	1604.4
1002.0458	2756.0165	2492.2	1607.1
1002.1665	2757.2188	2492.15	1607
1002.2872	2758.4204	2483.2	1597.35
1002.4078	2759.6213	2467.95	1579.85
1002.5285	2760.8215	2472.25	1581.95
1002.649	2762.0211	2465.7	1576.55
1002.7696	2763.22	2462.05	1573.85
1002.8901	2764.4182	2460.95	1575.1
1003.0106	2765.6158	2452.85	1566.05
1003.131	2766.8127	2446.05	1558.45
1003.2514	2768.009	2442.7	1557.35
1003.3717	2769.2045	2435.35	1548.5
1003.492	2770.3994	2436	1547.7
1003.6123	2771.5936	2425.4	1539.25
1003.7325	2772.7872	2414.3	1530.45
1003.8527	2773.9801	2408.2	1522.5
1003.9729	2775.1723	2404.95	1504.75
1004.093	2776.3639	2389.45	1502.9
1004.2131	2777.5548	2388.1	1499.6
1004.3331	2778.745	2379.6	1492.15
1004.4531	2779.9346	2369.4	1484.2
1004.5731	2781.1235	2377.35	1490.85
1004.693	2782.3117	2369.45	1485.45
1004.8129	2783.4992	2365.8	1481.8
1004.9328	2784.6861	2365.55	1480.3
1005.0526	2785.8723	2356.05	1469.45
1005.1723	2787.0579	2368.2	1480.85
1005.2921	2788.2428	2364.05	1478.35
1005.4118	2789.427	2357.75	1472.45
1005.5314	2790.6106	2357.15	1471.75
1005.651	2791.7935	2358.1	1473.65
1005.7706	2792.9757	2375.6	1490.75
1005.8902	2794.1573	2379.75	1493.1
1006.0097	2795.3382	2364.75	1480.65
1006.1291	2796.5184	2366.25	1481.85
1006.2485	2797.698	2372.95	1487.85
1006.3679	2798.8769	2376.85	1493.25
1006.4873	2800.0551	2379.6	1494.3
1006.6066	2801.2327	2399.25	1511
1006.7258	2802.4096	2405.45	1521.3
1006.8451	2803.5859	2413.1	1524.8
1006.9642	2804.7615	2409	1521.45
1007.0834	2805.9364	2422.95	1536.65
1007.2025	2807.1106	2440	1555.95
1007.3216	2808.2842	2459.4	1572.75
1007.4406	2809.4572	2477.9	1593.9
1007.5596	2810.6294	2497.85	1610.1
1007.6785	2811.801	2521.25	1637.35
1007.7975	2812.972	2542.2	1658.9
1007.9163	2814.1423	2570.8	1687.35
1008.0352	2815.3119	2613.9	1728.7
1008.154	2816.4808	2649	1765
1008.2727	2817.6491	2667.05	1780.05
1008.3914	2818.8167	2704.25	1822.75
1008.5101	2819.9837	2759.65	1872
1008.6288	2821.15	2792.1	1908.55
1008.7474	2822.3157	2817.7	1934.85
1008.8659	2823.4807	2860.8	1976
1008.9844	2824.645	2893.3	2006.85
1009.1029	2825.8086	2933.7	2050.35
1009.2214	2826.9716	2980.9	2096.55
1009.3398	2828.134	3011.75	2129.15
1009.4581	2829.2957	3041.25	2155.9
1009.5764	2830.4567	3067.65	2184
1009.6947	2831.617	3093.5	2208.3
1009.813	2832.7767	3095.7	2211.7
1009.9312	2833.9358	3091.6	2207.7
1010.0493	2835.0941	3086.45	2200.05
1010.1675	2836.2519	3066.4	2183.35
1010.2855	2837.4089	3057.65	2171.6
1010.4036	2838.5653	3038.8	2155.3
1010.5216	2839.7211	3036.2	2154.25
1010.6396	2840.8761	3023.35	2137.4
1010.7575	2842.0306	3036.65	2155.35
1010.8754	2843.1843	3044.65	2161.3
1010.9932	2844.3374	3062.1	2176.5
1011.111	2845.4899	3115.95	2230.1
1011.2288	2846.6417	3147.45	2263.8
1011.3465	2847.7928	3199.4	2316.9
1011.4642	2848.9433	3238.4	2355.75
1011.5818	2850.0931	3296.1	2411.8
1011.6995	2851.2422	3329.5	2445.45
1011.817	2852.3907	3396.8	2511.4
1011.9345	2853.5385	3423.85	2537.05
1012.052	2854.6857	3474.2	2580.8
1012.1695	2855.8323	3509.45	2624.4
1012.2869	2856.9781	3530.25	2647.4
1012.4042	2858.1233	3577.8	2693.45
1012.5216	2859.2679	3612.9	2729.25
1012.6389	2860.4118	3645.8	2761.7
1012.7561	2861.555	3674.1	2786.2
1012.8733	2862.6976	3699.1	2814.6
1012.9905	2863.8395	3733.15	2848.6
1013.1076	2864.9808	3738.35	2853.45
1013.2247	2866.1214	3748.25	2867.7
1013.3417	2867.2614	3768.25	2884.2
1013.4587	2868.4007	3790.65	2906.5
1013.5757	2869.5393	3783.05	2896.45
1013.6926	2870.6773	3802.7	2914.15
1013.8095	2871.8146	3802.45	2914.95
1013.9263	2872.9513	3803.3	2916.6
1014.0431	2874.0874	3791.65	2908.25
1014.1599	2875.2227	3800.25	2916.15
1014.2766	2876.3574	3760.8	2875.5
1014.3933	2877.4915	3740.05	2858.25
1014.51	2878.6249	3714.05	2829.45
1014.6266	2879.7577	3685.15	2798.95
1014.7431	2880.8898	3672.5	2776.1
1014.8596	2882.0212	3655.85	2771.55
1014.9761	2883.152	3647.2	2764.15
1015.0925	2884.2821	3625.3	2742.8
1015.2089	2885.4116	3614.5	2732.25
1015.3253	2886.5405	3616.35	2733.1
1015.4416	2887.6686	3614.55	2726.75
1015.5579	2888.7962	3612.3	2730.9
1015.6741	2889.923	3615	2733.55
1015.7903	2891.0493	3628.05	2744.9
1015.9065	2892.1748	3625.15	2742.1
1016.0226	2893.2997	3625.2	2740.3
1016.1387	2894.424	3633.5	2751.05
1016.2547	2895.5476	3652.75	2766.75
1016.3707	2896.6706	3663	2782.15
1016.4866	2897.7929	3676.75	2792.8
1016.6025	2898.9145	3692.95	2810.6
1016.7184	2900.0355	3719.7	2837.25
1016.8342	2901.1559	3735.55	2850.75
1016.95	2902.2756	3770.95	2886.8
1017.0658	2903.3946	3772.65	2890.1
1017.1815	2904.513	3802.2	2916.4
1017.2971	2905.6308	3812.1	2927.15
1017.4127	2906.7479	3819.25	2934.5
1017.5283	2907.8643	3834.85	2950.25
1017.6439	2908.9801	3848.5	2965.8
1017.7594	2910.0953	3852.1	2968.7
1017.8748	2911.2098	3848.3	2963
1017.9902	2912.3236	3836.05	2945.35
1018.1056	2913.4368	3809.3	2924.65
1018.2209	2914.5494	3801.35	2916.85
1018.3362	2915.6613	3779.45	2890.9
1018.4515	2916.7725	3767.7	2882
1018.5667	2917.8831	3745.25	2859.4
1018.6819	2918.9931	3705.25	2819.95
1018.797	2920.1024	3683.2	2799.2
1018.9121	2921.211	3660.8	2777.8
1019.0271	2922.319	3652.8	2770.1
1019.1421	2923.4264	3624.3	2741.7
1019.2571	2924.5331	3618.8	2737.5
1019.372	2925.6391	3615.55	2733.75
1019.4869	2926.7445	3622	2739.9
1019.6017	2927.8493	3600.05	2717
1019.7165	2928.9534	3602	2719.15
1019.8313	2930.0569	3598.05	2713.25
1019.946	2931.1597	3594.3	2710.95
1020.0606	2932.2619	3596.15	2712
1020.1753	2933.3634	3595.55	2711.5
1020.2899	2934.4643	3595.85	2706.05
1020.4044	2935.5645	3586.75	2699.1
1020.5189	2936.6641	3563.9	2676.65
1020.6334	2937.763	3522.5	2641.45
1020.7478	2938.8613	3504.05	2621.3
1020.8622	2939.959	3455.8	2566.6
1020.9765	2941.056	3401.95	2520.15
1021.0908	2942.1523	3339.05	2456.15
1021.2051	2943.248	3280.45	2398.25
1021.3193	2944.3431	3204.85	2323.7
1021.4334	2945.4375	3134.05	2248.65
1021.5476	2946.5313	3042.7	2162
1021.6617	2947.6244	2965.05	2082.7
1021.7757	2948.7169	2874.55	1991.2
1021.8897	2949.8087	2810.85	1928.15
1022.0037	2950.8999	2725.55	1841
1022.1176	2951.9904	2668.45	1786.4
1022.2315	2953.0803	2609.8	1727.6
1022.3453	2954.1696	2561	1677.65
1022.4591	2955.2582	2521.4	1637.55
1022.5728	2956.3462	2477.1	1595.7
1022.6865	2957.4335	2441.15	1557.8
1022.8002	2958.5202	2421.65	1538.2
1022.9138	2959.6062	2392.65	1510.85
1023.0274	2960.6916	2359.95	1476.55
1023.141	2961.7764	2350.95	1468
1023.2545	2962.8605	2331.95	1448.3
1023.3679	2963.9439	2309.95	1428.5
1023.4813	2965.0267	2301.65	1417.95
1023.5947	2966.1089	2323.35	1415.95
1023.708	2967.1905	2294.2	1412.4
1023.8213	2968.2714	2275.9	1393.8
1023.9346	2969.3516	2281.45	1399.85
1024.0478	2970.4312	2288.95	1400.45
1024.1609	2971.5102	2277.3	1395.65
1024.274	2972.5885	2284.2	1401.5
1024.3871	2973.6662	2297.85	1410.2
1024.5002	2974.7432	2262.9	1380.6
1024.6132	2975.8196	2268.7	1385.7
1024.7261	2976.8954	2253.75	1370.9
1024.839	2977.9705	2256.25	1373.4
1024.9519	2979.045	2241.65	1359.05
1025.0647	2980.1188	2237.05	1354.9
1025.1775	2981.192	2231.85	1350.65
1025.2902	2982.2645	2197.3	1315.8
1025.4029	2983.3364	2180.9	1300.05
1025.5156	2984.4077	2155.95	1274.1
1025.6282	2985.4783	2144.25	1257.95
1025.7407	2986.5483	2099.3	1218.45
1025.8532	2987.6177	2079.6	1197.15
1025.9657	2988.6864	2046.75	1163.15
1026.0782	2989.7545	2022.75	1137.85
1026.1906	2990.8219	1997	1114.35
1026.3029	2991.8887	1969.55	1083.5
1026.4152	2992.9548	1945.95	1063.65
1026.5275	2994.0204	1914.5	1032.65
1026.6397	2995.0852	1877.8	996.55
1026.7519	2996.1495	1872.4	988.35
1026.864	2997.2131	1847.05	964.4
1026.9761	2998.276	1819.65	934.75
1027.0882	2999.3383	1802.6	920.05
1027.2002	3000.4	1778.55	896.55
1027.3122	3001.4611	1770.2	886.6
1027.4241	3002.5215	1755.75	873.65
1027.536	3003.5812	1745.9	863.85
1027.6478	3004.6404	1725.4	845.5
1027.7596	3005.6989	1719.5	834.75
1027.8714	3006.7567	1708.05	826.45
1027.9831	3007.8139	1713.3	816.7
1028.0947	3008.8705	1684.45	801.15
1028.2064	3009.9264	1690.95	794.65
1028.3179	3010.9818	1671.7	790.25
1028.4295	3012.0364	1665.8	781.8
1028.541	3013.0905	1661.15	780.05
1028.6524	3014.1439	1657.95	775.6
1028.7638	3015.1966	1649.2	768.3
1028.8752	3016.2487	1650.35	765.55
1028.9865	3017.3002	1635.05	749.35
1029.0978	3018.3511	1638.35	757.6
1029.209	3019.4013	1640.5	757.75
1029.3202	3020.4509	1625.3	744.2
1029.4314	3021.4998	1626.25	743.1
1029.5425	3022.5481	1627.25	745.3
1029.6535	3023.5958	1624.65	744.6
1029.7645	3024.6428	1619.5	734.8
1029.8755	3025.6892	1618.7	739
1029.9864	3026.735	1619.2	736.5
1030.0973	3027.7802	1619.15	735.65
1030.2082	3028.8247	1605.4	724.1
1030.319	3029.8685	1617.8	734.35
1030.4297	3030.9118	1615.05	733.05
1030.5404	3031.9544	1613.2	730.8
1030.6511	3032.9963	1619.1	737.65
1030.7617	3034.0376	1613.7	734
1030.8723	3035.0783	1612	726.45
1030.9829	3036.1184	1614.9	734.95
1031.0934	3037.1578	1610.6	729.85
1031.2038	3038.1966	1619.75	736.95
1031.3142	3039.2348	1606.45	726.15
1031.4246	3040.2723	1621.45	732.35
1031.5349	3041.3092	1609	727.85
1031.6452	3042.3455	1612.1	727.85
1031.7554	3043.3811	1601.4	718.8
1031.8656	3044.4161	1599.3	717.2
1031.9758	3045.4505	1600.2	719.55
1032.0859	3046.4842	1597.25	712.45
1032.1959	3047.5173	1578.2	699.2
1032.3059	3048.5498	1590.85	710.25
1032.4159	3049.5816	1577.3	695.9
1032.5258	3050.6128	1577.9	694.5
1032.6357	3051.6434	1568.6	686.4
1032.7455	3052.6734	1566.7	685.65
1032.8553	3053.7027	1560.1	678.55
1032.9651	3054.7314	1562.15	681.75
1033.0748	3055.7594	1550.25	668.6
1033.1845	3056.7868	1547.15	664.4
1033.2941	3057.8136	1539.95	657.75
1033.4037	3058.8398	1538.3	656.9
1033.5132	3059.8653	1532.9	652.8
1033.6227	3060.8902	1528.55	646.6
1033.7321	3061.9145	1529.15	647.9
1033.8415	3062.9381	1527.05	646.75
1033.9509	3063.9612	1531.35	632.5
1034.0602	3064.9835	1520.15	637.45
1034.1694	3066.0053	1502.6	617.4
1034.2787	3067.0264	1505.05	624.2
1034.3878	3068.0469	1498.9	614.9
1034.497	3069.0668	1497.35	612.85
1034.6061	3070.086	1486.2	605.5
1034.7151	3071.1046	1484.55	603.25
1034.8241	3072.1226	1481.1	597.9
1034.9331	3073.1399	1475.7	596.6
1035.042	3074.1567	1460.7	578.35
1035.1508	3075.1727	1455	571.75
1035.2597	3076.1882	1440.5	561.15
1035.3684	3077.203	1431.85	550.25
1035.4772	3078.2173	1433.35	551.05
1035.5859	3079.2308	1431.7	544.6
1035.6945	3080.2438	1422.9	538.1
1035.8031	3081.2561	1404.95	526.15
1035.9117	3082.2678	1407.35	527.05
1036.0202	3083.2789	1395.05	514.15
1036.1286	3084.2893	1396.05	515.05
1036.2371	3085.2991	1389.55	507.2
1036.3454	3086.3083	1388.7	505.15
1036.4538	3087.3169	1381.55	497.85
1036.562	3088.3248	1370.15	489.65
1036.6703	3089.3321	1373.55	488.95
1036.7785	3090.3388	1362.55	481.75
1036.8866	3091.3449	1353.75	472.15
1036.9948	3092.3503	1358.3	474.6
1037.1028	3093.3551	1345.65	465.45
1037.2108	3094.3593	1342.7	462.55
1037.3188	3095.3629	1338.95	458.05
1037.4267	3096.3658	1339.65	458.35
1037.5346	3097.3681	1340.4	460.3
1037.6425	3098.3698	1331.8	449.75
1037.7503	3099.3708	1329.75	440.6
1037.858	3100.3713	1323.55	441.5
1037.9657	3101.3711	1320.9	439.75
1038.0734	3102.3702	1448.95	428.9
1038.181	3103.3688	1317.15	435.1
1038.2886	3104.3667	1306.15	427.1
1038.3961	3105.364	1307.8	428.1
1038.5036	3106.3607	1302.85	420.15
1038.611	3107.3568	1303.4	420.25
1038.7184	3108.3522	1298.1	417.75
1038.8257	3109.347	1296.9	415.5
1038.933	3110.3412	1299.3	414.2
1039.0403	3111.3348	1285.45	405.8
1039.1475	3112.3277	1290.35	409.65
1039.2547	3113.32	1281.75	402.55
1039.3618	3114.3117	1281.95	401.75
1039.4689	3115.3028	1275.4	395.4
1039.5759	3116.2932	1281.7	399
1039.6829	3117.2831	1273.05	386.5
1039.7898	3118.2723	1269.7	388.6
1039.8967	3119.2608	1265.15	384.45
1040.0035	3120.2488	1262.75	381.15
1040.1103	3121.2361	1266.3	385.5
1040.2171	3122.2229	1256.85	375.7
1040.3238	3123.209	1256.55	373.45
1040.4305	3124.1944	1247.05	367.15
1040.5371	3125.1793	1253.7	371.3
1040.6437	3126.1635	1244.1	363.45
1040.7502	3127.1471	1246.7	365.35
1040.8567	3128.1301	1242.65	362.55
1040.9631	3129.1125	1240.8	360.4
1041.0695	3130.0942	1239.2	358.7
1041.1759	3131.0753	1242.85	353.55
1041.2822	3132.0558	1240.95	357.95
1041.3884	3133.0357	1243.6	362.35
1041.4946	3134.015	1230.15	349.6
1041.6008	3134.9936	1234.75	352.35
1041.7069	3135.9716	1253.1	349.3
1041.813	3136.949	1228.65	347.2
1041.919	3137.9258	1247.7	349.1
1042.025	3138.902	1221.05	336.7
1042.1309	3139.8775	1223.4	344
1042.2368	3140.8524	1216.55	337.3
1042.3427	3141.8267	1224.05	343.05
1042.4485	3142.8004	1217.7	334.65
1042.5542	3143.7735	1218.35	331.75
1042.6599	3144.7459	1223.7	340.3
1042.7656	3145.7178	1214.45	333.45
1042.8712	3146.689	1207.25	327.85
1042.9768	3147.6596	1210.25	327.05
1043.0823	3148.6295	1200.9	319.4
1043.1878	3149.5989	1199	317.25
1043.2932	3150.5676	1201.1	322.2
1043.3986	3151.5357	1201.65	323.6
1043.5039	3152.5032	1195.15	313.4
1043.6092	3153.4701	1194.05	313.75
1043.7145	3154.4364	1200.6	317.5
1043.8197	3155.402	1194.25	315.35
1043.9248	3156.367	1195.9	314.4
1044.03	3157.3315	1228	309.35
1044.135	3158.2952	1182.6	300.95
1044.24	3159.2584	1181.95	302.35
1044.345	3160.221	1177.55	295.7
1044.4499	3161.1829	1178.55	296.55
1044.5548	3162.1442	1180.85	300.6
1044.6596	3163.105	1174.3	294.3
1044.7644	3164.065	1179	298.4
1044.8692	3165.0245	1176.8	291.7
1044.9739	3165.9834	1167.2	289.15
1045.0785	3166.9416	1169.05	286.6
1045.1831	3167.8993	1169.3	287.85
1045.2877	3168.8563	1172.2	290.85
1045.3922	3169.8127	1168.15	285.75
1045.4966	3170.7684	1164.05	282.65
1045.6011	3171.7236	1163.5	282.8
1045.7054	3172.6782	1160.5	281.35
1045.8098	3173.6321	1161.9	279.45
1045.914	3174.5854	1160.35	273.7
1046.0183	3175.5381	1157.45	277.9
1046.1224	3176.4902	1155.55	276.3
1046.2266	3177.4417	1150.8	270.2
1046.3307	3178.3926	1144.1	263.95
1046.4347	3179.3428	1148.75	268.5
1046.5387	3180.2924	1148.95	270.1
1046.6427	3181.2415	1152.25	272.15
1046.7466	3182.1899	1143.9	262.3
1046.8504	3183.1377	1143.25	261.9
1046.9542	3184.0848	1142	258.1
1047.058	3185.0314	1137.8	255.8
1047.1617	3185.9773	1140.3	260.1
1047.2654	3186.9227	1139.8	257.2
1047.369	3187.8674	1136.9	258
1047.4726	3188.8115	1139.05	257.05
1047.5761	3189.755	1132.65	252
1047.6796	3190.6979	1134.5	252.5
1047.783	3191.6402	1128.4	249.8
1047.8864	3192.5818	1131.3	250.05
1047.9898	3193.5229	1129.55	242.75
1048.0931	3194.4633	1124.4	243.05
1048.1963	3195.4031	1124.7	243.4
1048.2995	3196.3423	1122.9	242.7
1048.4027	3197.2809	1124.05	245.45
1048.5058	3198.2189	1124	243.05
1048.6089	3199.1563	1131.4	247.05
1048.7119	3200.0931	1121.2	241.05
1048.8148	3201.0292	1115.8	237.6
1048.9178	3201.9648	1112	233.7
1049.0206	3202.8997	1117.3	235.45
1049.1235	3203.834	1109.9	231.15
1049.2262	3204.7677	1112.35	231.75
1049.329	3205.7008	1110.6	230.05
1049.4317	3206.6333	1107.45	229.45
1049.5343	3207.5652	1108.45	225.75
1049.6369	3208.4964	1112.45	233.75
1049.7394	3209.4271	1104.65	224.65
1049.8419	3210.3571	1109.55	228.3
1049.9444	3211.2865	1102.65	221.4
1050.0468	3212.2154	1103.3	221.4
1050.1491	3213.1436	1104.35	222.25
1050.2514	3214.0712	1105.25	217.75
1050.3537	3214.9982	1096.6	215.9
1050.4559	3215.9246	1098.05	217.05
1050.5581	3216.8503	1094.4	213
1050.6602	3217.7755	1091.35	210.7
1050.7623	3218.7001	1094.15	214.5
1050.8643	3219.624	1098.35	218.3
1050.9663	3220.5473	1093.85	213
1051.0682	3221.4701	1093.5	212.8
1051.1701	3222.3922	1095.5	215.45
1051.2719	3223.3137	1092.3	212.7
1051.3737	3224.2346	1095.4	215.2
1051.4754	3225.1549	1088	208.4
1051.5771	3226.0746	1087.65	208.5
1051.6788	3226.9937	1085.1	204.9
1051.7804	3227.9121	1083.8	203.25
1051.8819	3228.83	1083.05	203.65
1051.9834	3229.7473	1081.65	201.7
1052.0849	3230.6639	1080.35	201.55
1052.1863	3231.5799	1080	198.2
1052.2876	3232.4954	1079.2	198.45
1052.3889	3233.4102	1076.8	197.4
1052.4902	3234.3244	1071.45	191.1
1052.5914	3235.238	1072.9	193.7
1052.6926	3236.151	1094.8	188.9
1052.7937	3237.0634	1068.35	187.75
1052.8948	3237.9752	1066.4	186.1
1052.9958	3238.8864	1069.65	190.55
1053.0968	3239.797	1067.8	187.6
1053.1977	3240.7069	1070.75	189.55
1053.2986	3241.6163	1070.15	189.2
1053.3994	3242.5251	1065.6	187.05
1053.5002	3243.4332	1062.2	183.25
1053.6009	3244.3408	1061.95	182
1053.7016	3245.2477	1065.2	185.8
1053.8022	3246.154	1064.55	183.95
1053.9028	3247.0598	1058.5	176.7
1054.0034	3247.9649	1059.9	179.6
1054.1039	3248.8694	1056.1	177.05
1054.2043	3249.7733	1059.25	180.75
1054.3047	3250.6766	1057.5	176.6
1054.4051	3251.5793	1057.5	174.8
1054.5054	3252.4814	1048.7	171.7
1054.6056	3253.3829	1049.95	167.45
1054.7058	3254.2838	1049.7	169.1
1054.806	3255.1841	1052.4	172
1054.9061	3256.0838	1048.5	169.3
1055.0061	3256.9829	1044.65	164.7
1055.1062	3257.8814	1048.1	165.7
1055.2061	3258.7792	1044.1	162.45
1055.306	3259.6765	1040.4	158.8
1055.4059	3260.5731	1039.2	158.65
1055.5057	3261.4692	1038.9	157.55
1055.6055	3262.3647	1034.5	153.45
1055.7052	3263.2595	1037.7	157.3
1055.8049	3264.1538	1035.3	155.9
1055.9045	3265.0474	1033.9	154.35
1056.0041	3265.9404	1027.45	150.3
1056.1036	3266.8329	1021.4	142.95
1056.2031	3267.7247	1032.5	144.4
1056.3025	3268.616	1018.55	139.75
1056.4019	3269.5066	1013.3	131.9
1056.5013	3270.3966	1010.3	128.75
1056.6005	3271.286	1008.8	130.85
