Software Version:	3.9.2.0
Unit SN:	10000200
Spectrometer SN:	6960
Date:	3/26/2024 1:52:13 PM
Data Line Index:	25
Spectral Points:	2048
Integration time (ms):	125
Averages:	20
Delay (ms):	30000
Sequence Number:	1
Processing:	dark subtract
Laser Power (mW):	300
Laser Current (mA):	820
Laser Diode Temp (C):	25
Laser Case Temp (C):	27.3
System Temp (C):	27.3
Spectrometer Temp (C):	25.2
CCD Temp (C):	0.002
Secondary Temp (C):	20.01
Heatsink Temp (C):	22.633
CCDPCB Temp (C):	36.84
SecondaryPCB Temp (C):	34.35

Wavelength	RamanShift	Raw Counts	Dark Subtracted
787.061	30.1047	603.25	190.85
787.2016	32.3739	607.5	199.5
787.3422	34.6426	616.45	204
787.4828	36.9109	636.25	223.5
787.6235	39.1787	652.55	235.55
787.7642	41.4461	675.75	255.65
787.9049	43.7131	695.8	271.25
788.0456	45.9796	708.9	281.5
788.1863	48.2456	734.25	302.5
788.3271	50.5112	759.9	324.7
788.4679	52.7764	780.2	343.25
788.6087	55.0411	806.9	366.75
788.7496	57.3054	830.35	383.15
788.8904	59.5692	858.8	410.45
789.0313	61.8326	887.3	433.9
789.1722	64.0955	921.7	466.05
789.3132	66.3579	955.55	496.15
789.4541	68.6199	1005.4	540.4
789.5951	70.8815	1081.65	614.65
789.7361	73.1426	1269	799.6
789.8771	75.4032	1693.35	1216.3
790.0181	77.6634	2782.9	2298.75
790.1592	79.9231	5427.8	4934
790.3003	82.1824	11551.05	11038.95
790.4414	84.4412	23911	23365.85
790.5825	86.6995	45856.6	45268.35
790.7237	88.9574	58733.75	58101.95
790.8648	91.2148	63162.9	62503.25
791.006	93.4717	63847.9	63166.95
791.1472	95.7282	64159.9	63468.7
791.2885	97.9842	64267.15	63571.65
791.4297	100.2398	64211.85	63512.7
791.571	102.4949	64190.35	63490.35
791.7123	104.7495	64145.25	63443.5
791.8536	107.0036	64005.05	63300.5
791.9949	109.2573	64114.75	63410.25
792.1363	111.5105	63960.9	63255.5
792.2777	113.7632	63926.95	63221.95
792.4191	116.0154	63977.95	63259.6
792.5605	118.2672	64095.3	63383.95
792.7019	120.5185	64071.05	63358.35
792.8434	122.7693	64034	63321.15
792.9849	125.0197	63781.9	63063.35
793.1264	127.2696	64171.75	63455.2
793.2679	129.519	64075.3	63349.1
793.4094	131.7679	64206.65	63472.5
793.551	134.0163	63824.95	63093
793.6926	136.2642	63954.7	63217.45
793.8342	138.5117	64168.55	63422.65
793.9758	140.7587	64052.05	63309.9
794.1175	143.0052	64024.55	63279.35
794.2591	145.2512	63786.6	63046.1
794.4008	147.4967	64053.85	63311.15
794.5425	149.7417	63966.15	63224.35
794.6842	151.9863	63926.55	63181
794.826	154.2304	63796.45	63042.15
794.9677	156.4739	63889.7	63136.15
795.1095	158.717	64078.15	63319.3
795.2513	160.9596	63914.8	63153.1
795.3931	163.2017	63669.6	62907.35
795.535	165.4433	63873.45	63108
795.6768	167.6844	63711.35	62949.65
795.8187	169.925	63827.7	63057.2
795.9606	172.1651	63660.6	62891.85
796.1025	174.4047	63726.25	62955.65
796.2445	176.6439	63667.5	62894.05
796.3864	178.8825	63578.1	62801.9
796.5284	181.1206	63796.2	63014.1
796.6704	183.3582	63715.3	62933.4
796.8124	185.5954	63619.7	62834.55
796.9544	187.832	63618.35	62827.25
797.0965	190.0681	63443.8	62652.55
797.2386	192.3037	63742.9	62951.5
797.3806	194.5388	64017.1	63221.05
797.5228	196.7734	63309	62508.85
797.6649	199.0075	63973.45	63165.5
797.807	201.2411	63718.2	62907.8
797.9492	203.4742	64053.3	63246.95
798.0914	205.7068	63968.6	63160.55
798.2336	207.9389	63955.8	63148.9
798.3758	210.1704	63909.65	63099.9
798.518	212.4015	64119.25	63305.3
798.6603	214.632	63872.65	63058.65
798.8025	216.862	64141.35	63335.75
798.9448	219.0915	64009.1	63210.6
799.0871	221.3205	64001.75	63203.45
799.2294	223.549	64180.9	63387.7
799.3718	225.777	64155.2	63367.8
799.5141	228.0044	64263.1	63464.55
799.6565	230.2314	64186.6	63394.7
799.7989	232.4578	64197.8	63404.95
799.9413	234.6837	64240.55	63439.55
800.0837	236.909	64473.45	63669.55
800.2262	239.1339	64094.7	63269.65
800.3687	241.3582	64269.75	63456.05
800.5111	243.582	64258.7	63419.45
800.6536	245.8053	64251.75	63421.4
800.7961	248.0281	64258.35	63432.15
800.9387	250.2503	64300.7	63472.35
801.0812	252.472	64168.3	63336.6
801.2238	254.6932	64252.55	63419.6
801.3664	256.9139	64195.15	63355.75
801.509	259.134	64429.6	63590.4
801.6516	261.3536	64154.25	63318.1
801.7942	263.5727	64320.15	63475.75
801.9369	265.7912	64241.95	63400.9
802.0795	268.0092	64275.95	63432.55
802.2222	270.2267	64292.2	63454.75
802.3649	272.4436	64175.4	63333.45
802.5076	274.6601	64288.6	63440.55
802.6504	276.8759	64332.85	63486.7
802.7931	279.0913	64259.85	63411.7
802.9359	281.3061	64280.35	63432.85
803.0787	283.5204	64275.2	63422.2
803.2215	285.7341	64251.75	63392.55
803.3643	287.9473	64394.45	63529.45
803.5071	290.16	64285.75	63422.2
803.6499	292.3721	64372.4	63520.35
803.7928	294.5837	64258.7	63402.2
803.9357	296.7947	64212.9	63354.85
804.0786	299.0052	64390.25	63534.45
804.2215	301.2152	64302.65	63446.85
804.3644	303.4246	64364.85	63514.5
804.5074	305.6334	64331.75	63477.6
804.6503	307.8418	64177.7	63320.9
804.7933	310.0495	64180.7	63321.1
804.9363	312.2568	64146.45	63284.25
805.0793	314.4635	64144	63283.85
805.2223	316.6696	64206.15	63342.85
805.3653	318.8752	64256.2	63386.7
805.5084	321.0802	63979.9	63115.7
805.6514	323.2847	64110.7	63245.3
805.7945	325.4887	64102.55	63238.15
805.9376	327.692	64036.2	63170.35
806.0807	329.8949	64114.3	63244.4
806.2238	332.0972	64024.1	63157.25
806.367	334.2989	64065.05	63191.1
806.5101	336.5001	64125.45	63253.25
806.6533	338.7007	63872.85	63001.45
806.7965	340.9008	64017.4	63141.55
806.9397	343.1003	64029.5	63153.8
807.0829	345.2992	64078.9	63204.65
807.2261	347.4976	63956.1	63081.35
807.3693	349.6955	64000.15	63118.75
807.5126	351.8927	63896.25	63013.85
807.6559	354.0895	64015.85	63121.2
807.7991	356.2856	63974.25	63085.7
807.9424	358.4812	64076.25	63194.8
808.0857	360.6763	63900.4	63018.1
808.2291	362.8707	64052.9	63170.2
808.3724	365.0646	63961.85	63080.8
808.5158	367.258	63969.95	63083.7
808.6591	369.4508	63821.3	62930.8
808.8025	371.643	64033.1	63144.3
808.9459	373.8346	63945.2	63049.8
809.0893	376.0257	63946.65	63052.95
809.2327	378.2162	63876.4	62980.55
809.3762	380.4062	63675.4	62779.4
809.5196	382.5956	63868.7	62970.1
809.6631	384.7844	63829.1	62937.5
809.8066	386.9726	63898.3	63004.45
809.9501	389.1603	63879.6	62988
810.0936	391.3474	63724	62782.5
810.2371	393.5339	63856.9	62961.7
810.3806	395.7199	63602.35	62711.45
810.5241	397.9052	63663	62771.35
810.6677	400.09	63736.55	62851.25
810.8113	402.2743	63870.9	62985.95
810.9548	404.4579	63678.6	62794.2
811.0984	406.641	63719.75	62835.95
811.2421	408.8235	63808.05	62920.15
811.3857	411.0054	63839.2	62951.3
811.5293	413.1868	63902.15	63010.05
811.673	415.3675	63833.6	62945.25
811.8166	417.5477	63825.1	62933.1
811.9603	419.7273	63845.75	62955.25
812.104	421.9064	63833	62932.6
812.2477	424.0848	63822.8	62927
812.3914	426.2627	63898.35	63000.5
812.5351	428.4399	63677.45	62778.7
812.6788	430.6166	63441.5	62538.2
812.8226	432.7928	63673.45	62770.8
812.9663	434.9683	63460.45	62560.6
813.1101	437.1432	63392.25	62490.6
813.2539	439.3176	63562.15	62666.5
813.3977	441.4914	63240	62344.05
813.5415	443.6645	63300.8	62405.3
813.6853	445.8371	63334.55	62433.25
813.8291	448.0091	63182.05	62283.6
813.973	450.1806	63115.2	62218.95
814.1168	452.3514	63172.4	62272
814.2607	454.5216	63012.8	62106.8
814.4046	456.6913	63153.4	62249.55
814.5485	458.8603	63201.1	62302.65
814.6924	461.0288	62958.35	62061.75
814.8363	463.1967	63158.7	62263.95
814.9802	465.3639	63145.4	62243.3
815.1241	467.5306	62797.85	61896
815.2681	469.6967	63014.2	62114.95
815.412	471.8622	63150.6	62254.65
815.556	474.0271	63015.45	62117.2
815.7	476.1914	63036.1	62129.4
815.844	478.3551	63025.65	62119.35
815.988	480.5182	63260.85	62362.45
816.132	482.6807	62941.25	62047.45
816.276	484.8426	63008.25	62119
816.4201	487.0039	63282.45	62386.05
816.5641	489.1647	63300.55	62398.75
816.7082	491.3248	63068.3	62161.5
816.8522	493.4843	63386.8	62485.9
816.9963	495.6432	63406.9	62507.2
817.1404	497.8015	63032.25	62124
817.2845	499.9592	63214.45	62302.75
817.4286	502.1163	63185.9	62274.85
817.5727	504.2728	63125.7	62218
817.7168	506.4287	63066.3	62168.55
817.861	508.5839	62873.45	61974.95
818.0051	510.7386	62972.75	62071.35
818.1493	512.8927	62999	62090.95
818.2935	515.0461	62924	62018.55
818.4377	517.199	63090.05	62179.65
818.5818	519.3512	62919.15	62007.6
818.726	521.5029	62900.1	61984.85
818.8703	523.6539	62982.25	62073.15
819.0145	525.8043	62777.4	61865.95
819.1587	527.9541	62969.55	62054.75
819.303	530.1033	62907.9	61994.9
819.4472	532.2519	62785.7	61874.5
819.5915	534.3999	62957.55	62046.4
819.7357	536.5472	63069.2	62155.95
819.88	538.694	62779.1	61871.7
820.0243	540.8401	63017.65	62109.4
820.1686	542.9856	63070.95	62150.05
820.3129	545.1305	63179.1	62246.8
820.4572	547.2748	62964.35	62037.45
820.6016	549.4185	62945.6	62015.5
820.7459	551.5615	63055.8	62129.6
820.8902	553.704	62973.15	62047.3
821.0346	555.8458	62834.8	61914.85
821.1789	557.987	62919.55	61996.4
821.3233	560.1276	62988.6	62066
821.4677	562.2675	62934.9	62010.05
821.6121	564.4069	62979.75	62056.75
821.7565	566.5456	63099.3	62179
821.9009	568.6837	62879.8	61962.65
822.0453	570.8212	62943.05	62023.2
822.1897	572.958	62606.35	61686.2
822.3342	575.0942	62791.75	61876.75
822.4786	577.2299	62567.1	61657.1
822.6231	579.3648	62520.5	61621.55
822.7675	581.4992	62489.65	61590.85
822.912	583.6329	62465.2	61569.4
823.0565	585.766	62473.5	61573.4
823.201	587.8985	62580.4	61677.2
823.3454	590.0304	62274.05	61338.7
823.4899	592.1616	62519.9	61599.9
823.6345	594.2922	62345.2	61425.4
823.779	596.4222	62099.25	61177.45
823.9235	598.5515	62169.85	61247.85
824.068	600.6802	62289.3	61364.25
824.2126	602.8083	61977.2	61061.45
824.3571	604.9358	61938.65	61018.05
824.5017	607.0626	62168.05	61243
824.6462	609.1888	61709.5	60778.95
824.7908	611.3144	62019.15	61088.05
824.9354	613.4393	61865.7	60938.15
825.08	615.5636	61613.95	60686.95
825.2246	617.6873	61892.3	60964.15
825.3692	619.8103	61552.85	60623.2
825.5138	621.9327	61853.5	60927.6
825.6584	624.0544	61870.75	60948.85
825.803	626.1756	61648.35	60725.9
825.9477	628.2961	61625.1	60701.15
826.0923	630.4159	61501.9	60572.75
826.237	632.5351	61345.95	60418.1
826.3816	634.6537	61926.2	60999.15
826.5263	636.7716	61316.6	60385.1
826.6709	638.8889	61466.65	60534.5
826.8156	641.0056	61415.7	60482.35
826.9603	643.1216	61491.4	60558.25
827.105	645.237	61585.6	60651.75
827.2497	647.3518	61263.7	60342.35
827.3944	649.4659	61393.25	60470.2
827.5391	651.5793	61396.85	60474.15
827.6838	653.6922	61478.05	60556.05
827.8285	655.8043	61028.6	60106.5
827.9733	657.9159	61594.35	60670.9
828.118	660.0268	60583.85	59656.6
828.2627	662.137	61179.4	60250.95
828.4075	664.2466	61230.5	60294.9
828.5522	666.3556	61034.8	60104.35
828.697	668.4639	61176.1	60248.45
828.8418	670.5716	60908.1	59985.15
828.9865	672.6786	61136.9	60207.8
829.1313	674.785	60794.9	59859.4
829.2761	676.8907	60847.15	59919.6
829.4209	678.9958	60981.8	60057.15
829.5657	681.1002	61018.6	60088.35
829.7105	683.204	60674.95	59737.45
829.8553	685.3072	60507.05	59570.4
830.0001	687.4097	60602.55	59671.1
830.1449	689.5115	60520.55	59584.7
830.2898	691.6127	60808.4	59879.9
830.4346	693.7132	60494.3	59566.2
830.5794	695.8131	60540.85	59592.85
830.7243	697.9123	60622.35	59686.5
830.8691	700.0109	60675.75	59739.15
831.014	702.1089	60235.55	59303.55
831.1588	704.2061	60384.7	59453.15
831.3037	706.3028	60409.05	59475.25
831.4486	708.3987	60447.5	59512.65
831.5935	710.4941	60283.95	59350.3
831.7383	712.5887	60549.8	59617.75
831.8832	714.6827	60417.8	59484.9
832.0281	716.7761	60638.9	59708.1
832.173	718.8688	60712.9	59779.9
832.3179	720.9608	60443.7	59505.95
832.4628	723.0522	60523.2	59585.05
832.6077	725.1429	60257.5	59324.85
832.7527	727.233	60886.55	59948.05
832.8976	729.3224	59888.85	58951.3
833.0425	731.4112	60129.95	59193.7
833.1874	733.4993	60134.45	59199
833.3324	735.5867	60056.85	59119.9
833.4773	737.6735	59836.1	58900.95
833.6222	739.7596	59594.65	58657.25
833.7672	741.845	59514.75	58579.05
833.9122	743.9298	59797.8	58862.3
834.0571	746.014	59450.85	58516.45
834.2021	748.0974	59176.9	58233.5
834.347	750.1802	59655.65	58715.9
834.492	752.2624	58978.4	58036.25
834.637	754.3439	59122.6	58180.55
834.782	756.4247	59281.55	58333.2
834.9269	758.5048	59042.4	58103.25
835.0719	760.5843	59187.2	58245.5
835.2169	762.6631	59364.15	58426.95
835.3619	764.7413	59347.4	58409.45
835.5069	766.8188	59535.2	58596.35
835.6519	768.8956	59783.35	58839.75
835.7969	770.9718	59790.2	58851.4
835.9419	773.0473	59634.45	58697.05
836.0869	775.1221	59286.45	58347.7
836.232	777.1962	59209.95	58272.1
836.377	779.2697	58750.25	57806.55
836.522	781.3426	59003.8	58056
836.667	783.4147	59124.35	58185.95
836.8121	785.4862	59062.85	58122.2
836.9571	787.557	58706.6	57765.55
837.1021	789.6271	58917.35	57972.1
837.2472	791.6966	58416.55	57472.05
837.3922	793.7654	57849.8	56910.35
837.5373	795.8335	57778.75	56838.35
837.6823	797.901	57785.45	56846.05
837.8274	799.9678	57520.85	56577.25
837.9724	802.0339	57443.7	56499.8
838.1175	804.0993	57433.15	56480.1
838.2626	806.1641	57250.85	56312.15
838.4076	808.2282	57108	56166.35
838.5527	810.2916	56980.55	56038.25
838.6978	812.3544	57154.65	56217.9
838.8428	814.4164	56701.25	55761.7
838.9879	816.4778	56844.7	55899.3
839.133	818.5385	56754.45	55809.45
839.2781	820.5986	56780.65	55836.8
839.4232	822.658	56867.1	55920.6
839.5682	824.7166	56982.6	56042.55
839.7133	826.7747	56746.2	55804.15
839.8584	828.832	57050	56105.65
840.0035	830.8886	57324.8	56383.9
840.1486	832.9446	57332.95	56389
840.2937	834.9999	56605.05	55662.8
840.4388	837.0545	56859.7	55914.45
840.5839	839.1085	56846.2	55901.85
840.729	841.1618	56659.1	55715.65
840.8741	843.2143	56169.65	55224.9
841.0192	845.2662	56083.95	55139.7
841.1643	847.3175	56220.4	55277.4
841.3095	849.368	55590.1	54648.2
841.4546	851.4179	55972.7	55031.05
841.5997	853.467	55461.3	54520.1
841.7448	855.5155	55683	54744.1
841.8899	857.5633	55300.55	54358.9
842.0351	859.6105	55018.4	54076.35
842.1802	861.6569	55184.3	54238.55
842.3253	863.7027	54682.5	53735.25
842.4704	865.7478	54865.05	53921.05
842.6156	867.7922	54720.3	53774
842.7607	869.8359	54929.05	53982.3
842.9058	871.8789	54367.1	53420.5
843.0509	873.9212	54702.7	53728.5
843.1961	875.9629	54727.7	53783
843.3412	878.0039	54720.1	53773.4
843.4863	880.0441	54518.85	53574.8
843.6315	882.0837	54562.7	53616.95
843.7766	884.1226	54473.55	53530.25
843.9218	886.1609	54379.1	53434.95
844.0669	888.1984	54181.7	53239.7
844.212	890.2352	54623.9	53680
844.3572	892.2714	54056.6	53108.15
844.5023	894.3069	54263.2	53315.4
844.6475	896.3416	53903.35	52963.45
844.7926	898.3757	53761.45	52815.35
844.9377	900.4091	53206.85	52261.85
845.0829	902.4418	53835	52886.3
845.228	904.4739	53407.5	52456.75
845.3732	906.5052	53489.9	52539.25
845.5183	908.5358	53159.8	52215
845.6635	910.5658	52982.2	52033.2
845.8086	912.595	52866.95	51923.15
845.9538	914.6236	52245.15	51299.7
846.0989	916.6515	52909.4	51965.15
846.2441	918.6786	51928.1	50980.25
846.3892	920.7051	52154.95	51205.7
846.5344	922.7309	52049.85	51104.85
846.6795	924.756	52119.1	51173.75
846.8246	926.7804	51933.65	50984.1
846.9698	928.8041	51309.35	50363.95
847.1149	930.8272	51689.05	50745.05
847.2601	932.8495	51566.15	50622.95
847.4052	934.8711	51168	50221.25
847.5504	936.892	50877	49932.75
847.6955	938.9123	50957.9	50011.5
847.8407	940.9318	50669.15	49723.65
847.9858	942.9506	50575.7	49628.85
848.131	944.9688	50501.5	49556
848.2761	946.9862	49959.9	49017.6
848.4213	949.003	49959.25	49011.9
848.5664	951.019	49440.35	48496.2
848.7115	953.0344	49568.2	48622.65
848.8567	955.0491	49461.25	48516.65
849.0018	957.063	49564.95	48620.85
849.147	959.0763	49671.65	48720.8
849.2921	961.0888	49355.55	48410.85
849.4373	963.1007	49549.15	48608.8
849.5824	965.1119	49437.05	48500.4
849.7275	967.1223	49205.25	48270.5
849.8727	969.1321	49374.5	48439.15
850.0178	971.1412	49076.1	48138.75
850.1629	973.1495	48846.55	47908
850.3081	975.1572	48896.8	47916.65
850.4532	977.1641	48781.65	47837.85
850.5983	979.1704	48625.35	47681
850.7435	981.1759	48544.15	47597.7
850.8886	983.1808	48369.4	47422.1
851.0337	985.1849	48352.65	47396
851.1788	987.1884	48378.75	47433.95
851.324	989.1911	48468.35	47519.65
851.4691	991.1932	48162.85	47219.4
851.6142	993.1945	48128.75	47187.5
851.7593	995.1951	48045.25	47099.6
851.9045	997.1951	47837.2	46888.7
852.0496	999.1943	47600.45	46658.9
852.1947	1001.1928	47434.35	46488.55
852.3398	1003.1906	47330.75	46390.25
852.4849	1005.1877	47115.05	46171.35
852.63	1007.1841	46959.05	46016.85
852.7751	1009.1798	46852.2	45910.8
852.9202	1011.1748	46629.25	45685.35
853.0653	1013.1691	46419.65	45478.05
853.2104	1015.1627	45982.9	45039.45
853.3555	1017.1556	45629.8	44687.15
853.5006	1019.1477	45564.15	44625.25
853.6457	1021.1392	45170.55	44236.15
853.7908	1023.1299	44917.8	43986.9
853.9359	1025.12	44902.05	43972.3
854.081	1027.1093	44726.8	43801.4
854.2261	1029.0979	44655.8	43733.9
854.3712	1031.0859	44523.25	43598.15
854.5163	1033.0731	44370.95	43438.8
854.6613	1035.0596	44225.25	43290.35
854.8064	1037.0454	43882.85	42946.7
854.9515	1039.0304	43703.5	42765.9
855.0965	1041.0148	43378.75	42440.35
855.2416	1042.9985	43240.3	42300.3
855.3867	1044.9814	43242.95	42306.35
855.5317	1046.9636	42948.95	42006.4
855.6768	1048.9452	42783.35	41846.1
855.8219	1050.926	42832.25	41892.1
855.9669	1052.9061	42704.6	41763.9
856.112	1054.8855	42623.7	41682.95
856.257	1056.8642	42489.75	41545.85
856.4021	1058.8421	42509.3	41565.85
856.5471	1060.8194	42429.2	41487.75
856.6921	1062.7959	42297.7	41357.3
856.8372	1064.7717	42298.85	41359.6
856.9822	1066.7469	42222.6	41277.55
857.1272	1068.7213	42098.85	41154
857.2723	1070.695	42071.7	41135.45
857.4173	1072.6679	41831.5	40889.3
857.5623	1074.6402	41770.05	40830.3
857.7073	1076.6117	41688.45	40742.55
857.8523	1078.5826	41626.1	40687.15
857.9973	1080.5527	41405.95	40465.05
858.1423	1082.5221	41259.7	40319.45
858.2873	1084.4908	41234.3	40293.95
858.4323	1086.4587	41189.85	40249.3
858.5773	1088.426	41230.95	40290.4
858.7223	1090.3925	41015.9	40072.85
858.8673	1092.3584	41008.75	40067.3
859.0123	1094.3235	40736.55	39799.9
859.1573	1096.2879	40649	39710.25
859.3022	1098.2515	40625.9	39685.2
859.4472	1100.2145	40664.25	39727.9
859.5922	1102.1767	40613.35	39671.2
859.7371	1104.1382	40687.4	39747.25
859.8821	1106.099	40741.95	39800.4
860.027	1108.0591	40805.85	39867.35
860.172	1110.0185	40759.05	39818.25
860.3169	1111.9771	40787.7	39847.5
860.4619	1113.9351	40534.6	39595.1
860.6068	1115.8923	40227.25	39289.7
860.7517	1117.8488	39978.45	39038
860.8967	1119.8045	39622.9	38686.2
861.0416	1121.7596	39534.45	38597.7
861.1865	1123.7139	39317.95	38380.55
861.3314	1125.6675	39255.65	38318.8
861.4763	1127.6204	39274.3	38336.35
861.6212	1129.5726	39069.5	38126.9
861.7661	1131.524	38956.15	38016.85
861.911	1133.4748	38882.7	37944.2
862.0559	1135.4248	38666.45	37727.3
862.2008	1137.3741	38529.2	37590.9
862.3457	1139.3226	38305.45	37365.05
862.4905	1141.2705	38204.3	37265.45
862.6354	1143.2176	38039.85	37091.75
862.7803	1145.164	37948.95	37009.8
862.9251	1147.1097	37817.95	36878.35
863.07	1149.0546	37724.15	36785
863.2148	1150.9989	37618.25	36677.7
863.3597	1152.9424	37484.7	36546
863.5045	1154.8852	37312.8	36371.1
863.6493	1156.8272	37136.6	36197.3
863.7942	1158.7686	37141.7	36197.4
863.939	1160.7092	37001.2	36061.5
864.0838	1162.6491	36869.65	35931.4
864.2286	1164.5883	36935.85	35999.25
864.3734	1166.5267	36913.5	35973.2
864.5182	1168.4644	36985.6	36048.7
864.663	1170.4014	37035.05	36096.1
864.8078	1172.3377	37200.1	36266.55
864.9526	1174.2732	37370.55	36434.8
865.0974	1176.2081	37567.95	36630.3
865.2421	1178.1421	37724.8	36783.6
865.3869	1180.0755	37950.3	37013.35
865.5317	1182.0082	37990.25	37053.75
865.6764	1183.9401	38044.9	37112.35
865.8212	1185.8713	37921.1	36989.7
865.9659	1187.8017	37583.35	36656.1
866.1106	1189.7315	37308.5	36385.25
866.2554	1191.6605	36746.65	35827.05
866.4001	1193.5888	36511.75	35584.7
866.5448	1195.5163	36359.85	35430.75
866.6895	1197.4432	36190.45	35256.85
866.8342	1199.3693	35995.55	35060.5
866.9789	1201.2947	35888.1	34952
867.1236	1203.2193	35734.45	34801.35
867.2683	1205.1432	35675.25	34741.5
867.413	1207.0664	35578.1	34642.55
867.5576	1208.9889	35496.25	34557.95
867.7023	1210.9106	35341.2	34405.15
867.847	1212.8316	35190.7	34262.35
867.9916	1214.7519	35201.35	34258.1
868.1363	1216.6715	35128.1	34194.3
868.2809	1218.5903	35064.65	34131.75
868.4255	1220.5084	34989.85	34055.5
868.5701	1222.4257	35040.65	34106.95
868.7148	1224.3424	34869.25	33936.05
868.8594	1226.2583	34847.35	33913.6
869.004	1228.1735	34891.7	33960.6
869.1486	1230.0879	34790.55	33856.7
869.2932	1232.0016	34856.45	33923.75
869.4377	1233.9146	34828.65	33892.55
869.5823	1235.8269	34674.2	33740.8
869.7269	1237.7384	34619.7	33684.85
869.8715	1239.6492	34359.45	33426
870.016	1241.5592	34285.4	33349.35
870.1606	1243.4686	34103.4	33171.35
870.3051	1245.3772	34129.35	33196.75
870.4496	1247.285	34061.4	33129.3
870.5941	1249.1922	34029.2	33095
870.7387	1251.0986	34006	33075.05
870.8832	1253.0042	33939.4	33007.1
871.0277	1254.9092	33882.65	32949.5
871.1722	1256.8134	33878.85	32949.65
871.3167	1258.7169	33985.95	33055.6
871.4611	1260.6196	33953.9	33024.3
871.6056	1262.5216	34161.65	33231.15
871.7501	1264.4229	34158.7	33228.45
871.8945	1266.3234	34337.65	33405.65
872.039	1268.2232	34377.7	33443.5
872.1834	1270.1223	34309.75	33379.55
872.3278	1272.0207	34203.8	33270
872.4723	1273.9183	34127.05	33189.7
872.6167	1275.8151	33985.35	33055.65
872.7611	1277.7113	33860.2	32926.25
872.9055	1279.6067	33718.7	32790.7
873.0499	1281.5014	33740.7	32808.6
873.1943	1283.3953	33855.35	32921.3
873.3386	1285.2885	34041.45	33108.95
873.483	1287.181	34174.2	33241.4
873.6274	1289.0727	34393.45	33464.8
873.7717	1290.9637	34459.05	33528.35
873.9161	1292.854	34638.45	33708.15
874.0604	1294.7435	34500.2	33568.55
874.2047	1296.6323	34503.1	33573.75
874.349	1298.5204	34434.45	33500.4
874.4933	1300.4077	34382.2	33450.25
874.6376	1302.2943	34239.45	33309.4
874.7819	1304.1802	34093.85	33165.8
874.9262	1306.0653	33817.55	32886.4
875.0705	1307.9497	33480	32551.35
875.2147	1309.8333	33233.35	32307.35
875.359	1311.7162	33049.2	32120.1
875.5032	1313.5984	32912.55	31980.3
875.6475	1315.4798	32786.4	31845.7
875.7917	1317.3605	32762.65	31815.4
875.9359	1319.2405	32696	31761.7
876.0801	1321.1197	32527.8	31594.65
876.2243	1322.9982	32227.45	31292.5
876.3685	1324.876	32098.35	31167.8
876.5127	1326.753	31851.55	30921.05
876.6569	1328.6293	31765.8	30836.5
876.801	1330.5048	31708.55	30776.25
876.9452	1332.3796	31508	30578.85
877.0893	1334.2537	31504.55	30552.05
877.2335	1336.127	31325.5	30394.3
877.3776	1337.9996	31273.75	30344.45
877.5217	1339.8714	31200.25	30268.15
877.6658	1341.7426	31127.55	30154.2
877.8099	1343.6129	31062.95	30129.9
877.954	1345.4826	31002.75	30071.15
878.0981	1347.3515	30983	30050.05
878.2422	1349.2196	30881.85	29953.1
878.3862	1351.087	30914.35	29982.65
878.5303	1352.9537	30902.65	29970.05
878.6743	1354.8197	30923.8	29992.05
878.8184	1356.6849	31048.45	30120.6
878.9624	1358.5493	31042.2	30108.95
879.1064	1360.4131	31082.95	30152.5
879.2504	1362.276	31078.5	30151.05
879.3944	1364.1383	30985.95	30054.9
879.5384	1365.9998	30752.65	29818.2
879.6823	1367.8606	30448.85	29514.5
879.8263	1369.7206	30138.75	29207.45
879.9702	1371.5799	29820.95	28888.8
880.1142	1373.4384	29566.15	28633
880.2581	1375.2962	29365.7	28437.55
880.402	1377.1533	29020.2	28091.85
880.5459	1379.0096	28690.6	27763.75
880.6898	1380.8652	28385.65	27458.65
880.8337	1382.7201	28082.1	27154.95
880.9776	1384.5742	27782.7	26854.75
881.1215	1386.4275	27586.65	26659.5
881.2653	1388.2802	27360.95	26430.95
881.4092	1390.132	27208.5	26279.15
881.553	1391.9832	27093	26166.3
881.6968	1393.8336	26918.9	25991.15
881.8406	1395.6832	26834.8	25903.8
881.9844	1397.5322	26734.95	25805.6
882.1282	1399.3803	26675	25740.9
882.272	1401.2278	26503.15	25573.55
882.4158	1403.0745	26402.35	25475.6
882.5595	1404.9204	26313.25	25388.6
882.7033	1406.7656	26281.65	25354
882.847	1408.6101	26228.4	25296.05
882.9908	1410.4538	26127.9	25201.1
883.1345	1412.2968	26089.7	25159.7
883.2782	1414.139	26066.95	25137.75
883.4219	1415.9805	26081.45	25153.6
883.5656	1417.8213	26043.35	25097.1
883.7092	1419.6613	26023.35	25099.55
883.8529	1421.5006	26080.25	25154.8
883.9965	1423.3391	26172.1	25245.3
884.1402	1425.1769	26284.7	25355.05
884.2838	1427.0139	26623.7	25697.2
884.4274	1428.8502	26999.45	26069.9
884.571	1430.6858	27346.2	26420.1
884.7146	1432.5206	27518.15	26592.55
884.8582	1434.3547	27725.65	26800.4
885.0018	1436.188	27739	26814.85
885.1453	1438.0206	27607.3	26680.1
885.2889	1439.8524	27361.55	26435.45
885.4324	1441.6835	27287.65	26359.4
885.5759	1443.5139	27150.95	26221.25
885.7194	1445.3435	27014.4	26087.45
885.8629	1447.1724	26948.75	26023.3
886.0064	1449.0005	26874.7	25949.75
886.1499	1450.8279	26769.4	25844.2
886.2933	1452.6545	26716.9	25792.15
886.4368	1454.4804	26733.2	25812.25
886.5802	1456.3056	26674.3	25745.2
886.7237	1458.13	26548	25625.2
886.8671	1459.9536	26443.35	25516.05
887.0105	1461.7766	26178.95	25256.4
887.1539	1463.5987	25821.4	24894.1
887.2972	1465.4202	25543.55	24615.4
887.4406	1467.2409	25205.8	24280.8
887.584	1469.0608	24966	24042.05
887.7273	1470.88	24733.85	23810.95
887.8706	1472.6984	24495	23572.05
888.0139	1474.5161	24265.4	23335.55
888.1572	1476.3331	24096.15	23171.9
888.3005	1478.1493	24000.3	23075.3
888.4438	1479.9648	23937.7	23014.9
888.5871	1481.7795	23813.55	22889.55
888.7303	1483.5935	23737.75	22813.05
888.8736	1485.4067	23594.05	22670.9
889.0168	1487.2192	23555.75	22629.65
889.16	1489.031	23467.55	22541.85
889.3032	1490.842	23418.45	22495.6
889.4464	1492.6522	23373.4	22448.95
889.5896	1494.4618	23260.15	22334.1
889.7327	1496.2705	23227.7	22303.6
889.8759	1498.0785	23164.05	22240.3
890.019	1499.8858	23100.65	22177.9
890.1622	1501.6924	23044.25	22121.45
890.3053	1503.4981	22944.35	22022.95
890.4484	1505.3032	22913.15	21990.9
890.5914	1507.1075	22818.3	21891.9
890.7345	1508.911	22763.9	21840.05
890.8776	1510.7138	22718.15	21795.95
891.0206	1512.5159	22630	21709.35
891.1637	1514.3172	22530.95	21610
891.3067	1516.1178	22403.55	21483.6
891.4497	1517.9176	22355.3	21430.6
891.5927	1519.7166	22269.35	21348.7
891.7357	1521.515	22247.75	21320.6
891.8786	1523.3126	22160.85	21240.15
892.0216	1525.1094	22097.55	21175.45
892.1645	1526.9055	22029	21107
892.3074	1528.7008	21926.45	21007.85
892.4503	1530.4954	21782.05	20854.35
892.5932	1532.2893	21772.75	20855.55
892.7361	1534.0824	21619	20694.05
892.879	1535.8747	21644.7	20729.55
893.0218	1537.6663	21559.3	20645
893.1647	1539.4572	21510.95	20591.3
893.3075	1541.2473	21465	20544.85
893.4503	1543.0367	21415.5	20497.25
893.5931	1544.8253	21337	20416.1
893.7359	1546.6132	21301.15	20379.35
893.8787	1548.4003	21251.05	20322.05
894.0214	1550.1867	21267.9	20343.1
894.1642	1551.9723	21189.65	20267.65
894.3069	1553.7572	21218.45	20302.1
894.4496	1555.5414	21206.65	20291.5
894.5923	1557.3247	21258.55	20344.2
894.735	1559.1074	21259.95	20348.3
894.8777	1560.8893	21312.55	20400.75
895.0204	1562.6705	21316	20402.9
895.163	1564.4509	21402.5	20490.95
895.3056	1566.2305	21353.95	20443.35
895.4482	1568.0094	21426.6	20518.4
895.5908	1569.7876	21429.95	20519.1
895.7334	1571.565	21376.4	20461.2
895.876	1573.3417	21358.7	20446.55
896.0186	1575.1176	21317.3	20404.15
896.1611	1576.8928	21258.4	20352.5
896.3036	1578.6672	21159.25	20254.05
896.4461	1580.4409	21092.25	20186.9
896.5886	1582.2138	21008	20098.25
896.7311	1583.986	20920.05	20009.55
896.8736	1585.7575	20889.9	19983.1
897.0161	1587.5282	20855.05	19948.9
897.1585	1589.2981	20830.25	19925.3
897.3009	1591.0673	20784.55	19878.4
897.4433	1592.8358	20843.3	19937.7
897.5857	1594.6035	20839.25	19928.15
897.7281	1596.3704	20795.4	19884.55
897.8705	1598.1366	20786	19876.3
898.0128	1599.9021	20827.55	19922.4
898.1551	1601.6668	20815.55	19903.95
898.2975	1603.4308	20827.6	19916.75
898.4398	1605.194	20917.35	20003.05
898.5821	1606.9564	21017.75	20113.6
898.7243	1608.7182	21129.35	20227.3
898.8666	1610.4791	21221.2	20324.05
899.0088	1612.2394	21394.35	20500.5
899.1511	1613.9988	21533.8	20634.15
899.2933	1615.7576	21675.25	20770.05
899.4355	1617.5156	21831.5	20917.05
899.5776	1619.2728	21948.65	21039.1
899.7198	1621.0293	21922.9	21014.85
899.862	1622.785	21777.45	20870.85
900.0041	1624.54	21571.05	20668.7
900.1462	1626.2942	21349.1	20446.5
900.2883	1628.0477	21010.5	20102.3
900.4304	1629.8005	20798.95	19895.2
900.5725	1631.5525	20506.15	19604.9
900.7145	1633.3037	20296.7	19394.05
900.8566	1635.0542	20120.95	19218.5
900.9986	1636.804	19975.25	19070.2
901.1406	1638.553	19915	18958
901.2826	1640.3013	19783.15	18880.3
901.4245	1642.0488	19735.2	18832.2
901.5665	1643.7955	19684.85	18784.05
901.7085	1645.5416	19698.45	18798.3
901.8504	1647.2868	19744.35	18842.15
901.9923	1649.0313	19759.6	18858
902.1342	1650.7751	19837.3	18930.9
902.2761	1652.5181	19938.35	19036.55
902.4179	1654.2604	19997.6	19096.7
902.5598	1656.0019	20124.25	19225.8
902.7016	1657.7427	20295.2	19392.9
902.8434	1659.4828	20482.05	19576.75
902.9852	1661.222	20575.6	19672
903.127	1662.9606	20558.4	19654.7
903.2687	1664.6984	20376.75	19467.45
903.4105	1666.4354	20048.55	19140.15
903.5522	1668.1717	19567.35	18658.75
903.6939	1669.9072	19081	18171.85
903.8356	1671.642	18770.75	17859.25
903.9773	1673.3761	18444	17539.75
904.119	1675.1094	18148.55	17244.95
904.2606	1676.8419	17935.45	17031.1
904.4022	1678.5737	17693.55	16790.85
904.5439	1680.3048	17547.15	16641.1
904.6855	1682.0351	17413.6	16508.2
904.827	1683.7646	17254.35	16346.55
904.9686	1685.4934	17167.8	16264.65
905.1101	1687.2215	17091.9	16187.15
905.2517	1688.9488	16966.6	16065.35
905.3932	1690.6754	16866.05	15963.45
905.5347	1692.4012	16834.55	15929.6
905.6761	1694.1263	16763.6	15856.45
905.8176	1695.8506	16729.55	15824.65
905.9591	1697.5742	16623.3	15721.15
906.1005	1699.297	16534.75	15636.4
906.2419	1701.0191	16447.3	15548.25
906.3833	1702.7404	16354.9	15456.65
906.5246	1704.461	16271.75	15368.2
906.666	1706.1808	16209.2	15308.95
906.8073	1707.8999	16198.85	15297.1
906.9487	1709.6182	16107.75	15211.2
907.09	1711.3358	16065.2	15169.45
907.2313	1713.0527	16005.05	15109.65
907.3725	1714.7688	15941.5	15040.45
907.5138	1716.4841	15873.45	14970.9
907.655	1718.1987	15833.05	14927.95
907.7962	1719.9126	15786.8	14888.85
907.9374	1721.6257	15711	14811.6
908.0786	1723.338	15691.25	14795.35
908.2198	1725.0496	15608.7	14711.75
908.3609	1726.7605	15567.85	14667.1
908.502	1728.4706	15515.7	14618.3
908.6431	1730.18	15440.35	14540.45
908.7842	1731.8886	15411.8	14517.85
908.9253	1733.5964	15406.65	14491.35
909.0664	1735.3036	15330.6	14432.7
909.2074	1737.0099	15319.45	14420.95
909.3484	1738.7156	15272.8	14376.8
909.4894	1740.4204	15203.6	14305.3
909.6304	1742.1246	15185.95	14287.1
909.7714	1743.8279	15145.3	14247.25
909.9123	1745.5306	15091.05	14194.8
910.0532	1747.2325	15024.5	14129
910.1941	1748.9336	14946.8	14049.65
910.335	1750.634	14890.95	13989.75
910.4759	1752.3336	14886.65	13989.85
910.6168	1754.0325	14880.55	13986.1
910.7576	1755.7307	14824.8	13930.25
910.8984	1757.4281	14801.85	13906.2
911.0392	1759.1247	14763.6	13855.3
911.18	1760.8206	14749.3	13844.7
911.3208	1762.5158	14722.95	13819.15
911.4615	1764.2102	14641.4	13742.8
911.6022	1765.9039	14608	13715.45
911.7429	1767.5968	14589.35	13695.55
911.8836	1769.289	14530.2	13636.85
912.0243	1770.9804	14501.2	13603.95
912.1649	1772.6711	14474.85	13575.6
912.3056	1774.361	14474.85	13576.9
912.4462	1776.0502	14420.25	13522.6
912.5868	1777.7386	14375.5	13474.05
912.7274	1779.4263	14349.65	13452.05
912.8679	1781.1132	14324.75	13431.8
913.0084	1782.7994	14268.85	13375
913.149	1784.4849	14221.65	13330.15
913.2895	1786.1696	14177.3	13277.65
913.4299	1787.8535	14169.45	13275.6
913.5704	1789.5367	14131.25	13238.25
913.7108	1791.2192	14106.65	13212.85
913.8513	1792.9009	14053.7	13132.45
913.9917	1794.5818	14004.05	13104.45
914.132	1796.2621	13986.4	13091.8
914.2724	1797.9415	13936.75	13038.65
914.4128	1799.6202	13895.05	12997.05
914.5531	1801.2982	13873.3	12976.8
914.6934	1802.9755	13866.45	12969.35
914.8337	1804.6519	13847.05	12951
914.9739	1806.3277	13763.7	12872.6
915.1142	1808.0027	13684	12789.7
915.2544	1809.6769	13697	12807
915.3946	1811.3504	13675.85	12784.7
915.5348	1813.0231	13649.9	12756.65
915.675	1814.6951	13622.45	12728.55
915.8151	1816.3664	13634.35	12737.95
915.9553	1818.0369	13601.1	12704.45
916.0954	1819.7067	13557.95	12663.15
916.2355	1821.3757	13517.45	12618.8
916.3755	1823.044	13521.8	12624.85
916.5156	1824.7115	13464.25	12567.45
916.6556	1826.3783	13417.4	12523.3
916.7956	1828.0443	13374.3	12479.7
916.9356	1829.7096	13334.6	12439.35
917.0756	1831.3741	13318.85	12420.05
917.2155	1833.0379	13291.85	12399.2
917.3555	1834.701	13263.9	12370.6
917.4954	1836.3633	13233.25	12340.1
917.6353	1838.0248	13180.55	12287.1
917.7751	1839.6856	13157.4	12262.8
917.915	1841.3457	13152.75	12257.1
918.0548	1843.005	13092.7	12197.4
918.1946	1844.6636	13112.25	12216.05
918.3344	1846.3214	13058.95	12164.1
918.4742	1847.9785	13098.45	12204.1
918.6139	1849.6349	13022.85	12125.65
918.7537	1851.2904	13005.85	12099.45
918.8934	1852.9453	12971.5	12072.4
919.0331	1854.5994	12928.25	12030.25
919.1727	1856.2528	12932.3	12032.05
919.3124	1857.9054	12866.8	11971.75
919.452	1859.5572	12881.35	11988.95
919.5916	1861.2083	12858.05	11960.8
919.7312	1862.8587	12830.2	11933.2
919.8708	1864.5084	12808.15	11907.15
920.0103	1866.1572	12764.3	11866.2
920.1498	1867.8054	12722.7	11824.3
920.2893	1869.4528	12682.25	11784.3
920.4288	1871.0994	12644.65	11747.7
920.5683	1872.7453	12654.75	11757.95
920.7077	1874.3905	12624.35	11721.25
920.8471	1876.0349	12587.4	11687.45
920.9865	1877.6786	12582.55	11684.5
921.1259	1879.3215	12564.9	11667.25
921.2653	1880.9637	12512.15	11617.1
921.4046	1882.6051	12506.8	11611.95
921.5439	1884.2458	12464.3	11566.8
921.6832	1885.8858	12404.45	11508.45
921.8225	1887.525	12406.65	11511.55
921.9617	1889.1634	12348.7	11453.75
922.101	1890.8011	12309.85	11412
922.2402	1892.4381	12295.15	11399.2
922.3794	1894.0743	12266.5	11370.85
922.5185	1895.7098	12249.4	11353.3
922.6577	1897.3446	12224	11327
922.7968	1898.9786	12183.95	11283.6
922.9359	1900.6118	12145.05	11251.05
923.075	1902.2443	12120.6	11223.55
923.214	1903.8761	12058	11164.25
923.3531	1905.5071	12002.3	11104.3
923.4921	1907.1374	11994.3	11099.45
923.6311	1908.7669	11971.45	11077.8
923.77	1910.3957	11944.3	11049.4
923.909	1912.0237	11874.8	10980.1
924.0479	1913.651	11851.25	10955.4
924.1868	1915.2776	11833.8	10938.45
924.3257	1916.9034	11773.6	10881.45
924.4646	1918.5285	11742.75	10849.5
924.6034	1920.1528	11672.9	10780.2
924.7422	1921.7764	11657.4	10762.4
924.881	1923.3992	11596.65	10702.45
925.0198	1925.0213	11556.6	10662.4
925.1586	1926.6427	11497.1	10605.2
925.2973	1928.2633	11558.05	10596.1
925.436	1929.8832	11465.15	10569.5
925.5747	1931.5023	11423.55	10527.65
925.7134	1933.1207	11398.95	10504.7
925.852	1934.7383	11382.75	10488.05
925.9906	1936.3552	11334.05	10442.5
926.1292	1937.9714	11337.9	10445.25
926.2678	1939.5868	11258.8	10362.9
926.4064	1941.2015	11206.95	10309.6
926.5449	1942.8154	11159.7	10263.6
926.6834	1944.4286	11110.25	10214.85
926.8219	1946.041	11095.55	10180.5
926.9604	1947.6528	11043.6	10143
927.0988	1949.2637	11033.35	10139.4
927.2372	1950.8739	10991.3	10098
927.3756	1952.4834	10958.6	10061.7
927.514	1954.0921	10936.9	10042.65
927.6523	1955.7001	10920.85	10023.65
927.7907	1957.3074	10877.15	9987.6
927.929	1958.9139	10824.6	9934.4
928.0673	1960.5197	10804.95	9912.2
928.2055	1962.1247	10751.1	9863.05
928.3438	1963.729	10731.55	9843.5
928.482	1965.3325	10680.7	9767.8
928.6202	1966.9353	10627.05	9737.9
928.7584	1968.5374	10594.45	9704.05
928.8965	1970.1387	10580.6	9688.55
929.0346	1971.7393	10548.75	9657.3
929.1727	1973.3392	10511.5	9621.45
929.3108	1974.9383	10494.95	9605.85
929.4489	1976.5366	10414.7	9526.65
929.5869	1978.1342	10410.6	9519.45
929.7249	1979.7311	10402.85	9515
929.8629	1981.3273	10373.2	9482.1
930.0009	1982.9227	10332.3	9442.95
930.1388	1984.5173	10306.65	9417.4
930.2767	1986.1112	10253.15	9364.6
930.4146	1987.7044	10227.2	9339.65
930.5525	1989.2968	10212.4	9322.65
930.6904	1990.8885	10188.3	9299.6
930.8282	1992.4795	10183.65	9296.3
930.966	1994.0697	10124.5	9239.35
931.1038	1995.6592	10105.95	9219.6
931.2415	1997.2479	10096.4	9207.4
931.3793	1998.8359	10061.3	9176.8
931.517	2000.4232	10019.05	9134.8
931.6547	2002.0097	9986.75	9103.55
931.7923	2003.5955	9914.1	9028.3
931.93	2005.1805	9952.55	9064.85
932.0676	2006.7648	9907.55	9021.8
932.2052	2008.3484	9878.2	8992.7
932.3427	2009.9312	9886.9	9001.25
932.4803	2011.5133	9829.9	8947.4
932.6178	2013.0946	9801.1	8917.15
932.7553	2014.6752	9769.05	8885.3
932.8928	2016.2551	9756.55	8871
933.0302	2017.8342	9704.2	8818.8
933.1676	2019.4126	9693.1	8810.9
933.305	2020.9902	9628.55	8742.75
933.4424	2022.5672	9621.95	8737.9
933.5798	2024.1433	9608.25	8719.25
933.7171	2025.7188	9556.15	8673.95
933.8544	2027.2935	9558.7	8675.55
933.9917	2028.8674	9516	8631.65
934.129	2030.4406	9491.2	8610.95
934.2662	2032.0131	9435.3	8554
934.4034	2033.5849	9417.9	8531.8
934.5406	2035.1559	9399.55	8516
934.6778	2036.7261	9401.05	8517.3
934.8149	2038.2957	9369	8484.9
934.952	2039.8645	9338.85	8452.25
935.0891	2041.4325	9333.95	8445.65
935.2262	2042.9998	9266.7	8382.25
935.3632	2044.5664	9282.3	8395.4
935.5002	2046.1323	9260.65	8377.9
935.6372	2047.6974	9231.3	8347.45
935.7742	2049.2617	9189.5	8306.8
935.9111	2050.8254	9195.2	8286.65
936.048	2052.3883	9193	8305.65
936.1849	2053.9504	9167.85	8282.55
936.3218	2055.5118	9125.15	8236.85
936.4586	2057.0725	9097.6	8208.4
936.5955	2058.6325	9073.3	8189.65
936.7323	2060.1917	9022.75	8139.7
936.869	2061.7502	9021.1	8135.35
937.0058	2063.3079	8981.5	8097.45
937.1425	2064.8649	8949.1	8062.7
937.2792	2066.4212	8925.7	8039.2
937.4159	2067.9767	8921.4	8035.9
937.5525	2069.5315	8884.6	8000.1
937.6891	2071.0856	8842.9	7958.05
937.8257	2072.6389	8795.2	7910.95
937.9623	2074.1915	8782.95	7902.05
938.0989	2075.7433	8712.85	7827.75
938.2354	2077.2945	8701.15	7819.5
938.3719	2078.8448	8673.15	7786.4
938.5084	2080.3945	8660.35	7773.6
938.6448	2081.9434	8664	7777.65
938.7812	2083.4916	8625.95	7738.2
938.9176	2085.039	8606.15	7716
939.054	2086.5857	8598.1	7707.5
939.1903	2088.1317	8589.85	7700.25
939.3267	2089.677	8550.05	7660.05
939.463	2091.2215	8542.45	7648.8
939.5992	2092.7652	8511.05	7618.35
939.7355	2094.3083	8475.75	7585.2
939.8717	2095.8506	8455.65	7567.5
940.0079	2097.3921	8463.35	7576.7
940.1441	2098.933	8423.4	7537.6
940.2802	2100.4731	8413.4	7526.85
940.4163	2102.0124	8402.2	7507.05
940.5524	2103.5511	8376.35	7487.95
940.6885	2105.089	8375	7487.8
940.8245	2106.6261	8342.2	7456.2
940.9606	2108.1626	8316.75	7428.4
941.0965	2109.6983	8312.95	7397.55
941.2325	2111.2332	8264.65	7377.45
941.3684	2112.7675	8256.45	7366.35
941.5044	2114.301	8249.9	7360.35
941.6403	2115.8337	8221.25	7332.5
941.7761	2117.3657	8226.15	7339.75
941.912	2118.897	8184.05	7294.9
942.0478	2120.4276	8173.65	7280.05
942.1835	2121.9575	8130.55	7240.1
942.3193	2123.4866	8115.85	7224.4
942.455	2125.0149	8097.15	7207.05
942.5907	2126.5426	8064.45	7178.95
942.7264	2128.0695	8045.4	7158.25
942.8621	2129.5956	8028.95	7146.65
942.9977	2131.1211	8005.95	7116.6
943.1333	2132.6458	7970.15	7084.4
943.2689	2134.1698	7990	7102.05
943.4044	2135.693	7949.1	7055.95
943.54	2137.2155	7933.85	7041.1
943.6755	2138.7373	7914	7025.95
943.8109	2140.2584	7887.65	7001.5
943.9464	2141.7787	7876.55	6988
944.0818	2143.2983	7825.45	6943
944.2172	2144.8171	7811.8	6929.45
944.3526	2146.3353	7779	6892.1
944.4879	2147.8527	7755.2	6871.3
944.6232	2149.3693	7758.15	6870.35
944.7585	2150.8853	7745.2	6857.2
944.8938	2152.4005	7687.15	6799.55
945.029	2153.9149	7674.5	6785.2
945.1642	2155.4287	7743.75	6754.45
945.2994	2156.9417	7657.5	6768.4
945.4346	2158.454	7644.65	6756.35
945.5697	2159.9655	7597.7	6711.6
945.7048	2161.4764	7620.2	6733.55
945.8399	2162.9865	7564.6	6677.9
945.9749	2164.4958	7552.3	6667.5
946.1099	2166.0045	7517.85	6629.7
946.2449	2167.5124	7509.65	6623.05
946.3799	2169.0195	7499.6	6612.95
946.5148	2170.526	7494.4	6605.75
946.6498	2172.0317	7474.9	6588.05
946.7846	2173.5367	7454.7	6567.35
946.9195	2175.0409	7407.85	6521.55
947.0543	2176.5445	7411.7	6525.6
947.1891	2178.0473	7389	6498.45
947.3239	2179.5494	7362.15	6473
947.4587	2181.0507	7337.45	6449.9
947.5934	2182.5513	7326.75	6440.45
947.7281	2184.0512	7306.05	6419.8
947.8628	2185.5504	7269.45	6380.1
947.9974	2187.0488	7235.1	6350.45
948.132	2188.5465	7237.75	6351.4
948.2666	2190.0435	7207.15	6322.1
948.4012	2191.5397	7194.1	6306.1
948.5357	2193.0353	7160.25	6269.95
948.6702	2194.5301	7112.75	6221.75
948.8047	2196.0241	7099.65	6209
948.9392	2197.5175	7078	6189.65
949.0736	2199.0101	7084.95	6191.2
949.208	2200.502	7050.75	6161.75
949.3424	2201.9931	7025.05	6140.4
949.4767	2203.4835	6999.7	6113.5
949.611	2204.9733	6994.95	6092.75
949.7453	2206.4622	6978.6	6095.15
949.8796	2207.9505	6943.75	6055.6
950.0138	2209.438	6916.7	6033.95
950.148	2210.9248	6889.55	6003.55
950.2822	2212.4109	6861.75	5974.4
950.4164	2213.8962	6852.45	5960.9
950.5505	2215.3809	6852.05	5961.75
950.6846	2216.8648	6813.95	5924.55
950.8186	2218.3479	6794.5	5898.25
950.9527	2219.8304	6782.3	5886.65
951.0867	2221.3121	6739.7	5845.75
951.2207	2222.7931	6719.9	5829.4
951.3546	2224.2733	6693.75	5805.35
951.4886	2225.7529	6694.8	5807.6
951.6225	2227.2317	6654	5763.15
951.7563	2228.7098	6651.35	5766.3
951.8902	2230.1872	6635.95	5751.75
952.024	2231.6638	6634.05	5749.85
952.1578	2233.1397	6589.05	5699.05
952.2916	2234.6149	6576.9	5689.9
952.4253	2236.0894	6556.9	5669.4
952.559	2237.5632	6544.1	5655.05
952.6927	2239.0362	6511.05	5624.95
952.8263	2240.5085	6502.45	5615.8
952.9599	2241.9801	6486.7	5598.75
953.0935	2243.4509	6451.3	5562.45
953.2271	2244.921	6445.6	5555.75
953.3606	2246.3904	6422.35	5525.7
953.4941	2247.8591	6403.7	5515.65
953.6276	2249.3271	6382.65	5495.35
953.7611	2250.7943	6359.45	5468.6
953.8945	2252.2608	6338.1	5447.35
954.0279	2253.7266	6315.4	5428.55
954.1612	2255.1917	6287.7	5400.85
954.2946	2256.656	6282.35	5395.15
954.4279	2258.1197	6250.85	5365.5
954.5612	2259.5826	6257.15	5370.25
954.6944	2261.0447	6245.1	5354.25
954.8276	2262.5062	6245.2	5354
954.9608	2263.9669	6208.9	5319.5
955.094	2265.4269	6207.7	5319.5
955.2271	2266.8862	6165.45	5276.5
955.3602	2268.3448	6171.9	5284.85
955.4933	2269.8026	6156.85	5269.75
955.6264	2271.2598	6135.95	5251.35
955.7594	2272.7162	6122.05	5235.6
955.8924	2274.1719	6104.6	5213.5
956.0253	2275.6268	6083.35	5191.45
956.1583	2277.0811	6067.9	5179.15
956.2912	2278.5346	6055.25	5169.15
956.4241	2279.9874	6047.25	5161.6
956.5569	2281.4395	6042.75	5156.55
956.6897	2282.8908	6034.8	5143.95
956.8225	2284.3414	5992.35	5102.2
956.9553	2285.7914	5957.3	5071.6
957.088	2287.2406	5961.75	5070.2
957.2207	2288.689	5955.35	5067.2
957.3534	2290.1368	5934	5040.65
957.486	2291.5838	5913.25	5020.7
957.6186	2293.0302	5909.45	5016.5
957.7512	2294.4758	5888.6	4998
957.8838	2295.9206	5868.2	4977.95
958.0163	2297.3648	5846.15	4958.8
958.1488	2298.8082	5848.55	4960.2
958.2813	2300.251	5808.35	4918.35
958.4137	2301.693	5786.45	4894.3
958.5461	2303.1343	5792.6	4902.45
958.6785	2304.5748	5781.55	4894.3
958.8108	2306.0147	5753.7	4867.25
958.9432	2307.4538	5738.55	4849.95
959.0754	2308.8922	5730.8	4848.15
959.2077	2310.3299	5706.7	4820.9
959.3399	2311.7669	5693.9	4808.25
959.4721	2313.2031	5691.3	4800.75
959.6043	2314.6387	5664.2	4774.7
959.7365	2316.0735	5652.45	4764.85
959.8686	2317.5076	5649.4	4761.55
960.0006	2318.941	5624.35	4736.25
960.1327	2320.3737	5603.45	4711.5
960.2647	2321.8056	5594.95	4702.7
960.3967	2323.2369	5565.55	4677.1
960.5287	2324.6674	5566.65	4676
960.6606	2326.0972	5540.15	4648.65
960.7925	2327.5263	5542.4	4654.65
960.9244	2328.9547	5503.75	4614.7
961.0562	2330.3823	5495.55	4603.9
961.1881	2331.8092	5479.75	4586.35
961.3198	2333.2355	5466.45	4574.95
961.4516	2334.661	5467.45	4577.65
961.5833	2336.0858	5445.3	4554.4
961.715	2337.5098	5444.45	4554.7
961.8467	2338.9332	5418.9	4528.35
961.9783	2340.3558	5408.2	4516.4
962.1099	2341.7778	5381.6	4495.4
962.2415	2343.199	5362.6	4472.25
962.373	2344.6195	5330.85	4442.15
962.5045	2346.0393	5341.05	4454.15
962.636	2347.4583	5338.45	4450.75
962.7675	2348.8767	5309.8	4421.35
962.8989	2350.2943	5305.05	4414.35
963.0303	2351.7113	5314.25	4422.55
963.1617	2353.1275	5285.05	4393.95
963.293	2354.543	5309.1	4393.25
963.4243	2355.9578	5263.15	4371.95
963.5556	2357.3718	5231.55	4343.15
963.6868	2358.7852	5195.75	4307.2
963.818	2360.1978	5195.1	4306.55
963.9492	2361.6098	5177.25	4288.85
964.0803	2363.021	5177.95	4285.2
964.2114	2364.4315	5152.4	4262.95
964.3425	2365.8413	5141.15	4251.3
964.4736	2367.2504	5120.1	4233.8
964.6046	2368.6587	5109.9	4222.05
964.7356	2370.0664	5076.65	4188.2
964.8666	2371.4733	5079.95	4190
964.9975	2372.8795	5076.9	4187.8
965.1284	2374.285	5036.35	4148.4
965.2593	2375.6899	5012.85	4125.15
965.3901	2377.0939	5013.3	4124.2
965.5209	2378.4973	4989.2	4101.85
965.6517	2379.9	4971	4082.15
965.7825	2381.3019	4976.1	4090.65
965.9132	2382.7032	4966.25	4079.15
966.0439	2384.1037	4958.6	4073.45
966.1745	2385.5035	4919	4033.45
966.3051	2386.9027	4908.75	4022.4
966.4357	2388.3011	4907.1	4017.25
966.5663	2389.6987	4889.9	4003.4
966.6968	2391.0957	4873.85	3986.35
966.8273	2392.492	4840.05	3954.35
966.9578	2393.8876	4817.6	3930.6
967.0882	2395.2824	4818	3930.7
967.2186	2396.6765	4795.15	3906.45
967.349	2398.07	4784.05	3893.3
967.4793	2399.4627	4796.95	3905.3
967.6097	2400.8547	4765.4	3874.8
967.7399	2402.246	4754.55	3859.3
967.8702	2403.6366	4715.95	3826
968.0004	2405.0265	4717.75	3829.85
968.1306	2406.4156	4711.75	3820.6
968.2607	2407.8041	4690.8	3797.85
968.3909	2409.1918	4679.5	3787.5
968.521	2410.5789	4656.9	3768.35
968.651	2411.9652	4650.25	3757.2
968.781	2413.3508	4623.6	3734.1
968.911	2414.7358	4618.6	3728.55
969.041	2416.12	4602.15	3714.3
969.1709	2417.5035	4605.35	3716.85
969.3008	2418.8863	4579.6	3688.9
969.4307	2420.2684	4564.45	3673.45
969.5606	2421.6497	4538.7	3646.2
969.6904	2423.0304	4518.45	3630.7
969.8201	2424.4104	4514.05	3624.45
969.9499	2425.7896	4501.15	3609.15
970.0796	2427.1682	4492.05	3603.55
970.2093	2428.546	4479.5	3591.6
970.3389	2429.9232	4463.35	3573.35
970.4685	2431.2996	4442.6	3555.25
970.5981	2432.6753	4443.6	3555.1
970.7277	2434.0503	4431.65	3541.7
970.8572	2435.4246	4419.25	3532.35
970.9867	2436.7982	4393.2	3500.45
971.1161	2438.1711	4389.4	3499.75
971.2456	2439.5433	4397.9	3506.6
971.375	2440.9148	4373.4	3479.3
971.5043	2442.2856	4337.95	3446.95
971.6336	2443.6557	4334.9	3446.9
971.7629	2445.025	4321.95	3432.35
971.8922	2446.3937	4311.35	3420.6
972.0214	2447.7617	4301.85	3412.05
972.1506	2449.1289	4282.4	3395.95
972.2798	2450.4955	4283.25	3390.4
972.4089	2451.8613	4269.65	3382.35
972.538	2453.2265	4267.35	3378.55
972.6671	2454.5909	4251.7	3362.7
972.7961	2455.9546	4245.75	3357.7
972.9251	2457.3177	4226.75	3337.2
973.0541	2458.68	4221.1	3331.4
973.1831	2460.0416	4218.45	3328.75
973.312	2461.4025	4209.65	3319.55
973.4408	2462.7627	4191.9	3291.8
973.5697	2464.1222	4181.45	3295.05
973.6985	2465.4811	4188.45	3301.45
973.8273	2466.8392	4153.55	3266.05
973.956	2468.1966	4165.5	3274.85
974.0847	2469.5533	4154.15	3264.05
974.2134	2470.9093	4139.95	3250
974.3421	2472.2645	4118.85	3228.05
974.4707	2473.6191	4121.15	3232.15
974.5993	2474.973	4120.1	3229.7
974.7278	2476.3262	4105.45	3215.2
974.8563	2477.6787	4091.05	3202.55
974.9848	2479.0305	4082.45	3195.65
975.1132	2480.3816	4056.5	3164.45
975.2417	2481.7319	4047.15	3159.1
975.37	2483.0816	4017.05	3128.4
975.4984	2484.4306	4009.8	3121.35
975.6267	2485.7789	3989.05	3102.25
975.755	2487.1264	4004.9	3115.65
975.8833	2488.4733	3977.05	3089.45
976.0115	2489.8195	3959.65	3065.3
976.1397	2491.165	3948.5	3056.5
976.2678	2492.5097	3951.25	3061.85
976.3959	2493.8538	3934.85	3048.35
976.524	2495.1972	3906.95	3017.15
976.6521	2496.5398	3905.7	3015.5
976.7801	2497.8818	3895.5	3004.1
976.9081	2499.2231	3880.8	2989
977.036	2500.5637	3855.95	2963.5
977.164	2501.9035	3857.5	2966.05
977.2918	2503.2427	3862.55	2970.1
977.4197	2504.5812	3840.4	2949.7
977.5475	2505.919	3835.2	2944.2
977.6753	2507.256	3842.9	2955.65
977.8031	2508.5924	3811.15	2924.15
977.9308	2509.9281	3806.65	2914.9
978.0585	2511.2631	3780.6	2892.35
978.1861	2512.5974	3779.1	2890.6
978.3137	2513.9309	3780.15	2892.3
978.4413	2515.2638	3769.95	2857.8
978.5689	2516.596	3749.35	2860.5
978.6964	2517.9275	3730.6	2839.85
978.8239	2519.2583	3716.7	2827.85
978.9513	2520.5884	3703.8	2812.9
979.0788	2521.9178	3691.1	2800.5
979.2062	2523.2465	3708.25	2821.35
979.3335	2524.5745	3683	2796.4
979.4608	2525.9018	3660.5	2771.7
979.5881	2527.2284	3665.5	2777
979.7154	2528.5543	3656.2	2769.65
979.8426	2529.8796	3647.1	2759.4
979.9698	2531.2041	3638.45	2748.75
980.0969	2532.5279	3632.3	2744.7
980.224	2533.851	3615.65	2728.85
980.3511	2535.1735	3613.3	2725.8
980.4781	2536.4952	3608.2	2719.75
980.6052	2537.8163	3603	2713.3
980.7321	2539.1366	3599.15	2711.7
980.8591	2540.4562	3582.35	2692.2
980.986	2541.7752	3590.15	2699.75
981.1129	2543.0935	3586.3	2698.45
981.2397	2544.411	3584.4	2694.15
981.3665	2545.7279	3566.2	2679.25
981.4933	2547.0441	3566.95	2677.15
981.62	2548.3596	3570.3	2678.75
981.7467	2549.6744	3561.7	2673
981.8734	2550.9885	3537.55	2646.75
982.0001	2552.3019	3528.65	2636.85
982.1267	2553.6146	3517.2	2627.75
982.2532	2554.9266	3520.8	2630.3
982.3798	2556.2379	3497.85	2606.1
982.5063	2557.5485	3505.6	2618.6
982.6327	2558.8585	3492.2	2595.15
982.7592	2560.1677	3488.2	2594.85
982.8856	2561.4762	3493.85	2604.55
983.0119	2562.7841	3484.15	2591.9
983.1383	2564.0913	3466.15	2577.55
983.2646	2565.3977	3461.75	2572.6
983.3908	2566.7035	3452.55	2563
983.517	2568.0086	3442.25	2552.15
983.6432	2569.313	3431.85	2540.45
983.7694	2570.6167	3431.1	2538.45
983.8955	2571.9197	3419.95	2530.7
984.0216	2573.222	3431.9	2539.55
984.1476	2574.5236	3418.7	2528.4
984.2737	2575.8246	3418.45	2526.65
984.3996	2577.1248	3397.3	2504.5
984.5256	2578.4244	3391.1	2503.85
984.6515	2579.7232	3398.1	2508.6
984.7774	2581.0214	3406.35	2485.7
984.9032	2582.3189	3392.1	2504.25
985.029	2583.6157	3387.4	2494.2
985.1548	2584.9118	3368.55	2476.55
985.2806	2586.2072	3356.5	2467.6
985.4063	2587.5019	3348.4	2457.6
985.5319	2588.7959	3341.05	2450.6
985.6576	2590.0893	3343.85	2451.05
985.7832	2591.3819	3338.55	2448
985.9087	2592.6739	3312	2422.35
986.0343	2593.9652	3325.45	2434.15
986.1597	2595.2557	3321.05	2432.2
986.2852	2596.5456	3304.1	2413.85
986.4106	2597.8348	3304.95	2417.8
986.536	2599.1234	3282	2392.95
986.6614	2600.4112	3278.25	2390.9
986.7867	2601.6983	3277.35	2384.85
986.912	2602.9848	3265.3	2376.15
987.0372	2604.2705	3259.3	2363.25
987.1624	2605.5556	3262.3	2371.45
987.2876	2606.84	3230.9	2342.25
987.4128	2608.1237	3233.6	2343.6
987.5379	2609.4067	3231.5	2340.3
987.6629	2610.689	3219.4	2321.05
987.788	2611.9707	3219.4	2326.85
987.913	2613.2516	3199.2	2304.85
988.0379	2614.5319	3171.45	2283.4
988.1629	2615.8115	3175.75	2287.25
988.2878	2617.0903	3158.5	2268.55
988.4126	2618.3685	3140.85	2252.1
988.5375	2619.6461	3124.4	2233.95
988.6622	2620.9229	3123.55	2235.45
988.787	2622.199	3128.65	2237.4
988.9117	2623.4745	3117.85	2226.85
989.0364	2624.7493	3124.65	2237.7
989.161	2626.0234	3107.1	2218.45
989.2857	2627.2968	3093.15	2203.35
989.4102	2628.5695	3074.85	2187.05
989.5348	2629.8415	3082.05	2195.5
989.6593	2631.1128	3078.65	2186.7
989.7837	2632.3835	3051.6	2162.85
989.9082	2633.6535	3033	2144.65
990.0326	2634.9228	3035.9	2147.85
990.1569	2636.1914	3040.7	2153.45
990.2812	2637.4593	3020.5	2128.75
990.4055	2638.7265	3021.85	2133.05
990.5298	2639.9931	3021.35	2130.3
990.654	2641.259	3008.05	2119.7
990.7782	2642.5242	3004.5	2114.15
990.9023	2643.7887	2997.55	2109.2
991.0264	2645.0525	2974.5	2087.45
991.1505	2646.3156	2989.55	2085.65
991.2745	2647.5781	2971.95	2083.85
991.3985	2648.8398	2958.45	2071.35
991.5225	2650.1009	2971.25	2059.25
991.6464	2651.3613	2960.2	2069.7
991.7703	2652.6211	2943	2055.7
991.8942	2653.8801	2941.45	2053.1
992.018	2655.1385	2940.85	2049.25
992.1418	2656.3961	2923.7	2036.55
992.2655	2657.6531	2927.1	2038.75
992.3892	2658.9094	2908.95	2022.25
992.5129	2660.1651	2900.85	2014.25
992.6366	2661.42	2908.2	2019.85
992.7602	2662.6743	2910.55	2021.7
992.8837	2663.9279	2905.25	2017
993.0073	2665.1808	2891.35	2001
993.1307	2666.433	2895	2004.1
993.2542	2667.6846	2880.25	1991.6
993.3776	2668.9354	2887.5	1995.4
993.501	2670.1856	2864.95	1976.5
993.6244	2671.4351	2867.35	1980.7
993.7477	2672.6839	2885.75	1996.45
993.8709	2673.9321	2856.25	1968.45
993.9942	2675.1795	2872.8	1983.9
994.1174	2676.4263	2859.05	1970.85
994.2405	2677.6724	2850.15	1962.2
994.3637	2678.9179	2842.6	1953.95
994.4868	2680.1626	2842.95	1956.05
994.6098	2681.4067	2835.25	1947.2
994.7328	2682.6501	2822.85	1937.95
994.8558	2683.8928	2828.2	1939.45
994.9788	2685.1348	2816.2	1927.05
995.1017	2686.3761	2802.45	1915.05
995.2245	2687.6168	2801.9	1911.5
995.3474	2688.8568	2782.7	1893.8
995.4702	2690.0961	2771.3	1883.75
995.5929	2691.3348	2779.15	1890.1
995.7156	2692.5727	2776.15	1889.15
995.8383	2693.81	2769.8	1880.4
995.961	2695.0466	2764.95	1879.4
996.0836	2696.2826	2744.45	1853.75
996.2062	2697.5178	2745.2	1855.45
996.3287	2698.7524	2724.85	1836.05
996.4512	2699.9863	2729.6	1838.6
996.5737	2701.2195	2732.15	1845.6
996.6961	2702.452	2728.65	1841.9
996.8185	2703.6839	2728.2	1837.6
996.9408	2704.9151	2715.6	1828.95
997.0631	2706.1456	2718.75	1829.55
997.1854	2707.3755	2710.6	1820.7
997.3077	2708.6046	2714	1824.3
997.4299	2709.8331	2713.55	1825.15
997.552	2711.0609	2705.35	1817.7
997.6742	2712.2881	2707.75	1819.4
997.7963	2713.5145	2711.65	1821.4
997.9183	2714.7403	2705.5	1816.4
998.0403	2715.9654	2717.8	1827.8
998.1623	2717.1899	2728.05	1827.95
998.2842	2718.4136	2725.5	1837.15
998.4062	2719.6367	2709.05	1821.55
998.528	2720.8591	2722.75	1827.95
998.6498	2722.0809	2714.2	1825.4
998.7716	2723.3019	2720.85	1828.6
998.8934	2724.5223	2716.05	1826.75
999.0151	2725.7421	2711.65	1823.05
999.1368	2726.9611	2720.2	1831.2
999.2584	2728.1795	2721.4	1828.8
999.38	2729.3972	2688.25	1803.2
999.5016	2730.6142	2690.6	1794.2
999.6231	2731.8306	2659.2	1772.55
999.7446	2733.0462	2665.6	1776.1
999.8661	2734.2612	2643.95	1752.7
999.9875	2735.4756	2626.3	1736
1000.1089	2736.6892	2607.9	1720.35
1000.2302	2737.9022	2587.35	1702.1
1000.3515	2739.1145	2568.5	1682.2
1000.4728	2740.3262	2574.7	1678.1
1000.594	2741.5372	2546.55	1660.45
1000.7152	2742.7475	2533.15	1646.35
1000.8363	2743.9571	2515.45	1626.55
1000.9575	2745.1661	2517.85	1627.85
1001.0785	2746.3744	2499.75	1610.1
1001.1996	2747.582	2495.5	1607.3
1001.3206	2748.7889	2478.75	1590.7
1001.4415	2749.9952	2475.3	1587.2
1001.5625	2751.2008	2448.25	1561
1001.6833	2752.4057	2447.15	1558.5
1001.8042	2753.61	2443	1555.65
1001.925	2754.8136	2444.75	1555.95
1002.0458	2756.0165	2431.85	1547.15
1002.1665	2757.2188	2419.95	1535.8
1002.2872	2758.4204	2412.6	1526.1
1002.4078	2759.6213	2416.4	1527.25
1002.5285	2760.8215	2412.7	1523.1
1002.649	2762.0211	2406.4	1518.5
1002.7696	2763.22	2398.65	1510.95
1002.8901	2764.4182	2404.9	1516.35
1003.0106	2765.6158	2391.15	1504.85
1003.131	2766.8127	2372.1	1486.35
1003.2514	2768.009	2369.3	1480.8
1003.3717	2769.2045	2370.55	1482.6
1003.492	2770.3994	2366.4	1475.35
1003.6123	2771.5936	2353.8	1465.3
1003.7325	2772.7872	2345.1	1457.9
1003.8527	2773.9801	2341.25	1453.7
1003.9729	2775.1723	2357.75	1454.4
1004.093	2776.3639	2337.7	1452.35
1004.2131	2777.5548	2318.8	1432.3
1004.3331	2778.745	2335.4	1448.35
1004.4531	2779.9346	2328.95	1442.4
1004.5731	2781.1235	2322.45	1433.05
1004.693	2782.3117	2311.4	1426.45
1004.8129	2783.4992	2316.15	1428.8
1004.9328	2784.6861	2306.35	1420.2
1005.0526	2785.8723	2296.6	1408.85
1005.1723	2787.0579	2299.4	1412.75
1005.2921	2788.2428	2295.55	1410.5
1005.4118	2789.427	2285.55	1400.35
1005.5314	2790.6106	2303.65	1417.8
1005.651	2791.7935	2301.05	1413.4
1005.7706	2792.9757	2300.55	1414.1
1005.8902	2794.1573	2319.4	1430.5
1006.0097	2795.3382	2311.55	1426.15
1006.1291	2796.5184	2315.7	1432.25
1006.2485	2797.698	2330.25	1444.1
1006.3679	2798.8769	2330.85	1445.3
1006.4873	2800.0551	2323.9	1438.2
1006.6066	2801.2327	2327.05	1438.95
1006.7258	2802.4096	2337.05	1451.85
1006.8451	2803.5859	2346.65	1459.4
1006.9642	2804.7615	2354.65	1468.95
1007.0834	2805.9364	2363.15	1479.4
1007.2025	2807.1106	2377.7	1490.15
1007.3216	2808.2842	2399.6	1511.45
1007.4406	2809.4572	2412.8	1526.5
1007.5596	2810.6294	2439	1554.8
1007.6785	2811.801	2465.5	1582.55
1007.7975	2812.972	2483.3	1600.85
1007.9163	2814.1423	2518.5	1632.85
1008.0352	2815.3119	2544.55	1658.8
1008.154	2816.4808	2577.55	1693.15
1008.2727	2817.6491	2599.6	1714.7
1008.3914	2818.8167	2640.25	1754.2
1008.5101	2819.9837	2676.7	1785.6
1008.6288	2821.15	2724.6	1840.7
1008.7474	2822.3157	2744.05	1858.4
1008.8659	2823.4807	2783.5	1897.75
1008.9844	2824.645	2829	1941.25
1009.1029	2825.8086	2854.15	1969
1009.2214	2826.9716	2906.35	2022.75
1009.3398	2828.134	2932.25	2047.35
1009.4581	2829.2957	2962.65	2079.35
1009.5764	2830.4567	2972.1	2086.9
1009.6947	2831.617	2994.35	2110.85
1009.813	2832.7767	2999.65	2115.55
1009.9312	2833.9358	3013.45	2130.3
1010.0493	2835.0941	2996.9	2110.35
1010.1675	2836.2519	2989.25	2104.45
1010.2855	2837.4089	2951.7	2064.8
1010.4036	2838.5653	2957.15	2070.9
1010.5216	2839.7211	2947	2063.4
1010.6396	2840.8761	2939.25	2054.9
1010.7575	2842.0306	2952.7	2068.3
1010.8754	2843.1843	2974.95	2091.1
1010.9932	2844.3374	3001.1	2117.75
1011.111	2845.4899	3022.65	2135.25
1011.2288	2846.6417	3060.05	2172.95
1011.3465	2847.7928	3115.5	2229.25
1011.4642	2848.9433	3158.8	2273.25
1011.5818	2850.0931	3210.85	2328.15
1011.6995	2851.2422	3273.25	2385.65
1011.817	2852.3907	3305.4	2419.1
1011.9345	2853.5385	3345.95	2459.75
1012.052	2854.6857	3389.15	2493.9
1012.1695	2855.8323	3424.1	2541.25
1012.2869	2856.9781	3446.65	2562.25
1012.4042	2858.1233	3482.85	2598.05
1012.5216	2859.2679	3516.85	2633.15
1012.6389	2860.4118	3562.15	2677.15
1012.7561	2861.555	3585.4	2695.05
1012.8733	2862.6976	3612.35	2725.3
1012.9905	2863.8395	3612.3	2727.35
1013.1076	2864.9808	3640.85	2756.85
1013.2247	2866.1214	3651.8	2768.65
1013.3417	2867.2614	3668.3	2783.1
1013.4587	2868.4007	3663.8	2778.25
1013.5757	2869.5393	3669.1	2782.1
1013.6926	2870.6773	3699.95	2812.15
1013.8095	2871.8146	3704.85	2815.35
1013.9263	2872.9513	3691.6	2804.05
1014.0431	2874.0874	3695.95	2811.85
1014.1599	2875.2227	3682.9	2798.35
1014.2766	2876.3574	3667.2	2783.05
1014.3933	2877.4915	3622.6	2738.7
1014.51	2878.6249	3604.75	2718.85
1014.6266	2879.7577	3604.35	2718
1014.7431	2880.8898	3579.55	2685.1
1014.8596	2882.0212	3555.65	2672.2
1014.9761	2883.152	3557.2	2672.9
1015.0925	2884.2821	3538.9	2655.75
1015.2089	2885.4116	3521.3	2638.6
1015.3253	2886.5405	3530.85	2646.75
1015.4416	2887.6686	3530.5	2642.8
1015.5579	2888.7962	3521.3	2637.5
1015.6741	2889.923	3518.45	2636.45
1015.7903	2891.0493	3523.45	2639.15
1015.9065	2892.1748	3527.65	2641.8
1016.0226	2893.2997	3534.1	2650.5
1016.1387	2894.424	3540.65	2658.55
1016.2547	2895.5476	3547.3	2663.05
1016.3707	2896.6706	3549.5	2665.6
1016.4866	2897.7929	3585.5	2700.8
1016.6025	2898.9145	3592.95	2709.95
1016.7184	2900.0355	3611.25	2723.75
1016.8342	2901.1559	3624.05	2740.45
1016.95	2902.2756	3638.55	2756.25
1017.0658	2903.3946	3670.9	2788
1017.1815	2904.513	3681.9	2795.15
1017.2971	2905.6308	3693.15	2810.7
1017.4127	2906.7479	3720.2	2836.9
1017.5283	2907.8643	3734.6	2849.8
1017.6439	2908.9801	3732.7	2849.45
1017.7594	2910.0953	3739.8	2857.7
1017.8748	2911.2098	3743.65	2856.15
1017.9902	2912.3236	3728.9	2835.65
1018.1056	2913.4368	3730.95	2843.5
1018.2209	2914.5494	3701.1	2814.85
1018.3362	2915.6613	3676.05	2785.75
1018.4515	2916.7725	3664.65	2778.25
1018.5667	2917.8831	3627.9	2743.15
1018.6819	2918.9931	3608.75	2723.2
1018.797	2920.1024	3589.7	2705.55
1018.9121	2921.211	3561.75	2678.1
1019.0271	2922.319	3551.85	2667.6
1019.1421	2923.4264	3527.85	2644.2
1019.2571	2924.5331	3513.95	2629.3
1019.372	2925.6391	3517.95	2633.15
1019.4869	2926.7445	3502	2620.15
1019.6017	2927.8493	3497.3	2612.05
1019.7165	2928.9534	3498.65	2613.35
1019.8313	2930.0569	3496.45	2610.75
1019.946	2931.1597	3501.45	2617.55
1020.0606	2932.2619	3482.7	2599.5
1020.1753	2933.3634	3515.3	2632.15
1020.2899	2934.4643	3500.15	2612.25
1020.4044	2935.5645	3484.45	2595.15
1020.5189	2936.6641	3451.8	2564.6
1020.6334	2937.763	3424.65	2542.45
1020.7478	2938.8613	3389.55	2504.2
1020.8622	2939.959	3372.8	2484.75
1020.9765	2941.056	3303.65	2420.25
1021.0908	2942.1523	3261.3	2376.35
1021.2051	2943.248	3173.05	2289.25
1021.3193	2944.3431	3104.65	2220.35
1021.4334	2945.4375	3026.8	2141.1
1021.5476	2946.5313	2952.8	2073.6
1021.6617	2947.6244	2885.45	2002
1021.7757	2948.7169	2802.15	1916.25
1021.8897	2949.8087	2732	1847.45
1022.0037	2950.8999	2676.25	1791.2
1022.1176	2951.9904	2598	1715.65
1022.2315	2953.0803	2550.5	1665.55
1022.3453	2954.1696	2492.05	1608.7
1022.4591	2955.2582	2462	1578.05
1022.5728	2956.3462	2413.7	1530.65
1022.6865	2957.4335	2377.3	1493.15
1022.8002	2958.5202	2359.6	1472.5
1022.9138	2959.6062	2324.75	1444.05
1023.0274	2960.6916	2309.3	1426.9
1023.141	2961.7764	2291.1	1406.85
1023.2545	2962.8605	2287.25	1404.3
1023.3679	2963.9439	2278.65	1396.35
1023.4813	2965.0267	2253.1	1367.65
1023.5947	2966.1089	2261.25	1356.25
1023.708	2967.1905	2235.05	1351.5
1023.8213	2968.2714	2231.55	1349.9
1023.9346	2969.3516	2234.2	1351.45
1024.0478	2970.4312	2233.7	1343.8
1024.1609	2971.5102	2221.6	1337.35
1024.274	2972.5885	2218.6	1336.1
1024.3871	2973.6662	2229.85	1340.45
1024.5002	2974.7432	2222.35	1339.4
1024.6132	2975.8196	2215.15	1333.4
1024.7261	2976.8954	2204.9	1324.6
1024.839	2977.9705	2190.8	1308.05
1024.9519	2979.045	2193.5	1312.55
1025.0647	2980.1188	2174.6	1290.45
1025.1775	2981.192	2169.25	1286.55
1025.2902	2982.2645	2151.5	1266.65
1025.4029	2983.3364	2132.25	1247.7
1025.5156	2984.4077	2109.75	1226.15
1025.6282	2985.4783	2079.85	1192.9
1025.7407	2986.5483	2057.55	1174.65
1025.8532	2987.6177	2037.1	1155.55
1025.9657	2988.6864	2005.85	1123.4
1026.0782	2989.7545	1971.9	1087.75
1026.1906	2990.8219	1957.95	1076.55
1026.3029	2991.8887	1921.5	1036.85
1026.4152	2992.9548	1898.4	1015.2
1026.5275	2994.0204	1872.4	989.95
1026.6397	2995.0852	1853.25	972.75
1026.7519	2996.1495	1831.65	946.65
1026.864	2997.2131	1801.8	919.4
1026.9761	2998.276	1789.95	905.35
1027.0882	2999.3383	1778.25	893.55
1027.2002	3000.4	1749.65	864.45
1027.3122	3001.4611	1730.35	846.45
1027.4241	3002.5215	1723.45	838.45
1027.536	3003.5812	1707.45	824.15
1027.6478	3004.6404	1699.45	818.2
1027.7596	3005.6989	1687.05	803.45
1027.8714	3006.7567	1677.85	795.05
1027.9831	3007.8139	1682.4	784.05
1028.0947	3008.8705	1658.4	775.9
1028.2064	3009.9264	1666	767.9
1028.3179	3010.9818	1636.7	754.65
1028.4295	3012.0364	1643.8	760.8
1028.541	3013.0905	1637.2	757.1
1028.6524	3014.1439	1621.8	739.1
1028.7638	3015.1966	1624.45	740.3
1028.8752	3016.2487	1620.85	739.6
1028.9865	3017.3002	1619.15	731.5
1029.0978	3018.3511	1614.7	731
1029.209	3019.4013	1605.4	722.9
1029.3202	3020.4509	1601.45	720.65
1029.4314	3021.4998	1608.4	726.05
1029.5425	3022.5481	1597.75	715.2
1029.6535	3023.5958	1595.75	711.6
1029.7645	3024.6428	1595.85	712.85
1029.8755	3025.6892	1595.5	712.95
1029.9864	3026.735	1602.65	718.6
1030.0973	3027.7802	1590.95	709.7
1030.2082	3028.8247	1592.75	711.25
1030.319	3029.8685	1591.5	707.4
1030.4297	3030.9118	1585.85	702.85
1030.5404	3031.9544	1591.05	708.1
1030.6511	3032.9963	1592.4	709.6
1030.7617	3034.0376	1588.5	705.85
1030.8723	3035.0783	1584.8	700.95
1030.9829	3036.1184	1588.7	707.05
1031.0934	3037.1578	1582.75	701.35
1031.2038	3038.1966	1584.9	701.5
1031.3142	3039.2348	1585.4	704.5
1031.4246	3040.2723	1592.1	700.25
1031.5349	3041.3092	1580.65	699.9
1031.6452	3042.3455	1576.05	693.8
1031.7554	3043.3811	1579.65	698
1031.8656	3044.4161	1571.65	689.2
1031.9758	3045.4505	1566.9	684.7
1032.0859	3046.4842	1570.25	689.05
1032.1959	3047.5173	1567.25	685.7
1032.3059	3048.5498	1565.8	685.65
1032.4159	3049.5816	1558.7	676.2
1032.5258	3050.6128	1551.4	666.75
1032.6357	3051.6434	1547.8	666.1
1032.7455	3052.6734	1542.8	660.5
1032.8553	3053.7027	1542	659.2
1032.9651	3054.7314	1535.05	654.45
1033.0748	3055.7594	1524.25	643.95
1033.1845	3056.7868	1521.75	638.75
1033.2941	3057.8136	1523.85	641.35
1033.4037	3058.8398	1511.35	631.3
1033.5132	3059.8653	1512.35	629.4
1033.6227	3060.8902	1509.45	625.4
1033.7321	3061.9145	1501.85	622.45
1033.8415	3062.9381	1501.6	619.9
1033.9509	3063.9612	1504.05	606.2
1034.0602	3064.9835	1497	616.8
1034.1694	3066.0053	1487.7	602.75
1034.2787	3067.0264	1479.85	599.2
1034.3878	3068.0469	1478.2	595.25
1034.497	3069.0668	1475.9	592.85
1034.6061	3070.086	1460.65	580.2
1034.7151	3071.1046	1461.5	577.9
1034.8241	3072.1226	1452.3	571.4
1034.9331	3073.1399	1449.85	568.35
1035.042	3074.1567	1437.45	555.95
1035.1508	3075.1727	1429.45	544.7
1035.2597	3076.1882	1428.05	545.7
1035.3684	3077.203	1416.25	533.75
1035.4772	3078.2173	1413.8	529.85
1035.5859	3079.2308	1406.9	522.05
1035.6945	3080.2438	1398.85	516.35
1035.8031	3081.2561	1388.4	505.7
1035.9117	3082.2678	1386.95	506.45
1036.0202	3083.2789	1378.15	495.65
1036.1286	3084.2893	1376.45	492.95
1036.2371	3085.2991	1367.85	485.6
1036.3454	3086.3083	1374.25	488.2
1036.4538	3087.3169	1366.85	484.9
1036.562	3088.3248	1351.7	468.65
1036.6703	3089.3321	1351.6	467.75
1036.7785	3090.3388	1345.25	465.6
1036.8866	3091.3449	1333.95	451.05
1036.9948	3092.3503	1340.1	454.85
1037.1028	3093.3551	1334.1	455.8
1037.2108	3094.3593	1329.55	446.6
1037.3188	3095.3629	1333.2	452.45
1037.4267	3096.3658	1320	438.45
1037.5346	3097.3681	1312.25	431
1037.6425	3098.3698	1319.5	436.25
1037.7503	3099.3708	1318.9	429.85
1037.858	3100.3713	1313.5	432.35
1037.9657	3101.3711	1306.45	426.6
1038.0734	3102.3702	1435.45	418.4
1038.181	3103.3688	1302.8	418.2
1038.2886	3104.3667	1295.4	415.15
1038.3961	3105.364	1288.8	407.65
1038.5036	3106.3607	1292.45	410.6
1038.611	3107.3568	1282.45	399.65
1038.7184	3108.3522	1279.4	398.2
1038.8257	3109.347	1283.45	401.65
1038.933	3110.3412	1280.5	396
1039.0403	3111.3348	1275.65	394.8
1039.1475	3112.3277	1271.55	390.2
1039.2547	3113.32	1266.05	385.55
1039.3618	3114.3117	1265.35	382.35
1039.4689	3115.3028	1258.35	378.1
1039.5759	3116.2932	1257.2	375
1039.6829	3117.2831	1264.2	377.05
1039.7898	3118.2723	1255.35	372.4
1039.8967	3119.2608	1253.45	370.05
1040.0035	3120.2488	1248.4	368.55
1040.1103	3121.2361	1249.2	367.95
1040.2171	3122.2229	1242.2	359.95
1040.3238	3123.209	1238.1	357.1
1040.4305	3124.1944	1238.9	358.45
1040.5371	3125.1793	1238.5	358.6
1040.6437	3126.1635	1234.8	353.1
1040.7502	3127.1471	1234.25	355.45
1040.8567	3128.1301	1235.85	353.65
1040.9631	3129.1125	1230.65	347.25
1041.0695	3130.0942	1226.5	344.35
1041.1759	3131.0753	1233.85	342.85
1041.2822	3132.0558	1225.4	341
1041.3884	3133.0357	1224.75	342.7
1041.4946	3134.015	1224.95	342.85
1041.6008	3134.9936	1219.5	337.05
1041.7069	3135.9716	1238.25	338.9
1041.813	3136.949	1213.15	331.85
1041.919	3137.9258	1235.4	336
1042.025	3138.902	1214.65	328.75
1042.1309	3139.8775	1210.65	330.75
1042.2368	3140.8524	1204.7	322.1
1042.3427	3141.8267	1203.75	321.7
1042.4485	3142.8004	1200.75	319.55
1042.5542	3143.7735	1213.15	326.4
1042.6599	3144.7459	1203.65	321.75
1042.7656	3145.7178	1199.15	316.1
1042.8712	3146.689	1195.3	315.2
1042.9768	3147.6596	1197.15	313.55
1043.0823	3148.6295	1195.7	314.25
1043.1878	3149.5989	1187.9	308.75
1043.2932	3150.5676	1184.5	306.65
1043.3986	3151.5357	1189	311.25
1043.5039	3152.5032	1185.05	305.5
1043.6092	3153.4701	1181.15	299.9
1043.7145	3154.4364	1183	297.65
1043.8197	3155.402	1180.8	301.1
1043.9248	3156.367	1182.45	301.1
1044.03	3157.3315	1212.5	293.9
1044.135	3158.2952	1171.4	290.95
1044.24	3159.2584	1167.8	287.9
1044.345	3160.221	1168.3	284.95
1044.4499	3161.1829	1174.15	294.2
1044.5548	3162.1442	1168.6	287.35
1044.6596	3163.105	1160.55	278.45
1044.7644	3164.065	1160.25	278.75
1044.8692	3165.0245	1164.35	280.95
1044.9739	3165.9834	1160.75	279.75
1045.0785	3166.9416	1157.4	276.45
1045.1831	3167.8993	1155	272.55
1045.2877	3168.8563	1154.2	272.75
1045.3922	3169.8127	1153.2	270
1045.4966	3170.7684	1151.5	272.45
1045.6011	3171.7236	1147.6	266.2
1045.7054	3172.6782	1151.8	270.9
1045.8098	3173.6321	1147.15	265.2
1045.914	3174.5854	1153.05	267.8
1046.0183	3175.5381	1149.65	267.6
1046.1224	3176.4902	1143.15	263.75
1046.2266	3177.4417	1138.75	259.85
1046.3307	3178.3926	1135.8	254.8
1046.4347	3179.3428	1136.4	256.5
1046.5387	3180.2924	1135.6	256.1
1046.6427	3181.2415	1138.7	256.9
1046.7466	3182.1899	1136.85	254.7
1046.8504	3183.1377	1138.85	257.2
1046.9542	3184.0848	1138	254.45
1047.058	3185.0314	1127.9	245.8
1047.1617	3185.9773	1129.5	246.65
1047.2654	3186.9227	1128.3	246.3
1047.369	3187.8674	1125.55	242.35
1047.4726	3188.8115	1126.45	242.6
1047.5761	3189.755	1122.2	240.4
1047.6796	3190.6979	1118.15	238.2
1047.783	3191.6402	1121.65	241.7
1047.8864	3192.5818	1121.05	240.75
1047.9898	3193.5229	1127.2	241.1
1048.0931	3194.4633	1118.05	238.85
1048.1963	3195.4031	1118.65	237.1
1048.2995	3196.3423	1111.4	232.9
1048.4027	3197.2809	1114.25	233.4
1048.5058	3198.2189	1115.9	235.3
1048.6089	3199.1563	1113.95	226.05
1048.7119	3200.0931	1108.25	229.75
1048.8148	3201.0292	1107.95	228.15
1048.9178	3201.9648	1108.65	227.15
1049.0206	3202.8997	1110.2	228.25
1049.1235	3203.834	1112.05	230.85
1049.2262	3204.7677	1100.05	221.65
1049.329	3205.7008	1106.1	223.1
1049.4317	3206.6333	1104.3	226.25
1049.5343	3207.5652	1102.75	219.4
1049.6369	3208.4964	1098.85	219.4
1049.7394	3209.4271	1099.2	221
1049.8419	3210.3571	1097.75	218.1
1049.9444	3211.2865	1097.05	215.6
1050.0468	3212.2154	1094	212.4
1050.1491	3213.1436	1098.95	215.4
1050.2514	3214.0712	1099.25	214.9
1050.3537	3214.9982	1092.15	211.25
1050.4559	3215.9246	1086.1	204.8
1050.5581	3216.8503	1092.65	214.8
1050.6602	3217.7755	1088.25	208.25
1050.7623	3218.7001	1086.8	206.1
1050.8643	3219.624	1085.9	205.05
1050.9663	3220.5473	1083.75	204.15
1051.0682	3221.4701	1087.15	203.45
1051.1701	3222.3922	1085.35	202
1051.2719	3223.3137	1081.9	201.95
1051.3737	3224.2346	1083	202
1051.4754	3225.1549	1077.75	197
1051.5771	3226.0746	1078.8	199.95
1051.6788	3226.9937	1075.15	194.1
1051.7804	3227.9121	1074.2	194.35
1051.8819	3228.83	1074.15	192.65
1051.9834	3229.7473	1076	195.65
1052.0849	3230.6639	1077.6	198.45
1052.1863	3231.5799	1070.3	190.15
1052.2876	3232.4954	1072.85	191.8
1052.3889	3233.4102	1073.3	192.8
1052.4902	3234.3244	1068.45	185.8
1052.5914	3235.238	1070.2	192.4
1052.6926	3236.151	1094.15	188
1052.7937	3237.0634	1065.3	185.7
1052.8948	3237.9752	1061.75	182.95
1052.9958	3238.8864	1065.05	184.3
1053.0968	3239.797	1066.3	186.6
1053.1977	3240.7069	1064.35	182.55
1053.2986	3241.6163	1063.25	182
1053.3994	3242.5251	1057.55	175.4
1053.5002	3243.4332	1060.25	182
1053.6009	3244.3408	1056.8	177.2
1053.7016	3245.2477	1059.35	179.85
1053.8022	3246.154	1053.25	171.55
1053.9028	3247.0598	1056.25	173.8
1054.0034	3247.9649	1053.6	174.4
1054.1039	3248.8694	1052.6	173.95
1054.2043	3249.7733	1047.3	168.05
1054.3047	3250.6766	1051.35	171.35
1054.4051	3251.5793	1046.55	165.25
1054.5054	3252.4814	1043.6	162.55
1054.6056	3253.3829	1044.65	163.9
1054.7058	3254.2838	1042.7	163.25
1054.806	3255.1841	1045.75	167.05
1054.9061	3256.0838	1044.2	163.5
1055.0061	3256.9829	1035.8	155.3
1055.1062	3257.8814	1044.6	160.85
1055.2061	3258.7792	1040.15	158.05
1055.306	3259.6765	1041	158.55
1055.4059	3260.5731	1032.8	152.1
1055.5057	3261.4692	1035.5	154.3
1055.6055	3262.3647	1028.3	147.45
1055.7052	3263.2595	1028.75	149.3
1055.8049	3264.1538	1026.7	146.35
1055.9045	3265.0474	1023.3	143.05
1056.0041	3265.9404	1023.95	146.25
1056.1036	3266.8329	1019.85	142.25
1056.2031	3267.7247	1028.55	139.35
1056.3025	3268.616	1015.75	136.15
1056.4019	3269.5066	1010.5	130.25
1056.5013	3270.3966	1008.85	126.55
1056.6005	3271.286	1001.8	121.25
