Software Version:	3.9.2.0
Unit SN:	10000200
Spectrometer SN:	6960
Date:	3/26/2024 1:14:04 PM
Data Line Index:	25
Spectral Points:	2048
Integration time (ms):	125
Averages:	20
Delay (ms):	30000
Sequence Number:	1
Processing:	dark subtract
Laser Power (mW):	305
Laser Current (mA):	818
Laser Diode Temp (C):	25
Laser Case Temp (C):	26.3
System Temp (C):	26.3
Spectrometer Temp (C):	24
CCD Temp (C):	0.008
Secondary Temp (C):	20.008
Heatsink Temp (C):	21.972
CCDPCB Temp (C):	36.318
SecondaryPCB Temp (C):	33.261

Wavelength	RamanShift	Raw Counts	Dark Subtracted
787.061	30.1047	423.35	10.75
787.2016	32.3739	425.8	15.1
787.3422	34.6426	425.8	15.1
787.4828	36.9109	429.65	16.65
787.6235	39.1787	434.1	17.45
787.7642	41.4461	441	19.7
787.9049	43.7131	443.5	18.75
788.0456	45.9796	447.1	19.25
788.1863	48.2456	453.5	23
788.3271	50.5112	459.65	23.9
788.4679	52.7764	461.4	23.35
788.6087	55.0411	467.9	26
788.7496	57.3054	473.65	27.5
788.8904	59.5692	479.4	30.6
789.0313	61.8326	484.55	31.6
789.1722	64.0955	494.15	38.3
789.3132	66.3579	501.9	40.8
789.4541	68.6199	512.1	48.55
789.5951	70.8815	519.75	53.85
789.7361	73.1426	543.3	75.05
789.8771	75.4032	599.6	125.45
790.0181	77.6634	721.05	243.4
790.1592	79.9231	1012.3	530.7
790.3003	82.1824	1627.45	1140.6
790.4414	84.4412	2677.4	2185
790.5825	86.6995	4117.8	3618.9
790.7237	88.9574	5568	5063.4
790.8648	91.2148	6620.15	6116.15
791.006	93.4717	7187.1	6677.25
791.1472	95.7282	7421.65	6906.8
791.2885	97.9842	7539.95	7025.9
791.4297	100.2398	7521.6	7001.95
791.571	102.4949	7521.6	7001.05
791.7123	104.7495	7511.65	6986.05
791.8536	107.0036	7468.6	6943.2
791.9949	109.2573	7429.85	6903.5
792.1363	111.5105	7380	6849.8
792.2777	113.7632	7328.95	6798.9
792.4191	116.0154	7267.95	6727.15
792.5605	118.2672	7213.75	6680.2
792.7019	120.5185	7142.65	6605.65
792.8434	122.7693	7107.9	6570.8
792.9849	125.0197	7057.65	6516.1
793.1264	127.2696	7022.15	6477.5
793.2679	129.519	6989	6444.8
793.4094	131.7679	6962.15	6414.15
793.551	134.0163	6976.75	6423.4
793.6926	136.2642	6965.25	6410.55
793.8342	138.5117	6960.05	6393.45
793.9758	140.7587	6920.65	6358.45
794.1175	143.0052	6923.45	6358.3
794.2591	145.2512	6877.85	6311.35
794.4008	147.4967	6840.1	6274.75
794.5425	149.7417	6768.55	6200.15
794.6842	151.9863	6751.75	6181.35
794.826	154.2304	6751.7	6177.45
794.9677	156.4739	6718.3	6139.65
795.1095	158.717	6717.55	6138.1
795.2513	160.9596	6727.8	6143.8
795.3931	163.2017	6715.7	6128.95
795.535	165.4433	6727.05	6137.9
795.6768	167.6844	6702.1	6111
795.8187	169.925	6703.45	6110.15
795.9606	172.1651	6660.65	6062.05
796.1025	174.4047	6621.3	6019.6
796.2445	176.6439	6570.05	5966.55
796.3864	178.8825	6558.8	5952.05
796.5284	181.1206	6549.2	5938.2
796.6704	183.3582	6513.8	5899.5
796.8124	185.5954	6524.9	5909.3
796.9544	187.832	6518.8	5900.2
797.0965	190.0681	6532.35	5909.9
797.2386	192.3037	6506.35	5881.7
797.3806	194.5388	6512.05	5882.1
797.5228	196.7734	6518.3	5887.3
797.6649	199.0075	6540.5	5904.55
797.807	201.2411	6563.2	5926.4
797.9492	203.4742	6548.35	5909.7
798.0914	205.7068	6576.8	5937.2
798.2336	207.9389	6578.25	5940
798.3758	210.1704	6593.65	5952.7
798.518	212.4015	6594.25	5947.05
798.6603	214.632	6604.85	5958.3
798.8025	216.862	6596.45	5959.75
798.9448	219.0915	6569.4	5937.75
799.0871	221.3205	6571.75	5945.5
799.2294	223.549	6578.9	5955.95
799.3718	225.777	6595.15	5972.45
799.5141	228.0044	6583.15	5954.1
799.6565	230.2314	6579.05	5953.4
799.7989	232.4578	6558.8	5933.55
799.9413	234.6837	6540.4	5905.2
800.0837	236.909	6518.85	5884.25
800.2262	239.1339	6528.9	5867.35
800.3687	241.3582	6507.95	5862.1
800.5111	243.582	6522.35	5846.05
800.6536	245.8053	6529.4	5864.15
800.7961	248.0281	6506.1	5846.55
800.9387	250.2503	6513.65	5849.15
801.0812	252.472	6508.15	5838.35
801.2238	254.6932	6510.7	5840.05
801.3664	256.9139	6493.55	5820.65
801.509	259.134	6483.8	5804.6
801.6516	261.3536	6509.65	5834.65
801.7942	263.5727	6521.5	5844.2
801.9369	265.7912	6558.35	5880.2
802.0795	268.0092	6585.4	5907.75
802.2222	270.2267	6596.4	5916.5
802.3649	272.4436	6636.6	5956.85
802.5076	274.6601	6632.2	5939.95
802.6504	276.8759	6622.1	5938.7
802.7931	279.0913	6640.9	5953.8
802.9359	281.3061	6645.1	5957.4
803.0787	283.5204	6664.75	5975.25
803.2215	285.7341	6673.9	5982.1
803.3643	287.9473	6726.9	6023.05
803.5071	290.16	6704.65	6003
803.6499	292.3721	6662.35	5967.95
803.7928	294.5837	6633.8	5936.55
803.9357	296.7947	6590.15	5894.7
804.0786	299.0052	6580.4	5882.25
804.2215	301.2152	6537.2	5835.2
804.3644	303.4246	6530.25	5834.25
804.5074	305.6334	6532.35	5836.4
804.6503	307.8418	6515.95	5814.65
804.7933	310.0495	6493.65	5791.2
804.9363	312.2568	6443.9	5742.75
805.0793	314.4635	6403.95	5700.25
805.2223	316.6696	6366.35	5660.3
805.3653	318.8752	6310.75	5597.6
805.5084	321.0802	6282.7	5576.9
805.6514	323.2847	6278.2	5568.95
805.7945	325.4887	6256.05	5547.5
805.9376	327.692	6273.35	5563.7
806.0807	329.8949	6286.9	5574.15
806.2238	332.0972	6302.45	5588.45
806.367	334.2989	6338.05	5622.55
806.5101	336.5001	6318.6	5598.85
806.6533	338.7007	6302.2	5582.65
806.7965	340.9008	6284.3	5565.15
806.9397	343.1003	6237.3	5515.55
807.0829	345.2992	6195.35	5472.35
807.2261	347.4976	6168.95	5445.35
807.3693	349.6955	6121.55	5390.35
807.5126	351.8927	6134	5405.15
807.6559	354.0895	6115	5374.85
807.7991	356.2856	6108	5378.85
807.9424	358.4812	6072.1	5343.1
808.0857	360.6763	6075.75	5345.45
808.2291	362.8707	6050.65	5319.6
808.3724	365.0646	6066.2	5332.7
808.5158	367.258	6042.15	5304.85
808.6591	369.4508	6051.5	5309.5
808.8025	371.643	6062.2	5320.8
808.9459	373.8346	6045.7	5301.3
809.0893	376.0257	6097.5	5351.15
809.2327	378.2162	6128.7	5381.65
809.3762	380.4062	6128.7	5382.6
809.5196	382.5956	6073.45	5324.15
809.6631	384.7844	6050.05	5301.95
809.8066	386.9726	5978.9	5226.5
809.9501	389.1603	5968.75	5217.35
810.0936	391.3474	5970.15	5186.15
810.2371	393.5339	5941.1	5190.05
810.3806	395.7199	5910.85	5161.9
810.5241	397.9052	5924.35	5182.6
810.6677	400.09	5936.9	5194.9
810.8113	402.2743	5951.8	5208.8
810.9548	404.4579	5977.45	5233.3
811.0984	406.641	6000.25	5255.3
811.2421	408.8235	6045.6	5296.6
811.3857	411.0054	6076.35	5328.7
811.5293	413.1868	6182.85	5434.3
811.673	415.3675	6276.1	5523.5
811.8166	417.5477	6292	5539.1
811.9603	419.7273	6211	5454.05
812.104	421.9064	6083.65	5318.15
812.2477	424.0848	5995.05	5235.7
812.3914	426.2627	5931.55	5168.2
812.5351	428.4399	5887.95	5123.5
812.6788	430.6166	5851.15	5081.85
812.8226	432.7928	5814.85	5044.05
812.9663	434.9683	5748.4	4980.15
813.1101	437.1432	5725.7	4953.4
813.2539	439.3176	5696.25	4926.55
813.3977	441.4914	5682.75	4910.95
813.5415	443.6645	5672.8	4898.4
813.6853	445.8371	5648.05	4873.5
813.8291	448.0091	5632	4857.95
813.973	450.1806	5620.4	4845.05
814.1168	452.3514	5604.1	4824.65
814.2607	454.5216	5600.8	4816.55
814.4046	456.6913	5582.9	4805.55
814.5485	458.8603	5573.25	4793.75
814.6924	461.0288	5584.05	4806.2
814.8363	463.1967	5560.55	4784.05
814.9802	465.3639	5584	4805.1
815.1241	467.5306	5562.4	4782.2
815.2681	469.6967	5542.9	4765.3
815.412	471.8622	5535.75	4756
815.556	474.0271	5527.25	4745.25
815.7	476.1914	5536.55	4752.5
815.844	478.3551	5521.75	4740.85
815.988	480.5182	5523.8	4740.65
816.132	482.6807	5520.3	4734.9
816.276	484.8426	5516.5	4734.75
816.4201	487.0039	5564.75	4779.55
816.5641	489.1647	5589.95	4803
816.7082	491.3248	5626.85	4839.85
816.8522	493.4843	5632.95	4846.75
816.9963	495.6432	5628.95	4842.3
817.1404	497.8015	5592.6	4801.4
817.2845	499.9592	5581.25	4790.95
817.4286	502.1163	5537.7	4747.9
817.5727	504.2728	5502.9	4708.75
817.7168	506.4287	5493.45	4703.45
817.861	508.5839	5464.45	4674.1
818.0051	510.7386	5452.45	4661.2
818.1493	512.8927	5452.55	4655.35
818.2935	515.0461	5471.75	4678.05
818.4377	517.199	5467.15	4673.3
818.5818	519.3512	5471.2	4678
818.726	521.5029	5522.35	4721.3
818.8703	523.6539	5562.15	4766.35
819.0145	525.8043	5585.2	4787.95
819.1587	527.9541	5550.8	4750.45
819.303	530.1033	5491.5	4693.55
819.4472	532.2519	5455.65	4657.8
819.5915	534.3999	5447.9	4646.8
819.7357	536.5472	5426.4	4624.55
819.88	538.694	5410.2	4611.4
820.0243	540.8401	5433.65	4630.85
820.1686	542.9856	5469.15	4665.4
820.3129	545.1305	5458	4651.35
820.4572	547.2748	5481.35	4677.65
820.6016	549.4185	5457.25	4654.25
820.7459	551.5615	5464.15	4660.2
820.8902	553.704	5464.7	4658.95
821.0346	555.8458	5468.45	4663.35
821.1789	557.987	5468.65	4664.5
821.3233	560.1276	5503.6	4697.85
821.4677	562.2675	5550.75	4746
821.6121	564.4069	5584.85	4778.1
821.7565	566.5456	5597.7	4792.15
821.9009	568.6837	5594.6	4786.55
822.0453	570.8212	5541.35	4734.9
822.1897	572.958	5480.4	4671.9
822.3342	575.0942	5464.1	4658.3
822.4786	577.2299	5421.7	4613.2
822.6231	579.3648	5385.7	4577.15
822.7675	581.4992	5318.9	4509.6
822.912	583.6329	5332.45	4523.65
823.0565	585.766	5343.85	4534.95
823.201	587.8985	5360.6	4551.4
823.3454	590.0304	5387.4	4564.9
823.4899	592.1616	5406.2	4592.5
823.6345	594.2922	5404.6	4592.75
823.779	596.4222	5368.15	4553.45
823.9235	598.5515	5333.7	4517.85
824.068	600.6802	5300.35	4486.45
824.2126	602.8083	5219.2	4404.6
824.3571	604.9358	5233.05	4417.35
824.5017	607.0626	5213.6	4397.05
824.6462	609.1888	5218.1	4399.75
824.7908	611.3144	5237.65	4419.35
824.9354	613.4393	5248.25	4431.1
825.08	615.5636	5267.35	4449
825.2246	617.6873	5310.1	4493.2
825.3692	619.8103	5331.55	4510.55
825.5138	621.9327	5320	4496.2
825.6584	624.0544	5321.35	4500.45
825.803	626.1756	5283.2	4465.2
825.9477	628.2961	5231.85	4413.9
826.0923	630.4159	5207.3	4385.9
826.237	632.5351	5207.1	4384.45
826.3816	634.6537	5189.55	4367.8
826.5263	636.7716	5178.05	4355.2
826.6709	638.8889	5195.65	4370.8
826.8156	641.0056	5195.8	4373.15
826.9603	643.1216	5204.05	4379.35
827.105	645.237	5200	4374.05
827.2497	647.3518	5185	4361.1
827.3944	649.4659	5162.7	4337.75
827.5391	651.5793	5142.3	4317.3
827.6838	653.6922	5135.55	4310.35
827.8285	655.8043	5108.3	4282
827.9733	657.9159	5109.4	4282.7
828.118	660.0268	5100.1	4269.25
828.2627	662.137	5078.35	4250.1
828.4075	664.2466	5097	4267.4
828.5522	666.3556	5082.75	4256.1
828.697	668.4639	5079.3	4248.7
828.8418	670.5716	5065.9	4235.7
828.9865	672.6786	5074.35	4244.6
829.1313	674.785	5071.3	4239
829.2761	676.8907	5035.2	4204.75
829.4209	678.9958	5045.65	4214.9
829.5657	681.1002	5015.5	4183.55
829.7105	683.204	5007.3	4171.35
829.8553	685.3072	5018.3	4185.25
830.0001	687.4097	5026.7	4194
830.1449	689.5115	5010.75	4175.2
830.2898	691.6127	5023.6	4192.6
830.4346	693.7132	4993.4	4157.95
830.5794	695.8131	5024	4175.8
830.7243	697.9123	5019.65	4182.6
830.8691	700.0109	5011.15	4175.4
831.014	702.1089	5006	4172.05
831.1588	704.2061	4998.95	4166.05
831.3037	706.3028	5006.85	4169.7
831.4486	708.3987	5040.95	4204.05
831.5935	710.4941	5049.5	4211.7
831.7383	712.5887	5052.45	4216.4
831.8832	714.6827	5063.25	4222
832.0281	716.7761	5044.75	4207.05
832.173	718.8688	5036.05	4198.2
832.3179	720.9608	5024	4183.15
832.4628	723.0522	5047.8	4205.8
832.6077	725.1429	5040.1	4201.8
832.7527	727.233	5079.35	4240.4
832.8976	729.3224	5129.55	4289.6
833.0425	731.4112	5150.3	4308.1
833.1874	733.4993	5157.25	4314.7
833.3324	735.5867	5111.95	4270.8
833.4773	737.6735	5071.45	4227.4
833.6222	739.7596	5038.5	4193.8
833.7672	741.845	5004	4159.7
833.9122	743.9298	4991.05	4145.1
834.0571	746.014	5023.2	4180.65
834.2021	748.0974	5013.4	4167.95
834.347	750.1802	4999.65	4156.05
834.492	752.2624	4989.15	4143.7
834.637	754.3439	4957.65	4111.95
834.782	756.4247	4943.75	4090.5
834.9269	758.5048	4935.8	4092.45
835.0719	760.5843	4912.6	4067.75
835.2169	762.6631	4902.15	4056.35
835.3619	764.7413	4947.9	4103.95
835.5069	766.8188	4988.45	4140.55
835.6519	768.8956	5024.8	4176.7
835.7969	770.9718	5076.2	4230.9
835.9419	773.0473	5064.2	4218
836.0869	775.1221	5044.75	4198.55
836.232	777.1962	5019.05	4171
836.377	779.2697	5052.3	4204.35
836.522	781.3426	5093.7	4227.85
836.667	783.4147	5139.05	4288.7
836.8121	785.4862	5129.55	4283.15
836.9571	787.557	5073.8	4227.25
837.1021	789.6271	4974.95	4126.9
837.2472	791.6966	4886.6	4037.35
837.3922	793.7654	4820.05	3968.55
837.5373	795.8335	4775.25	3925.2
837.6823	797.901	4747.15	3899.6
837.8274	799.9678	4737.9	3886.6
837.9724	802.0339	4715.9	3866.7
838.1175	804.0993	4725.7	3866.55
838.2626	806.1641	4685.95	3834.1
838.4076	808.2282	4668.05	3817.15
838.5527	810.2916	4661.95	3808.75
838.6978	812.3544	4660.65	3809.25
838.8428	814.4164	4630.05	3780.7
838.9879	816.4778	4642.2	3787.75
839.133	818.5385	4638.75	3787.75
839.2781	820.5986	4674.45	3822.35
839.4232	822.658	4697.05	3844.15
839.5682	824.7166	4726.8	3874.45
839.7133	826.7747	4791	3940.1
839.8584	828.832	4830	3979.05
840.0035	830.8886	4862.05	4008.85
840.1486	832.9446	4871.25	4017.65
840.2937	834.9999	4840.65	3989.5
840.4388	837.0545	4810.4	3953.95
840.5839	839.1085	4739.9	3885.7
840.729	841.1618	4681.1	3823
840.8741	843.2143	4635.95	3782.95
841.0192	845.2662	4602.45	3746.95
841.1643	847.3175	4577.3	3723.6
841.3095	849.368	4566.85	3711.85
841.4546	851.4179	4567.75	3713.15
841.5997	853.467	4532	3678.75
841.7448	855.5155	4529.2	3673.85
841.8899	857.5633	4524.4	3670.3
842.0351	859.6105	4519.1	3664.15
842.1802	861.6569	4517.6	3663.2
842.3253	863.7027	4496.25	3641.1
842.4704	865.7478	4479.95	3621.35
842.6156	867.7922	4470.85	3612.65
842.7607	869.8359	4462.65	3605.6
842.9058	871.8789	4446.95	3589.9
843.0509	873.9212	4464.5	3576.95
843.1961	875.9629	4433.95	3577.5
843.3412	878.0039	4435.1	3576
843.4863	880.0441	4432.85	3574.45
843.6315	882.0837	4445.95	3584.5
843.7766	884.1226	4454.75	3594.5
843.9218	886.1609	4472.8	3614.85
844.0669	888.1984	4520.35	3663.15
844.212	890.2352	4543.35	3687.2
844.3572	892.2714	4549.55	3686.85
844.5023	894.3069	4533.05	3673.7
844.6475	896.3416	4473.3	3614.35
844.7926	898.3757	4437.5	3577.75
844.9377	900.4091	4412.45	3552.3
845.0829	902.4418	4407.2	3541.6
845.228	904.4739	4400.15	3537.55
845.3732	906.5052	4405.8	3546.1
845.5183	908.5358	4405.7	3546.7
845.6635	910.5658	4402.65	3542.65
845.8086	912.595	4360.1	3500
845.9538	914.6236	4316.95	3454.5
846.0989	916.6515	4302.1	3443.25
846.2441	918.6786	4284.45	3421.8
846.3892	920.7051	4265.7	3402.2
846.5344	922.7309	4262.35	3401.65
846.6795	924.756	4244	3382.6
846.8246	926.7804	4255.4	3390.55
846.9698	928.8041	4237.6	3373.4
847.1149	930.8272	4254.75	3393
847.2601	932.8495	4224.05	3360.85
847.4052	934.8711	4233	3369.15
847.5504	936.892	4230	3366.5
847.6955	938.9123	4236.9	3373.15
847.8407	940.9318	4232.1	3367.8
847.9858	942.9506	4244.75	3379.15
848.131	944.9688	4220.65	3356.25
848.2761	946.9862	4210.1	3346.75
848.4213	949.003	4163	3300.45
848.5664	951.019	4139.7	3274.55
848.7115	953.0344	4113.4	3250.5
848.8567	955.0491	4112.15	3246.15
849.0018	957.063	4094.45	3229.7
849.147	959.0763	4108.7	3238.6
849.2921	961.0888	4085.6	3218.15
849.4373	963.1007	4077.55	3214.05
849.5824	965.1119	4052.7	3189.35
849.7275	967.1223	4043.1	3178.4
849.8727	969.1321	4038.7	3176.95
850.0178	971.1412	4019.15	3155.65
850.1629	973.1495	4009.75	3145.1
850.3081	975.1572	4031.8	3133.2
850.4532	977.1641	4007.3	3142.15
850.5983	979.1704	3989.9	3123.6
850.7435	981.1759	3983.8	3112.45
850.8886	983.1808	3964.35	3096.6
851.0337	985.1849	3967.15	3088.8
851.1788	987.1884	3955.05	3086.35
851.324	989.1911	3955.25	3085.95
851.4691	991.1932	3945.15	3077.55
851.6142	993.1945	3932.25	3065.6
851.7593	995.1951	3908.8	3041.65
851.9045	997.1951	3900.9	3028.1
852.0496	999.1943	3883.9	3017.5
852.1947	1001.1928	3885.15	3018
852.3398	1003.1906	3869.5	3001.15
852.4849	1005.1877	3865.35	2996.9
852.63	1007.1841	3879.6	3013.25
852.7751	1009.1798	3882.75	3013.6
852.9202	1011.1748	3842	2973.75
853.0653	1013.1691	3831.2	2965.55
853.2104	1015.1627	3809.95	2941.85
853.3555	1017.1556	3771.7	2904.1
853.5006	1019.1477	3745.95	2876.05
853.6457	1021.1392	3720.6	2854.6
853.7908	1023.1299	3704.55	2836.3
853.9359	1025.12	3688.25	2817.45
854.081	1027.1093	3695.55	2828.8
854.2261	1029.0979	3696.55	2830.2
854.3712	1031.0859	3675.4	2808
854.5163	1033.0731	3674.95	2807.15
854.6613	1035.0596	3672.2	2804.7
854.8064	1037.0454	3645.55	2775.8
854.9515	1039.0304	3651.55	2781.7
855.0965	1041.0148	3611.85	2744.1
855.2416	1042.9985	3593.65	2722.9
855.3867	1044.9814	3582.5	2714.95
855.5317	1046.9636	3565.35	2694.25
855.6768	1048.9452	3552.5	2682.4
855.8219	1050.926	3547.75	2678.3
855.9669	1052.9061	3554.4	2685.65
856.112	1054.8855	3544.35	2673.4
856.257	1056.8642	3554.25	2683.95
856.4021	1058.8421	3548.55	2672
856.5471	1060.8194	3534.45	2662.8
856.6921	1062.7959	3511.6	2641.25
856.8372	1064.7717	3508.4	2636.5
856.9822	1066.7469	3507.9	2636.05
857.1272	1068.7213	3491.2	2617.45
857.2723	1070.695	3500.65	2628.85
857.4173	1072.6679	3496.95	2626.05
857.5623	1074.6402	3517.25	2645
857.7073	1076.6117	3520.75	2644.85
857.8523	1078.5826	3497.8	2626.6
857.9973	1080.5527	3464.6	2591.7
858.1423	1082.5221	3426.7	2552.8
858.2873	1084.4908	3421.55	2549.55
858.4323	1086.4587	3386.55	2514.05
858.5773	1088.426	3366.95	2493.2
858.7223	1090.3925	3359.65	2483.3
858.8673	1092.3584	3371.85	2502.3
859.0123	1094.3235	3344.25	2470.45
859.1573	1096.2879	3342.5	2469.65
859.3022	1098.2515	3354.8	2481.95
859.4472	1100.2145	3377.45	2504.7
859.5922	1102.1767	3376.75	2500.55
859.7371	1104.1382	3412.4	2538
859.8821	1106.099	3421.05	2544.15
860.027	1108.0591	3472.85	2598.5
860.172	1110.0185	3483.7	2607.5
860.3169	1111.9771	3513	2641.15
860.4619	1113.9351	3523.8	2648.55
860.6068	1115.8923	3562.5	2688.35
860.7517	1117.8488	3586.75	2710.85
860.8967	1119.8045	3558.35	2685.75
861.0416	1121.7596	3483.05	2609.05
861.1865	1123.7139	3395.1	2522.1
861.3314	1125.6675	3346	2473.6
861.4763	1127.6204	3340.2	2467.5
861.6212	1129.5726	3344.45	2468.75
861.7661	1131.524	3342.5	2468.25
861.911	1133.4748	3308.65	2435.95
862.0559	1135.4248	3254.9	2377.95
862.2008	1137.3741	3224.05	2348.9
862.3457	1139.3226	3185.35	2309.35
862.4905	1141.2705	3191.75	2318.8
862.6354	1143.2176	3179.85	2299.35
862.7803	1145.164	3173.2	2298.25
862.9251	1147.1097	3175.5	2300.75
863.07	1149.0546	3165.4	2285.9
863.2148	1150.9989	3139.5	2263.6
863.3597	1152.9424	3126.8	2251.5
863.5045	1154.8852	3100.65	2225.2
863.6493	1156.8272	3090.7	2217.05
863.7942	1158.7686	3098.35	2215.2
863.939	1160.7092	3074.7	2201.9
864.0838	1162.6491	3065.75	2187.15
864.2286	1164.5883	3069.6	2194.8
864.3734	1166.5267	3055.85	2176.95
864.5182	1168.4644	3074.5	2194.45
864.663	1170.4014	3089.5	2206.15
864.8078	1172.3377	3111.95	2239.1
864.9526	1174.2732	3146.4	2270.8
865.0974	1176.2081	3210.15	2334.35
865.2421	1178.1421	3288.9	2409.2
865.3869	1180.0755	3378.85	2505.15
865.5317	1182.0082	3421.95	2544.55
865.6764	1183.9401	3399.05	2520.45
865.8212	1185.8713	3338.55	2463.15
865.9659	1187.8017	3252.1	2377.4
866.1106	1189.7315	3157.2	2281.25
866.2554	1191.6605	3090.5	2215.25
866.4001	1193.5888	3043.8	2167.15
866.5448	1195.5163	3016.45	2142.6
866.6895	1197.4432	2987.2	2107.75
866.8342	1199.3693	2979.6	2103.1
866.9789	1201.2947	2953.6	2073
867.1236	1203.2193	2930.45	2052.2
867.2683	1205.1432	2916.75	2039.3
867.413	1207.0664	2915.5	2036.5
867.5576	1208.9889	2920.2	2040.75
867.7023	1210.9106	2912.95	2035.95
867.847	1212.8316	2893.95	2017.45
867.9916	1214.7519	2895.6	2009.4
868.1363	1216.6715	2885	2009
868.2809	1218.5903	2893.2	2015.3
868.4255	1220.5084	2897.9	2020.35
868.5701	1222.4257	2926.65	2048
868.7148	1224.3424	2906.8	2030
868.8594	1226.2583	2906.2	2026
869.004	1228.1735	2928.65	2049.55
869.1486	1230.0879	2942.7	2066.4
869.2932	1232.0016	2968.95	2092.45
869.4377	1233.9146	2994.05	2116.65
869.5823	1235.8269	2989.7	2110.5
869.7269	1237.7384	2990	2111.9
869.8715	1239.6492	2975.2	2097.15
870.016	1241.5592	2984.6	2107.55
870.1606	1243.4686	3007	2128.85
870.3051	1245.3772	3052.2	2174.4
870.4496	1247.285	3103.4	2224.9
870.5941	1249.1922	3160.4	2282.65
870.7387	1251.0986	3199.35	2322.55
870.8832	1253.0042	3254.05	2376.1
871.0277	1254.9092	3302.15	2424
871.1722	1256.8134	3352.85	2473.85
871.3167	1258.7169	3430.35	2551.55
871.4611	1260.6196	3466.3	2587.6
871.6056	1262.5216	3492.15	2612.05
871.7501	1264.4229	3465.7	2587.8
871.8945	1266.3234	3454.95	2574.95
872.039	1268.2232	3412.65	2533.15
872.1834	1270.1223	3361.55	2480.7
872.3278	1272.0207	3325.25	2446.75
872.4723	1273.9183	3314.75	2432.65
872.6167	1275.8151	3303.05	2423.8
872.7611	1277.7113	3305.4	2426.05
872.9055	1279.6067	3371.15	2491.05
873.0499	1281.5014	3471.25	2589.9
873.1943	1283.3953	3602.4	2719.7
873.3386	1285.2885	3727.1	2847
873.483	1287.181	3852.5	2972.2
873.6274	1289.0727	3909.25	3031.15
873.7717	1290.9637	3864.75	2983.75
873.9161	1292.854	3792.35	2914
874.0604	1294.7435	3688.85	2809
874.2047	1296.6323	3612.5	2733.5
874.349	1298.5204	3525.45	2642.25
874.4933	1300.4077	3452.15	2571.55
874.6376	1302.2943	3401.95	2523.2
874.7819	1304.1802	3380.3	2500.2
874.9262	1306.0653	3358.3	2476.4
875.0705	1307.9497	3318.65	2439.6
875.2147	1309.8333	3289.9	2410.3
875.359	1311.7162	3266.8	2387.45
875.5032	1313.5984	3250.4	2368
875.6475	1315.4798	3229.4	2344.45
875.7917	1317.3605	3242.2	2352.95
875.9359	1319.2405	3240.6	2358.7
876.0801	1321.1197	3219.95	2336.5
876.2243	1322.9982	3187.9	2303.95
876.3685	1324.876	3140.7	2261.9
876.5127	1326.753	3057.8	2177.55
876.6569	1328.6293	3012.6	2131.7
876.801	1330.5048	2947.35	2065.7
876.9452	1332.3796	2876.3	1994.95
877.0893	1334.2537	2830.3	1926.5
877.2335	1336.127	2788.5	1906.35
877.3776	1337.9996	2760.2	1878.9
877.5217	1339.8714	2739.05	1858.65
877.6658	1341.7426	2751.15	1827.3
877.8099	1343.6129	2715.5	1834.1
877.954	1345.4826	2697.95	1816.7
878.0981	1347.3515	2673.35	1788.25
878.2422	1349.2196	2676.9	1796.75
878.3862	1351.087	2663	1783.5
878.5303	1352.9537	2641.6	1760
878.6743	1354.8197	2653.8	1771.85
878.8184	1356.6849	2650.05	1769.4
878.9624	1358.5493	2661.5	1781.65
879.1064	1360.4131	2678.5	1799.15
879.2504	1362.276	2692.45	1811.35
879.3944	1364.1383	2705.6	1825
879.5384	1365.9998	2733	1846.7
879.6823	1367.8606	2721.45	1837.45
879.8263	1369.7206	2695.45	1816.3
879.9702	1371.5799	2700.9	1815.65
880.1142	1373.4384	2683.05	1801.1
880.2581	1375.2962	2671.95	1788.75
880.402	1377.1533	2639.2	1756.7
880.5459	1379.0096	2585.5	1703.35
880.6898	1380.8652	2557.65	1678.6
880.8337	1382.7201	2538.25	1657.3
880.9776	1384.5742	2505.1	1625.55
881.1215	1386.4275	2485.75	1602.55
881.2653	1388.2802	2460.25	1580.15
881.4092	1390.132	2441.15	1559.15
881.553	1391.9832	2445.85	1560.85
881.6968	1393.8336	2434.85	1552.85
881.8406	1395.6832	2440.25	1555.35
881.9844	1397.5322	2417.55	1536.85
882.1282	1399.3803	2396.85	1507.75
882.272	1401.2278	2393.65	1510.25
882.4158	1403.0745	2380.35	1498.85
882.5595	1404.9204	2370.45	1490.2
882.7033	1406.7656	2359.95	1479.85
882.847	1408.6101	2360.25	1475.3
882.9908	1410.4538	2342.3	1459.15
883.1345	1412.2968	2345.05	1463.65
883.2782	1414.139	2335.75	1452.2
883.4219	1415.9805	2338.35	1456.05
883.5656	1417.8213	2362.6	1460.05
883.7092	1419.6613	2341.65	1460.45
883.8529	1421.5006	2357.35	1475.55
883.9965	1423.3391	2379.2	1496.25
884.1402	1425.1769	2416.25	1533.5
884.2838	1427.0139	2455.7	1572.9
884.4274	1428.8502	2530.2	1645.15
884.571	1430.6858	2576.05	1693.65
884.7146	1432.5206	2596.85	1714
884.8582	1434.3547	2584.25	1700.6
885.0018	1436.188	2575.6	1693.05
885.1453	1438.0206	2556.2	1672.1
885.2889	1439.8524	2534.4	1650.65
885.4324	1441.6835	2534.85	1651.5
885.5759	1443.5139	2529.4	1644.7
885.7194	1445.3435	2542.05	1659.8
885.8629	1447.1724	2537.45	1655.9
886.0064	1449.0005	2514.95	1632.7
886.1499	1450.8279	2520.8	1636.7
886.2933	1452.6545	2511.9	1629.3
886.4368	1454.4804	2506.2	1624.35
886.5802	1456.3056	2503.05	1614.1
886.7237	1458.13	2485.85	1604.25
886.8671	1459.9536	2471.2	1587.15
887.0105	1461.7766	2435.15	1551.7
887.1539	1463.5987	2402.15	1517.2
887.2972	1465.4202	2376.45	1492.3
887.4406	1467.2409	2345.95	1463.8
887.584	1469.0608	2315.3	1430.9
887.7273	1470.88	2287.55	1402.95
887.8706	1472.6984	2275.75	1391.95
888.0139	1474.5161	2247.9	1362.65
888.1572	1476.3331	2231.7	1349.7
888.3005	1478.1493	2223	1340.35
888.4438	1479.9648	2226.75	1343.45
888.5871	1481.7795	2217.5	1334.1
888.7303	1483.5935	2205.2	1320.6
888.8736	1485.4067	2208.55	1325.15
889.0168	1487.2192	2211.45	1327.35
889.16	1489.031	2208.75	1323.6
889.3032	1490.842	2202.15	1318.65
889.4464	1492.6522	2206.45	1324.9
889.5896	1494.4618	2189.8	1306.5
889.7327	1496.2705	2196.95	1316
889.8759	1498.0785	2180.7	1297.4
890.019	1499.8858	2172.65	1288.15
890.1622	1501.6924	2172.3	1290.55
890.3053	1503.4981	2164.7	1281.05
890.4484	1505.3032	2149.6	1265.55
890.5914	1507.1075	2144.4	1261.55
890.7345	1508.911	2139	1257.35
890.8776	1510.7138	2124.15	1239.3
891.0206	1512.5159	2123.4	1240.8
891.1637	1514.3172	2113	1229.7
891.3067	1516.1178	2098.15	1215.75
891.4497	1517.9176	2107.25	1221.15
891.5927	1519.7166	2087.5	1204.1
891.7357	1521.515	2090.35	1200.65
891.8786	1523.3126	2076.85	1193.2
892.0216	1525.1094	2062.35	1178.8
892.1645	1526.9055	2067.95	1189.2
892.3074	1528.7008	2054.2	1170.75
892.4503	1530.4954	2043.85	1160.4
892.5932	1532.2893	2036.8	1157
892.7361	1534.0824	2033.8	1144.2
892.879	1535.8747	2028.25	1144.7
893.0218	1537.6663	2019.1	1135.9
893.1647	1539.4572	2023.85	1139.5
893.3075	1541.2473	2015.95	1133.8
893.4503	1543.0367	2017.95	1134.05
893.5931	1544.8253	2012.85	1125.35
893.7359	1546.6132	2012.35	1126.05
893.8787	1548.4003	2022.2	1130.05
894.0214	1550.1867	2026.2	1134.95
894.1642	1551.9723	2020.45	1131.25
894.3069	1553.7572	2024.9	1139.35
894.4496	1555.5414	2029.95	1145.8
894.5923	1557.3247	2048	1164.35
894.735	1559.1074	2068.1	1184.75
894.8777	1560.8893	2094.3	1211.75
895.0204	1562.6705	2110.15	1226.9
895.163	1564.4509	2134.8	1253.25
895.3056	1566.2305	2143.55	1260.95
895.4482	1568.0094	2140.65	1258.1
895.5908	1569.7876	2142.2	1259.85
895.7334	1571.565	2121.95	1238.35
895.876	1573.3417	2130.35	1249
896.0186	1575.1176	2132.7	1248.8
896.1611	1576.8928	2137.2	1253.85
896.3036	1578.6672	2144.25	1260.3
896.4461	1580.4409	2167.9	1284.15
896.5886	1582.2138	2192.1	1306.65
896.7311	1583.986	2218.7	1334.65
896.8736	1585.7575	2236.35	1353.9
897.0161	1587.5282	2261.95	1379.7
897.1585	1589.2981	2286.7	1405.8
897.3009	1591.0673	2287.4	1405.15
897.4433	1592.8358	2309.95	1428.8
897.5857	1594.6035	2298	1411.25
897.7281	1596.3704	2284.7	1401.4
897.8705	1598.1366	2261.05	1377.3
898.0128	1599.9021	2247.9	1365.95
898.1551	1601.6668	2218.35	1330.9
898.2975	1603.4308	2206.85	1323.8
898.4398	1605.194	2198.15	1309.75
898.5821	1606.9564	2202.6	1319.55
898.7243	1608.7182	2238.55	1353.5
898.8666	1610.4791	2302.9	1421.3
899.0088	1612.2394	2387.55	1505.95
899.1511	1613.9988	2446.85	1565.45
899.2933	1615.7576	2514.6	1633.35
899.4355	1617.5156	2557.65	1668.7
899.5776	1619.2728	2549.1	1665.35
899.7198	1621.0293	2473.75	1589.9
899.862	1622.785	2381.65	1496.75
900.0041	1624.54	2272.45	1388.75
900.1462	1626.2942	2191.35	1306.7
900.2883	1628.0477	2111.5	1224.2
900.4304	1629.8005	2043.75	1157.05
900.5725	1631.5525	1983.45	1099.7
900.7145	1633.3037	1945.75	1061.25
900.8566	1635.0542	1902.5	1018.75
900.9986	1636.804	1880.2	995.55
901.1406	1638.553	1896.25	960.05
901.2826	1640.3013	1836.45	952.85
901.4245	1642.0488	1815.2	929.75
901.5665	1643.7955	1806.5	925.6
901.7085	1645.5416	1790.75	910.3
901.8504	1647.2868	1780	896.75
901.9923	1649.0313	1773.4	890.45
902.1342	1650.7751	1765.9	880.15
902.2761	1652.5181	1758.55	877.15
902.4179	1654.2604	1755.15	871.95
902.5598	1656.0019	1750.9	867.4
902.7016	1657.7427	1762.2	879.7
902.8434	1659.4828	1772.75	889.85
902.9852	1661.222	1792.75	909.35
903.127	1662.9606	1812.2	930.25
903.2687	1664.6984	1839.65	958.1
903.4105	1666.4354	1854.45	972.5
903.5522	1668.1717	1839.05	955.1
903.6939	1669.9072	1806.55	923.65
903.8356	1671.642	1770.85	885.25
903.9773	1673.3761	1733.1	849.7
904.119	1675.1094	1703.65	819.45
904.2606	1676.8419	1688.25	806.8
904.4022	1678.5737	1672.8	788.2
904.5439	1680.3048	1663.15	778.05
904.6855	1682.0351	1652.25	769.35
904.827	1683.7646	1651.9	765.8
904.9686	1685.4934	1639.05	757.5
905.1101	1687.2215	1629.85	745.4
905.2517	1688.9488	1625.05	741.95
905.3932	1690.6754	1608.25	724.35
905.5347	1692.4012	1612.75	729.5
905.6761	1694.1263	1613.9	730.35
905.8176	1695.8506	1601.65	718.35
905.9591	1697.5742	1607.55	725
906.1005	1699.297	1595.55	712.8
906.2419	1701.0191	1585.55	702.45
906.3833	1702.7404	1581.5	698.95
906.5246	1704.461	1578.2	694.1
906.666	1706.1808	1583.95	698.05
906.8073	1707.8999	1567.4	681.45
906.9487	1709.6182	1563.8	681.4
907.09	1711.3358	1564.95	683.75
907.2313	1713.0527	1560.7	678.05
907.3725	1714.7688	1578.5	689.85
907.5138	1716.4841	1557.25	671.9
907.655	1718.1987	1559.7	671.45
907.7962	1719.9126	1550.4	668.2
907.9374	1721.6257	1542.9	657.05
908.0786	1723.338	1550.7	667.4
908.2198	1725.0496	1547.05	660.85
908.3609	1726.7605	1551.4	666.85
908.502	1728.4706	1536.75	653.55
908.6431	1730.18	1533.1	646.2
908.7842	1731.8886	1535.6	651.8
908.9253	1733.5964	1533.95	644.95
909.0664	1735.3036	1531.8	645.45
909.2074	1737.0099	1532	647.4
909.3484	1738.7156	1529.25	645.4
909.4894	1740.4204	1528.7	641.1
909.6304	1742.1246	1534.4	650.1
909.7714	1743.8279	1519.65	634.55
909.9123	1745.5306	1527.45	643.25
910.0532	1747.2325	1516.6	634.6
910.1941	1748.9336	1512.95	630.65
910.335	1750.634	1517.8	632.1
910.4759	1752.3336	1518.2	636.6
910.6168	1754.0325	1506.65	622.75
910.7576	1755.7307	1511.4	627.8
910.8984	1757.4281	1511.6	628.95
911.0392	1759.1247	1518.3	627.4
911.18	1760.8206	1517.55	628.05
911.3208	1762.5158	1514.55	627.85
911.4615	1764.2102	1506.2	621.45
911.6022	1765.9039	1504.25	620.55
911.7429	1767.5968	1507.8	625.45
911.8836	1769.289	1504.75	619.25
912.0243	1770.9804	1495.25	611.05
912.1649	1772.6711	1500.6	616.75
912.3056	1774.361	1490.8	607.6
912.4462	1776.0502	1494.1	609.45
912.5868	1777.7386	1489.35	602.75
912.7274	1779.4263	1485.7	601.15
912.8679	1781.1132	1488.6	605.7
913.0084	1782.7994	1489.1	604.25
913.149	1784.4849	1482.8	601.1
913.2895	1786.1696	1491.35	600.4
913.4299	1787.8535	1483.15	601.25
913.5704	1789.5367	1475.8	592.1
913.7108	1791.2192	1479.15	596.4
913.8513	1792.9009	1501.55	589.95
913.9917	1794.5818	1482.3	596.35
914.132	1796.2621	1474.15	592.55
914.2724	1797.9415	1478.6	596.35
914.4128	1799.6202	1467.35	583.05
914.5531	1801.2982	1473.35	588
914.6934	1802.9755	1463.65	579.2
914.8337	1804.6519	1467.1	582.8
914.9739	1806.3277	1462.25	579.2
915.1142	1808.0027	1459	578.45
915.2544	1809.6769	1461.45	576.25
915.3946	1811.3504	1459.4	574.7
915.5348	1813.0231	1460.05	575.65
915.675	1814.6951	1458.8	575.9
915.8151	1816.3664	1462.4	576.85
915.9553	1818.0369	1450.85	565.8
916.0954	1819.7067	1446.9	563.45
916.2355	1821.3757	1446.45	562.7
916.3755	1823.044	1444.75	559.3
916.5156	1824.7115	1446.9	562.8
916.6556	1826.3783	1433.2	549.7
916.7956	1828.0443	1430.4	547.55
916.9356	1829.7096	1441.7	555.15
917.0756	1831.3741	1440.1	553.35
917.2155	1833.0379	1439.65	557.4
917.3555	1834.701	1434.9	549.7
917.4954	1836.3633	1433.95	550.4
917.6353	1838.0248	1436.15	551.9
917.7751	1839.6856	1433.2	551.4
917.915	1841.3457	1428.35	546.3
918.0548	1843.005	1431.35	549
918.1946	1844.6636	1417.05	532.45
918.3344	1846.3214	1422.6	539.35
918.4742	1847.9785	1423.35	539.65
918.6139	1849.6349	1423	538.25
918.7537	1851.2904	1424.3	530.25
918.8934	1852.9453	1416.4	529.7
919.0331	1854.5994	1423.6	538.6
919.1727	1856.2528	1426.85	539.1
919.3124	1857.9054	1418.55	532.85
919.452	1859.5572	1412.95	530.85
919.5916	1861.2083	1414.7	530.95
919.7312	1862.8587	1418.7	535.6
919.8708	1864.5084	1408	523.05
920.0103	1866.1572	1408	522.8
920.1498	1867.8054	1400.45	518.55
920.2893	1869.4528	1398.8	513.35
920.4288	1871.0994	1409.45	525.85
920.5683	1872.7453	1404.75	520.7
920.7077	1874.3905	1406.7	517.5
920.8471	1876.0349	1398.95	513.1
920.9865	1877.6786	1403.95	519.7
921.1259	1879.3215	1397.25	513.1
921.2653	1880.9637	1400.3	515.5
921.4046	1882.6051	1400.45	516.6
921.5439	1884.2458	1402.15	517.7
921.6832	1885.8858	1397.7	514.95
921.8225	1887.525	1394.25	508.4
921.9617	1889.1634	1394.85	511.6
922.101	1890.8011	1382.8	496.45
922.2402	1892.4381	1387.4	505.1
922.3794	1894.0743	1388.35	503.35
922.5185	1895.7098	1386.5	504.05
922.6577	1897.3446	1380.7	496.15
922.7968	1898.9786	1384	494.35
922.9359	1900.6118	1382.3	497.75
923.075	1902.2443	1375.45	490.6
923.214	1903.8761	1374.95	490.5
923.3531	1905.5071	1379.8	493.75
923.4921	1907.1374	1372.65	488.5
923.6311	1908.7669	1373.05	489.05
923.77	1910.3957	1367.55	483.75
923.909	1912.0237	1365.8	480.15
924.0479	1913.651	1367.7	482.75
924.1868	1915.2776	1364.15	479.95
924.3257	1916.9034	1368.35	485.6
924.4646	1918.5285	1357.35	475.95
924.6034	1920.1528	1363.7	479.5
924.7422	1921.7764	1360.8	476.6
924.881	1923.3992	1361.95	478.6
925.0198	1925.0213	1356.85	473
925.1586	1926.6427	1350.75	469.05
925.2973	1928.2633	1424.6	471.1
925.436	1929.8832	1354.05	469.35
925.5747	1931.5023	1351.25	467.8
925.7134	1933.1207	1352.15	469.65
925.852	1934.7383	1347.45	465.15
925.9906	1936.3552	1342.4	458.65
926.1292	1937.9714	1353.85	468.7
926.2678	1939.5868	1343.3	459.2
926.4064	1941.2015	1343.4	459.5
926.5449	1942.8154	1338.1	454.2
926.6834	1944.4286	1334.9	448.2
926.8219	1946.041	1359.35	452.75
926.9604	1947.6528	1339.5	450.15
927.0988	1949.2637	1332.5	450.9
927.2372	1950.8739	1328.45	444.6
927.3756	1952.4834	1330.35	446.3
927.514	1954.0921	1335	452.4
927.6523	1955.7001	1334.45	446.5
927.7907	1957.3074	1327.8	444.9
927.929	1958.9139	1321.95	437.6
928.0673	1960.5197	1325.1	439.9
928.2055	1962.1247	1322.95	437.2
928.3438	1963.729	1323.75	441.9
928.482	1965.3325	1348.85	440.35
928.6202	1966.9353	1315.45	432.75
928.7584	1968.5374	1315.35	431.45
928.8965	1970.1387	1318.6	435.7
929.0346	1971.7393	1318.95	435.1
929.1727	1973.3392	1309.85	426.15
929.3108	1974.9383	1306.8	423.5
929.4489	1976.5366	1305.45	420.4
929.5869	1978.1342	1308.65	423
929.7249	1979.7311	1309.7	423.75
929.8629	1981.3273	1311.1	427.4
930.0009	1982.9227	1307.8	423.25
930.1388	1984.5173	1302.55	419.7
930.2767	1986.1112	1298.25	413.75
930.4146	1987.7044	1303.7	422.6
930.5525	1989.2968	1300.45	415.75
930.6904	1990.8885	1306.2	418.95
930.8282	1992.4795	1304.95	419.6
930.966	1994.0697	1295.65	412.65
931.1038	1995.6592	1300.4	420
931.2415	1997.2479	1298.75	416.35
931.3793	1998.8359	1294.4	411.9
931.517	2000.4232	1290	405.55
931.6547	2002.0097	1291.1	410.35
931.7923	2003.5955	1294.4	410.95
931.93	2005.1805	1298.45	413.35
932.0676	2006.7648	1291.65	407.7
932.2052	2008.3484	1288.8	404.65
932.3427	2009.9312	1289	405.25
932.4803	2011.5133	1291	408.75
932.6178	2013.0946	1284.25	400.35
932.7553	2014.6752	1286.2	405.1
932.8928	2016.2551	1287.65	402.15
933.0302	2017.8342	1280.05	397.25
933.1676	2019.4126	1282.6	399.3
933.305	2020.9902	1280.05	397
933.4424	2022.5672	1287.3	403.05
933.5798	2024.1433	1292.45	403.4
933.7171	2025.7188	1279.2	397.7
933.8544	2027.2935	1281.5	397.5
933.9917	2028.8674	1278.1	394.4
934.129	2030.4406	1270	387.3
934.2662	2032.0131	1269.2	385.2
934.4034	2033.5849	1279.85	396
934.5406	2035.1559	1270.5	387.15
934.6778	2036.7261	1279.2	397.6
934.8149	2038.2957	1271.15	387
934.952	2039.8645	1276.25	393.35
935.0891	2041.4325	1275.9	390.75
935.2262	2042.9998	1271.3	387.05
935.3632	2044.5664	1270.55	385.6
935.5002	2046.1323	1268.8	386
935.6372	2047.6974	1268.35	384.8
935.7742	2049.2617	1269.2	387.85
935.9111	2050.8254	1277.9	390.4
936.048	2052.3883	1270.3	385.9
936.1849	2053.9504	1273.7	390.1
936.3218	2055.5118	1268.55	384.45
936.4586	2057.0725	1276.5	390.15
936.5955	2058.6325	1267.95	384.65
936.7323	2060.1917	1264.7	381.6
936.869	2061.7502	1265.85	378.95
937.0058	2063.3079	1262.6	379.35
937.1425	2064.8649	1260.7	372.5
937.2792	2066.4212	1264.95	380.85
937.4159	2067.9767	1262.4	379.9
937.5525	2069.5315	1261.95	379.95
937.6891	2071.0856	1254.4	369.1
937.8257	2072.6389	1260.15	377.5
937.9623	2074.1915	1253.55	370.75
938.0989	2075.7433	1260.1	373.95
938.2354	2077.2945	1255.15	372.35
938.3719	2078.8448	1248.35	365.25
938.5084	2080.3945	1248.9	365.3
938.6448	2081.9434	1253.75	369.25
938.7812	2083.4916	1255.2	369.95
938.9176	2085.039	1253.5	368.45
939.054	2086.5857	1252.2	368.55
939.1903	2088.1317	1251	366.65
939.3267	2089.677	1254.85	371.85
939.463	2091.2215	1245.75	363.55
939.5992	2092.7652	1249.25	364
939.7355	2094.3083	1252.2	367.55
939.8717	2095.8506	1243.45	360.9
940.0079	2097.3921	1248.8	367
940.1441	2098.933	1246.8	364.8
940.2802	2100.4731	1240.55	357.85
940.4163	2102.0124	1258	358.1
940.5524	2103.5511	1249.1	366.15
940.6885	2105.089	1250.75	367.55
940.8245	2106.6261	1247.2	364.3
940.9606	2108.1626	1250.25	365.75
941.0965	2109.6983	1267.05	355.8
941.2325	2111.2332	1239.9	356.55
941.3684	2112.7675	1243.45	361.65
941.5044	2114.301	1247.8	363.25
941.6403	2115.8337	1241.7	357.65
941.7761	2117.3657	1239.9	358.4
941.912	2118.897	1236.6	351.75
942.0478	2120.4276	1248.65	358.1
942.1835	2121.9575	1239.55	355.55
942.3193	2123.4866	1257.35	362.3
942.455	2125.0149	1241.75	355.5
942.5907	2126.5426	1235.05	351.8
942.7264	2128.0695	1240	351.5
942.8621	2129.5956	1231.65	348.6
942.9977	2131.1211	1240.9	352.15
943.1333	2132.6458	1237.1	354.2
943.2689	2134.1698	1236.65	352.75
943.4044	2135.693	1237.4	351.85
943.54	2137.2155	1242.35	357.8
943.6755	2138.7373	1231.55	350.9
943.8109	2140.2584	1234.1	351.15
943.9464	2141.7787	1239.35	351.15
944.0818	2143.2983	1223.95	342.25
944.2172	2144.8171	1224.55	342.7
944.3526	2146.3353	1225.55	339.65
944.4879	2147.8527	1228.75	346.8
944.6232	2149.3693	1228.95	345.8
944.7585	2150.8853	1224.8	339.8
944.8938	2152.4005	1223.3	339
945.029	2153.9149	1223.95	342.05
945.1642	2155.4287	1323.8	339.15
945.2994	2156.9417	1223.15	336.7
945.4346	2158.454	1227.2	342
945.5697	2159.9655	1221.1	338.95
945.7048	2161.4764	1222.15	338.85
945.8399	2162.9865	1219.7	337.5
945.9749	2164.4958	1221.9	337.6
946.1099	2166.0045	1220.2	334
946.2449	2167.5124	1217.8	333.4
946.3799	2169.0195	1215.35	331.45
946.5148	2170.526	1226.05	343.3
946.6498	2172.0317	1217.35	334.65
946.7846	2173.5367	1215	331.25
946.9195	2175.0409	1214.25	334.2
947.0543	2176.5445	1216.2	334.1
947.1891	2178.0473	1210.6	326.85
947.3239	2179.5494	1213.65	329.25
947.4587	2181.0507	1209.25	326.3
947.5934	2182.5513	1209.55	326.8
947.7281	2184.0512	1206.35	322.3
947.8628	2185.5504	1205.15	322.55
947.9974	2187.0488	1210.35	326.95
948.132	2188.5465	1208.25	324.45
948.2666	2190.0435	1201.85	318.1
948.4012	2191.5397	1198.2	316.15
948.5357	2193.0353	1205.15	325.1
948.6702	2194.5301	1199.85	313.45
948.8047	2196.0241	1206	323
948.9392	2197.5175	1201.6	320.3
949.0736	2199.0101	1205.45	320.2
949.208	2200.502	1197.85	315.95
949.3424	2201.9931	1195.25	310.1
949.4767	2203.4835	1198.75	314.45
949.611	2204.9733	1214.25	313.5
949.7453	2206.4622	1193.15	309.6
949.8796	2207.9505	1195.65	309.5
950.0138	2209.438	1192.6	309.45
950.148	2210.9248	1191.85	308.15
950.2822	2212.4109	1194.1	311.3
950.4164	2213.8962	1194.35	309.1
950.5505	2215.3809	1186.6	302.1
950.6846	2216.8648	1185.9	301.75
950.8186	2218.3479	1196.8	310.15
950.9527	2219.8304	1190.65	307.35
951.0867	2221.3121	1184.4	300.55
951.2207	2222.7931	1184.3	301.9
951.3546	2224.2733	1184.35	302.55
951.4886	2225.7529	1175.35	292.9
951.6225	2227.2317	1183	294.9
951.7563	2228.7098	1181.8	299.9
951.8902	2230.1872	1179.9	295.1
952.024	2231.6638	1176.05	292.45
952.1578	2233.1397	1182.25	294.85
952.2916	2234.6149	1179.35	296.05
952.4253	2236.0894	1174.45	289.25
952.559	2237.5632	1174.65	289.75
952.6927	2239.0362	1172.55	289.85
952.8263	2240.5085	1173.85	292.85
952.9599	2241.9801	1173.2	289.85
953.0935	2243.4509	1173	289.9
953.2271	2244.921	1169.35	284.9
953.3606	2246.3904	1172.55	286.15
953.4941	2247.8591	1168.65	286.75
953.6276	2249.3271	1164	281
953.7611	2250.7943	1165.55	281.95
953.8945	2252.2608	1168.7	285.85
954.0279	2253.7266	1167.15	284.8
954.1612	2255.1917	1168.95	287.3
954.2946	2256.656	1163.95	279
954.4279	2258.1197	1162.45	280.95
954.5612	2259.5826	1164.3	279.05
954.6944	2261.0447	1165.05	281.45
954.8276	2262.5062	1163.45	278.5
954.9608	2263.9669	1161.45	276.85
955.094	2265.4269	1157.05	275
955.2271	2266.8862	1161.55	278.4
955.3602	2268.3448	1157.6	272.2
955.4933	2269.8026	1156.55	273.05
955.6264	2271.2598	1153	270.65
955.7594	2272.7162	1158.45	276.2
955.8924	2274.1719	1156	273.05
956.0253	2275.6268	1153.8	271.7
956.1583	2277.0811	1154.7	271.1
956.2912	2278.5346	1147.95	265.25
956.4241	2279.9874	1153.1	270.75
956.5569	2281.4395	1156.3	272.7
956.6897	2282.8908	1155.45	265.9
956.8225	2284.3414	1157.35	272.7
956.9553	2285.7914	1150.15	266.8
957.088	2287.2406	1151.4	267.3
957.2207	2288.689	1148.95	264.9
957.3534	2290.1368	1147.7	264.7
957.486	2291.5838	1150.3	265.85
957.6186	2293.0302	1147	262.6
957.7512	2294.4758	1146.9	264.85
957.8838	2295.9206	1145.55	258.75
958.0163	2297.3648	1139.85	255.35
958.1488	2298.8082	1142.8	257.55
958.2813	2300.251	1141.4	258.15
958.4137	2301.693	1144.8	257.8
958.5461	2303.1343	1145.15	260.7
958.6785	2304.5748	1141.8	257.45
958.8108	2306.0147	1137.15	251.5
958.9432	2307.4538	1142	256.25
959.0754	2308.8922	1133.35	251.55
959.2077	2310.3299	1141.6	256.3
959.3399	2311.7669	1138.2	255.4
959.4721	2313.2031	1134.45	252.1
959.6043	2314.6387	1130.15	246.8
959.7365	2316.0735	1135.05	251.95
959.8686	2317.5076	1133.8	250.1
960.0006	2318.941	1139.05	255.4
960.1327	2320.3737	1133.1	250.35
960.2647	2321.8056	1135.5	252.05
960.3967	2323.2369	1131.55	247.9
960.5287	2324.6674	1133.3	247.7
960.6606	2326.0972	1134.85	252.45
960.7925	2327.5263	1139.05	255.6
960.9244	2328.9547	1132.1	247.65
961.0562	2330.3823	1128.05	243.95
961.1881	2331.8092	1132.75	246.6
961.3198	2333.2355	1127.3	245.15
961.4516	2334.661	1125.95	242.4
961.5833	2336.0858	1125.3	241
961.715	2337.5098	1124.55	241.3
961.8467	2338.9332	1127.75	244.05
961.9783	2340.3558	1124.35	238.85
962.1099	2341.7778	1125.8	241.9
962.2415	2343.199	1121.75	235.3
962.373	2344.6195	1121.5	239.2
962.5045	2346.0393	1124.1	240.65
962.636	2347.4583	1117.55	235.65
962.7675	2348.8767	1117.6	233.4
962.8989	2350.2943	1118.65	235.15
963.0303	2351.7113	1114.3	230.5
963.1617	2353.1275	1116	231.75
963.293	2354.543	1143.45	236.15
963.4243	2355.9578	1119	233.45
963.5556	2357.3718	1112.2	227.45
963.6868	2358.7852	1120.25	235.35
963.818	2360.1978	1114.3	230
963.9492	2361.6098	1113.2	230.45
964.0803	2363.021	1119.1	231.5
964.2114	2364.4315	1109.65	226.8
964.3425	2365.8413	1117.4	228.5
964.4736	2367.2504	1106.6	224.55
964.6046	2368.6587	1102.75	219.45
964.7356	2370.0664	1109.05	225.55
964.8666	2371.4733	1109	225.7
964.9975	2372.8795	1108.6	225.1
965.1284	2374.285	1105.4	220.85
965.2593	2375.6899	1099.7	218.25
965.3901	2377.0939	1098.95	214.85
965.5209	2378.4973	1106.7	223.4
965.6517	2379.9	1104	218.9
965.7825	2381.3019	1101.65	218.7
965.9132	2382.7032	1097.8	214.75
966.0439	2384.1037	1094.1	212
966.1745	2385.5035	1097.5	213.1
966.3051	2386.9027	1097.1	213.25
966.4357	2388.3011	1098.2	209.55
966.5663	2389.6987	1094.45	210.5
966.6968	2391.0957	1095.2	213.2
966.8273	2392.492	1097.2	214.9
966.9578	2393.8876	1096.15	209.1
967.0882	2395.2824	1089.7	207.2
967.2186	2396.6765	1089.6	207.05
967.349	2398.07	1090.55	207.1
967.4793	2399.4627	1090.65	205.5
967.6097	2400.8547	1091.5	210
967.7399	2402.246	1098.95	210.2
967.8702	2403.6366	1086.9	202.7
968.0004	2405.0265	1082	198.35
968.1306	2406.4156	1094.25	203.3
968.2607	2407.8041	1092.3	204.9
968.3909	2409.1918	1088.7	201.45
968.521	2410.5789	1079.45	194.45
968.651	2411.9652	1083.05	197.65
968.781	2413.3508	1081.2	195.8
968.911	2414.7358	1081.85	198.6
969.041	2416.12	1084.95	201.95
969.1709	2417.5035	1080.25	197.4
969.3008	2418.8863	1080.95	195.4
969.4307	2420.2684	1080.9	196.05
969.5606	2421.6497	1080.35	196.05
969.6904	2423.0304	1074.25	190.15
969.8201	2424.4104	1076.3	191.85
969.9499	2425.7896	1076.6	193.6
970.0796	2427.1682	1079.25	193.5
970.2093	2428.546	1076.8	193.05
970.3389	2429.9232	1078.1	191.7
970.4685	2431.2996	1072	189.55
970.5981	2432.6753	1075.05	189.7
970.7277	2434.0503	1073.1	189.8
970.8572	2435.4246	1067.6	184.3
970.9867	2436.7982	1073	185.95
971.1161	2438.1711	1067.8	184.1
971.2456	2439.5433	1074.75	187.85
971.375	2440.9148	1074.95	185.9
971.5043	2442.2856	1070.65	185.15
971.6336	2443.6557	1069.9	184.6
971.7629	2445.025	1062.25	178.05
971.8922	2446.3937	1066.3	180.45
972.0214	2447.7617	1066.05	181.6
972.1506	2449.1289	1063.8	179.5
972.2798	2450.4955	1067.6	178.7
972.4089	2451.8613	1064.7	179.95
972.538	2453.2265	1062.2	180.85
972.6671	2454.5909	1061.4	176.4
972.7961	2455.9546	1064.6	181.9
972.9251	2457.3177	1061.6	178.55
973.0541	2458.68	1063.65	177.35
973.1831	2460.0416	1062.05	179.95
973.312	2461.4025	1066.6	181.05
973.4408	2462.7627	1067.7	171.7
973.5697	2464.1222	1061.05	178.05
973.6985	2465.4811	1060.35	174.3
973.8273	2466.8392	1055.75	172.6
973.956	2468.1966	1063.75	175.85
974.0847	2469.5533	1059.1	172.45
974.2134	2470.9093	1059.3	174.5
974.3421	2472.2645	1054.8	171.55
974.4707	2473.6191	1055.4	172.1
974.5993	2474.973	1048.75	166.3
974.7278	2476.3262	1056.3	170.55
974.8563	2477.6787	1052.15	169.6
974.9848	2479.0305	1052.5	167.6
975.1132	2480.3816	1058.2	171.65
975.2417	2481.7319	1055.45	171.75
975.37	2483.0816	1051.9	165.5
975.4984	2484.4306	1051.2	167.5
975.6267	2485.7789	1048.65	165.35
975.755	2487.1264	1053.1	166.6
975.8833	2488.4733	1045.6	163.5
976.0115	2489.8195	1064.35	163.1
976.1397	2491.165	1055.45	168.45
976.2678	2492.5097	1048.05	161.75
976.3959	2493.8538	1048.35	164.25
976.524	2495.1972	1044.4	161.4
976.6521	2496.5398	1044.4	158.35
976.7801	2497.8818	1047.35	160.3
976.9081	2499.2231	1049.7	166.35
977.036	2500.5637	1050.9	165.35
977.164	2501.9035	1047.45	162.85
977.2918	2503.2427	1049.45	160.15
977.4197	2504.5812	1044.8	161.5
977.5475	2505.919	1046.25	160.3
977.6753	2507.256	1040.6	155.9
977.8031	2508.5924	1039.15	155.35
977.9308	2509.9281	1046.8	156
978.0585	2511.2631	1033.15	149.7
978.1861	2512.5974	1042.3	158.1
978.3137	2513.9309	1042.35	157.55
978.4413	2515.2638	1067.8	157.05
978.5689	2516.596	1035.6	150.65
978.6964	2517.9275	1040.2	157.5
978.8239	2519.2583	1040.65	155.4
978.9513	2520.5884	1034.9	147.1
979.0788	2521.9178	1036.6	150.1
979.2062	2523.2465	1037.5	153.8
979.3335	2524.5745	1034.7	149.9
979.4608	2525.9018	1033.7	150.25
979.5881	2527.2284	1033.75	152.3
979.7154	2528.5543	1029.75	147.15
979.8426	2529.8796	1032.3	149
979.9698	2531.2041	1032.2	147.55
980.0969	2532.5279	1029.65	148.7
980.224	2533.851	1031.5	144.9
980.3511	2535.1735	1029.15	146.4
980.4781	2536.4952	1029.55	146.2
980.6052	2537.8163	1027.05	141.85
980.7321	2539.1366	1030.55	146.8
980.8591	2540.4562	1030.9	145.75
980.986	2541.7752	1031.75	147.65
981.1129	2543.0935	1026.8	141.25
981.2397	2544.411	1029.75	145.95
981.3665	2545.7279	1030.35	149.1
981.4933	2547.0441	1025	139.95
981.62	2548.3596	1032.2	143.95
981.7467	2549.6744	1026.3	142.65
981.8734	2550.9885	1022.95	136
982.0001	2552.3019	1024.9	141.5
982.1267	2553.6146	1027.6	143
982.2532	2554.9266	1028.45	145.3
982.3798	2556.2379	1024.4	139.65
982.5063	2557.5485	1024.3	143.35
982.6327	2558.8585	1032.6	140.9
982.7592	2560.1677	1026.8	137.7
982.8856	2561.4762	1025.8	141.05
983.0119	2562.7841	1027.6	140.4
983.1383	2564.0913	1022	140.45
983.2646	2565.3977	1024	140.7
983.3908	2566.7035	1021.5	139.4
983.517	2568.0086	1025.55	139.95
983.6432	2569.313	1022.4	138.85
983.7694	2570.6167	1026.7	139.65
983.8955	2571.9197	1018.25	134.95
984.0216	2573.222	1021.4	133.7
984.1476	2574.5236	1023	137.85
984.2737	2575.8246	1019.55	132.75
984.3996	2577.1248	1020.7	132.8
984.5256	2578.4244	1020.35	137.85
984.6515	2579.7232	1021.1	136.4
984.7774	2581.0214	1050.2	138.6
984.9032	2582.3189	1013.7	131.8
985.029	2583.6157	1034.75	134.85
985.1548	2584.9118	1015.65	131.15
985.2806	2586.2072	1017.55	134.3
985.4063	2587.5019	1018	133.85
985.5319	2588.7959	1012.35	129.4
985.6576	2590.0893	1015.9	127.5
985.7832	2591.3819	1013.6	131.45
985.9087	2592.6739	1013.65	131.1
986.0343	2593.9652	1014.25	129.1
986.1597	2595.2557	1014.65	131.05
986.2852	2596.5456	1016.05	132.55
986.4106	2597.8348	1010.8	128.75
986.536	2599.1234	1011.7	129.05
986.6614	2600.4112	1014.4	128.35
986.7867	2601.6983	1014.6	127.25
986.912	2602.9848	1013.55	126.95
987.0372	2604.2705	1016.7	125.45
987.1624	2605.5556	1013.85	130.95
987.2876	2606.84	1011.1	126.2
987.4128	2608.1237	1010.95	126.85
987.5379	2609.4067	1013.5	128.65
987.6629	2610.689	1017.9	126.55
987.788	2611.9707	1014.25	127.5
987.913	2613.2516	1011.75	123.1
988.0379	2614.5319	1004.35	120.45
988.1629	2615.8115	1009.15	124.65
988.2878	2617.0903	1009.55	126.75
988.4126	2618.3685	1003.45	119.3
988.5375	2619.6461	1005.1	121.6
988.6622	2620.9229	1004.45	121.2
988.787	2622.199	1004.45	119.85
988.9117	2623.4745	1005.25	117.95
989.0364	2624.7493	1002.1	120.25
989.161	2626.0234	999.05	115.65
989.2857	2627.2968	1001	117.65
989.4102	2628.5695	1002.45	116.3
989.5348	2629.8415	999.85	116.85
989.6593	2631.1128	1001.05	116.95
989.7837	2632.3835	997.75	114.7
989.9082	2633.6535	999.8	115.9
990.0326	2634.9228	1000.5	117.1
990.1569	2636.1914	996.9	114.2
990.2812	2637.4593	1001.3	115.9
990.4055	2638.7265	998.2	114.4
990.5298	2639.9931	997.4	112.05
990.654	2641.259	997.3	112.55
990.7782	2642.5242	997.55	112.75
990.9023	2643.7887	998	115.2
991.0264	2645.0525	997.35	112.5
991.1505	2646.3156	1010.4	112.45
991.2745	2647.5781	991.75	111.1
991.3985	2648.8398	991.5	107.45
991.5225	2650.1009	998.35	107.8
991.6464	2651.3613	995.45	111.45
991.7703	2652.6211	991.15	107.3
991.8942	2653.8801	991.2	105.5
992.018	2655.1385	993.15	106.4
992.1418	2656.3961	990.45	107.1
992.2655	2657.6531	990.4	105.8
992.3892	2658.9094	991.05	104.4
992.5129	2660.1651	990.05	107.2
992.6366	2661.42	990	104.05
992.7602	2662.6743	990.3	105.4
992.8837	2663.9279	990.4	106.35
993.0073	2665.1808	990.15	103.9
993.1307	2666.433	992.7	108.6
993.2542	2667.6846	991.15	108.05
993.3776	2668.9354	991.25	104.85
993.501	2670.1856	989.9	105.7
993.6244	2671.4351	987.85	106.1
993.7477	2672.6839	989.4	105.1
993.8709	2673.9321	987.8	105.65
993.9942	2675.1795	991.6	107.35
994.1174	2676.4263	988.45	104.85
994.2405	2677.6724	989.55	104.95
994.3637	2678.9179	985.8	101.85
994.4868	2680.1626	987.3	103.95
994.6098	2681.4067	988.75	104.95
994.7328	2682.6501	986.5	102.8
994.8558	2683.8928	987	105.25
994.9788	2685.1348	984.3	100.25
995.1017	2686.3761	983.5	99.2
995.2245	2687.6168	980.95	97.35
995.3474	2688.8568	985.65	103.1
995.4702	2690.0961	984.55	103.05
995.5929	2691.3348	981.3	93.75
995.7156	2692.5727	982.7	96.55
995.8383	2693.81	982.45	99.35
995.961	2695.0466	980.45	98.6
996.0836	2696.2826	984.7	98.65
996.2062	2697.5178	983.8	96.05
996.3287	2698.7524	980.4	96
996.4512	2699.9863	983.75	97.05
996.5737	2701.2195	981.15	98.4
996.6961	2702.452	983.5	97.4
996.8185	2703.6839	986.55	100.35
996.9408	2704.9151	979.15	96.75
997.0631	2706.1456	983.1	97.3
997.1854	2707.3755	982.1	97.95
997.3077	2708.6046	984.8	97.8
997.4299	2709.8331	982.5	98.7
997.552	2711.0609	980.3	97.05
997.6742	2712.2881	983.35	98.1
997.7963	2713.5145	981.85	96
997.9183	2714.7403	980.25	99.25
998.0403	2715.9654	982.45	96.95
998.1623	2717.1899	994.85	95.6
998.2842	2718.4136	979.7	95.4
998.4062	2719.6367	982.95	99.9
998.528	2720.8591	989.7	101.15
998.6498	2722.0809	985.4	102.65
998.7716	2723.3019	987.9	101.95
998.8934	2724.5223	984.7	101.65
999.0151	2725.7421	983.8	101.55
999.1368	2726.9611	987.8	101.3
999.2584	2728.1795	983.4	95.75
999.38	2729.3972	981.25	97.35
999.5016	2730.6142	987.4	97.3
999.6231	2731.8306	980	93
999.7446	2733.0462	976.75	91.5
999.8661	2734.2612	982.9	94.5
999.9875	2735.4756	977.15	93.45
1000.1089	2736.6892	974.5	91.05
1000.2302	2737.9022	973.55	92.55
1000.3515	2739.1145	969.9	87.7
1000.4728	2740.3262	980.15	89
1000.594	2741.5372	969.45	86.45
1000.7152	2742.7475	970.55	85.8
1000.8363	2743.9571	977.5	93.2
1000.9575	2745.1661	978.7	90.5
1001.0785	2746.3744	966.35	81.7
1001.1996	2747.582	966.8	82.3
1001.3206	2748.7889	970.35	84.95
1001.4415	2749.9952	967.3	85.3
1001.5625	2751.2008	965.8	82.5
1001.6833	2752.4057	969	81.95
1001.8042	2753.61	966.85	81.85
1001.925	2754.8136	966.8	80.3
1002.0458	2756.0165	961	79.05
1002.1665	2757.2188	963.5	79.3
1002.2872	2758.4204	963.05	80.85
1002.4078	2759.6213	962.35	74.7
1002.5285	2760.8215	967.35	79.9
1002.649	2762.0211	963.8	78.55
1002.7696	2763.22	964.55	77.2
1002.8901	2764.4182	963.65	77.85
1003.0106	2765.6158	965.65	83.2
1003.131	2766.8127	962.35	77.8
1003.2514	2768.009	960.95	77
1003.3717	2769.2045	961	76.3
1003.492	2770.3994	960.85	76.75
1003.6123	2771.5936	960.3	75.7
1003.7325	2772.7872	955.1	71.9
1003.8527	2773.9801	961.6	75.5
1003.9729	2775.1723	973.75	73.6
1004.093	2776.3639	956.15	71.95
1004.2131	2777.5548	959.7	75.55
1004.3331	2778.745	963.05	76.9
1004.4531	2779.9346	957.9	74.75
1004.5731	2781.1235	959.65	76.55
1004.693	2782.3117	958.45	73.15
1004.8129	2783.4992	952.2	69.6
1004.9328	2784.6861	955.4	72.15
1005.0526	2785.8723	959.6	75.35
1005.1723	2787.0579	956.05	71.45
1005.2921	2788.2428	957.05	74.7
1005.4118	2789.427	954.1	71.1
1005.5314	2790.6106	955.65	72.4
1005.651	2791.7935	955.25	70.3
1005.7706	2792.9757	954	72
1005.8902	2794.1573	957.15	71.5
1006.0097	2795.3382	954.45	70.8
1006.1291	2796.5184	951.9	68.55
1006.2485	2797.698	957	70.45
1006.3679	2798.8769	955.85	73.6
1006.4873	2800.0551	954.8	69.9
1006.6066	2801.2327	962.1	75.55
1006.7258	2802.4096	957.8	74.85
1006.8451	2803.5859	959.55	74.3
1006.9642	2804.7615	955.1	70.8
1007.0834	2805.9364	955.5	71.45
1007.2025	2807.1106	956.15	73.7
1007.3216	2808.2842	959.95	74.1
1007.4406	2809.4572	959	74.9
1007.5596	2810.6294	959.95	73.95
1007.6785	2811.801	956.2	74
1007.7975	2812.972	961.7	78.05
1007.9163	2814.1423	958.8	75.5
1008.0352	2815.3119	963.2	79.8
1008.154	2816.4808	967.7	86.6
1008.2727	2817.6491	967.6	84.6
1008.3914	2818.8167	966.8	83.2
1008.5101	2819.9837	976.45	89.65
1008.6288	2821.15	976.9	92.05
1008.7474	2822.3157	978.1	96.1
1008.8659	2823.4807	983.8	99.6
1008.9844	2824.645	987.75	103.25
1009.1029	2825.8086	995.25	112.6
1009.2214	2826.9716	1002.1	119.65
1009.3398	2828.134	1009.7	127
1009.4581	2829.2957	1010.95	127.2
1009.5764	2830.4567	1019.9	135.9
1009.6947	2831.617	1021.65	139
1009.813	2832.7767	1021.65	138.7
1009.9312	2833.9358	1021.3	139.6
1010.0493	2835.0941	1024.35	138.15
1010.1675	2836.2519	1017.15	134.5
1010.2855	2837.4089	1018.15	133.6
1010.4036	2838.5653	1015.75	132.65
1010.5216	2839.7211	1009.25	127
1010.6396	2840.8761	1008.3	124.25
1010.7575	2842.0306	1009.4	126.95
1010.8754	2843.1843	1007.85	124.7
1010.9932	2844.3374	1009.25	124
1011.111	2845.4899	1010.95	125.8
1011.2288	2846.6417	1011.6	128.3
1011.3465	2847.7928	1013.05	130.3
1011.4642	2848.9433	1018.9	135.35
1011.5818	2850.0931	1013.55	130.65
1011.6995	2851.2422	1016.15	131.15
1011.817	2852.3907	1013.8	129.05
1011.9345	2853.5385	1020.2	135.1
1012.052	2854.6857	1026.65	134.3
1012.1695	2855.8323	1018.25	134.55
1012.2869	2856.9781	1021.15	136.25
1012.4042	2858.1233	1018.9	137.7
1012.5216	2859.2679	1022.25	141
1012.6389	2860.4118	1029.1	145.25
1012.7561	2861.555	1035.55	148.45
1012.8733	2862.6976	1030.75	145.05
1012.9905	2863.8395	1030.75	147.85
1013.1076	2864.9808	1031.2	148.2
1013.2247	2866.1214	1035.95	152.5
1013.3417	2867.2614	1037.65	151.95
1013.4587	2868.4007	1040.85	156.2
1013.5757	2869.5393	1038.9	156.3
1013.6926	2870.6773	1040.45	151.8
1013.8095	2871.8146	1046.5	161.25
1013.9263	2872.9513	1043.85	158.6
1014.0431	2874.0874	1044.7	161.95
1014.1599	2875.2227	1048	163.5
1014.2766	2876.3574	1048.55	164.45
1014.3933	2877.4915	1047.4	165.85
1014.51	2878.6249	1054.15	170.15
1014.6266	2879.7577	1055.8	170.3
1014.7431	2880.8898	1067.7	171.5
1014.8596	2882.0212	1054.35	172.95
1014.9761	2883.152	1056.4	171.85
1015.0925	2884.2821	1057.3	174.55
1015.2089	2885.4116	1059.35	177.55
1015.3253	2886.5405	1063.8	180.1
1015.4416	2887.6686	1068.5	180.75
1015.5579	2888.7962	1059.65	177.3
1015.6741	2889.923	1056.05	172.7
1015.7903	2891.0493	1062.8	182.5
1015.9065	2892.1748	1059.25	175.2
1016.0226	2893.2997	1063.45	177.9
1016.1387	2894.424	1063.35	181.25
1016.2547	2895.5476	1063.25	180.35
1016.3707	2896.6706	1062.5	181.2
1016.4866	2897.7929	1060.75	176.5
1016.6025	2898.9145	1065.45	180.85
1016.7184	2900.0355	1062.85	178.65
1016.8342	2901.1559	1060.8	177.7
1016.95	2902.2756	1063.45	177.25
1017.0658	2903.3946	1058.35	175.6
1017.1815	2904.513	1063.9	176.75
1017.2971	2905.6308	1055.65	173.4
1017.4127	2906.7479	1057.85	173.3
1017.5283	2907.8643	1055.3	169.4
1017.6439	2908.9801	1059.9	176.5
1017.7594	2910.0953	1061.15	177.2
1017.8748	2911.2098	1057.9	171.15
1017.9902	2912.3236	1063.65	174
1018.1056	2913.4368	1058.3	170.05
1018.2209	2914.5494	1054.85	171.9
1018.3362	2915.6613	1058.5	171.7
1018.4515	2916.7725	1051.3	165.45
1018.5667	2917.8831	1052.25	168.6
1018.6819	2918.9931	1052.2	165.4
1018.797	2920.1024	1049.85	166.95
1018.9121	2921.211	1041.2	156.2
1019.0271	2922.319	1041.9	158.3
1019.1421	2923.4264	1040.3	158.6
1019.2571	2924.5331	1040.05	157.65
1019.372	2925.6391	1039.55	156.75
1019.4869	2926.7445	1039.4	156.9
1019.6017	2927.8493	1038.35	155.35
1019.7165	2928.9534	1040.6	157.6
1019.8313	2930.0569	1038.1	148.5
1019.946	2931.1597	1042.3	157.45
1020.0606	2932.2619	1044	159.1
1020.1753	2933.3634	1040.4	156.75
1020.2899	2934.4643	1045.2	156.4
1020.4044	2935.5645	1052.7	162.8
1020.5189	2936.6641	1048.85	162.25
1020.6334	2937.763	1042.95	161.3
1020.7478	2938.8613	1046.15	162
1020.8622	2939.959	1043.85	156.65
1020.9765	2941.056	1038.65	154.25
1021.0908	2942.1523	1037.6	154.6
1021.2051	2943.248	1034.15	151.2
1021.3193	2944.3431	1026.65	142.65
1021.4334	2945.4375	1018.5	135.1
1021.5476	2946.5313	1013.5	132.1
1021.6617	2947.6244	1008.25	123.65
1021.7757	2948.7169	1004.65	121.3
1021.8897	2949.8087	998.8	114.8
1022.0037	2950.8999	989.95	107.6
1022.1176	2951.9904	986	102.25
1022.2315	2953.0803	983.6	101.75
1022.3453	2954.1696	980.55	98.95
1022.4591	2955.2582	975.65	92.75
1022.5728	2956.3462	980	97.55
1022.6865	2957.4335	975.2	91.45
1022.8002	2958.5202	975.45	89.7
1022.9138	2959.6062	971.95	88.1
1023.0274	2960.6916	970.4	86.3
1023.141	2961.7764	969.45	85.25
1023.2545	2962.8605	973.3	89.75
1023.3679	2963.9439	972.8	89.6
1023.4813	2965.0267	974.15	89.9
1023.5947	2966.1089	992.45	87.45
1023.708	2967.1905	971.4	89.3
1023.8213	2968.2714	967.9	85.35
1023.9346	2969.3516	970.15	87.15
1024.0478	2970.4312	974.6	82.6
1024.1609	2971.5102	970.55	88.05
1024.274	2972.5885	967.2	84.55
1024.3871	2973.6662	971.75	83.45
1024.5002	2974.7432	969.05	85.8
1024.6132	2975.8196	966.1	83.5
1024.7261	2976.8954	965.7	81.05
1024.839	2977.9705	965.25	80.8
1024.9519	2979.045	964.75	81.8
1025.0647	2980.1188	967.75	83.75
1025.1775	2981.192	968.9	88.05
1025.2902	2982.2645	966.3	83.1
1025.4029	2983.3364	963.05	79.9
1025.5156	2984.4077	964.45	82.15
1025.6282	2985.4783	967.6	77.9
1025.7407	2986.5483	957.55	76.15
1025.8532	2987.6177	955.2	74.5
1025.9657	2988.6864	954.95	71.5
1026.0782	2989.7545	951.55	66
1026.1906	2990.8219	953.7	70.35
1026.3029	2991.8887	953.1	69.45
1026.4152	2992.9548	949.8	64.8
1026.5275	2994.0204	945.4	62.3
1026.6397	2995.0852	943.25	59.75
1026.7519	2996.1495	942.1	56.85
1026.864	2997.2131	938.45	55.45
1026.9761	2998.276	937.1	55.1
1027.0882	2999.3383	935.65	52.1
1027.2002	3000.4	933.35	50.7
1027.3122	3001.4611	934	48.15
1027.4241	3002.5215	931.45	49.45
1027.536	3003.5812	930	45.65
1027.6478	3004.6404	930.35	47.4
1027.7596	3005.6989	929.05	44.95
1027.8714	3006.7567	926.05	42.85
1027.9831	3007.8139	948	43.4
1028.0947	3008.8705	925.95	41.5
1028.2064	3009.9264	942.95	44.2
1028.3179	3010.9818	925.4	40.7
1028.4295	3012.0364	922.2	38.2
1028.541	3013.0905	923.6	41.2
1028.6524	3014.1439	923.05	40
1028.7638	3015.1966	922.1	38.8
1028.8752	3016.2487	921.15	36.95
1028.9865	3017.3002	927	40.45
1029.0978	3018.3511	920.7	39.2
1029.209	3019.4013	922	40
1029.3202	3020.4509	921.3	37.4
1029.4314	3021.4998	921.75	36.85
1029.5425	3022.5481	920	36.8
1029.6535	3023.5958	919.65	36.9
1029.7645	3024.6428	918.45	34.85
1029.8755	3025.6892	920.2	37.45
1029.9864	3026.735	922	39.35
1030.0973	3027.7802	919.7	36.7
1030.2082	3028.8247	921.85	39.55
1030.319	3029.8685	918.9	33.2
1030.4297	3030.9118	920.75	37.8
1030.5404	3031.9544	917.75	35.55
1030.6511	3032.9963	919.1	34.15
1030.7617	3034.0376	918.35	36.05
1030.8723	3035.0783	923.5	35.8
1030.9829	3036.1184	921.75	38.75
1031.0934	3037.1578	917.75	36.4
1031.2038	3038.1966	919.3	36
1031.3142	3039.2348	918.75	36.1
1031.4246	3040.2723	927.3	34.5
1031.5349	3041.3092	917.85	34.9
1031.6452	3042.3455	917.9	35.15
1031.7554	3043.3811	921.8	39.3
1031.8656	3044.4161	918.2	34.55
1031.9758	3045.4505	919.1	37.45
1032.0859	3046.4842	920.7	35.3
1032.1959	3047.5173	917.4	36.5
1032.3059	3048.5498	920.15	36.2
1032.4159	3049.5816	918.6	33.8
1032.5258	3050.6128	920.05	36.6
1032.6357	3051.6434	918.15	33.35
1032.7455	3052.6734	919.85	36.45
1032.8553	3053.7027	920.55	38.9
1032.9651	3054.7314	917.6	35.85
1033.0748	3055.7594	918.25	36.7
1033.1845	3056.7868	920.45	36.7
1033.2941	3057.8136	918.45	35.85
1033.4037	3058.8398	919.4	37.3
1033.5132	3059.8653	919.45	36.25
1033.6227	3060.8902	916.65	35.25
1033.7321	3061.9145	917.9	34.35
1033.8415	3062.9381	922.3	37.5
1033.9509	3063.9612	935.45	36
1034.0602	3064.9835	920.1	34.8
1034.1694	3066.0053	921.65	36.2
1034.2787	3067.0264	919.5	35.45
1034.3878	3068.0469	919.95	35.65
1034.497	3069.0668	922.65	35.85
1034.6061	3070.086	919.45	37.2
1034.7151	3071.1046	921.85	36.35
1034.8241	3072.1226	917.05	32.6
1034.9331	3073.1399	917.55	34.75
1035.042	3074.1567	916.65	33.6
1035.1508	3075.1727	917.3	31.4
1035.2597	3076.1882	918.45	36.65
1035.3684	3077.203	916.7	32.05
1035.4772	3078.2173	918.85	33.4
1035.5859	3079.2308	920.75	36.45
1035.6945	3080.2438	916.5	31.85
1035.8031	3081.2561	915.2	32.15
1035.9117	3082.2678	912.75	30.15
1036.0202	3083.2789	913.5	30.7
1036.1286	3084.2893	911.9	29.95
1036.2371	3085.2991	914.55	30.65
1036.3454	3086.3083	917.15	31.4
1036.4538	3087.3169	912.35	27.4
1036.562	3088.3248	914.75	27.5
1036.6703	3089.3321	913.8	29.05
1036.7785	3090.3388	909.7	27.85
1036.8866	3091.3449	911.15	27.1
1036.9948	3092.3503	911.9	26.9
1037.1028	3093.3551	910	27.4
1037.2108	3094.3593	908.15	26.6
1037.3188	3095.3629	908.9	26.6
1037.4267	3096.3658	912.65	28.95
1037.5346	3097.3681	908.95	27
1037.6425	3098.3698	911.1	26.95
1037.7503	3099.3708	915.9	26.7
1037.858	3100.3713	907.95	24.65
1037.9657	3101.3711	908.5	24.65
1038.0734	3102.3702	1039.65	22.4
1038.181	3103.3688	910.45	25.35
1038.2886	3104.3667	906.8	25.75
1038.3961	3105.364	906.4	24.7
1038.5036	3106.3607	908.55	23.45
1038.611	3107.3568	907.65	24.5
1038.7184	3108.3522	907.5	24.35
1038.8257	3109.347	908.3	22.5
1038.933	3110.3412	908.65	22.6
1039.0403	3111.3348	907.05	24
1039.1475	3112.3277	907.15	25.35
1039.2547	3113.32	904.2	22.1
1039.3618	3114.3117	907.2	22.7
1039.4689	3115.3028	906.4	22.6
1039.5759	3116.2932	908.75	23.95
1039.6829	3117.2831	912.65	21.45
1039.7898	3118.2723	905.75	22.3
1039.8967	3119.2608	904.75	23.05
1040.0035	3120.2488	904.65	21.75
1040.1103	3121.2361	905.3	21.1
1040.2171	3122.2229	906.6	25.25
1040.3238	3123.209	905.4	20.45
1040.4305	3124.1944	905.15	22.45
1040.5371	3125.1793	904.2	19.05
1040.6437	3126.1635	904.8	23.45
1040.7502	3127.1471	903.55	20.55
1040.8567	3128.1301	900.85	19.4
1040.9631	3129.1125	904.55	21.25
1041.0695	3130.0942	902.9	19.55
1041.1759	3131.0753	913.7	21.4
1041.2822	3132.0558	904.4	19.35
1041.3884	3133.0357	903	19.55
1041.4946	3134.015	902.8	19.3
1041.6008	3134.9936	902.95	18.55
1041.7069	3135.9716	922.6	21.3
1041.813	3136.949	901.8	20.1
1041.919	3137.9258	921.1	20.3
1042.025	3138.902	907.75	19.55
1042.1309	3139.8775	903.1	21
1042.2368	3140.8524	902.15	20.65
1042.3427	3141.8267	901.35	15.6
1042.4485	3142.8004	902.7	18.95
1042.5542	3143.7735	907.95	18.1
1042.6599	3144.7459	906.65	21.85
1042.7656	3145.7178	903.45	17.4
1042.8712	3146.689	901.05	19.6
1042.9768	3147.6596	904.4	19.1
1043.0823	3148.6295	901.5	17.3
1043.1878	3149.5989	902.45	19.05
1043.2932	3150.5676	900.15	19.4
1043.3986	3151.5357	900.45	19.6
1043.5039	3152.5032	903.4	21.9
1043.6092	3153.4701	900.45	17.45
1043.7145	3154.4364	903.15	16.4
1043.8197	3155.402	897.25	14.85
1043.9248	3156.367	902.55	17.1
1044.03	3157.3315	937.05	16.15
1044.135	3158.2952	902.6	18.45
1044.24	3159.2584	901.3	19.8
1044.345	3160.221	901.65	15.7
1044.4499	3161.1829	901.65	20.25
1044.5548	3162.1442	899.25	15.4
1044.6596	3163.105	900.7	16.95
1044.7644	3164.065	896.9	13.95
1044.8692	3165.0245	902.9	15.8
1044.9739	3165.9834	897.8	16.7
1045.0785	3166.9416	900.45	17.6
1045.1831	3167.8993	897.75	14.85
1045.2877	3168.8563	900.4	14.6
1045.3922	3169.8127	898.75	17.8
1045.4966	3170.7684	901.2	16.85
1045.6011	3171.7236	899.15	14.65
1045.7054	3172.6782	899.7	15.85
1045.8098	3173.6321	898.95	16
1045.914	3174.5854	903.05	15.8
1046.0183	3175.5381	898.85	15
1046.1224	3176.4902	899.7	17.05
1046.2266	3177.4417	897.2	11.85
1046.3307	3178.3926	896.5	12.45
1046.4347	3179.3428	896.7	16.85
1046.5387	3180.2924	897.35	15.75
1046.6427	3181.2415	896.85	12.5
1046.7466	3182.1899	898.15	14.5
1046.8504	3183.1377	895.7	13.5
1046.9542	3184.0848	899.85	13.1
1047.058	3185.0314	898.8	15.35
1047.1617	3185.9773	899.25	16.3
1047.2654	3186.9227	899.75	15.8
1047.369	3187.8674	898.4	14.1
1047.4726	3188.8115	901.3	15.85
1047.5761	3189.755	895.55	12.65
1047.6796	3190.6979	898.55	15.8
1047.783	3191.6402	896.25	15.4
1047.8864	3192.5818	896.65	15.15
1047.9898	3193.5229	900.6	10.9
1048.0931	3194.4633	897.9	14.65
1048.1963	3195.4031	898.5	15.35
1048.2995	3196.3423	896.25	14.55
1048.4027	3197.2809	896.8	14.5
1048.5058	3198.2189	897.15	13.45
1048.6089	3199.1563	903.15	14.25
1048.7119	3200.0931	898.25	16.15
1048.8148	3201.0292	893.75	10.8
1048.9178	3201.9648	895.7	11.8
1049.0206	3202.8997	899.85	13.15
1049.1235	3203.834	895.1	10
1049.2262	3204.7677	895.3	13.6
1049.329	3205.7008	898.15	13.25
1049.4317	3206.6333	895.15	11.95
1049.5343	3207.5652	897.35	12.6
1049.6369	3208.4964	896.8	13.75
1049.7394	3209.4271	894.95	13.15
1049.8419	3210.3571	893.85	12.55
1049.9444	3211.2865	895.4	10.6
1050.0468	3212.2154	894.5	8.95
1050.1491	3213.1436	898.7	14.45
1050.2514	3214.0712	902.85	14.7
1050.3537	3214.9982	894	10.95
1050.4559	3215.9246	895.65	11.7
1050.5581	3216.8503	893.95	11.95
1050.6602	3217.7755	894.3	12.85
1050.7623	3218.7001	895.3	11.9
1050.8643	3219.624	894.75	11.85
1050.9663	3220.5473	895	10.15
1051.0682	3221.4701	895.2	12.75
1051.1701	3222.3922	897.3	14.1
1051.2719	3223.3137	892.8	10.05
1051.3737	3224.2346	896.25	13.35
1051.4754	3225.1549	894.55	11.5
1051.5771	3226.0746	892.75	11.1
1051.6788	3226.9937	897.45	14.3
1051.7804	3227.9121	892.7	9.15
1051.8819	3228.83	894.15	12.9
1051.9834	3229.7473	892.25	8.55
1052.0849	3230.6639	893.55	8.15
1052.1863	3231.5799	893.15	9.35
1052.2876	3232.4954	896.75	13.4
1052.3889	3233.4102	893.7	11.65
1052.4902	3234.3244	895.4	10.95
1052.5914	3235.238	894.25	13.15
1052.6926	3236.151	919.95	11
1052.7937	3237.0634	891.6	9.05
1052.8948	3237.9752	893.3	10.35
1052.9958	3238.8864	894.3	10.1
1053.0968	3239.797	891.1	9.95
1053.1977	3240.7069	894.85	12.6
1053.2986	3241.6163	897.15	12.3
1053.3994	3242.5251	891.75	9.35
1053.5002	3243.4332	892.35	11.5
1053.6009	3244.3408	894.9	11.75
1053.7016	3245.2477	891.2	10
1053.8022	3246.154	894.45	12.6
1053.9028	3247.0598	893.45	10.35
1054.0034	3247.9649	894.55	11.8
1054.1039	3248.8694	891.3	8.15
1054.2043	3249.7733	893	11.5
1054.3047	3250.6766	893.7	13.05
1054.4051	3251.5793	894.05	8.2
1054.5054	3252.4814	893.4	10.9
1054.6056	3253.3829	893.05	10.9
1054.7058	3254.2838	892.7	8.25
1054.806	3255.1841	891.85	8.75
1054.9061	3256.0838	891.8	7.5
1055.0061	3256.9829	893.5	12.6
1055.1062	3257.8814	892.2	6.95
1055.2061	3258.7792	892.55	6.75
1055.306	3259.6765	893.3	9.6
1055.4059	3260.5731	889.8	6.55
1055.5057	3261.4692	889.85	5.95
1055.6055	3262.3647	894.65	10.4
1055.7052	3263.2595	891.5	8.15
1055.8049	3264.1538	890.15	6.6
1055.9045	3265.0474	892.35	8
1056.0041	3265.9404	889.3	7.7
1056.1036	3266.8329	890.6	8.5
1056.2031	3267.7247	901.7	6.35
1056.3025	3268.616	890.15	8.15
1056.4019	3269.5066	892.1	9.1
1056.5013	3270.3966	892.7	6.9
1056.6005	3271.286	887.5	7.05
