Software Version:	3.9.2.0
Unit SN:	10000200
Spectrometer SN:	6960
Date:	3/26/2024 1:44:16 PM
Data Line Index:	25
Spectral Points:	2048
Integration time (ms):	125
Averages:	20
Delay (ms):	30000
Sequence Number:	1
Processing:	dark subtract
Laser Power (mW):	300
Laser Current (mA):	821
Laser Diode Temp (C):	25.1
Laser Case Temp (C):	27.2
System Temp (C):	27.2
Spectrometer Temp (C):	25.1
CCD Temp (C):	0.004
Secondary Temp (C):	20.007
Heatsink Temp (C):	22.402
CCDPCB Temp (C):	36.629
SecondaryPCB Temp (C):	34.306

Wavelength	RamanShift	Raw Counts	Dark Subtracted
787.061	30.1047	599	186.45
787.2016	32.3739	603.45	194.65
787.3422	34.6426	619.7	211.7
787.4828	36.9109	634.35	222.4
787.6235	39.1787	654	236.45
787.7642	41.4461	678.25	256.4
787.9049	43.7131	694.2	269.45
788.0456	45.9796	719.6	291.15
788.1863	48.2456	743.15	311.7
788.3271	50.5112	760.05	324.2
788.4679	52.7764	783.65	348.1
788.6087	55.0411	809	367.25
788.7496	57.3054	835.3	390.2
788.8904	59.5692	860.7	410.4
789.0313	61.8326	893.75	439
789.1722	64.0955	925.65	467.8
789.3132	66.3579	959.15	498.1
789.4541	68.6199	1017.75	550.95
789.5951	70.8815	1095.65	627.1
789.7361	73.1426	1273.1	800.05
789.8771	75.4032	1725.85	1246.85
790.0181	77.6634	2811.45	2327.05
790.1592	79.9231	5551.2	5056.9
790.3003	82.1824	11801.1	11289.25
790.4414	84.4412	24592.4	24046.9
790.5825	86.6995	46715.3	46126.05
790.7237	88.9574	58820.1	58187.45
790.8648	91.2148	62807.45	62146.25
791.006	93.4717	63444.9	62769.45
791.1472	95.7282	63726.7	63035.65
791.2885	97.9842	63845.25	63146.3
791.4297	100.2398	63785.05	63087.95
791.571	102.4949	63752.85	63053.7
791.7123	104.7495	63683.95	62983.8
791.8536	107.0036	63552.95	62847.65
791.9949	109.2573	63677.4	62976.15
792.1363	111.5105	63502.65	62795.8
792.2777	113.7632	63494.95	62787.45
792.4191	116.0154	63516	62796.6
792.5605	118.2672	63593.9	62882.7
792.7019	120.5185	63580.35	62869.95
792.8434	122.7693	63579.05	62863.35
792.9849	125.0197	63324.5	62605.55
793.1264	127.2696	63691.2	62972.3
793.2679	129.519	63591.65	62864.5
793.4094	131.7679	63728.6	63001.35
793.551	134.0163	63329.75	62599.65
793.6926	136.2642	63484.85	62745.35
793.8342	138.5117	63689.05	62940.9
793.9758	140.7587	63559.75	62819.95
794.1175	143.0052	63518.95	62776.85
794.2591	145.2512	63298.4	62556.45
794.4008	147.4967	63554.7	62813.85
794.5425	149.7417	63454.95	62711.55
794.6842	151.9863	63439.75	62696.5
794.826	154.2304	63282.1	62528.85
794.9677	156.4739	63378.8	62620.4
795.1095	158.717	63532.25	62776.2
795.2513	160.9596	63401.85	62641.1
795.3931	163.2017	63201.65	62439.7
795.535	165.4433	63372	62606.4
795.6768	167.6844	63220.45	62455.05
795.8187	169.925	63313.05	62547.15
795.9606	172.1651	63165.5	62397.45
796.1025	174.4047	63216.75	62442.75
796.2445	176.6439	63172.8	62397.6
796.3864	178.8825	63097.3	62322.9
796.5284	181.1206	63258.2	62474.1
796.6704	183.3582	63218.6	62430.9
796.8124	185.5954	63111.05	62320.4
796.9544	187.832	63126.45	62333.05
797.0965	190.0681	62965.8	62172.8
797.2386	192.3037	63215.15	62418.65
797.3806	194.5388	63445.35	62642.6
797.5228	196.7734	62851.55	62047.1
797.6649	199.0075	63395.5	62586.35
797.807	201.2411	63203.2	62392
797.9492	203.4742	63497.8	62693.35
798.0914	205.7068	63398.1	62586.65
798.2336	207.9389	63385.25	62573.35
798.3758	210.1704	63336.3	62523.7
798.518	212.4015	63577.5	62762.15
798.6603	214.632	63306.5	62493.3
798.8025	216.862	63584.15	62778
798.9448	219.0915	63453.2	62654.3
799.0871	221.3205	63433.7	62636.05
799.2294	223.549	63671.5	62881.2
799.3718	225.777	63620.85	62825.95
799.5141	228.0044	63755.45	62953.55
799.6565	230.2314	63662.1	62868.55
799.7989	232.4578	63651.5	62856.35
799.9413	234.6837	63700.75	62902.65
800.0837	236.909	64164.8	63359.65
800.2262	239.1339	63519.5	62689
800.3687	241.3582	63763.5	62945.2
800.5111	243.582	63755.3	62912.85
800.6536	245.8053	63720.85	62888.4
800.7961	248.0281	63760.9	62932
800.9387	250.2503	63831.1	62996.1
801.0812	252.472	63641	62802.55
801.2238	254.6932	63768.45	62931.5
801.3664	256.9139	63681.2	62835.7
801.509	259.134	64100.35	63253.25
801.6516	261.3536	63649.55	62808.45
801.7942	263.5727	63923.9	63075.85
801.9369	265.7912	63791.15	62947.95
802.0795	268.0092	63853.05	63012.1
802.2222	270.2267	63891.7	63046.7
802.3649	272.4436	63699.9	62853.9
802.5076	274.6601	63899.75	63045.45
802.6504	276.8759	63985.9	63140.55
802.7931	279.0913	63828.3	62979.85
802.9359	281.3061	63888.8	63033.3
803.0787	283.5204	63879.15	63023.3
803.2215	285.7341	63866.2	63006.85
803.3643	287.9473	64054.25	63185.2
803.5071	290.16	63894.7	63029.95
803.6499	292.3721	64004.15	63141.5
803.7928	294.5837	63872.65	63010.05
803.9357	296.7947	63761.85	62902.75
804.0786	299.0052	64068.4	63210.1
804.2215	301.2152	63894	63034.05
804.3644	303.4246	64022.7	63164.95
804.5074	305.6334	63979	63120.35
804.6503	307.8418	63725.65	62861.6
804.7933	310.0495	63708.6	62847.85
804.9363	312.2568	63659.75	62793.65
805.0793	314.4635	63619	62750.75
805.2223	316.6696	63730.4	62860.95
805.3653	318.8752	63827.3	62953.25
805.5084	321.0802	63377.1	62509.6
805.6514	323.2847	63565.65	62693.05
805.7945	325.4887	63562.7	62693.45
805.9376	327.692	63465.35	62598.6
806.0807	329.8949	63555.4	62679.8
806.2238	332.0972	63455.25	62582.65
806.367	334.2989	63496.3	62619.5
806.5101	336.5001	63616.1	62741.35
806.6533	338.7007	63288.35	62408.45
806.7965	340.9008	63432.9	62552.35
806.9397	343.1003	63429.3	62551.65
807.0829	345.2992	63550.65	62666.65
807.2261	347.4976	63356.35	62478.55
807.3693	349.6955	63445.45	62559.95
807.5126	351.8927	63329.25	62440.8
807.6559	354.0895	63456.6	62563.05
807.7991	356.2856	63416.2	62530
807.9424	358.4812	63538.2	62647.7
808.0857	360.6763	63309.5	62418.9
808.2291	362.8707	63480.9	62588.95
808.3724	365.0646	63356.1	62459.4
808.5158	367.258	63377.55	62484.65
808.6591	369.4508	63243.45	62345.15
808.8025	371.643	63477.9	62580.05
808.9459	373.8346	63375.65	62480
809.0893	376.0257	63368.55	62469.8
809.2327	378.2162	63309.8	62408
809.3762	380.4062	63132.5	62227.15
809.5196	382.5956	63247.1	62342.9
809.6631	384.7844	63244.1	62349.9
809.8066	386.9726	63310.75	62409.2
809.9501	389.1603	63301.6	62401.9
810.0936	391.3474	63103.5	62163.2
810.2371	393.5339	63236.95	62335.2
810.3806	395.7199	63032.35	62135.95
810.5241	397.9052	63075.5	62183.2
810.6677	400.09	63133.95	62240.35
810.8113	402.2743	63239.95	62348.3
810.9548	404.4579	63105.85	62214.3
811.0984	406.641	63109.9	62216.7
811.2421	408.8235	63198.85	62305.1
811.3857	411.0054	63220.8	62326.4
811.5293	413.1868	63245.1	62338.25
811.673	415.3675	63226.55	62327.65
811.8166	417.5477	63250.15	62350.05
811.9603	419.7273	63215.05	62308.8
812.104	421.9064	63183.25	62273.7
812.2477	424.0848	63195.7	62292.25
812.3914	426.2627	63261.8	62355.9
812.5351	428.4399	63045.85	62142.35
812.6788	430.6166	62888.15	61976.85
812.8226	432.7928	63045.75	62135.2
812.9663	434.9683	62847.85	61941.3
813.1101	437.1432	62842.4	61938.1
813.2539	439.3176	62938.65	62040.1
813.3977	441.4914	62697.9	61792.45
813.5415	443.6645	62738.8	61838.2
813.6853	445.8371	62728.65	61818
813.8291	448.0091	62643.25	61736.3
813.973	450.1806	62579.6	61668.85
814.1168	452.3514	62586.55	61683.95
814.2607	454.5216	62473.9	61564.15
814.4046	456.6913	62590.35	61684.1
814.5485	458.8603	62627.15	61721.5
814.6924	461.0288	62457.4	61557.85
814.8363	463.1967	62592	61690.9
814.9802	465.3639	62614.5	61708.7
815.1241	467.5306	62274.05	61364.45
815.2681	469.6967	62465.55	61566.3
815.412	471.8622	62545.55	61644.8
815.556	474.0271	62451.75	61546.4
815.7	476.1914	62472	61561.05
815.844	478.3551	62503.2	61593.4
815.988	480.5182	62637.75	61730.25
816.132	482.6807	62408.7	61508.55
816.276	484.8426	62467.3	61576.85
816.4201	487.0039	62688.8	61790.5
816.5641	489.1647	62708.7	61801.85
816.7082	491.3248	62513.3	61602.9
816.8522	493.4843	62761.2	61858.3
816.9963	495.6432	62734.3	61829.5
817.1404	497.8015	62487.15	61574.7
817.2845	499.9592	62615.8	61695.35
817.4286	502.1163	62605.6	61690.85
817.5727	504.2728	62534.25	61622.5
817.7168	506.4287	62533.45	61635.35
817.861	508.5839	62355.9	61456.8
818.0051	510.7386	62388.4	61478.1
818.1493	512.8927	62437.15	61518.8
818.2935	515.0461	62364.95	61449.65
818.4377	517.199	62458.9	61543
818.5818	519.3512	62399.15	61479.95
818.726	521.5029	62369.8	61451
818.8703	523.6539	62429.8	61516.25
819.0145	525.8043	62216.75	61299.8
819.1587	527.9541	62376.05	61456.95
819.303	530.1033	62350.5	61432.9
819.4472	532.2519	62256	61339.5
819.5915	534.3999	62377.3	61455.95
819.7357	536.5472	62450.45	61535.8
819.88	538.694	62268.45	61354.95
820.0243	540.8401	62451.85	61531.9
820.1686	542.9856	62446.4	61515.85
820.3129	545.1305	62504.15	61568.15
820.4572	547.2748	62395.65	61457.45
820.6016	549.4185	62388.35	61448.9
820.7459	551.5615	62444.6	61508.2
820.8902	553.704	62394.35	61458.1
821.0346	555.8458	62279.2	61351.35
821.1789	557.987	62337.35	61412.2
821.3233	560.1276	62387.75	61459.95
821.4677	562.2675	62350.85	61422.4
821.6121	564.4069	62434.95	61501.4
821.7565	566.5456	62543.8	61616.35
821.9009	568.6837	62348.85	61421.65
822.0453	570.8212	62360.85	61438.95
822.1897	572.958	62027.3	61101.45
822.3342	575.0942	62192.3	61268.6
822.4786	577.2299	61942.8	61023.55
822.6231	579.3648	61924.75	61015.9
822.7675	581.4992	61853.85	60955.1
822.912	583.6329	61833.35	60933.55
823.0565	585.766	61893.8	60989.85
823.201	587.8985	61987.65	61077.6
823.3454	590.0304	61657.05	60710.6
823.4899	592.1616	61876.4	60946.7
823.6345	594.2922	61707.25	60777.3
823.779	596.4222	61512.9	60581.6
823.9235	598.5515	61529.7	60593.45
824.068	600.6802	61643.5	60711.75
824.2126	602.8083	61339	60412.75
824.3571	604.9358	61319.8	60387.6
824.5017	607.0626	61520.75	60585.5
824.6462	609.1888	61173.55	60231.85
824.7908	611.3144	61435.9	60498.55
824.9354	613.4393	61303.5	60363.5
825.08	615.5636	61133.55	60195.25
825.2246	617.6873	61304.1	60367.75
825.3692	619.8103	61023.5	60087.9
825.5138	621.9327	61217.15	60280.9
825.6584	624.0544	61233.9	60301.75
825.803	626.1756	61077.5	60148.15
825.9477	628.2961	61057.5	60122
826.0923	630.4159	60894.1	59958.5
826.237	632.5351	60820.15	59889.95
826.3816	634.6537	61202.45	60265.95
826.5263	636.7716	60780.15	59840.45
826.6709	638.8889	60888.45	59943.05
826.8156	641.0056	60831.8	59888.6
826.9603	643.1216	60897.45	59957.55
827.105	645.237	60964.5	60027.3
827.2497	647.3518	60695.55	59764.25
827.3944	649.4659	60804	59875.05
827.5391	651.5793	60822.55	59894.35
827.6838	653.6922	60850.45	59916.2
827.8285	655.8043	60540.45	59609.2
827.9733	657.9159	60932.55	59999.3
828.118	660.0268	60230.8	59295.55
828.2627	662.137	60577.75	59642.15
828.4075	664.2466	60622.05	59678.2
828.5522	666.3556	60476.25	59535.7
828.697	668.4639	60556.2	59619.35
828.8418	670.5716	60383.65	59451.7
828.9865	672.6786	60541.9	59607.15
829.1313	674.785	60309.1	59365.7
829.2761	676.8907	60314.25	59371.7
829.4209	678.9958	60376	59442.85
829.5657	681.1002	60398.85	59463.85
829.7105	683.204	60197.3	59250.7
829.8553	685.3072	60085.3	59137.45
830.0001	687.4097	60139.7	59197.2
830.1449	689.5115	60072.6	59127.7
830.2898	691.6127	60244.2	59304.25
830.4346	693.7132	60070.9	59134.55
830.5794	695.8131	60094.45	59134
830.7243	697.9123	60133.1	59184.8
830.8691	700.0109	60166.2	59216.25
831.014	702.1089	59859.1	58919.95
831.1588	704.2061	59954.3	59009.35
831.3037	706.3028	59962.65	59019.05
831.4486	708.3987	59980.5	59034.5
831.5935	710.4941	59888.85	58948.15
831.7383	712.5887	60031.2	59089.1
831.8832	714.6827	59912.2	58967.5
832.0281	716.7761	60095.25	59156.4
832.173	718.8688	60131.15	59190.8
832.3179	720.9608	60028	59079.35
832.4628	723.0522	60066.8	59112.35
832.6077	725.1429	59871.7	58924.85
832.7527	727.233	60268	59321.65
832.8976	729.3224	59624.3	58675.25
833.0425	731.4112	59804.55	58858.6
833.1874	733.4993	59748.55	58801.6
833.3324	735.5867	59682.45	58734.55
833.4773	737.6735	59500.9	58551.35
833.6222	739.7596	59231.25	58280.8
833.7672	741.845	59183.65	58237.25
833.9122	743.9298	59455.9	58507.85
834.0571	746.014	59134.9	58187.6
834.2021	748.0974	58886.3	57932.65
834.347	750.1802	59338	58385.3
834.492	752.2624	58756.2	57802.6
834.637	754.3439	58801.8	57847.7
834.782	756.4247	58956.75	57995.95
834.9269	758.5048	58750.1	57797.55
835.0719	760.5843	58908.65	57960.7
835.2169	762.6631	59041.75	58091.65
835.3619	764.7413	59066.3	58116.5
835.5069	766.8188	59261.25	58307.5
835.6519	768.8956	59465.35	58510.7
835.7969	770.9718	59530.2	58581
835.9419	773.0473	59372.9	58423.45
836.0869	775.1221	59019.8	58071.6
836.232	777.1962	58986.5	58032.3
836.377	779.2697	58633.05	57681.55
836.522	781.3426	58825.2	57861.55
836.667	783.4147	58834.15	57881.95
836.8121	785.4862	58816.9	57865.7
836.9571	787.557	58461.55	57506.95
837.1021	789.6271	58692.65	57737
837.2472	791.6966	58233.4	57284.4
837.3922	793.7654	57731.25	56776.25
837.5373	795.8335	57568.2	56617.95
837.6823	797.901	57559.5	56613.85
837.8274	799.9678	57351.95	56396
837.9724	802.0339	57229	56275
838.1175	804.0993	57244.65	56279.25
838.2626	806.1641	57052	56095.45
838.4076	808.2282	56921.3	55970.35
838.5527	810.2916	56803.2	55850.9
838.6978	812.3544	56990.35	56038.1
838.8428	814.4164	56544.7	55593.45
838.9879	816.4778	56584.6	55627.75
839.133	818.5385	56591.65	55632.75
839.2781	820.5986	56613.5	55658.35
839.4232	822.658	56723.2	55766.45
839.5682	824.7166	56851.95	55900.95
839.7133	826.7747	56695.7	55739.25
839.8584	828.832	57008.8	56056.55
840.0035	830.8886	57276.15	56315.55
840.1486	832.9446	57246.7	56287.9
840.2937	834.9999	56571.7	55622.2
840.4388	837.0545	56764.15	55802.9
840.5839	839.1085	56795.25	55838.8
840.729	841.1618	56546.95	55590.65
840.8741	843.2143	55950.95	54995.7
841.0192	845.2662	55845.05	54890.45
841.1643	847.3175	56015.05	55061.75
841.3095	849.368	55315.25	54361.3
841.4546	851.4179	55806.35	54853.5
841.5997	853.467	55284.75	54330.45
841.7448	855.5155	55541.35	54588.8
841.8899	857.5633	55063.25	54108.3
842.0351	859.6105	54805.4	53852.05
842.1802	861.6569	55013.6	54056.65
842.3253	863.7027	54507.05	53547.2
842.4704	865.7478	54697.3	53740.75
842.6156	867.7922	54507.55	53550.55
842.7607	869.8359	54775.15	53819.25
842.9058	871.8789	54167.7	53210.35
843.0509	873.9212	54510.75	53521.65
843.1961	875.9629	54462.05	53503.9
843.3412	878.0039	54451.65	53492.7
843.4863	880.0441	54315.1	53361.7
843.6315	882.0837	54305	53348.35
843.7766	884.1226	54258.2	53295.75
843.9218	886.1609	54264.75	53312.2
844.0669	888.1984	54088.9	53132.35
844.212	890.2352	54557.55	53602.45
844.3572	892.2714	54004.35	53043.9
844.5023	894.3069	54140.85	53183.25
844.6475	896.3416	53784.35	52825.45
844.7926	898.3757	53637.3	52678.15
844.9377	900.4091	53115.1	52156.8
845.0829	902.4418	53757.1	52790.55
845.228	904.4739	53294.05	52331
845.3732	906.5052	53368.35	52409.35
845.5183	908.5358	53052.25	52092.3
845.6635	910.5658	52835.5	51873.55
845.8086	912.595	52716.3	51761.95
845.9538	914.6236	52146.2	51186.05
846.0989	916.6515	52754.6	51796.25
846.2441	918.6786	51855.3	50895.35
846.3892	920.7051	52025.45	51067.15
846.5344	922.7309	51972.4	51013.3
846.6795	924.756	52009.95	51053.25
846.8246	926.7804	51790	50832.25
846.9698	928.8041	51229.25	50268.85
847.1149	930.8272	51587.35	50630.95
847.2601	932.8495	51532.65	50574.55
847.4052	934.8711	51149.5	50190.15
847.5504	936.892	50867.85	49909.2
847.6955	938.9123	50969.85	50008.05
847.8407	940.9318	50709.85	49751.7
847.9858	942.9506	50626.8	49669.75
848.131	944.9688	50539.45	49580.45
848.2761	946.9862	49982.55	49020.95
848.4213	949.003	49949.9	48987.5
848.5664	951.019	49468.2	48508.15
848.7115	953.0344	49514.25	48556.05
848.8567	955.0491	49413.2	48455.25
849.0018	957.063	49598.75	48639.85
849.147	959.0763	49644.55	48680.9
849.2921	961.0888	49333.95	48376.65
849.4373	963.1007	49523.9	48567.95
849.5824	965.1119	49433.55	48482.75
849.7275	967.1223	49167.25	48223.3
849.8727	969.1321	49352.55	48406.65
850.0178	971.1412	48992.75	48041.1
850.1629	973.1495	48796.2	47843.75
850.3081	975.1572	48905.25	47921.15
850.4532	977.1641	48834.9	47875.4
850.5983	979.1704	48593.3	47634.05
850.7435	981.1759	48549.3	47587.75
850.8886	983.1808	48350.05	47394.6
851.0337	985.1849	48322.55	47355.7
851.1788	987.1884	48323.95	47363.8
851.324	989.1911	48467.3	47506.4
851.4691	991.1932	48093.65	47136.7
851.6142	993.1945	48056.45	47102.85
851.7593	995.1951	47975.3	47011.65
851.9045	997.1951	47784.05	46821.4
852.0496	999.1943	47573.95	46612.55
852.1947	1001.1928	47387.1	46429.35
852.3398	1003.1906	47343.05	46386.1
852.4849	1005.1877	47175.9	46214.55
852.63	1007.1841	46980.7	46026.15
852.7751	1009.1798	46886.7	45931.35
852.9202	1011.1748	46696.6	45738.5
853.0653	1013.1691	46481.95	45526
853.2104	1015.1627	45904.4	44948.3
853.3555	1017.1556	45616.8	44662.9
853.5006	1019.1477	45542.2	44589.8
853.6457	1021.1392	45146.7	44199.65
853.7908	1023.1299	44919.2	43970.1
853.9359	1025.12	44852.85	43913.65
854.081	1027.1093	44659.9	43730.45
854.2261	1029.0979	44669.25	43740.45
854.3712	1031.0859	44545.75	43608.45
854.5163	1033.0731	44340.65	43395.3
854.6613	1035.0596	44236.05	43286.25
854.8064	1037.0454	43961.25	43011.1
854.9515	1039.0304	43802.4	42850.1
855.0965	1041.0148	43491.95	42540.1
855.2416	1042.9985	43287.65	42333.55
855.3867	1044.9814	43318.75	42364.2
855.5317	1046.9636	43031.1	42077.2
855.6768	1048.9452	42826.3	41876.5
855.8219	1050.926	42824.8	41873
855.9669	1052.9061	42728.25	41777.6
856.112	1054.8855	42720.15	41762.9
856.257	1056.8642	42595.3	41638.9
856.4021	1058.8421	42575.65	41620.15
856.5471	1060.8194	42444.75	41491.85
856.6921	1062.7959	42421.55	41466.15
856.8372	1064.7717	42370.95	41415.4
856.9822	1066.7469	42291.95	41334.45
857.1272	1068.7213	42254.1	41298.1
857.2723	1070.695	42208.85	41257.05
857.4173	1072.6679	41988	41034.45
857.5623	1074.6402	41953.7	41001.8
857.7073	1076.6117	41861.7	40901.55
857.8523	1078.5826	41796.55	40840.45
857.9973	1080.5527	41570.55	40616.2
858.1423	1082.5221	41391.35	40439.45
858.2873	1084.4908	41346.3	40387.25
858.4323	1086.4587	41284.1	40332.2
858.5773	1088.426	41248.2	40296.55
858.7223	1090.3925	41111.1	40155.6
858.8673	1092.3584	41107.95	40158.75
859.0123	1094.3235	40819.95	39868.25
859.1573	1096.2879	40773.05	39819.5
859.3022	1098.2515	40803.8	39848.3
859.4472	1100.2145	40818.85	39866.45
859.5922	1102.1767	40835.35	39879.8
859.7371	1104.1382	40864.6	39912.75
859.8821	1106.099	40937.7	39985.3
860.027	1108.0591	41036.4	40083.1
860.172	1110.0185	40992.5	40040.35
860.3169	1111.9771	41081.9	40130.4
860.4619	1113.9351	40787.1	39837.35
860.6068	1115.8923	40516.4	39565.55
860.7517	1117.8488	40277.7	39324.95
860.8967	1119.8045	39898.25	38945.55
861.0416	1121.7596	39797.55	38846.85
861.1865	1123.7139	39546.7	38594.75
861.3314	1125.6675	39413.2	38463
861.4763	1127.6204	39482.95	38532.3
861.6212	1129.5726	39354.6	38399.3
861.7661	1131.524	39267.1	38317
861.911	1133.4748	39105.25	38154.45
862.0559	1135.4248	38875.6	37922.45
862.2008	1137.3741	38704.25	37753.35
862.3457	1139.3226	38536.4	37585
862.4905	1141.2705	38462.4	37508.4
862.6354	1143.2176	38184.65	37227.15
862.7803	1145.164	38106.45	37153.5
862.9251	1147.1097	38018.8	37067
863.07	1149.0546	37870.65	36916.65
863.2148	1150.9989	37752.9	36798.85
863.3597	1152.9424	37685.35	36734.15
863.5045	1154.8852	37493.55	36545.65
863.6493	1156.8272	37390.45	36440.85
863.7942	1158.7686	37366.45	36410.25
863.939	1160.7092	37200.85	36248
864.0838	1162.6491	37083.45	36131.1
864.2286	1164.5883	37136.65	36184.9
864.3734	1166.5267	37131.55	36180.55
864.5182	1168.4644	37156.7	36204.9
864.663	1170.4014	37243.55	36292.3
864.8078	1172.3377	37486.9	36539.25
864.9526	1174.2732	37568.65	36619.85
865.0974	1176.2081	37851.7	36905.4
865.2421	1178.1421	38058.65	37105
865.3869	1180.0755	38385.2	37436.05
865.5317	1182.0082	38484.45	37535
865.6764	1183.9401	38551.2	37605.05
865.8212	1185.8713	38304.35	37362.8
865.9659	1187.8017	37997.45	37060.95
866.1106	1189.7315	37690.45	36763.3
866.2554	1191.6605	37171.15	36240.1
866.4001	1193.5888	36892.6	35956.6
866.5448	1195.5163	36755.8	35817
866.6895	1197.4432	36533.3	35586.65
866.8342	1199.3693	36419.7	35473.25
866.9789	1201.2947	36224.55	35275.8
867.1236	1203.2193	36044.25	35096.8
867.2683	1205.1432	36038.35	35093.85
867.413	1207.0664	35879.45	34933.35
867.5576	1208.9889	35819.5	34869.5
867.7023	1210.9106	35681.1	34732.45
867.847	1212.8316	35560.7	34616.05
867.9916	1214.7519	35523.55	34568.4
868.1363	1216.6715	35438.4	34496.7
868.2809	1218.5903	35445.2	34498.3
868.4255	1220.5084	35402.15	34457.15
868.5701	1222.4257	35412.65	34464.6
868.7148	1224.3424	35236.25	34295.4
868.8594	1226.2583	35312.35	34362.85
869.004	1228.1735	35327.15	34380.25
869.1486	1230.0879	35219.8	34274.6
869.2932	1232.0016	35347.25	34398.1
869.4377	1233.9146	35304.75	34356.65
869.5823	1235.8269	35145	34200.8
869.7269	1237.7384	35110.7	34161.9
869.8715	1239.6492	34873.05	33929.55
870.016	1241.5592	34768.25	33822.4
870.1606	1243.4686	34704.25	33757
870.3051	1245.3772	34662.05	33719.2
870.4496	1247.285	34717.45	33773.65
870.5941	1249.1922	34669.85	33724.25
870.7387	1251.0986	34737.1	33788.2
870.8832	1253.0042	34632.05	33686.3
871.0277	1254.9092	34661.6	33718.95
871.1722	1256.8134	34633.1	33691.2
871.3167	1258.7169	34641.6	33699.1
871.4611	1260.6196	34752.65	33809.7
871.6056	1262.5216	34890.15	33947.3
871.7501	1264.4229	34961.05	34016.5
871.8945	1266.3234	35100.3	34155.85
872.039	1268.2232	35136.7	34190.3
872.1834	1270.1223	35013.4	34065.65
872.3278	1272.0207	35083.85	34136.8
872.4723	1273.9183	34956.05	34005.35
872.6167	1275.8151	34794.85	33850.35
872.7611	1277.7113	34713.15	33774.7
872.9055	1279.6067	34612.95	33669.6
873.0499	1281.5014	34648.35	33702.95
873.1943	1283.3953	34844.85	33898.45
873.3386	1285.2885	35079.5	34138.55
873.483	1287.181	35356.1	34415.05
873.6274	1289.0727	35686.3	34747.3
873.7717	1290.9637	35758.7	34815.25
873.9161	1292.854	35941.75	34997.15
874.0604	1294.7435	35839.25	34895.4
874.2047	1296.6323	35772.85	34831.9
874.349	1298.5204	35704.8	34757.9
874.4933	1300.4077	35554.65	34608.95
874.6376	1302.2943	35362.95	34421.35
874.7819	1304.1802	35185.9	34242.65
874.9262	1306.0653	34759.35	33810.35
875.0705	1307.9497	34393	33450.1
875.2147	1309.8333	34110.75	33169.65
875.359	1311.7162	33809.65	32866.35
875.5032	1313.5984	33711.1	32767.5
875.6475	1315.4798	33529.05	32568.2
875.7917	1317.3605	33458.65	32500.65
875.9359	1319.2405	33367.5	32423.7
876.0801	1321.1197	33202.95	32260.45
876.2243	1322.9982	32870.7	31923.05
876.3685	1324.876	32704.15	31762.25
876.5127	1326.753	32456.9	31511.8
876.6569	1328.6293	32317.05	31372.65
876.801	1330.5048	32189.75	31244.1
876.9452	1332.3796	32022.15	31079.75
877.0893	1334.2537	31976.5	31011.25
877.2335	1336.127	31779.5	30840.05
877.3776	1337.9996	31722.85	30780.5
877.5217	1339.8714	31680.3	30737.55
877.6658	1341.7426	31600.65	30613.8
877.8099	1343.6129	31544.3	30600.4
877.954	1345.4826	31471.75	30527.65
878.0981	1347.3515	31464.45	30516.15
878.2422	1349.2196	31350.8	30408.2
878.3862	1351.087	31398.6	30455.55
878.5303	1352.9537	31354.35	30409.65
878.6743	1354.8197	31449.6	30504.3
878.8184	1356.6849	31478.55	30535.15
878.9624	1358.5493	31543.55	30600.15
879.1064	1360.4131	31598.05	30653.1
879.2504	1362.276	31644.3	30704.9
879.3944	1364.1383	31531.95	30592.2
879.5384	1365.9998	31319.85	30376.25
879.6823	1367.8606	30981.8	30038.45
879.8263	1369.7206	30629.45	29688.9
879.9702	1371.5799	30311	29366.2
880.1142	1373.4384	30083.2	29142.05
880.2581	1375.2962	29865.9	28922.35
880.402	1377.1533	29470.65	28531.95
880.5459	1379.0096	29091.65	28157.05
880.6898	1380.8652	28785.6	27847.1
880.8337	1382.7201	28495.3	27560.7
880.9776	1384.5742	28188.35	27247.8
881.1215	1386.4275	27946.2	27004
881.2653	1388.2802	27747.45	26806.5
881.4092	1390.132	27564.2	26620.85
881.553	1391.9832	27494.4	26550.85
881.6968	1393.8336	27275.05	26332.7
881.8406	1395.6832	27207	26266.1
881.9844	1397.5322	27058.25	26119.1
882.1282	1399.3803	26957.55	26012.75
882.272	1401.2278	26793.65	25852.55
882.4158	1403.0745	26751.35	25814.4
882.5595	1404.9204	26599.65	25660.95
882.7033	1406.7656	26599.95	25659.35
882.847	1408.6101	26540.6	25598.45
882.9908	1410.4538	26458.15	25517.6
883.1345	1412.2968	26455.8	25512.8
883.2782	1414.139	26376	25435.45
883.4219	1415.9805	26353.35	25414.85
883.5656	1417.8213	26350.1	25388.7
883.7092	1419.6613	26370.35	25432.05
883.8529	1421.5006	26432	25494.25
883.9965	1423.3391	26545.15	25607.5
884.1402	1425.1769	26725.3	25784.7
884.2838	1427.0139	27035.45	26096.15
884.4274	1428.8502	27381.35	26441.75
884.571	1430.6858	27757.55	26818.55
884.7146	1432.5206	27955.9	27017.5
884.8582	1434.3547	28151.55	27214.65
885.0018	1436.188	28176.6	27238.85
885.1453	1438.0206	28075.1	27135.35
885.2889	1439.8524	27821.95	26882.75
885.4324	1441.6835	27692.15	26756.55
885.5759	1443.5139	27539.45	26598.5
885.7194	1445.3435	27422.35	26487.5
885.8629	1447.1724	27364.55	26428.7
886.0064	1449.0005	27333.2	26396.65
886.1499	1450.8279	27197.65	26258.9
886.2933	1452.6545	27157.8	26222.3
886.4368	1454.4804	27148.45	26214.4
886.5802	1456.3056	27147.3	26206.4
886.7237	1458.13	27008.4	26073.3
886.8671	1459.9536	26895.95	25962.2
887.0105	1461.7766	26622.6	25686.15
887.1539	1463.5987	26308.9	25372.15
887.2972	1465.4202	25984.9	25050.15
887.4406	1467.2409	25609.7	24672.1
887.584	1469.0608	25393.6	24456.45
887.7273	1470.88	25065.5	24129.8
887.8706	1472.6984	24880.1	23944.45
888.0139	1474.5161	24649.7	23711.5
888.1572	1476.3331	24471.8	23538.1
888.3005	1478.1493	24371.35	23434.9
888.4438	1479.9648	24237.15	23301.1
888.5871	1481.7795	24142.25	23204.35
888.7303	1483.5935	24076.2	23141.8
888.8736	1485.4067	23979.3	23044.35
889.0168	1487.2192	23974.55	23036.85
889.16	1489.031	23877.35	22939.65
889.3032	1490.842	23738.8	22804.55
889.4464	1492.6522	23779.15	22846.8
889.5896	1494.4618	23638.45	22700.55
889.7327	1496.2705	23575.25	22639.55
889.8759	1498.0785	23486.6	22549.2
890.019	1499.8858	23435	22497.85
890.1622	1501.6924	23343.3	22412.3
890.3053	1503.4981	23282.25	22347
890.4484	1505.3032	23249.05	22316.8
890.5914	1507.1075	23229	22292.9
890.7345	1508.911	23094.75	22159.35
890.8776	1510.7138	23032.4	22097.25
891.0206	1512.5159	22883.15	21948.25
891.1637	1514.3172	22838.3	21902.85
891.3067	1516.1178	22726.65	21792.95
891.4497	1517.9176	22706.35	21768.7
891.5927	1519.7166	22610.8	21678.65
891.7357	1521.515	22560.5	21624.05
891.8786	1523.3126	22491.9	21558.3
892.0216	1525.1094	22405.35	21473.5
892.1645	1526.9055	22331.1	21399.9
892.3074	1528.7008	22245.7	21311.35
892.4503	1530.4954	22105.3	21170.05
892.5932	1532.2893	22081.25	21152.25
892.7361	1534.0824	21979.8	21046.2
892.879	1535.8747	21951.1	21024.25
893.0218	1537.6663	21865.45	20937.8
893.1647	1539.4572	21832.8	20902.05
893.3075	1541.2473	21794.4	20865.5
893.4503	1543.0367	21747.1	20818.65
893.5931	1544.8253	21644.95	20712.9
893.7359	1546.6132	21671.05	20737.8
893.8787	1548.4003	21532.4	20596.05
894.0214	1550.1867	21551.9	20615.8
894.1642	1551.9723	21559.9	20629.4
894.3069	1553.7572	21531.7	20606.6
894.4496	1555.5414	21591.9	20668.95
894.5923	1557.3247	21651.35	20730.45
894.735	1559.1074	21681.4	20761.05
894.8777	1560.8893	21734.2	20813.65
895.0204	1562.6705	21795.75	20876.45
895.163	1564.4509	21862.45	20943.4
895.3056	1566.2305	21842.75	20927.15
895.4482	1568.0094	21905.85	20988.45
895.5908	1569.7876	21883.4	20966
895.7334	1571.565	21821.65	20899.4
895.876	1573.3417	21789.6	20868.05
896.0186	1575.1176	21774.75	20857.05
896.1611	1576.8928	21696.2	20778.15
896.3036	1578.6672	21614.45	20702.85
896.4461	1580.4409	21537.55	20626.65
896.5886	1582.2138	21455.55	20539.6
896.7311	1583.986	21422.75	20505.45
896.8736	1585.7575	21436.1	20515.8
897.0161	1587.5282	21419.35	20506.75
897.1585	1589.2981	21475.05	20561.45
897.3009	1591.0673	21419.5	20507.85
897.4433	1592.8358	21474.05	20560.65
897.5857	1594.6035	21490	20572.85
897.7281	1596.3704	21494.3	20575.8
897.8705	1598.1366	21456.8	20541.5
898.0128	1599.9021	21460.95	20545.05
898.1551	1601.6668	21453.6	20535.9
898.2975	1603.4308	21516.95	20598.15
898.4398	1605.194	21622.1	20700.75
898.5821	1606.9564	21718.85	20808.1
898.7243	1608.7182	21864.85	20956.6
898.8666	1610.4791	22046.5	21143.4
899.0088	1612.2394	22184.55	21284.95
899.1511	1613.9988	22361.55	21456.9
899.2933	1615.7576	22535.95	21624.75
899.4355	1617.5156	22708.6	21786.6
899.5776	1619.2728	22823.3	21905.25
899.7198	1621.0293	22735.75	21819
899.862	1622.785	22594.1	21681.8
900.0041	1624.54	22311.5	21401.55
900.1462	1626.2942	22000.9	21091.75
900.2883	1628.0477	21644.95	20734.15
900.4304	1629.8005	21357.35	20444.2
900.5725	1631.5525	21059.05	20149.5
900.7145	1633.3037	20828.95	19921.15
900.8566	1635.0542	20638.6	19731.7
900.9986	1636.804	20442.95	19533.3
901.1406	1638.553	20366.3	19412.55
901.2826	1640.3013	20282.7	19372.1
901.4245	1642.0488	20201.05	19289.7
901.5665	1643.7955	20154.55	19248.95
901.7085	1645.5416	20212.65	19304.8
901.8504	1647.2868	20244.1	19337.3
901.9923	1649.0313	20210.8	19299.2
902.1342	1650.7751	20337.45	19427.05
902.2761	1652.5181	20432.3	19523.4
902.4179	1654.2604	20516.45	19610.1
902.5598	1656.0019	20674.7	19768.45
902.7016	1657.7427	20805.8	19895.3
902.8434	1659.4828	20986.35	20077.3
902.9852	1661.222	21107.7	20197.1
903.127	1662.9606	21048.95	20138.45
903.2687	1664.6984	20868.55	19954.45
903.4105	1666.4354	20519.7	19605.05
903.5522	1668.1717	20042.05	19126.85
903.6939	1669.9072	19533	18619.5
903.8356	1671.642	19144.85	18227.9
903.9773	1673.3761	18817.55	17905.15
904.119	1675.1094	18503.15	17592.8
904.2606	1676.8419	18246.1	17337.4
904.4022	1678.5737	18062.25	17151.4
904.5439	1680.3048	17874.1	16962.25
904.6855	1682.0351	17725.05	16810.5
904.827	1683.7646	17546.8	16630.1
904.9686	1685.4934	17505.9	16594.25
905.1101	1687.2215	17372.65	16463.7
905.2517	1688.9488	17245.25	16337.95
905.3932	1690.6754	17149.9	16240.85
905.5347	1692.4012	17119.1	16209.4
905.6761	1694.1263	17029.95	16121.7
905.8176	1695.8506	16960.5	16052
905.9591	1697.5742	16916.15	16009.15
906.1005	1699.297	16821.8	15914.8
906.2419	1701.0191	16698.4	15794.2
906.3833	1702.7404	16656.75	15752.35
906.5246	1704.461	16585.8	15678.5
906.666	1706.1808	16536.8	15626.45
906.8073	1707.8999	16441.45	15534.95
906.9487	1709.6182	16373.9	15470.1
907.09	1711.3358	16333.9	15432.25
907.2313	1713.0527	16266.05	15365.85
907.3725	1714.7688	16208.35	15299
907.5138	1716.4841	16115.2	15206.75
907.655	1718.1987	16147.45	15236.2
907.7962	1719.9126	16040.4	15139
907.9374	1721.6257	15983	15081
908.0786	1723.338	15972.9	15071.25
908.2198	1725.0496	15855.75	14951.8
908.3609	1726.7605	15863.55	14959.2
908.502	1728.4706	15797.05	14893.2
908.6431	1730.18	15712.5	14808.4
908.7842	1731.8886	15632.9	14731.45
908.9253	1733.5964	15593.85	14670.45
909.0664	1735.3036	15582	14678.6
909.2074	1737.0099	15559.8	14655.45
909.3484	1738.7156	15490.7	14590.1
909.4894	1740.4204	15422.75	14515.4
909.6304	1742.1246	15409.4	14503.8
909.7714	1743.8279	15346.3	14444.25
909.9123	1745.5306	15294.7	14393.8
910.0532	1747.2325	15241.85	14340
910.1941	1748.9336	15206.35	14305
910.335	1750.634	15135.6	14231.35
910.4759	1752.3336	15123.65	14220.1
910.6168	1754.0325	15072.55	14174.8
910.7576	1755.7307	15056.9	14154.45
910.8984	1757.4281	15052.7	14149.2
911.0392	1759.1247	15035.9	14121.9
911.18	1760.8206	14980.1	14070.3
911.3208	1762.5158	14961.75	14054.55
911.4615	1764.2102	14922.55	14017.5
911.6022	1765.9039	14849.5	13948.7
911.7429	1767.5968	14801.25	13903.55
911.8836	1769.289	14757.9	13858.5
912.0243	1770.9804	14709.25	13806.35
912.1649	1772.6711	14726.15	13820.95
912.3056	1774.361	14675.4	13769.75
912.4462	1776.0502	14669.55	13765.3
912.5868	1777.7386	14609.6	13702.65
912.7274	1779.4263	14564.45	13661.6
912.8679	1781.1132	14526.05	13627.05
913.0084	1782.7994	14502.1	13603.95
913.149	1784.4849	14468.9	13572.9
913.2895	1786.1696	14420.1	13515.2
913.4299	1787.8535	14405.5	13509.3
913.5704	1789.5367	14366.05	13469.85
913.7108	1791.2192	14354.35	13456.5
913.8513	1792.9009	14285.95	13357.8
913.9917	1794.5818	14249.7	13347.5
914.132	1796.2621	14235.8	13334.2
914.2724	1797.9415	14196.35	13293.25
914.4128	1799.6202	14148.1	13245.55
914.5531	1801.2982	14129.45	13228.85
914.6934	1802.9755	14108.15	13204.4
914.8337	1804.6519	14073.45	13171.8
914.9739	1806.3277	13992.3	13094.25
915.1142	1808.0027	13955.45	13058.65
915.2544	1809.6769	13926.55	13031.2
915.3946	1811.3504	13885.85	12991.05
915.5348	1813.0231	13889.8	12993.1
915.675	1814.6951	13839.65	12940.25
915.8151	1816.3664	13848.75	12946.25
915.9553	1818.0369	13813	12912.15
916.0954	1819.7067	13751.05	12851.15
916.2355	1821.3757	13733.9	12830.85
916.3755	1823.044	13701.3	12797.25
916.5156	1824.7115	13683.25	12781.35
916.6556	1826.3783	13634.6	12735.7
916.7956	1828.0443	13589.4	12687.5
916.9356	1829.7096	13550.1	12647.45
917.0756	1831.3741	13569.8	12668.65
917.2155	1833.0379	13501.15	12602.95
917.3555	1834.701	13483.15	12585.9
917.4954	1836.3633	13453.2	12558.55
917.6353	1838.0248	13399.55	12501.5
917.7751	1839.6856	13360.7	12462.05
917.915	1841.3457	13377.05	12478.5
918.0548	1843.005	13341.5	12440.95
918.1946	1844.6636	13309.9	12411.6
918.3344	1846.3214	13286.4	12387.15
918.4742	1847.9785	13282.1	12383.75
918.6139	1849.6349	13243	12343.95
918.7537	1851.2904	13219.65	12307.1
918.8934	1852.9453	13179.8	12275.35
919.0331	1854.5994	13134.4	12228
919.1727	1856.2528	13160.75	12253.6
919.3124	1857.9054	13122.3	12221.85
919.452	1859.5572	13130.7	12233.65
919.5916	1861.2083	13036.35	12136.2
919.7312	1862.8587	13044.45	12140.9
919.8708	1864.5084	13034.25	12129.3
920.0103	1866.1572	13005	12099.45
920.1498	1867.8054	12973.15	12068.4
920.2893	1869.4528	12929.55	12025
920.4288	1871.0994	12896.05	11991.55
920.5683	1872.7453	12895.35	11990.45
920.7077	1874.3905	12855.9	11947.85
920.8471	1876.0349	12796.2	11894.85
920.9865	1877.6786	12797.9	11894.3
921.1259	1879.3215	12762.5	11862.2
921.2653	1880.9637	12741.35	11839.2
921.4046	1882.6051	12710.65	11811.35
921.5439	1884.2458	12681.9	11779.7
921.6832	1885.8858	12633.2	11731.8
921.8225	1887.525	12626.3	11727.1
921.9617	1889.1634	12535.35	11635.65
922.101	1890.8011	12513.8	11608.3
922.2402	1892.4381	12500.05	11600.2
922.3794	1894.0743	12486.35	11585.5
922.5185	1895.7098	12451.55	11552.6
922.6577	1897.3446	12415.5	11513.05
922.7968	1898.9786	12395.4	11490.7
922.9359	1900.6118	12381.9	11482.4
923.075	1902.2443	12294.6	11391.5
923.214	1903.8761	12315.8	11414.45
923.3531	1905.5071	12204.3	11302.8
923.4921	1907.1374	12182.15	11281.65
923.6311	1908.7669	12189.3	11289.25
923.77	1910.3957	12168.55	11269
923.909	1912.0237	12110.6	11209.15
924.0479	1913.651	12071.5	11170.05
924.1868	1915.2776	12056.7	11157.95
924.3257	1916.9034	12004.55	11107
924.4646	1918.5285	11955.6	11058.45
924.6034	1920.1528	11903.6	11004.7
924.7422	1921.7764	11874.05	10975.3
924.881	1923.3992	11850.95	10951.15
925.0198	1925.0213	11773.55	10874.1
925.1586	1926.6427	11738.45	10841.05
925.2973	1928.2633	11765.65	10789.6
925.436	1929.8832	11711.55	10809.1
925.5747	1931.5023	11616.8	10718.15
925.7134	1933.1207	11609.55	10711.55
925.852	1934.7383	11597.85	10698.8
925.9906	1936.3552	11571.05	10673
926.1292	1937.9714	11539.65	10642
926.2678	1939.5868	11472.35	10569.55
926.4064	1941.2015	11426.3	10524.25
926.5449	1942.8154	11385.8	10483.45
926.6834	1944.4286	11362.55	10461.6
926.8219	1946.041	11327.15	10407.45
926.9604	1947.6528	11265.85	10362.25
927.0988	1949.2637	11234.8	10335.25
927.2372	1950.8739	11196.9	10296.7
927.3756	1952.4834	11166.8	10267.65
927.514	1954.0921	11154.5	10255.05
927.6523	1955.7001	11122.8	10221.5
927.7907	1957.3074	11055.35	10161.5
927.929	1958.9139	11015.6	10120.75
928.0673	1960.5197	11003.9	10105.55
928.2055	1962.1247	10967.4	10072
928.3438	1963.729	10890.7	9995.7
928.482	1965.3325	10897.8	9979.3
928.6202	1966.9353	10851.35	9958.5
928.7584	1968.5374	10813.7	9918.55
928.8965	1970.1387	10792.1	9895.9
929.0346	1971.7393	10729.15	9833.2
929.1727	1973.3392	10715.8	9821.6
929.3108	1974.9383	10687.2	9795.9
929.4489	1976.5366	10627.2	9734.8
929.5869	1978.1342	10610.45	9716
929.7249	1979.7311	10603.45	9707.55
929.8629	1981.3273	10561.2	9667.25
930.0009	1982.9227	10544.25	9652.75
930.1388	1984.5173	10503.95	9612.45
930.2767	1986.1112	10444.65	9553.5
930.4146	1987.7044	10404	9510.35
930.5525	1989.2968	10414.35	9522.85
930.6904	1990.8885	10379.05	9485.2
930.8282	1992.4795	10361.85	9468.7
930.966	1994.0697	10305.65	9416.6
931.1038	1995.6592	10282.95	9391.8
931.2415	1997.2479	10284.05	9391.1
931.3793	1998.8359	10242.2	9351.2
931.517	2000.4232	10190.7	9301.7
931.6547	2002.0097	10152.65	9265.85
931.7923	2003.5955	10111.75	9223.7
931.93	2005.1805	10126.4	9235.2
932.0676	2006.7648	10088.1	9200.45
932.2052	2008.3484	10037.25	9148.5
932.3427	2009.9312	10059.55	9171.35
932.4803	2011.5133	10026.95	9142.4
932.6178	2013.0946	9978.55	9093.4
932.7553	2014.6752	9956.75	9068.6
932.8928	2016.2551	9931.65	9041.2
933.0302	2017.8342	9904.8	9016.25
933.1676	2019.4126	9862.45	8975.45
933.305	2020.9902	9831.05	8945.15
933.4424	2022.5672	9823.1	8936.8
933.5798	2024.1433	9789.75	8896.8
933.7171	2025.7188	9739.15	8855.4
933.8544	2027.2935	9730.55	8845.25
933.9917	2028.8674	9704.1	8816.4
934.129	2030.4406	9665.35	8779.95
934.2662	2032.0131	9628.1	8741.45
934.4034	2033.5849	9607.3	8718.15
934.5406	2035.1559	9587.55	8701.95
934.6778	2036.7261	9556.3	8670.1
934.8149	2038.2957	9549.15	8660.1
934.952	2039.8645	9542.55	8649.75
935.0891	2041.4325	9531.1	8635.35
935.2262	2042.9998	9448.25	8559.65
935.3632	2044.5664	9452	8563.8
935.5002	2046.1323	9417.5	8531.8
935.6372	2047.6974	9371.5	8486.1
935.7742	2049.2617	9371.85	8486.7
935.9111	2050.8254	9355.75	8447.9
936.048	2052.3883	9363.55	8475.35
936.1849	2053.9504	9330.1	8442.1
936.3218	2055.5118	9297.2	8406.45
936.4586	2057.0725	9227.35	8337
936.5955	2058.6325	9243.85	8355.65
936.7323	2060.1917	9189.6	8305.25
936.869	2061.7502	9177.25	8287.5
937.0058	2063.3079	9155.4	8269.95
937.1425	2064.8649	9118.15	8226.75
937.2792	2066.4212	9102.35	8212.45
937.4159	2067.9767	9087.2	8198.6
937.5525	2069.5315	9031.85	8144.05
937.6891	2071.0856	9022.05	8133.85
937.8257	2072.6389	8983.65	8095.45
937.9623	2074.1915	8929.8	8045.55
938.0989	2075.7433	8907.25	8019.65
938.2354	2077.2945	8907	8021.7
938.3719	2078.8448	8872.65	7983.45
938.5084	2080.3945	8827.4	7937.05
938.6448	2081.9434	8836.1	7945.55
938.7812	2083.4916	8815.2	7924.05
938.9176	2085.039	8779.6	7885.35
939.054	2086.5857	8793.1	7897.7
939.1903	2088.1317	8744.1	7848.75
939.3267	2089.677	8719.85	7826.7
939.463	2091.2215	8701.45	7807.05
939.5992	2092.7652	8682.05	7784.35
939.7355	2094.3083	8653.5	7758.55
939.8717	2095.8506	8619.7	7727.8
940.0079	2097.3921	8637.8	7747.65
940.1441	2098.933	8590.7	7699.55
940.2802	2100.4731	8598.1	7709.2
940.4163	2102.0124	8584.9	7688.1
940.5524	2103.5511	8562.9	7670.2
940.6885	2105.089	8543.75	7653.1
940.8245	2106.6261	8531.9	7643.2
940.9606	2108.1626	8492.2	7601.1
941.0965	2109.6983	8486.9	7569
941.2325	2111.2332	8455.35	7563.2
941.3684	2112.7675	8437.6	7544.75
941.5044	2114.301	8410.05	7518.25
941.6403	2115.8337	8398.4	7506.85
941.7761	2117.3657	8384.55	7493.2
941.912	2118.897	8350.2	7458.9
942.0478	2120.4276	8323.3	7425
942.1835	2121.9575	8284.65	7390.75
942.3193	2123.4866	8276.15	7382.6
942.455	2125.0149	8259.5	7364.9
942.5907	2126.5426	8231.15	7342.65
942.7264	2128.0695	8201.25	7310
942.8621	2129.5956	8173.8	7288.95
942.9977	2131.1211	8175.25	7283.6
943.1333	2132.6458	8149	7259.95
943.2689	2134.1698	8162.1	7270.2
943.4044	2135.693	8124.4	7226.9
943.54	2137.2155	8100.5	7203.45
943.6755	2138.7373	8053.55	7162.15
943.8109	2140.2584	8033.55	7145.55
943.9464	2141.7787	8030.8	7140.25
944.0818	2143.2983	7984.3	7098.3
944.2172	2144.8171	7943.15	7057.7
944.3526	2146.3353	7953.75	7064.1
944.4879	2147.8527	7909.45	7019.9
944.6232	2149.3693	7913.85	7020.5
944.7585	2150.8853	7888.3	6995.95
944.8938	2152.4005	7856.55	6962.15
945.029	2153.9149	7849.35	6957.55
945.1642	2155.4287	7927.95	6934
945.2994	2156.9417	7819.3	6924.95
945.4346	2158.454	7788.9	6898.5
945.5697	2159.9655	7773.2	6885.9
945.7048	2161.4764	7763	6874.15
945.8399	2162.9865	7720.65	6830.55
945.9749	2164.4958	7723.3	6834.1
946.1099	2166.0045	7680.9	6790.4
946.2449	2167.5124	7666.7	6775.3
946.3799	2169.0195	7656.25	6766.25
946.5148	2170.526	7658.9	6767.05
946.6498	2172.0317	7608.9	6717.5
946.7846	2173.5367	7581.3	6690.2
946.9195	2175.0409	7571.25	6683.7
947.0543	2176.5445	7579.8	6690.9
947.1891	2178.0473	7548.7	6654.85
947.3239	2179.5494	7523.75	6628.8
947.4587	2181.0507	7493.15	6601.2
947.5934	2182.5513	7468.85	6577.25
947.7281	2184.0512	7460.05	6569.25
947.8628	2185.5504	7441.95	6551.15
947.9974	2187.0488	7388.5	6500.9
948.132	2188.5465	7377.8	6489.85
948.2666	2190.0435	7336.1	6443.05
948.4012	2191.5397	7332.8	6441.45
948.5357	2193.0353	7309.6	6416.8
948.6702	2194.5301	7281.7	6386.35
948.8047	2196.0241	7268.15	6372.8
948.9392	2197.5175	7248.15	6350.85
949.0736	2199.0101	7204.25	6306.05
949.208	2200.502	7194.05	6303.55
949.3424	2201.9931	7158.3	6269.65
949.4767	2203.4835	7125.95	6237.55
949.611	2204.9733	7121.1	6218.05
949.7453	2206.4622	7088.85	6202.75
949.8796	2207.9505	7069.15	6180
950.0138	2209.438	7045.65	6158.35
950.148	2210.9248	7037.35	6147.75
950.2822	2212.4109	6998.05	6108.9
950.4164	2213.8962	6964.95	6070.4
950.5505	2215.3809	6990.8	6094.8
950.6846	2216.8648	6970.15	6074.6
950.8186	2218.3479	6945.2	6044.75
950.9527	2219.8304	6917.15	6018.85
951.0867	2221.3121	6895.9	5998.3
951.2207	2222.7931	6860.3	5967.05
951.3546	2224.2733	6846.6	5952.45
951.4886	2225.7529	6811.25	5921.15
951.6225	2227.2317	6833.65	5940.85
951.7563	2228.7098	6799.25	5909.6
951.8902	2230.1872	6761.5	5874.35
952.024	2231.6638	6758.2	5868.75
952.1578	2233.1397	6745.8	5854.1
952.2916	2234.6149	6709.45	5821.9
952.4253	2236.0894	6712.45	5820.65
952.559	2237.5632	6703.6	5812
952.6927	2239.0362	6648.9	5757.8
952.8263	2240.5085	6647	5758.7
952.9599	2241.9801	6620	5728.1
953.0935	2243.4509	6597.4	5705.15
953.2271	2244.921	6576	5683.05
953.3606	2246.3904	6558.7	5665.25
953.4941	2247.8591	6542.15	5649.35
953.6276	2249.3271	6532.05	5639.3
953.7611	2250.7943	6504.7	5611.05
953.8945	2252.2608	6468.4	5576.25
954.0279	2253.7266	6462.9	5567.85
954.1612	2255.1917	6434.65	5542.55
954.2946	2256.656	6425.6	5534.35
954.4279	2258.1197	6401.6	5513.6
954.5612	2259.5826	6387.45	5496.1
954.6944	2261.0447	6380.4	5487.75
954.8276	2262.5062	6339.05	5445.85
954.9608	2263.9669	6364.45	5470.6
955.094	2265.4269	6316.75	5424.15
955.2271	2266.8862	6314.7	5425.45
955.3602	2268.3448	6313.15	5423.25
955.4933	2269.8026	6291.75	5401.45
955.6264	2271.2598	6270.6	5381.3
955.7594	2272.7162	6261.8	5374.4
955.8924	2274.1719	6237.5	5342.2
956.0253	2275.6268	6226.05	5332.3
956.1583	2277.0811	6215.45	5322.05
956.2912	2278.5346	6195.3	5304.2
956.4241	2279.9874	6182.1	5294.3
956.5569	2281.4395	6160.7	5272.1
956.6897	2282.8908	6120	5223.8
956.8225	2284.3414	6146.65	5253.4
956.9553	2285.7914	6116.6	5225.1
957.088	2287.2406	6095.3	5199.9
957.2207	2288.689	6103.25	5208.5
957.3534	2290.1368	6065.85	5168.25
957.486	2291.5838	6059.15	5161.4
957.6186	2293.0302	6035.45	5139.15
957.7512	2294.4758	6023.55	5126.7
957.8838	2295.9206	6005.5	5110.1
958.0163	2297.3648	5975.55	5084.8
958.1488	2298.8082	5979.3	5088.05
958.2813	2300.251	5950.75	5058.3
958.4137	2301.693	5949.6	5053.05
958.5461	2303.1343	5930	5033.75
958.6785	2304.5748	5899.3	5006.7
958.8108	2306.0147	5893.75	5003.65
958.9432	2307.4538	5865.75	4974.95
959.0754	2308.8922	5845.5	4959.05
959.2077	2310.3299	5838.15	4948.2
959.3399	2311.7669	5828.3	4941
959.4721	2313.2031	5809.35	4916.5
959.6043	2314.6387	5770.25	4878.05
959.7365	2316.0735	5751.6	4860.1
959.8686	2317.5076	5761.2	4867.55
960.0006	2318.941	5740.9	4848.45
960.1327	2320.3737	5728.05	4832.85
960.2647	2321.8056	5727.45	4831.15
960.3967	2323.2369	5708.45	4816.15
960.5287	2324.6674	5696.3	4800.55
960.6606	2326.0972	5675.9	4783.6
960.7925	2327.5263	5660.05	4765.95
960.9244	2328.9547	5612.05	4717.3
961.0562	2330.3823	5609.9	4713.35
961.1881	2331.8092	5624.1	4726.15
961.3198	2333.2355	5602.75	4707.75
961.4516	2334.661	5589.3	4693.4
961.5833	2336.0858	5589.2	4692.95
961.715	2337.5098	5554.5	4661.75
961.8467	2338.9332	5582.75	4689.65
961.9783	2340.3558	5542.35	4645.7
962.1099	2341.7778	5528	4636.45
962.2415	2343.199	5503.75	4611.45
962.373	2344.6195	5485.25	4595.7
962.5045	2346.0393	5475.75	4585.55
962.636	2347.4583	5460.65	4565.45
962.7675	2348.8767	5456.85	4562.35
962.8989	2350.2943	5436.2	4541.15
963.0303	2351.7113	5442.75	4545.85
963.1617	2353.1275	5420.8	4523.1
963.293	2354.543	5413.1	4492.55
963.4243	2355.9578	5390.05	4495.6
963.5556	2357.3718	5353.55	4463.25
963.6868	2358.7852	5346.25	4451.45
963.818	2360.1978	5305.55	4412.35
963.9492	2361.6098	5317.25	4426.55
964.0803	2363.021	5299.15	4400.25
964.2114	2364.4315	5276.4	4383
964.3425	2365.8413	5266.9	4373.65
964.4736	2367.2504	5258.85	4369.45
964.6046	2368.6587	5227.3	4338.25
964.7356	2370.0664	5211.4	4321
964.8666	2371.4733	5191.85	4299.65
964.9975	2372.8795	5171.05	4278.95
965.1284	2374.285	5165.4	4270.45
965.2593	2375.6899	5136.3	4244.55
965.3901	2377.0939	5113.3	4220.05
965.5209	2378.4973	5120.25	4229.2
965.6517	2379.9	5102.9	4212.5
965.7825	2381.3019	5093.8	4201.7
965.9132	2382.7032	5076.65	4186.85
966.0439	2384.1037	5054.9	4166.8
966.1745	2385.5035	5041.95	4153.85
966.3051	2386.9027	5016.1	4127
966.4357	2388.3011	5018.65	4126.05
966.5663	2389.6987	5000.45	4108.95
966.6968	2391.0957	4989.8	4097.65
966.8273	2392.492	4965.45	4076.1
966.9578	2393.8876	4940.75	4048.9
967.0882	2395.2824	4937.55	4046.55
967.2186	2396.6765	4907.8	4015.95
967.349	2398.07	4895.25	4001.8
967.4793	2399.4627	4897.75	4001
967.6097	2400.8547	4890.9	3995.25
967.7399	2402.246	4860.4	3958.35
967.8702	2403.6366	4853.55	3958.75
968.0004	2405.0265	4822.45	3929.6
968.1306	2406.4156	4803.35	3907.85
968.2607	2407.8041	4801.4	3906.8
968.3909	2409.1918	4786.2	3891.8
968.521	2410.5789	4757	3864.95
968.651	2411.9652	4739.35	3843.7
968.781	2413.3508	4733.25	3835.3
968.911	2414.7358	4718.35	3823.8
969.041	2416.12	4712.9	3819.15
969.1709	2417.5035	4710.25	3818.35
969.3008	2418.8863	4685.1	3791.25
969.4307	2420.2684	4662.65	3768.75
969.5606	2421.6497	4645	3750.3
969.6904	2423.0304	4632.7	3739.35
969.8201	2424.4104	4623.4	3728.5
969.9499	2425.7896	4603.8	3710.3
970.0796	2427.1682	4589.75	3695.4
970.2093	2428.546	4583.05	3688.25
970.3389	2429.9232	4576.85	3681.3
970.4685	2431.2996	4575.2	3680.15
970.5981	2432.6753	4566.8	3671.5
970.7277	2434.0503	4542.1	3649
970.8572	2435.4246	4529.2	3637.65
970.9867	2436.7982	4514.25	3617.15
971.1161	2438.1711	4487.4	3593.75
971.2456	2439.5433	4492.3	3597.55
971.375	2440.9148	4488.25	3589.15
971.5043	2442.2856	4450.3	3558.4
971.6336	2443.6557	4447.6	3552.6
971.7629	2445.025	4422.9	3530.6
971.8922	2446.3937	4430.9	3535.85
972.0214	2447.7617	4417	3520.6
972.1506	2449.1289	4390.2	3494.4
972.2798	2450.4955	4384.45	3488.15
972.4089	2451.8613	4367.7	3476.15
972.538	2453.2265	4368.35	3475.45
972.6671	2454.5909	4363.3	3469.15
972.7961	2455.9546	4353.8	3461.45
972.9251	2457.3177	4341.2	3449.6
973.0541	2458.68	4311.2	3415.05
973.1831	2460.0416	4327.45	3435.9
973.312	2461.4025	4300.65	3404.8
973.4408	2462.7627	4297.05	3396.45
973.5697	2464.1222	4287.2	3395.4
973.6985	2465.4811	4260.65	3369.95
973.8273	2466.8392	4259	3366.85
973.956	2468.1966	4249.05	3354.85
974.0847	2469.5533	4226.85	3332.6
974.2134	2470.9093	4221.95	3330.3
974.3421	2472.2645	4219.65	3327.8
974.4707	2473.6191	4223.6	3334.2
974.5993	2474.973	4199.7	3307.35
974.7278	2476.3262	4178.35	3284
974.8563	2477.6787	4173.7	3284.25
974.9848	2479.0305	4160.75	3268.7
975.1132	2480.3816	4152	3257.9
975.2417	2481.7319	4129.2	3236.15
975.37	2483.0816	4123.9	3229.9
975.4984	2484.4306	4120.5	3227.3
975.6267	2485.7789	4097.4	3205.15
975.755	2487.1264	4077.6	3186
975.8833	2488.4733	4061.25	3171.35
976.0115	2489.8195	4072.35	3162.6
976.1397	2491.165	4055.75	3161.2
976.2678	2492.5097	4046.95	3153.65
976.3959	2493.8538	4017.2	3124.95
976.524	2495.1972	4004.3	3110
976.6521	2496.5398	3988.55	3093
976.7801	2497.8818	3991.95	3095.5
976.9081	2499.2231	3965.45	3071.4
977.036	2500.5637	3967.05	3071.1
977.164	2501.9035	3947.1	3052.6
977.2918	2503.2427	3954.15	3054.9
977.4197	2504.5812	3941.2	3048.25
977.5475	2505.919	3927.5	3033.1
977.6753	2507.256	3928.45	3036.8
977.8031	2508.5924	3901.75	3007.05
977.9308	2509.9281	3895.2	2995.1
978.0585	2511.2631	3891.2	2998.2
978.1861	2512.5974	3861.6	2970.1
978.3137	2513.9309	3869.2	2976.9
978.4413	2515.2638	3872.05	2949.35
978.5689	2516.596	3842.5	2949.25
978.6964	2517.9275	3819.25	2925.3
978.8239	2519.2583	3819.55	2925.15
978.9513	2520.5884	3804.55	2910.55
979.0788	2521.9178	3792.75	2900.2
979.2062	2523.2465	3778.75	2887.2
979.3335	2524.5745	3761.55	2868.6
979.4608	2525.9018	3751.8	2859.2
979.5881	2527.2284	3753.65	2863.05
979.7154	2528.5543	3744.7	2855.1
979.8426	2529.8796	3727.3	2834.8
979.9698	2531.2041	3731.2	2839.75
980.0969	2532.5279	3721.95	2830.25
980.224	2533.851	3717.6	2826.1
980.3511	2535.1735	3703.2	2811.3
980.4781	2536.4952	3699.75	2807.95
980.6052	2537.8163	3696.05	2803.55
980.7321	2539.1366	3683.3	2789.65
980.8591	2540.4562	3676.8	2781.6
980.986	2541.7752	3665.5	2772
981.1129	2543.0935	3666.9	2773.7
981.2397	2544.411	3661.65	2767.35
981.3665	2545.7279	3645.75	2752.55
981.4933	2547.0441	3667.2	2772.95
981.62	2548.3596	3646.1	2750.8
981.7467	2549.6744	3647.85	2755.85
981.8734	2550.9885	3626.95	2728.85
982.0001	2552.3019	3614.05	2718.85
982.1267	2553.6146	3618.45	2724.65
982.2532	2554.9266	3584.75	2690.05
982.3798	2556.2379	3576	2681.1
982.5063	2557.5485	3582.5	2690.05
982.6327	2558.8585	3577.15	2678.1
982.7592	2560.1677	3579.65	2683.05
982.8856	2561.4762	3574.95	2682
983.0119	2562.7841	3553.25	2657.95
983.1383	2564.0913	3567.7	2672.45
983.2646	2565.3977	3560.9	2666.5
983.3908	2566.7035	3531.35	2635.75
983.517	2568.0086	3533.5	2639.6
983.6432	2569.313	3523.3	2626.85
983.7694	2570.6167	3519.95	2623.55
983.8955	2571.9197	3513.75	2621.25
984.0216	2573.222	3503.45	2606.4
984.1476	2574.5236	3494.75	2601.35
984.2737	2575.8246	3494.45	2597.25
984.3996	2577.1248	3483.15	2585.9
984.5256	2578.4244	3489.05	2594.25
984.6515	2579.7232	3488.4	2593.75
984.7774	2581.0214	3510.7	2588.15
984.9032	2582.3189	3474.1	2582.45
985.029	2583.6157	3453.8	2552.8
985.1548	2584.9118	3457.5	2564.35
985.2806	2586.2072	3436.75	2542.45
985.4063	2587.5019	3435.1	2541.8
985.5319	2588.7959	3423.15	2530.85
985.6576	2590.0893	3429.05	2532.95
985.7832	2591.3819	3428.7	2533.85
985.9087	2592.6739	3410.8	2519.55
986.0343	2593.9652	3412.05	2515.55
986.1597	2595.2557	3397.1	2501.85
986.2852	2596.5456	3388.6	2493.4
986.4106	2597.8348	3389.65	2497.25
986.536	2599.1234	3368.85	2478.35
986.6614	2600.4112	3349.55	2456.85
986.7867	2601.6983	3357.65	2462.95
986.912	2602.9848	3338.3	2446.2
987.0372	2604.2705	3355.8	2457.85
987.1624	2605.5556	3320.5	2427
987.2876	2606.84	3331.6	2438.65
987.4128	2608.1237	3311.25	2416.35
987.5379	2609.4067	3305.5	2413.55
987.6629	2610.689	3296.85	2396.35
987.788	2611.9707	3291.5	2394.85
987.913	2613.2516	3276.8	2379.05
988.0379	2614.5319	3252.5	2359.6
988.1629	2615.8115	3251.1	2360.1
988.2878	2617.0903	3242.85	2348.9
988.4126	2618.3685	3232.6	2338.85
988.5375	2619.6461	3210.8	2315.95
988.6622	2620.9229	3222.65	2330.4
988.787	2622.199	3209.05	2314.65
988.9117	2623.4745	3196	2302.1
989.0364	2624.7493	3183.05	2291.75
989.161	2626.0234	3195.45	2303.05
989.2857	2627.2968	3175.85	2283.1
989.4102	2628.5695	3173.3	2279.05
989.5348	2629.8415	3153.4	2262.35
989.6593	2631.1128	3142.9	2249.75
989.7837	2632.3835	3132.95	2239.5
989.9082	2633.6535	3128.1	2238.8
990.0326	2634.9228	3123.95	2232.05
990.1569	2636.1914	3103.95	2214.05
990.2812	2637.4593	3104.9	2211.85
990.4055	2638.7265	3100.05	2205.8
990.5298	2639.9931	3087.8	2196.95
990.654	2641.259	3081.75	2187.4
990.7782	2642.5242	3078	2183.75
990.9023	2643.7887	3080.4	2187.65
991.0264	2645.0525	3067.6	2175.25
991.1505	2646.3156	3070.55	2164.3
991.2745	2647.5781	3051.85	2160.1
991.3985	2648.8398	3039.35	2147.3
991.5225	2650.1009	3049.85	2135.1
991.6464	2651.3613	3021.8	2129.35
991.7703	2652.6211	3009.35	2116.9
991.8942	2653.8801	3006.5	2113.45
992.018	2655.1385	2998.05	2102.9
992.1418	2656.3961	2980.7	2088.45
992.2655	2657.6531	2998.9	2107.85
992.3892	2658.9094	2991.6	2100.15
992.5129	2660.1651	2986.3	2096.4
992.6366	2661.42	2976.75	2086.45
992.7602	2662.6743	2985.7	2092.05
992.8837	2663.9279	2972.2	2079.9
993.0073	2665.1808	2961.8	2068.75
993.1307	2666.433	2951.35	2058.55
993.2542	2667.6846	2945.85	2055
993.3776	2668.9354	2955.2	2061.8
993.501	2670.1856	2953.15	2060.6
993.6244	2671.4351	2943.5	2051.75
993.7477	2672.6839	2946.75	2051.9
993.8709	2673.9321	2940.4	2049.15
993.9942	2675.1795	2931.65	2041.45
994.1174	2676.4263	2927.85	2035.5
994.2405	2677.6724	2914.75	2024.1
994.3637	2678.9179	2905.9	2014.5
994.4868	2680.1626	2926.4	2035.3
994.6098	2681.4067	2909.2	2018.05
994.7328	2682.6501	2892.9	2002.55
994.8558	2683.8928	2898.3	2004.8
994.9788	2685.1348	2884.2	1992.45
995.1017	2686.3761	2874.55	1982.8
995.2245	2687.6168	2868.7	1978.85
995.3474	2688.8568	2859.9	1970.55
995.4702	2690.0961	2849.3	1960.8
995.5929	2691.3348	2844.15	1953.55
995.7156	2692.5727	2846.6	1954.7
995.8383	2693.81	2831.55	1940.7
995.961	2695.0466	2815.5	1925.3
996.0836	2696.2826	2819	1926.4
996.2062	2697.5178	2804.1	1912.8
996.3287	2698.7524	2799.9	1908.95
996.4512	2699.9863	2795.05	1901.15
996.5737	2701.2195	2794.5	1903.65
996.6961	2702.452	2784.7	1892.8
996.8185	2703.6839	2790.05	1897.1
996.9408	2704.9151	2788.6	1897.15
997.0631	2706.1456	2775.65	1886.7
997.1854	2707.3755	2787.65	1896.8
997.3077	2708.6046	2784.8	1891.15
997.4299	2709.8331	2777.75	1886.25
997.552	2711.0609	2778.85	1886.15
997.6742	2712.2881	2777.85	1886.9
997.7963	2713.5145	2775.1	1881.7
997.9183	2714.7403	2783.55	1893.3
998.0403	2715.9654	2771.05	1882.2
998.1623	2717.1899	2784.35	1880.9
998.2842	2718.4136	2783.5	1894.15
998.4062	2719.6367	2794.25	1903.5
998.528	2720.8591	2794.65	1897.8
998.6498	2722.0809	2772.15	1882.45
998.7716	2723.3019	2783.35	1888.55
998.8934	2724.5223	2785.85	1893.05
999.0151	2725.7421	2795.1	1903.5
999.1368	2726.9611	2783.6	1892.65
999.2584	2728.1795	2788.2	1892.3
999.38	2729.3972	2754.75	1862.6
999.5016	2730.6142	2748.35	1852.45
999.6231	2731.8306	2733.95	1842.9
999.7446	2733.0462	2729	1836.05
999.8661	2734.2612	2710.55	1816.65
999.9875	2735.4756	2686.2	1794.7
1000.1089	2736.6892	2656.15	1765.9
1000.2302	2737.9022	2632.75	1743.65
1000.3515	2739.1145	2627.8	1736.55
1000.4728	2740.3262	2627.95	1729.75
1000.594	2741.5372	2606.9	1715.4
1000.7152	2742.7475	2582.9	1691.35
1000.8363	2743.9571	2577.8	1686.6
1000.9575	2745.1661	2570.1	1673.4
1001.0785	2746.3744	2560.8	1671
1001.1996	2747.582	2545.45	1656.65
1001.3206	2748.7889	2537.65	1646.35
1001.4415	2749.9952	2519.1	1630.65
1001.5625	2751.2008	2523.15	1632.55
1001.6833	2752.4057	2512.05	1620.85
1001.8042	2753.61	2506.5	1614.1
1001.925	2754.8136	2501.75	1609.3
1002.0458	2756.0165	2493.95	1605.05
1002.1665	2757.2188	2487.1	1599.3
1002.2872	2758.4204	2491	1604.4
1002.4078	2759.6213	2475.55	1585.65
1002.5285	2760.8215	2467.1	1573.7
1002.649	2762.0211	2474.45	1582.4
1002.7696	2763.22	2459.6	1565.05
1002.8901	2764.4182	2453.6	1562.65
1003.0106	2765.6158	2449.1	1559.7
1003.131	2766.8127	2443.05	1554.85
1003.2514	2768.009	2425.65	1537.1
1003.3717	2769.2045	2419.05	1528.9
1003.492	2770.3994	2420	1526.35
1003.6123	2771.5936	2408.55	1519.1
1003.7325	2772.7872	2410.05	1520.65
1003.8527	2773.9801	2402.4	1510.15
1003.9729	2775.1723	2401.55	1493.5
1004.093	2776.3639	2385.05	1497.7
1004.2131	2777.5548	2380.25	1489.25
1004.3331	2778.745	2369.4	1479.9
1004.4531	2779.9346	2372.7	1486
1004.5731	2781.1235	2361.1	1470.75
1004.693	2782.3117	2366.95	1481.45
1004.8129	2783.4992	2363.8	1475.75
1004.9328	2784.6861	2361.8	1473.6
1005.0526	2785.8723	2357.5	1466
1005.1723	2787.0579	2359.5	1469.8
1005.2921	2788.2428	2360.5	1471.85
1005.4118	2789.427	2356	1469.35
1005.5314	2790.6106	2356.45	1467.25
1005.651	2791.7935	2350.65	1462.25
1005.7706	2792.9757	2345.2	1457.15
1005.8902	2794.1573	2359.65	1467.4
1006.0097	2795.3382	2358.15	1469.9
1006.1291	2796.5184	2361.1	1472.45
1006.2485	2797.698	2368.55	1477.9
1006.3679	2798.8769	2371.55	1483.5
1006.4873	2800.0551	2377	1489.15
1006.6066	2801.2327	2381.65	1491.55
1006.7258	2802.4096	2385.45	1498.15
1006.8451	2803.5859	2393.5	1505.15
1006.9642	2804.7615	2406.3	1516.4
1007.0834	2805.9364	2412.95	1526.2
1007.2025	2807.1106	2421.05	1534.25
1007.3216	2808.2842	2445	1558.15
1007.4406	2809.4572	2467.25	1579.9
1007.5596	2810.6294	2496.2	1606.05
1007.6785	2811.801	2505.45	1620.25
1007.7975	2812.972	2533.5	1644.05
1007.9163	2814.1423	2562.35	1674.6
1008.0352	2815.3119	2607.1	1717.4
1008.154	2816.4808	2626.5	1738.85
1008.2727	2817.6491	2665.1	1777.65
1008.3914	2818.8167	2696.9	1809.45
1008.5101	2819.9837	2749.25	1856.65
1008.6288	2821.15	2754.1	1866.4
1008.7474	2822.3157	2811.9	1925.4
1008.8659	2823.4807	2844.95	1956.15
1008.9844	2824.645	2891.1	2003.85
1009.1029	2825.8086	2930.05	2041.6
1009.2214	2826.9716	2981.85	2096.1
1009.3398	2828.134	3026.75	2139.8
1009.4581	2829.2957	3051.35	2164.6
1009.5764	2830.4567	3065.95	2180.1
1009.6947	2831.617	3087	2198.6
1009.813	2832.7767	3090	2203.95
1009.9312	2833.9358	3080.75	2192.3
1010.0493	2835.0941	3087.05	2195.95
1010.1675	2836.2519	3059.05	2170.65
1010.2855	2837.4089	3055.35	2165.9
1010.4036	2838.5653	3030.5	2144
1010.5216	2839.7211	3036.45	2150.65
1010.6396	2840.8761	3014.65	2126.35
1010.7575	2842.0306	3031.45	2146.05
1010.8754	2843.1843	3045	2160.55
1010.9932	2844.3374	3065.25	2179.6
1011.111	2845.4899	3099.85	2210.7
1011.2288	2846.6417	3151.85	2265.05
1011.3465	2847.7928	3182.45	2294.5
1011.4642	2848.9433	3222.8	2335.85
1011.5818	2850.0931	3281.85	2394.8
1011.6995	2851.2422	3326.7	2436.55
1011.817	2852.3907	3389.8	2502.2
1011.9345	2853.5385	3435.8	2549
1012.052	2854.6857	3464.75	2568.25
1012.1695	2855.8323	3484.2	2600.05
1012.2869	2856.9781	3526	2640
1012.4042	2858.1233	3568.55	2684.2
1012.5216	2859.2679	3600.9	2714
1012.6389	2860.4118	3639.1	2752.75
1012.7561	2861.555	3676.15	2783.05
1012.8733	2862.6976	3697.55	2808.45
1012.9905	2863.8395	3738.2	2849.5
1013.1076	2864.9808	3757.4	2870
1013.2247	2866.1214	3767.95	2882.85
1013.3417	2867.2614	3766.4	2876.7
1013.4587	2868.4007	3774.15	2886.1
1013.5757	2869.5393	3790.05	2899.05
1013.6926	2870.6773	3779.9	2888.6
1013.8095	2871.8146	3791.2	2899.55
1013.9263	2872.9513	3799.3	2911.45
1014.0431	2874.0874	3784.15	2896.85
1014.1599	2875.2227	3760.15	2871.15
1014.2766	2876.3574	3764.45	2877.85
1014.3933	2877.4915	3724.45	2835.45
1014.51	2878.6249	3711.55	2825.65
1014.6266	2879.7577	3690.35	2802.65
1014.7431	2880.8898	3670.35	2772.2
1014.8596	2882.0212	3655.5	2768.65
1014.9761	2883.152	3644.9	2756.45
1015.0925	2884.2821	3610.95	2724.65
1015.2089	2885.4116	3605.6	2717.75
1015.3253	2886.5405	3621.55	2736.7
1015.4416	2887.6686	3620.7	2729.85
1015.5579	2888.7962	3614.25	2729.3
1015.6741	2889.923	3612.85	2728.3
1015.7903	2891.0493	3618.2	2731.9
1015.9065	2892.1748	3625.95	2741.15
1016.0226	2893.2997	3639.2	2752.4
1016.1387	2894.424	3635.95	2749.85
1016.2547	2895.5476	3639.05	2752.1
1016.3707	2896.6706	3653.5	2769.15
1016.4866	2897.7929	3676.7	2788.2
1016.6025	2898.9145	3689.05	2803.1
1016.7184	2900.0355	3702.35	2813.95
1016.8342	2901.1559	3730.8	2844.8
1016.95	2902.2756	3740.7	2856.1
1017.0658	2903.3946	3767.55	2879.8
1017.1815	2904.513	3801.05	2913.35
1017.2971	2905.6308	3794.35	2910.35
1017.4127	2906.7479	3819.85	2931.85
1017.5283	2907.8643	3834.3	2946.5
1017.6439	2908.9801	3839.5	2953.65
1017.7594	2910.0953	3841.7	2957.65
1017.8748	2911.2098	3843.05	2954.45
1017.9902	2912.3236	3843.2	2946.95
1018.1056	2913.4368	3819.75	2930.65
1018.2209	2914.5494	3789.85	2905
1018.3362	2915.6613	3790.1	2900.4
1018.4515	2916.7725	3744.65	2854.5
1018.5667	2917.8831	3735.6	2849.1
1018.6819	2918.9931	3702.15	2815.2
1018.797	2920.1024	3662.7	2775.05
1018.9121	2921.211	3652.3	2767.85
1019.0271	2922.319	3631.85	2745.8
1019.1421	2923.4264	3631.05	2745.8
1019.2571	2924.5331	3618.15	2733.9
1019.372	2925.6391	3603.75	2718.4
1019.4869	2926.7445	3601.5	2719.05
1019.6017	2927.8493	3584	2697.85
1019.7165	2928.9534	3593.15	2707.7
1019.8313	2930.0569	3587.9	2697.45
1019.946	2931.1597	3608.5	2720.95
1020.0606	2932.2619	3593.25	2706.55
1020.1753	2933.3634	3586.3	2701.1
1020.2899	2934.4643	3604.75	2712.8
1020.4044	2935.5645	3573.85	2682.9
1020.5189	2936.6641	3553	2663.7
1020.6334	2937.763	3541.9	2655.8
1020.7478	2938.8613	3502.15	2617.5
1020.8622	2939.959	3451.4	2559.25
1020.9765	2941.056	3400.5	2514.3
1021.0908	2942.1523	3348.05	2461.55
1021.2051	2943.248	3285.9	2398.5
1021.3193	2944.3431	3219.4	2333.2
1021.4334	2945.4375	3133.85	2246.95
1021.5476	2946.5313	3037.55	2154.1
1021.6617	2947.6244	2973.95	2088.2
1021.7757	2948.7169	2886	1999
1021.8897	2949.8087	2822.25	1935.85
1022.0037	2950.8999	2743.05	1858.05
1022.1176	2951.9904	2679.2	1793.35
1022.2315	2953.0803	2625.8	1740.65
1022.3453	2954.1696	2567.2	1682.5
1022.4591	2955.2582	2530.7	1644.4
1022.5728	2956.3462	2476.6	1592.7
1022.6865	2957.4335	2447	1560.4
1022.8002	2958.5202	2415.85	1526.8
1022.9138	2959.6062	2389.45	1504.95
1023.0274	2960.6916	2362.35	1477.85
1023.141	2961.7764	2345.6	1459.45
1023.2545	2962.8605	2334.8	1450.4
1023.3679	2963.9439	2319.5	1434.1
1023.4813	2965.0267	2302.5	1415.7
1023.5947	2966.1089	2318.85	1410.7
1023.708	2967.1905	2295.2	1412.35
1023.8213	2968.2714	2279.6	1395.55
1023.9346	2969.3516	2278	1393.05
1024.0478	2970.4312	2280.45	1389.05
1024.1609	2971.5102	2277.5	1390
1024.274	2972.5885	2283.35	1398.75
1024.3871	2973.6662	2288.05	1396.7
1024.5002	2974.7432	2287.55	1403.9
1024.6132	2975.8196	2281.75	1395.9
1024.7261	2976.8954	2261.6	1377.35
1024.839	2977.9705	2257.5	1372.2
1024.9519	2979.045	2255.95	1372.15
1025.0647	2980.1188	2220.5	1335.9
1025.1775	2981.192	2205.9	1322.85
1025.2902	2982.2645	2194.15	1307.95
1025.4029	2983.3364	2176.2	1291.9
1025.5156	2984.4077	2163.85	1277.5
1025.6282	2985.4783	2140.45	1250.5
1025.7407	2986.5483	2114.25	1232.45
1025.8532	2987.6177	2080.95	1196.75
1025.9657	2988.6864	2055.55	1169.55
1026.0782	2989.7545	2021.75	1136.25
1026.1906	2990.8219	1996.15	1113.25
1026.3029	2991.8887	1965.85	1079.95
1026.4152	2992.9548	1947.05	1060.15
1026.5275	2994.0204	1918.45	1033.75
1026.6397	2995.0852	1894.15	1011.7
1026.7519	2996.1495	1872.5	987.75
1026.864	2997.2131	1850.25	965.9
1026.9761	2998.276	1828.45	943.45
1027.0882	2999.3383	1811	925.25
1027.2002	3000.4	1784.15	898.55
1027.3122	3001.4611	1769.2	884.35
1027.4241	3002.5215	1758.4	874.05
1027.536	3003.5812	1735.15	852.55
1027.6478	3004.6404	1726.5	840.55
1027.7596	3005.6989	1719.25	830.4
1027.8714	3006.7567	1715.6	830.35
1027.9831	3007.8139	1713.6	806.8
1028.0947	3008.8705	1686.6	802.5
1028.2064	3009.9264	1697.35	796.55
1028.3179	3010.9818	1679.25	795.25
1028.4295	3012.0364	1672.9	788.25
1028.541	3013.0905	1662.25	777.05
1028.6524	3014.1439	1655.4	770.9
1028.7638	3015.1966	1655.25	770.7
1028.8752	3016.2487	1643.75	759.85
1028.9865	3017.3002	1648.85	759.95
1029.0978	3018.3511	1637.05	750
1029.209	3019.4013	1635.7	749.4
1029.3202	3020.4509	1628.3	744.15
1029.4314	3021.4998	1631	745.1
1029.5425	3022.5481	1621.2	737
1029.6535	3023.5958	1619.3	735.45
1029.7645	3024.6428	1622.55	736.65
1029.8755	3025.6892	1614	729.3
1029.9864	3026.735	1615.4	732.2
1030.0973	3027.7802	1616.5	732.35
1030.2082	3028.8247	1603.2	718.65
1030.319	3029.8685	1611.7	726.9
1030.4297	3030.9118	1611.3	726.25
1030.5404	3031.9544	1609.65	726.05
1030.6511	3032.9963	1608.45	723.65
1030.7617	3034.0376	1607.25	722.2
1030.8723	3035.0783	1610.4	722.25
1030.9829	3036.1184	1613.05	726.55
1031.0934	3037.1578	1620.8	737.25
1031.2038	3038.1966	1606.5	721.5
1031.3142	3039.2348	1608.9	725.75
1031.4246	3040.2723	1619.8	726.05
1031.5349	3041.3092	1608.4	725
1031.6452	3042.3455	1601.85	719.3
1031.7554	3043.3811	1601.65	716.9
1031.8656	3044.4161	1598.85	714.95
1031.9758	3045.4505	1599.55	718
1032.0859	3046.4842	1591.8	705.7
1032.1959	3047.5173	1586.3	704.2
1032.3059	3048.5498	1579.5	694.85
1032.4159	3049.5816	1573.55	689.9
1032.5258	3050.6128	1574.7	688.35
1032.6357	3051.6434	1572.85	689.4
1032.7455	3052.6734	1565.55	680.55
1032.8553	3053.7027	1560.95	677.4
1032.9651	3054.7314	1555.05	670.8
1033.0748	3055.7594	1548.15	665.35
1033.1845	3056.7868	1548.75	664
1033.2941	3057.8136	1546.15	662.45
1033.4037	3058.8398	1544.9	660.35
1033.5132	3059.8653	1534.55	650.55
1033.6227	3060.8902	1535.05	649.7
1033.7321	3061.9145	1523.5	640.35
1033.8415	3062.9381	1514.4	630.35
1033.9509	3063.9612	1530.8	629.9
1034.0602	3064.9835	1514.9	630.45
1034.1694	3066.0053	1517.4	630.6
1034.2787	3067.0264	1508.1	623.25
1034.3878	3068.0469	1500.05	614.7
1034.497	3069.0668	1500.05	613.25
1034.6061	3070.086	1485.3	602.45
1034.7151	3071.1046	1484.6	600.15
1034.8241	3072.1226	1475.75	591.4
1034.9331	3073.1399	1465.95	583.85
1035.042	3074.1567	1461	575.8
1035.1508	3075.1727	1452	567.4
1035.2597	3076.1882	1448.45	563.8
1035.3684	3077.203	1445.15	561.25
1035.4772	3078.2173	1444.35	558.25
1035.5859	3079.2308	1432.6	546.35
1035.6945	3080.2438	1430.1	545.3
1035.8031	3081.2561	1420.5	537.6
1035.9117	3082.2678	1399.1	517.2
1036.0202	3083.2789	1406.85	523.75
1036.1286	3084.2893	1395.6	514.1
1036.2371	3085.2991	1395.3	512.05
1036.3454	3086.3083	1392.3	504.55
1036.4538	3087.3169	1379.7	494.15
1036.562	3088.3248	1377	490.1
1036.6703	3089.3321	1378.05	493.5
1036.7785	3090.3388	1362.35	478.25
1036.8866	3091.3449	1362.75	479.5
1036.9948	3092.3503	1365.5	479.5
1037.1028	3093.3551	1356.6	476.3
1037.2108	3094.3593	1351.4	467.95
1037.3188	3095.3629	1349.05	464.8
1037.4267	3096.3658	1344.25	458.25
1037.5346	3097.3681	1339.5	455.85
1037.6425	3098.3698	1339.3	454.2
1037.7503	3099.3708	1342.2	452
1037.858	3100.3713	1326.5	444.5
1037.9657	3101.3711	1327.1	443.25
1038.0734	3102.3702	1455.65	439.2
1038.181	3103.3688	1317.25	431.6
1038.2886	3104.3667	1312.3	430.9
1038.3961	3105.364	1310.75	427.55
1038.5036	3106.3607	1313.05	429.65
1038.611	3107.3568	1305.05	421.1
1038.7184	3108.3522	1295.35	411.8
1038.8257	3109.347	1295.4	409.85
1038.933	3110.3412	1299.45	413.15
1039.0403	3111.3348	1294.55	412.45
1039.1475	3112.3277	1294.4	412.35
1039.2547	3113.32	1278.9	396.4
1039.3618	3114.3117	1288.4	404.55
1039.4689	3115.3028	1277	393.3
1039.5759	3116.2932	1278.3	391.95
1039.6829	3117.2831	1280.45	387.75
1039.7898	3118.2723	1276.05	392.95
1039.8967	3119.2608	1266.55	383.35
1040.0035	3120.2488	1268.6	383
1040.1103	3121.2361	1271.35	386.75
1040.2171	3122.2229	1256.75	373.8
1040.3238	3123.209	1258.2	373.45
1040.4305	3124.1944	1256.8	375.95
1040.5371	3125.1793	1253.65	369.4
1040.6437	3126.1635	1247.3	365.7
1040.7502	3127.1471	1250.2	369.5
1040.8567	3128.1301	1240.45	358.1
1040.9631	3129.1125	1245	362.65
1041.0695	3130.0942	1237.7	354.15
1041.1759	3131.0753	1253.25	362.05
1041.2822	3132.0558	1244.05	356.6
1041.3884	3133.0357	1235.6	352.25
1041.4946	3134.015	1236.2	352.9
1041.6008	3134.9936	1240.3	355.15
1041.7069	3135.9716	1255.95	354.25
1041.813	3136.949	1229.4	347.05
1041.919	3137.9258	1245.35	343.95
1042.025	3138.902	1229.6	341.2
1042.1309	3139.8775	1227	344.8
1042.2368	3140.8524	1222.75	338.15
1042.3427	3141.8267	1223.6	337.3
1042.4485	3142.8004	1220.35	336.25
1042.5542	3143.7735	1223.4	333.95
1042.6599	3144.7459	1219.1	333.5
1042.7656	3145.7178	1216.8	332.1
1042.8712	3146.689	1215.25	332.85
1042.9768	3147.6596	1213.4	327.35
1043.0823	3148.6295	1208	324.25
1043.1878	3149.5989	1204.95	321.3
1043.2932	3150.5676	1205.85	323.7
1043.3986	3151.5357	1205.05	323.2
1043.5039	3152.5032	1200.3	320.05
1043.6092	3153.4701	1203.45	321.1
1043.7145	3154.4364	1197.55	311.9
1043.8197	3155.402	1196.9	315.65
1043.9248	3156.367	1191.75	306.35
1044.03	3157.3315	1227.3	309.35
1044.135	3158.2952	1182.6	298.2
1044.24	3159.2584	1185.45	303.25
1044.345	3160.221	1186.7	303.65
1044.4499	3161.1829	1182.6	299.2
1044.5548	3162.1442	1183.55	299.45
1044.6596	3163.105	1177.1	293.75
1044.7644	3164.065	1177.3	294.45
1044.8692	3165.0245	1174	287.4
1044.9739	3165.9834	1172.35	291.05
1045.0785	3166.9416	1175.05	291
1045.1831	3167.8993	1173.95	290.9
1045.2877	3168.8563	1176.3	294.3
1045.3922	3169.8127	1163.65	280.95
1045.4966	3170.7684	1158.7	279
1045.6011	3171.7236	1165.85	281.15
1045.7054	3172.6782	1167.85	285.35
1045.8098	3173.6321	1162.4	278.2
1045.914	3174.5854	1163.25	276.8
1046.0183	3175.5381	1157.9	274.7
1046.1224	3176.4902	1159.2	276.65
1046.2266	3177.4417	1155.4	274.4
1046.3307	3178.3926	1150	267.9
1046.4347	3179.3428	1149.35	267.55
1046.5387	3180.2924	1152.3	271.85
1046.6427	3181.2415	1146.5	263.7
1046.7466	3182.1899	1151.95	266.1
1046.8504	3183.1377	1147	267.2
1046.9542	3184.0848	1150	263.75
1047.058	3185.0314	1142.45	260.95
1047.1617	3185.9773	1142.95	259.1
1047.2654	3186.9227	1144.9	260.7
1047.369	3187.8674	1142.3	260.65
1047.4726	3188.8115	1139.25	254.6
1047.5761	3189.755	1136.15	255.95
1047.6796	3190.6979	1131.45	248.55
1047.783	3191.6402	1128.2	247.8
1047.8864	3192.5818	1131.85	248.2
1047.9898	3193.5229	1137.05	250.95
1048.0931	3194.4633	1128.75	245.9
1048.1963	3195.4031	1126.6	244.65
1048.2995	3196.3423	1128.55	246
1048.4027	3197.2809	1132.7	249.3
1048.5058	3198.2189	1121.75	239.65
1048.6089	3199.1563	1129.7	238.5
1048.7119	3200.0931	1124.35	244.5
1048.8148	3201.0292	1121.7	240.45
1048.9178	3201.9648	1115.75	232.55
1049.0206	3202.8997	1118.9	234.1
1049.1235	3203.834	1116.55	233.7
1049.2262	3204.7677	1116.55	234.2
1049.329	3205.7008	1119.35	234.45
1049.4317	3206.6333	1113.15	230.3
1049.5343	3207.5652	1116.05	230.55
1049.6369	3208.4964	1110.25	227.25
1049.7394	3209.4271	1110.95	229.35
1049.8419	3210.3571	1104.6	224.45
1049.9444	3211.2865	1102.2	218.85
1050.0468	3212.2154	1104.9	220.4
1050.1491	3213.1436	1107.25	221.65
1050.2514	3214.0712	1113.25	223.4
1050.3537	3214.9982	1102.05	219.7
1050.4559	3215.9246	1100.8	216.9
1050.5581	3216.8503	1099.8	216.55
1050.6602	3217.7755	1103.6	220.25
1050.7623	3218.7001	1101.15	218.25
1050.8643	3219.624	1097.7	214.6
1050.9663	3220.5473	1095.05	211.35
1051.0682	3221.4701	1096.7	212.35
1051.1701	3222.3922	1097.1	212.8
1051.2719	3223.3137	1093.3	211.05
1051.3737	3224.2346	1094	211.3
1051.4754	3225.1549	1092.45	210.45
1051.5771	3226.0746	1090.7	207.7
1051.6788	3226.9937	1087.9	203.75
1051.7804	3227.9121	1088.75	206.55
1051.8819	3228.83	1086.95	205.25
1051.9834	3229.7473	1084.25	199.5
1052.0849	3230.6639	1082	199.05
1052.1863	3231.5799	1080.95	198.7
1052.2876	3232.4954	1086.6	202.7
1052.3889	3233.4102	1080.75	198.45
1052.4902	3234.3244	1080.75	196.65
1052.5914	3235.238	1072.85	190.35
1052.6926	3236.151	1101.9	194.05
1052.7937	3237.0634	1077.85	196
1052.8948	3237.9752	1074.15	193.2
1052.9958	3238.8864	1078.95	195.35
1053.0968	3239.797	1073.25	191.6
1053.1977	3240.7069	1071.4	188.75
1053.2986	3241.6163	1069	183.9
1053.3994	3242.5251	1068.4	189.4
1053.5002	3243.4332	1067.6	185.65
1053.6009	3244.3408	1067.15	184.5
1053.7016	3245.2477	1064.35	182.2
1053.8022	3246.154	1065.5	181.4
1053.9028	3247.0598	1064.6	182
1054.0034	3247.9649	1061.6	180.9
1054.1039	3248.8694	1061.6	178.65
1054.2043	3249.7733	1055.35	174.25
1054.3047	3250.6766	1057.65	175.5
1054.4051	3251.5793	1057.3	172.55
1054.5054	3252.4814	1052.05	170.95
1054.6056	3253.3829	1054.45	174.3
1054.7058	3254.2838	1051.65	171.65
1054.806	3255.1841	1050.4	167
1054.9061	3256.0838	1051.55	169.75
1055.0061	3256.9829	1050	170.2
1055.1062	3257.8814	1050	166.4
1055.2061	3258.7792	1046.65	162.65
1055.306	3259.6765	1042.45	162.7
1055.4059	3260.5731	1042.3	160.45
1055.5057	3261.4692	1043.15	159.75
1055.6055	3262.3647	1035.8	152.75
1055.7052	3263.2595	1038.6	157.15
1055.8049	3264.1538	1038.1	155.7
1055.9045	3265.0474	1031.95	148.45
1056.0041	3265.9404	1031.05	148.8
1056.1036	3266.8329	1029.05	148.4
1056.2031	3267.7247	1032.55	140.3
1056.3025	3268.616	1017.85	137.6
1056.4019	3269.5066	1020.65	138.65
1056.5013	3270.3966	1013.6	128.55
1056.6005	3271.286	1008.7	129
