Software Version:	3.9.2.0
Unit SN:	10000200
Spectrometer SN:	6960
Date:	3/26/2024 1:05:16 PM
Data Line Index:	25
Spectral Points:	2048
Integration time (ms):	125
Averages:	20
Delay (ms):	30000
Sequence Number:	1
Processing:	dark subtract
Laser Power (mW):	300
Laser Current (mA):	818
Laser Diode Temp (C):	25
Laser Case Temp (C):	25.9
System Temp (C):	25.9
Spectrometer Temp (C):	23.6
CCD Temp (C):	0.005
Secondary Temp (C):	20.01
Heatsink Temp (C):	21.646
CCDPCB Temp (C):	36.018
SecondaryPCB Temp (C):	30.816

Wavelength	RamanShift	Raw Counts	Dark Subtracted
787.061	30.1047	424.85	13
787.2016	32.3739	423.35	13.8
787.3422	34.6426	425.1	13.95
787.4828	36.9109	428.1	16.65
787.6235	39.1787	434.1	17.95
787.7642	41.4461	439.35	17.9
787.9049	43.7131	441.85	17.45
788.0456	45.9796	445.25	17.5
788.1863	48.2456	451.6	18.4
788.3271	50.5112	456.2	19.15
788.4679	52.7764	459.8	20.9
788.6087	55.0411	466.1	26.4
788.7496	57.3054	470.85	25.75
788.8904	59.5692	477	28
789.0313	61.8326	483.15	30.35
789.1722	64.0955	488.95	32
789.3132	66.3579	497.7	35.25
789.4541	68.6199	504.55	40.4
789.5951	70.8815	515.55	49.2
789.7361	73.1426	537.35	69.85
789.8771	75.4032	587.05	113.3
790.0181	77.6634	700.2	220.8
790.1592	79.9231	977.7	495.2
790.3003	82.1824	1526.9	1040.6
790.4414	84.4412	2480.9	1985.6
790.5825	86.6995	3752.25	3249.95
790.7237	88.9574	5016.2	4506.25
790.8648	91.2148	5953.5	5440.5
791.006	93.4717	6455.8	5938.85
791.1472	95.7282	6612.05	6091.8
791.2885	97.9842	6695.5	6174.7
791.4297	100.2398	6688.7	6163.9
791.571	102.4949	6658.6	6129.65
791.7123	104.7495	6639.95	6106.45
791.8536	107.0036	6617.2	6084.65
791.9949	109.2573	6562.85	6030.3
792.1363	111.5105	6508.8	5973.15
792.2777	113.7632	6460.3	5921.2
792.4191	116.0154	6392.5	5842.6
792.5605	118.2672	6364.65	5823.2
792.7019	120.5185	6265.85	5723.8
792.8434	122.7693	6183.95	5638
792.9849	125.0197	6149	5600.05
793.1264	127.2696	6081.55	5531.3
793.2679	129.519	6075.1	5521.85
793.4094	131.7679	6062.8	5509.55
793.551	134.0163	6022.1	5463.05
793.6926	136.2642	6012.2	5448.6
793.8342	138.5117	6008.45	5436.7
793.9758	140.7587	6000.3	5433.1
794.1175	143.0052	5986.3	5412.4
794.2591	145.2512	5929.2	5357.2
794.4008	147.4967	5876.65	5304.05
794.5425	149.7417	5850.7	5277.65
794.6842	151.9863	5816	5238.85
794.826	154.2304	5778.75	5197.95
794.9677	156.4739	5754.55	5166.75
795.1095	158.717	5756.2	5167.9
795.2513	160.9596	5782.9	5189.8
795.3931	163.2017	5801.2	5205.9
795.535	165.4433	5787.35	5193.2
795.6768	167.6844	5785.2	5185
795.8187	169.925	5767.3	5165.9
795.9606	172.1651	5707.75	5101.8
796.1025	174.4047	5668.75	5059.5
796.2445	176.6439	5632.75	5022.2
796.3864	178.8825	5613.1	4998.65
796.5284	181.1206	5604.75	4987.6
796.6704	183.3582	5591.35	4969.7
796.8124	185.5954	5580.9	4957.25
796.9544	187.832	5565.4	4939
797.0965	190.0681	5578.35	4951.45
797.2386	192.3037	5561.35	4929.4
797.3806	194.5388	5559	4922.35
797.5228	196.7734	5568.45	4931.75
797.6649	199.0075	5595.55	4955.85
797.807	201.2411	5614.05	4968.05
797.9492	203.4742	5631.4	4985.95
798.0914	205.7068	5626.35	4981.5
798.2336	207.9389	5641.7	4997.3
798.3758	210.1704	5659.85	5012.05
798.518	212.4015	5672.25	5019.4
798.6603	214.632	5641.6	4988.4
798.8025	216.862	5639.45	4995.25
798.9448	219.0915	5632.05	4995.3
799.0871	221.3205	5654.25	5020.35
799.2294	223.549	5638.6	5008
799.3718	225.777	5643.3	5010.6
799.5141	228.0044	5635.15	4999.55
799.6565	230.2314	5639.2	5008.7
799.7989	232.4578	5606.35	4972.2
799.9413	234.6837	5589.5	4948.65
800.0837	236.909	5602.25	4960.05
800.2262	239.1339	5593.15	4927.7
800.3687	241.3582	5581	4927.6
800.5111	243.582	5577.15	4893.65
800.6536	245.8053	5594.55	4923.7
800.7961	248.0281	5575.9	4909.25
800.9387	250.2503	5583.4	4912.7
801.0812	252.472	5588.25	4908.85
801.2238	254.6932	5582.05	4902
801.3664	256.9139	5554.5	4874.5
801.509	259.134	5564.3	4880.6
801.6516	261.3536	5578.95	4896.55
801.7942	263.5727	5596.25	4911.55
801.9369	265.7912	5615.6	4931.95
802.0795	268.0092	5646.85	4962.3
802.2222	270.2267	5699.1	5014.35
802.3649	272.4436	5724.55	5038.6
802.5076	274.6601	5743.9	5045.85
802.6504	276.8759	5752.85	5063.1
802.7931	279.0913	5765.8	5074
802.9359	281.3061	5763.45	5067.5
803.0787	283.5204	5796.2	5099.65
803.2215	285.7341	5803.3	5104
803.3643	287.9473	5836.2	5125.8
803.5071	290.16	5828.4	5122.2
803.6499	292.3721	5772.7	5069.9
803.7928	294.5837	5743.45	5041.2
803.9357	296.7947	5707.95	5004.5
804.0786	299.0052	5690.6	4986.75
804.2215	301.2152	5659.9	4951.15
804.3644	303.4246	5653.6	4948.8
804.5074	305.6334	5637.55	4933.7
804.6503	307.8418	5619.65	4913.05
804.7933	310.0495	5599.05	4892.05
804.9363	312.2568	5556.1	4849.5
805.0793	314.4635	5523	4811.4
805.2223	316.6696	5479.15	4768.05
805.3653	318.8752	5448.35	4728.5
805.5084	321.0802	5406.75	4693.1
805.6514	323.2847	5396.25	4680.5
805.7945	325.4887	5389.3	4674.4
805.9376	327.692	5387.75	4670.35
806.0807	329.8949	5423.1	4705.05
806.2238	332.0972	5451.25	4730.8
806.367	334.2989	5490.1	4765.9
806.5101	336.5001	5477.9	4753.6
806.6533	338.7007	5445.3	4720.9
806.7965	340.9008	5417.4	4690.55
806.9397	343.1003	5351.6	4622.65
807.0829	345.2992	5321.4	4591.65
807.2261	347.4976	5294.65	4566.7
807.3693	349.6955	5270.7	4534.85
807.5126	351.8927	5254.1	4516.75
807.6559	354.0895	5234.5	4490.8
807.7991	356.2856	5244.45	4506.55
807.9424	358.4812	5201.7	4465.55
808.0857	360.6763	5205.05	4468.3
808.2291	362.8707	5187.85	4448.25
808.3724	365.0646	5188.2	4445.95
808.5158	367.258	5197.25	4451.6
808.6591	369.4508	5190.35	4444.25
808.8025	371.643	5208.05	4458.6
808.9459	373.8346	5213.75	4463.5
809.0893	376.0257	5235.15	4480.65
809.2327	378.2162	5289.65	4537.05
809.3762	380.4062	5295.65	4540.6
809.5196	382.5956	5258.45	4500.7
809.6631	384.7844	5227.65	4471.8
809.8066	386.9726	5160.05	4402.25
809.9501	389.1603	5108.7	4351.15
810.0936	391.3474	5118	4326.1
810.2371	393.5339	5093.4	4334.6
810.3806	395.7199	5078.15	4327.1
810.5241	397.9052	5084.4	4336.3
810.6677	400.09	5104.8	4356.95
810.8113	402.2743	5146.25	4397.95
810.9548	404.4579	5167.95	4421.2
811.0984	406.641	5187.55	4437.55
811.2421	408.8235	5227.45	4477.2
811.3857	411.0054	5285.25	4533.25
811.5293	413.1868	5376.35	4619.45
811.673	415.3675	5492.5	4732.6
811.8166	417.5477	5529.5	4769.2
811.9603	419.7273	5442.4	4680.05
812.104	421.9064	5319.55	4546.9
812.2477	424.0848	5216.15	4451.55
812.3914	426.2627	5148.4	4378.3
812.5351	428.4399	5095.7	4327.5
812.6788	430.6166	5062.95	4288
812.8226	432.7928	5007.05	4230.8
812.9663	434.9683	4960	4185.55
813.1101	437.1432	4933.9	4156.95
813.2539	439.3176	4914.3	4139.6
813.3977	441.4914	4884.65	4105.45
813.5415	443.6645	4877.4	4095.85
813.6853	445.8371	4880.85	4100
813.8291	448.0091	4888.55	4109.05
813.973	450.1806	4861.7	4079.05
814.1168	452.3514	4843.15	4059.95
814.2607	454.5216	4846.85	4061.95
814.4046	456.6913	4805.95	4022.85
814.5485	458.8603	4822.1	4038.7
814.6924	461.0288	4824.2	4041.6
814.8363	463.1967	4808.35	4023.85
814.9802	465.3639	4819.4	4032.65
815.1241	467.5306	4795.65	4010.15
815.2681	469.6967	4785.55	3999.9
815.412	471.8622	4782.95	3995.35
815.556	474.0271	4786.65	3999.95
815.7	476.1914	4778.35	3988.65
815.844	478.3551	4753.3	3966.1
815.988	480.5182	4778.4	3988.75
816.132	482.6807	4761.55	3972.7
816.276	484.8426	4789.3	4000.15
816.4201	487.0039	4804.7	4013.35
816.5641	489.1647	4857.45	4065.4
816.7082	491.3248	4886.25	4096
816.8522	493.4843	4904.55	4113.3
816.9963	495.6432	4893.8	4101.15
817.1404	497.8015	4869.65	4072.85
817.2845	499.9592	4840.3	4044.5
817.4286	502.1163	4800.65	4007.6
817.5727	504.2728	4762.8	3966.3
817.7168	506.4287	4741.45	3947.25
817.861	508.5839	4713.85	3917.35
818.0051	510.7386	4708.65	3912.45
818.1493	512.8927	4723.45	3917.35
818.2935	515.0461	4711.85	3913.8
818.4377	517.199	4741.15	3943.2
818.5818	519.3512	4756.2	3957.65
818.726	521.5029	4801.1	3994.5
818.8703	523.6539	4862.35	4059.2
819.0145	525.8043	4865.1	4062.3
819.1587	527.9541	4823	4019.75
819.303	530.1033	4756.55	3953.2
819.4472	532.2519	4731.65	3928.3
819.5915	534.3999	4707.3	3902.55
819.7357	536.5472	4691.45	3887.2
819.88	538.694	4702.45	3898.25
820.0243	540.8401	4719.35	3912.7
820.1686	542.9856	4725.15	3915.65
820.3129	545.1305	4729.65	3921.75
820.4572	547.2748	4751.1	3938.4
820.6016	549.4185	4741.95	3930.15
820.7459	551.5615	4746	3935.45
820.8902	553.704	4747.15	3933.85
821.0346	555.8458	4770.55	3961.45
821.1789	557.987	4773.35	3963.4
821.3233	560.1276	4792.05	3981.3
821.4677	562.2675	4856.6	4047.05
821.6121	564.4069	4892	4080.95
821.7565	566.5456	4917.15	4106.5
821.9009	568.6837	4915.75	4102.8
822.0453	570.8212	4870.1	4055.65
822.1897	572.958	4803.65	3986.8
822.3342	575.0942	4769.8	3956.1
822.4786	577.2299	4715.4	3902.5
822.6231	579.3648	4692.75	3878.45
822.7675	581.4992	4672.15	3858.75
822.912	583.6329	4650.95	3837.3
823.0565	585.766	4673.75	3859.55
823.201	587.8985	4685.15	3870.2
823.3454	590.0304	4732.8	3903.95
823.4899	592.1616	4734.3	3914.05
823.6345	594.2922	4745.95	3926.3
823.779	596.4222	4724.45	3904.5
823.9235	598.5515	4678.45	3856.65
824.068	600.6802	4627.4	3808.4
824.2126	602.8083	4577.9	3759.7
824.3571	604.9358	4572.85	3750.85
824.5017	607.0626	4545.2	3724.45
824.6462	609.1888	4550.7	3727.6
824.7908	611.3144	4578.5	3754.25
824.9354	613.4393	4588.6	3765.3
825.08	615.5636	4626.1	3802.15
825.2246	617.6873	4673.1	3849.3
825.3692	619.8103	4698.35	3871.65
825.5138	621.9327	4688.85	3861.15
825.6584	624.0544	4673.4	3848.4
825.803	626.1756	4636.9	3813.95
825.9477	628.2961	4608	3782.9
826.0923	630.4159	4575.15	3750.05
826.237	632.5351	4562.6	3735.95
826.3816	634.6537	4541.2	3713.35
826.5263	636.7716	4552.55	3724.15
826.6709	638.8889	4545.8	3718.25
826.8156	641.0056	4561.35	3731.2
826.9603	643.1216	4562.6	3734.1
827.105	645.237	4568.95	3737.15
827.2497	647.3518	4544.5	3715.6
827.3944	649.4659	4539.15	3709.85
827.5391	651.5793	4515.8	3686.15
827.6838	653.6922	4490.85	3661.7
827.8285	655.8043	4490.75	3660.65
827.9733	657.9159	4471.2	3637.9
828.118	660.0268	4458.5	3623.55
828.2627	662.137	4444.75	3612.6
828.4075	664.2466	4444.7	3609.7
828.5522	666.3556	4446.1	3612.65
828.697	668.4639	4452	3615.25
828.8418	670.5716	4441.8	3609.55
828.9865	672.6786	4437.05	3602.55
829.1313	674.785	4411.95	3576.2
829.2761	676.8907	4411.5	3576.15
829.4209	678.9958	4425.25	3592.1
829.5657	681.1002	4399.9	3563.45
829.7105	683.204	4407.25	3566.75
829.8553	685.3072	4396.6	3559.15
830.0001	687.4097	4398.75	3561.75
830.1449	689.5115	4404.1	3563.75
830.2898	691.6127	4395.85	3560.15
830.4346	693.7132	4374.45	3533.4
830.5794	695.8131	4396.75	3542.65
830.7243	697.9123	4383.4	3540.55
830.8691	700.0109	4401.15	3559.85
831.014	702.1089	4398.5	3557.6
831.1588	704.2061	4402.75	3564.2
831.3037	706.3028	4417	3574.9
831.4486	708.3987	4445.15	3602.6
831.5935	710.4941	4432.05	3590.85
831.7383	712.5887	4448.35	3606.5
831.8832	714.6827	4460.95	3616.45
832.0281	716.7761	4434.15	3594.3
832.173	718.8688	4425.5	3581.5
832.3179	720.9608	4427.95	3582.3
832.4628	723.0522	4440.65	3595.85
832.6077	725.1429	4446.9	3604.05
832.7527	727.233	4467.15	3621.45
832.8976	729.3224	4501.95	3654.35
833.0425	731.4112	4548.35	3704.65
833.1874	733.4993	4570.95	3722.9
833.3324	735.5867	4544.85	3698.7
833.4773	737.6735	4471.15	3625.35
833.6222	739.7596	4453.55	3606.8
833.7672	741.845	4429.25	3581.5
833.9122	743.9298	4423.55	3574.15
834.0571	746.014	4447.8	3600.5
834.2021	748.0974	4449.25	3598.05
834.347	750.1802	4438.55	3589.35
834.492	752.2624	4421	3572.05
834.637	754.3439	4393.9	3544.05
834.782	756.4247	4381.9	3524.3
834.9269	758.5048	4357.75	3508.15
835.0719	760.5843	4339.95	3490.35
835.2169	762.6631	4365.1	3512.7
835.3619	764.7413	4386.1	3537.9
835.5069	766.8188	4454.45	3603.8
835.6519	768.8956	4482.55	3630.7
835.7969	770.9718	4541.1	3690.55
835.9419	773.0473	4518.4	3669.1
836.0869	775.1221	4512.35	3660.5
836.232	777.1962	4482.05	3630.55
836.377	779.2697	4507.25	3653.15
836.522	781.3426	4577.05	3705.4
836.667	783.4147	4647.1	3796.05
836.8121	785.4862	4649.35	3799.05
836.9571	787.557	4576.65	3723.2
837.1021	789.6271	4487.05	3633.35
837.2472	791.6966	4382.45	3530.75
837.3922	793.7654	4268.6	3414.95
837.5373	795.8335	4231.55	3376.55
837.6823	797.901	4192.05	3338.7
837.8274	799.9678	4192.35	3336.15
837.9724	802.0339	4176.4	3322.45
838.1175	804.0993	4179.75	3317.4
838.2626	806.1641	4174.05	3318.2
838.4076	808.2282	4143.15	3288.8
838.5527	810.2916	4136.15	3276.35
838.6978	812.3544	4130	3275.8
838.8428	814.4164	4097.05	3245.8
838.9879	816.4778	4111.15	3254.3
839.133	818.5385	4125.05	3269.7
839.2781	820.5986	4133.3	3277.4
839.4232	822.658	4174.5	3317.25
839.5682	824.7166	4216.85	3363
839.7133	826.7747	4274.6	3419.4
839.8584	828.832	4333.5	3475.5
840.0035	830.8886	4342.3	3483.7
840.1486	832.9446	4390.65	3530.85
840.2937	834.9999	4366.9	3509.95
840.4388	837.0545	4320.25	3460.95
840.5839	839.1085	4235.75	3377.8
840.729	841.1618	4180.7	3319.3
840.8741	843.2143	4121.35	3263.6
841.0192	845.2662	4095.05	3235.75
841.1643	847.3175	4080.4	3221.8
841.3095	849.368	4059.4	3200.15
841.4546	851.4179	4049.95	3189.3
841.5997	853.467	4056.75	3198
841.7448	855.5155	4043.6	3184.8
841.8899	857.5633	4031.25	3171.95
842.0351	859.6105	4025.35	3165.65
842.1802	861.6569	4011.85	3152.1
842.3253	863.7027	4007.3	3147.4
842.4704	865.7478	4003.3	3141.75
842.6156	867.7922	3974.3	3114
842.7607	869.8359	3972.4	3110.1
842.9058	871.8789	3974.1	3112.4
843.0509	873.9212	3972.75	3079.25
843.1961	875.9629	3944.45	3084
843.3412	878.0039	3963.7	3101.45
843.4863	880.0441	3969	3105.35
843.6315	882.0837	3970.7	3106.65
843.7766	884.1226	3980.6	3115.65
843.9218	886.1609	4008.15	3147.65
844.0669	888.1984	4037.3	3175.1
844.212	890.2352	4075.4	3212.55
844.3572	892.2714	4087.85	3221
844.5023	894.3069	4055.9	3192.75
844.6475	896.3416	4005.9	3142.4
844.7926	898.3757	3968.8	3105.55
844.9377	900.4091	3945.05	3081.5
845.0829	902.4418	3941.55	3070.4
845.228	904.4739	3947.75	3080.1
845.3732	906.5052	3965.3	3100
845.5183	908.5358	3956.15	3092.45
845.6635	910.5658	3947.7	3081.3
845.8086	912.595	3902.3	3037.85
845.9538	914.6236	3878.5	3012.9
846.0989	916.6515	3837.4	2972.95
846.2441	918.6786	3812.45	2945.15
846.3892	920.7051	3809.8	2944.45
846.5344	922.7309	3805.5	2938.95
846.6795	924.756	3797.3	2931.05
846.8246	926.7804	3810.95	2944.35
846.9698	928.8041	3792.85	2927.9
847.1149	930.8272	3791.05	2926.25
847.2601	932.8495	3797.4	2928.95
847.4052	934.8711	3809.55	2941.45
847.5504	936.892	3793.55	2925.95
847.6955	938.9123	3788.35	2918.1
847.8407	940.9318	3814.9	2947.85
847.9858	942.9506	3797.55	2931.4
848.131	944.9688	3805.75	2941.75
848.2761	946.9862	3784.8	2914.95
848.4213	949.003	3747.15	2877.4
848.5664	951.019	3738.05	2868.8
848.7115	953.0344	3714.85	2844.6
848.8567	955.0491	3687.2	2814.95
849.0018	957.063	3676.75	2809.85
849.147	959.0763	3671.55	2797.75
849.2921	961.0888	3663.25	2793.4
849.4373	963.1007	3651.35	2781.1
849.5824	965.1119	3640.5	2772.45
849.7275	967.1223	3638.45	2768.65
849.8727	969.1321	3620.8	2751.95
850.0178	971.1412	3627.45	2758.1
850.1629	973.1495	3602.8	2733.5
850.3081	975.1572	3609.6	2707
850.4532	977.1641	3594.5	2725.25
850.5983	979.1704	3595.1	2723.6
850.7435	981.1759	3596.65	2721.5
850.8886	983.1808	3566.1	2693.55
851.0337	985.1849	3558.85	2676.3
851.1788	987.1884	3548.95	2676.65
851.324	989.1911	3542.95	2669.85
851.4691	991.1932	3542.4	2670.95
851.6142	993.1945	3535.9	2665.4
851.7593	995.1951	3518	2647.55
851.9045	997.1951	3519.85	2640.6
852.0496	999.1943	3511.85	2640.6
852.1947	1001.1928	3490.3	2618.2
852.3398	1003.1906	3495.85	2624.55
852.4849	1005.1877	3502.15	2628.05
852.63	1007.1841	3503.7	2632.35
852.7751	1009.1798	3511	2639.9
852.9202	1011.1748	3500.55	2628.1
853.0653	1013.1691	3479.95	2606.55
853.2104	1015.1627	3445.5	2573.45
853.3555	1017.1556	3407.7	2534.2
853.5006	1019.1477	3386.4	2514.45
853.6457	1021.1392	3356.35	2484.35
853.7908	1023.1299	3331.1	2456.7
853.9359	1025.12	3328.15	2455.85
854.081	1027.1093	3317.65	2448.35
854.2261	1029.0979	3334.3	2465.95
854.3712	1031.0859	3325.65	2458.7
854.5163	1033.0731	3344.55	2473.35
854.6613	1035.0596	3338.2	2466.15
854.8064	1037.0454	3330.85	2457.7
854.9515	1039.0304	3310.45	2434
855.0965	1041.0148	3273.8	2399.7
855.2416	1042.9985	3254	2378.1
855.3867	1044.9814	3237.45	2363.25
855.5317	1046.9636	3217.95	2341.95
855.6768	1048.9452	3224.85	2352.55
855.8219	1050.926	3245	2372.4
855.9669	1052.9061	3228.3	2355.05
856.112	1054.8855	3241.95	2367.4
856.257	1056.8642	3239.25	2367.5
856.4021	1058.8421	3232.1	2353.6
856.5471	1060.8194	3222.8	2349.2
856.6921	1062.7959	3206	2329.25
856.8372	1064.7717	3200.35	2324.75
856.9822	1066.7469	3203.5	2328.5
857.1272	1068.7213	3185.7	2309.05
857.2723	1070.695	3194.55	2320.6
857.4173	1072.6679	3193.65	2316.95
857.5623	1074.6402	3217.45	2342.7
857.7073	1076.6117	3219.85	2338.9
857.8523	1078.5826	3199.3	2324.6
857.9973	1080.5527	3184.2	2305.4
858.1423	1082.5221	3139.15	2263.4
858.2873	1084.4908	3098.65	2221.6
858.4323	1086.4587	3081.9	2202.3
858.5773	1088.426	3073.8	2199.05
858.7223	1090.3925	3082.25	2203.4
858.8673	1092.3584	3080.95	2204.8
859.0123	1094.3235	3069.75	2196.55
859.1573	1096.2879	3058.95	2182.3
859.3022	1098.2515	3077.75	2201.15
859.4472	1100.2145	3100.25	2226.4
859.5922	1102.1767	3112.6	2233
859.7371	1104.1382	3131.8	2254.1
859.8821	1106.099	3162.55	2284.75
860.027	1108.0591	3212.85	2335.75
860.172	1110.0185	3226.3	2347.1
860.3169	1111.9771	3249.55	2370.3
860.4619	1113.9351	3281.25	2403.65
860.6068	1115.8923	3327.15	2447.85
860.7517	1117.8488	3365.45	2486.2
860.8967	1119.8045	3334.9	2456.05
861.0416	1121.7596	3252.3	2374.75
861.1865	1123.7139	3145.5	2268.5
861.3314	1125.6675	3108.95	2232.2
861.4763	1127.6204	3094.35	2216.45
861.6212	1129.5726	3096	2218
861.7661	1131.524	3106.15	2227.3
861.911	1133.4748	3077.45	2200.6
862.0559	1135.4248	3027.35	2148.3
862.2008	1137.3741	2972.7	2096.25
862.3457	1139.3226	2929.65	2049.2
862.4905	1141.2705	2935.95	2057.45
862.6354	1143.2176	2937.1	2053.8
862.7803	1145.164	2936	2055.65
862.9251	1147.1097	2941.65	2060.8
863.07	1149.0546	2923.9	2041.35
863.2148	1150.9989	2893.55	2014.15
863.3597	1152.9424	2864.05	1982.6
863.5045	1154.8852	2842.5	1961.15
863.6493	1156.8272	2852.85	1974.15
863.7942	1158.7686	2852.15	1967.35
863.939	1160.7092	2838.7	1957.5
864.0838	1162.6491	2835.8	1952.95
864.2286	1164.5883	2824.55	1946.8
864.3734	1166.5267	2828.5	1947.55
864.5182	1168.4644	2852.85	1971.7
864.663	1170.4014	2863.85	1979.8
864.8078	1172.3377	2880.7	2002.35
864.9526	1174.2732	2930.75	2050.45
865.0974	1176.2081	2977.75	2098.85
865.2421	1178.1421	3077.6	2195.3
865.3869	1180.0755	3175.7	2295.85
865.5317	1182.0082	3234.9	2355.5
865.6764	1183.9401	3246.2	2366.15
865.8212	1185.8713	3176.8	2297.05
865.9659	1187.8017	3061.2	2182.2
866.1106	1189.7315	2968.2	2090.85
866.2554	1191.6605	2887.05	2006.6
866.4001	1193.5888	2826.1	1947.4
866.5448	1195.5163	2809.45	1931.35
866.6895	1197.4432	2781.7	1902.55
866.8342	1199.3693	2765.1	1886.4
866.9789	1201.2947	2745.2	1862.85
867.1236	1203.2193	2724.7	1844.95
867.2683	1205.1432	2717.4	1837.15
867.413	1207.0664	2707.25	1826.8
867.5576	1208.9889	2707.45	1824
867.7023	1210.9106	2695.45	1812.9
867.847	1212.8316	2700.2	1818.75
867.9916	1214.7519	2702.9	1812.35
868.1363	1216.6715	2693.85	1813.95
868.2809	1218.5903	2702.4	1821.6
868.4255	1220.5084	2700.25	1818.7
868.5701	1222.4257	2718.65	1837.25
868.7148	1224.3424	2711.1	1832.05
868.8594	1226.2583	2733.65	1846.3
869.004	1228.1735	2742.95	1860.4
869.1486	1230.0879	2759.25	1877
869.2932	1232.0016	2794.9	1915.85
869.4377	1233.9146	2804.75	1918.1
869.5823	1235.8269	2819.85	1936.85
869.7269	1237.7384	2829.95	1950.2
869.8715	1239.6492	2813.6	1932.35
870.016	1241.5592	2807.95	1925.65
870.1606	1243.4686	2842.1	1960.2
870.3051	1245.3772	2890.8	2010.05
870.4496	1247.285	2946.5	2063.9
870.5941	1249.1922	3020.6	2136.45
870.7387	1251.0986	3067.6	2186.1
870.8832	1253.0042	3113.2	2229.65
871.0277	1254.9092	3176.9	2296.75
871.1722	1256.8134	3244.2	2362.85
871.3167	1258.7169	3338.3	2455.45
871.4611	1260.6196	3381.25	2499.85
871.6056	1262.5216	3420.05	2537.35
871.7501	1264.4229	3413.55	2531.65
871.8945	1266.3234	3389.65	2504.35
872.039	1268.2232	3352.65	2470.7
872.1834	1270.1223	3287.7	2402.8
872.3278	1272.0207	3256.6	2375.9
872.4723	1273.9183	3218.35	2328.8
872.6167	1275.8151	3201.7	2320.2
872.7611	1277.7113	3231.5	2347.8
872.9055	1279.6067	3287.8	2405.5
873.0499	1281.5014	3410.15	2523.1
873.1943	1283.3953	3557.4	2673.35
873.3386	1285.2885	3713.5	2831.85
873.483	1287.181	3852.65	2968.85
873.6274	1289.0727	3911	3027.45
873.7717	1290.9637	3879.15	2995.45
873.9161	1292.854	3782.1	2899.85
874.0604	1294.7435	3667.35	2783.7
874.2047	1296.6323	3543.35	2658.15
874.349	1298.5204	3445.95	2561.75
874.4933	1300.4077	3383.75	2498.95
874.6376	1302.2943	3333.45	2451.5
874.7819	1304.1802	3286.05	2405.05
874.9262	1306.0653	3255.2	2371.3
875.0705	1307.9497	3236.25	2351.5
875.2147	1309.8333	3202.1	2320.2
875.359	1311.7162	3186.85	2305.1
875.5032	1313.5984	3170.15	2283.4
875.6475	1315.4798	3162.95	2259.6
875.7917	1317.3605	3151.15	2256.3
875.9359	1319.2405	3162.1	2276.8
876.0801	1321.1197	3159.15	2274.1
876.2243	1322.9982	3125.65	2238.2
876.3685	1324.876	3070.45	2187.4
876.5127	1326.753	3003.85	2116.8
876.6569	1328.6293	2928.9	2045.7
876.801	1330.5048	2852.7	1965.6
876.9452	1332.3796	2778.25	1894.8
877.0893	1334.2537	2742.2	1833.7
877.2335	1336.127	2675.5	1790.3
877.3776	1337.9996	2646.65	1764.75
877.5217	1339.8714	2612.85	1729.9
877.6658	1341.7426	2629.05	1703.75
877.8099	1343.6129	2603.45	1720.5
877.954	1345.4826	2570.2	1685.15
878.0981	1347.3515	2561.4	1674.95
878.2422	1349.2196	2544.25	1658.8
878.3862	1351.087	2530.9	1646.55
878.5303	1352.9537	2524	1640.35
878.6743	1354.8197	2535.3	1650.7
878.8184	1356.6849	2532.4	1648.3
878.9624	1358.5493	2535	1650.3
879.1064	1360.4131	2552.05	1669.75
879.2504	1362.276	2576.55	1691.1
879.3944	1364.1383	2606	1722.6
879.5384	1365.9998	2611.05	1722.05
879.6823	1367.8606	2607.2	1721.6
879.8263	1369.7206	2596.4	1710.35
879.9702	1371.5799	2591.25	1704.65
880.1142	1373.4384	2593.8	1707.95
880.2581	1375.2962	2572.45	1689.4
880.402	1377.1533	2527.65	1643.9
880.5459	1379.0096	2470.25	1583.6
880.6898	1380.8652	2448.15	1565.8
880.8337	1382.7201	2428.45	1542.9
880.9776	1384.5742	2393.95	1510.3
881.1215	1386.4275	2377.85	1491.7
881.2653	1388.2802	2346.3	1460.15
881.4092	1390.132	2345.45	1461.05
881.553	1391.9832	2332.75	1448
881.6968	1393.8336	2316.5	1430.05
881.8406	1395.6832	2308.45	1421.35
881.9844	1397.5322	2295.7	1410.5
882.1282	1399.3803	2290.1	1399.2
882.272	1401.2278	2270.25	1385.1
882.4158	1403.0745	2264.05	1380.05
882.5595	1404.9204	2253.6	1367.9
882.7033	1406.7656	2257.05	1371.8
882.847	1408.6101	2243.3	1356.65
882.9908	1410.4538	2238.1	1353.55
883.1345	1412.2968	2224.4	1338.35
883.2782	1414.139	2234.05	1347.85
883.4219	1415.9805	2227	1340.75
883.5656	1417.8213	2247.7	1342.05
883.7092	1419.6613	2234.95	1349.7
883.8529	1421.5006	2254.5	1369.4
883.9965	1423.3391	2276.6	1390.55
884.1402	1425.1769	2316.5	1429
884.2838	1427.0139	2377.9	1492.35
884.4274	1428.8502	2445.25	1557.7
884.571	1430.6858	2496.2	1610.75
884.7146	1432.5206	2511.45	1626.45
884.8582	1434.3547	2499.3	1612.5
885.0018	1436.188	2501.9	1616.9
885.1453	1438.0206	2485.45	1598.95
885.2889	1439.8524	2459.95	1572.85
885.4324	1441.6835	2461.65	1576.3
885.5759	1443.5139	2452.2	1561.65
885.7194	1445.3435	2468	1582.4
885.8629	1447.1724	2463.05	1578.8
886.0064	1449.0005	2458.3	1570.5
886.1499	1450.8279	2450.5	1562.05
886.2933	1452.6545	2452.2	1567.2
886.4368	1454.4804	2442.45	1557.55
886.5802	1456.3056	2433.4	1540.05
886.7237	1458.13	2411.55	1524.45
886.8671	1459.9536	2402.7	1514.9
887.0105	1461.7766	2375.45	1490.05
887.1539	1463.5987	2338.8	1452.8
887.2972	1465.4202	2297.75	1411.5
887.4406	1467.2409	2280.6	1394.85
887.584	1469.0608	2247.25	1361.9
887.7273	1470.88	2223.15	1336.15
887.8706	1472.6984	2192.85	1307.75
888.0139	1474.5161	2175.45	1287.75
888.1572	1476.3331	2150.7	1266.7
888.3005	1478.1493	2147.05	1259.65
888.4438	1479.9648	2139.35	1254.45
888.5871	1481.7795	2142.9	1256.15
888.7303	1483.5935	2122.05	1236.8
888.8736	1485.4067	2133.4	1245.9
889.0168	1487.2192	2138.85	1253.95
889.16	1489.031	2134.4	1245.55
889.3032	1490.842	2121.3	1235.8
889.4464	1492.6522	2128.8	1241.95
889.5896	1494.4618	2116.95	1228.5
889.7327	1496.2705	2110	1223.3
889.8759	1498.0785	2107.5	1221.55
890.019	1499.8858	2112.15	1226.5
890.1622	1501.6924	2102.85	1217.4
890.3053	1503.4981	2088.2	1203.25
890.4484	1505.3032	2090.85	1205.55
890.5914	1507.1075	2070.2	1184.95
890.7345	1508.911	2078.3	1192.9
890.8776	1510.7138	2063.65	1176.25
891.0206	1512.5159	2046.55	1159.2
891.1637	1514.3172	2045.45	1159.5
891.3067	1516.1178	2042.1	1158.9
891.4497	1517.9176	2034.15	1145.4
891.5927	1519.7166	2020.5	1134.55
891.7357	1521.515	2019.85	1127.25
891.8786	1523.3126	2007.45	1119.3
892.0216	1525.1094	1998.4	1110.25
892.1645	1526.9055	1996.3	1108.65
892.3074	1528.7008	1992.5	1106.9
892.4503	1530.4954	1982.4	1095.4
892.5932	1532.2893	1976.6	1090
892.7361	1534.0824	1978.1	1087.8
892.879	1535.8747	1979.65	1093.15
893.0218	1537.6663	1969.3	1084.3
893.1647	1539.4572	1964.75	1077.4
893.3075	1541.2473	1961.95	1076
893.4503	1543.0367	1956.35	1070.55
893.5931	1544.8253	1962.3	1072.2
893.7359	1546.6132	1958.55	1071.9
893.8787	1548.4003	1951.05	1053.4
894.0214	1550.1867	1959.05	1063.65
894.1642	1551.9723	1961.95	1072.35
894.3069	1553.7572	1964.6	1077.65
894.4496	1555.5414	1979.65	1094.4
894.5923	1557.3247	1998.45	1113.55
894.735	1559.1074	2011.1	1127.4
894.8777	1560.8893	2050.55	1167.9
895.0204	1562.6705	2092.35	1207.8
895.163	1564.4509	2103.15	1218
895.3056	1566.2305	2115.35	1230.05
895.4482	1568.0094	2119.1	1236.05
895.5908	1569.7876	2114.95	1227.65
895.7334	1571.565	2100.85	1214.3
895.876	1573.3417	2109.95	1224.5
896.0186	1575.1176	2112.3	1227.1
896.1611	1576.8928	2125.1	1238.55
896.3036	1578.6672	2129.9	1247.15
896.4461	1580.4409	2151.4	1266.5
896.5886	1582.2138	2194.55	1307.15
896.7311	1583.986	2223.35	1335.4
896.8736	1585.7575	2251.1	1365.9
897.0161	1587.5282	2275.65	1388.8
897.1585	1589.2981	2302.1	1416.65
897.3009	1591.0673	2321.05	1435.8
897.4433	1592.8358	2319.95	1434.3
897.5857	1594.6035	2330	1442.1
897.7281	1596.3704	2310.25	1425.75
897.8705	1598.1366	2285.95	1401.7
898.0128	1599.9021	2250.95	1366.9
898.1551	1601.6668	2231.2	1342.9
898.2975	1603.4308	2208.4	1319.75
898.4398	1605.194	2209.95	1318.75
898.5821	1606.9564	2208.6	1323.45
898.7243	1608.7182	2254.5	1364.45
898.8666	1610.4791	2315.05	1430.95
899.0088	1612.2394	2403.4	1519.25
899.1511	1613.9988	2493.1	1607.85
899.2933	1615.7576	2581.35	1695.35
899.4355	1617.5156	2622.8	1729.55
899.5776	1619.2728	2623.95	1737.35
899.7198	1621.0293	2565.55	1681.45
899.862	1622.785	2457.5	1571.4
900.0041	1624.54	2336.8	1449.6
900.1462	1626.2942	2233.6	1347.4
900.2883	1628.0477	2132.15	1243.15
900.4304	1629.8005	2055.45	1165.3
900.5725	1631.5525	1992.05	1105.5
900.7145	1633.3037	1935.8	1049.45
900.8566	1635.0542	1900.2	1016.5
900.9986	1636.804	1870.95	985.7
901.1406	1638.553	1888.75	952.65
901.2826	1640.3013	1814.6	929.35
901.4245	1642.0488	1797.1	910.65
901.5665	1643.7955	1785.05	899.5
901.7085	1645.5416	1765.95	878.65
901.8504	1647.2868	1766.85	882.25
901.9923	1649.0313	1751.5	866.1
902.1342	1650.7751	1750	860.9
902.2761	1652.5181	1738.7	855.05
902.4179	1654.2604	1736.65	850.15
902.5598	1656.0019	1732.2	846.85
902.7016	1657.7427	1747	861.55
902.8434	1659.4828	1762.1	877.45
902.9852	1661.222	1777.5	892.15
903.127	1662.9606	1811.35	924.85
903.2687	1664.6984	1839.45	951.1
903.4105	1666.4354	1857.55	971.35
903.5522	1668.1717	1852.95	964.3
903.6939	1669.9072	1810.5	925.3
903.8356	1671.642	1775.7	888.65
903.9773	1673.3761	1731.55	845.15
904.119	1675.1094	1706.6	819.75
904.2606	1676.8419	1672.9	788.95
904.4022	1678.5737	1657.5	770.9
904.5439	1680.3048	1647.95	762.75
904.6855	1682.0351	1639.95	752.7
904.827	1683.7646	1633.3	744.05
904.9686	1685.4934	1621.7	736.8
905.1101	1687.2215	1616.9	730.75
905.2517	1688.9488	1613.5	727.05
905.3932	1690.6754	1601.45	716.3
905.5347	1692.4012	1607.4	723.75
905.6761	1694.1263	1600.6	712.4
905.8176	1695.8506	1590.85	704.55
905.9591	1697.5742	1586.5	702.7
906.1005	1699.297	1585.6	700
906.2419	1701.0191	1578.25	693.75
906.3833	1702.7404	1572	686.8
906.5246	1704.461	1577.5	689.8
906.666	1706.1808	1568.7	683.2
906.8073	1707.8999	1560.95	673.5
906.9487	1709.6182	1557.95	672.05
907.09	1711.3358	1554.3	668.05
907.2313	1713.0527	1558.15	673.1
907.3725	1714.7688	1558.05	665.55
907.5138	1716.4841	1550.5	663.2
907.655	1718.1987	1554.9	664.1
907.7962	1719.9126	1551.45	666.15
907.9374	1721.6257	1551.2	663.9
908.0786	1723.338	1549.1	664.35
908.2198	1725.0496	1537.6	650.75
908.3609	1726.7605	1528.3	641.5
908.502	1728.4706	1531.15	645.1
908.6431	1730.18	1536.1	647.2
908.7842	1731.8886	1533.8	650.2
908.9253	1733.5964	1531.5	639.95
909.0664	1735.3036	1525.1	636.85
909.2074	1737.0099	1529.5	642.75
909.3484	1738.7156	1517.8	633.75
909.4894	1740.4204	1522.1	633.45
909.6304	1742.1246	1522.9	638.1
909.7714	1743.8279	1520.25	634.3
909.9123	1745.5306	1525.3	641.15
910.0532	1747.2325	1512.7	626.1
910.1941	1748.9336	1508	623.2
910.335	1750.634	1520.2	633.2
910.4759	1752.3336	1513.45	626.8
910.6168	1754.0325	1507.75	622.85
910.7576	1755.7307	1512.2	626.6
910.8984	1757.4281	1509.75	624.85
911.0392	1759.1247	1510.35	615
911.18	1760.8206	1511.65	621.6
911.3208	1762.5158	1507	615.35
911.4615	1764.2102	1494.1	608.75
911.6022	1765.9039	1493.4	606.75
911.7429	1767.5968	1499.35	613.95
911.8836	1769.289	1493.05	605.7
912.0243	1770.9804	1497.05	608.7
912.1649	1772.6711	1492.45	605.35
912.3056	1774.361	1491.95	605.3
912.4462	1776.0502	1494.65	608.3
912.5868	1777.7386	1488	599.75
912.7274	1779.4263	1479.55	593
912.8679	1781.1132	1485.45	601
913.0084	1782.7994	1479	593.15
913.149	1784.4849	1477.5	592.45
913.2895	1786.1696	1479.15	586.4
913.4299	1787.8535	1480.6	595.1
913.5704	1789.5367	1474	587.95
913.7108	1791.2192	1474.3	587.65
913.8513	1792.9009	1500.8	588.35
913.9917	1794.5818	1471.95	584.65
914.132	1796.2621	1470.1	586.05
914.2724	1797.9415	1464.05	577.75
914.4128	1799.6202	1462	574.3
914.5531	1801.2982	1459.85	572.9
914.6934	1802.9755	1460.75	570.85
914.8337	1804.6519	1464.75	577.5
914.9739	1806.3277	1457.5	572.5
915.1142	1808.0027	1458.3	571.4
915.2544	1809.6769	1454.25	567.85
915.3946	1811.3504	1448.95	560.9
915.5348	1813.0231	1451.75	565.65
915.675	1814.6951	1442	555.2
915.8151	1816.3664	1455.15	567.2
915.9553	1818.0369	1448.45	564.1
916.0954	1819.7067	1444.55	557.7
916.2355	1821.3757	1441.85	554.9
916.3755	1823.044	1444.6	556.9
916.5156	1824.7115	1437.45	550.35
916.6556	1826.3783	1443	560.45
916.7956	1828.0443	1442.4	555.9
916.9356	1829.7096	1443	556.35
917.0756	1831.3741	1441.05	551.7
917.2155	1833.0379	1434.7	548.55
917.3555	1834.701	1433.95	547.7
917.4954	1836.3633	1425.3	537.1
917.6353	1838.0248	1439.2	551.25
917.7751	1839.6856	1428.8	540.3
917.915	1841.3457	1427.2	542.65
918.0548	1843.005	1428.6	543.5
918.1946	1844.6636	1420.95	535.5
918.3344	1846.3214	1420.3	534.6
918.4742	1847.9785	1420.2	537.05
918.6139	1849.6349	1423.6	536.1
918.7537	1851.2904	1433.6	541.6
918.8934	1852.9453	1420.35	533.6
919.0331	1854.5994	1421.45	533.7
919.1727	1856.2528	1420.5	529.45
919.3124	1857.9054	1408.1	521.65
919.452	1859.5572	1411.8	527.55
919.5916	1861.2083	1420.1	534.55
919.7312	1862.8587	1410.7	522.85
919.8708	1864.5084	1416.25	529.2
920.0103	1866.1572	1407.65	521.75
920.1498	1867.8054	1410.15	522.5
920.2893	1869.4528	1405.6	518.7
920.4288	1871.0994	1405.8	517.2
920.5683	1872.7453	1399.65	514.1
920.7077	1874.3905	1408.7	516.8
920.8471	1876.0349	1399.65	515
920.9865	1877.6786	1405.55	518.95
921.1259	1879.3215	1399.25	514.45
921.2653	1880.9637	1402.55	514.75
921.4046	1882.6051	1393.55	506.6
921.5439	1884.2458	1392.95	505.05
921.6832	1885.8858	1398.65	511.45
921.8225	1887.525	1397.1	508.35
921.9617	1889.1634	1387.85	501.7
922.101	1890.8011	1389	503.05
922.2402	1892.4381	1389.35	504.05
922.3794	1894.0743	1384.05	496.95
922.5185	1895.7098	1384.75	498.5
922.6577	1897.3446	1384.35	498.5
922.7968	1898.9786	1387.9	498.25
922.9359	1900.6118	1380.3	494.85
923.075	1902.2443	1385.55	499.85
923.214	1903.8761	1374.6	486.95
923.3531	1905.5071	1374.95	489.25
923.4921	1907.1374	1375.55	489.7
923.6311	1908.7669	1376.8	489.3
923.77	1910.3957	1374.1	488.75
923.909	1912.0237	1367.5	480.8
924.0479	1913.651	1372.2	484.95
924.1868	1915.2776	1363	479.75
924.3257	1916.9034	1363.35	479.15
924.4646	1918.5285	1357.8	474.5
924.6034	1920.1528	1352.5	465.4
924.7422	1921.7764	1359.9	474.6
924.881	1923.3992	1358.9	473.05
925.0198	1925.0213	1358.9	472.7
925.1586	1926.6427	1354.05	468.8
925.2973	1928.2633	1420.9	465.1
925.436	1929.8832	1355.3	468.05
925.5747	1931.5023	1349.8	462.05
925.7134	1933.1207	1352.15	465.25
925.852	1934.7383	1349.2	463.15
925.9906	1936.3552	1341.95	455.3
926.1292	1937.9714	1347.2	460.9
926.2678	1939.5868	1340.85	453.55
926.4064	1941.2015	1340.65	452.55
926.5449	1942.8154	1343.85	455.8
926.6834	1944.4286	1337.25	451.2
926.8219	1946.041	1361.75	454.35
926.9604	1947.6528	1344.5	453.7
927.0988	1949.2637	1326.55	440.6
927.2372	1950.8739	1328.1	440.6
927.3756	1952.4834	1333.45	447.55
927.514	1954.0921	1332.7	447
927.6523	1955.7001	1331.65	441.2
927.7907	1957.3074	1330.6	446.25
927.929	1958.9139	1327.95	444.3
928.0673	1960.5197	1323.3	435.3
928.2055	1962.1247	1320.8	433.4
928.3438	1963.729	1326.2	441.1
928.482	1965.3325	1346.25	435.7
928.6202	1966.9353	1322.25	437.75
928.7584	1968.5374	1321.15	436.2
928.8965	1970.1387	1317.5	433.4
929.0346	1971.7393	1310.4	423.15
929.1727	1973.3392	1315.45	429.75
929.3108	1974.9383	1309.6	424.8
929.4489	1976.5366	1305.65	420.7
929.5869	1978.1342	1310.8	423.75
929.7249	1979.7311	1307	419.05
929.8629	1981.3273	1312.8	427.5
930.0009	1982.9227	1310.2	421.75
930.1388	1984.5173	1303.95	419.75
930.2767	1986.1112	1301.3	416
930.4146	1987.7044	1295.75	412.8
930.5525	1989.2968	1300.1	415
930.6904	1990.8885	1304.25	416.7
930.8282	1992.4795	1305.85	418.15
930.966	1994.0697	1298.9	412
931.1038	1995.6592	1297.45	412.15
931.2415	1997.2479	1294.2	408
931.3793	1998.8359	1293.25	408.95
931.517	2000.4232	1289.15	403.1
931.6547	2002.0097	1289.55	407.25
931.7923	2003.5955	1284.75	400.5
931.93	2005.1805	1292.8	407.95
932.0676	2006.7648	1288.7	402.15
932.2052	2008.3484	1290	404.2
932.3427	2009.9312	1285.5	398.9
932.4803	2011.5133	1286.7	402.4
932.6178	2013.0946	1284.4	399.75
932.7553	2014.6752	1286.35	402.5
932.8928	2016.2551	1283.35	398.6
933.0302	2017.8342	1278.35	392.85
933.1676	2019.4126	1278.25	392.6
933.305	2020.9902	1283.3	400.1
933.4424	2022.5672	1281.55	396.5
933.5798	2024.1433	1286.8	392.75
933.7171	2025.7188	1276.5	393.35
933.8544	2027.2935	1277.35	393.15
933.9917	2028.8674	1279.5	393.15
934.129	2030.4406	1265.65	382.75
934.2662	2032.0131	1272.85	388.4
934.4034	2033.5849	1271.05	379.45
934.5406	2035.1559	1272.6	387.5
934.6778	2036.7261	1273.85	388.95
934.8149	2038.2957	1276.75	390.35
934.952	2039.8645	1268.4	383.85
935.0891	2041.4325	1271.9	383.55
935.2262	2042.9998	1266.95	380.6
935.3632	2044.5664	1262.25	374.9
935.5002	2046.1323	1270.75	386.2
935.6372	2047.6974	1267.2	382.7
935.7742	2049.2617	1263.05	379.7
935.9111	2050.8254	1288	382.2
936.048	2052.3883	1268.8	382.1
936.1849	2053.9504	1264.6	379.55
936.3218	2055.5118	1265.65	380.95
936.4586	2057.0725	1268.6	379.15
936.5955	2058.6325	1262.9	378.95
936.7323	2060.1917	1256.65	371.45
936.869	2061.7502	1263.45	377.9
937.0058	2063.3079	1264.05	378.45
937.1425	2064.8649	1262.05	373.4
937.2792	2066.4212	1256.05	369.7
937.4159	2067.9767	1256.7	373.7
937.5525	2069.5315	1251.75	366.05
937.6891	2071.0856	1255.1	370.2
937.8257	2072.6389	1254.75	369.4
937.9623	2074.1915	1243.75	361.35
938.0989	2075.7433	1253.85	366.3
938.2354	2077.2945	1251.9	368.1
938.3719	2078.8448	1250.4	364.4
938.5084	2080.3945	1244.55	359.4
938.6448	2081.9434	1244.6	360
938.7812	2083.4916	1247.1	361.8
938.9176	2085.039	1245.6	359.2
939.054	2086.5857	1249.25	363.85
939.1903	2088.1317	1242.55	357.25
939.3267	2089.677	1250.25	363.7
939.463	2091.2215	1241.95	356.65
939.5992	2092.7652	1244.5	357.4
939.7355	2094.3083	1238.55	353.9
939.8717	2095.8506	1246.3	362.2
940.0079	2097.3921	1243.8	359.35
940.1441	2098.933	1242.85	356.55
940.2802	2100.4731	1242.45	357.85
940.4163	2102.0124	1259.45	358.5
940.5524	2103.5511	1241	356.45
940.6885	2105.089	1240.3	355.25
940.8245	2106.6261	1241.05	354.1
940.9606	2108.1626	1238.05	350.65
941.0965	2109.6983	1266.85	351.25
941.2325	2111.2332	1236.75	349.75
941.3684	2112.7675	1240.15	354.9
941.5044	2114.301	1235.2	346.6
941.6403	2115.8337	1233.45	348.7
941.7761	2117.3657	1239.3	353.95
941.912	2118.897	1234.45	349.35
942.0478	2120.4276	1236.55	346.3
942.1835	2121.9575	1230.2	346.25
942.3193	2123.4866	1244.8	344.6
942.455	2125.0149	1237	350.5
942.5907	2126.5426	1226.95	343.5
942.7264	2128.0695	1232.35	344.1
942.8621	2129.5956	1228.4	344.3
942.9977	2131.1211	1229.95	340.2
943.1333	2132.6458	1230.7	345.7
943.2689	2134.1698	1229.9	344.1
943.4044	2135.693	1228.65	341.6
943.54	2137.2155	1229.6	343.35
943.6755	2138.7373	1229.55	343.75
943.8109	2140.2584	1226.15	341.05
943.9464	2141.7787	1225.2	334.5
944.0818	2143.2983	1217.4	335.2
944.2172	2144.8171	1224.05	340.95
944.3526	2146.3353	1224.05	336.65
944.4879	2147.8527	1224.5	341.65
944.6232	2149.3693	1218.95	332.05
944.7585	2150.8853	1214.9	330
944.8938	2152.4005	1217.55	333.5
945.029	2153.9149	1212.25	326.1
945.1642	2155.4287	1314.5	329.45
945.2994	2156.9417	1217	331.15
945.4346	2158.454	1218.85	331.1
945.5697	2159.9655	1211.65	326.45
945.7048	2161.4764	1214.55	330.9
945.8399	2162.9865	1210.15	325.85
945.9749	2164.4958	1212.35	327.85
946.1099	2166.0045	1212.15	322.35
946.2449	2167.5124	1206.6	322.15
946.3799	2169.0195	1213.8	330.25
946.5148	2170.526	1211.2	324.4
946.6498	2172.0317	1208.15	323.3
946.7846	2173.5367	1205.85	318.95
946.9195	2175.0409	1211	326.4
947.0543	2176.5445	1204.1	318.45
947.1891	2178.0473	1202.25	316.9
947.3239	2179.5494	1210.65	323.2
947.4587	2181.0507	1207.25	322.25
947.5934	2182.5513	1201.7	316.15
947.7281	2184.0512	1204	319.2
947.8628	2185.5504	1200.55	316.8
947.9974	2187.0488	1202.8	318.25
948.132	2188.5465	1196.6	312
948.2666	2190.0435	1199.9	314.8
948.4012	2191.5397	1194.9	310.55
948.5357	2193.0353	1195.05	310.1
948.6702	2194.5301	1195.9	308.65
948.8047	2196.0241	1188.25	301.8
948.9392	2197.5175	1193.25	308.1
949.0736	2199.0101	1195.45	307.65
949.208	2200.502	1188.95	306.9
949.3424	2201.9931	1187.55	302.85
949.4767	2203.4835	1192.9	308.3
949.611	2204.9733	1202.6	301.25
949.7453	2206.4622	1190.35	306.65
949.8796	2207.9505	1185.65	297.65
950.0138	2209.438	1188.45	304.2
950.148	2210.9248	1191.55	305.2
950.2822	2212.4109	1183	299.35
950.4164	2213.8962	1185.1	297.65
950.5505	2215.3809	1182.6	296.55
950.6846	2216.8648	1180.95	296
950.8186	2218.3479	1188.3	299.75
950.9527	2219.8304	1185.45	298.35
951.0867	2221.3121	1184.6	298.15
951.2207	2222.7931	1177.45	293
951.3546	2224.2733	1174.35	289.15
951.4886	2225.7529	1179.25	293.2
951.6225	2227.2317	1174.45	288.3
951.7563	2228.7098	1170.4	285.95
951.8902	2230.1872	1175.85	290.8
952.024	2231.6638	1176.4	291.65
952.1578	2233.1397	1174.7	284.4
952.2916	2234.6149	1168.05	286.25
952.4253	2236.0894	1176.15	290.25
952.559	2237.5632	1169.6	283.9
952.6927	2239.0362	1165.25	281.35
952.8263	2240.5085	1163.2	277.8
952.9599	2241.9801	1162.45	277.2
953.0935	2243.4509	1167	283.45
953.2271	2244.921	1160.35	276.15
953.3606	2246.3904	1167.2	279.35
953.4941	2247.8591	1162.1	277.9
953.6276	2249.3271	1163.25	279.3
953.7611	2250.7943	1156.7	271.4
953.8945	2252.2608	1160.4	275.85
954.0279	2253.7266	1157	270.85
954.1612	2255.1917	1163.4	279.25
954.2946	2256.656	1149.3	261.15
954.4279	2258.1197	1154.75	270.2
954.5612	2259.5826	1156.45	269.2
954.6944	2261.0447	1154.5	268.05
954.8276	2262.5062	1158.1	271.75
954.9608	2263.9669	1154.35	266.6
955.094	2265.4269	1155.9	271.75
955.2271	2266.8862	1150.95	267
955.3602	2268.3448	1151.9	266.6
955.4933	2269.8026	1150.25	264.5
955.6264	2271.2598	1145.4	260.65
955.7594	2272.7162	1148.95	266.55
955.8924	2274.1719	1147.6	260.7
956.0253	2275.6268	1152.85	265.9
956.1583	2277.0811	1146.55	261
956.2912	2278.5346	1145.7	261.15
956.4241	2279.9874	1143	258.65
956.5569	2281.4395	1143.7	259.85
956.6897	2282.8908	1154.2	263.5
956.8225	2284.3414	1147.65	261
956.9553	2285.7914	1143.35	259.95
957.088	2287.2406	1146.8	259.75
957.2207	2288.689	1140.6	253.25
957.3534	2290.1368	1141.15	255.3
957.486	2291.5838	1140.45	253.95
957.6186	2293.0302	1143.95	256.8
957.7512	2294.4758	1143.25	258.25
957.8838	2295.9206	1140.7	254.15
958.0163	2297.3648	1142.2	256.95
958.1488	2298.8082	1139.2	253.05
958.2813	2300.251	1138.5	253.2
958.4137	2301.693	1142.8	256.55
958.5461	2303.1343	1139.9	255.4
958.6785	2304.5748	1140.3	255.7
958.8108	2306.0147	1135.1	249.65
958.9432	2307.4538	1131.15	242.85
959.0754	2308.8922	1128.05	244.9
959.2077	2310.3299	1129.45	246.2
959.3399	2311.7669	1127.3	242.9
959.4721	2313.2031	1130.9	247.7
959.6043	2314.6387	1131.3	244.95
959.7365	2316.0735	1129.35	244.55
959.8686	2317.5076	1130	246.1
960.0006	2318.941	1128.65	243.75
960.1327	2320.3737	1127.9	241.7
960.2647	2321.8056	1130.2	241.15
960.3967	2323.2369	1126.5	238.7
960.5287	2324.6674	1130.55	242.5
960.6606	2326.0972	1128.5	243
960.7925	2327.5263	1129.85	243.2
960.9244	2328.9547	1131.3	245.3
961.0562	2330.3823	1129.45	245.4
961.1881	2331.8092	1125.7	237.6
961.3198	2333.2355	1119.85	234.2
961.4516	2334.661	1123.7	238
961.5833	2336.0858	1122.1	233.6
961.715	2337.5098	1116.95	231.05
961.8467	2338.9332	1117.45	232.2
961.9783	2340.3558	1121.5	233.6
962.1099	2341.7778	1119.05	233
962.2415	2343.199	1118.7	232.75
962.373	2344.6195	1114.6	229.3
962.5045	2346.0393	1112.9	228.8
962.636	2347.4583	1111	225.9
962.7675	2348.8767	1109.25	223.1
962.8989	2350.2943	1115.45	227.15
963.0303	2351.7113	1110.75	223.45
963.1617	2353.1275	1116.35	229.5
963.293	2354.543	1137.7	229.55
963.4243	2355.9578	1106.75	219.6
963.5556	2357.3718	1106.2	221.75
963.6868	2358.7852	1111.95	225.45
963.818	2360.1978	1111.1	225.75
963.9492	2361.6098	1106.5	222.45
964.0803	2363.021	1109.15	220.15
964.2114	2364.4315	1110.75	224.4
964.3425	2365.8413	1107.55	221.4
964.4736	2367.2504	1103.85	220.85
964.6046	2368.6587	1106.95	221.25
964.7356	2370.0664	1102.3	217.85
964.8666	2371.4733	1103.85	218.55
964.9975	2372.8795	1105.05	219.75
965.1284	2374.285	1103.15	218.1
965.2593	2375.6899	1105.95	222.1
965.3901	2377.0939	1099.75	214.2
965.5209	2378.4973	1097.95	213.15
965.6517	2379.9	1094	208.1
965.7825	2381.3019	1096.6	212.25
965.9132	2382.7032	1098.3	212.7
966.0439	2384.1037	1094.7	209.9
966.1745	2385.5035	1094	207.95
966.3051	2386.9027	1097.6	213.55
966.4357	2388.3011	1094.4	204.75
966.5663	2389.6987	1098.5	213.05
966.6968	2391.0957	1091.1	204.1
966.8273	2392.492	1089.85	204.15
966.9578	2393.8876	1084.45	199.35
967.0882	2395.2824	1094	207.6
967.2186	2396.6765	1092.2	207.15
967.349	2398.07	1084.4	199.1
967.4793	2399.4627	1088.5	200.85
967.6097	2400.8547	1088.35	202.45
967.7399	2402.246	1091.45	197.4
967.8702	2403.6366	1088.45	203.1
968.0004	2405.0265	1086.35	200.75
968.1306	2406.4156	1086.9	195.7
968.2607	2407.8041	1085.65	196.95
968.3909	2409.1918	1083.65	195.65
968.521	2410.5789	1085.1	198.8
968.651	2411.9652	1084.45	194.05
968.781	2413.3508	1081.05	195.1
968.911	2414.7358	1077.75	191.95
969.041	2416.12	1075.75	191.5
969.1709	2417.5035	1074.9	191.1
969.3008	2418.8863	1077	188.5
969.4307	2420.2684	1077.15	189.1
969.5606	2421.6497	1078.65	193.15
969.6904	2423.0304	1070	184.85
969.8201	2424.4104	1074.6	187.85
969.9499	2425.7896	1075.75	189.5
970.0796	2427.1682	1072.6	189.15
970.2093	2428.546	1075.9	191.6
970.3389	2429.9232	1073.6	186.05
970.4685	2431.2996	1073	187.35
970.5981	2432.6753	1071.55	185.7
970.7277	2434.0503	1066.6	181.9
970.8572	2435.4246	1072.8	189.95
970.9867	2436.7982	1070.15	182.7
971.1161	2438.1711	1067.95	181.9
971.2456	2439.5433	1069.85	182.55
971.375	2440.9148	1077.35	187.5
971.5043	2442.2856	1067.5	181.3
971.6336	2443.6557	1069.8	183.7
971.7629	2445.025	1064	179
971.8922	2446.3937	1062.7	177.8
972.0214	2447.7617	1063	178.2
972.1506	2449.1289	1060.9	173.3
972.2798	2450.4955	1063.65	174.35
972.4089	2451.8613	1064.2	179.15
972.538	2453.2265	1062.3	176.05
972.6671	2454.5909	1063.55	177.15
972.7961	2455.9546	1060.5	173.8
972.9251	2457.3177	1056.45	169
973.0541	2458.68	1061.85	176.9
973.1831	2460.0416	1061.9	175.3
973.312	2461.4025	1064.75	177.15
973.4408	2462.7627	1073.2	176.8
973.5697	2464.1222	1054.25	169.1
973.6985	2465.4811	1061.95	175.7
973.8273	2466.8392	1055.95	170.35
973.956	2468.1966	1059.85	173.6
974.0847	2469.5533	1057	168.85
974.2134	2470.9093	1057.85	172.95
974.3421	2472.2645	1053.45	166.6
974.4707	2473.6191	1053.2	167.45
974.5993	2474.973	1054.6	168.75
974.7278	2476.3262	1055.25	168.9
974.8563	2477.6787	1052.35	166.05
974.9848	2479.0305	1049.05	164.55
975.1132	2480.3816	1055.6	169.2
975.2417	2481.7319	1054.7	170.35
975.37	2483.0816	1054.7	167.35
975.4984	2484.4306	1049.45	163.7
975.6267	2485.7789	1050.05	166.65
975.755	2487.1264	1052.8	163.85
975.8833	2488.4733	1046.9	162.7
976.0115	2489.8195	1056.95	164.8
976.1397	2491.165	1049.1	160.05
976.2678	2492.5097	1051.2	165.05
976.3959	2493.8538	1046.25	160.45
976.524	2495.1972	1047.05	160.8
976.6521	2496.5398	1047.4	160.05
976.7801	2497.8818	1047.2	158.55
976.9081	2499.2231	1040.9	156.3
977.036	2500.5637	1044.9	157.75
977.164	2501.9035	1046.65	161.25
977.2918	2503.2427	1048.5	157.75
977.4197	2504.5812	1044	158.9
977.5475	2505.919	1045.05	157.7
977.6753	2507.256	1040.7	154.35
977.8031	2508.5924	1045.05	160.1
977.9308	2509.9281	1043.65	151.65
978.0585	2511.2631	1040.7	155.75
978.1861	2512.5974	1040.15	155.85
978.3137	2513.9309	1039.95	153.55
978.4413	2515.2638	1061.65	150.05
978.5689	2516.596	1036.3	152.85
978.6964	2517.9275	1037.35	149.2
978.8239	2519.2583	1039.5	154.75
978.9513	2520.5884	1036.25	148.85
979.0788	2521.9178	1039.3	153.4
979.2062	2523.2465	1030.25	144.15
979.3335	2524.5745	1038.3	151.7
979.4608	2525.9018	1035.1	149.05
979.5881	2527.2284	1034.85	151.75
979.7154	2528.5543	1033.55	147.35
979.8426	2529.8796	1033.5	148.55
979.9698	2531.2041	1031.05	145.25
980.0969	2532.5279	1029.5	145.8
980.224	2533.851	1032.25	146
980.3511	2535.1735	1029.2	143.35
980.4781	2536.4952	1028.25	142.6
980.6052	2537.8163	1030.8	143.45
980.7321	2539.1366	1032.75	148.6
980.8591	2540.4562	1029.15	142.2
980.986	2541.7752	1029.55	144.35
981.1129	2543.0935	1031.75	145.9
981.2397	2544.411	1031.25	144.6
981.3665	2545.7279	1028.3	141.7
981.4933	2547.0441	1023.85	137.3
981.62	2548.3596	1029.35	141.4
981.7467	2549.6744	1028.7	143.9
981.8734	2550.9885	1034.45	140.85
982.0001	2552.3019	1025.1	140
982.1267	2553.6146	1026.9	140.9
982.2532	2554.9266	1026.15	140.6
982.3798	2556.2379	1027.4	138.2
982.5063	2557.5485	1024	139.65
982.6327	2558.8585	1030	137.2
982.7592	2560.1677	1028.2	139.05
982.8856	2561.4762	1025	141.1
983.0119	2562.7841	1025.75	136.15
983.1383	2564.0913	1020.55	137.05
983.2646	2565.3977	1024.85	139.9
983.3908	2566.7035	1021.35	135.1
983.517	2568.0086	1024.25	137.5
983.6432	2569.313	1022.45	136.05
983.7694	2570.6167	1024.65	134.8
983.8955	2571.9197	1018	132.45
984.0216	2573.222	1021.65	132.5
984.1476	2574.5236	1021.4	135.2
984.2737	2575.8246	1026.7	139.1
984.3996	2577.1248	1022.6	135.7
984.5256	2578.4244	1018.3	133.65
984.6515	2579.7232	1020	134.55
984.7774	2581.0214	1047.9	131.6
984.9032	2582.3189	1019	133.55
985.029	2583.6157	1031.85	131.9
985.1548	2584.9118	1017.95	131.6
985.2806	2586.2072	1015.45	129.35
985.4063	2587.5019	1019.95	133.15
985.5319	2588.7959	1020.1	134.75
985.6576	2590.0893	1018.35	130.15
985.7832	2591.3819	1015.9	130.65
985.9087	2592.6739	1015.8	130.1
986.0343	2593.9652	1015.75	129.65
986.1597	2595.2557	1016.95	131.7
986.2852	2596.5456	1018.65	130.55
986.4106	2597.8348	1010.4	124.9
986.536	2599.1234	1016.65	131.25
986.6614	2600.4112	1014.8	130.3
986.7867	2601.6983	1019.05	130.3
986.912	2602.9848	1016.3	130.55
987.0372	2604.2705	1022.85	130.5
987.1624	2605.5556	1011.65	125.35
987.2876	2606.84	1015.7	128.2
987.4128	2608.1237	1019.7	132.6
987.5379	2609.4067	1009.3	124.4
987.6629	2610.689	1023.1	126.75
987.788	2611.9707	1017.55	129.5
987.913	2613.2516	1014.95	125
988.0379	2614.5319	1011.4	125.75
988.1629	2615.8115	1009.1	122.9
988.2878	2617.0903	1009.35	121.6
988.4126	2618.3685	1004.35	119.55
988.5375	2619.6461	1010.05	124.6
988.6622	2620.9229	1009.6	123.35
988.787	2622.199	1007.25	120.55
988.9117	2623.4745	1004.7	118.75
989.0364	2624.7493	1006.85	123
989.161	2626.0234	1004.05	120.45
989.2857	2627.2968	1003.1	115.7
989.4102	2628.5695	1006.35	118.5
989.5348	2629.8415	1004.45	120.35
989.6593	2631.1128	1002.85	117.3
989.7837	2632.3835	1001.35	115.05
989.9082	2633.6535	1004.45	120.05
990.0326	2634.9228	1000.55	116
990.1569	2636.1914	1004.1	118
990.2812	2637.4593	1005.6	113.3
990.4055	2638.7265	1004.55	118.55
990.5298	2639.9931	1000.25	112.35
990.654	2641.259	1003.3	116.9
990.7782	2642.5242	999.6	115.4
990.9023	2643.7887	999.6	113.1
991.0264	2645.0525	1000.7	115.45
991.1505	2646.3156	1016.25	114.95
991.2745	2647.5781	994.6	111.35
991.3985	2648.8398	997.1	112.85
991.5225	2650.1009	1001.45	108.2
991.6464	2651.3613	993.4	109.35
991.7703	2652.6211	998.75	112
991.8942	2653.8801	993.3	109.3
992.018	2655.1385	1000.35	112.7
992.1418	2656.3961	998.4	113.3
992.2655	2657.6531	996.45	112.3
992.3892	2658.9094	996.2	109.25
992.5129	2660.1651	996.6	111.15
992.6366	2661.42	994.6	109.55
992.7602	2662.6743	995.45	109.15
992.8837	2663.9279	996.6	112.4
993.0073	2665.1808	994.8	109.35
993.1307	2666.433	994.4	108.1
993.2542	2667.6846	991.35	105.65
993.3776	2668.9354	995.25	106.1
993.501	2670.1856	995.95	111.6
993.6244	2671.4351	989.15	104.45
993.7477	2672.6839	995.4	108.7
993.8709	2673.9321	989.6	106.85
993.9942	2675.1795	991.75	104.4
994.1174	2676.4263	991.35	105.45
994.2405	2677.6724	991.9	104.25
994.3637	2678.9179	997.45	112
994.4868	2680.1626	990.1	104.65
994.6098	2681.4067	992.8	107.25
994.7328	2682.6501	991.85	105.55
994.8558	2683.8928	990.85	105.95
994.9788	2685.1348	989.5	104.2
995.1017	2686.3761	988.5	103.55
995.2245	2687.6168	986.75	101.2
995.3474	2688.8568	986.1	99.8
995.4702	2690.0961	985.05	100.05
995.5929	2691.3348	985.3	99.6
995.7156	2692.5727	986.75	101.9
995.8383	2693.81	984.75	99.1
995.961	2695.0466	986.15	103
996.0836	2696.2826	983.85	96.1
996.2062	2697.5178	988.95	99.6
996.3287	2698.7524	985.15	99.15
996.4512	2699.9863	985.5	99.35
996.5737	2701.2195	983.2	98.9
996.6961	2702.452	984.35	98.7
996.8185	2703.6839	985.5	97.65
996.9408	2704.9151	985.35	101.25
997.0631	2706.1456	986	99
997.1854	2707.3755	984.75	100.45
997.3077	2708.6046	984.8	96.1
997.4299	2709.8331	984.1	99.8
997.552	2711.0609	982.5	96.35
997.6742	2712.2881	984.35	96.85
997.7963	2713.5145	986.2	98.75
997.9183	2714.7403	983.4	100.75
998.0403	2715.9654	984	99.25
998.1623	2717.1899	998.75	98.75
998.2842	2718.4136	988.55	102.6
998.4062	2719.6367	986.75	102.4
998.528	2720.8591	994.55	103.6
998.6498	2722.0809	989	102.4
998.7716	2723.3019	993.65	106.6
998.8934	2724.5223	990.6	105.5
999.0151	2725.7421	990.8	101.45
999.1368	2726.9611	986.3	98.45
999.2584	2728.1795	985.65	95.5
999.38	2729.3972	986.7	101.3
999.5016	2730.6142	988.05	94.05
999.6231	2731.8306	983.4	96.7
999.7446	2733.0462	983.65	96.1
999.8661	2734.2612	983.65	94.65
999.9875	2735.4756	982.55	97.05
1000.1089	2736.6892	978.1	92.45
1000.2302	2737.9022	972.35	85.9
1000.3515	2739.1145	978.2	90.25
1000.4728	2740.3262	983.2	88.45
1000.594	2741.5372	976.8	92.15
1000.7152	2742.7475	977.1	92.35
1000.8363	2743.9571	975.1	88.5
1000.9575	2745.1661	978.25	88.15
1001.0785	2746.3744	972.1	85.4
1001.1996	2747.582	971.8	86.75
1001.3206	2748.7889	972.75	85.4
1001.4415	2749.9952	970.35	85.75
1001.5625	2751.2008	969.25	82.1
1001.6833	2752.4057	973.6	85.9
1001.8042	2753.61	971.05	85.7
1001.925	2754.8136	973	86.3
1002.0458	2756.0165	968.55	82.85
1002.1665	2757.2188	970.25	86.5
1002.2872	2758.4204	968.35	81.95
1002.4078	2759.6213	969.65	79.95
1002.5285	2760.8215	971.15	81.8
1002.649	2762.0211	966.8	79.45
1002.7696	2763.22	971	82.1
1002.8901	2764.4182	967.3	80.35
1003.0106	2765.6158	969.45	85.4
1003.131	2766.8127	967.4	81.8
1003.2514	2768.009	965.8	79.65
1003.3717	2769.2045	964.6	79.7
1003.492	2770.3994	966.75	78.4
1003.6123	2771.5936	962.05	73.3
1003.7325	2772.7872	963.8	79.85
1003.8527	2773.9801	963.8	75.3
1003.9729	2775.1723	981.3	77.6
1004.093	2776.3639	961.2	77.7
1004.2131	2777.5548	966.45	77.95
1004.3331	2778.745	961.4	75.5
1004.4531	2779.9346	962.35	77.95
1004.5731	2781.1235	964.95	78.95
1004.693	2782.3117	958.55	73.95
1004.8129	2783.4992	960.1	73.05
1004.9328	2784.6861	961.05	74.95
1005.0526	2785.8723	960.25	73.45
1005.1723	2787.0579	960.55	73.85
1005.2921	2788.2428	962.45	77.05
1005.4118	2789.427	959.8	75.85
1005.5314	2790.6106	963.25	78.6
1005.651	2791.7935	961.3	74.85
1005.7706	2792.9757	958.25	72.75
1005.8902	2794.1573	962.75	76
1006.0097	2795.3382	961.85	76.1
1006.1291	2796.5184	961.45	78.05
1006.2485	2797.698	960.95	73.6
1006.3679	2798.8769	958	73.2
1006.4873	2800.0551	960.45	73.95
1006.6066	2801.2327	963.2	75.2
1006.7258	2802.4096	958.8	73.7
1006.8451	2803.5859	958.75	73.15
1006.9642	2804.7615	960.75	73.55
1007.0834	2805.9364	959.35	75.4
1007.2025	2807.1106	961.55	77.1
1007.3216	2808.2842	963.55	78.4
1007.4406	2809.4572	963.7	78.7
1007.5596	2810.6294	964.8	79.6
1007.6785	2811.801	962	76.95
1007.7975	2812.972	963.1	78.7
1007.9163	2814.1423	964.7	78.85
1008.0352	2815.3119	968.1	83.55
1008.154	2816.4808	968.55	84
1008.2727	2817.6491	972.3	86.15
1008.3914	2818.8167	971.75	88.05
1008.5101	2819.9837	983.9	94.85
1008.6288	2821.15	983.35	98.9
1008.7474	2822.3157	985.15	102.9
1008.8659	2823.4807	993.25	108.5
1008.9844	2824.645	997.55	112.9
1009.1029	2825.8086	1004.65	120.9
1009.2214	2826.9716	1013.4	128.7
1009.3398	2828.134	1017.8	131.8
1009.4581	2829.2957	1026.15	142.15
1009.5764	2830.4567	1033.4	148.6
1009.6947	2831.617	1034.15	148.5
1009.813	2832.7767	1034.4	147.9
1009.9312	2833.9358	1034.8	150.1
1010.0493	2835.0941	1037.3	150.65
1010.1675	2836.2519	1031.1	146.8
1010.2855	2837.4089	1028.95	142.4
1010.4036	2838.5653	1023.9	138.4
1010.5216	2839.7211	1020.35	135.8
1010.6396	2840.8761	1021.7	134.2
1010.7575	2842.0306	1022.45	138.95
1010.8754	2843.1843	1018.4	133.6
1010.9932	2844.3374	1023.45	137.75
1011.111	2845.4899	1024.1	137.3
1011.2288	2846.6417	1022.8	137.95
1011.3465	2847.7928	1024.45	138.05
1011.4642	2848.9433	1023.8	139.5
1011.5818	2850.0931	1028.05	142.3
1011.6995	2851.2422	1028.7	142.3
1011.817	2852.3907	1027.05	141.45
1011.9345	2853.5385	1029.45	143.6
1012.052	2854.6857	1034.4	141.75
1012.1695	2855.8323	1028.3	145.15
1012.2869	2856.9781	1028.05	141.2
1012.4042	2858.1233	1033.9	148.15
1012.5216	2859.2679	1033.35	147.1
1012.6389	2860.4118	1038.45	151.65
1012.7561	2861.555	1045.85	156.05
1012.8733	2862.6976	1045.4	158.25
1012.9905	2863.8395	1045.7	162.75
1013.1076	2864.9808	1044.45	159.35
1013.2247	2866.1214	1041.65	158.05
1013.3417	2867.2614	1046.85	163.1
1013.4587	2868.4007	1051.35	166.25
1013.5757	2869.5393	1062.35	174.55
1013.6926	2870.6773	1055.6	167.95
1013.8095	2871.8146	1060.7	171.1
1013.9263	2872.9513	1056.4	170.75
1014.0431	2874.0874	1061.05	178.55
1014.1599	2875.2227	1062.6	175.95
1014.2766	2876.3574	1062.6	179.55
1014.3933	2877.4915	1069.15	183.6
1014.51	2878.6249	1064.9	179.85
1014.6266	2879.7577	1069.7	185.3
1014.7431	2880.8898	1079.75	184.6
1014.8596	2882.0212	1070.5	186.05
1014.9761	2883.152	1079.05	192.8
1015.0925	2884.2821	1075.5	192.3
1015.2089	2885.4116	1079.35	195.45
1015.3253	2886.5405	1075.5	191.25
1015.4416	2887.6686	1083.45	195.3
1015.5579	2888.7962	1079.9	195.8
1015.6741	2889.923	1079.2	194.65
1015.7903	2891.0493	1082.5	198.25
1015.9065	2892.1748	1077.45	194.5
1016.0226	2893.2997	1080.85	196.25
1016.1387	2894.424	1076.5	190.9
1016.2547	2895.5476	1080.6	195.1
1016.3707	2896.6706	1082.3	199.05
1016.4866	2897.7929	1082.15	196.5
1016.6025	2898.9145	1083.25	198.95
1016.7184	2900.0355	1078.5	193.25
1016.8342	2901.1559	1081.05	197.5
1016.95	2902.2756	1077	188.8
1017.0658	2903.3946	1076.5	193.1
1017.1815	2904.513	1079.5	191.55
1017.2971	2905.6308	1075.8	191.05
1017.4127	2906.7479	1076.1	190.55
1017.5283	2907.8643	1076.75	191.3
1017.6439	2908.9801	1070.25	185.7
1017.7594	2910.0953	1071.4	186.15
1017.8748	2911.2098	1075.35	187.45
1017.9902	2912.3236	1078.5	188.05
1018.1056	2913.4368	1076.25	188.45
1018.2209	2914.5494	1069.15	182.75
1018.3362	2915.6613	1073.25	182.4
1018.4515	2916.7725	1072.35	184.55
1018.5667	2917.8831	1063.05	176.85
1018.6819	2918.9931	1066.35	180.35
1018.797	2920.1024	1061.05	175.2
1018.9121	2921.211	1054.05	170.15
1019.0271	2922.319	1053.7	167
1019.1421	2923.4264	1050.45	166.5
1019.2571	2924.5331	1048.95	164.3
1019.372	2925.6391	1050.95	166.85
1019.4869	2926.7445	1055.1	172.05
1019.6017	2927.8493	1052.1	168.85
1019.7165	2928.9534	1052.7	166.8
1019.8313	2930.0569	1056.05	168.2
1019.946	2931.1597	1059.75	172.55
1020.0606	2932.2619	1055.75	171.4
1020.1753	2933.3634	1058.6	173.35
1020.2899	2934.4643	1065.1	173.25
1020.4044	2935.5645	1065.35	174.1
1020.5189	2936.6641	1065.55	175.6
1020.6334	2937.763	1058.85	176.4
1020.7478	2938.8613	1060.05	175.05
1020.8622	2939.959	1063.15	173.45
1020.9765	2941.056	1054.35	171.85
1021.0908	2942.1523	1053.2	166.4
1021.2051	2943.248	1045.5	160.55
1021.3193	2944.3431	1039.1	153.35
1021.4334	2945.4375	1035.2	150.8
1021.5476	2946.5313	1026.65	142.35
1021.6617	2947.6244	1017.75	133.65
1021.7757	2948.7169	1013.75	128.8
1021.8897	2949.8087	1007.6	121.7
1022.0037	2950.8999	1001.45	115.55
1022.1176	2951.9904	994.1	110.3
1022.2315	2953.0803	993.95	109.85
1022.3453	2954.1696	990.1	107.9
1022.4591	2955.2582	985.8	102.25
1022.5728	2956.3462	983.4	98.55
1022.6865	2957.4335	984.3	98.6
1022.8002	2958.5202	981.65	94.35
1022.9138	2959.6062	983.25	99.25
1023.0274	2960.6916	984.15	99.95
1023.141	2961.7764	982.8	97.25
1023.2545	2962.8605	981.05	95.95
1023.3679	2963.9439	981.3	97.2
1023.4813	2965.0267	977.45	91.4
1023.5947	2966.1089	1004	96.55
1023.708	2967.1905	978	92.45
1023.8213	2968.2714	976.8	94.2
1023.9346	2969.3516	976.9	92
1024.0478	2970.4312	981.9	90.85
1024.1609	2971.5102	978.45	94.5
1024.274	2972.5885	974.65	90
1024.3871	2973.6662	982.95	90.15
1024.5002	2974.7432	977.35	92.5
1024.6132	2975.8196	977.45	92.9
1024.7261	2976.8954	975.9	92.75
1024.839	2977.9705	974.6	89
1024.9519	2979.045	975.3	91.05
1025.0647	2980.1188	975.05	89.25
1025.1775	2981.192	971	88.75
1025.2902	2982.2645	973.25	88
1025.4029	2983.3364	973.35	87.6
1025.5156	2984.4077	969.9	84.85
1025.6282	2985.4783	971.65	82.05
1025.7407	2986.5483	966.35	82.95
1025.8532	2987.6177	962.45	79.05
1025.9657	2988.6864	962.7	77.1
1026.0782	2989.7545	958.55	73.95
1026.1906	2990.8219	958.6	76.15
1026.3029	2991.8887	958.85	72.45
1026.4152	2992.9548	955.2	70.95
1026.5275	2994.0204	950.7	66.1
1026.6397	2995.0852	947.25	65.4
1026.7519	2996.1495	945.95	61.75
1026.864	2997.2131	943.2	56.9
1026.9761	2998.276	945.65	63.95
1027.0882	2999.3383	941.75	57.7
1027.2002	3000.4	940.5	54.35
1027.3122	3001.4611	935.25	51.25
1027.4241	3002.5215	933.8	48.55
1027.536	3003.5812	931.8	48.15
1027.6478	3004.6404	935.2	50.2
1027.7596	3005.6989	932.65	44.85
1027.8714	3006.7567	931.65	46.65
1027.9831	3007.8139	954.15	49.1
1028.0947	3008.8705	929.45	45.05
1028.2064	3009.9264	931.6	43.8
1028.3179	3010.9818	928.75	45.3
1028.4295	3012.0364	926.9	42.2
1028.541	3013.0905	926.6	43.4
1028.6524	3014.1439	925.85	41
1028.7638	3015.1966	927.4	42.6
1028.8752	3016.2487	928.3	42.4
1028.9865	3017.3002	932.85	43.05
1029.0978	3018.3511	924.85	41.85
1029.209	3019.4013	924.8	41.45
1029.3202	3020.4509	922.85	39.7
1029.4314	3021.4998	922.95	40
1029.5425	3022.5481	923.55	37.4
1029.6535	3023.5958	925.2	38.65
1029.7645	3024.6428	927.45	43.2
1029.8755	3025.6892	922.8	38.4
1029.9864	3026.735	924.95	40.6
1030.0973	3027.7802	923.25	40.05
1030.2082	3028.8247	922.85	38.6
1030.319	3029.8685	923.2	37.95
1030.4297	3030.9118	925.3	39.35
1030.5404	3031.9544	920.8	37
1030.6511	3032.9963	923.65	40.8
1030.7617	3034.0376	921.85	37.3
1030.8723	3035.0783	924.9	37.65
1030.9829	3036.1184	924.6	40.7
1031.0934	3037.1578	921.75	37.55
1031.2038	3038.1966	925.2	40.5
1031.3142	3039.2348	922.65	40.95
1031.4246	3040.2723	931.55	39.55
1031.5349	3041.3092	921.95	38.4
1031.6452	3042.3455	919.4	33.75
1031.7554	3043.3811	922.05	37.4
1031.8656	3044.4161	924.8	39.3
1031.9758	3045.4505	921.3	36.55
1032.0859	3046.4842	921.35	35.15
1032.1959	3047.5173	921.5	38.05
1032.3059	3048.5498	923.35	37.8
1032.4159	3049.5816	922.8	39.9
1032.5258	3050.6128	922.75	35.9
1032.6357	3051.6434	924.2	39.45
1032.7455	3052.6734	921.95	36.95
1032.8553	3053.7027	923.05	38.95
1032.9651	3054.7314	922.55	40.9
1033.0748	3055.7594	921.4	36.45
1033.1845	3056.7868	923.85	40.05
1033.2941	3057.8136	923.6	37.85
1033.4037	3058.8398	918.95	34.65
1033.5132	3059.8653	924.65	39.15
1033.6227	3060.8902	924.9	40.05
1033.7321	3061.9145	924.35	39.3
1033.8415	3062.9381	922.75	37.85
1033.9509	3063.9612	940.25	41.35
1034.0602	3064.9835	923.3	38.15
1034.1694	3066.0053	925.25	39.15
1034.2787	3067.0264	924	42
1034.3878	3068.0469	921.8	35.5
1034.497	3069.0668	927.05	40.05
1034.6061	3070.086	922.2	37.3
1034.7151	3071.1046	922	34.55
1034.8241	3072.1226	921.7	37.4
1034.9331	3073.1399	920.5	35.85
1035.042	3074.1567	921.4	34.45
1035.1508	3075.1727	921.95	36.1
1035.2597	3076.1882	920.75	37.8
1035.3684	3077.203	922.7	39
1035.4772	3078.2173	922.9	36.4
1035.5859	3079.2308	921.3	34.85
1035.6945	3080.2438	920.6	34.35
1035.8031	3081.2561	915.15	29.7
1035.9117	3082.2678	918.6	36.1
1036.0202	3083.2789	916	33
1036.1286	3084.2893	915.75	31.6
1036.2371	3085.2991	914.7	30.85
1036.3454	3086.3083	918.75	28.45
1036.4538	3087.3169	916.5	31.8
1036.562	3088.3248	916.9	30.7
1036.6703	3089.3321	917.5	31.15
1036.7785	3090.3388	913.75	30.65
1036.8866	3091.3449	913.35	27.65
1036.9948	3092.3503	916	30.9
1037.1028	3093.3551	911.2	26.45
1037.2108	3094.3593	910.85	27.95
1037.3188	3095.3629	911.15	25.2
1037.4267	3096.3658	912.65	25.3
1037.5346	3097.3681	911.55	27.45
1037.6425	3098.3698	912.45	27.45
1037.7503	3099.3708	918.5	27.95
1037.858	3100.3713	912.15	29.1
1037.9657	3101.3711	912.8	27.65
1038.0734	3102.3702	1052.6	27.65
1038.181	3103.3688	912.7	26.2
1038.2886	3104.3667	909.3	24.15
1038.3961	3105.364	910.65	25.5
1038.5036	3106.3607	912.1	25.95
1038.611	3107.3568	909.2	24.45
1038.7184	3108.3522	907.85	22.65
1038.8257	3109.347	912.25	26.8
1038.933	3110.3412	914	24.05
1039.0403	3111.3348	909.5	25.7
1039.1475	3112.3277	908.5	25.75
1039.2547	3113.32	907.65	25.3
1039.3618	3114.3117	908.65	21.35
1039.4689	3115.3028	909.15	23.95
1039.5759	3116.2932	910.95	23.3
1039.6829	3117.2831	913.8	22.2
1039.7898	3118.2723	907.2	22.2
1039.8967	3119.2608	908.25	23.65
1040.0035	3120.2488	907.1	21.65
1040.1103	3121.2361	906.7	19.85
1040.2171	3122.2229	907.15	21.4
1040.3238	3123.209	910.3	23.85
1040.4305	3124.1944	904.15	20
1040.5371	3125.1793	907.4	22
1040.6437	3126.1635	904.55	20.65
1040.7502	3127.1471	905.55	21
1040.8567	3128.1301	904.9	21.35
1040.9631	3129.1125	903.6	18.6
1041.0695	3130.0942	905.6	22.7
1041.1759	3131.0753	915.75	22.35
1041.2822	3132.0558	907.8	20.55
1041.3884	3133.0357	907.1	24.2
1041.4946	3134.015	904.75	21
1041.6008	3134.9936	907.5	20.35
1041.7069	3135.9716	927.15	22.05
1041.813	3136.949	906.65	20.45
1041.919	3137.9258	923.15	19.4
1042.025	3138.902	908.4	17.75
1042.1309	3139.8775	902.9	20.1
1042.2368	3140.8524	902.3	18.6
1042.3427	3141.8267	905.75	19.05
1042.4485	3142.8004	904.65	22.65
1042.5542	3143.7735	912.05	20.4
1042.6599	3144.7459	904.8	19.5
1042.7656	3145.7178	902.05	15.95
1042.8712	3146.689	903.9	20.4
1042.9768	3147.6596	904.95	20.1
1043.0823	3148.6295	902.85	17.85
1043.1878	3149.5989	904.95	19.35
1043.2932	3150.5676	901.75	18.8
1043.3986	3151.5357	900.05	15.9
1043.5039	3152.5032	903.15	20.1
1043.6092	3153.4701	902.15	18.9
1043.7145	3154.4364	904.55	17.2
1043.8197	3155.402	901.85	18.65
1043.9248	3156.367	904.9	19.45
1044.03	3157.3315	939.35	18.45
1044.135	3158.2952	901.7	18
1044.24	3159.2584	901.25	17.7
1044.345	3160.221	902.3	17.85
1044.4499	3161.1829	900.55	13.7
1044.5548	3162.1442	902.45	20.2
1044.6596	3163.105	900	15.9
1044.7644	3164.065	900.8	16.95
1044.8692	3165.0245	902.6	17.5
1044.9739	3165.9834	898.3	14.55
1045.0785	3166.9416	900.25	16.75
1045.1831	3167.8993	901.1	17.5
1045.2877	3168.8563	902.1	17.5
1045.3922	3169.8127	901.3	17.75
1045.4966	3170.7684	902.75	19.5
1045.6011	3171.7236	902.1	16.8
1045.7054	3172.6782	898.6	15.9
1045.8098	3173.6321	900.1	15
1045.914	3174.5854	904.7	17.5
1046.0183	3175.5381	900.25	15.15
1046.1224	3176.4902	898.4	15.4
1046.2266	3177.4417	899	16.55
1046.3307	3178.3926	898.4	13.4
1046.4347	3179.3428	899.75	17
1046.5387	3180.2924	900.1	16.45
1046.6427	3181.2415	900.5	15.4
1046.7466	3182.1899	902.65	17.35
1046.8504	3183.1377	900.05	15.4
1046.9542	3184.0848	903.25	17.2
1047.058	3185.0314	899.55	14.7
1047.1617	3185.9773	898.9	13.65
1047.2654	3186.9227	902.1	16.05
1047.369	3187.8674	897.55	13.2
1047.4726	3188.8115	901.9	13.7
1047.5761	3189.755	898.3	14.95
1047.6796	3190.6979	898.45	13.75
1047.783	3191.6402	898.25	15.55
1047.8864	3192.5818	899.9	15.05
1047.9898	3193.5229	906.05	15
1048.0931	3194.4633	899.45	15.2
1048.1963	3195.4031	900.1	14.55
1048.2995	3196.3423	899.6	15.7
1048.4027	3197.2809	899.55	13.1
1048.5058	3198.2189	896.95	11.6
1048.6089	3199.1563	906.8	16.25
1048.7119	3200.0931	898.05	13.6
1048.8148	3201.0292	895.85	13.75
1048.9178	3201.9648	898.2	11.2
1049.0206	3202.8997	901.8	15.85
1049.1235	3203.834	897.05	11.95
1049.2262	3204.7677	895.1	12.9
1049.329	3205.7008	897.05	9.8
1049.4317	3206.6333	899.15	17.05
1049.5343	3207.5652	898.6	11.35
1049.6369	3208.4964	898.3	14.8
1049.7394	3209.4271	898.15	13.15
1049.8419	3210.3571	895.85	13.6
1049.9444	3211.2865	897.35	12.6
1050.0468	3212.2154	897.8	11.75
1050.1491	3213.1436	901	13.9
1050.2514	3214.0712	902.6	12
1050.3537	3214.9982	898.45	13.9
1050.4559	3215.9246	898.4	13.65
1050.5581	3216.8503	894.85	12.9
1050.6602	3217.7755	898.8	13.9
1050.7623	3218.7001	897.6	14.75
1050.8643	3219.624	896.75	10
1050.9663	3220.5473	896.7	15.05
1051.0682	3221.4701	897.45	10.15
1051.1701	3222.3922	898.45	12.6
1051.2719	3223.3137	897	12.7
1051.3737	3224.2346	896.1	13.1
1051.4754	3225.1549	896.35	14.15
1051.5771	3226.0746	895.1	10.25
1051.6788	3226.9937	896.35	12.05
1051.7804	3227.9121	894.05	8.8
1051.8819	3228.83	895.75	12.1
1051.9834	3229.7473	899.5	16.65
1052.0849	3230.6639	897.6	12.45
1052.1863	3231.5799	895	11.05
1052.2876	3232.4954	897.85	13.65
1052.3889	3233.4102	895.8	11.75
1052.4902	3234.3244	894.6	8.6
1052.5914	3235.238	895.45	10.65
1052.6926	3236.151	909.4	9.35
1052.7937	3237.0634	895.1	12.8
1052.8948	3237.9752	895.45	12.45
1052.9958	3238.8864	895.9	12.4
1053.0968	3239.797	894.2	9.45
1053.1977	3240.7069	895.9	11.1
1053.2986	3241.6163	897.4	11.55
1053.3994	3242.5251	896.5	13.9
1053.5002	3243.4332	892.85	10
1053.6009	3244.3408	896.2	8.9
1053.7016	3245.2477	894.7	10.45
1053.8022	3246.154	894.8	8.9
1053.9028	3247.0598	895.5	10.6
1054.0034	3247.9649	894.85	10.85
1054.1039	3248.8694	896.85	13.1
1054.2043	3249.7733	896	11.65
1054.3047	3250.6766	895.1	9.75
1054.4051	3251.5793	896.2	10.65
1054.5054	3252.4814	894.1	10.95
1054.6056	3253.3829	895.3	9.8
1054.7058	3254.2838	894	11.15
1054.806	3255.1841	893.95	10.25
1054.9061	3256.0838	892.4	6.75
1055.0061	3256.9829	892.7	10.35
1055.1062	3257.8814	895	9.75
1055.2061	3258.7792	896.65	10.2
1055.306	3259.6765	895	8.9
1055.4059	3260.5731	893.4	8.25
1055.5057	3261.4692	894.25	8.2
1055.6055	3262.3647	894.8	10.05
1055.7052	3263.2595	892.5	7.25
1055.8049	3264.1538	893.3	8.95
1055.9045	3265.0474	891.95	5.5
1056.0041	3265.9404	893.5	8.85
1056.1036	3266.8329	892	9.5
1056.2031	3267.7247	902.75	10
1056.3025	3268.616	890.15	8.2
1056.4019	3269.5066	892.5	8.85
1056.5013	3270.3966	893.6	8.35
1056.6005	3271.286	891.55	7.65
