Software Version:	3.9.2.0
Unit SN:	10000200
Spectrometer SN:	6960
Date:	3/26/2024 1:22:49 PM
Data Line Index:	25
Spectral Points:	2048
Integration time (ms):	125
Averages:	20
Delay (ms):	30000
Sequence Number:	1
Processing:	dark subtract
Laser Power (mW):	300
Laser Current (mA):	822
Laser Diode Temp (C):	25.1
Laser Case Temp (C):	26.6
System Temp (C):	26.6
Spectrometer Temp (C):	24.3
CCD Temp (C):	0.008
Secondary Temp (C):	20.007
Heatsink Temp (C):	22.023
CCDPCB Temp (C):	36.462
SecondaryPCB Temp (C):	33.228

Wavelength	RamanShift	Raw Counts	Dark Subtracted
787.061	30.1047	456.2	46
787.2016	32.3739	456.85	47.45
787.3422	34.6426	459	48.25
787.4828	36.9109	467.3	54.4
787.6235	39.1787	475.4	59.2
787.7642	41.4461	481.75	60.65
787.9049	43.7131	489.35	66.3
788.0456	45.9796	496.5	68.35
788.1863	48.2456	501.8	70.5
788.3271	50.5112	512.7	74.9
788.4679	52.7764	521.4	84.75
788.6087	55.0411	525.85	87.25
788.7496	57.3054	535.8	89.7
788.8904	59.5692	544.6	97.9
789.0313	61.8326	555.75	103.9
789.1722	64.0955	568.55	113.45
789.3132	66.3579	583.1	122.35
789.4541	68.6199	600.6	137.8
789.5951	70.8815	621.6	157.05
789.7361	73.1426	670.25	201.85
789.8771	75.4032	797.1	321.45
790.0181	77.6634	1105.95	625.75
790.1592	79.9231	1848.75	1366.3
790.3003	82.1824	3448.85	2960.1
790.4414	84.4412	6325.3	5832.1
790.5825	86.6995	10411.8	9907.35
790.7237	88.9574	14544.05	14035.5
790.8648	91.2148	17650.15	17133.9
791.006	93.4717	19400.2	18878.45
791.1472	95.7282	20144	19621.75
791.2885	97.9842	20511.25	19984.85
791.4297	100.2398	20593.45	20065.6
791.571	102.4949	20619	20084.85
791.7123	104.7495	20513.5	19974.9
791.8536	107.0036	20499.9	19963.85
791.9949	109.2573	20463.8	19926.5
792.1363	111.5105	20375.75	19837.15
792.2777	113.7632	20303.5	19762.75
792.4191	116.0154	20345.75	19793.4
792.5605	118.2672	20371	19825.4
792.7019	120.5185	20377.45	19832.5
792.8434	122.7693	20364.65	19818.2
792.9849	125.0197	20384.35	19833.5
793.1264	127.2696	20339.8	19787.85
793.2679	129.519	20377.25	19822
793.4094	131.7679	20395.35	19834.6
793.551	134.0163	20435.1	19869.05
793.6926	136.2642	20438.25	19870.2
793.8342	138.5117	20410.8	19833.8
793.9758	140.7587	20362	19788.65
794.1175	143.0052	20355.25	19780.35
794.2591	145.2512	20297.05	19723.45
794.4008	147.4967	20254.15	19679.5
794.5425	149.7417	20200.45	19623.05
794.6842	151.9863	20171	19589.8
794.826	154.2304	20157.7	19572.25
794.9677	156.4739	20066.55	19476
795.1095	158.717	20079.05	19485.95
795.2513	160.9596	20067.8	19471.6
795.3931	163.2017	20014.2	19416.35
795.535	165.4433	19959.55	19360.45
795.6768	167.6844	19893.2	19290.65
795.8187	169.925	19892.05	19287.3
795.9606	172.1651	19793.5	19184.1
796.1025	174.4047	19797.65	19185.55
796.2445	176.6439	19755.95	19140.05
796.3864	178.8825	19715.45	19097.95
796.5284	181.1206	19707.25	19086.6
796.6704	183.3582	19718	19095.05
796.8124	185.5954	19673.05	19047.35
796.9544	187.832	19641.35	19012.1
797.0965	190.0681	19659.15	19027.55
797.2386	192.3037	19670.1	19034.85
797.3806	194.5388	19663.4	19023.4
797.5228	196.7734	19678.1	19034.95
797.6649	199.0075	19673.45	19028.7
797.807	201.2411	19739.5	19092.9
797.9492	203.4742	19739.35	19092.8
798.0914	205.7068	19822.45	19173.45
798.2336	207.9389	19797.45	19147.25
798.3758	210.1704	19831.7	19179.9
798.518	212.4015	19795.7	19140.4
798.6603	214.632	19809.6	19155.4
798.8025	216.862	19800.15	19154.5
798.9448	219.0915	19758.4	19114.8
799.0871	221.3205	19758.85	19119
799.2294	223.549	19806.65	19171.5
799.3718	225.777	19782.1	19145.7
799.5141	228.0044	19805.45	19167.7
799.6565	230.2314	19818.8	19182.05
799.7989	232.4578	19790.1	19153
799.9413	234.6837	19782.1	19136.05
800.0837	236.909	19771.75	19125.55
800.2262	239.1339	19748.6	19077.2
800.3687	241.3582	19763.5	19104.9
800.5111	243.582	19731.45	19044.1
800.6536	245.8053	19730.5	19054.95
800.7961	248.0281	19701.4	19032.05
800.9387	250.2503	19682.1	19007.1
801.0812	252.472	19707.6	19027.35
801.2238	254.6932	19707	19024.9
801.3664	256.9139	19653.05	18966.85
801.509	259.134	19649.5	18960.65
801.6516	261.3536	19645.05	18959.7
801.7942	263.5727	19680.4	18991.35
801.9369	265.7912	19632.45	18945.2
802.0795	268.0092	19637.05	18950.3
802.2222	270.2267	19640	18951.3
802.3649	272.4436	19612.75	18921.9
802.5076	274.6601	19610.7	18911.8
802.6504	276.8759	19591.25	18897
802.7931	279.0913	19633.95	18934.85
802.9359	281.3061	19577.75	18877.9
803.0787	283.5204	19609.8	18910.55
803.2215	285.7341	19648.55	18945.15
803.3643	287.9473	19656.55	18942.5
803.5071	290.16	19589.1	18877.35
803.6499	292.3721	19536.15	18829
803.7928	294.5837	19516.95	18810.95
803.9357	296.7947	19475.9	18770.3
804.0786	299.0052	19462.95	18755
804.2215	301.2152	19437.15	18725.8
804.3644	303.4246	19439.65	18730.7
804.5074	305.6334	19363.55	18657.8
804.6503	307.8418	19310.75	18600.75
804.7933	310.0495	19267.55	18554.95
804.9363	312.2568	19213.4	18502.75
805.0793	314.4635	19100	18385.95
805.2223	316.6696	19049.3	18332.85
805.3653	318.8752	18985.15	18260.9
805.5084	321.0802	18923.8	18206.35
805.6514	323.2847	18899.75	18180.9
805.7945	325.4887	18869.7	18151.2
805.9376	327.692	18836.5	18116.9
806.0807	329.8949	18884.45	18161.75
806.2238	332.0972	18855.05	18134.05
806.367	334.2989	18826.95	18098.4
806.5101	336.5001	18783.15	18057.4
806.6533	338.7007	18746.6	18019.55
806.7965	340.9008	18761.25	18029.35
806.9397	343.1003	18698.5	17967.7
807.0829	345.2992	18661.35	17926.6
807.2261	347.4976	18633.9	17900.25
807.3693	349.6955	18606.45	17868.9
807.5126	351.8927	18652.8	17913.25
807.6559	354.0895	18535.5	17785.5
807.7991	356.2856	18583.7	17843.25
807.9424	358.4812	18503.6	17763
808.0857	360.6763	18506.05	17765.75
808.2291	362.8707	18474.5	17730.95
808.3724	365.0646	18487.65	17742
808.5158	367.258	18457.9	17710
808.6591	369.4508	18369.9	17616.15
808.8025	371.643	18394.8	17643.7
808.9459	373.8346	18325.85	17573.85
809.0893	376.0257	18292.85	17534.5
809.2327	378.2162	18308.2	17550.55
809.3762	380.4062	18290.25	17531.7
809.5196	382.5956	18197.3	17436.55
809.6631	384.7844	18192.35	17431.6
809.8066	386.9726	18109.25	17349.15
809.9501	389.1603	18038	17280.65
810.0936	391.3474	18060.8	17267.1
810.2371	393.5339	18035	17273.7
810.3806	395.7199	17914.25	17159.55
810.5241	397.9052	17924.3	17174.7
810.6677	400.09	17933.4	17180.4
810.8113	402.2743	17910.25	17156.65
810.9548	404.4579	17871.45	17117.25
811.0984	406.641	17920.9	17167.1
811.2421	408.8235	17904.8	17151.35
811.3857	411.0054	17950.85	17192.5
811.5293	413.1868	18011.6	17251.85
811.673	415.3675	18044.4	17282
811.8166	417.5477	18019.75	17258.05
811.9603	419.7273	17937.9	17170.8
812.104	421.9064	17824.8	17052.2
812.2477	424.0848	17755.8	16985.55
812.3914	426.2627	17683.7	16911.4
812.5351	428.4399	17661.25	16886.3
812.6788	430.6166	17575.55	16799.8
812.8226	432.7928	17511.55	16735.1
812.9663	434.9683	17460.6	16685.95
813.1101	437.1432	17406.6	16627.2
813.2539	439.3176	17308.05	16529.2
813.3977	441.4914	17240.1	16458.6
813.5415	443.6645	17224.8	16441
813.6853	445.8371	17194.95	16411.3
813.8291	448.0091	17122.25	16338.5
813.973	450.1806	17030.85	16247.3
814.1168	452.3514	17004.45	16218.3
814.2607	454.5216	16982.75	16192.35
814.4046	456.6913	16891.3	16103.1
814.5485	458.8603	16866.8	16082.6
814.6924	461.0288	16918.45	16133.65
814.8363	463.1967	16819.45	16031.35
814.9802	465.3639	16852.3	16064.95
815.1241	467.5306	16795.5	16006.3
815.2681	469.6967	16799.15	16010.15
815.412	471.8622	16737.25	15948.25
815.556	474.0271	16702.85	15913.8
815.7	476.1914	16704.9	15911.6
815.844	478.3551	16682.5	15894
815.988	480.5182	16691.7	15900.1
816.132	482.6807	16700.2	15908.25
816.276	484.8426	16705.3	15917.5
816.4201	487.0039	16743.8	15952.75
816.5641	489.1647	16788.5	15992.1
816.7082	491.3248	16815.15	16019.9
816.8522	493.4843	16771.75	15978
816.9963	495.6432	16742.25	15946.75
817.1404	497.8015	16663.8	15864.7
817.2845	499.9592	16674.1	15877.05
817.4286	502.1163	16653.7	15855
817.5727	504.2728	16567.15	15768.45
817.7168	506.4287	16561.95	15762.6
817.861	508.5839	16532.1	15735.05
818.0051	510.7386	16513.1	15713
818.1493	512.8927	16538.4	15732.7
818.2935	515.0461	16507.05	15706.95
818.4377	517.199	16475.35	15674
818.5818	519.3512	16473	15671.8
818.726	521.5029	16508.65	15699.8
818.8703	523.6539	16493.4	15688.1
819.0145	525.8043	16496.45	15691.55
819.1587	527.9541	16471.05	15666
819.303	530.1033	16406.2	15599.85
819.4472	532.2519	16368.7	15562.8
819.5915	534.3999	16380.65	15571.5
819.7357	536.5472	16348.8	15543.15
819.88	538.694	16318.35	15508.95
820.0243	540.8401	16359.25	15549.25
820.1686	542.9856	16347.3	15535.9
820.3129	545.1305	16330.3	15516.5
820.4572	547.2748	16354.8	15542.95
820.6016	549.4185	16337.9	15523.05
820.7459	551.5615	16284.95	15470.45
820.8902	553.704	16315.1	15499.6
821.0346	555.8458	16267.35	15453.35
821.1789	557.987	16281.25	15468.7
821.3233	560.1276	16253.9	15438.35
821.4677	562.2675	16307.1	15493.8
821.6121	564.4069	16287	15471.25
821.7565	566.5456	16257.4	15443.3
821.9009	568.6837	16267.6	15453.6
822.0453	570.8212	16190.15	15375.85
822.1897	572.958	16123.05	15306.95
822.3342	575.0942	16082.5	15268.75
822.4786	577.2299	16011.15	15196.85
822.6231	579.3648	15966.25	15153.7
822.7675	581.4992	15852.55	15040.8
822.912	583.6329	15854.15	15039.5
823.0565	585.766	15829.3	15016
823.201	587.8985	15780.3	14966.1
823.3454	590.0304	15774.7	14945.1
823.4899	592.1616	15727.15	14906.55
823.6345	594.2922	15757.1	14938.35
823.779	596.4222	15698.8	14876.8
823.9235	598.5515	15640.1	14817.85
824.068	600.6802	15577.05	14756.35
824.2126	602.8083	15487.6	14665.1
824.3571	604.9358	15459.2	14634.7
824.5017	607.0626	15452.65	14630.6
824.6462	609.1888	15446.7	14620.9
824.7908	611.3144	15460.05	14633.4
824.9354	613.4393	15409.25	14583.6
825.08	615.5636	15426.4	14602.2
825.2246	617.6873	15449.4	14624.2
825.3692	619.8103	15459.05	14630
825.5138	621.9327	15424.4	14596.15
825.6584	624.0544	15379.4	14553.65
825.803	626.1756	15359.3	14534.4
825.9477	628.2961	15305.4	14478.25
826.0923	630.4159	15272.1	14443.95
826.237	632.5351	15293.5	14464.75
826.3816	634.6537	15247.5	14419.45
826.5263	636.7716	15269.65	14438.9
826.6709	638.8889	15229.05	14397.95
826.8156	641.0056	15258.45	14427.35
826.9603	643.1216	15217.15	14386.1
827.105	645.237	15248.55	14416.45
827.2497	647.3518	15196.25	14364.5
827.3944	649.4659	15196.65	14366.45
827.5391	651.5793	15131.25	14301.45
827.6838	653.6922	15096.7	14264.6
827.8285	655.8043	15063.45	14228.6
827.9733	657.9159	15077.1	14244.35
828.118	660.0268	15041.35	14204.75
828.2627	662.137	14985.6	14150.7
828.4075	664.2466	15001.45	14164.3
828.5522	666.3556	14989.95	14154.2
828.697	668.4639	14928.65	14090.2
828.8418	670.5716	14932.35	14098.2
828.9865	672.6786	14955.45	14119.2
829.1313	674.785	14912.5	14072.9
829.2761	676.8907	14858.9	14022.05
829.4209	678.9958	14847.1	14011.6
829.5657	681.1002	14780	13942.3
829.7105	683.204	14762.15	13921.2
829.8553	685.3072	14751.35	13912.15
830.0001	687.4097	14743.8	13906.35
830.1449	689.5115	14730.75	13892.35
830.2898	691.6127	14731.4	13891.6
830.4346	693.7132	14681.85	13840.6
830.5794	695.8131	14726.35	13860.6
830.7243	697.9123	14708.2	13866.1
830.8691	700.0109	14666.45	13823.2
831.014	702.1089	14620.95	13777.35
831.1588	704.2061	14603.6	13761.45
831.3037	706.3028	14601.6	13758.1
831.4486	708.3987	14630.2	13788.4
831.5935	710.4941	14580.9	13738.85
831.7383	712.5887	14585	13738.9
831.8832	714.6827	14576	13726.45
832.0281	716.7761	14525.45	13682.5
832.173	718.8688	14545.55	13701.7
832.3179	720.9608	14537.85	13689.1
832.4628	723.0522	14573.25	13726.95
832.6077	725.1429	14524.8	13681.45
832.7527	727.233	14501.45	13655.35
832.8976	729.3224	14537.45	13691.7
833.0425	731.4112	14510.7	13662.7
833.1874	733.4993	14471.4	13621.8
833.3324	735.5867	14404.35	13556.25
833.4773	737.6735	14365.65	13513.95
833.6222	739.7596	14325.7	13476.9
833.7672	741.845	14299.55	13451.75
833.9122	743.9298	14224.35	13374.4
834.0571	746.014	14233.45	13384.5
834.2021	748.0974	14237.4	13387.45
834.347	750.1802	14209.9	13360.65
834.492	752.2624	14158.15	13308.3
834.637	754.3439	14099.2	13246.95
834.782	756.4247	14050.85	13191.3
834.9269	758.5048	14027.8	13176.25
835.0719	760.5843	14001.7	13150.45
835.2169	762.6631	13915.45	13063.9
835.3619	764.7413	13936.3	13084.85
835.5069	766.8188	14012.8	13158.9
835.6519	768.8956	13980.5	13127.25
835.7969	770.9718	14002.25	13149.75
835.9419	773.0473	13957.25	13104.05
836.0869	775.1221	13928.5	13074.2
836.232	777.1962	13851.3	12999.35
836.377	779.2697	13824.75	12969.15
836.522	781.3426	13832.05	12959.35
836.667	783.4147	13799.15	12944.3
836.8121	785.4862	13802.25	12948.85
836.9571	787.557	13739.05	12882.1
837.1021	789.6271	13656.55	12801.75
837.2472	791.6966	13571.45	12716.95
837.3922	793.7654	13491.5	12637.05
837.5373	795.8335	13446.1	12589.8
837.6823	797.901	13391.3	12535.3
837.8274	799.9678	13364.9	12509.3
837.9724	802.0339	13313.6	12459
838.1175	804.0993	13337.5	12472.75
838.2626	806.1641	13269.65	12410.6
838.4076	808.2282	13235.8	12380
838.5527	810.2916	13223.65	12361.95
838.6978	812.3544	13205.05	12349.6
838.8428	814.4164	13160.95	12305
838.9879	816.4778	13147.25	12289.5
839.133	818.5385	13124.75	12266.6
839.2781	820.5986	13104.8	12245.5
839.4232	822.658	13106.95	12246.9
839.5682	824.7166	13105.25	12249.65
839.7133	826.7747	13140.2	12282.15
839.8584	828.832	13145.9	12286.7
840.0035	830.8886	13127.2	12266.2
840.1486	832.9446	13102.55	12244.4
840.2937	834.9999	13034.25	12178.25
840.4388	837.0545	13014.75	12152.2
840.5839	839.1085	12960	12099.85
840.729	841.1618	12905.8	12044.2
840.8741	843.2143	12871.45	12011.05
841.0192	845.2662	12791.4	11930.4
841.1643	847.3175	12767.9	11908.7
841.3095	849.368	12718.6	11858.5
841.4546	851.4179	12714.2	11853.85
841.5997	853.467	12634	11772.5
841.7448	855.5155	12609.8	11750.5
841.8899	857.5633	12601.7	11742
842.0351	859.6105	12556.5	11696.25
842.1802	861.6569	12518.85	11654.45
842.3253	863.7027	12476.6	11613.5
842.4704	865.7478	12465.95	11601.7
842.6156	867.7922	12409.7	11547.35
842.7607	869.8359	12394.6	11533.15
842.9058	871.8789	12382.9	11519.8
843.0509	873.9212	12385.7	11492.55
843.1961	875.9629	12313.95	11450.6
843.3412	878.0039	12307.35	11443.3
843.4863	880.0441	12310.95	11447.35
843.6315	882.0837	12293.75	11431.8
843.7766	884.1226	12261.1	11396.1
843.9218	886.1609	12249.45	11386.65
844.0669	888.1984	12271.8	11408.7
844.212	890.2352	12290.65	11427.55
844.3572	892.2714	12239.8	11372.1
844.5023	894.3069	12224.3	11357.4
844.6475	896.3416	12145.15	11280.6
844.7926	898.3757	12110	11245.45
844.9377	900.4091	12065.35	11199.65
845.0829	902.4418	12019.45	11149
845.228	904.4739	11971.65	11101.75
845.3732	906.5052	12005.8	11139.65
845.5183	908.5358	11947.15	11079.6
845.6635	910.5658	11890.85	11021.6
845.8086	912.595	11872.85	11007.45
845.9538	914.6236	11805.25	10938.85
846.0989	916.6515	11784	10919.1
846.2441	918.6786	11737.6	10871.3
846.3892	920.7051	11708.8	10841.1
846.5344	922.7309	11693.55	10826.05
846.6795	924.756	11600.4	10731.4
846.8246	926.7804	11618.1	10749.95
846.9698	928.8041	11509	10640.15
847.1149	930.8272	11524.65	10656.8
847.2601	932.8495	11468	10600.05
847.4052	934.8711	11438.95	10569.1
847.5504	936.892	11393.5	10524.05
847.6955	938.9123	11360.05	10490.85
847.8407	940.9318	11350.1	10480.1
847.9858	942.9506	11303.9	10433.3
848.131	944.9688	11260.5	10390.15
848.2761	946.9862	11220.55	10352.8
848.4213	949.003	11167.25	10299.2
848.5664	951.019	11104.4	10235.5
848.7115	953.0344	11068.45	10199.05
848.8567	955.0491	11012.85	10142.95
849.0018	957.063	11023.9	10152.5
849.147	959.0763	11005	10130.3
849.2921	961.0888	10984.35	10111.1
849.4373	963.1007	10953.65	10083.8
849.5824	965.1119	10937	10067.3
849.7275	967.1223	10905.7	10035.4
849.8727	969.1321	10848.85	9980.45
850.0178	971.1412	10842.4	9974.7
850.1629	973.1495	10793.05	9922.95
850.3081	975.1572	10785.25	9883.85
850.4532	977.1641	10764.75	9893
850.5983	979.1704	10705	9833.45
850.7435	981.1759	10653.95	9779.85
850.8886	983.1808	10653.2	9781.05
851.0337	985.1849	10607	9731.7
851.1788	987.1884	10561	9688.05
851.324	989.1911	10515.7	9642.5
851.4691	991.1932	10515.45	9641.15
851.6142	993.1945	10448.75	9575.3
851.7593	995.1951	10385.15	9512.15
851.9045	997.1951	10398.95	9521.85
852.0496	999.1943	10336.9	9467.1
852.1947	1001.1928	10290	9416.5
852.3398	1003.1906	10218.95	9348.55
852.4849	1005.1877	10213.05	9338.75
852.63	1007.1841	10207.85	9331.7
852.7751	1009.1798	10152.8	9281.85
852.9202	1011.1748	10097.1	9223.1
853.0653	1013.1691	10055.6	9181.4
853.2104	1015.1627	10004	9130.75
853.3555	1017.1556	9919.55	9045.35
853.5006	1019.1477	9872.35	8998.5
853.6457	1021.1392	9817.55	8946.7
853.7908	1023.1299	9756.05	8883.95
853.9359	1025.12	9728.45	8851.3
854.081	1027.1093	9688.2	8819.2
854.2261	1029.0979	9626.2	8758.45
854.3712	1031.0859	9619.6	8749.55
854.5163	1033.0731	9563.5	8690.2
854.6613	1035.0596	9537.7	8665.45
854.8064	1037.0454	9482.25	8607.55
854.9515	1039.0304	9452.35	8578.7
855.0965	1041.0148	9399.95	8527.9
855.2416	1042.9985	9355.15	8478.75
855.3867	1044.9814	9327.95	8455.8
855.5317	1046.9636	9286.05	8408.85
855.6768	1048.9452	9241.7	8366.2
855.8219	1050.926	9224.45	8350.5
855.9669	1052.9061	9177.95	8304.4
856.112	1054.8855	9124.35	8249.8
856.257	1056.8642	9118.95	8246.1
856.4021	1058.8421	9119.8	8241.3
856.5471	1060.8194	9074.85	8200.35
856.6921	1062.7959	9040.95	8166.8
856.8372	1064.7717	9022.95	8146.3
856.9822	1066.7469	8986.6	8109.55
857.1272	1068.7213	8946	8068.05
857.2723	1070.695	8946.9	8072.3
857.4173	1072.6679	8899.9	8022.1
857.5623	1074.6402	8888.9	8012.85
857.7073	1076.6117	8883.5	8001.65
857.8523	1078.5826	8853.95	7976.2
857.9973	1080.5527	8775.6	7898.15
858.1423	1082.5221	8738.05	7860.8
858.2873	1084.4908	8701.45	7823.7
858.4323	1086.4587	8688.8	7813.35
858.5773	1088.426	8625.45	7748.25
858.7223	1090.3925	8593.05	7713.15
858.8673	1092.3584	8581.05	7706.3
859.0123	1094.3235	8515.7	7640.1
859.1573	1096.2879	8493.5	7615.4
859.3022	1098.2515	8481.15	7606.3
859.4472	1100.2145	8494.9	7619.1
859.5922	1102.1767	8485.25	7606.9
859.7371	1104.1382	8451.95	7574.35
859.8821	1106.099	8445.2	7566.25
860.027	1108.0591	8452.5	7574.35
860.172	1110.0185	8422.9	7544.55
860.3169	1111.9771	8428.95	7550.85
860.4619	1113.9351	8387.15	7511.5
860.6068	1115.8923	8358.25	7480.25
860.7517	1117.8488	8365.25	7484.35
860.8967	1119.8045	8289.95	7412.95
861.0416	1121.7596	8224.35	7345.45
861.1865	1123.7139	8150.2	7273.1
861.3314	1125.6675	8115.3	7239.1
861.4763	1127.6204	8112.5	7237.05
861.6212	1129.5726	8065.15	7184.15
861.7661	1131.524	8064.5	7187.65
861.911	1133.4748	8005.75	7128.75
862.0559	1135.4248	7942.1	7062.75
862.2008	1137.3741	7893.75	7017.05
862.3457	1139.3226	7867.65	6987.9
862.4905	1141.2705	7864.5	6984.25
862.6354	1143.2176	7804.15	6918.55
862.7803	1145.164	7775.5	6894.25
862.9251	1147.1097	7753.3	6873.6
863.07	1149.0546	7737.65	6856.55
863.2148	1150.9989	7719.05	6839.65
863.3597	1152.9424	7669.15	6789.5
863.5045	1154.8852	7633.25	6754.1
863.6493	1156.8272	7629.5	6751.9
863.7942	1158.7686	7595.85	6709.8
863.939	1160.7092	7558.4	6678.25
864.0838	1162.6491	7540.35	6657.75
864.2286	1164.5883	7515.9	6638
864.3734	1166.5267	7518.4	6637.6
864.5182	1168.4644	7524.8	6644.6
864.663	1170.4014	7494.25	6610.5
864.8078	1172.3377	7527.3	6650.9
864.9526	1174.2732	7503.75	6625.95
865.0974	1176.2081	7541.45	6663
865.2421	1178.1421	7571.25	6687.7
865.3869	1180.0755	7598.7	6721
865.5317	1182.0082	7617.5	6739.7
865.6764	1183.9401	7591.25	6713.15
865.8212	1185.8713	7537.85	6658.1
865.9659	1187.8017	7466	6587
866.1106	1189.7315	7405.6	6529.1
866.2554	1191.6605	7303.55	6425.5
866.4001	1193.5888	7231.1	6352.05
866.5448	1195.5163	7194.65	6317.25
866.6895	1197.4432	7167	6287.75
866.8342	1199.3693	7120.55	6242.6
866.9789	1201.2947	7087.35	6205.55
867.1236	1203.2193	7036.9	6158.2
867.2683	1205.1432	7009.8	6129.85
867.413	1207.0664	6977.4	6094.7
867.5576	1208.9889	6967.1	6082.55
867.7023	1210.9106	6936.25	6056.8
867.847	1212.8316	6900.6	6021.05
867.9916	1214.7519	6894.5	6005.1
868.1363	1216.6715	6857.65	5979
868.2809	1218.5903	6843.05	5964.5
868.4255	1220.5084	6842.85	5963.7
868.5701	1222.4257	6820.45	5940.4
868.7148	1224.3424	6785.5	5905.75
868.8594	1226.2583	6776.1	5891.1
869.004	1228.1735	6770.95	5888.15
869.1486	1230.0879	6759.25	5880.9
869.2932	1232.0016	6754.5	5873.2
869.4377	1233.9146	6740.9	5858.05
869.5823	1235.8269	6723.85	5842.55
869.7269	1237.7384	6725.55	5843.75
869.8715	1239.6492	6671.35	5792
870.016	1241.5592	6669.25	5788.55
870.1606	1243.4686	6662.6	5781.6
870.3051	1245.3772	6673.5	5792.95
870.4496	1247.285	6673.4	5792.2
870.5941	1249.1922	6676.1	5795.25
870.7387	1251.0986	6722.75	5843.35
870.8832	1253.0042	6685.55	5804.4
871.0277	1254.9092	6724.3	5843.25
871.1722	1256.8134	6742.55	5862.9
871.3167	1258.7169	6763.7	5880
871.4611	1260.6196	6749.35	5868.15
871.6056	1262.5216	6743.35	5860.35
871.7501	1264.4229	6726.15	5847.45
871.8945	1266.3234	6724.9	5844.7
872.039	1268.2232	6689.85	5806.45
872.1834	1270.1223	6643.15	5761.05
872.3278	1272.0207	6647.8	5765.55
872.4723	1273.9183	6607.8	5719
872.6167	1275.8151	6570.3	5687.4
872.7611	1277.7113	6614.2	5732.55
872.9055	1279.6067	6571.8	5690.25
873.0499	1281.5014	6612.45	5730.1
873.1943	1283.3953	6698.35	5812.65
873.3386	1285.2885	6765.35	5885.25
873.483	1287.181	6820.4	5937.45
873.6274	1289.0727	6884.2	6004.85
873.7717	1290.9637	6872.4	5989.65
873.9161	1292.854	6842.85	5961.2
874.0604	1294.7435	6786.65	5904.6
874.2047	1296.6323	6742.65	5860.15
874.349	1298.5204	6700.3	5814.4
874.4933	1300.4077	6648	5765.9
874.6376	1302.2943	6600.3	5717.55
874.7819	1304.1802	6550.35	5668.35
874.9262	1306.0653	6503.5	5619.7
875.0705	1307.9497	6462.5	5578.75
875.2147	1309.8333	6402.7	5522.6
875.359	1311.7162	6363.55	5481.4
875.5032	1313.5984	6313.45	5429.4
875.6475	1315.4798	6307.1	5405.05
875.7917	1317.3605	6290.35	5400.15
875.9359	1319.2405	6256.15	5372.4
876.0801	1321.1197	6227.25	5343.05
876.2243	1322.9982	6178.2	5291.75
876.3685	1324.876	6148.1	5266
876.5127	1326.753	6088.4	5205.65
876.6569	1328.6293	6041.85	5157.7
876.801	1330.5048	5990.15	5104.7
876.9452	1332.3796	5942.45	5061.5
877.0893	1334.2537	5913.2	5006.9
877.2335	1336.127	5866.9	4984
877.3776	1337.9996	5850	4966.75
877.5217	1339.8714	5832.15	4950.6
877.6658	1341.7426	5851.65	4924.5
877.8099	1343.6129	5806.7	4923.2
877.954	1345.4826	5772.5	4887.7
878.0981	1347.3515	5771.05	4886.6
878.2422	1349.2196	5738.15	4853.4
878.3862	1351.087	5712.35	4828.95
878.5303	1352.9537	5728.75	4843.6
878.6743	1354.8197	5718.95	4836.6
878.8184	1356.6849	5729.45	4849.75
878.9624	1358.5493	5699.05	4816.25
879.1064	1360.4131	5721.1	4839.75
879.2504	1362.276	5699.65	4816.6
879.3944	1364.1383	5703.9	4822.95
879.5384	1365.9998	5696.65	4807.85
879.6823	1367.8606	5679.1	4793.3
879.8263	1369.7206	5632.05	4749
879.9702	1371.5799	5602.75	4717
880.1142	1373.4384	5589	4705.1
880.2581	1375.2962	5557.2	4671.8
880.402	1377.1533	5510.1	4626.15
880.5459	1379.0096	5464.1	4580.65
880.6898	1380.8652	5415.25	4531.65
880.8337	1382.7201	5387.2	4505.8
880.9776	1384.5742	5329.9	4446.65
881.1215	1386.4275	5302.75	4420.95
881.2653	1388.2802	5259.95	4376.45
881.4092	1390.132	5242.95	4358.4
881.553	1391.9832	5229.45	4344.65
881.6968	1393.8336	5183.55	4299.45
881.8406	1395.6832	5184.15	4298.2
881.9844	1397.5322	5159.15	4276.3
882.1282	1399.3803	5120.55	4233.2
882.272	1401.2278	5093.6	4208.85
882.4158	1403.0745	5078.85	4195.1
882.5595	1404.9204	5048.55	4167.2
882.7033	1406.7656	5056.95	4174.55
882.847	1408.6101	5030.05	4145.25
882.9908	1410.4538	5003.2	4117
883.1345	1412.2968	4986.9	4102.65
883.2782	1414.139	4985.95	4102.5
883.4219	1415.9805	4971.35	4089.9
883.5656	1417.8213	4958.15	4054.5
883.7092	1419.6613	4958	4075.15
883.8529	1421.5006	4944.7	4062.1
883.9965	1423.3391	4954.2	4069.05
884.1402	1425.1769	4949.8	4067.15
884.2838	1427.0139	4981.2	4096.85
884.4274	1428.8502	5021.35	4136.5
884.571	1430.6858	5054.7	4171.65
884.7146	1432.5206	5040.9	4156.85
884.8582	1434.3547	5038.75	4154.3
885.0018	1436.188	5036.5	4154.2
885.1453	1438.0206	5016.25	4131.35
885.2889	1439.8524	4992.8	4111.55
885.4324	1441.6835	4970.8	4087.9
885.5759	1443.5139	4976.75	4087.85
885.7194	1445.3435	4932.85	4049.05
885.8629	1447.1724	4938.5	4054.95
886.0064	1449.0005	4934.95	4052.05
886.1499	1450.8279	4891.4	4005.25
886.2933	1452.6545	4911.25	4028.05
886.4368	1454.4804	4903.8	4021.3
886.5802	1456.3056	4870.9	3981.1
886.7237	1458.13	4862.85	3978.2
886.8671	1459.9536	4850.4	3965.1
887.0105	1461.7766	4807.65	3924.75
887.1539	1463.5987	4784.55	3900.15
887.2972	1465.4202	4737.35	3854.85
887.4406	1467.2409	4686.8	3802.2
887.584	1469.0608	4655.75	3770.75
887.7273	1470.88	4612.95	3728.6
887.8706	1472.6984	4599.9	3716.5
888.0139	1474.5161	4594.5	3708.15
888.1572	1476.3331	4542.95	3661.85
888.3005	1478.1493	4536.8	3651.55
888.4438	1479.9648	4511.3	3626.65
888.5871	1481.7795	4490.65	3607.55
888.7303	1483.5935	4501.4	3618
888.8736	1485.4067	4459.1	3575.25
889.0168	1487.2192	4464.85	3579.3
889.16	1489.031	4454.9	3568.5
889.3032	1490.842	4445.55	3563.05
889.4464	1492.6522	4447.55	3564.5
889.5896	1494.4618	4415.85	3532.05
889.7327	1496.2705	4405.6	3522.1
889.8759	1498.0785	4380.75	3497.9
890.019	1499.8858	4380.65	3496.6
890.1622	1501.6924	4369.9	3485.7
890.3053	1503.4981	4354.6	3469.05
890.4484	1505.3032	4339.3	3456
890.5914	1507.1075	4299.2	3414.1
890.7345	1508.911	4299.9	3414.85
890.8776	1510.7138	4293.3	3407.9
891.0206	1512.5159	4275.95	3391.95
891.1637	1514.3172	4251.05	3368.65
891.3067	1516.1178	4230.9	3348.7
891.4497	1517.9176	4212.85	3325.5
891.5927	1519.7166	4189.55	3307.2
891.7357	1521.515	4199.8	3308.45
891.8786	1523.3126	4167.8	3281.7
892.0216	1525.1094	4157.65	3270.95
892.1645	1526.9055	4136.3	3254.2
892.3074	1528.7008	4109.35	3226.7
892.4503	1530.4954	4100.4	3216.4
892.5932	1532.2893	4086.9	3204.6
892.7361	1534.0824	4050.45	3162.2
892.879	1535.8747	4058.45	3176.85
893.0218	1537.6663	4036.35	3153.15
893.1647	1539.4572	4038.7	3153.5
893.3075	1541.2473	4012.95	3129.35
893.4503	1543.0367	3988.65	3105.2
893.5931	1544.8253	3983.7	3097.25
893.7359	1546.6132	3959.15	3072.1
893.8787	1548.4003	3986.35	3092.95
894.0214	1550.1867	3968.5	3075.7
894.1642	1551.9723	3940.45	3052.8
894.3069	1553.7572	3935.25	3050.9
894.4496	1555.5414	3927.25	3044.35
894.5923	1557.3247	3923.75	3040.65
894.735	1559.1074	3923.35	3043.35
894.8777	1560.8893	3943.9	3061.9
895.0204	1562.6705	3927.05	3045
895.163	1564.4509	3941.95	3059.95
895.3056	1566.2305	3938.95	3057.05
895.4482	1568.0094	3939.45	3057.75
895.5908	1569.7876	3928.15	3045.85
895.7334	1571.565	3924.5	3040.4
895.876	1573.3417	3911.85	3033
896.0186	1575.1176	3899.35	3015.15
896.1611	1576.8928	3887.95	3005.85
896.3036	1578.6672	3873	2992.5
896.4461	1580.4409	3874	2992.75
896.5886	1582.2138	3872.8	2991.05
896.7311	1583.986	3884.6	3000.6
896.8736	1585.7575	3889.1	3006.25
897.0161	1587.5282	3878.8	2996.65
897.1585	1589.2981	3884.45	3000.8
897.3009	1591.0673	3886.4	3003.65
897.4433	1592.8358	3873.7	2991
897.5857	1594.6035	3879.85	2994.45
897.7281	1596.3704	3863.25	2980.95
897.8705	1598.1366	3843.85	2961.25
898.0128	1599.9021	3822.2	2940.95
898.1551	1601.6668	3805.3	2922.6
898.2975	1603.4308	3782.05	2899.2
898.4398	1605.194	3775.25	2889.35
898.5821	1606.9564	3783.75	2901.6
898.7243	1608.7182	3799.55	2914.8
898.8666	1610.4791	3830.3	2949.3
899.0088	1612.2394	3856.95	2976.45
899.1511	1613.9988	3900.1	3018.2
899.2933	1615.7576	3914.9	3032.85
899.4355	1617.5156	3939.75	3051.1
899.5776	1619.2728	3919.85	3037.35
899.7198	1621.0293	3889.45	3009.35
899.862	1622.785	3832.9	2949.65
900.0041	1624.54	3769.95	2886.5
900.1462	1626.2942	3702.95	2821
900.2883	1628.0477	3624.6	2739.45
900.4304	1629.8005	3581.6	2695.65
900.5725	1631.5525	3544.05	2661.15
900.7145	1633.3037	3506.1	2623.7
900.8566	1635.0542	3458.6	2577.45
900.9986	1636.804	3432	2551
901.1406	1638.553	3450.65	2512.55
901.2826	1640.3013	3370.7	2489.8
901.4245	1642.0488	3351.85	2468.7
901.5665	1643.7955	3342	2460.75
901.7085	1645.5416	3311.4	2430.15
901.8504	1647.2868	3317.35	2436.05
901.9923	1649.0313	3289.25	2406.1
902.1342	1650.7751	3302.45	2415.8
902.2761	1652.5181	3291.75	2410.85
902.4179	1654.2604	3275.6	2392.75
902.5598	1656.0019	3258.95	2378.2
902.7016	1657.7427	3280.8	2400.75
902.8434	1659.4828	3278.75	2395.8
902.9852	1661.222	3294.05	2413
903.127	1662.9606	3291.95	2411.3
903.2687	1664.6984	3286.75	2406
903.4105	1666.4354	3271.45	2391.05
903.5522	1668.1717	3239.45	2357.1
903.6939	1669.9072	3195.35	2314.65
903.8356	1671.642	3165.3	2281.85
903.9773	1673.3761	3134.35	2251.8
904.119	1675.1094	3101.05	2221.1
904.2606	1676.8419	3066.1	2182.65
904.4022	1678.5737	3046.1	2165.6
904.5439	1680.3048	3011.05	2129.3
904.6855	1682.0351	3016.85	2132.35
904.827	1683.7646	3002.2	2115.8
904.9686	1685.4934	2981.85	2101.7
905.1101	1687.2215	2967.3	2085.35
905.2517	1688.9488	2947.15	2065.9
905.3932	1690.6754	2934.85	2052.5
905.5347	1692.4012	2928.55	2046.95
905.6761	1694.1263	2920.65	2038.7
905.8176	1695.8506	2901.65	2020.25
905.9591	1697.5742	2903.15	2021.95
906.1005	1699.297	2886.8	2003.6
906.2419	1701.0191	2867.75	1987.1
906.3833	1702.7404	2851.6	1970.25
906.5246	1704.461	2850.95	1967.6
906.666	1706.1808	2838.9	1957
906.8073	1707.8999	2826.65	1943.7
906.9487	1709.6182	2816.55	1935.05
907.09	1711.3358	2820.4	1939.2
907.2313	1713.0527	2801.4	1920.75
907.3725	1714.7688	2806.1	1919.7
907.5138	1716.4841	2782.45	1899.45
907.655	1718.1987	2776.15	1891.05
907.7962	1719.9126	2763.5	1883.75
907.9374	1721.6257	2747.25	1862.8
908.0786	1723.338	2754.65	1872.65
908.2198	1725.0496	2750.8	1867.85
908.3609	1726.7605	2747.55	1864.9
908.502	1728.4706	2733.95	1852.55
908.6431	1730.18	2731.5	1846.65
908.7842	1731.8886	2726.5	1845.05
908.9253	1733.5964	2706.55	1817.15
909.0664	1735.3036	2714.85	1831.55
909.2074	1737.0099	2720.35	1840
909.3484	1738.7156	2699.75	1820.4
909.4894	1740.4204	2700	1817.35
909.6304	1742.1246	2690.4	1807.3
909.7714	1743.8279	2682.85	1800.05
909.9123	1745.5306	2677.5	1794.5
910.0532	1747.2325	2677.95	1795.6
910.1941	1748.9336	2682.35	1803.75
910.335	1750.634	2665.45	1779.85
910.4759	1752.3336	2655.15	1775.1
910.6168	1754.0325	2670.05	1790.4
910.7576	1755.7307	2654.65	1771.2
910.8984	1757.4281	2660.9	1779.2
911.0392	1759.1247	2659.9	1767.15
911.18	1760.8206	2650.25	1763.3
911.3208	1762.5158	2630.8	1744.9
911.4615	1764.2102	2641.05	1759.6
911.6022	1765.9039	2625.7	1744.2
911.7429	1767.5968	2621.8	1739.55
911.8836	1769.289	2619.85	1738.15
912.0243	1770.9804	2606.4	1724.25
912.1649	1772.6711	2610.5	1729.3
912.3056	1774.361	2604.3	1722.4
912.4462	1776.0502	2604.2	1723.05
912.5868	1777.7386	2599.3	1713.5
912.7274	1779.4263	2587.6	1706.1
912.8679	1781.1132	2590.45	1708.35
913.0084	1782.7994	2574.15	1692.75
913.149	1784.4849	2572.8	1692.5
913.2895	1786.1696	2570.65	1679.5
913.4299	1787.8535	2560.4	1678.95
913.5704	1789.5367	2558.05	1673.15
913.7108	1791.2192	2554.05	1674
913.8513	1792.9009	2562.65	1655.25
913.9917	1794.5818	2550.65	1666.05
914.132	1796.2621	2530.8	1650.1
914.2724	1797.9415	2525.75	1643.25
914.4128	1799.6202	2518.6	1636.75
914.5531	1801.2982	2508.3	1627.2
914.6934	1802.9755	2509.6	1627.55
914.8337	1804.6519	2509.75	1628.75
914.9739	1806.3277	2501.1	1619.1
915.1142	1808.0027	2486.5	1604.35
915.2544	1809.6769	2487.65	1605.65
915.3946	1811.3504	2486.9	1602.55
915.5348	1813.0231	2480.65	1598.65
915.675	1814.6951	2464.85	1584.45
915.8151	1816.3664	2487.45	1603.25
915.9553	1818.0369	2465.25	1583.7
916.0954	1819.7067	2461.8	1580.05
916.2355	1821.3757	2465.55	1582.15
916.3755	1823.044	2460.25	1577.85
916.5156	1824.7115	2443.85	1561.15
916.6556	1826.3783	2437.7	1557.65
916.7956	1828.0443	2432.4	1552.25
916.9356	1829.7096	2425.15	1541.6
917.0756	1831.3741	2434.45	1549
917.2155	1833.0379	2421.3	1540.7
917.3555	1834.701	2423.55	1539.7
917.4954	1836.3633	2421.3	1539.75
917.6353	1838.0248	2410.5	1526.25
917.7751	1839.6856	2409.75	1527.7
917.915	1841.3457	2400.4	1517.75
918.0548	1843.005	2402.1	1519.05
918.1946	1844.6636	2395.95	1513.7
918.3344	1846.3214	2394.45	1513.05
918.4742	1847.9785	2379.8	1497.65
918.6139	1849.6349	2383.65	1500.55
918.7537	1851.2904	2381.7	1490.7
918.8934	1852.9453	2373.65	1492.2
919.0331	1854.5994	2361.65	1478.45
919.1727	1856.2528	2359.45	1471.55
919.3124	1857.9054	2364.65	1483.3
919.452	1859.5572	2351.55	1471.65
919.5916	1861.2083	2350.05	1467.6
919.7312	1862.8587	2351.2	1470.1
919.8708	1864.5084	2343.85	1461.6
920.0103	1866.1572	2337.95	1454.25
920.1498	1867.8054	2320.2	1439
920.2893	1869.4528	2325.2	1443.65
920.4288	1871.0994	2314.7	1432.95
920.5683	1872.7453	2322.4	1440.5
920.7077	1874.3905	2313.25	1424.5
920.8471	1876.0349	2303.25	1422.05
920.9865	1877.6786	2309.7	1425.45
921.1259	1879.3215	2295.85	1415.2
921.2653	1880.9637	2296.05	1412.6
921.4046	1882.6051	2294.4	1412
921.5439	1884.2458	2286.8	1402.05
921.6832	1885.8858	2280.5	1397.2
921.8225	1887.525	2283.9	1402.2
921.9617	1889.1634	2273.3	1393.95
922.101	1890.8011	2262.85	1381.85
922.2402	1892.4381	2263.25	1381.3
922.3794	1894.0743	2269.25	1386.9
922.5185	1895.7098	2254.65	1373.7
922.6577	1897.3446	2259.65	1376.7
922.7968	1898.9786	2261.7	1374.85
922.9359	1900.6118	2252.15	1371.6
923.075	1902.2443	2237.55	1352.45
923.214	1903.8761	2225.35	1345.55
923.3531	1905.5071	2224.1	1342.25
923.4921	1907.1374	2217.75	1334.3
923.6311	1908.7669	2224.85	1344.3
923.77	1910.3957	2207.2	1325.25
923.909	1912.0237	2204.95	1323.45
924.0479	1913.651	2203.1	1319.45
924.1868	1915.2776	2200.35	1319.7
924.3257	1916.9034	2204.7	1324.25
924.4646	1918.5285	2189.55	1309
924.6034	1920.1528	2183.1	1300.25
924.7422	1921.7764	2186.55	1306.3
924.881	1923.3992	2172.1	1290.5
925.0198	1925.0213	2166.35	1286.15
925.1586	1926.6427	2159.7	1278.5
925.2973	1928.2633	2226.35	1274.15
925.436	1929.8832	2170.85	1287.85
925.5747	1931.5023	2147.7	1267.15
925.7134	1933.1207	2152.15	1268.5
925.852	1934.7383	2145.35	1262.55
925.9906	1936.3552	2138.5	1256.1
926.1292	1937.9714	2134.65	1251.15
926.2678	1939.5868	2131	1249.45
926.4064	1941.2015	2120.65	1238.35
926.5449	1942.8154	2111.7	1230.5
926.6834	1944.4286	2117.65	1235.25
926.8219	1946.041	2134.15	1229.2
926.9604	1947.6528	2109.35	1223.45
927.0988	1949.2637	2102.35	1222.45
927.2372	1950.8739	2101.05	1217.5
927.3756	1952.4834	2096.6	1213.65
927.514	1954.0921	2091.45	1206.7
927.6523	1955.7001	2094.55	1208.9
927.7907	1957.3074	2070.7	1188.45
927.929	1958.9139	2083.25	1201.95
928.0673	1960.5197	2078.75	1196.1
928.2055	1962.1247	2068.45	1187.7
928.3438	1963.729	2064.2	1183.35
928.482	1965.3325	2080.5	1172.65
928.6202	1966.9353	2051.05	1169.95
928.7584	1968.5374	2059.65	1175.25
928.8965	1970.1387	2046.75	1164.45
929.0346	1971.7393	2051.7	1168.7
929.1727	1973.3392	2051.3	1171.45
929.3108	1974.9383	2045.45	1165.1
929.4489	1976.5366	2026.35	1146.15
929.5869	1978.1342	2039.75	1159.3
929.7249	1979.7311	2031.25	1147.75
929.8629	1981.3273	2027.9	1145.55
930.0009	1982.9227	2022.95	1139.3
930.1388	1984.5173	2012.8	1131.75
930.2767	1986.1112	2015.45	1132.7
930.4146	1987.7044	2011.8	1130.25
930.5525	1989.2968	2021.5	1136.95
930.6904	1990.8885	2013.4	1129.3
930.8282	1992.4795	2004.65	1121.15
930.966	1994.0697	1997.3	1115.05
931.1038	1995.6592	1998.6	1118.15
931.2415	1997.2479	1995.35	1115.35
931.3793	1998.8359	1993.5	1112.95
931.517	2000.4232	1983.65	1100.55
931.6547	2002.0097	1978.7	1100.75
931.7923	2003.5955	1982.05	1099.4
931.93	2005.1805	1978.05	1095.55
932.0676	2006.7648	1972.25	1091.15
932.2052	2008.3484	1967.7	1086.05
932.3427	2009.9312	1987.35	1103.95
932.4803	2011.5133	1971.85	1092.25
932.6178	2013.0946	1977.1	1095.5
932.7553	2014.6752	1961.65	1078.8
932.8928	2016.2551	1971.1	1089.75
933.0302	2017.8342	1957.8	1077.85
933.1676	2019.4126	1947.8	1067.6
933.305	2020.9902	1941.95	1060.6
933.4424	2022.5672	1959.65	1076.2
933.5798	2024.1433	1952.8	1064.6
933.7171	2025.7188	1935.7	1054.45
933.8544	2027.2935	1937.5	1055.7
933.9917	2028.8674	1928.85	1047.25
934.129	2030.4406	1933.85	1054.95
934.2662	2032.0131	1922.9	1041.05
934.4034	2033.5849	1924.5	1035.15
934.5406	2035.1559	1921.85	1042.05
934.6778	2036.7261	1928.2	1046.5
934.8149	2038.2957	1918.45	1037.05
934.952	2039.8645	1920.85	1037.7
935.0891	2041.4325	1921.8	1037.8
935.2262	2042.9998	1913.95	1033.7
935.3632	2044.5664	1917.55	1035.8
935.5002	2046.1323	1912.7	1030.95
935.6372	2047.6974	1910.3	1029.65
935.7742	2049.2617	1904.5	1023.3
935.9111	2050.8254	1907.15	1018.8
936.048	2052.3883	1917.15	1035.4
936.1849	2053.9504	1906.5	1021.8
936.3218	2055.5118	1899.05	1017.8
936.4586	2057.0725	1900.4	1012.75
936.5955	2058.6325	1889.15	1008.1
936.7323	2060.1917	1886.3	1005.15
936.869	2061.7502	1882.85	998.8
937.0058	2063.3079	1882.5	1001.05
937.1425	2064.8649	1886.65	1003.45
937.2792	2066.4212	1892.3	1009.15
937.4159	2067.9767	1880.1	998.85
937.5525	2069.5315	1872.3	990.75
937.6891	2071.0856	1876.05	995.15
937.8257	2072.6389	1863.45	979.05
937.9623	2074.1915	1859.65	980.65
938.0989	2075.7433	1850.2	967.45
938.2354	2077.2945	1864.85	984.4
938.3719	2078.8448	1858.5	978.65
938.5084	2080.3945	1854.4	971.15
938.6448	2081.9434	1850.2	970.75
938.7812	2083.4916	1860.05	977.9
938.9176	2085.039	1850.6	968.5
939.054	2086.5857	1844.95	962.35
939.1903	2088.1317	1841.05	957.6
939.3267	2089.677	1839.6	957.95
939.463	2091.2215	1841.35	959.65
939.5992	2092.7652	1839.8	956.5
939.7355	2094.3083	1829.05	946.75
939.8717	2095.8506	1839.15	957.35
940.0079	2097.3921	1834.1	952.45
940.1441	2098.933	1830.85	950.05
940.2802	2100.4731	1832.45	952.15
940.4163	2102.0124	1825.25	935.85
940.5524	2103.5511	1825.5	945.55
940.6885	2105.089	1820.2	938.85
940.8245	2106.6261	1822.1	939.4
940.9606	2108.1626	1813.25	929.95
941.0965	2109.6983	1846.6	937.3
941.2325	2111.2332	1812.55	929.7
941.3684	2112.7675	1813.1	930.3
941.5044	2114.301	1810.7	928.3
941.6403	2115.8337	1806.75	924.1
941.7761	2117.3657	1807.7	927.05
941.912	2118.897	1806.25	921.95
942.0478	2120.4276	1809.15	922.5
942.1835	2121.9575	1799.7	916.85
942.3193	2123.4866	1815.25	919.05
942.455	2125.0149	1794.5	911.1
942.5907	2126.5426	1790.6	907.85
942.7264	2128.0695	1783.45	897
942.8621	2129.5956	1784.1	903
942.9977	2131.1211	1791.8	906.35
943.1333	2132.6458	1788.7	906.85
943.2689	2134.1698	1794.4	912.8
943.4044	2135.693	1793.05	909.85
943.54	2137.2155	1784.65	901.35
943.6755	2138.7373	1776.6	893.25
943.8109	2140.2584	1779.8	899.35
943.9464	2141.7787	1776.35	888.8
944.0818	2143.2983	1761.6	881.35
944.2172	2144.8171	1762.7	883.15
944.3526	2146.3353	1767.15	883.2
944.4879	2147.8527	1758.95	879.35
944.6232	2149.3693	1766.65	885.3
944.7585	2150.8853	1760.5	879.25
944.8938	2152.4005	1747.95	867.7
945.029	2153.9149	1752	869.4
945.1642	2155.4287	1849.2	860.55
945.2994	2156.9417	1763.25	879.85
945.4346	2158.454	1751.6	865.6
945.5697	2159.9655	1746.55	865.55
945.7048	2161.4764	1733.75	850.45
945.8399	2162.9865	1734.8	853.9
945.9749	2164.4958	1734.45	849.35
946.1099	2166.0045	1740.1	852.9
946.2449	2167.5124	1738.85	858.4
946.3799	2169.0195	1737.65	856.4
946.5148	2170.526	1720.85	838.6
946.6498	2172.0317	1718.6	835.6
946.7846	2173.5367	1729.55	846.8
946.9195	2175.0409	1715.05	834.4
947.0543	2176.5445	1716.2	833.9
947.1891	2178.0473	1717.35	834.5
947.3239	2179.5494	1720.5	833.45
947.4587	2181.0507	1714.15	831.8
947.5934	2182.5513	1708.2	825.9
947.7281	2184.0512	1717.3	834.25
947.8628	2185.5504	1709.45	827.3
947.9974	2187.0488	1707.8	824.65
948.132	2188.5465	1699.85	817.5
948.2666	2190.0435	1695.15	813.4
948.4012	2191.5397	1691.65	808.95
948.5357	2193.0353	1682.6	801.75
948.6702	2194.5301	1690.35	807.55
948.8047	2196.0241	1682.7	799.75
948.9392	2197.5175	1683.15	802.65
949.0736	2199.0101	1685.95	800.85
949.208	2200.502	1678.95	799.05
949.3424	2201.9931	1678.4	796.25
949.4767	2203.4835	1678.25	792.2
949.611	2204.9733	1683	784.4
949.7453	2206.4622	1675.9	794.55
949.8796	2207.9505	1662.2	776.35
950.0138	2209.438	1652.9	772
950.148	2210.9248	1658.15	774.25
950.2822	2212.4109	1654.9	774.45
950.4164	2213.8962	1651.3	765.65
950.5505	2215.3809	1651.05	766.65
950.6846	2216.8648	1651.05	767.75
950.8186	2218.3479	1647.8	759.45
950.9527	2219.8304	1648.45	762.35
951.0867	2221.3121	1643.1	757
951.2207	2222.7931	1638.45	755
951.3546	2224.2733	1632.1	749.6
951.4886	2225.7529	1637.4	754.65
951.6225	2227.2317	1634.05	749.75
951.7563	2228.7098	1629.5	748.1
951.8902	2230.1872	1625.25	742.85
952.024	2231.6638	1626.8	745.9
952.1578	2233.1397	1634.65	749.1
952.2916	2234.6149	1613.15	730.15
952.4253	2236.0894	1616.95	733.65
952.559	2237.5632	1610.85	724.65
952.6927	2239.0362	1612.65	731.2
952.8263	2240.5085	1613.4	728.85
952.9599	2241.9801	1605.5	723.35
953.0935	2243.4509	1604	721.85
953.2271	2244.921	1596.5	713.2
953.3606	2246.3904	1603.1	717.8
953.4941	2247.8591	1598.2	715.85
953.6276	2249.3271	1597.05	715.15
953.7611	2250.7943	1599.35	718.55
953.8945	2252.2608	1595.45	712.7
954.0279	2253.7266	1590.5	708.4
954.1612	2255.1917	1584.1	701.35
954.2946	2256.656	1580.85	698.4
954.4279	2258.1197	1587	704.8
954.5612	2259.5826	1588.95	705.65
954.6944	2261.0447	1579.1	695.95
954.8276	2262.5062	1578.55	694.4
954.9608	2263.9669	1577.8	692.45
955.094	2265.4269	1571.15	690.25
955.2271	2266.8862	1564.05	681.35
955.3602	2268.3448	1560.4	677.5
955.4933	2269.8026	1566.95	683.85
955.6264	2271.2598	1564.75	682.5
955.7594	2272.7162	1560.3	679.35
955.8924	2274.1719	1555.9	674.1
956.0253	2275.6268	1556.3	674.05
956.1583	2277.0811	1550.55	668.15
956.2912	2278.5346	1546.9	666.15
956.4241	2279.9874	1556.1	672.55
956.5569	2281.4395	1550.85	672.45
956.6897	2282.8908	1551.25	663.5
956.8225	2284.3414	1542.25	657.2
956.9553	2285.7914	1537.45	655.1
957.088	2287.2406	1542.15	657.55
957.2207	2288.689	1535	652.55
957.3534	2290.1368	1530.45	646.15
957.486	2291.5838	1536.1	653.25
957.6186	2293.0302	1532.45	650.15
957.7512	2294.4758	1527.9	647.6
957.8838	2295.9206	1528.95	644.7
958.0163	2297.3648	1521.5	638
958.1488	2298.8082	1515.05	633
958.2813	2300.251	1511.6	628.1
958.4137	2301.693	1518.85	633.85
958.5461	2303.1343	1518.7	634.9
958.6785	2304.5748	1517.65	635.1
958.8108	2306.0147	1511	629.7
958.9432	2307.4538	1517	631.85
959.0754	2308.8922	1505.9	625.3
959.2077	2310.3299	1505.75	624.8
959.3399	2311.7669	1491.35	609.55
959.4721	2313.2031	1498.65	616.4
959.6043	2314.6387	1502.95	619.9
959.7365	2316.0735	1488.45	604.9
959.8686	2317.5076	1488.25	606.4
960.0006	2318.941	1486.2	602.55
960.1327	2320.3737	1489.95	610.65
960.2647	2321.8056	1488.8	604.2
960.3967	2323.2369	1481.7	597.35
960.5287	2324.6674	1489.25	603.55
960.6606	2326.0972	1488.95	603.3
960.7925	2327.5263	1483.1	600.8
960.9244	2328.9547	1480.95	598.85
961.0562	2330.3823	1473.9	591.85
961.1881	2331.8092	1480.8	596.25
961.3198	2333.2355	1474.35	589.8
961.4516	2334.661	1470.15	587.85
961.5833	2336.0858	1464.8	581.55
961.715	2337.5098	1462.6	580.45
961.8467	2338.9332	1457	573.1
961.9783	2340.3558	1460.4	575.3
962.1099	2341.7778	1458.55	576.8
962.2415	2343.199	1458.35	574.85
962.373	2344.6195	1445.3	562.55
962.5045	2346.0393	1450.7	569.2
962.636	2347.4583	1444	561.25
962.7675	2348.8767	1449.55	567.4
962.8989	2350.2943	1446.1	563.75
963.0303	2351.7113	1432.35	549.2
963.1617	2353.1275	1440.45	556.9
963.293	2354.543	1464.15	555.95
963.4243	2355.9578	1426.35	542.35
963.5556	2357.3718	1426.2	543.5
963.6868	2358.7852	1422.55	537.3
963.818	2360.1978	1424.45	540.35
963.9492	2361.6098	1424.5	542.25
964.0803	2363.021	1416.85	532.45
964.2114	2364.4315	1410.2	528.6
964.3425	2365.8413	1418.6	528.35
964.4736	2367.2504	1401.2	519.9
964.6046	2368.6587	1401.25	517.7
964.7356	2370.0664	1398.95	516.2
964.8666	2371.4733	1392.15	509.25
964.9975	2372.8795	1382	498.65
965.1284	2374.285	1388.85	507.05
965.2593	2375.6899	1389	506.1
965.3901	2377.0939	1375.05	492.3
965.5209	2378.4973	1382.75	501.45
965.6517	2379.9	1376.75	492.75
965.7825	2381.3019	1374.8	492.25
965.9132	2382.7032	1368.9	487.15
966.0439	2384.1037	1359	477.75
966.1745	2385.5035	1362.65	482.35
966.3051	2386.9027	1360.15	478.4
966.4357	2388.3011	1358.25	472.75
966.5663	2389.6987	1358.25	476.3
966.6968	2391.0957	1349.6	467.6
966.8273	2392.492	1347.35	465.2
966.9578	2393.8876	1344.9	460.55
967.0882	2395.2824	1343.8	461.1
967.2186	2396.6765	1330.65	449.3
967.349	2398.07	1335.7	453.75
967.4793	2399.4627	1339.75	456.9
967.6097	2400.8547	1331.6	449.15
967.7399	2402.246	1333.8	446.4
967.8702	2403.6366	1325.7	442.5
968.0004	2405.0265	1325.1	441.85
968.1306	2406.4156	1327.5	440.75
968.2607	2407.8041	1323.75	437.8
968.3909	2409.1918	1327	440.8
968.521	2410.5789	1319.25	435.85
968.651	2411.9652	1315.95	430.15
968.781	2413.3508	1307.2	424.9
968.911	2414.7358	1316.7	432.8
969.041	2416.12	1312	429.7
969.1709	2417.5035	1306.2	424.3
969.3008	2418.8863	1310.15	427.95
969.4307	2420.2684	1308.75	426
969.5606	2421.6497	1301.25	416.3
969.6904	2423.0304	1300.55	418.45
969.8201	2424.4104	1302.15	418.05
969.9499	2425.7896	1299.35	414.9
970.0796	2427.1682	1304.3	422.9
970.2093	2428.546	1303.1	419.8
970.3389	2429.9232	1295.55	410.45
970.4685	2431.2996	1292.5	411.85
970.5981	2432.6753	1291.75	410.45
970.7277	2434.0503	1293.85	412.45
970.8572	2435.4246	1290.9	409.7
970.9867	2436.7982	1286.5	402.7
971.1161	2438.1711	1287.55	404.95
971.2456	2439.5433	1292	408.55
971.375	2440.9148	1288.25	400.65
971.5043	2442.2856	1283.2	401.05
971.6336	2443.6557	1284	400.15
971.7629	2445.025	1279.85	398.2
971.8922	2446.3937	1280.2	399.25
972.0214	2447.7617	1281.3	398.4
972.1506	2449.1289	1277.05	394.3
972.2798	2450.4955	1277.25	391.6
972.4089	2451.8613	1274.8	393.95
972.538	2453.2265	1274.2	391.65
972.6671	2454.5909	1278.6	395.25
972.7961	2455.9546	1272.8	391.45
972.9251	2457.3177	1269.25	387.6
973.0541	2458.68	1273.3	388.6
973.1831	2460.0416	1269.8	385.55
973.312	2461.4025	1267.65	382.7
973.4408	2462.7627	1279.25	383.5
973.5697	2464.1222	1262.7	379.55
973.6985	2465.4811	1264	382.4
973.8273	2466.8392	1259.3	376.25
973.956	2468.1966	1256.05	370.25
974.0847	2469.5533	1261.8	376.7
974.2134	2470.9093	1264.5	381.5
974.3421	2472.2645	1263.75	381.45
974.4707	2473.6191	1261.75	380.1
974.5993	2474.973	1260.25	379.7
974.7278	2476.3262	1254.65	368.35
974.8563	2477.6787	1256.15	373.4
974.9848	2479.0305	1249.9	368.25
975.1132	2480.3816	1251.15	367
975.2417	2481.7319	1255.35	372.75
975.37	2483.0816	1249.6	364.25
975.4984	2484.4306	1242.5	359.1
975.6267	2485.7789	1247.75	365.45
975.755	2487.1264	1243.5	358.95
975.8833	2488.4733	1246.25	365.2
976.0115	2489.8195	1259.75	358.7
976.1397	2491.165	1241.15	353.5
976.2678	2492.5097	1242.8	357.25
976.3959	2493.8538	1235.9	354.75
976.524	2495.1972	1229.8	346.3
976.6521	2496.5398	1231.55	347.35
976.7801	2497.8818	1228.95	344.15
976.9081	2499.2231	1229.15	348.2
977.036	2500.5637	1229.9	345.8
977.164	2501.9035	1230.75	348.7
977.2918	2503.2427	1236.6	350
977.4197	2504.5812	1225.45	341.6
977.5475	2505.919	1224	338.5
977.6753	2507.256	1225.25	341.3
977.8031	2508.5924	1225.65	342.55
977.9308	2509.9281	1231.1	342.2
978.0585	2511.2631	1221	338.05
978.1861	2512.5974	1221.65	340.2
978.3137	2513.9309	1214.6	333.9
978.4413	2515.2638	1237.6	325.7
978.5689	2516.596	1222.65	340.3
978.6964	2517.9275	1213.5	327.6
978.8239	2519.2583	1212.4	328.2
978.9513	2520.5884	1212.95	328.35
979.0788	2521.9178	1209.35	326.25
979.2062	2523.2465	1206.85	325.4
979.3335	2524.5745	1202.75	321.55
979.4608	2525.9018	1211.65	329.35
979.5881	2527.2284	1204.8	323.1
979.7154	2528.5543	1202.25	321.35
979.8426	2529.8796	1203.2	321.65
979.9698	2531.2041	1199.7	315.35
980.0969	2532.5279	1202.75	321.3
980.224	2533.851	1201.4	319.5
980.3511	2535.1735	1199.35	316.15
980.4781	2536.4952	1199.55	316.85
980.6052	2537.8163	1198.95	316.1
980.7321	2539.1366	1195	313.7
980.8591	2540.4562	1193.05	309.05
980.986	2541.7752	1196.65	313.6
981.1129	2543.0935	1194	311.6
981.2397	2544.411	1198.9	315.55
981.3665	2545.7279	1195.7	313.8
981.4933	2547.0441	1190	308.6
981.62	2548.3596	1196.2	311.05
981.7467	2549.6744	1192.55	309.65
981.8734	2550.9885	1189.35	304.5
982.0001	2552.3019	1183.35	300.6
982.1267	2553.6146	1182.3	297.7
982.2532	2554.9266	1179.4	297.45
982.3798	2556.2379	1188.95	305.65
982.5063	2557.5485	1179.6	299.4
982.6327	2558.8585	1188.7	297.75
982.7592	2560.1677	1186.6	299
982.8856	2561.4762	1184.15	301.05
983.0119	2562.7841	1181.85	296.2
983.1383	2564.0913	1174.95	293.1
983.2646	2565.3977	1174.85	293.35
983.3908	2566.7035	1177.2	294.55
983.517	2568.0086	1180.2	294.45
983.6432	2569.313	1175.3	292.55
983.7694	2570.6167	1178.75	293.85
983.8955	2571.9197	1173.15	293.55
984.0216	2573.222	1176.2	290.1
984.1476	2574.5236	1173.4	288.1
984.2737	2575.8246	1166.65	281.35
984.3996	2577.1248	1173	288.9
984.5256	2578.4244	1168.75	287.1
984.6515	2579.7232	1170.7	287.55
984.7774	2581.0214	1190.8	277
984.9032	2582.3189	1165.2	282.65
985.029	2583.6157	1180.9	285.85
985.1548	2584.9118	1167.65	284.6
985.2806	2586.2072	1161	279.5
985.4063	2587.5019	1158.65	276.75
985.5319	2588.7959	1162.45	278.9
985.6576	2590.0893	1160.15	276
985.7832	2591.3819	1160.7	280.65
985.9087	2592.6739	1156.3	276.35
986.0343	2593.9652	1157.95	273.75
986.1597	2595.2557	1155.1	274.85
986.2852	2596.5456	1156.05	270
986.4106	2597.8348	1151.15	268.7
986.536	2599.1234	1150.55	270
986.6614	2600.4112	1151.35	267.3
986.7867	2601.6983	1151.2	266
986.912	2602.9848	1146.4	261.85
987.0372	2604.2705	1149	258.95
987.1624	2605.5556	1148.25	266.2
987.2876	2606.84	1146.35	262.65
987.4128	2608.1237	1144.45	260.3
987.5379	2609.4067	1143.6	260.2
987.6629	2610.689	1150.95	260.2
987.788	2611.9707	1139.45	252.4
987.913	2613.2516	1145.3	258.3
988.0379	2614.5319	1132.7	250.65
988.1629	2615.8115	1133.1	249.65
988.2878	2617.0903	1131.7	246.95
988.4126	2618.3685	1134.45	253
988.5375	2619.6461	1135.15	253.05
988.6622	2620.9229	1130.75	246.4
988.787	2622.199	1130.35	248.15
988.9117	2623.4745	1127	246.05
989.0364	2624.7493	1128.05	245.45
989.161	2626.0234	1122.1	238.3
989.2857	2627.2968	1122.5	239.85
989.4102	2628.5695	1115.5	230.15
989.5348	2629.8415	1124.65	242
989.6593	2631.1128	1123.8	239.6
989.7837	2632.3835	1119.65	237.4
989.9082	2633.6535	1117.4	234.55
990.0326	2634.9228	1115.05	236.3
990.1569	2636.1914	1118.1	234.75
990.2812	2637.4593	1114.95	233.25
990.4055	2638.7265	1117.8	234.3
990.5298	2639.9931	1117.05	234.95
990.654	2641.259	1108.2	223.6
990.7782	2642.5242	1110.95	226.7
990.9023	2643.7887	1107	225.15
991.0264	2645.0525	1108.05	226.3
991.1505	2646.3156	1124.95	227.45
991.2745	2647.5781	1104.8	222.7
991.3985	2648.8398	1111.15	230.1
991.5225	2650.1009	1134.8	226.45
991.6464	2651.3613	1104.5	221.65
991.7703	2652.6211	1109.5	227.4
991.8942	2653.8801	1105.7	226.1
992.018	2655.1385	1106.25	220.95
992.1418	2656.3961	1100.95	219.5
992.2655	2657.6531	1102.3	220.4
992.3892	2658.9094	1102.2	220.65
992.5129	2660.1651	1093.6	212.6
992.6366	2661.42	1101.4	217.95
992.7602	2662.6743	1100.95	218.3
992.8837	2663.9279	1099.6	217.35
993.0073	2665.1808	1101.25	218.2
993.1307	2666.433	1099.45	214.3
993.2542	2667.6846	1098.4	217.6
993.3776	2668.9354	1101.35	215.2
993.501	2670.1856	1094.35	211.5
993.6244	2671.4351	1097	216.35
993.7477	2672.6839	1095.55	212.35
993.8709	2673.9321	1093.1	212.75
993.9942	2675.1795	1092.55	210.1
994.1174	2676.4263	1091.95	208.65
994.2405	2677.6724	1090.7	209.15
994.3637	2678.9179	1092.6	209.5
994.4868	2680.1626	1091	209.35
994.6098	2681.4067	1095.5	210.4
994.7328	2682.6501	1091.4	209.65
994.8558	2683.8928	1090.5	206.55
994.9788	2685.1348	1089.15	206.9
995.1017	2686.3761	1089.15	208.65
995.2245	2687.6168	1090.55	208.45
995.3474	2688.8568	1088.5	207.7
995.4702	2690.0961	1082.05	200.9
995.5929	2691.3348	1084.4	201.25
995.7156	2692.5727	1084.65	201.75
995.8383	2693.81	1078.7	198.8
995.961	2695.0466	1077.65	195.75
996.0836	2696.2826	1078.75	197
996.2062	2697.5178	1083.05	196.8
996.3287	2698.7524	1080.25	198.5
996.4512	2699.9863	1082.9	198.75
996.5737	2701.2195	1074.7	194.55
996.6961	2702.452	1076.95	193.85
996.8185	2703.6839	1078.05	193.3
996.9408	2704.9151	1078.05	194.85
997.0631	2706.1456	1075.85	191.8
997.1854	2707.3755	1078.95	194.25
997.3077	2708.6046	1075.85	192.1
997.4299	2709.8331	1077.55	195.4
997.552	2711.0609	1083.05	203.2
997.6742	2712.2881	1077.05	193.55
997.7963	2713.5145	1069	183.45
997.9183	2714.7403	1069.85	188
998.0403	2715.9654	1072.95	189.2
998.1623	2717.1899	1088.25	192.35
998.2842	2718.4136	1069.2	186.8
998.4062	2719.6367	1072	189.45
998.528	2720.8591	1079.1	190.15
998.6498	2722.0809	1071.1	189.5
998.7716	2723.3019	1075.45	188.95
998.8934	2724.5223	1077.3	194.3
999.0151	2725.7421	1076	193.6
999.1368	2726.9611	1073.8	189.1
999.2584	2728.1795	1076.35	189.95
999.38	2729.3972	1067.85	186.95
999.5016	2730.6142	1076	183.8
999.6231	2731.8306	1069.75	186.5
999.7446	2733.0462	1066.3	182.55
999.8661	2734.2612	1069.9	184.1
999.9875	2735.4756	1060.1	176.3
1000.1089	2736.6892	1061.9	179.65
1000.2302	2737.9022	1058.25	175.7
1000.3515	2739.1145	1055.8	173.65
1000.4728	2740.3262	1062.65	171.45
1000.594	2741.5372	1052.45	168.85
1000.7152	2742.7475	1054	172.5
1000.8363	2743.9571	1057.2	174.1
1000.9575	2745.1661	1055.45	169.15
1001.0785	2746.3744	1052.2	169.75
1001.1996	2747.582	1049.25	167.15
1001.3206	2748.7889	1048.9	165.05
1001.4415	2749.9952	1047.05	165.65
1001.5625	2751.2008	1049.2	167.55
1001.6833	2752.4057	1047.95	161.9
1001.8042	2753.61	1046.05	163.35
1001.925	2754.8136	1043.4	160.7
1002.0458	2756.0165	1045.4	161.45
1002.1665	2757.2188	1044.6	163.9
1002.2872	2758.4204	1045.9	163.05
1002.4078	2759.6213	1046	160.95
1002.5285	2760.8215	1044.6	157.45
1002.649	2762.0211	1040.5	155.5
1002.7696	2763.22	1043.5	158.95
1002.8901	2764.4182	1041.45	158.8
1003.0106	2765.6158	1037.1	156.05
1003.131	2766.8127	1037.95	156.75
1003.2514	2768.009	1037.7	155.25
1003.3717	2769.2045	1041.1	157.85
1003.492	2770.3994	1034.35	151.5
1003.6123	2771.5936	1037.8	155.5
1003.7325	2772.7872	1031.3	152.55
1003.8527	2773.9801	1034.45	151.35
1003.9729	2775.1723	1051.95	152.05
1004.093	2776.3639	1026.65	145.75
1004.2131	2777.5548	1030.4	144.3
1004.3331	2778.745	1033.6	149.75
1004.4531	2779.9346	1033.75	153.3
1004.5731	2781.1235	1030.15	145.7
1004.693	2782.3117	1031.35	149.55
1004.8129	2783.4992	1026.75	143.95
1004.9328	2784.6861	1029.15	147.6
1005.0526	2785.8723	1030.9	147.2
1005.1723	2787.0579	1030.4	148.55
1005.2921	2788.2428	1028.7	145.9
1005.4118	2789.427	1029	146.1
1005.5314	2790.6106	1026.65	145.45
1005.651	2791.7935	1028.1	146.25
1005.7706	2792.9757	1025.5	144.95
1005.8902	2794.1573	1025.55	142.1
1006.0097	2795.3382	1020.95	138.65
1006.1291	2796.5184	1027	147.35
1006.2485	2797.698	1030.6	145.15
1006.3679	2798.8769	1023.8	141.5
1006.4873	2800.0551	1024.8	142
1006.6066	2801.2327	1028.45	144.45
1006.7258	2802.4096	1022.75	141.65
1006.8451	2803.5859	1026.15	142.65
1006.9642	2804.7615	1025.2	142.1
1007.0834	2805.9364	1022.85	141.55
1007.2025	2807.1106	1023.3	140.25
1007.3216	2808.2842	1026.35	142.3
1007.4406	2809.4572	1024.3	141.8
1007.5596	2810.6294	1028.9	145.5
1007.6785	2811.801	1032	152.65
1007.7975	2812.972	1030.6	150
1007.9163	2814.1423	1027.85	146.3
1008.0352	2815.3119	1032.2	149.85
1008.154	2816.4808	1032.5	149.4
1008.2727	2817.6491	1035	153.2
1008.3914	2818.8167	1036.95	156
1008.5101	2819.9837	1043.4	155.9
1008.6288	2821.15	1045.15	165.05
1008.7474	2822.3157	1047	166.4
1008.8659	2823.4807	1052.2	169.15
1008.9844	2824.645	1055	173.55
1009.1029	2825.8086	1060.95	180.5
1009.2214	2826.9716	1060.4	179.85
1009.3398	2828.134	1064.4	180.85
1009.4581	2829.2957	1071.45	187.2
1009.5764	2830.4567	1071.8	189.65
1009.6947	2831.617	1071.05	188
1009.813	2832.7767	1074.75	194.1
1009.9312	2833.9358	1073.45	193.6
1010.0493	2835.0941	1075.7	191.5
1010.1675	2836.2519	1075.05	194.4
1010.2855	2837.4089	1070.5	186
1010.4036	2838.5653	1065.9	185.45
1010.5216	2839.7211	1062.55	180.15
1010.6396	2840.8761	1070.15	186.5
1010.7575	2842.0306	1063.5	183.95
1010.8754	2843.1843	1066.35	185.65
1010.9932	2844.3374	1064.6	182.95
1011.111	2845.4899	1064.9	182.45
1011.2288	2846.6417	1067.7	186.25
1011.3465	2847.7928	1068.35	186.7
1011.4642	2848.9433	1072.2	190.1
1011.5818	2850.0931	1069.9	187.75
1011.6995	2851.2422	1077.25	194.35
1011.817	2852.3907	1080.65	198.8
1011.9345	2853.5385	1084.8	201.75
1012.052	2854.6857	1088.55	198.9
1012.1695	2855.8323	1083.75	203.55
1012.2869	2856.9781	1087.15	204.3
1012.4042	2858.1233	1089.15	208.35
1012.5216	2859.2679	1088.1	205.7
1012.6389	2860.4118	1089.75	207.1
1012.7561	2861.555	1097.4	210.9
1012.8733	2862.6976	1097.6	214.05
1012.9905	2863.8395	1094.05	211.35
1013.1076	2864.9808	1098.65	215.65
1013.2247	2866.1214	1095.15	214
1013.3417	2867.2614	1099.8	217.35
1013.4587	2868.4007	1098.65	215.1
1013.5757	2869.5393	1103.35	219.15
1013.6926	2870.6773	1102.3	217.75
1013.8095	2871.8146	1105.45	221.25
1013.9263	2872.9513	1105.85	221.6
1014.0431	2874.0874	1098.4	218.3
1014.1599	2875.2227	1106	224.6
1014.2766	2876.3574	1103.5	221.9
1014.3933	2877.4915	1106.75	226
1014.51	2878.6249	1101.3	219.55
1014.6266	2879.7577	1098.55	214.7
1014.7431	2880.8898	1110.75	217.65
1014.8596	2882.0212	1101.35	220.4
1014.9761	2883.152	1098.7	217.1
1015.0925	2884.2821	1098.75	218.6
1015.2089	2885.4116	1097.3	215.05
1015.3253	2886.5405	1098.95	216.2
1015.4416	2887.6686	1101.25	215.2
1015.5579	2888.7962	1099.15	219.3
1015.6741	2889.923	1101.8	221.45
1015.7903	2891.0493	1102.65	220.9
1015.9065	2892.1748	1103.15	222.85
1016.0226	2893.2997	1098.45	214.6
1016.1387	2894.424	1097.2	216.8
1016.2547	2895.5476	1099.95	219.1
1016.3707	2896.6706	1103.55	222.65
1016.4866	2897.7929	1096.8	214.8
1016.6025	2898.9145	1104.25	222.35
1016.7184	2900.0355	1103	220.35
1016.8342	2901.1559	1102.85	220.3
1016.95	2902.2756	1100.75	220.65
1017.0658	2903.3946	1108.7	229.3
1017.1815	2904.513	1106.6	220.85
1017.2971	2905.6308	1110.45	229.85
1017.4127	2906.7479	1104.65	221.25
1017.5283	2907.8643	1109.75	225.75
1017.6439	2908.9801	1103.5	222.35
1017.7594	2910.0953	1100.35	219.1
1017.8748	2911.2098	1108	222.75
1017.9902	2912.3236	1107.5	218.25
1018.1056	2913.4368	1101.9	216.85
1018.2209	2914.5494	1101.7	220.95
1018.3362	2915.6613	1107.1	218.05
1018.4515	2916.7725	1102.35	217.7
1018.5667	2917.8831	1100	215.45
1018.6819	2918.9931	1089.9	205.15
1018.797	2920.1024	1091.75	209.5
1018.9121	2921.211	1087.1	205.75
1019.0271	2922.319	1082.25	200.3
1019.1421	2923.4264	1082.6	201.55
1019.2571	2924.5331	1080.6	199.8
1019.372	2925.6391	1082.15	201.55
1019.4869	2926.7445	1086.6	205.7
1019.6017	2927.8493	1085.8	203.4
1019.7165	2928.9534	1083.9	201.75
1019.8313	2930.0569	1088.75	203.75
1019.946	2931.1597	1087.35	205.4
1020.0606	2932.2619	1087.45	206.3
1020.1753	2933.3634	1083.65	201.95
1020.2899	2934.4643	1095.7	206.45
1020.4044	2935.5645	1089.95	203.2
1020.5189	2936.6641	1086.1	202.15
1020.6334	2937.763	1086.2	204.8
1020.7478	2938.8613	1081.3	196.9
1020.8622	2939.959	1082.8	197.1
1020.9765	2941.056	1072.3	192.65
1021.0908	2942.1523	1071.15	188.9
1021.2051	2943.248	1068.2	184.85
1021.3193	2944.3431	1060.85	180.05
1021.4334	2945.4375	1058.45	175
1021.5476	2946.5313	1049.4	168.7
1021.6617	2947.6244	1045.55	164.9
1021.7757	2948.7169	1040.05	156.05
1021.8897	2949.8087	1038.55	156.2
1022.0037	2950.8999	1031.85	149.3
1022.1176	2951.9904	1026.6	145.6
1022.2315	2953.0803	1024.5	143.5
1022.3453	2954.1696	1015.7	134.95
1022.4591	2955.2582	1011.7	130.2
1022.5728	2956.3462	1015.5	132.65
1022.6865	2957.4335	1012.9	129.35
1022.8002	2958.5202	1011.45	129.25
1022.9138	2959.6062	1008.25	126.65
1023.0274	2960.6916	1009.8	128.4
1023.141	2961.7764	1007.05	124.2
1023.2545	2962.8605	1006.9	123.55
1023.3679	2963.9439	1004.5	124
1023.4813	2965.0267	1004.3	121.25
1023.5947	2966.1089	1027.6	122.25
1023.708	2967.1905	1003.4	121.5
1023.8213	2968.2714	1003.6	122.75
1023.9346	2969.3516	1008.05	127.95
1024.0478	2970.4312	1010.8	121
1024.1609	2971.5102	1002.75	119.45
1024.274	2972.5885	996.6	115.4
1024.3871	2973.6662	1006.9	120.3
1024.5002	2974.7432	999.65	119.95
1024.6132	2975.8196	1000.3	118.6
1024.7261	2976.8954	1002.1	120.25
1024.839	2977.9705	999.5	119.1
1024.9519	2979.045	996.3	115.55
1025.0647	2980.1188	1002.05	120.75
1025.1775	2981.192	997.55	116.65
1025.2902	2982.2645	996.45	113.95
1025.4029	2983.3364	997.7	116.55
1025.5156	2984.4077	996.15	114.55
1025.6282	2985.4783	995.35	106.6
1025.7407	2986.5483	989.45	108.95
1025.8532	2987.6177	985.2	103.8
1025.9657	2988.6864	984.2	99.4
1026.0782	2989.7545	986.75	105.15
1026.1906	2990.8219	982.1	101.7
1026.3029	2991.8887	983	99
1026.4152	2992.9548	978.35	93.9
1026.5275	2994.0204	973.45	92.25
1026.6397	2995.0852	968.7	87.3
1026.7519	2996.1495	974.35	90.95
1026.864	2997.2131	966.95	85.9
1026.9761	2998.276	965	84.65
1027.0882	2999.3383	966.15	83.5
1027.2002	3000.4	963.1	80.15
1027.3122	3001.4611	961.85	78.75
1027.4241	3002.5215	960.35	78.25
1027.536	3003.5812	956.35	75.85
1027.6478	3004.6404	955.75	74.5
1027.7596	3005.6989	959	76.75
1027.8714	3006.7567	958.55	77.35
1027.9831	3007.8139	976.4	75.7
1028.0947	3008.8705	953.6	74.15
1028.2064	3009.9264	972.9	73.9
1028.3179	3010.9818	956.15	74
1028.4295	3012.0364	954.3	73.05
1028.541	3013.0905	951.15	70.4
1028.6524	3014.1439	952.35	69.9
1028.7638	3015.1966	950.5	67.65
1028.8752	3016.2487	950.05	68.5
1028.9865	3017.3002	955.5	69.65
1029.0978	3018.3511	946.95	68.05
1029.209	3019.4013	951.15	70.1
1029.3202	3020.4509	946.45	67.15
1029.4314	3021.4998	950.25	71.1
1029.5425	3022.5481	947.55	66.4
1029.6535	3023.5958	949.35	69.8
1029.7645	3024.6428	948.8	65.9
1029.8755	3025.6892	946.7	65.35
1029.9864	3026.735	945.15	60.65
1030.0973	3027.7802	946.25	65.4
1030.2082	3028.8247	946.8	64.6
1030.319	3029.8685	946.55	63.85
1030.4297	3030.9118	947.1	63
1030.5404	3031.9544	943.2	60.55
1030.6511	3032.9963	941.25	59.8
1030.7617	3034.0376	946.45	65
1030.8723	3035.0783	948.75	65.65
1030.9829	3036.1184	946.05	61.8
1031.0934	3037.1578	945.35	64.05
1031.2038	3038.1966	950.1	69.1
1031.3142	3039.2348	945.25	64.05
1031.4246	3040.2723	954.8	64.55
1031.5349	3041.3092	944.4	63.55
1031.6452	3042.3455	943.95	61.25
1031.7554	3043.3811	944.45	64.2
1031.8656	3044.4161	943.2	61.6
1031.9758	3045.4505	941.7	60.85
1032.0859	3046.4842	943.05	60.85
1032.1959	3047.5173	941.6	60.05
1032.3059	3048.5498	945.4	65.3
1032.4159	3049.5816	943.05	61.4
1032.5258	3050.6128	942.6	61.2
1032.6357	3051.6434	945.35	62.75
1032.7455	3052.6734	944.15	61.5
1032.8553	3053.7027	944.55	62.5
1032.9651	3054.7314	942.6	63.05
1033.0748	3055.7594	941.35	59.8
1033.1845	3056.7868	943.4	61.9
1033.2941	3057.8136	941.45	59.9
1033.4037	3058.8398	939.95	59.75
1033.5132	3059.8653	938.7	55.6
1033.6227	3060.8902	938.85	56.9
1033.7321	3061.9145	939.3	57.45
1033.8415	3062.9381	942.45	61.25
1033.9509	3063.9612	956.2	59.2
1034.0602	3064.9835	939.45	58.55
1034.1694	3066.0053	940.6	57.6
1034.2787	3067.0264	941.65	59.5
1034.3878	3068.0469	940.75	58.2
1034.497	3069.0668	941.45	58.25
1034.6061	3070.086	942.05	61.3
1034.7151	3071.1046	938.65	53.55
1034.8241	3072.1226	939.3	55.35
1034.9331	3073.1399	936.8	52.65
1035.042	3074.1567	934.4	51.95
1035.1508	3075.1727	939.25	56
1035.2597	3076.1882	936.45	57.15
1035.3684	3077.203	935.75	55.55
1035.4772	3078.2173	934.25	51.2
1035.5859	3079.2308	935.85	51.8
1035.6945	3080.2438	936.05	54.7
1035.8031	3081.2561	935.35	52.15
1035.9117	3082.2678	932.2	49.6
1036.0202	3083.2789	934.2	52.45
1036.1286	3084.2893	931.75	50.6
1036.2371	3085.2991	932.05	50.8
1036.3454	3086.3083	935.85	50.3
1036.4538	3087.3169	932.15	49.8
1036.562	3088.3248	931.55	48.5
1036.6703	3089.3321	930.25	48.3
1036.7785	3090.3388	927.15	48.45
1036.8866	3091.3449	929.35	48.3
1036.9948	3092.3503	931.8	49.3
1037.1028	3093.3551	927.45	47.35
1037.2108	3094.3593	929.1	50.45
1037.3188	3095.3629	927.5	46.9
1037.4267	3096.3658	928.75	46.4
1037.5346	3097.3681	930.15	46.6
1037.6425	3098.3698	927.8	44.85
1037.7503	3099.3708	934.8	46
1037.858	3100.3713	925.85	45.7
1037.9657	3101.3711	928.45	45.6
1038.0734	3102.3702	1062.8	44.45
1038.181	3103.3688	927.1	44.4
1038.2886	3104.3667	924.65	44.4
1038.3961	3105.364	922.05	41.65
1038.5036	3106.3607	927.2	44.65
1038.611	3107.3568	925.3	41.9
1038.7184	3108.3522	922.55	42.55
1038.8257	3109.347	924.9	40.4
1038.933	3110.3412	924.6	39.2
1039.0403	3111.3348	923.15	42.2
1039.1475	3112.3277	921.35	39.3
1039.2547	3113.32	919.15	39.25
1039.3618	3114.3117	924.4	43.25
1039.4689	3115.3028	920.7	40.4
1039.5759	3116.2932	924.75	41.1
1039.6829	3117.2831	926.95	39.95
1039.7898	3118.2723	922.2	39.1
1039.8967	3119.2608	921.55	39.3
1040.0035	3120.2488	920.55	38.85
1040.1103	3121.2361	920.25	37.3
1040.2171	3122.2229	921.8	41.7
1040.3238	3123.209	919.95	37.85
1040.4305	3124.1944	919.65	37.5
1040.5371	3125.1793	921.7	39.8
1040.6437	3126.1635	919.6	38.2
1040.7502	3127.1471	918.45	38.95
1040.8567	3128.1301	918.6	37.2
1040.9631	3129.1125	917.15	36.2
1041.0695	3130.0942	917.05	34.75
1041.1759	3131.0753	927	35.7
1041.2822	3132.0558	923.85	39.6
1041.3884	3133.0357	918.85	35.9
1041.4946	3134.015	917.25	35.3
1041.6008	3134.9936	918.1	35.45
1041.7069	3135.9716	941.75	39.7
1041.813	3136.949	914.65	31.8
1041.919	3137.9258	934.4	33.35
1042.025	3138.902	922.15	35.05
1042.1309	3139.8775	916.35	34.25
1042.2368	3140.8524	914.75	34.7
1042.3427	3141.8267	918.05	35.9
1042.4485	3142.8004	914.9	33.35
1042.5542	3143.7735	920.4	33.6
1042.6599	3144.7459	918.75	33.55
1042.7656	3145.7178	916.55	34.05
1042.8712	3146.689	914.2	31.9
1042.9768	3147.6596	915.3	30.75
1043.0823	3148.6295	915	33.1
1043.1878	3149.5989	913.5	31.15
1043.2932	3150.5676	914.4	34.35
1043.3986	3151.5357	915.95	35.5
1043.5039	3152.5032	911.7	31.7
1043.6092	3153.4701	912	32.15
1043.7145	3154.4364	916.25	32.1
1043.8197	3155.402	911.3	32.1
1043.9248	3156.367	917	35.2
1044.03	3157.3315	934.05	33.3
1044.135	3158.2952	915.7	33.35
1044.24	3159.2584	913.15	29.9
1044.345	3160.221	914.85	33.75
1044.4499	3161.1829	912.6	30.55
1044.5548	3162.1442	910.15	28.35
1044.6596	3163.105	911.25	29.9
1044.7644	3164.065	914.5	33.05
1044.8692	3165.0245	912.9	27.85
1044.9739	3165.9834	909.65	30.65
1045.0785	3166.9416	911.1	30.75
1045.1831	3167.8993	911.95	29.45
1045.2877	3168.8563	910.25	28.1
1045.3922	3169.8127	911.9	31.7
1045.4966	3170.7684	908.9	27.9
1045.6011	3171.7236	911.7	27.45
1045.7054	3172.6782	913.2	32
1045.8098	3173.6321	908.75	26.7
1045.914	3174.5854	913.7	27.1
1046.0183	3175.5381	909.35	27.35
1046.1224	3176.4902	908.35	27.45
1046.2266	3177.4417	909.35	28.85
1046.3307	3178.3926	908.3	27.95
1046.4347	3179.3428	906.05	26.4
1046.5387	3180.2924	907.2	25.3
1046.6427	3181.2415	909.05	28
1046.7466	3182.1899	911.5	27.45
1046.8504	3183.1377	908.05	25.4
1046.9542	3184.0848	911.9	27.65
1047.058	3185.0314	907.7	24.5
1047.1617	3185.9773	908	25.5
1047.2654	3186.9227	910.5	27.8
1047.369	3187.8674	906	23.6
1047.4726	3188.8115	909.15	22.95
1047.5761	3189.755	903.85	22.05
1047.6796	3190.6979	904.3	23.5
1047.783	3191.6402	907.9	27.2
1047.8864	3192.5818	906.35	25.6
1047.9898	3193.5229	912.2	25.3
1048.0931	3194.4633	907.15	26.05
1048.1963	3195.4031	907.55	25.7
1048.2995	3196.3423	907.75	26.2
1048.4027	3197.2809	905.55	23.55
1048.5058	3198.2189	908.9	26.55
1048.6089	3199.1563	914.2	26.35
1048.7119	3200.0931	904.35	23.95
1048.8148	3201.0292	905.55	25.8
1048.9178	3201.9648	904.45	21.65
1049.0206	3202.8997	906.8	21.55
1049.1235	3203.834	906.9	25
1049.2262	3204.7677	905.75	24.85
1049.329	3205.7008	906.7	22.25
1049.4317	3206.6333	904.4	24.55
1049.5343	3207.5652	909.25	24.4
1049.6369	3208.4964	907.15	25.95
1049.7394	3209.4271	904.7	23.6
1049.8419	3210.3571	906.25	24.55
1049.9444	3211.2865	905.6	21.9
1050.0468	3212.2154	906	20.05
1050.1491	3213.1436	906.85	22.8
1050.2514	3214.0712	911.6	23.95
1050.3537	3214.9982	906.55	25.25
1050.4559	3215.9246	907.65	24.25
1050.5581	3216.8503	900.85	21.55
1050.6602	3217.7755	904.95	22.2
1050.7623	3218.7001	903.35	24.1
1050.8643	3219.624	902.9	22.15
1050.9663	3220.5473	903.85	22.7
1051.0682	3221.4701	904.75	22.75
1051.1701	3222.3922	905.15	22.5
1051.2719	3223.3137	905.45	23.1
1051.3737	3224.2346	903.75	22.15
1051.4754	3225.1549	900.8	18.75
1051.5771	3226.0746	901.5	19.2
1051.6788	3226.9937	904.15	23.45
1051.7804	3227.9121	902.15	21.8
1051.8819	3228.83	901.4	19.9
1051.9834	3229.7473	902.65	19.95
1052.0849	3230.6639	902.6	21.35
1052.1863	3231.5799	903.1	22.5
1052.2876	3232.4954	903.85	21.65
1052.3889	3233.4102	901.05	20.1
1052.4902	3234.3244	902.95	23.6
1052.5914	3235.238	900.65	17
1052.6926	3236.151	928.05	19.95
1052.7937	3237.0634	899.3	18.3
1052.8948	3237.9752	900.75	18.9
1052.9958	3238.8864	902.25	19.65
1053.0968	3239.797	901.2	19
1053.1977	3240.7069	903.8	21.65
1053.2986	3241.6163	904.4	20.55
1053.3994	3242.5251	900.35	20.6
1053.5002	3243.4332	900.85	20.25
1053.6009	3244.3408	901.3	18.25
1053.7016	3245.2477	900.05	19.75
1053.8022	3246.154	901.1	20.55
1053.9028	3247.0598	901.8	18.75
1054.0034	3247.9649	900.9	19.15
1054.1039	3248.8694	900.7	18.9
1054.2043	3249.7733	899.35	17.75
1054.3047	3250.6766	901.05	20.35
1054.4051	3251.5793	902.35	20.75
1054.5054	3252.4814	899.9	18.9
1054.6056	3253.3829	899.35	17.45
1054.7058	3254.2838	899.95	19.2
1054.806	3255.1841	899.85	17.6
1054.9061	3256.0838	899.3	17.25
1055.0061	3256.9829	897.95	17.5
1055.1062	3257.8814	901.05	17.95
1055.2061	3258.7792	901.95	18.2
1055.306	3259.6765	900.65	17.05
1055.4059	3260.5731	899	16.1
1055.5057	3261.4692	898.85	17.85
1055.6055	3262.3647	896.65	16.75
1055.7052	3263.2595	898.6	17.95
1055.8049	3264.1538	897.35	16.4
1055.9045	3265.0474	899.15	18.15
1056.0041	3265.9404	896.05	15.2
1056.1036	3266.8329	895.6	15.15
1056.2031	3267.7247	903.3	12.65
1056.3025	3268.616	896.7	17.2
1056.4019	3269.5066	897.5	15.5
1056.5013	3270.3966	899.3	15.15
1056.6005	3271.286	894.35	11.7
