Software Version:	3.9.2.0
Unit SN:	10000200
Spectrometer SN:	6960
Date:	3/26/2024 1:12:27 PM
Data Line Index:	25
Spectral Points:	2048
Integration time (ms):	125
Averages:	20
Delay (ms):	30000
Sequence Number:	1
Processing:	dark subtract
Laser Power (mW):	305
Laser Current (mA):	818
Laser Diode Temp (C):	25
Laser Case Temp (C):	26.3
System Temp (C):	26.2
Spectrometer Temp (C):	24
CCD Temp (C):	0.007
Secondary Temp (C):	20.016
Heatsink Temp (C):	21.854
CCDPCB Temp (C):	36.374
SecondaryPCB Temp (C):	32.572

Wavelength	RamanShift	Raw Counts	Dark Subtracted
787.061	30.1047	426.1	13.35
787.2016	32.3739	425.3	15.3
787.3422	34.6426	427.65	15.5
787.4828	36.9109	430.85	17.6
787.6235	39.1787	435.5	16.9
787.7642	41.4461	438.75	16.75
787.9049	43.7131	442.85	18.3
788.0456	45.9796	446.55	19.2
788.1863	48.2456	455.55	24.85
788.3271	50.5112	457.5	19.85
788.4679	52.7764	462.45	23.4
788.6087	55.0411	466.95	24.4
788.7496	57.3054	473	26.65
788.8904	59.5692	477.4	30.2
789.0313	61.8326	482	28.85
789.1722	64.0955	492.1	36.6
789.3132	66.3579	497.65	36.7
789.4541	68.6199	507.2	44.85
789.5951	70.8815	519.7	53.25
789.7361	73.1426	541.45	72.1
789.8771	75.4032	593.7	120.55
790.0181	77.6634	708.85	231.3
790.1592	79.9231	990.45	508.45
790.3003	82.1824	1575.1	1086.55
790.4414	84.4412	2570.7	2079.2
790.5825	86.6995	3937.75	3440.1
790.7237	88.9574	5298.8	4792.3
790.8648	91.2148	6294.8	5786.95
791.006	93.4717	6851.45	6339.3
791.1472	95.7282	7066.1	6551.1
791.2885	97.9842	7170	6652.45
791.4297	100.2398	7147.4	6628.95
791.571	102.4949	7134.45	6611.75
791.7123	104.7495	7109.3	6581.8
791.8536	107.0036	7067.6	6539.1
791.9949	109.2573	7032.5	6506.55
792.1363	111.5105	6999	6471.05
792.2777	113.7632	6932.8	6400.2
792.4191	116.0154	6872.1	6330.6
792.5605	118.2672	6830.25	6295.8
792.7019	120.5185	6757	6220.1
792.8434	122.7693	6687.1	6148.55
792.9849	125.0197	6638.25	6094.2
793.1264	127.2696	6599.45	6055.95
793.2679	129.519	6573.3	6027.8
793.4094	131.7679	6554.9	6007.2
793.551	134.0163	6554.7	6001.05
793.6926	136.2642	6545.4	5987.2
793.8342	138.5117	6524.35	5956.75
793.9758	140.7587	6515.45	5952.5
794.1175	143.0052	6470.7	5906.1
794.2591	145.2512	6439.9	5874.6
794.4008	147.4967	6389.95	5821.5
794.5425	149.7417	6369.1	5798.8
794.6842	151.9863	6324.45	5753.35
794.826	154.2304	6315.55	5739.2
794.9677	156.4739	6316.35	5735.9
795.1095	158.717	6306.6	5725.65
795.2513	160.9596	6306.3	5719.75
795.3931	163.2017	6316.4	5727.3
795.535	165.4433	6325.95	5734.4
795.6768	167.6844	6284.2	5693.15
795.8187	169.925	6284.75	5688.6
795.9606	172.1651	6241.9	5644
796.1025	174.4047	6203.95	5602.45
796.2445	176.6439	6160.2	5553.85
796.3864	178.8825	6143.55	5536.25
796.5284	181.1206	6148.8	5537.15
796.6704	183.3582	6115.5	5500.3
796.8124	185.5954	6112.6	5497.9
796.9544	187.832	6101.8	5482.45
797.0965	190.0681	6108.2	5485.25
797.2386	192.3037	6104.75	5478.5
797.3806	194.5388	6105.45	5476.35
797.5228	196.7734	6107.55	5477.65
797.6649	199.0075	6124.7	5489.5
797.807	201.2411	6146.15	5508.5
797.9492	203.4742	6151.8	5514.85
798.0914	205.7068	6180.4	5540.55
798.2336	207.9389	6171.95	5531
798.3758	210.1704	6180.85	5539.6
798.518	212.4015	6173.35	5526.95
798.6603	214.632	6180.8	5534.9
798.8025	216.862	6165.9	5525.1
798.9448	219.0915	6164.8	5531.35
799.0871	221.3205	6170.7	5540.4
799.2294	223.549	6161.15	5534.9
799.3718	225.777	6170.8	5546.4
799.5141	228.0044	6171.65	5544.75
799.6565	230.2314	6171.9	5546.95
799.7989	232.4578	6124.85	5498.35
799.9413	234.6837	6119.2	5485.25
800.0837	236.909	6124.2	5488.55
800.2262	239.1339	6119.2	5460.9
800.3687	241.3582	6099.95	5456.4
800.5111	243.582	6115.7	5438.4
800.6536	245.8053	6116.3	5450.5
800.7961	248.0281	6114.8	5455.35
800.9387	250.2503	6098.1	5431.15
801.0812	252.472	6103.05	5433.15
801.2238	254.6932	6104.75	5431.2
801.3664	256.9139	6091.45	5416.15
801.509	259.134	6102	5423.45
801.6516	261.3536	6115.45	5439.9
801.7942	263.5727	6133.15	5456.55
801.9369	265.7912	6121.3	5442.25
802.0795	268.0092	6167.8	5488.85
802.2222	270.2267	6193.8	5510.25
802.3649	272.4436	6223.45	5540.5
802.5076	274.6601	6252.9	5563.85
802.6504	276.8759	6237.4	5553.1
802.7931	279.0913	6269.2	5581.6
802.9359	281.3061	6260.15	5572.5
803.0787	283.5204	6262.45	5572.2
803.2215	285.7341	6310.3	5615.15
803.3643	287.9473	6301.05	5594.55
803.5071	290.16	6309.65	5609.1
803.6499	292.3721	6288.8	5595
803.7928	294.5837	6249.75	5552.9
803.9357	296.7947	6202.55	5505
804.0786	299.0052	6174.35	5475.5
804.2215	301.2152	6164.55	5463.8
804.3644	303.4246	6154.45	5457.3
804.5074	305.6334	6131.8	5434.3
804.6503	307.8418	6122.3	5420.05
804.7933	310.0495	6111.7	5409.3
804.9363	312.2568	6062.3	5361.25
805.0793	314.4635	6003.8	5300.15
805.2223	316.6696	5986.35	5279.55
805.3653	318.8752	5941.25	5226.95
805.5084	321.0802	5880.65	5171.7
805.6514	323.2847	5883.15	5174.4
805.7945	325.4887	5886.8	5180.4
805.9376	327.692	5881.85	5169.55
806.0807	329.8949	5918.9	5206.25
806.2238	332.0972	5940.7	5225.15
806.367	334.2989	5953.8	5234.1
806.5101	336.5001	5939.2	5222.25
806.6533	338.7007	5933.15	5214.2
806.7965	340.9008	5912.35	5191.8
806.9397	343.1003	5858.5	5137.95
807.0829	345.2992	5830.75	5106.35
807.2261	347.4976	5789.35	5064.15
807.3693	349.6955	5750.9	5022.6
807.5126	351.8927	5733.4	5004.6
807.6559	354.0895	5712.85	4971.1
807.7991	356.2856	5706.95	4977.3
807.9424	358.4812	5695.25	4963.1
808.0857	360.6763	5696.6	4965
808.2291	362.8707	5679.15	4945.7
808.3724	365.0646	5693.75	4958.2
808.5158	367.258	5670.9	4931.3
808.6591	369.4508	5667.05	4926.3
808.8025	371.643	5685.5	4943.95
808.9459	373.8346	5687.25	4942.1
809.0893	376.0257	5722.75	4973.55
809.2327	378.2162	5735.55	4986.75
809.3762	380.4062	5757.9	5006.1
809.5196	382.5956	5715.5	4963.35
809.6631	384.7844	5673.7	4923.95
809.8066	386.9726	5628.3	4875.9
809.9501	389.1603	5585.95	4833.05
810.0936	391.3474	5595.05	4806.45
810.2371	393.5339	5570.65	4817.15
810.3806	395.7199	5544.9	4797.5
810.5241	397.9052	5560.8	4815.3
810.6677	400.09	5573.6	4825.85
810.8113	402.2743	5593.95	4848.9
810.9548	404.4579	5604.75	4863.95
811.0984	406.641	5661.45	4916.75
811.2421	408.8235	5680.05	4934.3
811.3857	411.0054	5752.95	5004.45
811.5293	413.1868	5847.7	5096.1
811.673	415.3675	5909.9	5155.45
811.8166	417.5477	5944.1	5187.85
811.9603	419.7273	5890.7	5135.2
812.104	421.9064	5746.8	4982.25
812.2477	424.0848	5668.7	4910.9
812.3914	426.2627	5595.6	4833.45
812.5351	428.4399	5555.6	4792.5
812.6788	430.6166	5494.7	4724.85
812.8226	432.7928	5453.5	4681.8
812.9663	434.9683	5416.1	4646.2
813.1101	437.1432	5378.25	4606.6
813.2539	439.3176	5348.95	4578.45
813.3977	441.4914	5336.3	4562.75
813.5415	443.6645	5331	4556.65
813.6853	445.8371	5318.1	4540.8
813.8291	448.0091	5304.75	4531.1
813.973	450.1806	5272.75	4498.8
814.1168	452.3514	5264.65	4487.75
814.2607	454.5216	5265.35	4483.5
814.4046	456.6913	5242.9	4465.45
814.5485	458.8603	5249.45	4470.6
814.6924	461.0288	5247.05	4467.7
814.8363	463.1967	5231.35	4453.1
814.9802	465.3639	5238.7	4457.7
815.1241	467.5306	5230.05	4449.75
815.2681	469.6967	5202.3	4420.85
815.412	471.8622	5208.25	4429.15
815.556	474.0271	5198.85	4418.2
815.7	476.1914	5188.85	4401.35
815.844	478.3551	5169.35	4386.8
815.988	480.5182	5175.95	4388.3
816.132	482.6807	5186.7	4402.25
816.276	484.8426	5207.7	4424.75
816.4201	487.0039	5223.35	4436.4
816.5641	489.1647	5274.55	4488.15
816.7082	491.3248	5288.3	4503.4
816.8522	493.4843	5297.85	4511.7
816.9963	495.6432	5304.15	4517.2
817.1404	497.8015	5262.85	4470.4
817.2845	499.9592	5238.85	4449.25
817.4286	502.1163	5212.7	4422.8
817.5727	504.2728	5169.15	4375.3
817.7168	506.4287	5159.5	4370.3
817.861	508.5839	5132.7	4341.85
818.0051	510.7386	5123.1	4331.3
818.1493	512.8927	5133.9	4334.45
818.2935	515.0461	5138.75	4341.75
818.4377	517.199	5151.2	4357.4
818.5818	519.3512	5162.5	4369.2
818.726	521.5029	5195.3	4395.3
818.8703	523.6539	5241.15	4445.7
819.0145	525.8043	5243.2	4444.7
819.1587	527.9541	5223.25	4422.7
819.303	530.1033	5166.2	4367
819.4472	532.2519	5119.1	4318.8
819.5915	534.3999	5105.9	4302.55
819.7357	536.5472	5096.85	4295
819.88	538.694	5086.15	4284.65
820.0243	540.8401	5111.5	4308.95
820.1686	542.9856	5121.4	4317.5
820.3129	545.1305	5124.5	4320.1
820.4572	547.2748	5162.7	4357.45
820.6016	549.4185	5152.85	4345.4
820.7459	551.5615	5129.25	4324.65
820.8902	553.704	5160.5	4353.65
821.0346	555.8458	5163.1	4357.95
821.1789	557.987	5174.65	4369.35
821.3233	560.1276	5168.5	4360.1
821.4677	562.2675	5231.5	4425.9
821.6121	564.4069	5276.95	4471.2
821.7565	566.5456	5286.7	4480.85
821.9009	568.6837	5287.2	4482
822.0453	570.8212	5238.15	4432.75
822.1897	572.958	5188.55	4380.25
822.3342	575.0942	5153.45	4345.65
822.4786	577.2299	5111.6	4301.75
822.6231	579.3648	5083.65	4278.15
822.7675	581.4992	5026.95	4217.35
822.912	583.6329	5008.75	4199.2
823.0565	585.766	5034.1	4224.15
823.201	587.8985	5052.05	4244.05
823.3454	590.0304	5108.55	4284.35
823.4899	592.1616	5097.75	4283.65
823.6345	594.2922	5096.95	4284.25
823.779	596.4222	5079.95	4266.95
823.9235	598.5515	5038.5	4223.5
824.068	600.6802	4971.9	4156.55
824.2126	602.8083	4940.55	4123.55
824.3571	604.9358	4930.6	4114.8
824.5017	607.0626	4898.55	4081.45
824.6462	609.1888	4918.25	4099.1
824.7908	611.3144	4929.9	4112.35
824.9354	613.4393	4956.4	4137.95
825.08	615.5636	4995.35	4177.1
825.2246	617.6873	5023.1	4204.65
825.3692	619.8103	5055.65	4234.9
825.5138	621.9327	5052.55	4232
825.6584	624.0544	5026.1	4209.35
825.803	626.1756	4985.05	4166.7
825.9477	628.2961	4940.65	4120.1
826.0923	630.4159	4921	4100.65
826.237	632.5351	4922.3	4100.8
826.3816	634.6537	4903	4079.5
826.5263	636.7716	4897.25	4074
826.6709	638.8889	4889.3	4066
826.8156	641.0056	4913.7	4093.2
826.9603	643.1216	4914.1	4090.45
827.105	645.237	4935.3	4109.4
827.2497	647.3518	4905.45	4080.85
827.3944	649.4659	4872.2	4046.75
827.5391	651.5793	4861.45	4034.75
827.6838	653.6922	4838.75	4013.55
827.8285	655.8043	4809.6	3984.8
827.9733	657.9159	4820	3991.15
828.118	660.0268	4797.95	3969.55
828.2627	662.137	4791.95	3965.35
828.4075	664.2466	4816.25	3985.2
828.5522	666.3556	4809.95	3979.6
828.697	668.4639	4782.45	3950.55
828.8418	670.5716	4791	3963.1
828.9865	672.6786	4767.75	3936.55
829.1313	674.785	4767.5	3936.2
829.2761	676.8907	4761.1	3930.65
829.4209	678.9958	4749.55	3919.6
829.5657	681.1002	4736.55	3903.4
829.7105	683.204	4747.9	3913.25
829.8553	685.3072	4731.75	3896.9
830.0001	687.4097	4740.45	3906.8
830.1449	689.5115	4742.15	3907.4
830.2898	691.6127	4729.85	3895.95
830.4346	693.7132	4722.25	3887.7
830.5794	695.8131	4732.5	3881.8
830.7243	697.9123	4720.3	3882
830.8691	700.0109	4730.2	3893.2
831.014	702.1089	4743.05	3910.35
831.1588	704.2061	4737.45	3903.2
831.3037	706.3028	4761.35	3926.85
831.4486	708.3987	4759.4	3922
831.5935	710.4941	4767.45	3932.35
831.7383	712.5887	4773.45	3935.15
831.8832	714.6827	4785.25	3941.65
832.0281	716.7761	4770.45	3933.4
832.173	718.8688	4783.65	3943.9
832.3179	720.9608	4753.5	3910.25
832.4628	723.0522	4760.3	3918.6
832.6077	725.1429	4761.5	3922.65
832.7527	727.233	4798.95	3961.8
832.8976	729.3224	4842.6	4003
833.0425	731.4112	4864.8	4022.4
833.1874	733.4993	4886.35	4044.25
833.3324	735.5867	4875.6	4032.15
833.4773	737.6735	4816.15	3972.55
833.6222	739.7596	4770.2	3925.75
833.7672	741.845	4753.4	3911.95
833.9122	743.9298	4763.85	3919.65
834.0571	746.014	4767.05	3925.65
834.2021	748.0974	4749.6	3904.15
834.347	750.1802	4756.6	3911
834.492	752.2624	4734.7	3889.9
834.637	754.3439	4704.35	3859.4
834.782	756.4247	4690.2	3836.25
834.9269	758.5048	4659.8	3816.5
835.0719	760.5843	4665.35	3820.3
835.2169	762.6631	4667.7	3821.6
835.3619	764.7413	4688.4	3843.25
835.5069	766.8188	4731.4	3884.3
835.6519	768.8956	4768.05	3920.25
835.7969	770.9718	4844.3	3996.85
835.9419	773.0473	4811.1	3966.6
836.0869	775.1221	4779.7	3933.5
836.232	777.1962	4751.55	3904.6
836.377	779.2697	4797.95	3949.7
836.522	781.3426	4867.45	4000.75
836.667	783.4147	4904.65	4054.1
836.8121	785.4862	4906.45	4060.25
836.9571	787.557	4837.45	3988.35
837.1021	789.6271	4747.25	3898.8
837.2472	791.6966	4650.1	3799.75
837.3922	793.7654	4567.4	3715.5
837.5373	795.8335	4524.3	3673.9
837.6823	797.901	4497.1	3648.25
837.8274	799.9678	4467.2	3615.65
837.9724	802.0339	4458.6	3610.65
838.1175	804.0993	4473.4	3611.7
838.2626	806.1641	4463.7	3612.55
838.4076	808.2282	4436.2	3587.1
838.5527	810.2916	4421.55	3569.35
838.6978	812.3544	4408.7	3557.8
838.8428	814.4164	4393.4	3542.55
838.9879	816.4778	4395.15	3542.65
839.133	818.5385	4397.8	3546.9
839.2781	820.5986	4429.75	3576.55
839.4232	822.658	4441.85	3587.95
839.5682	824.7166	4467	3616.4
839.7133	826.7747	4552.3	3702.95
839.8584	828.832	4580.85	3728.75
840.0035	830.8886	4614.45	3761.75
840.1486	832.9446	4644.1	3791
840.2937	834.9999	4624.4	3773.7
840.4388	837.0545	4578.75	3723.95
840.5839	839.1085	4528.35	3675.2
840.729	841.1618	4459.75	3601.7
840.8741	843.2143	4398	3543.85
841.0192	845.2662	4360.8	3505.65
841.1643	847.3175	4355	3501.2
841.3095	849.368	4336.85	3485.1
841.4546	851.4179	4329.9	3473.55
841.5997	853.467	4305.1	3452.45
841.7448	855.5155	4297.55	3441.5
841.8899	857.5633	4304.4	3450.9
842.0351	859.6105	4287.3	3431.45
842.1802	861.6569	4284.4	3429.05
842.3253	863.7027	4244.7	3388.7
842.4704	865.7478	4263.2	3407.4
842.6156	867.7922	4237.95	3383.45
842.7607	869.8359	4232.5	3376.8
842.9058	871.8789	4226.65	3370.4
843.0509	873.9212	4236.15	3347.85
843.1961	875.9629	4211.05	3353.6
843.3412	878.0039	4225.4	3368.35
843.4863	880.0441	4215.7	3358.7
843.6315	882.0837	4234.3	3375.2
843.7766	884.1226	4231.5	3373.45
843.9218	886.1609	4257.1	3400.55
844.0669	888.1984	4268.5	3410.25
844.212	890.2352	4324.75	3468.05
844.3572	892.2714	4313.4	3451.9
844.5023	894.3069	4311.85	3452.35
844.6475	896.3416	4266.6	3406.25
844.7926	898.3757	4224.9	3365.5
844.9377	900.4091	4187	3327
845.0829	902.4418	4180.3	3315.7
845.228	904.4739	4188.6	3327.25
845.3732	906.5052	4202.2	3339.65
845.5183	908.5358	4197.8	3337.7
845.6635	910.5658	4186.45	3323.55
845.8086	912.595	4151.45	3292.35
845.9538	914.6236	4110.8	3250.85
846.0989	916.6515	4081.05	3220.05
846.2441	918.6786	4050.8	3188.6
846.3892	920.7051	4053.35	3189.4
846.5344	922.7309	4053.35	3193.15
846.6795	924.756	4043.3	3180.65
846.8246	926.7804	4052.15	3189.7
846.9698	928.8041	4001.65	3140.2
847.1149	930.8272	4035.1	3171
847.2601	932.8495	4030.6	3166.45
847.4052	934.8711	4033.15	3170.1
847.5504	936.892	4015.4	3152.75
847.6955	938.9123	4025.95	3162.75
847.8407	940.9318	4036.6	3173.7
847.9858	942.9506	4045.05	3181.5
848.131	944.9688	4043.65	3178.85
848.2761	946.9862	4018.05	3154.8
848.4213	949.003	3980.85	3116.45
848.5664	951.019	3948	3083.15
848.7115	953.0344	3906.55	3042.3
848.8567	955.0491	3899.25	3033.25
849.0018	957.063	3893.35	3031
849.147	959.0763	3892.85	3022.6
849.2921	961.0888	3877.35	3010.9
849.4373	963.1007	3863.55	2998.4
849.5824	965.1119	3850.55	2985.6
849.7275	967.1223	3851.5	2986.65
849.8727	969.1321	3840.35	2977.4
850.0178	971.1412	3834.85	2970.65
850.1629	973.1495	3818.4	2953.9
850.3081	975.1572	3839.45	2955.2
850.4532	977.1641	3808.9	2945.55
850.5983	979.1704	3797.35	2932.6
850.7435	981.1759	3778.4	2910.35
850.8886	983.1808	3782.55	2915.65
851.0337	985.1849	3781.95	2903.9
851.1788	987.1884	3756.5	2889.25
851.324	989.1911	3757.75	2889.1
851.4691	991.1932	3760.05	2889.65
851.6142	993.1945	3736.55	2869.75
851.7593	995.1951	3733.4	2867.7
851.9045	997.1951	3718.9	2847.65
852.0496	999.1943	3706.05	2840.9
852.1947	1001.1928	3691.1	2824.95
852.3398	1003.1906	3692.35	2825.25
852.4849	1005.1877	3695.25	2827.6
852.63	1007.1841	3695.05	2828.5
852.7751	1009.1798	3698.65	2830.85
852.9202	1011.1748	3687	2819.55
853.0653	1013.1691	3668.5	2800.2
853.2104	1015.1627	3633.3	2764.3
853.3555	1017.1556	3591.3	2721.6
853.5006	1019.1477	3580.2	2710.35
853.6457	1021.1392	3540.15	2674.2
853.7908	1023.1299	3525.95	2659.1
853.9359	1025.12	3521.3	2652.5
854.081	1027.1093	3497.8	2631.5
854.2261	1029.0979	3508.9	2642.55
854.3712	1031.0859	3515.15	2649.4
854.5163	1033.0731	3516.2	2646.05
854.6613	1035.0596	3510.8	2641.2
854.8064	1037.0454	3491.5	2621.65
854.9515	1039.0304	3490.9	2620.85
855.0965	1041.0148	3456.7	2586.8
855.2416	1042.9985	3430.3	2559.4
855.3867	1044.9814	3412.2	2544.5
855.5317	1046.9636	3408.65	2537.4
855.6768	1048.9452	3387.35	2517.5
855.8219	1050.926	3401.2	2533.65
855.9669	1052.9061	3395.9	2526.45
856.112	1054.8855	3399.85	2529.05
856.257	1056.8642	3395.7	2527
856.4021	1058.8421	3396.7	2522.05
856.5471	1060.8194	3371.8	2502
856.6921	1062.7959	3379.6	2507.4
856.8372	1064.7717	3360.35	2486.9
856.9822	1066.7469	3355.2	2482.95
857.1272	1068.7213	3344.45	2469.4
857.2723	1070.695	3345.6	2475.85
857.4173	1072.6679	3349.3	2478.4
857.5623	1074.6402	3354.95	2483.5
857.7073	1076.6117	3387.2	2511.9
857.8523	1078.5826	3366.6	2493.65
857.9973	1080.5527	3312.1	2438.25
858.1423	1082.5221	3283.5	2411.4
858.2873	1084.4908	3259.5	2387.2
858.4323	1086.4587	3238.45	2367.5
858.5773	1088.426	3219	2345.8
858.7223	1090.3925	3223.25	2348.2
858.8673	1092.3584	3213.2	2342.2
859.0123	1094.3235	3197.4	2323.9
859.1573	1096.2879	3210.75	2337.2
859.3022	1098.2515	3210.75	2338
859.4472	1100.2145	3233.25	2361.15
859.5922	1102.1767	3245.8	2370.75
859.7371	1104.1382	3273.2	2400.4
859.8821	1106.099	3306.4	2430.65
860.027	1108.0591	3344.1	2470.25
860.172	1110.0185	3349.5	2474.95
860.3169	1111.9771	3384.55	2510.25
860.4619	1113.9351	3380.95	2505.8
860.6068	1115.8923	3428.5	2554.1
860.7517	1117.8488	3461.85	2587.3
860.8967	1119.8045	3415.3	2542.5
861.0416	1121.7596	3360.45	2485
861.1865	1123.7139	3275.85	2401
861.3314	1125.6675	3223.35	2349
861.4763	1127.6204	3211.85	2338.75
861.6212	1129.5726	3213.25	2336.7
861.7661	1131.524	3204.25	2331.05
861.911	1133.4748	3173.9	2301.15
862.0559	1135.4248	3123.75	2248.4
862.2008	1137.3741	3088.9	2216.35
862.3457	1139.3226	3067.4	2191.45
862.4905	1141.2705	3057.35	2183.55
862.6354	1143.2176	3058.7	2177.65
862.7803	1145.164	3060.9	2185.15
862.9251	1147.1097	3042.25	2166.5
863.07	1149.0546	3034.75	2158.5
863.2148	1150.9989	3004.1	2128.65
863.3597	1152.9424	2985.05	2111.45
863.5045	1154.8852	2971.05	2093.85
863.6493	1156.8272	2962.05	2087.65
863.7942	1158.7686	2958.85	2077
863.939	1160.7092	2939.5	2066.45
864.0838	1162.6491	2947	2067.4
864.2286	1164.5883	2951.95	2077.7
864.3734	1166.5267	2959.5	2081.65
864.5182	1168.4644	2961.5	2085.35
864.663	1170.4014	2990.6	2109.55
864.8078	1172.3377	3008.15	2132.8
864.9526	1174.2732	3040.2	2165.05
865.0974	1176.2081	3091.5	2218.75
865.2421	1178.1421	3162.25	2281.65
865.3869	1180.0755	3244.7	2369.55
865.5317	1182.0082	3293.8	2416.55
865.6764	1183.9401	3307.75	2431
865.8212	1185.8713	3235.8	2361.4
865.9659	1187.8017	3135.6	2260.45
866.1106	1189.7315	3050.65	2173.85
866.2554	1191.6605	2972.25	2096
866.4001	1193.5888	2918.45	2045.1
866.5448	1195.5163	2887.5	2011.3
866.6895	1197.4432	2881.65	2004.35
866.8342	1199.3693	2854.25	1977.55
866.9789	1201.2947	2839.3	1961
867.1236	1203.2193	2816.1	1938.95
867.2683	1205.1432	2814.35	1937.7
867.413	1207.0664	2802.35	1924.9
867.5576	1208.9889	2793.85	1914.35
867.7023	1210.9106	2791	1913.8
867.847	1212.8316	2784.5	1908.5
867.9916	1214.7519	2788.9	1902.35
868.1363	1216.6715	2786.95	1910.9
868.2809	1218.5903	2786.85	1909.2
868.4255	1220.5084	2795.3	1917.25
868.5701	1222.4257	2799.85	1924.25
868.7148	1224.3424	2794.25	1917.15
868.8594	1226.2583	2816.8	1933.85
869.004	1228.1735	2825.85	1947.5
869.1486	1230.0879	2827.85	1949.6
869.2932	1232.0016	2862.4	1986.55
869.4377	1233.9146	2879.25	1998.6
869.5823	1235.8269	2890.1	2012.6
869.7269	1237.7384	2893	2016.65
869.8715	1239.6492	2877.65	2001.8
870.016	1241.5592	2890.25	2011.45
870.1606	1243.4686	2901.2	2025.35
870.3051	1245.3772	2943.95	2064.1
870.4496	1247.285	3013.2	2134.35
870.5941	1249.1922	3067.4	2189.1
870.7387	1251.0986	3108.75	2230.35
870.8832	1253.0042	3167.6	2290.15
871.0277	1254.9092	3207.3	2329.35
871.1722	1256.8134	3269	2391.65
871.3167	1258.7169	3356.55	2477.1
871.4611	1260.6196	3385.55	2509.55
871.6056	1262.5216	3404.3	2525.95
871.7501	1264.4229	3400.85	2522.6
871.8945	1266.3234	3370.45	2490.8
872.039	1268.2232	3339.95	2460.45
872.1834	1270.1223	3271.75	2390.5
872.3278	1272.0207	3260.1	2382.65
872.4723	1273.9183	3244.55	2360.7
872.6167	1275.8151	3221.3	2343.7
872.7611	1277.7113	3229.75	2349.05
872.9055	1279.6067	3291.15	2412.2
873.0499	1281.5014	3385.05	2501.1
873.1943	1283.3953	3530.9	2649.85
873.3386	1285.2885	3667.6	2790.6
873.483	1287.181	3802.05	2922.1
873.6274	1289.0727	3847.4	2968.9
873.7717	1290.9637	3819.6	2940.75
873.9161	1292.854	3733.2	2855
874.0604	1294.7435	3629.25	2748.5
874.2047	1296.6323	3526.45	2648.25
874.349	1298.5204	3450.9	2566.9
874.4933	1300.4077	3373.5	2492.9
874.6376	1302.2943	3329.1	2450.5
874.7819	1304.1802	3296.3	2415.85
874.9262	1306.0653	3269.55	2388.35
875.0705	1307.9497	3237.35	2356.6
875.2147	1309.8333	3225.2	2346.4
875.359	1311.7162	3199.05	2319.55
875.5032	1313.5984	3182.25	2300.8
875.6475	1315.4798	3157.2	2273.55
875.7917	1317.3605	3164	2276
875.9359	1319.2405	3164.5	2283.6
876.0801	1321.1197	3143.6	2261.9
876.2243	1322.9982	3124.85	2240.25
876.3685	1324.876	3074.85	2195.5
876.5127	1326.753	2996.15	2116.05
876.6569	1328.6293	2929.85	2048.6
876.801	1330.5048	2860.05	1977.5
876.9452	1332.3796	2815.05	1935.45
877.0893	1334.2537	2769.2	1865.5
877.2335	1336.127	2714.85	1835.15
877.3776	1337.9996	2672.2	1791.3
877.5217	1339.8714	2656.55	1775.25
877.6658	1341.7426	2670.15	1747.55
877.8099	1343.6129	2618.2	1736.45
877.954	1345.4826	2607.1	1726.85
878.0981	1347.3515	2604.7	1722.3
878.2422	1349.2196	2575.75	1694.4
878.3862	1351.087	2581	1699.65
878.5303	1352.9537	2580.6	1699.1
878.6743	1354.8197	2567.8	1686.55
878.8184	1356.6849	2582.85	1701.4
878.9624	1358.5493	2588.5	1710.1
879.1064	1360.4131	2590.25	1709.8
879.2504	1362.276	2613.95	1733.8
879.3944	1364.1383	2632.7	1750.9
879.5384	1365.9998	2647.7	1762.1
879.6823	1367.8606	2628.5	1746.65
879.8263	1369.7206	2628.85	1746.35
879.9702	1371.5799	2629.85	1747.65
880.1142	1373.4384	2613.4	1730.9
880.2581	1375.2962	2600.9	1717.45
880.402	1377.1533	2546.9	1664
880.5459	1379.0096	2520.1	1637.4
880.6898	1380.8652	2488.05	1609
880.8337	1382.7201	2460.9	1579.3
880.9776	1384.5742	2434.75	1552.55
881.1215	1386.4275	2414.55	1532.65
881.2653	1388.2802	2391.8	1510.65
881.4092	1390.132	2377.05	1495.8
881.553	1391.9832	2368.75	1486.85
881.6968	1393.8336	2361.2	1480.5
881.8406	1395.6832	2346.95	1463
881.9844	1397.5322	2337	1459.25
882.1282	1399.3803	2328.4	1439.7
882.272	1401.2278	2325.25	1442.15
882.4158	1403.0745	2308.25	1427.1
882.5595	1404.9204	2297.1	1416.6
882.7033	1406.7656	2285.15	1404
882.847	1408.6101	2277.85	1395.9
882.9908	1410.4538	2262.95	1381.6
883.1345	1412.2968	2270.45	1387
883.2782	1414.139	2266.4	1384.05
883.4219	1415.9805	2273.65	1391.35
883.5656	1417.8213	2278.25	1375.1
883.7092	1419.6613	2269.9	1388.45
883.8529	1421.5006	2299	1415.95
883.9965	1423.3391	2326.9	1445.55
884.1402	1425.1769	2352.35	1469.4
884.2838	1427.0139	2397.35	1514.1
884.4274	1428.8502	2460.9	1574.95
884.571	1430.6858	2512.15	1629.65
884.7146	1432.5206	2525.65	1643.45
884.8582	1434.3547	2520.5	1636.75
885.0018	1436.188	2510.2	1626.5
885.1453	1438.0206	2490.65	1608.1
885.2889	1439.8524	2467.7	1583.5
885.4324	1441.6835	2482.95	1602.1
885.5759	1443.5139	2471.3	1585.1
885.7194	1445.3435	2472.5	1591.25
885.8629	1447.1724	2463.15	1582.3
886.0064	1449.0005	2466.75	1584.55
886.1499	1450.8279	2461	1577.35
886.2933	1452.6545	2458.95	1576.55
886.4368	1454.4804	2461.45	1581.4
886.5802	1456.3056	2442.95	1553.1
886.7237	1458.13	2424.2	1542.15
886.8671	1459.9536	2410.7	1528.3
887.0105	1461.7766	2379.95	1498.25
887.1539	1463.5987	2347.3	1466.6
887.2972	1465.4202	2313.9	1431.6
887.4406	1467.2409	2284.5	1401.95
887.584	1469.0608	2270.1	1386.5
887.7273	1470.88	2226	1343.25
887.8706	1472.6984	2212	1332.05
888.0139	1474.5161	2185.1	1300.75
888.1572	1476.3331	2164.2	1281.55
888.3005	1478.1493	2164.95	1280.55
888.4438	1479.9648	2163.7	1281.75
888.5871	1481.7795	2147.1	1265.35
888.7303	1483.5935	2142.3	1260.85
888.8736	1485.4067	2147.4	1264.5
889.0168	1487.2192	2152.55	1269.8
889.16	1489.031	2148.45	1263.35
889.3032	1490.842	2140.45	1258.95
889.4464	1492.6522	2145.05	1261.45
889.5896	1494.4618	2136.8	1251.6
889.7327	1496.2705	2141.4	1257.85
889.8759	1498.0785	2131.05	1247.7
890.019	1499.8858	2133.8	1250.2
890.1622	1501.6924	2111.45	1230.45
890.3053	1503.4981	2107.5	1223.25
890.4484	1505.3032	2105.65	1224.05
890.5914	1507.1075	2096	1212.55
890.7345	1508.911	2081.2	1199.55
890.8776	1510.7138	2075.85	1193.4
891.0206	1512.5159	2083.55	1199.9
891.1637	1514.3172	2071.15	1188.1
891.3067	1516.1178	2057.4	1174.85
891.4497	1517.9176	2040.75	1156.3
891.5927	1519.7166	2042.55	1159.9
891.7357	1521.515	2033.15	1144.8
891.8786	1523.3126	2027.8	1144.6
892.0216	1525.1094	2019.4	1134.3
892.1645	1526.9055	2009.75	1127.2
892.3074	1528.7008	1998.5	1115.55
892.4503	1530.4954	1997.15	1111.2
892.5932	1532.2893	1989.55	1108.9
892.7361	1534.0824	1994.2	1105.1
892.879	1535.8747	1980.45	1098.1
893.0218	1537.6663	1972.45	1090.5
893.1647	1539.4572	1973.45	1089.4
893.3075	1541.2473	1967.5	1082.1
893.4503	1543.0367	1962.6	1079.45
893.5931	1544.8253	1957.4	1071.2
893.7359	1546.6132	1962.5	1075.55
893.8787	1548.4003	1972.1	1079.3
894.0214	1550.1867	1969.55	1078.1
894.1642	1551.9723	1968.55	1081.95
894.3069	1553.7572	1977.3	1092.95
894.4496	1555.5414	1981.65	1099.75
894.5923	1557.3247	1998.5	1114.7
894.735	1559.1074	2011.95	1127.85
894.8777	1560.8893	2045.85	1162.3
895.0204	1562.6705	2079.45	1197.25
895.163	1564.4509	2083.45	1201.35
895.3056	1566.2305	2098.45	1215.1
895.4482	1568.0094	2104.75	1224.1
895.5908	1569.7876	2106.15	1224.65
895.7334	1571.565	2094.15	1209.8
895.876	1573.3417	2091.75	1210.4
896.0186	1575.1176	2095.55	1213
896.1611	1576.8928	2098.6	1215.8
896.3036	1578.6672	2105.35	1223.5
896.4461	1580.4409	2132.05	1251.3
896.5886	1582.2138	2157.85	1272.35
896.7311	1583.986	2183.6	1299.25
896.8736	1585.7575	2210.45	1327.9
897.0161	1587.5282	2241.35	1360.95
897.1585	1589.2981	2272.7	1389.1
897.3009	1591.0673	2263.15	1380.3
897.4433	1592.8358	2277.85	1394.7
897.5857	1594.6035	2256.9	1372.7
897.7281	1596.3704	2262.65	1378.25
897.8705	1598.1366	2240	1356.9
898.0128	1599.9021	2210.15	1326.85
898.1551	1601.6668	2193.55	1311.35
898.2975	1603.4308	2167.5	1284.75
898.4398	1605.194	2173.4	1288.1
898.5821	1606.9564	2188	1306.2
898.7243	1608.7182	2226.3	1341.85
898.8666	1610.4791	2269.45	1388.5
899.0088	1612.2394	2346.9	1463.3
899.1511	1613.9988	2446.05	1561.9
899.2933	1615.7576	2506.2	1623.35
899.4355	1617.5156	2546.6	1656.9
899.5776	1619.2728	2528.2	1645.8
899.7198	1621.0293	2466.6	1583.85
899.862	1622.785	2379.15	1494.2
900.0041	1624.54	2270.55	1387.85
900.1462	1626.2942	2178.7	1294
900.2883	1628.0477	2081.9	1196.25
900.4304	1629.8005	2015.25	1127
900.5725	1631.5525	1955.65	1072.7
900.7145	1633.3037	1916.9	1035.95
900.8566	1635.0542	1872.9	990.35
900.9986	1636.804	1850.25	965.1
901.1406	1638.553	1857.85	922.25
901.2826	1640.3013	1809.15	926.1
901.4245	1642.0488	1787.5	905.7
901.5665	1643.7955	1768.95	888.6
901.7085	1645.5416	1758.1	874.55
901.8504	1647.2868	1744.35	861.55
901.9923	1649.0313	1735.35	852.9
902.1342	1650.7751	1734.05	847.6
902.2761	1652.5181	1726.85	843.35
902.4179	1654.2604	1721.2	837.6
902.5598	1656.0019	1731.95	849.9
902.7016	1657.7427	1723.35	840.1
902.8434	1659.4828	1740.85	859.45
902.9852	1661.222	1760.7	875.15
903.127	1662.9606	1786	902.9
903.2687	1664.6984	1808.45	924.1
903.4105	1666.4354	1817.2	934.45
903.5522	1668.1717	1812.7	930.75
903.6939	1669.9072	1779	895.25
903.8356	1671.642	1749.05	864.1
903.9773	1673.3761	1702.95	821.65
904.119	1675.1094	1679.2	795.1
904.2606	1676.8419	1652.65	769.7
904.4022	1678.5737	1642.6	758.95
904.5439	1680.3048	1632.25	747.75
904.6855	1682.0351	1623.2	738.15
904.827	1683.7646	1617.15	730.1
904.9686	1685.4934	1606.4	724.8
905.1101	1687.2215	1602.45	718.75
905.2517	1688.9488	1595.1	712.85
905.3932	1690.6754	1592.35	708.8
905.5347	1692.4012	1587.35	704.45
905.6761	1694.1263	1583.15	700.6
905.8176	1695.8506	1578.55	695.75
905.9591	1697.5742	1570.4	687.5
906.1005	1699.297	1569.75	685.75
906.2419	1701.0191	1563.3	679.75
906.3833	1702.7404	1555.25	674.3
906.5246	1704.461	1556.6	673.7
906.666	1706.1808	1551.15	668.4
906.8073	1707.8999	1548.5	664.25
906.9487	1709.6182	1550.65	666.85
907.09	1711.3358	1533.5	648.7
907.2313	1713.0527	1539.9	658.4
907.3725	1714.7688	1541.55	653.65
907.5138	1716.4841	1532.2	648.15
907.655	1718.1987	1537.5	650.2
907.7962	1719.9126	1518.8	638.6
907.9374	1721.6257	1533.35	647.95
908.0786	1723.338	1525.5	640.1
908.2198	1725.0496	1523.55	636.75
908.3609	1726.7605	1520.85	636.5
908.502	1728.4706	1517.25	634
908.6431	1730.18	1505.9	621.25
908.7842	1731.8886	1509	626.35
908.9253	1733.5964	1516.65	627
909.0664	1735.3036	1513	627
909.2074	1737.0099	1506.75	624.7
909.3484	1738.7156	1509.4	625.7
909.4894	1740.4204	1512.85	625.5
909.6304	1742.1246	1504.9	619.85
909.7714	1743.8279	1498.65	615.85
909.9123	1745.5306	1506.8	622.75
910.0532	1747.2325	1492.95	610.15
910.1941	1748.9336	1493.9	610.45
910.335	1750.634	1488.65	605.25
910.4759	1752.3336	1492.85	610.25
910.6168	1754.0325	1491.9	611.25
910.7576	1755.7307	1485.65	603.15
910.8984	1757.4281	1489.05	605.15
911.0392	1759.1247	1496.3	604.9
911.18	1760.8206	1486.95	596.95
911.3208	1762.5158	1492.4	604.3
911.4615	1764.2102	1479.55	597.2
911.6022	1765.9039	1476.15	592.25
911.7429	1767.5968	1476.95	594.05
911.8836	1769.289	1474.3	590.1
912.0243	1770.9804	1471.2	587.2
912.1649	1772.6711	1477.35	593
912.3056	1774.361	1474.95	592.1
912.4462	1776.0502	1471.25	588.5
912.5868	1777.7386	1477.8	592.35
912.7274	1779.4263	1465.95	583.05
912.8679	1781.1132	1463.8	580.5
913.0084	1782.7994	1474.6	587.5
913.149	1784.4849	1462.85	580
913.2895	1786.1696	1464.1	576.05
913.4299	1787.8535	1465.45	581.35
913.5704	1789.5367	1453.75	568.45
913.7108	1791.2192	1456.3	573
913.8513	1792.9009	1477.1	568.45
913.9917	1794.5818	1446.85	563.4
914.132	1796.2621	1448.8	567.6
914.2724	1797.9415	1456.35	572.6
914.4128	1799.6202	1449.55	566.3
914.5531	1801.2982	1445.35	564.2
914.6934	1802.9755	1446.55	561.7
914.8337	1804.6519	1449.75	564.35
914.9739	1806.3277	1441.8	559.5
915.1142	1808.0027	1432	548.5
915.2544	1809.6769	1436.6	552.3
915.3946	1811.3504	1431	546.15
915.5348	1813.0231	1440.8	556.5
915.675	1814.6951	1440.15	557.7
915.8151	1816.3664	1430.9	544.55
915.9553	1818.0369	1431.55	547.8
916.0954	1819.7067	1424.7	543.6
916.2355	1821.3757	1432.3	544.3
916.3755	1823.044	1425.55	541.65
916.5156	1824.7115	1425.9	541.2
916.6556	1826.3783	1424.55	542.6
916.7956	1828.0443	1422.75	542.1
916.9356	1829.7096	1417.8	531.9
917.0756	1831.3741	1419.8	531.95
917.2155	1833.0379	1415.45	531.25
917.3555	1834.701	1415.75	530.55
917.4954	1836.3633	1404.6	521.3
917.6353	1838.0248	1412.8	527.8
917.7751	1839.6856	1410.85	529.4
917.915	1841.3457	1411.1	526.5
918.0548	1843.005	1406.75	524.15
918.1946	1844.6636	1402.3	521.6
918.3344	1846.3214	1399.25	515.35
918.4742	1847.9785	1402.5	520.15
918.6139	1849.6349	1400.65	513.55
918.7537	1851.2904	1408.85	518.35
918.8934	1852.9453	1398.9	515.65
919.0331	1854.5994	1402.25	516.65
919.1727	1856.2528	1399.3	510.45
919.3124	1857.9054	1395.25	512.3
919.452	1859.5572	1396.6	515.5
919.5916	1861.2083	1389.7	506.05
919.7312	1862.8587	1393.2	508.9
919.8708	1864.5084	1389.25	504.05
920.0103	1866.1572	1388.25	504.65
920.1498	1867.8054	1382.95	498.35
920.2893	1869.4528	1383	499.35
920.4288	1871.0994	1387.45	502.85
920.5683	1872.7453	1380.85	498.95
920.7077	1874.3905	1391.6	503.7
920.8471	1876.0349	1382.8	499.25
920.9865	1877.6786	1379.4	496.95
921.1259	1879.3215	1383.2	500.6
921.2653	1880.9637	1380.6	496.95
921.4046	1882.6051	1379.65	495.2
921.5439	1884.2458	1382.45	496.7
921.6832	1885.8858	1371.95	489
921.8225	1887.525	1369.55	485
921.9617	1889.1634	1375.05	491.4
922.101	1890.8011	1373.8	487.4
922.2402	1892.4381	1369.1	485.4
922.3794	1894.0743	1361.7	478.75
922.5185	1895.7098	1359.35	476.65
922.6577	1897.3446	1364.95	479.7
922.7968	1898.9786	1364.75	474.05
922.9359	1900.6118	1362.65	479.45
923.075	1902.2443	1363.45	482
923.214	1903.8761	1365	481.2
923.3531	1905.5071	1351.9	468.1
923.4921	1907.1374	1359.25	475.1
923.6311	1908.7669	1350.75	466.9
923.77	1910.3957	1352.6	468.85
923.909	1912.0237	1346.25	462.5
924.0479	1913.651	1352.85	469.15
924.1868	1915.2776	1347.15	466.15
924.3257	1916.9034	1339.8	457.3
924.4646	1918.5285	1337.8	455.1
924.6034	1920.1528	1345.65	459.3
924.7422	1921.7764	1342.95	460.3
924.881	1923.3992	1338.95	456.55
925.0198	1925.0213	1338.3	453.25
925.1586	1926.6427	1331.55	448.9
925.2973	1928.2633	1398.8	443.3
925.436	1929.8832	1338.2	452
925.5747	1931.5023	1328.15	442.75
925.7134	1933.1207	1328.85	446.35
925.852	1934.7383	1334.65	452.15
925.9906	1936.3552	1324	438.55
926.1292	1937.9714	1327.45	443.85
926.2678	1939.5868	1326.15	442.2
926.4064	1941.2015	1319.75	436.95
926.5449	1942.8154	1329.3	444.7
926.6834	1944.4286	1323.35	439.15
926.8219	1946.041	1344.4	437.25
926.9604	1947.6528	1315.15	426.85
927.0988	1949.2637	1318.75	434.8
927.2372	1950.8739	1312.7	427.3
927.3756	1952.4834	1312.1	430
927.514	1954.0921	1314.3	430.5
927.6523	1955.7001	1315.9	425.2
927.7907	1957.3074	1310.95	427.35
927.929	1958.9139	1307.25	424.2
928.0673	1960.5197	1314.65	428.4
928.2055	1962.1247	1304.35	419.3
928.3438	1963.729	1302.75	420.2
928.482	1965.3325	1324.9	418.15
928.6202	1966.9353	1304.45	421.15
928.7584	1968.5374	1300.75	416.55
928.8965	1970.1387	1296.55	411.45
929.0346	1971.7393	1296.3	414.4
929.1727	1973.3392	1295.3	412.95
929.3108	1974.9383	1296.35	413.6
929.4489	1976.5366	1294	410.05
929.5869	1978.1342	1293.05	408.85
929.7249	1979.7311	1297.8	414.25
929.8629	1981.3273	1295.5	410.9
930.0009	1982.9227	1294.85	410.3
930.1388	1984.5173	1291.9	409.9
930.2767	1986.1112	1286.9	403.55
930.4146	1987.7044	1285.9	404.3
930.5525	1989.2968	1290.35	405.95
930.6904	1990.8885	1287.2	401.5
930.8282	1992.4795	1292.65	410.1
930.966	1994.0697	1285.6	402.1
931.1038	1995.6592	1280.1	397.65
931.2415	1997.2479	1280.45	395.15
931.3793	1998.8359	1287.75	405.65
931.517	2000.4232	1276.2	394.1
931.6547	2002.0097	1273.65	390.6
931.7923	2003.5955	1272.35	389.1
931.93	2005.1805	1276.05	390.7
932.0676	2006.7648	1272.4	389.2
932.2052	2008.3484	1273.45	388.7
932.3427	2009.9312	1275.2	390.1
932.4803	2011.5133	1272.7	391.65
932.6178	2013.0946	1273.15	390.1
932.7553	2014.6752	1275.75	395.5
932.8928	2016.2551	1273.8	389.65
933.0302	2017.8342	1264.95	382.4
933.1676	2019.4126	1268.1	385.55
933.305	2020.9902	1267.5	386.5
933.4424	2022.5672	1263.65	379.2
933.5798	2024.1433	1273	381.8
933.7171	2025.7188	1266.45	384.85
933.8544	2027.2935	1265.6	382.15
933.9917	2028.8674	1258.75	374.7
934.129	2030.4406	1260.9	377.75
934.2662	2032.0131	1253.85	373
934.4034	2033.5849	1263.5	378.25
934.5406	2035.1559	1261.1	377.65
934.6778	2036.7261	1257.8	375.55
934.8149	2038.2957	1265.2	382.85
934.952	2039.8645	1261.1	376.45
935.0891	2041.4325	1259.3	372.3
935.2262	2042.9998	1256.7	374.65
935.3632	2044.5664	1259.55	375.55
935.5002	2046.1323	1252.6	369.8
935.6372	2047.6974	1255.8	372.8
935.7742	2049.2617	1250.05	368.85
935.9111	2050.8254	1258.65	371.2
936.048	2052.3883	1254.5	371.85
936.1849	2053.9504	1255.25	371.5
936.3218	2055.5118	1253.45	369.2
936.4586	2057.0725	1253.5	365.55
936.5955	2058.6325	1251.45	367
936.7323	2060.1917	1249.5	365.45
936.869	2061.7502	1252.4	366.15
937.0058	2063.3079	1242.55	361.7
937.1425	2064.8649	1247.55	362.2
937.2792	2066.4212	1247.95	365.35
937.4159	2067.9767	1244.95	362.9
937.5525	2069.5315	1251	369.5
937.6891	2071.0856	1242.6	359.3
937.8257	2072.6389	1246	361.55
937.9623	2074.1915	1242.95	361.6
938.0989	2075.7433	1241.65	357.6
938.2354	2077.2945	1243.3	362
938.3719	2078.8448	1235.3	353.45
938.5084	2080.3945	1236.15	354
938.6448	2081.9434	1236.35	354.05
938.7812	2083.4916	1241.7	360.05
938.9176	2085.039	1237.35	352.7
939.054	2086.5857	1238	352.5
939.1903	2088.1317	1238.5	354.05
939.3267	2089.677	1238.3	355.25
939.463	2091.2215	1236.1	353.05
939.5992	2092.7652	1234.7	349.2
939.7355	2094.3083	1231.95	346.6
939.8717	2095.8506	1235.75	352.6
940.0079	2097.3921	1238.55	356.3
940.1441	2098.933	1232	347.95
940.2802	2100.4731	1236.2	355.7
940.4163	2102.0124	1250.2	349.05
940.5524	2103.5511	1231.2	348.25
940.6885	2105.089	1230.6	345.85
940.8245	2106.6261	1225.25	342.55
940.9606	2108.1626	1228.2	344.4
941.0965	2109.6983	1261.65	350.95
941.2325	2111.2332	1227.8	345.35
941.3684	2112.7675	1231.5	346.6
941.5044	2114.301	1228.2	344.4
941.6403	2115.8337	1231.5	347.6
941.7761	2117.3657	1229.55	346.55
941.912	2118.897	1225	343.6
942.0478	2120.4276	1231.6	341.4
942.1835	2121.9575	1225.75	340.55
942.3193	2123.4866	1238.35	341.6
942.455	2125.0149	1229.8	343.4
942.5907	2126.5426	1218.65	335.6
942.7264	2128.0695	1221.6	334.7
942.8621	2129.5956	1219.95	338.4
942.9977	2131.1211	1222.45	335.6
943.1333	2132.6458	1223.35	341.25
943.2689	2134.1698	1221.15	337.3
943.4044	2135.693	1227.55	342.8
943.54	2137.2155	1219.5	330.95
943.6755	2138.7373	1218.75	336.45
943.8109	2140.2584	1212.45	332.1
943.9464	2141.7787	1217.65	328.5
944.0818	2143.2983	1217.25	334.65
944.2172	2144.8171	1212.55	330.65
944.3526	2146.3353	1218.75	334.7
944.4879	2147.8527	1209.75	328.5
944.6232	2149.3693	1217.65	334.2
944.7585	2150.8853	1214.95	331
944.8938	2152.4005	1210.15	327.45
945.029	2153.9149	1210.65	328.6
945.1642	2155.4287	1309.1	323.05
945.2994	2156.9417	1214.4	329.1
945.4346	2158.454	1214.7	329.15
945.5697	2159.9655	1208.85	326.2
945.7048	2161.4764	1210.85	328.05
945.8399	2162.9865	1205	321.2
945.9749	2164.4958	1204.75	320.7
946.1099	2166.0045	1209.35	322.5
946.2449	2167.5124	1209.95	327.1
946.3799	2169.0195	1205.4	323.05
946.5148	2170.526	1198.35	314.8
946.6498	2172.0317	1200.4	318.5
946.7846	2173.5367	1203.3	317.85
946.9195	2175.0409	1201.5	317.05
947.0543	2176.5445	1203.15	321.35
947.1891	2178.0473	1196.85	312.85
947.3239	2179.5494	1201.4	314.55
947.4587	2181.0507	1195.25	311.3
947.5934	2182.5513	1198.05	314.6
947.7281	2184.0512	1191.9	309.85
947.8628	2185.5504	1192	309.4
947.9974	2187.0488	1192.9	307.35
948.132	2188.5465	1194.9	312.95
948.2666	2190.0435	1193.15	307.45
948.4012	2191.5397	1191.95	310.5
948.5357	2193.0353	1188.8	306.05
948.6702	2194.5301	1187.75	303.6
948.8047	2196.0241	1185.5	300.85
948.9392	2197.5175	1193	310.2
949.0736	2199.0101	1188.85	304.05
949.208	2200.502	1180.8	298.75
949.3424	2201.9931	1183.5	300.8
949.4767	2203.4835	1188.45	303.65
949.611	2204.9733	1195.6	295.75
949.7453	2206.4622	1187.4	306.6
949.8796	2207.9505	1183.8	296.65
950.0138	2209.438	1186.6	305.25
950.148	2210.9248	1179.2	295.7
950.2822	2212.4109	1173.95	292.55
950.4164	2213.8962	1182.9	297.1
950.5505	2215.3809	1171.25	286.7
950.6846	2216.8648	1174.85	290.5
950.8186	2218.3479	1177.85	289.6
950.9527	2219.8304	1173.4	287.6
951.0867	2221.3121	1171.5	286.5
951.2207	2222.7931	1171.95	289.05
951.3546	2224.2733	1170.3	287.35
951.4886	2225.7529	1168.05	284.35
951.6225	2227.2317	1170.85	285.2
951.7563	2228.7098	1171.4	288.65
951.8902	2230.1872	1171	288.55
952.024	2231.6638	1170.15	288.2
952.1578	2233.1397	1169.55	282.25
952.2916	2234.6149	1162.55	280.3
952.4253	2236.0894	1166.45	283.65
952.559	2237.5632	1171.9	285.95
952.6927	2239.0362	1165.05	281.65
952.8263	2240.5085	1164.8	280.7
952.9599	2241.9801	1159.9	274.55
953.0935	2243.4509	1160.95	278.2
953.2271	2244.921	1162.75	279.5
953.3606	2246.3904	1161.7	276.85
953.4941	2247.8591	1152.5	268.65
953.6276	2249.3271	1155.5	273.8
953.7611	2250.7943	1161.45	278.5
953.8945	2252.2608	1155.65	272.05
954.0279	2253.7266	1156.2	273.75
954.1612	2255.1917	1156.75	275.6
954.2946	2256.656	1158	273.5
954.4279	2258.1197	1145.15	262.6
954.5612	2259.5826	1151.9	266.9
954.6944	2261.0447	1149.2	266.1
954.8276	2262.5062	1157.5	272.8
954.9608	2263.9669	1152.6	267.85
955.094	2265.4269	1147.7	266.25
955.2271	2266.8862	1150.7	268.4
955.3602	2268.3448	1148.5	265
955.4933	2269.8026	1142.55	259.95
955.6264	2271.2598	1148	265.3
955.7594	2272.7162	1138.9	257.2
955.8924	2274.1719	1141.15	256.6
956.0253	2275.6268	1146.7	263.95
956.1583	2277.0811	1141.3	258.5
956.2912	2278.5346	1145.3	261.45
956.4241	2279.9874	1141.95	259.9
956.5569	2281.4395	1139.6	255.8
956.6897	2282.8908	1146.75	260.05
956.8225	2284.3414	1134.6	249.95
956.9553	2285.7914	1135.4	253.2
957.088	2287.2406	1138.15	252.95
957.2207	2288.689	1135.45	253.65
957.3534	2290.1368	1138.95	253.3
957.486	2291.5838	1141.2	256.5
957.6186	2293.0302	1140.1	255.25
957.7512	2294.4758	1132.6	248.35
957.8838	2295.9206	1136.6	252.3
958.0163	2297.3648	1131.65	246.7
958.1488	2298.8082	1135.25	251.7
958.2813	2300.251	1126.65	244.55
958.4137	2301.693	1132.45	246.55
958.5461	2303.1343	1132.6	248.4
958.6785	2304.5748	1128.95	246.95
958.8108	2306.0147	1132.25	250.85
958.9432	2307.4538	1130.65	246.7
959.0754	2308.8922	1128.6	246.15
959.2077	2310.3299	1127	243.55
959.3399	2311.7669	1127.45	244.3
959.4721	2313.2031	1128.75	247.35
959.6043	2314.6387	1123.15	239.65
959.7365	2316.0735	1123.2	240.75
959.8686	2317.5076	1128.75	245.35
960.0006	2318.941	1121.9	236.25
960.1327	2320.3737	1122.6	238.7
960.2647	2321.8056	1125.25	238.65
960.3967	2323.2369	1120.05	237.35
960.5287	2324.6674	1125.9	240.85
960.6606	2326.0972	1124.2	240.75
960.7925	2327.5263	1123.4	242.15
960.9244	2328.9547	1124	241
961.0562	2330.3823	1121.1	236
961.1881	2331.8092	1124.4	239.5
961.3198	2333.2355	1119.95	235.25
961.4516	2334.661	1120.95	238.55
961.5833	2336.0858	1120.5	233.9
961.715	2337.5098	1110.35	229.25
961.8467	2338.9332	1120	236.15
961.9783	2340.3558	1117.7	231.25
962.1099	2341.7778	1111.65	228.45
962.2415	2343.199	1112.45	227.35
962.373	2344.6195	1114.5	231.5
962.5045	2346.0393	1113	231
962.636	2347.4583	1111.05	228.6
962.7675	2348.8767	1107.75	225.55
962.8989	2350.2943	1105.85	220.15
963.0303	2351.7113	1110.4	223.25
963.1617	2353.1275	1107.85	223.6
963.293	2354.543	1134.4	225.05
963.4243	2355.9578	1106.35	222.55
963.5556	2357.3718	1104.1	222.4
963.6868	2358.7852	1101.45	214.2
963.818	2360.1978	1105.3	220.65
963.9492	2361.6098	1102	221.2
964.0803	2363.021	1103.85	216.1
964.2114	2364.4315	1102.65	218.55
964.3425	2365.8413	1113.45	225.05
964.4736	2367.2504	1102.2	218.95
964.6046	2368.6587	1098.45	216.15
964.7356	2370.0664	1093.25	210.4
964.8666	2371.4733	1098.05	215
964.9975	2372.8795	1097.5	214.55
965.1284	2374.285	1095.95	211.05
965.2593	2375.6899	1091.45	207.7
965.3901	2377.0939	1093.15	209.45
965.5209	2378.4973	1095.25	212.4
965.6517	2379.9	1094	208.6
965.7825	2381.3019	1096.6	214.2
965.9132	2382.7032	1089.95	208.95
966.0439	2384.1037	1093.8	212.8
966.1745	2385.5035	1090	207.15
966.3051	2386.9027	1090.05	206.55
966.4357	2388.3011	1095.15	207.55
966.5663	2389.6987	1087.15	204.2
966.6968	2391.0957	1090.05	205.95
966.8273	2392.492	1086.4	203
966.9578	2393.8876	1082.7	200.15
967.0882	2395.2824	1084.65	199.9
967.2186	2396.6765	1082.25	198.25
967.349	2398.07	1082.9	200.85
967.4793	2399.4627	1083.6	199.3
967.6097	2400.8547	1086	202.55
967.7399	2402.246	1088.35	198.25
967.8702	2403.6366	1081.5	198.7
968.0004	2405.0265	1077.15	193.8
968.1306	2406.4156	1085.95	198.55
968.2607	2407.8041	1079.95	193.4
968.3909	2409.1918	1078.7	190.75
968.521	2410.5789	1072.9	188.85
968.651	2411.9652	1078.9	191.6
968.781	2413.3508	1074.15	191.45
968.911	2414.7358	1082.55	198.65
969.041	2416.12	1071.9	187.1
969.1709	2417.5035	1071.4	189.1
969.3008	2418.8863	1074.65	190.15
969.4307	2420.2684	1068.95	186.65
969.5606	2421.6497	1071.6	186.3
969.6904	2423.0304	1065.85	181.25
969.8201	2424.4104	1069.95	185.45
969.9499	2425.7896	1071.75	186.1
970.0796	2427.1682	1072.2	188.75
970.2093	2428.546	1070.85	184.35
970.3389	2429.9232	1072.4	188.4
970.4685	2431.2996	1065.85	181.5
970.5981	2432.6753	1064.15	179.85
970.7277	2434.0503	1064.8	181.2
970.8572	2435.4246	1063.6	178.6
970.9867	2436.7982	1066.4	180.05
971.1161	2438.1711	1060.05	177.75
971.2456	2439.5433	1063.75	178.05
971.375	2440.9148	1067.15	179.2
971.5043	2442.2856	1061.7	177.65
971.6336	2443.6557	1059.6	175.85
971.7629	2445.025	1060.45	177.05
971.8922	2446.3937	1056.7	172.35
972.0214	2447.7617	1062.5	178.45
972.1506	2449.1289	1057.55	173.85
972.2798	2450.4955	1068.7	181.1
972.4089	2451.8613	1055.05	172.95
972.538	2453.2265	1054.85	170.1
972.6671	2454.5909	1055.25	168.25
972.7961	2455.9546	1056.3	172.75
972.9251	2457.3177	1052.55	170.35
973.0541	2458.68	1060.85	177.85
973.1831	2460.0416	1053.15	169.15
973.312	2461.4025	1056.7	170.35
973.4408	2462.7627	1069.3	173.15
973.5697	2464.1222	1052.15	169.2
973.6985	2465.4811	1054.15	167.75
973.8273	2466.8392	1053.7	170.3
973.956	2468.1966	1054.35	166.6
974.0847	2469.5533	1056.1	170.6
974.2134	2470.9093	1049.75	164.2
974.3421	2472.2645	1053.85	170.7
974.4707	2473.6191	1048.6	163.7
974.5993	2474.973	1047.55	163.15
974.7278	2476.3262	1050.4	166.1
974.8563	2477.6787	1049.2	166.15
974.9848	2479.0305	1047.45	165.2
975.1132	2480.3816	1050.6	166.25
975.2417	2481.7319	1051.95	166.6
975.37	2483.0816	1052.25	169
975.4984	2484.4306	1044.35	160
975.6267	2485.7789	1046.4	162
975.755	2487.1264	1046.55	161.25
975.8833	2488.4733	1045.3	160.15
976.0115	2489.8195	1062.5	161.65
976.1397	2491.165	1047.05	160.7
976.2678	2492.5097	1044.8	159.9
976.3959	2493.8538	1042.5	158.25
976.524	2495.1972	1041.8	160.25
976.6521	2496.5398	1039.4	154.35
976.7801	2497.8818	1046.95	160.4
976.9081	2499.2231	1039.4	157.9
977.036	2500.5637	1042.15	157.1
977.164	2501.9035	1039.85	155.85
977.2918	2503.2427	1045.65	157.65
977.4197	2504.5812	1035.9	150.05
977.5475	2505.919	1039.2	153
977.6753	2507.256	1036.65	153.15
977.8031	2508.5924	1037.4	153.1
977.9308	2509.9281	1045.95	157.25
978.0585	2511.2631	1035.8	151.95
978.1861	2512.5974	1033.7	151.4
978.3137	2513.9309	1038.15	152.8
978.4413	2515.2638	1052.95	143.65
978.5689	2516.596	1033.8	151.95
978.6964	2517.9275	1036.65	151.1
978.8239	2519.2583	1033.9	150.05
978.9513	2520.5884	1035.25	152.05
979.0788	2521.9178	1031.35	147.1
979.2062	2523.2465	1029.75	146.85
979.3335	2524.5745	1026.15	141.7
979.4608	2525.9018	1027.7	146.1
979.5881	2527.2284	1028.75	147.4
979.7154	2528.5543	1023.85	139.75
979.8426	2529.8796	1027.9	143.55
979.9698	2531.2041	1031.55	147.4
980.0969	2532.5279	1025.1	141.75
980.224	2533.851	1023.05	140.35
980.3511	2535.1735	1025.25	141.15
980.4781	2536.4952	1026.3	144.05
980.6052	2537.8163	1024.4	139.85
980.7321	2539.1366	1025.35	142.45
980.8591	2540.4562	1028.75	144.3
980.986	2541.7752	1027.1	143.3
981.1129	2543.0935	1020.8	136.6
981.2397	2544.411	1024.4	140.25
981.3665	2545.7279	1024.15	141.85
981.4933	2547.0441	1021.5	139.3
981.62	2548.3596	1026.95	139.65
981.7467	2549.6744	1020.25	137.5
981.8734	2550.9885	1029.3	136.9
982.0001	2552.3019	1018.85	136.55
982.1267	2553.6146	1019.5	137.35
982.2532	2554.9266	1016.55	131.15
982.3798	2556.2379	1019.65	133.85
982.5063	2557.5485	1017.8	135.3
982.6327	2558.8585	1029.3	139.95
982.7592	2560.1677	1027.05	140.2
982.8856	2561.4762	1017.9	132.9
983.0119	2562.7841	1022.6	136.4
983.1383	2564.0913	1015.3	132.6
983.2646	2565.3977	1018.35	135.7
983.3908	2566.7035	1017.9	134.25
983.517	2568.0086	1019.55	135.15
983.6432	2569.313	1018.6	134.65
983.7694	2570.6167	1018.5	133.65
983.8955	2571.9197	1015.85	135.6
984.0216	2573.222	1018.75	131.7
984.1476	2574.5236	1014.2	128.55
984.2737	2575.8246	1014.8	129.7
984.3996	2577.1248	1017.75	130.9
984.5256	2578.4244	1014.7	131.4
984.6515	2579.7232	1012.3	127.2
984.7774	2581.0214	1044.45	130.25
984.9032	2582.3189	1014.3	131.75
985.029	2583.6157	1031	135.05
985.1548	2584.9118	1018.6	137.15
985.2806	2586.2072	1015.3	132.25
985.4063	2587.5019	1013.75	131.15
985.5319	2588.7959	1013.55	127
985.6576	2590.0893	1012.5	127.25
985.7832	2591.3819	1011.65	128.9
985.9087	2592.6739	1009.5	127.25
986.0343	2593.9652	1016.25	131.6
986.1597	2595.2557	1015.1	131.35
986.2852	2596.5456	1015.9	129.8
986.4106	2597.8348	1009.55	125.8
986.536	2599.1234	1008.35	125.2
986.6614	2600.4112	1005.95	121.75
986.7867	2601.6983	1015.65	128.8
986.912	2602.9848	1010.95	125.55
987.0372	2604.2705	1015.8	126.1
987.1624	2605.5556	1009.35	125
987.2876	2606.84	1006.75	123.6
987.4128	2608.1237	1006.6	122.8
987.5379	2609.4067	1005.45	121.55
987.6629	2610.689	1014.05	123.8
987.788	2611.9707	1008.95	122.65
987.913	2613.2516	1008.55	119.05
988.0379	2614.5319	1001.75	117.4
988.1629	2615.8115	1001.4	117.05
988.2878	2617.0903	1003.45	119.05
988.4126	2618.3685	1003.45	119.4
988.5375	2619.6461	1000.25	116.85
988.6622	2620.9229	1000.75	118.4
988.787	2622.199	1002.95	118.35
988.9117	2623.4745	1002.25	118.3
989.0364	2624.7493	997.05	114
989.161	2626.0234	1001.6	119.25
989.2857	2627.2968	997	114.05
989.4102	2628.5695	1000.35	117
989.5348	2629.8415	997.95	114.6
989.6593	2631.1128	1001.2	117.15
989.7837	2632.3835	998.5	115.25
989.9082	2633.6535	993.5	111.4
990.0326	2634.9228	994.8	112.4
990.1569	2636.1914	999.4	115.45
990.2812	2637.4593	996.6	109.5
990.4055	2638.7265	997.65	112.7
990.5298	2639.9931	993.4	108.95
990.654	2641.259	996.7	111.1
990.7782	2642.5242	997.75	111.7
990.9023	2643.7887	992.95	108.2
991.0264	2645.0525	995.25	111.95
991.1505	2646.3156	1006.85	109.2
991.2745	2647.5781	993.4	110.95
991.3985	2648.8398	988.8	106.4
991.5225	2650.1009	997.35	105.75
991.6464	2651.3613	989.6	103.8
991.7703	2652.6211	988.6	104.8
991.8942	2653.8801	990.2	107.95
992.018	2655.1385	991.65	107.45
992.1418	2656.3961	990.8	107.65
992.2655	2657.6531	988.3	105.75
992.3892	2658.9094	988.75	105.35
992.5129	2660.1651	988	105.95
992.6366	2661.42	985.8	102.05
992.7602	2662.6743	990.2	103.6
992.8837	2663.9279	987.95	104.2
993.0073	2665.1808	986.4	102.15
993.1307	2666.433	986.5	101.7
993.2542	2667.6846	985.85	101.75
993.3776	2668.9354	988.4	102.25
993.501	2670.1856	985.65	102.15
993.6244	2671.4351	986.8	104.2
993.7477	2672.6839	988	103.55
993.8709	2673.9321	985.95	101.55
993.9942	2675.1795	988.2	102.9
994.1174	2676.4263	986.4	102
994.2405	2677.6724	984.4	102.95
994.3637	2678.9179	987.1	102.2
994.4868	2680.1626	983.7	100.9
994.6098	2681.4067	984.45	101.55
994.7328	2682.6501	982.4	99.35
994.8558	2683.8928	983.05	99.25
994.9788	2685.1348	986.75	103.95
995.1017	2686.3761	985.05	104
995.2245	2687.6168	981.8	98.4
995.3474	2688.8568	983.1	100.65
995.4702	2690.0961	980.7	98.85
995.5929	2691.3348	981.65	99
995.7156	2692.5727	982	97.3
995.8383	2693.81	980.95	97.1
995.961	2695.0466	979.15	98.85
996.0836	2696.2826	980.65	96.25
996.2062	2697.5178	979.75	94.05
996.3287	2698.7524	977.3	94.6
996.4512	2699.9863	981	96.95
996.5737	2701.2195	975.9	95.2
996.6961	2702.452	980.55	97.35
996.8185	2703.6839	977.7	92.35
996.9408	2704.9151	975.45	92.1
997.0631	2706.1456	977.4	94.2
997.1854	2707.3755	980.4	95.55
997.3077	2708.6046	980.95	94.7
997.4299	2709.8331	977.45	93.55
997.552	2711.0609	978.5	94.6
997.6742	2712.2881	974.1	91.8
997.7963	2713.5145	981.6	94.95
997.9183	2714.7403	974.35	92.75
998.0403	2715.9654	979.4	94.9
998.1623	2717.1899	994.45	96.45
998.2842	2718.4136	978.7	94.6
998.4062	2719.6367	982	97.7
998.528	2720.8591	986.05	96.75
998.6498	2722.0809	984.05	100.9
998.7716	2723.3019	984.85	99.2
998.8934	2724.5223	986.7	100.9
999.0151	2725.7421	984.2	100.7
999.1368	2726.9611	985.75	100.75
999.2584	2728.1795	984.3	96.75
999.38	2729.3972	980.1	97.35
999.5016	2730.6142	984.6	94.6
999.6231	2731.8306	977.45	92.95
999.7446	2733.0462	974.8	91.15
999.8661	2734.2612	977.8	90.35
999.9875	2735.4756	974.7	88.95
1000.1089	2736.6892	971.8	87.85
1000.2302	2737.9022	972.55	90.8
1000.3515	2739.1145	972.8	87.75
1000.4728	2740.3262	979.85	90.65
1000.594	2741.5372	968.45	84.5
1000.7152	2742.7475	971	85.8
1000.8363	2743.9571	967.15	81.5
1000.9575	2745.1661	969.95	83.35
1001.0785	2746.3744	963.8	81
1001.1996	2747.582	966.4	82.85
1001.3206	2748.7889	967.7	82.2
1001.4415	2749.9952	968.7	85.5
1001.5625	2751.2008	967.55	82.3
1001.6833	2752.4057	968.15	79.65
1001.8042	2753.61	966.45	82.9
1001.925	2754.8136	965.85	80.05
1002.0458	2756.0165	961.85	79.15
1002.1665	2757.2188	961.3	78.5
1002.2872	2758.4204	959.6	76.45
1002.4078	2759.6213	965.05	79.25
1002.5285	2760.8215	964.8	78.5
1002.649	2762.0211	963.65	78.85
1002.7696	2763.22	965.15	79.05
1002.8901	2764.4182	959.2	74.1
1003.0106	2765.6158	957.1	72.6
1003.131	2766.8127	959.9	76.55
1003.2514	2768.009	958.9	76.3
1003.3717	2769.2045	961.55	76.25
1003.492	2770.3994	959.95	74.9
1003.6123	2771.5936	962.8	79.25
1003.7325	2772.7872	959.2	76.15
1003.8527	2773.9801	958.15	72.9
1003.9729	2775.1723	970.95	68.45
1004.093	2776.3639	956.05	73.9
1004.2131	2777.5548	957.15	71.2
1004.3331	2778.745	960	74.9
1004.4531	2779.9346	954.55	72.45
1004.5731	2781.1235	957	74.5
1004.693	2782.3117	954.2	70.3
1004.8129	2783.4992	953.9	70.65
1004.9328	2784.6861	959.45	77
1005.0526	2785.8723	958.7	74.2
1005.1723	2787.0579	959.4	75.7
1005.2921	2788.2428	955.1	71.2
1005.4118	2789.427	951.45	70.1
1005.5314	2790.6106	956.75	72.95
1005.651	2791.7935	953.65	68.55
1005.7706	2792.9757	952.1	69.85
1005.8902	2794.1573	956.7	70.25
1006.0097	2795.3382	953.5	70.4
1006.1291	2796.5184	954.6	72.3
1006.2485	2797.698	956.05	70.9
1006.3679	2798.8769	956.45	75.4
1006.4873	2800.0551	956.7	72.45
1006.6066	2801.2327	956.25	69.7
1006.7258	2802.4096	955	72.2
1006.8451	2803.5859	953.3	68.35
1006.9642	2804.7615	958.55	74.1
1007.0834	2805.9364	953.6	72.8
1007.2025	2807.1106	957.5	74.6
1007.3216	2808.2842	955.5	73.35
1007.4406	2809.4572	959.45	77.5
1007.5596	2810.6294	957.25	74.75
1007.6785	2811.801	956.4	74.4
1007.7975	2812.972	960.15	77.4
1007.9163	2814.1423	958.05	74.4
1008.0352	2815.3119	961.75	78.95
1008.154	2816.4808	959.85	78.05
1008.2727	2817.6491	966.55	82.15
1008.3914	2818.8167	964.6	80.2
1008.5101	2819.9837	976.2	86.85
1008.6288	2821.15	974.1	90.4
1008.7474	2822.3157	979.7	97.9
1008.8659	2823.4807	984.75	102.05
1008.9844	2824.645	990.8	106.65
1009.1029	2825.8086	995.45	113.95
1009.2214	2826.9716	1000.1	118.75
1009.3398	2828.134	1008.05	125.25
1009.4581	2829.2957	1014.55	132.65
1009.5764	2830.4567	1013.4	129.05
1009.6947	2831.617	1020.6	135.65
1009.813	2832.7767	1022.4	141.5
1009.9312	2833.9358	1020.55	136.9
1010.0493	2835.0941	1022.35	137.65
1010.1675	2836.2519	1023	142
1010.2855	2837.4089	1015.75	130.75
1010.4036	2838.5653	1014.8	131.9
1010.5216	2839.7211	1012.05	130.2
1010.6396	2840.8761	1011.4	127.65
1010.7575	2842.0306	1006.45	125.6
1010.8754	2843.1843	1008.95	128.55
1010.9932	2844.3374	1008.5	125.45
1011.111	2845.4899	1010.4	127
1011.2288	2846.6417	1012.8	129.6
1011.3465	2847.7928	1014.9	132.35
1011.4642	2848.9433	1013	130.3
1011.5818	2850.0931	1015.65	132.55
1011.6995	2851.2422	1018.9	131.45
1011.817	2852.3907	1019.05	135.35
1011.9345	2853.5385	1016.6	130.8
1012.052	2854.6857	1030.95	140
1012.1695	2855.8323	1016.75	135.35
1012.2869	2856.9781	1022.45	139.55
1012.4042	2858.1233	1023.2	141
1012.5216	2859.2679	1026.45	142.3
1012.6389	2860.4118	1029.65	145.15
1012.7561	2861.555	1037.7	149.7
1012.8733	2862.6976	1037.5	153.45
1012.9905	2863.8395	1034.95	152
1013.1076	2864.9808	1036.75	154.05
1013.2247	2866.1214	1035.25	154.7
1013.3417	2867.2614	1036.35	152.4
1013.4587	2868.4007	1042.1	156.8
1013.5757	2869.5393	1041.15	155.5
1013.6926	2870.6773	1049.4	163.9
1013.8095	2871.8146	1045.65	159.75
1013.9263	2872.9513	1049.35	163.65
1014.0431	2874.0874	1048.6	165
1014.1599	2875.2227	1050.1	164.2
1014.2766	2876.3574	1049.95	166.65
1014.3933	2877.4915	1052.1	168.5
1014.51	2878.6249	1053.3	171
1014.6266	2879.7577	1054.25	170.1
1014.7431	2880.8898	1065.4	170.95
1014.8596	2882.0212	1057.5	173.8
1014.9761	2883.152	1055.4	171.75
1015.0925	2884.2821	1062.35	180.4
1015.2089	2885.4116	1061.1	178.4
1015.3253	2886.5405	1065.65	180.8
1015.4416	2887.6686	1072.15	187.2
1015.5579	2888.7962	1065.65	185.2
1015.6741	2889.923	1066.15	184.35
1015.7903	2891.0493	1067	185.45
1015.9065	2892.1748	1062.75	179.45
1016.0226	2893.2997	1060.55	175.4
1016.1387	2894.424	1062.45	179.55
1016.2547	2895.5476	1065.55	183.85
1016.3707	2896.6706	1063.4	181.55
1016.4866	2897.7929	1068	184.6
1016.6025	2898.9145	1065.85	182.95
1016.7184	2900.0355	1061.5	177.65
1016.8342	2901.1559	1062.5	179.3
1016.95	2902.2756	1064	177.75
1017.0658	2903.3946	1067.95	184.7
1017.1815	2904.513	1063.25	177.1
1017.2971	2905.6308	1058.2	176.45
1017.4127	2906.7479	1055.6	172.85
1017.5283	2907.8643	1058.5	174.2
1017.6439	2908.9801	1059.9	178.5
1017.7594	2910.0953	1060.65	177.75
1017.8748	2911.2098	1064.05	179.15
1017.9902	2912.3236	1063.9	172.4
1018.1056	2913.4368	1060.65	174.85
1018.2209	2914.5494	1055.75	172.7
1018.3362	2915.6613	1057.95	169.85
1018.4515	2916.7725	1056.65	172.15
1018.5667	2917.8831	1049.9	165.55
1018.6819	2918.9931	1050.4	165.95
1018.797	2920.1024	1046.85	162.5
1018.9121	2921.211	1043.95	160.75
1019.0271	2922.319	1043.2	158.45
1019.1421	2923.4264	1041.95	158.6
1019.2571	2924.5331	1041.25	159.1
1019.372	2925.6391	1037.05	154.8
1019.4869	2926.7445	1040.25	158.9
1019.6017	2927.8493	1042.8	159
1019.7165	2928.9534	1044.6	163.2
1019.8313	2930.0569	1042.6	156.85
1019.946	2931.1597	1042.45	157.2
1020.0606	2932.2619	1040.6	155.8
1020.1753	2933.3634	1042.5	159.9
1020.2899	2934.4643	1053.25	161.05
1020.4044	2935.5645	1052.5	163.55
1020.5189	2936.6641	1051.5	162.6
1020.6334	2937.763	1049.8	169.2
1020.7478	2938.8613	1044.45	160.95
1020.8622	2939.959	1052.25	163.8
1020.9765	2941.056	1042.8	159.95
1021.0908	2942.1523	1041.45	157.05
1021.2051	2943.248	1032.15	147.8
1021.3193	2944.3431	1029.05	146.15
1021.4334	2945.4375	1018.2	134.5
1021.5476	2946.5313	1012	129.65
1021.6617	2947.6244	1009.8	126.75
1021.7757	2948.7169	1006.2	121.4
1021.8897	2949.8087	999.6	117.3
1022.0037	2950.8999	992.2	108.9
1022.1176	2951.9904	988.05	107
1022.2315	2953.0803	981.6	95.85
1022.3453	2954.1696	979.85	96.45
1022.4591	2955.2582	978.8	94.6
1022.5728	2956.3462	978.4	95.35
1022.6865	2957.4335	975.1	92.45
1022.8002	2958.5202	975.75	92.05
1022.9138	2959.6062	973.25	88.65
1023.0274	2960.6916	972.1	88.95
1023.141	2961.7764	976.15	91.45
1023.2545	2962.8605	971.15	86.8
1023.3679	2963.9439	973.35	90.1
1023.4813	2965.0267	972.1	87.5
1023.5947	2966.1089	995.1	86.9
1023.708	2967.1905	967.15	84.3
1023.8213	2968.2714	968.5	83.95
1023.9346	2969.3516	966.75	84.35
1024.0478	2970.4312	975	86.3
1024.1609	2971.5102	966.25	84.55
1024.274	2972.5885	967.1	84.75
1024.3871	2973.6662	972.6	83.9
1024.5002	2974.7432	968.95	85.9
1024.6132	2975.8196	967.8	85.9
1024.7261	2976.8954	967.5	84.9
1024.839	2977.9705	966.35	84.75
1024.9519	2979.045	964.25	80.3
1025.0647	2980.1188	967.6	85.15
1025.1775	2981.192	964.6	83.05
1025.2902	2982.2645	967.85	85.2
1025.4029	2983.3364	965.9	82.55
1025.5156	2984.4077	961.05	76.75
1025.6282	2985.4783	968.1	78.75
1025.7407	2986.5483	959.15	75.65
1025.8532	2987.6177	957.35	75.95
1025.9657	2988.6864	954.6	71.9
1026.0782	2989.7545	955.85	70.75
1026.1906	2990.8219	951.7	68.6
1026.3029	2991.8887	954.75	69.25
1026.4152	2992.9548	946.85	64.05
1026.5275	2994.0204	944.2	61.5
1026.6397	2995.0852	941.25	58.8
1026.7519	2996.1495	942.55	57.2
1026.864	2997.2131	937.4	55.7
1026.9761	2998.276	937.35	54.55
1027.0882	2999.3383	935.7	52.4
1027.2002	3000.4	932.9	48.05
1027.3122	3001.4611	931.95	49.05
1027.4241	3002.5215	928.8	44.1
1027.536	3003.5812	931.15	47.8
1027.6478	3004.6404	927.8	46.65
1027.7596	3005.6989	929.5	45.4
1027.8714	3006.7567	926.55	42.75
1027.9831	3007.8139	944.25	41.05
1028.0947	3008.8705	927	45.5
1028.2064	3009.9264	941.15	40.85
1028.3179	3010.9818	925.95	42.7
1028.4295	3012.0364	924.55	41.05
1028.541	3013.0905	926.8	43.35
1028.6524	3014.1439	922.7	39.7
1028.7638	3015.1966	922.75	38.4
1028.8752	3016.2487	924.1	42.6
1028.9865	3017.3002	924.85	38.65
1029.0978	3018.3511	919.6	38.8
1029.209	3019.4013	919.75	36.55
1029.3202	3020.4509	917.5	36.5
1029.4314	3021.4998	919.9	36.35
1029.5425	3022.5481	918.15	34.95
1029.6535	3023.5958	918.15	35.35
1029.7645	3024.6428	921.85	37.55
1029.8755	3025.6892	918.7	35.25
1029.9864	3026.735	918.8	36.4
1030.0973	3027.7802	918.55	34.6
1030.2082	3028.8247	921.4	37.85
1030.319	3029.8685	916.4	32.3
1030.4297	3030.9118	918.6	34.2
1030.5404	3031.9544	918.1	36.05
1030.6511	3032.9963	918.85	34.15
1030.7617	3034.0376	918.55	35.2
1030.8723	3035.0783	922.35	36.75
1030.9829	3036.1184	921.95	39.2
1031.0934	3037.1578	917.75	36.7
1031.2038	3038.1966	919.15	35.35
1031.3142	3039.2348	915.2	32.45
1031.4246	3040.2723	928.5	39.15
1031.5349	3041.3092	918.9	35.9
1031.6452	3042.3455	918.4	34.45
1031.7554	3043.3811	921.25	39.65
1031.8656	3044.4161	919.75	34.6
1031.9758	3045.4505	918.3	37.85
1032.0859	3046.4842	922.25	37.3
1032.1959	3047.5173	914.75	33
1032.3059	3048.5498	918.95	34.25
1032.4159	3049.5816	919.05	34.25
1032.5258	3050.6128	918.8	35.35
1032.6357	3051.6434	919.45	35.25
1032.7455	3052.6734	920	36.45
1032.8553	3053.7027	917.65	35.45
1032.9651	3054.7314	915.75	32
1033.0748	3055.7594	916.45	33.6
1033.1845	3056.7868	919.4	34.45
1033.2941	3057.8136	917.5	35.05
1033.4037	3058.8398	918.05	36.05
1033.5132	3059.8653	917.2	33.9
1033.6227	3060.8902	918.75	34.6
1033.7321	3061.9145	917.4	32.75
1033.8415	3062.9381	918.85	36
1033.9509	3063.9612	935.25	37
1034.0602	3064.9835	921.9	39.35
1034.1694	3066.0053	920.4	38.05
1034.2787	3067.0264	921.45	38
1034.3878	3068.0469	921.45	38.35
1034.497	3069.0668	922.9	36.25
1034.6061	3070.086	916.4	36.6
1034.7151	3071.1046	920.85	36.6
1034.8241	3072.1226	921.35	37.7
1034.9331	3073.1399	917.35	35.9
1035.042	3074.1567	918.6	34.65
1035.1508	3075.1727	916.5	31.5
1035.2597	3076.1882	916.5	33.6
1035.3684	3077.203	917.45	35.6
1035.4772	3078.2173	918.15	34.4
1035.5859	3079.2308	918.9	33.45
1035.6945	3080.2438	916.75	31.95
1035.8031	3081.2561	913.25	30.4
1035.9117	3082.2678	913.4	32.7
1036.0202	3083.2789	913.95	31.4
1036.1286	3084.2893	911.4	30.65
1036.2371	3085.2991	913.15	28.9
1036.3454	3086.3083	913.1	27.3
1036.4538	3087.3169	913.8	30.6
1036.562	3088.3248	913.8	30.15
1036.6703	3089.3321	913.8	28.25
1036.7785	3090.3388	912.05	31
1036.8866	3091.3449	910.45	28.05
1036.9948	3092.3503	913.45	31.25
1037.1028	3093.3551	909.45	26.8
1037.2108	3094.3593	906.55	25.3
1037.3188	3095.3629	909.5	27.05
1037.4267	3096.3658	911.25	27
1037.5346	3097.3681	909.35	28.25
1037.6425	3098.3698	910.8	25.8
1037.7503	3099.3708	913.4	23.95
1037.858	3100.3713	906.4	23.05
1037.9657	3101.3711	908.9	24.6
1038.0734	3102.3702	1040.85	22.9
1038.181	3103.3688	910.15	27
1038.2886	3104.3667	906.9	25.4
1038.3961	3105.364	906.4	26
1038.5036	3106.3607	909.1	25.1
1038.611	3107.3568	910	25.35
1038.7184	3108.3522	904.6	24.8
1038.8257	3109.347	909.25	25.2
1038.933	3110.3412	911.1	24.5
1039.0403	3111.3348	905.25	22.95
1039.1475	3112.3277	905.75	22.95
1039.2547	3113.32	904.6	24
1039.3618	3114.3117	907	23.9
1039.4689	3115.3028	903.35	23
1039.5759	3116.2932	907.45	21.3
1039.6829	3117.2831	910.2	24.75
1039.7898	3118.2723	904.4	21.5
1039.8967	3119.2608	905.1	22.05
1040.0035	3120.2488	902.55	15.3
1040.1103	3121.2361	904.45	21.35
1040.2171	3122.2229	904.9	22.9
1040.3238	3123.209	906.05	22.65
1040.4305	3124.1944	903	20.85
1040.5371	3125.1793	907.2	24.2
1040.6437	3126.1635	904.85	22.95
1040.7502	3127.1471	902.4	20.45
1040.8567	3128.1301	901.7	18.7
1040.9631	3129.1125	902.95	19
1041.0695	3130.0942	903.45	21.2
1041.1759	3131.0753	911.9	20.45
1041.2822	3132.0558	905.7	19.3
1041.3884	3133.0357	902.65	19.4
1041.4946	3134.015	902.65	19.65
1041.6008	3134.9936	901.6	17.4
1041.7069	3135.9716	923.55	22.4
1041.813	3136.949	902.3	22
1041.919	3137.9258	917.55	16.85
1042.025	3138.902	907.2	18.05
1042.1309	3139.8775	903	21.25
1042.2368	3140.8524	899.45	18.85
1042.3427	3141.8267	903.2	18.7
1042.4485	3142.8004	901.1	19.7
1042.5542	3143.7735	908.35	15.65
1042.6599	3144.7459	901.95	15
1042.7656	3145.7178	900.9	16.35
1042.8712	3146.689	899.3	17.9
1042.9768	3147.6596	902.85	16.65
1043.0823	3148.6295	899.45	16.65
1043.1878	3149.5989	897.55	13.15
1043.2932	3150.5676	900.2	20.8
1043.3986	3151.5357	899.85	16.7
1043.5039	3152.5032	898.45	16.65
1043.6092	3153.4701	899.15	16.75
1043.7145	3154.4364	904.55	18.65
1043.8197	3155.402	899.05	17.15
1043.9248	3156.367	899.65	15.35
1044.03	3157.3315	934.6	17.5
1044.135	3158.2952	898.75	17.45
1044.24	3159.2584	899.8	19.5
1044.345	3160.221	902.05	18.8
1044.4499	3161.1829	899.75	17.9
1044.5548	3162.1442	897.5	14.45
1044.6596	3163.105	898.45	14.35
1044.7644	3164.065	900	17.55
1044.8692	3165.0245	901.05	14.9
1044.9739	3165.9834	897.25	15.2
1045.0785	3166.9416	898.35	15.2
1045.1831	3167.8993	897.95	15.55
1045.2877	3168.8563	899.4	17.85
1045.3922	3169.8127	897.35	15.65
1045.4966	3170.7684	895.6	12.75
1045.6011	3171.7236	900.25	17.05
1045.7054	3172.6782	899.15	15.5
1045.8098	3173.6321	899.4	15.9
1045.914	3174.5854	901.45	14.3
1046.0183	3175.5381	899.1	17.1
1046.1224	3176.4902	898.2	14.6
1046.2266	3177.4417	899.2	17.3
1046.3307	3178.3926	898.15	16.3
1046.4347	3179.3428	896.4	18.4
1046.5387	3180.2924	894.55	11.45
1046.6427	3181.2415	899.35	16.45
1046.7466	3182.1899	897.75	14.25
1046.8504	3183.1377	896.3	14.9
1046.9542	3184.0848	900.65	14.85
1047.058	3185.0314	897.75	13.8
1047.1617	3185.9773	898.65	16.25
1047.2654	3186.9227	898.45	15.8
1047.369	3187.8674	897.8	15.1
1047.4726	3188.8115	898.9	11.45
1047.5761	3189.755	896.85	14.8
1047.6796	3190.6979	898.75	15.1
1047.783	3191.6402	896.45	15.05
1047.8864	3192.5818	895.7	13.4
1047.9898	3193.5229	902.45	12.5
1048.0931	3194.4633	896.65	14
1048.1963	3195.4031	896	12.85
1048.2995	3196.3423	897.3	17.2
1048.4027	3197.2809	895.35	12.05
1048.5058	3198.2189	895.45	11.25
1048.6089	3199.1563	904.05	13.1
1048.7119	3200.0931	895.6	13.35
1048.8148	3201.0292	895.75	14.7
1048.9178	3201.9648	895.25	12.15
1049.0206	3202.8997	900.2	12.9
1049.1235	3203.834	894.85	11.65
1049.2262	3204.7677	895.15	12
1049.329	3205.7008	897.8	15
1049.4317	3206.6333	892	9.7
1049.5343	3207.5652	898.9	14.55
1049.6369	3208.4964	895.9	12.65
1049.7394	3209.4271	896.85	13.65
1049.8419	3210.3571	895.5	14.9
1049.9444	3211.2865	896.65	12
1050.0468	3212.2154	895.95	14.35
1050.1491	3213.1436	899.25	13.6
1050.2514	3214.0712	902.4	14.2
1050.3537	3214.9982	896.15	13.3
1050.4559	3215.9246	895.55	11.95
1050.5581	3216.8503	893.75	11.75
1050.6602	3217.7755	894.65	11.7
1050.7623	3218.7001	893.5	12.05
1050.8643	3219.624	894.2	13.15
1050.9663	3220.5473	895.35	13.55
1051.0682	3221.4701	895.25	11
1051.1701	3222.3922	896.8	12.55
1051.2719	3223.3137	894.3	11.75
1051.3737	3224.2346	893.1	9.5
1051.4754	3225.1549	894.6	12.2
1051.5771	3226.0746	893.55	12.15
1051.6788	3226.9937	894.15	9.95
1051.7804	3227.9121	891.35	9.8
1051.8819	3228.83	894.15	13.6
1051.9834	3229.7473	894.15	12.35
1052.0849	3230.6639	895.45	11.95
1052.1863	3231.5799	894.55	11.4
1052.2876	3232.4954	893.15	11.15
1052.3889	3233.4102	893	12.05
1052.4902	3234.3244	893.85	11.25
1052.5914	3235.238	894.95	12.35
1052.6926	3236.151	918.45	11.25
1052.7937	3237.0634	894.15	13.25
1052.8948	3237.9752	892.1	10.75
1052.9958	3238.8864	894.7	11.25
1053.0968	3239.797	892.45	9.4
1053.1977	3240.7069	894.35	9.7
1053.2986	3241.6163	895.1	13.4
1053.3994	3242.5251	893.85	9.15
1053.5002	3243.4332	894.3	13.8
1053.6009	3244.3408	893.95	9.85
1053.7016	3245.2477	890.4	6.9
1053.8022	3246.154	895.35	13.75
1053.9028	3247.0598	894.45	13.2
1054.0034	3247.9649	893.2	9.4
1054.1039	3248.8694	892.15	11.25
1054.2043	3249.7733	891.45	9.6
1054.3047	3250.6766	892.75	12.1
1054.4051	3251.5793	893.5	9.8
1054.5054	3252.4814	890.35	8.75
1054.6056	3253.3829	891.9	10
1054.7058	3254.2838	890.95	8.55
1054.806	3255.1841	890.65	8.7
1054.9061	3256.0838	892.2	7.8
1055.0061	3256.9829	889.6	6.7
1055.1062	3257.8814	893.1	10.45
1055.2061	3258.7792	893.95	11.1
1055.306	3259.6765	892.25	11.05
1055.4059	3260.5731	892.1	7.3
1055.5057	3261.4692	892.85	8.95
1055.6055	3262.3647	893.35	10.05
1055.7052	3263.2595	890.55	9.25
1055.8049	3264.1538	890.95	8.9
1055.9045	3265.0474	890.75	7.35
1056.0041	3265.9404	890.15	8.5
1056.1036	3266.8329	889.75	7.35
1056.2031	3267.7247	902	9.2
1056.3025	3268.616	888.8	6.6
1056.4019	3269.5066	889.95	7.45
1056.5013	3270.3966	892.5	7.2
1056.6005	3271.286	887.05	5
