Software Version:	3.9.2.0
Unit SN:	10000200
Spectrometer SN:	6960
Date:	3/26/2024 2:42:47 PM
Data Line Index:	25
Spectral Points:	2048
Integration time (ms):	125
Averages:	20
Delay (ms):	30000
Sequence Number:	1
Processing:	dark subtract
Laser Power (mW):	305
Laser Current (mA):	821
Laser Diode Temp (C):	25
Laser Case Temp (C):	27.9
System Temp (C):	28
Spectrometer Temp (C):	25.9
CCD Temp (C):	-0.009
Secondary Temp (C):	20.008
Heatsink Temp (C):	23.373
CCDPCB Temp (C):	37.307
SecondaryPCB Temp (C):	34.795

Wavelength	RamanShift	Raw Counts	Dark Subtracted
787.061	30.1047	631.1	222.85
787.2016	32.3739	641.85	233.15
787.3422	34.6426	652.55	243.5
787.4828	36.9109	673.1	261.55
787.6235	39.1787	694.35	278.25
787.7642	41.4461	714.9	294.5
787.9049	43.7131	739.8	316.45
788.0456	45.9796	767.5	341.1
788.1863	48.2456	790.85	359.05
788.3271	50.5112	818.85	383.55
788.4679	52.7764	842.9	406.5
788.6087	55.0411	870.1	429.75
788.7496	57.3054	900.55	456.8
788.8904	59.5692	934.45	487.2
789.0313	61.8326	969.55	516.95
789.1722	64.0955	1007.4	551.05
789.3132	66.3579	1044.75	582.75
789.4541	68.6199	1107.55	642
789.5951	70.8815	1199.45	730.55
789.7361	73.1426	1399.4	925.7
789.8771	75.4032	1898.95	1419.1
790.0181	77.6634	3126.85	2641.85
790.1592	79.9231	6179.95	5684.35
790.3003	82.1824	13209.4	12695.35
790.4414	84.4412	28923.85	28379.15
790.5825	86.6995	55992.5	55404.25
790.7237	88.9574	65363.85	64732.55
790.8648	91.2148	65535	64870.45
791.006	93.4717	65535	64852
791.1472	95.7282	65535	64839.25
791.2885	97.9842	65535	64833.9
791.4297	100.2398	65535	64833.45
791.571	102.4949	65535	64829.65
791.7123	104.7495	65535	64823.05
791.8536	107.0036	65535	64829.5
791.9949	109.2573	65535	64827.1
792.1363	111.5105	65535	64821.45
792.2777	113.7632	65535	64823.9
792.4191	116.0154	65535	64810.2
792.5605	118.2672	65535	64813.9
792.7019	120.5185	65535	64817.25
792.8434	122.7693	65535	64816.8
792.9849	125.0197	65535	64807.95
793.1264	127.2696	65535	64809.1
793.2679	129.519	65535	64806.75
793.4094	131.7679	65535	64799.1
793.551	134.0163	65535	64799.9
793.6926	136.2642	65535	64791.85
793.8342	138.5117	65535	64790.6
793.9758	140.7587	65535	64787.1
794.1175	143.0052	65535	64789.55
794.2591	145.2512	65535	64791.1
794.4008	147.4967	65535	64785.9
794.5425	149.7417	65535	64789.25
794.6842	151.9863	65535	64782.15
794.826	154.2304	65535	64777.4
794.9677	156.4739	65535	64772.45
795.1095	158.717	65535	64776.65
795.2513	160.9596	65535	64766.3
795.3931	163.2017	65535	64766.3
795.535	165.4433	65535	64766.5
795.6768	167.6844	65535	64765.45
795.8187	169.925	65535	64765.8
795.9606	172.1651	65535	64760.25
796.1025	174.4047	65535	64759.15
796.2445	176.6439	65535	64762.5
796.3864	178.8825	65535	64755.7
796.5284	181.1206	65535	64746.75
796.6704	183.3582	65535	64747.9
796.8124	185.5954	65535	64743.95
796.9544	187.832	65535	64737.75
797.0965	190.0681	65535	64740.05
797.2386	192.3037	65535	64734.85
797.3806	194.5388	65535	64734.7
797.5228	196.7734	65535	64725.85
797.6649	199.0075	65535	64727.3
797.807	201.2411	65535	64717.1
797.9492	203.4742	65535	64720.75
798.0914	205.7068	65535	64720.55
798.2336	207.9389	65535	64718.5
798.3758	210.1704	65535	64718.15
798.518	212.4015	65535	64719
798.6603	214.632	65535	64715.2
798.8025	216.862	65535	64726.8
798.9448	219.0915	65535	64732.6
799.0871	221.3205	65535	64733.6
799.2294	223.549	65535	64740.7
799.3718	225.777	65535	64738
799.5141	228.0044	65535	64730.85
799.6565	230.2314	65535	64735.95
799.7989	232.4578	65535	64741.65
799.9413	234.6837	65535	64736.1
800.0837	236.909	65535	64726.5
800.2262	239.1339	65535	64702.65
800.3687	241.3582	65535	64715.05
800.5111	243.582	65535	64685.05
800.6536	245.8053	65535	64695.95
800.7961	248.0281	65535	64698.85
800.9387	250.2503	65535	64695.75
801.0812	252.472	65535	64692
801.2238	254.6932	65535	64693.5
801.3664	256.9139	65535	64692.8
801.509	259.134	65535	64690.15
801.6516	261.3536	65535	64689.25
801.7942	263.5727	65535	64688.1
801.9369	265.7912	65535	64689.85
802.0795	268.0092	65535	64684.4
802.2222	270.2267	65535	64685.7
802.3649	272.4436	65535	64687.1
802.5076	274.6601	65535	64684.3
802.6504	276.8759	65535	64685.5
802.7931	279.0913	65535	64680.4
802.9359	281.3061	65535	64682.75
803.0787	283.5204	65535	64675.7
803.2215	285.7341	65535	64675.4
803.3643	287.9473	65535	64664.2
803.5071	290.16	65535	64668.95
803.6499	292.3721	65535	64674.8
803.7928	294.5837	65535	64670.7
803.9357	296.7947	65535	64675.2
804.0786	299.0052	65535	64670.65
804.2215	301.2152	65535	64671.6
804.3644	303.4246	65535	64678.85
804.5074	305.6334	65535	64675.6
804.6503	307.8418	65535	64673.15
804.7933	310.0495	65535	64671.35
804.9363	312.2568	65535	64672.5
805.0793	314.4635	65535	64668.85
805.2223	316.6696	65535	64665.8
805.3653	318.8752	65535	64657.65
805.5084	321.0802	65535	64665.25
805.6514	323.2847	65535	64660.1
805.7945	325.4887	65535	64662.15
805.9376	327.692	65535	64663.6
806.0807	329.8949	65535	64660.35
806.2238	332.0972	65535	64661.95
806.367	334.2989	65535	64659.15
806.5101	336.5001	65535	64654.7
806.6533	338.7007	65535	64658.85
806.7965	340.9008	65535	64652.8
806.9397	343.1003	65535	64656.15
807.0829	345.2992	65535	64648.65
807.2261	347.4976	65535	64650.2
807.3693	349.6955	65535	64648.6
807.5126	351.8927	65535	64645.75
807.6559	354.0895	65535	64637.3
807.7991	356.2856	65535	64644.7
807.9424	358.4812	65535	64649.15
808.0857	360.6763	65535	64646
808.2291	362.8707	65535	64647.95
808.3724	365.0646	65535	64643.95
808.5158	367.258	65535	64644.35
808.6591	369.4508	65535	64636.85
808.8025	371.643	65535	64633.45
808.9459	373.8346	65535	64632.9
809.0893	376.0257	65535	64631.3
809.2327	378.2162	65535	64635.65
809.3762	380.4062	65535	64634.3
809.5196	382.5956	65535	64630.6
809.6631	384.7844	65535	64631.9
809.8066	386.9726	65535	64631.7
809.9501	389.1603	65535	64634.35
810.0936	391.3474	65535	64597.85
810.2371	393.5339	65535	64636.6
810.3806	395.7199	65535	64643.2
810.5241	397.9052	65535	64643.65
810.6677	400.09	65535	64642.2
810.8113	402.2743	65535	64646.65
810.9548	404.4579	65535	64644.6
811.0984	406.641	65535	64640
811.2421	408.8235	65535	64647.55
811.3857	411.0054	65535	64643.9
811.5293	413.1868	65535	64638.15
811.673	415.3675	65535	64632.95
811.8166	417.5477	65535	64634.9
811.9603	419.7273	65535	64631.8
812.104	421.9064	65535	64627.2
812.2477	424.0848	65535	64631.05
812.3914	426.2627	65535	64629.2
812.5351	428.4399	65535	64627.35
812.6788	430.6166	65535	64626.85
812.8226	432.7928	65535	64626.7
812.9663	434.9683	65535	64628.05
813.1101	437.1432	65535	64629.9
813.2539	439.3176	65535	64627.35
813.3977	441.4914	65535	64633.15
813.5415	443.6645	65535	64632.4
813.6853	445.8371	65535	64628.25
813.8291	448.0091	65535	64628.05
813.973	450.1806	65535	64627.25
814.1168	452.3514	65535	64627.45
814.2607	454.5216	65535	64619.85
814.4046	456.6913	65535	64625.4
814.5485	458.8603	65535	64630.7
814.6924	461.0288	65535	64632.15
814.8363	463.1967	65535	64635.35
814.9802	465.3639	65535	64632.1
815.1241	467.5306	65535	64630.3
815.2681	469.6967	65535	64630
815.412	471.8622	65535	64630.3
815.556	474.0271	65535	64628.5
815.7	476.1914	65535	64627.1
815.844	478.3551	65535	64626.5
815.988	480.5182	65535	64629.1
816.132	482.6807	65535	64635.65
816.276	484.8426	65535	64639.9
816.4201	487.0039	65535	64638.05
816.5641	489.1647	65535	64627.05
816.7082	491.3248	65535	64622.65
816.8522	493.4843	65535	64632.2
816.9963	495.6432	65535	64631.65
817.1404	497.8015	65535	64620.45
817.2845	499.9592	65535	64617.15
817.4286	502.1163	65535	64621.5
817.5727	504.2728	65535	64621.15
817.7168	506.4287	65535	64634.1
817.861	508.5839	65535	64630.4
818.0051	510.7386	65535	64628.1
818.1493	512.8927	65535	64612.9
818.2935	515.0461	65535	64618.5
818.4377	517.199	65535	64617.15
818.5818	519.3512	65535	64616.95
818.726	521.5029	65535	64612
818.8703	523.6539	65535	64616.35
819.0145	525.8043	65535	64614.4
819.1587	527.9541	65535	64614.4
819.303	530.1033	65535	64616.05
819.4472	532.2519	65535	64619.35
819.5915	534.3999	65535	64615.3
819.7357	536.5472	65535	64614.7
819.88	538.694	65535	64619.65
820.0243	540.8401	65535	64613.65
820.1686	542.9856	65535	64606.15
820.3129	545.1305	65535	64599.6
820.4572	547.2748	65535	64596.55
820.6016	549.4185	65535	64595.75
820.7459	551.5615	65535	64601.3
820.8902	553.704	65535	64601.05
821.0346	555.8458	65535	64606.1
821.1789	557.987	65535	64607.05
821.3233	560.1276	65535	64607.3
821.4677	562.2675	65535	64606.05
821.6121	564.4069	65535	64608.05
821.7565	566.5456	65535	64609.8
821.9009	568.6837	65535	64612.2
822.0453	570.8212	65535	64612.4
822.1897	572.958	65535	64611.25
822.3342	575.0942	65535	64616.7
822.4786	577.2299	65535	64617.7
822.6231	579.3648	65535	64627.9
822.7675	581.4992	65535	64633.8
822.912	583.6329	65535	64634.8
823.0565	585.766	65535	64625.7
823.201	587.8985	65535	64623.15
823.3454	590.0304	65535	64588.6
823.4899	592.1616	65535	64608.6
823.6345	594.2922	65535	64607.9
823.779	596.4222	65535	64606.4
823.9235	598.5515	65535	64603.9
824.068	600.6802	65535	64601.7
824.2126	602.8083	65535	64606.2
824.3571	604.9358	65535	64608.35
824.5017	607.0626	65535	64601.9
824.6462	609.1888	65535	64597.85
824.7908	611.3144	65535	64602.35
824.9354	613.4393	65535	64602.4
825.08	615.5636	65529.15	64592.8
825.2246	617.6873	65535	64601.6
825.3692	619.8103	65524.65	64590.1
825.5138	621.9327	65535	64605.1
825.6584	624.0544	65535	64610.3
825.803	626.1756	65533.9	64603.9
825.9477	628.2961	65532.95	64600.85
826.0923	630.4159	65529.55	64596.5
826.237	632.5351	65524.05	64592.7
826.3816	634.6537	65535	64599.9
826.5263	636.7716	65522.35	64586.5
826.6709	638.8889	65529.6	64588.4
826.8156	641.0056	65528.9	64587.85
826.9603	643.1216	65528.45	64590.9
827.105	645.237	65534.5	64598.7
827.2497	647.3518	65520.95	64594.05
827.3944	649.4659	65527.25	64602.3
827.5391	651.5793	65530.35	64603.45
827.6838	653.6922	65532.7	64602.55
827.8285	655.8043	65501.2	64570.4
827.9733	657.9159	65534.4	64604.4
828.118	660.0268	65439.1	64505.65
828.2627	662.137	65520.85	64585.75
828.4075	664.2466	65520.45	64577.1
828.5522	666.3556	65501.2	64562.55
828.697	668.4639	65522.2	64586.15
828.8418	670.5716	65490.1	64558.55
828.9865	672.6786	65518.8	64582.6
829.1313	674.785	65480.45	64536.45
829.2761	676.8907	65491.1	64555.5
829.4209	678.9958	65520.1	64587.65
829.5657	681.1002	65518.15	64579.1
829.7105	683.204	65468.8	64523.95
829.8553	685.3072	65436.95	64495.05
830.0001	687.4097	65466.65	64526.55
830.1449	689.5115	65431.35	64490.05
830.2898	691.6127	65489	64555.2
830.4346	693.7132	65431.4	64498.45
830.5794	695.8131	65429.65	64471.65
830.7243	697.9123	65444.5	64504.35
830.8691	700.0109	65443.9	64500.05
831.014	702.1089	65358.45	64418.75
831.1588	704.2061	65384.1	64443.55
831.3037	706.3028	65388.95	64444.9
831.4486	708.3987	65418.4	64476.15
831.5935	710.4941	65378.35	64436.9
831.7383	712.5887	65447.65	64508.15
831.8832	714.6827	65413.7	64467.2
832.0281	716.7761	65459.75	64523.65
832.173	718.8688	65487.6	64549.6
832.3179	720.9608	65445	64503.1
832.4628	723.0522	65441.1	64487.4
832.6077	725.1429	65373.1	64430.75
832.7527	727.233	65481.85	64537.9
832.8976	729.3224	65072	64130.35
833.0425	731.4112	65288.55	64344
833.1874	733.4993	65278.8	64334.65
833.3324	735.5867	65290.85	64348.8
833.4773	737.6735	65120.6	64173.2
833.6222	739.7596	64979.05	64037.2
833.7672	741.845	64955.6	64013.05
833.9122	743.9298	65210.8	64269.7
834.0571	746.014	64944.75	64000.55
834.2021	748.0974	64779	63831.9
834.347	750.1802	65165.65	64217.1
834.492	752.2624	64702.75	63757.05
834.637	754.3439	64749.4	63802.05
834.782	756.4247	64854.7	63901.1
834.9269	758.5048	64704.35	63758
835.0719	760.5843	64788.7	63842.65
835.2169	762.6631	64897.3	63950.85
835.3619	764.7413	64850.75	63905
835.5069	766.8188	64948.85	64002.1
835.6519	768.8956	65178.25	64231.3
835.7969	770.9718	65143.75	64199.25
835.9419	773.0473	65040.35	64095.7
836.0869	775.1221	64721.65	63776.6
836.232	777.1962	64687.3	63741.9
836.377	779.2697	64350.2	63400.55
836.522	781.3426	64620.4	63662.15
836.667	783.4147	64744.45	63794.5
836.8121	785.4862	64729.4	63783.35
836.9571	787.557	64409.1	63457.15
837.1021	789.6271	64688.25	63738.85
837.2472	791.6966	64289.35	63343.6
837.3922	793.7654	63795.2	62848.3
837.5373	795.8335	63769.4	62821.5
837.6823	797.901	63901.55	62954.35
837.8274	799.9678	63630.9	62678.65
837.9724	802.0339	63554.9	62604.75
838.1175	804.0993	63627.85	62666.3
838.2626	806.1641	63476.45	62528.2
838.4076	808.2282	63333.7	62384.1
838.5527	810.2916	63136.8	62188.1
838.6978	812.3544	63414.2	62475
838.8428	814.4164	62816.45	61868.25
838.9879	816.4778	62861.7	61910.95
839.133	818.5385	62905.9	61954.75
839.2781	820.5986	62802	61851.9
839.4232	822.658	62857.5	61906
839.5682	824.7166	62917.4	61971.5
839.7133	826.7747	62269.55	61319.2
839.8584	828.832	62556.3	61604.45
840.0035	830.8886	62951.6	62003.25
840.1486	832.9446	62991.4	62037.25
840.2937	834.9999	61978.85	61028
840.4388	837.0545	62567.8	61612.1
840.5839	839.1085	62876.05	61927.05
840.729	841.1618	62655.35	61703.55
840.8741	843.2143	61875	60925.2
841.0192	845.2662	61869.7	60918.15
841.1643	847.3175	62131.15	61181.35
841.3095	849.368	61180.05	60229.85
841.4546	851.4179	61868.75	60916.55
841.5997	853.467	61158.35	60205.85
841.7448	855.5155	61378.9	60426.9
841.8899	857.5633	60793.2	59839.45
842.0351	859.6105	60470.85	59516.05
842.1802	861.6569	60779.85	59831.45
842.3253	863.7027	59997.15	59040.65
842.4704	865.7478	60256.45	59306.3
842.6156	867.7922	60118.95	59166.25
842.7607	869.8359	60488.25	59533.25
842.9058	871.8789	59728.15	58775.6
843.0509	873.9212	60243.5	59259.3
843.1961	875.9629	60403.85	59449.7
843.3412	878.0039	60358.4	59409.35
843.4863	880.0441	60075.45	59127.9
843.6315	882.0837	59975.55	59023.7
843.7766	884.1226	59854.95	58898.55
843.9218	886.1609	59640.6	58690.8
844.0669	888.1984	59215	58264.2
844.212	890.2352	59674.25	58724.05
844.3572	892.2714	58856.95	57897.75
844.5023	894.3069	59138.25	58186.1
844.6475	896.3416	58770.85	57818.95
844.7926	898.3757	58648.7	57695.8
844.9377	900.4091	57832.4	56876.8
845.0829	902.4418	58787.25	57832.65
845.228	904.4739	58140.4	57183.4
845.3732	906.5052	58267.7	57314.8
845.5183	908.5358	57791.1	56835.2
845.6635	910.5658	57385.35	56429.6
845.8086	912.595	57275.95	56325.6
845.9538	914.6236	56524.85	55571.7
846.0989	916.6515	57632.8	56679.7
846.2441	918.6786	56392.5	55437.4
846.3892	920.7051	56653.1	55700
846.5344	922.7309	56594.75	55640.3
846.6795	924.756	56725.3	55772.55
846.8246	926.7804	56370.35	55416.55
846.9698	928.8041	55697.75	54741.3
847.1149	930.8272	56084.5	55133
847.2601	932.8495	55981.4	55027.35
847.4052	934.8711	55368.1	54413.35
847.5504	936.892	54998.15	54045.8
847.6955	938.9123	54886.9	53931.4
847.8407	940.9318	54396.3	53443.25
847.9858	942.9506	54250.35	53298.6
848.131	944.9688	54161.7	53207.45
848.2761	946.9862	53500.5	52545.3
848.4213	949.003	53614.35	52663.9
848.5664	951.019	53083.6	52130.95
848.7115	953.0344	53152.25	52201.55
848.8567	955.0491	53041.45	52086.5
849.0018	957.063	53180.95	52225.35
849.147	959.0763	53236.55	52277.85
849.2921	961.0888	52923.9	51968.85
849.4373	963.1007	53125.65	52175.85
849.5824	965.1119	53050.65	52106.85
849.7275	967.1223	52831.75	51887.2
849.8727	969.1321	52932	51994.5
850.0178	971.1412	52590.5	51644.5
850.1629	973.1495	52347	51399.1
850.3081	975.1572	52483.8	51497.9
850.4532	977.1641	52379.55	51426.55
850.5983	979.1704	52150.2	51197.05
850.7435	981.1759	52083.2	51126.9
850.8886	983.1808	51913.95	50959.7
851.0337	985.1849	52028.55	51064.9
851.1788	987.1884	51995.95	51039.35
851.324	989.1911	52227.25	51269.1
851.4691	991.1932	51891.85	50941.65
851.6142	993.1945	51874.25	50924.2
851.7593	995.1951	51715.25	50763.15
851.9045	997.1951	51444.65	50485.45
852.0496	999.1943	51157.95	50204.75
852.1947	1001.1928	50916.4	49963.35
852.3398	1003.1906	50793.55	49842.6
852.4849	1005.1877	50544.75	49593.35
852.63	1007.1841	50223.95	49273
852.7751	1009.1798	49999.55	49048.3
852.9202	1011.1748	49625.4	48673.8
853.0653	1013.1691	49295.05	48345.6
853.2104	1015.1627	48807.9	47857.6
853.3555	1017.1556	48354.05	47405.55
853.5006	1019.1477	48213.3	47263.85
853.6457	1021.1392	47888.2	46942.8
853.7908	1023.1299	47614.65	46673.55
853.9359	1025.12	47585.7	46649.1
854.081	1027.1093	47273.35	46346.35
854.2261	1029.0979	47244.75	46318.25
854.3712	1031.0859	47077.05	46146
854.5163	1033.0731	46895.25	45953.7
854.6613	1035.0596	46708.45	45767.25
854.8064	1037.0454	46284.35	45337.4
854.9515	1039.0304	46069.4	45122.7
855.0965	1041.0148	45677.9	44731.95
855.2416	1042.9985	45497.4	44544.8
855.3867	1044.9814	45491.4	44545
855.5317	1046.9636	45206.15	44257.7
855.6768	1048.9452	44949.85	44005.55
855.8219	1050.926	44888.6	43941.9
855.9669	1052.9061	44714.55	43767.35
856.112	1054.8855	44549.7	43599.35
856.257	1056.8642	44501.75	43552.7
856.4021	1058.8421	44448.35	43496.05
856.5471	1060.8194	44368.7	43417.6
856.6921	1062.7959	44209.6	43258.4
856.8372	1064.7717	44097.2	43145.75
856.9822	1066.7469	43992.65	43042.15
857.1272	1068.7213	43803.5	42850.8
857.2723	1070.695	43711.75	42765.7
857.4173	1072.6679	43419.05	42470.95
857.5623	1074.6402	43283.9	42336.65
857.7073	1076.6117	43183.6	42230.95
857.8523	1078.5826	43136.7	42184.1
857.9973	1080.5527	43041.65	42089.3
858.1423	1082.5221	43054.3	42107.7
858.2873	1084.4908	43208.75	42260.8
858.4323	1086.4587	43282.7	42333.75
858.5773	1088.426	43425.05	42476.2
858.7223	1090.3925	43156.6	42202.2
858.8673	1092.3584	43003.45	42056.15
859.0123	1094.3235	42571.2	41623
859.1573	1096.2879	42347.25	41399
859.3022	1098.2515	42224.2	41277.9
859.4472	1100.2145	42146.75	41200.4
859.5922	1102.1767	42053.1	41104.2
859.7371	1104.1382	42043.2	41097
859.8821	1106.099	42188.1	41236.45
860.027	1108.0591	42228.15	41281.3
860.172	1110.0185	42237.6	41290.4
860.3169	1111.9771	42160.6	41210.45
860.4619	1113.9351	41722.7	40776.4
860.6068	1115.8923	41230.2	40286.7
860.7517	1117.8488	40782	39831.5
860.8967	1119.8045	40286.85	39340.2
861.0416	1121.7596	40093.15	39149
861.1865	1123.7139	39852.6	38908.85
861.3314	1125.6675	39726.05	38783.25
861.4763	1127.6204	39852.25	38905.05
861.6212	1129.5726	39741.65	38790.6
861.7661	1131.524	39672.1	38725.25
861.911	1133.4748	39680.5	38732.1
862.0559	1135.4248	39518.4	38570.05
862.2008	1137.3741	39472.3	38527.7
862.3457	1139.3226	39358.3	38410.8
862.4905	1141.2705	39327.55	38383.65
862.6354	1143.2176	38977.75	38027.15
862.7803	1145.164	38940.25	37988.65
862.9251	1147.1097	38871.75	37923.4
863.07	1149.0546	38881.75	37933.25
863.2148	1150.9989	38689.35	37742.4
863.3597	1152.9424	38435	37489.9
863.5045	1154.8852	38152.5	37203.2
863.6493	1156.8272	37899.45	36957.3
863.7942	1158.7686	37830.25	36875.95
863.939	1160.7092	37635.1	36688.6
864.0838	1162.6491	37446.5	36498.15
864.2286	1164.5883	37464.25	36517.1
864.3734	1166.5267	37429.5	36483.3
864.5182	1168.4644	37479.7	36533.25
864.663	1170.4014	37606.9	36661.8
864.8078	1172.3377	37755.4	36812.85
864.9526	1174.2732	37854.85	36912.35
865.0974	1176.2081	38006.95	37059.35
865.2421	1178.1421	38070.8	37122.55
865.3869	1180.0755	38144.85	37203.2
865.5317	1182.0082	37918.3	36977.25
865.6764	1183.9401	37816.85	36873.75
865.8212	1185.8713	37464.15	36524.5
865.9659	1187.8017	37099.9	36167.25
866.1106	1189.7315	36815.55	35888.95
866.2554	1191.6605	36353.6	35421.6
866.4001	1193.5888	36080.75	35149.65
866.5448	1195.5163	35937.95	35003.2
866.6895	1197.4432	35685.35	34743.55
866.8342	1199.3693	35524.3	34583.75
866.9789	1201.2947	35262.8	34313.8
867.1236	1203.2193	35171.45	34229.4
867.2683	1205.1432	35124.5	34185.6
867.413	1207.0664	35096.35	34159.5
867.5576	1208.9889	35003	34061.8
867.7023	1210.9106	34980.7	34035.65
867.847	1212.8316	34902.85	33960.7
867.9916	1214.7519	34856	33906.7
868.1363	1216.6715	34758.15	33817.15
868.2809	1218.5903	34710.45	33767.35
868.4255	1220.5084	34518.6	33577.15
868.5701	1222.4257	34483.1	33542.05
868.7148	1224.3424	34178.85	33242.6
868.8594	1226.2583	34191.55	33249.5
869.004	1228.1735	34165	33221.85
869.1486	1230.0879	34141.05	33199.15
869.2932	1232.0016	34215.9	33272.4
869.4377	1233.9146	34136.7	33196.55
869.5823	1235.8269	33932.55	32994.55
869.7269	1237.7384	33804.1	32866.5
869.8715	1239.6492	33399	32462.75
870.016	1241.5592	33270.9	32327.9
870.1606	1243.4686	33017.1	32075.65
870.3051	1245.3772	32857.35	31917.35
870.4496	1247.285	32712.2	31770.5
870.5941	1249.1922	32540.75	31602.05
870.7387	1251.0986	32527.3	31587.9
870.8832	1253.0042	32342.2	31404.6
871.0277	1254.9092	32383.6	31444.2
871.1722	1256.8134	32352.5	31413.25
871.3167	1258.7169	32494	31555.2
871.4611	1260.6196	32509.75	31571.5
871.6056	1262.5216	32675	31736.05
871.7501	1264.4229	32707.95	31770.55
871.8945	1266.3234	32770.65	31834
872.039	1268.2232	32746.35	31802.3
872.1834	1270.1223	32655.35	31714.7
872.3278	1272.0207	32524.1	31587.25
872.4723	1273.9183	32426.6	31482.15
872.6167	1275.8151	32222.15	31284.4
872.7611	1277.7113	32128.65	31191.1
872.9055	1279.6067	31864.95	30927.5
873.0499	1281.5014	31558.2	30619.1
873.1943	1283.3953	31374.25	30435.3
873.3386	1285.2885	31217.5	30279.95
873.483	1287.181	31092.95	30155.6
873.6274	1289.0727	31076.7	30140.7
873.7717	1290.9637	30968.45	30031.4
873.9161	1292.854	31092.8	30153.8
874.0604	1294.7435	31124.55	30183.25
874.2047	1296.6323	31280.9	30342.95
874.349	1298.5204	31494.15	30554.6
874.4933	1300.4077	31708.65	30767.8
874.6376	1302.2943	31838.6	30898.9
874.7819	1304.1802	31857.75	30922
874.9262	1306.0653	31724.25	30785.4
875.0705	1307.9497	31528.4	30589.35
875.2147	1309.8333	31380.55	30444.75
875.359	1311.7162	31360.45	30422.35
875.5032	1313.5984	31419.45	30480.05
875.6475	1315.4798	31455.75	30502.25
875.7917	1317.3605	31563.6	30610.3
875.9359	1319.2405	31679.8	30739.1
876.0801	1321.1197	31672.5	30730.2
876.2243	1322.9982	31501.6	30558.1
876.3685	1324.876	31485.95	30548.6
876.5127	1326.753	31361.25	30423.65
876.6569	1328.6293	31438.95	30501.2
876.801	1330.5048	31456.9	30519.2
876.9452	1332.3796	31291.5	30355.45
877.0893	1334.2537	31246.55	30288.55
877.2335	1336.127	31047.4	30109.25
877.3776	1337.9996	30945.6	30007.75
877.5217	1339.8714	30850.6	29913.3
877.6658	1341.7426	30745.35	29763.1
877.8099	1343.6129	30620.85	29680.9
877.954	1345.4826	30432.4	29491.8
878.0981	1347.3515	30399.2	29460.3
878.2422	1349.2196	30247.8	29311.35
878.3862	1351.087	30230.8	29295.9
878.5303	1352.9537	30174.5	29234.8
878.6743	1354.8197	30317.8	29379.25
878.8184	1356.6849	30432.35	29492.75
878.9624	1358.5493	30436.65	29501.35
879.1064	1360.4131	30399.1	29460.65
879.2504	1362.276	30206.65	29269.5
879.3944	1364.1383	29965.85	29032.15
879.5384	1365.9998	29626.65	28683.45
879.6823	1367.8606	29262.65	28324.8
879.8263	1369.7206	28934.6	27997.4
879.9702	1371.5799	28744.5	27805
880.1142	1373.4384	28546.9	27612.3
880.2581	1375.2962	28425.35	27487.5
880.402	1377.1533	27988.05	27053.55
880.5459	1379.0096	27609.3	26676.35
880.6898	1380.8652	27334.2	26400.95
880.8337	1382.7201	27011.25	26077.75
880.9776	1384.5742	26686.05	25750.8
881.1215	1386.4275	26511.95	25575.65
881.2653	1388.2802	26333.25	25398.9
881.4092	1390.132	26114.55	25176.55
881.553	1391.9832	26051.4	25115
881.6968	1393.8336	25858.65	24921.1
881.8406	1395.6832	25743.15	24806.95
881.9844	1397.5322	25608.05	24672.8
882.1282	1399.3803	25564.05	24624.85
882.272	1401.2278	25404	24471.5
882.4158	1403.0745	25295.4	24363.4
882.5595	1404.9204	25178	24245.6
882.7033	1406.7656	25148.25	24215.95
882.847	1408.6101	25112.2	24176.4
882.9908	1410.4538	24988.8	24057
883.1345	1412.2968	24980.65	24044.15
883.2782	1414.139	24884.35	23951.35
883.4219	1415.9805	24953.1	24020.9
883.5656	1417.8213	24947.4	23992
883.7092	1419.6613	25004.85	24072.9
883.8529	1421.5006	25143.15	24210.3
883.9965	1423.3391	25331	24396.7
884.1402	1425.1769	25615.7	24681.05
884.2838	1427.0139	26103.15	25165.6
884.4274	1428.8502	26677.35	25740.25
884.571	1430.6858	27220.8	26288.15
884.7146	1432.5206	27556.55	26625.5
884.8582	1434.3547	27787.85	26855.1
885.0018	1436.188	27773.1	26841.6
885.1453	1438.0206	27648.65	26715.3
885.2889	1439.8524	27409.15	26477.3
885.4324	1441.6835	27291.7	26360.25
885.5759	1443.5139	27192.35	26258.6
885.7194	1445.3435	26961.35	26028.75
885.8629	1447.1724	26925.3	25995.75
886.0064	1449.0005	26786	25853.75
886.1499	1450.8279	26642.3	25712.95
886.2933	1452.6545	26565	25635.65
886.4368	1454.4804	26566.95	25637.85
886.5802	1456.3056	26518.95	25583.5
886.7237	1458.13	26289.9	25361.65
886.8671	1459.9536	26124.85	25193.35
887.0105	1461.7766	25720.5	24789.35
887.1539	1463.5987	25240	24308.7
887.2972	1465.4202	24780	23849.05
887.4406	1467.2409	24323.8	23391.35
887.584	1469.0608	24067.7	23137.75
887.7273	1470.88	23741.3	22807.2
887.8706	1472.6984	23477.75	22548.8
888.0139	1474.5161	23190.55	22255.5
888.1572	1476.3331	23011.9	22081.3
888.3005	1478.1493	22871.45	21939.7
888.4438	1479.9648	22751.1	21820.4
888.5871	1481.7795	22610	21679.75
888.7303	1483.5935	22529.1	21598.05
888.8736	1485.4067	22386.45	21456.65
889.0168	1487.2192	22344.25	21413.6
889.16	1489.031	22268.65	21336.1
889.3032	1490.842	22174.8	21243.7
889.4464	1492.6522	22146.75	21216.25
889.5896	1494.4618	22020.3	21088.2
889.7327	1496.2705	21975.15	21045.95
889.8759	1498.0785	21926.8	20997.35
890.019	1499.8858	21832.6	20905.4
890.1622	1501.6924	21788.15	20860.2
890.3053	1503.4981	21735.45	20806.05
890.4484	1505.3032	21678.9	20746.25
890.5914	1507.1075	21584.55	20653.35
890.7345	1508.911	21519	20589.55
890.8776	1510.7138	21444.6	20514.2
891.0206	1512.5159	21343.95	20417.05
891.1637	1514.3172	21290.3	20361.95
891.3067	1516.1178	21208.7	20282.55
891.4497	1517.9176	21136.85	20204.15
891.5927	1519.7166	21082.65	20155.9
891.7357	1521.515	20985	20051.75
891.8786	1523.3126	20917.3	19990.65
892.0216	1525.1094	20807.75	19878.2
892.1645	1526.9055	20720.2	19795.6
892.3074	1528.7008	20665.6	19738.25
892.4503	1530.4954	20520.3	19589.65
892.5932	1532.2893	20484.9	19559.55
892.7361	1534.0824	20369.2	19440.4
892.879	1535.8747	20347.45	19425.3
893.0218	1537.6663	20279.2	19354.35
893.1647	1539.4572	20204.45	19282.2
893.3075	1541.2473	20178.85	19254.6
893.4503	1543.0367	20070.6	19147.1
893.5931	1544.8253	20034.25	19103.5
893.7359	1546.6132	19994.7	19065.3
893.8787	1548.4003	19883.8	18949.9
894.0214	1550.1867	19910.35	18976.25
894.1642	1551.9723	19862.8	18937.15
894.3069	1553.7572	19814.5	18890.3
894.4496	1555.5414	19755.5	18835.45
894.5923	1557.3247	19762.1	18843.9
894.735	1559.1074	19719.75	18801.6
894.8777	1560.8893	19756.6	18839.95
895.0204	1562.6705	19700.95	18782.15
895.163	1564.4509	19730.95	18816.8
895.3056	1566.2305	19756.35	18841.65
895.4482	1568.0094	19879	18964.8
895.5908	1569.7876	19931.7	19017.35
895.7334	1571.565	19980.55	19062.25
895.876	1573.3417	19964.75	19045.35
896.0186	1575.1176	19924.2	19009.8
896.1611	1576.8928	19828.75	18917.3
896.3036	1578.6672	19712.6	18802.9
896.4461	1580.4409	19548.5	18642.85
896.5886	1582.2138	19388.55	18478.55
896.7311	1583.986	19232.4	18319.5
896.8736	1585.7575	19083.35	18171.05
897.0161	1587.5282	18935.15	18024.3
897.1585	1589.2981	18863.85	17955
897.3009	1591.0673	18727.3	17818.2
897.4433	1592.8358	18673.25	17763.05
897.5857	1594.6035	18671.35	17756.1
897.7281	1596.3704	18540.5	17624.7
897.8705	1598.1366	18504.05	17591.4
898.0128	1599.9021	18502.65	17590.6
898.1551	1601.6668	18443.9	17527.8
898.2975	1603.4308	18443.95	17528.95
898.4398	1605.194	18505.25	17588.85
898.5821	1606.9564	18498.15	17591.85
898.7243	1608.7182	18593.95	17688.4
898.8666	1610.4791	18661.2	17761.55
899.0088	1612.2394	18744.8	17844.95
899.1511	1613.9988	18890.35	17990.2
899.2933	1615.7576	19118.25	18211.7
899.4355	1617.5156	19321.1	18404.7
899.5776	1619.2728	19531.65	18617.4
899.7198	1621.0293	19652.9	18739.25
899.862	1622.785	19694.85	18783.3
900.0041	1624.54	19553.5	18648.45
900.1462	1626.2942	19384.65	18479
900.2883	1628.0477	19067.7	18159.75
900.4304	1629.8005	18749	17839.6
900.5725	1631.5525	18473.6	17568.8
900.7145	1633.3037	18236.8	17332.1
900.8566	1635.0542	18052.35	17148.25
900.9986	1636.804	17842.6	16938.95
901.1406	1638.553	17780.3	16803.35
901.2826	1640.3013	17620.7	16714.35
901.4245	1642.0488	17525.5	16616.55
901.5665	1643.7955	17481.85	16581.5
901.7085	1645.5416	17442.65	16538.05
901.8504	1647.2868	17464.6	16560
901.9923	1649.0313	17486.85	16578.65
902.1342	1650.7751	17584.65	16673.3
902.2761	1652.5181	17738.35	16835.2
902.4179	1654.2604	17906.95	17003.65
902.5598	1656.0019	18177.95	17273.15
902.7016	1657.7427	18505.45	17601.45
902.8434	1659.4828	18848.15	17940.6
902.9852	1661.222	19064.7	18155.65
903.127	1662.9606	19079.55	18174.1
903.2687	1664.6984	18908.4	17999.8
903.4105	1666.4354	18531.95	17620
903.5522	1668.1717	18064.05	17150.6
903.6939	1669.9072	17515.5	16606.05
903.8356	1671.642	17166.7	16257.1
903.9773	1673.3761	16806.8	15898.5
904.119	1675.1094	16550.5	15645.4
904.2606	1676.8419	16375.65	15471.45
904.4022	1678.5737	16177.95	15271.85
904.5439	1680.3048	16037.75	15129
904.6855	1682.0351	15915.4	15008
904.827	1683.7646	15774.75	14864.15
904.9686	1685.4934	15723.3	14815.5
905.1101	1687.2215	15607.4	14701.3
905.2517	1688.9488	15521.85	14619.1
905.3932	1690.6754	15423.95	14518.4
905.5347	1692.4012	15377.65	14471.9
905.6761	1694.1263	15322.1	14417.1
905.8176	1695.8506	15293	14389
905.9591	1697.5742	15229.4	14326.55
906.1005	1699.297	15133.15	14231.25
906.2419	1701.0191	15036.7	14137.95
906.3833	1702.7404	14985.5	14084.1
906.5246	1704.461	14941.95	14037.25
906.666	1706.1808	14860.05	13955.7
906.8073	1707.8999	14825.5	13922.1
906.9487	1709.6182	14732.8	13834.7
907.09	1711.3358	14696.5	13798
907.2313	1713.0527	14636.2	13737.7
907.3725	1714.7688	14593.05	13688.05
907.5138	1716.4841	14537.4	13634.15
907.655	1718.1987	14508.4	13601.95
907.7962	1719.9126	14446	13547.8
907.9374	1721.6257	14402.55	13502.7
908.0786	1723.338	14354.25	13458.2
908.2198	1725.0496	14275.25	13376.15
908.3609	1726.7605	14254	13353.25
908.502	1728.4706	14190.3	13291.8
908.6431	1730.18	14089.3	13189.5
908.7842	1731.8886	14054.9	13157.95
908.9253	1733.5964	14040	13122.2
909.0664	1735.3036	14004.75	13104.7
909.2074	1737.0099	13975	13077
909.3484	1738.7156	13926.1	13031.6
909.4894	1740.4204	13839.5	12938.45
909.6304	1742.1246	13836.1	12934.4
909.7714	1743.8279	13800.4	12901.9
909.9123	1745.5306	13789.15	12892.5
910.0532	1747.2325	13743.45	12846.55
910.1941	1748.9336	13665.05	12768.75
910.335	1750.634	13615.75	12715.8
910.4759	1752.3336	13596.55	12703
910.6168	1754.0325	13596	12700.1
910.7576	1755.7307	13539.6	12643.95
910.8984	1757.4281	13530.4	12632.45
911.0392	1759.1247	13508.1	12599.4
911.18	1760.8206	13493.2	12589.75
911.3208	1762.5158	13466.15	12562.45
911.4615	1764.2102	13382.55	12484.75
911.6022	1765.9039	13345.4	12449.6
911.7429	1767.5968	13295.45	12402.85
911.8836	1769.289	13216.2	12321.95
912.0243	1770.9804	13203.9	12306.7
912.1649	1772.6711	13210.35	12309.9
912.3056	1774.361	13172	12272.9
912.4462	1776.0502	13139.25	12240.3
912.5868	1777.7386	13111.8	12212.7
912.7274	1779.4263	13065.75	12168.9
912.8679	1781.1132	13026.65	12131.05
913.0084	1782.7994	12985.05	12089.3
913.149	1784.4849	12973.7	12081.05
913.2895	1786.1696	12925.15	12026.9
913.4299	1787.8535	12899.1	12007.8
913.5704	1789.5367	12863.6	11970.05
913.7108	1791.2192	12849.95	11957.05
913.8513	1792.9009	12776.7	11854.75
913.9917	1794.5818	12782.25	11884
914.132	1796.2621	12729.6	11834.15
914.2724	1797.9415	12710.8	11814.7
914.4128	1799.6202	12668.25	11771.4
914.5531	1801.2982	12637.2	11741.55
914.6934	1802.9755	12588.8	11692.05
914.8337	1804.6519	12599.95	11703
914.9739	1806.3277	12507.3	11614.35
915.1142	1808.0027	12504.5	11613.9
915.2544	1809.6769	12458.45	11568.7
915.3946	1811.3504	12418.8	11524.95
915.5348	1813.0231	12388.7	11495.3
915.675	1814.6951	12367.9	11474.95
915.8151	1816.3664	12357.65	11460.15
915.9553	1818.0369	12321.9	11425.55
916.0954	1819.7067	12276.95	11382.35
916.2355	1821.3757	12268.1	11370.7
916.3755	1823.044	12199.1	11303.6
916.5156	1824.7115	12213	11315.35
916.6556	1826.3783	12139.95	11242.75
916.7956	1828.0443	12115.8	11223.25
916.9356	1829.7096	12080.25	11184
917.0756	1831.3741	12073.25	11176
917.2155	1833.0379	12065.2	11172.85
917.3555	1834.701	12009.35	11116.7
917.4954	1836.3633	11985.45	11091.55
917.6353	1838.0248	11958.1	11061.8
917.7751	1839.6856	11923.25	11028
917.915	1841.3457	11924.65	11029.4
918.0548	1843.005	11882.65	10987.9
918.1946	1844.6636	11883.95	10988
918.3344	1846.3214	11832.05	10937.2
918.4742	1847.9785	11813.25	10920.8
918.6139	1849.6349	11775.8	10879.45
918.7537	1851.2904	11756.45	10849.5
918.8934	1852.9453	11736.65	10837.95
919.0331	1854.5994	11693.45	10794.65
919.1727	1856.2528	11688.4	10786.95
919.3124	1857.9054	11658.4	10762.95
919.452	1859.5572	11634.2	10739.45
919.5916	1861.2083	11615.45	10719.85
919.7312	1862.8587	11624.25	10728.4
919.8708	1864.5084	11581.25	10684.1
920.0103	1866.1572	11538.5	10642.25
920.1498	1867.8054	11453.1	10556.75
920.2893	1869.4528	11457.5	10560.3
920.4288	1871.0994	11421.55	10522.45
920.5683	1872.7453	11413.2	10517.25
920.7077	1874.3905	11402.6	10488.35
920.8471	1876.0349	11339.15	10444.1
920.9865	1877.6786	11381.6	10484.6
921.1259	1879.3215	11326.45	10430.95
921.2653	1880.9637	11298.35	10404.3
921.4046	1882.6051	11278.5	10384.25
921.5439	1884.2458	11246.95	10350.9
921.6832	1885.8858	11176.25	10282.4
921.8225	1887.525	11164.95	10268
921.9617	1889.1634	11131.65	10236.35
922.101	1890.8011	11100.7	10202.9
922.2402	1892.4381	11064.6	10170.4
922.3794	1894.0743	11080.5	10184.75
922.5185	1895.7098	11036.5	10139.6
922.6577	1897.3446	11011.25	10115.8
922.7968	1898.9786	10973.55	10073.9
922.9359	1900.6118	10948.15	10051.3
923.075	1902.2443	10892.45	9998.55
923.214	1903.8761	10874.25	9978.5
923.3531	1905.5071	10838.3	9942.55
923.4921	1907.1374	10812.4	9916.25
923.6311	1908.7669	10767.15	9871.25
923.77	1910.3957	10760.05	9867.55
923.909	1912.0237	10672.25	9777.55
924.0479	1913.651	10686.35	9793
924.1868	1915.2776	10658.7	9765.8
924.3257	1916.9034	10607.95	9715.8
924.4646	1918.5285	10548.7	9655.2
924.6034	1920.1528	10493.2	9598
924.7422	1921.7764	10495.2	9601.95
924.881	1923.3992	10457.25	9564.25
925.0198	1925.0213	10391	9497.8
925.1586	1926.6427	10359.8	9469.1
925.2973	1928.2633	10401.95	9436.45
925.436	1929.8832	10310.65	9414.4
925.5747	1931.5023	10275.45	9380.35
925.7134	1933.1207	10218.85	9324.9
925.852	1934.7383	10244.25	9350.15
925.9906	1936.3552	10180.55	9288.45
926.1292	1937.9714	10152.1	9261.05
926.2678	1939.5868	10122.1	9223.85
926.4064	1941.2015	10068.75	9171.6
926.5449	1942.8154	10030.95	9135.95
926.6834	1944.4286	9996.9	9100.2
926.8219	1946.041	9964.45	9050.15
926.9604	1947.6528	9906.5	9006.35
927.0988	1949.2637	9883.2	8991.55
927.2372	1950.8739	9841.95	8948.2
927.3756	1952.4834	9834.95	8943
927.514	1954.0921	9812.2	8917.15
927.6523	1955.7001	9764.55	8866.05
927.7907	1957.3074	9745.05	8855.9
927.929	1958.9139	9717	8826.7
928.0673	1960.5197	9695.4	8803.65
928.2055	1962.1247	9642.3	8750.4
928.3438	1963.729	9593	8702.95
928.482	1965.3325	9573.45	8659
928.6202	1966.9353	9558.65	8670.4
928.7584	1968.5374	9523.95	8630.8
928.8965	1970.1387	9476.95	8585.55
929.0346	1971.7393	9426.7	8536
929.1727	1973.3392	9406.25	8515
929.3108	1974.9383	9364.9	8477.1
929.4489	1976.5366	9337.9	8449.9
929.5869	1978.1342	9313.55	8424.55
929.7249	1979.7311	9296.3	8407.1
929.8629	1981.3273	9253.45	8363.85
930.0009	1982.9227	9251.7	8363.15
930.1388	1984.5173	9224.2	8337.2
930.2767	1986.1112	9178.75	8290.7
930.4146	1987.7044	9162.95	8275.55
930.5525	1989.2968	9115.5	8226.6
930.6904	1990.8885	9107.15	8216.65
930.8282	1992.4795	9094.25	8206.85
930.966	1994.0697	9055.55	8166.7
931.1038	1995.6592	9020.3	8132.3
931.2415	1997.2479	9006.35	8119.25
931.3793	1998.8359	8956.3	8071.85
931.517	2000.4232	8923.05	8038.6
931.6547	2002.0097	8884.05	8001.7
931.7923	2003.5955	8869.25	7984.6
931.93	2005.1805	8882.8	7994.7
932.0676	2006.7648	8839.95	7954.4
932.2052	2008.3484	8816.1	7929.3
932.3427	2009.9312	8833.75	7947.75
932.4803	2011.5133	8757.95	7877.25
932.6178	2013.0946	8733.05	7849.75
932.7553	2014.6752	8728.2	7846.6
932.8928	2016.2551	8703.85	7818.9
933.0302	2017.8342	8651.55	7764.6
933.1676	2019.4126	8623.65	7739.8
933.305	2020.9902	8602.8	7720.3
933.4424	2022.5672	8596.5	7710.85
933.5798	2024.1433	8578.35	7689.1
933.7171	2025.7188	8502.25	7618.55
933.8544	2027.2935	8490.6	7606.65
933.9917	2028.8674	8473.2	7589.25
934.129	2030.4406	8441.5	7558.45
934.2662	2032.0131	8417	7534.55
934.4034	2033.5849	8407.45	7520.25
934.5406	2035.1559	8414.6	7532.5
934.6778	2036.7261	8394.75	7510.35
934.8149	2038.2957	8346.55	7460.25
934.952	2039.8645	8325.7	7439.6
935.0891	2041.4325	8333.65	7446.15
935.2262	2042.9998	8287.05	7401.45
935.3632	2044.5664	8277.15	7391
935.5002	2046.1323	8258.95	7377.4
935.6372	2047.6974	8230	7347.5
935.7742	2049.2617	8205.9	7325.6
935.9111	2050.8254	8172.1	7282.35
936.048	2052.3883	8191.05	7303.65
936.1849	2053.9504	8160.1	7272.6
936.3218	2055.5118	8116.3	7228.7
936.4586	2057.0725	8058.15	7170
936.5955	2058.6325	8069.3	7182.75
936.7323	2060.1917	8045.6	7161.6
936.869	2061.7502	8013.15	7125
937.0058	2063.3079	7977.95	7095.2
937.1425	2064.8649	7954.2	7067
937.2792	2066.4212	7928.45	7042.5
937.4159	2067.9767	7936.2	7050.4
937.5525	2069.5315	7902.55	7016.35
937.6891	2071.0856	7854.5	6969.25
937.8257	2072.6389	7817	6932.15
937.9623	2074.1915	7796.8	6915
938.0989	2075.7433	7747.4	6859.1
938.2354	2077.2945	7751.15	6869.1
938.3719	2078.8448	7728.95	6842.4
938.5084	2080.3945	7708.7	6823.05
938.6448	2081.9434	7688.8	6803.7
938.7812	2083.4916	7679.25	6790.45
938.9176	2085.039	7660.3	6769.55
939.054	2086.5857	7645.45	6753.2
939.1903	2088.1317	7612.65	6721.15
939.3267	2089.677	7593.3	6702.85
939.463	2091.2215	7564.6	6672.35
939.5992	2092.7652	7552.35	6661.35
939.7355	2094.3083	7518.95	6629.05
939.8717	2095.8506	7534.05	6647.2
940.0079	2097.3921	7501.3	6614.45
940.1441	2098.933	7498.2	6612.1
940.2802	2100.4731	7470.3	6581.7
940.4163	2102.0124	7465.7	6567.65
940.5524	2103.5511	7448.9	6561.7
940.6885	2105.089	7420.75	6531.8
940.8245	2106.6261	7404.2	6517.15
940.9606	2108.1626	7379.7	6491.2
941.0965	2109.6983	7388.9	6472.1
941.2325	2111.2332	7353.95	6467.2
941.3684	2112.7675	7359.95	6468.5
941.5044	2114.301	7290	6399.9
941.6403	2115.8337	7297.35	6404
941.7761	2117.3657	7279.3	6390.8
941.912	2118.897	7268.7	6381.3
942.0478	2120.4276	7236.2	6341.35
942.1835	2121.9575	7188.5	6296.6
942.3193	2123.4866	7216.05	6311.25
942.455	2125.0149	7200.7	6308.55
942.5907	2126.5426	7135.15	6248.7
942.7264	2128.0695	7135.25	6247.15
942.8621	2129.5956	7127.35	6245.2
942.9977	2131.1211	7117.6	6226.45
943.1333	2132.6458	7070.65	6184.05
943.2689	2134.1698	7090.1	6199.85
943.4044	2135.693	7062.8	6169
943.54	2137.2155	7020.5	6127.6
943.6755	2138.7373	7002.25	6110.85
943.8109	2140.2584	6985.2	6099.95
943.9464	2141.7787	6968.8	6079.5
944.0818	2143.2983	6944.7	6060.55
944.2172	2144.8171	6911.35	6027.45
944.3526	2146.3353	6911.75	6024.95
944.4879	2147.8527	6858	5971.65
944.6232	2149.3693	6870.85	5983.45
944.7585	2150.8853	6853.25	5962.7
944.8938	2152.4005	6812.3	5922.8
945.029	2153.9149	6802.95	5911.75
945.1642	2155.4287	6868.15	5872.05
945.2994	2156.9417	6803.9	5913.65
945.4346	2158.454	6754.65	5863.75
945.5697	2159.9655	6749.15	5863.35
945.7048	2161.4764	6718.3	5832.5
945.8399	2162.9865	6701.65	5815.85
945.9749	2164.4958	6705.75	5818.95
946.1099	2166.0045	6662.2	5772.65
946.2449	2167.5124	6663.8	5777.35
946.3799	2169.0195	6642.4	5755.15
946.5148	2170.526	6640.4	5749.95
946.6498	2172.0317	6602.8	5715.85
946.7846	2173.5367	6580.75	5692.7
946.9195	2175.0409	6561.7	5673.6
947.0543	2176.5445	6569.75	5681.05
947.1891	2178.0473	6539.4	5650.05
947.3239	2179.5494	6521.8	5627.5
947.4587	2181.0507	6500	5609.6
947.5934	2182.5513	6479.5	5590.85
947.7281	2184.0512	6479.7	5590.55
947.8628	2185.5504	6449.8	5561.65
947.9974	2187.0488	6416.3	5530.55
948.132	2188.5465	6400.05	5513.55
948.2666	2190.0435	6374.9	5488.2
948.4012	2191.5397	6363.5	5475.95
948.5357	2193.0353	6338.45	5448.3
948.6702	2194.5301	6319.05	5427.15
948.8047	2196.0241	6303.05	5408.2
948.9392	2197.5175	6293.4	5400.75
949.0736	2199.0101	6280.55	5384.5
949.208	2200.502	6243.65	5353.2
949.3424	2201.9931	6218.95	5331.5
949.4767	2203.4835	6185.05	5297.6
949.611	2204.9733	6173.45	5280.3
949.7453	2206.4622	6147.7	5262.4
949.8796	2207.9505	6138.55	5248.15
950.0138	2209.438	6143	5260.45
950.148	2210.9248	6104.65	5217.3
950.2822	2212.4109	6083.4	5195.5
950.4164	2213.8962	6063.95	5171.6
950.5505	2215.3809	6060	5168.75
950.6846	2216.8648	6032.65	5136.85
950.8186	2218.3479	6015.6	5118.95
950.9527	2219.8304	6002.85	5108.7
951.0867	2221.3121	5976.7	5081.7
951.2207	2222.7931	5977.9	5085.4
951.3546	2224.2733	5943.65	5052.7
951.4886	2225.7529	5921.3	5031.3
951.6225	2227.2317	5887.95	4997.6
951.7563	2228.7098	5891.5	5006.9
951.8902	2230.1872	5864	4979.7
952.024	2231.6638	5840.15	4955.55
952.1578	2233.1397	5827.65	4937.2
952.2916	2234.6149	5832.95	4945.95
952.4253	2236.0894	5806.1	4917.85
952.559	2237.5632	5791.3	4902.5
952.6927	2239.0362	5757.05	4870
952.8263	2240.5085	5756.35	4868.4
952.9599	2241.9801	5730.85	4843.2
953.0935	2243.4509	5708.5	4818.25
953.2271	2244.921	5696.25	4805
953.3606	2246.3904	5680.35	4789.35
953.4941	2247.8591	5665.3	4774.05
953.6276	2249.3271	5646.1	4756.15
953.7611	2250.7943	5630.15	4738.25
953.8945	2252.2608	5609.7	4718.85
954.0279	2253.7266	5592.5	4703.35
954.1612	2255.1917	5579	4691.25
954.2946	2256.656	5530.3	4642.1
954.4279	2258.1197	5540.4	4653.2
954.5612	2259.5826	5523.3	4632.5
954.6944	2261.0447	5500.45	4609.45
954.8276	2262.5062	5501.75	4608.9
954.9608	2263.9669	5481.5	4589.55
955.094	2265.4269	5484.3	4595.95
955.2271	2266.8862	5467	4578.2
955.3602	2268.3448	5451.4	4562.65
955.4933	2269.8026	5435	4546.65
955.6264	2271.2598	5428.4	4541.2
955.7594	2272.7162	5411.2	4524.1
955.8924	2274.1719	5396.85	4507.9
956.0253	2275.6268	5387.8	4494.95
956.1583	2277.0811	5372.15	4479.3
956.2912	2278.5346	5343.1	4453.4
956.4241	2279.9874	5333.55	4447.75
956.5569	2281.4395	5335.2	4448.95
956.6897	2282.8908	5327.1	4435.75
956.8225	2284.3414	5301.25	4411.55
956.9553	2285.7914	5283.35	4395.25
957.088	2287.2406	5281.55	4390.3
957.2207	2288.689	5262.3	4368.75
957.3534	2290.1368	5262.85	4368.95
957.486	2291.5838	5249.4	4354.7
957.6186	2293.0302	5229.75	4333.95
957.7512	2294.4758	5225.6	4334.65
957.8838	2295.9206	5180.35	4289.05
958.0163	2297.3648	5169.1	4277.7
958.1488	2298.8082	5174.2	4284.15
958.2813	2300.251	5154.2	4262.1
958.4137	2301.693	5142.6	4250.2
958.5461	2303.1343	5143.85	4252.25
958.6785	2304.5748	5105.35	4216.15
958.8108	2306.0147	5096.6	4210.45
958.9432	2307.4538	5077.45	4188.25
959.0754	2308.8922	5047.15	4160.4
959.2077	2310.3299	5046.3	4160.7
959.3399	2311.7669	5027.85	4139.75
959.4721	2313.2031	5011.25	4122.55
959.6043	2314.6387	5011.6	4122.5
959.7365	2316.0735	5004.85	4115.45
959.8686	2317.5076	4971.85	4082.5
960.0006	2318.941	4965.9	4075.5
960.1327	2320.3737	4946.7	4055.45
960.2647	2321.8056	4928.05	4034.8
960.3967	2323.2369	4927.45	4034.85
960.5287	2324.6674	4907.95	4017.8
960.6606	2326.0972	4901.55	4009.4
960.7925	2327.5263	4895.9	4005.8
960.9244	2328.9547	4844.75	3954.25
961.0562	2330.3823	4869.2	3976.35
961.1881	2331.8092	4862.1	3965.75
961.3198	2333.2355	4833.75	3940.85
961.4516	2334.661	4820.95	3929.05
961.5833	2336.0858	4807.95	3914.75
961.715	2337.5098	4792.15	3900.85
961.8467	2338.9332	4795.55	3905.65
961.9783	2340.3558	4779.45	3886.65
962.1099	2341.7778	4762.65	3873.4
962.2415	2343.199	4737.25	3845.4
962.373	2344.6195	4736.7	3846.5
962.5045	2346.0393	4723.6	3837.65
962.636	2347.4583	4723.85	3832.8
962.7675	2348.8767	4708.55	3818.1
962.8989	2350.2943	4679.25	3785.4
963.0303	2351.7113	4676.45	3782.3
963.1617	2353.1275	4680.3	3786.55
963.293	2354.543	4675.25	3758.15
963.4243	2355.9578	4639.95	3747.5
963.5556	2357.3718	4634	3743.65
963.6868	2358.7852	4604.25	3715.25
963.818	2360.1978	4592.45	3704.85
963.9492	2361.6098	4581	3692.55
964.0803	2363.021	4551.9	3658.9
964.2114	2364.4315	4561.65	3672.2
964.3425	2365.8413	4528.7	3632.2
964.4736	2367.2504	4524.65	3636.25
964.6046	2368.6587	4505.85	3616.55
964.7356	2370.0664	4494.1	3606.45
964.8666	2371.4733	4471.15	3582.8
964.9975	2372.8795	4457.5	3568.55
965.1284	2374.285	4453.15	3562.75
965.2593	2375.6899	4427.9	3539.7
965.3901	2377.0939	4422	3534.05
965.5209	2378.4973	4411.45	3525.9
965.6517	2379.9	4391.1	3501.2
965.7825	2381.3019	4377.5	3489.95
965.9132	2382.7032	4352.25	3466.1
966.0439	2384.1037	4345.4	3460
966.1745	2385.5035	4329.7	3443.35
966.3051	2386.9027	4310.7	3425.75
966.4357	2388.3011	4303.3	3412.1
966.5663	2389.6987	4302.9	3414.75
966.6968	2391.0957	4280.35	3394.05
966.8273	2392.492	4277.1	3392.15
966.9578	2393.8876	4245.9	3358.25
967.0882	2395.2824	4233.95	3346.65
967.2186	2396.6765	4226.3	3340.5
967.349	2398.07	4210.25	3321.35
967.4793	2399.4627	4196	3305.6
967.6097	2400.8547	4194.15	3305.2
967.7399	2402.246	4181.3	3288.3
967.8702	2403.6366	4163.55	3275
968.0004	2405.0265	4149.4	3260.9
968.1306	2406.4156	4129.9	3238
968.2607	2407.8041	4130.95	3240.95
968.3909	2409.1918	4119.1	3230.35
968.521	2410.5789	4109.85	3221.05
968.651	2411.9652	4093.7	3200.55
968.781	2413.3508	4067.45	3178.8
968.911	2414.7358	4055.1	3166.15
969.041	2416.12	4036.1	3147.85
969.1709	2417.5035	4047.35	3161
969.3008	2418.8863	4030.65	3141.1
969.4307	2420.2684	4026.85	3139.45
969.5606	2421.6497	4000.1	3111.45
969.6904	2423.0304	3983.55	3094.55
969.8201	2424.4104	3977.5	3087.9
969.9499	2425.7896	3965.75	3074.7
970.0796	2427.1682	3951.25	3064.15
970.2093	2428.546	3941.45	3052.1
970.3389	2429.9232	3938.15	3047.7
970.4685	2431.2996	3936.75	3047.45
970.5981	2432.6753	3921.5	3033.3
970.7277	2434.0503	3905.35	3017.15
970.8572	2435.4246	3909.45	3023.7
970.9867	2436.7982	3880.2	2987.25
971.1161	2438.1711	3860.2	2971.2
971.2456	2439.5433	3854.35	2962.95
971.375	2440.9148	3848.8	2955.3
971.5043	2442.2856	3845.25	2954.1
971.6336	2443.6557	3833.55	2942.95
971.7629	2445.025	3811.1	2924.15
971.8922	2446.3937	3814.15	2925.3
972.0214	2447.7617	3806.75	2915.25
972.1506	2449.1289	3780.85	2893.8
972.2798	2450.4955	3789.6	2896.35
972.4089	2451.8613	3793.85	2906.15
972.538	2453.2265	3767.05	2877.15
972.6671	2454.5909	3768.75	2880.45
972.7961	2455.9546	3754.85	2867.5
972.9251	2457.3177	3740.35	2853
973.0541	2458.68	3733.95	2841.4
973.1831	2460.0416	3731.7	2842.7
973.312	2461.4025	3736.05	2844.75
973.4408	2462.7627	3724.7	2826.8
973.5697	2464.1222	3681.65	2794.45
973.6985	2465.4811	3693.7	2807.8
973.8273	2466.8392	3691.75	2804.2
973.956	2468.1966	3666.95	2776
974.0847	2469.5533	3675.85	2785.15
974.2134	2470.9093	3667.6	2778.55
974.3421	2472.2645	3648.5	2758.7
974.4707	2473.6191	3642.8	2754.4
974.5993	2474.973	3634.5	2746.2
974.7278	2476.3262	3614.8	2722.55
974.8563	2477.6787	3612.6	2724.55
974.9848	2479.0305	3591.4	2702.25
975.1132	2480.3816	3596.8	2708.5
975.2417	2481.7319	3582.45	2694.15
975.37	2483.0816	3570.85	2681.85
975.4984	2484.4306	3540.4	2648.3
975.6267	2485.7789	3548.05	2658.65
975.755	2487.1264	3529.6	2640.1
975.8833	2488.4733	3519.55	2633.8
976.0115	2489.8195	3525.8	2630.6
976.1397	2491.165	3504.05	2612.75
976.2678	2492.5097	3493.9	2604.9
976.3959	2493.8538	3479.45	2593.8
976.524	2495.1972	3458.9	2567.95
976.6521	2496.5398	3449.3	2561.95
976.7801	2497.8818	3456.1	2563.35
976.9081	2499.2231	3443.1	2553.85
977.036	2500.5637	3428.5	2535.4
977.164	2501.9035	3427.7	2536.5
977.2918	2503.2427	3408.75	2516.75
977.4197	2504.5812	3407.35	2520.05
977.5475	2505.919	3402	2511
977.6753	2507.256	3397.35	2508.9
977.8031	2508.5924	3385.5	2498.55
977.9308	2509.9281	3381.7	2486.8
978.0585	2511.2631	3363.5	2474.65
978.1861	2512.5974	3360.5	2470.95
978.3137	2513.9309	3342.05	2455.2
978.4413	2515.2638	3358.35	2446.1
978.5689	2516.596	3340.95	2451.5
978.6964	2517.9275	3312	2420.5
978.8239	2519.2583	3304	2415.6
978.9513	2520.5884	3304.45	2415.75
979.0788	2521.9178	3285.7	2398.9
979.2062	2523.2465	3279	2391.25
979.3335	2524.5745	3261.1	2372.85
979.4608	2525.9018	3262.1	2374.4
979.5881	2527.2284	3254.85	2366.15
979.7154	2528.5543	3237.8	2348.2
979.8426	2529.8796	3248.5	2359.3
979.9698	2531.2041	3233.3	2343.75
980.0969	2532.5279	3234.05	2347.55
980.224	2533.851	3224.8	2336.7
980.3511	2535.1735	3226.3	2337.45
980.4781	2536.4952	3204.65	2316.75
980.6052	2537.8163	3210.45	2321.1
980.7321	2539.1366	3202	2310.75
980.8591	2540.4562	3187.5	2296.7
980.986	2541.7752	3179.75	2290.45
981.1129	2543.0935	3176.7	2285.95
981.2397	2544.411	3149.8	2259.05
981.3665	2545.7279	3160	2272.3
981.4933	2547.0441	3155	2266.15
981.62	2548.3596	3154.45	2263.7
981.7467	2549.6744	3152.05	2261.85
981.8734	2550.9885	3141.15	2245.35
982.0001	2552.3019	3127.05	2237.7
982.1267	2553.6146	3123	2236.45
982.2532	2554.9266	3126.45	2235.25
982.3798	2556.2379	3121.4	2233.7
982.5063	2557.5485	3112	2224.7
982.6327	2558.8585	3111.35	2216.35
982.7592	2560.1677	3112.5	2218.85
982.8856	2561.4762	3082.15	2193.15
983.0119	2562.7841	3090.75	2197.8
983.1383	2564.0913	3079.75	2192
983.2646	2565.3977	3075.75	2185.9
983.3908	2566.7035	3058.1	2168.95
983.517	2568.0086	3060.6	2167.6
983.6432	2569.313	3068.35	2179.35
983.7694	2570.6167	3059.75	2167.9
983.8955	2571.9197	3047.55	2158.2
984.0216	2573.222	3049.65	2157.95
984.1476	2574.5236	3035.7	2146.25
984.2737	2575.8246	3030.45	2136.5
984.3996	2577.1248	3019.35	2128.8
984.5256	2578.4244	3024.2	2135.55
984.6515	2579.7232	3008.9	2120.15
984.7774	2581.0214	3035.55	2115.2
984.9032	2582.3189	3010.3	2119.85
985.029	2583.6157	3021.3	2126.85
985.1548	2584.9118	3009.25	2120.95
985.2806	2586.2072	2991.35	2102.4
985.4063	2587.5019	2979.4	2089.65
985.5319	2588.7959	2980.9	2089.3
985.6576	2590.0893	2974.8	2081.9
985.7832	2591.3819	2992.6	2102.4
985.9087	2592.6739	2968.05	2077.95
986.0343	2593.9652	2969.25	2078.9
986.1597	2595.2557	2966.15	2076
986.2852	2596.5456	2963.15	2073.2
986.4106	2597.8348	2963.1	2072.65
986.536	2599.1234	2948	2059.7
986.6614	2600.4112	2951.8	2061.8
986.7867	2601.6983	2943	2049.65
986.912	2602.9848	2920.75	2030
987.0372	2604.2705	2924.35	2028
987.1624	2605.5556	2921.35	2032.5
987.2876	2606.84	2901.1	2012.55
987.4128	2608.1237	2905.45	2014.25
987.5379	2609.4067	2888.35	1998.35
987.6629	2610.689	2884.5	1987.05
987.788	2611.9707	2874.45	1980.5
987.913	2613.2516	2874.6	1977.7
988.0379	2614.5319	2864.3	1975.05
988.1629	2615.8115	2848.4	1959.95
988.2878	2617.0903	2841.85	1950.35
988.4126	2618.3685	2837.45	1947.45
988.5375	2619.6461	2833.3	1941.4
988.6622	2620.9229	2820.05	1928.35
988.787	2622.199	2832.95	1942.55
988.9117	2623.4745	2816.55	1923.1
989.0364	2624.7493	2815.9	1926.65
989.161	2626.0234	2798.4	1909.7
989.2857	2627.2968	2806.1	1919.35
989.4102	2628.5695	2794.65	1902.2
989.5348	2629.8415	2773.7	1884.9
989.6593	2631.1128	2767.4	1878.15
989.7837	2632.3835	2770.65	1883.6
989.9082	2633.6535	2772.9	1886.6
990.0326	2634.9228	2754.35	1865.05
990.1569	2636.1914	2754.1	1866.4
990.2812	2637.4593	2758.4	1868.15
990.4055	2638.7265	2748.9	1860.35
990.5298	2639.9931	2730.2	1839.05
990.654	2641.259	2739.5	1848.2
990.7782	2642.5242	2719.25	1828.45
990.9023	2643.7887	2702.35	1814.05
991.0264	2645.0525	2701.8	1813.1
991.1505	2646.3156	2707.05	1816.4
991.2745	2647.5781	2682.05	1794.25
991.3985	2648.8398	2684.85	1796.25
991.5225	2650.1009	2698.4	1785.95
991.6464	2651.3613	2672.85	1782.9
991.7703	2652.6211	2668.15	1778.1
991.8942	2653.8801	2658.15	1770.6
992.018	2655.1385	2658.05	1769.1
992.1418	2656.3961	2648.1	1758.8
992.2655	2657.6531	2638.5	1748.25
992.3892	2658.9094	2639.65	1751.8
992.5129	2660.1651	2644.9	1757.35
992.6366	2661.42	2629.45	1742.3
992.7602	2662.6743	2642.6	1753.45
992.8837	2663.9279	2626.15	1736.95
993.0073	2665.1808	2625.95	1736.95
993.1307	2666.433	2626.1	1736.55
993.2542	2667.6846	2622.95	1733.6
993.3776	2668.9354	2633	1740.8
993.501	2670.1856	2630.4	1741
993.6244	2671.4351	2618.45	1728.25
993.7477	2672.6839	2610.85	1723.15
993.8709	2673.9321	2610.7	1722.75
993.9942	2675.1795	2605.65	1717.7
994.1174	2676.4263	2609.95	1721.45
994.2405	2677.6724	2606.65	1717.3
994.3637	2678.9179	2592.1	1700.35
994.4868	2680.1626	2600.45	1712.55
994.6098	2681.4067	2595.05	1706.5
994.7328	2682.6501	2594.7	1706.95
994.8558	2683.8928	2590.95	1700.65
994.9788	2685.1348	2576	1688.8
995.1017	2686.3761	2567.55	1679.35
995.2245	2687.6168	2557.85	1668.25
995.3474	2688.8568	2556.6	1665.7
995.4702	2690.0961	2543.4	1654.3
995.5929	2691.3348	2538.95	1649.3
995.7156	2692.5727	2529.15	1640.7
995.8383	2693.81	2521.7	1630.65
995.961	2695.0466	2516.35	1630.55
996.0836	2696.2826	2504.3	1614.95
996.2062	2697.5178	2509.95	1621
996.3287	2698.7524	2509.6	1619.5
996.4512	2699.9863	2508.05	1617.95
996.5737	2701.2195	2499.15	1613.95
996.6961	2702.452	2512.05	1621.8
996.8185	2703.6839	2494.5	1604.55
996.9408	2704.9151	2491.55	1602.7
997.0631	2706.1456	2491.75	1603.4
997.1854	2707.3755	2488.05	1600.45
997.3077	2708.6046	2513.25	1622.6
997.4299	2709.8331	2508.35	1621.25
997.552	2711.0609	2514.8	1626.3
997.6742	2712.2881	2511.65	1623.3
997.7963	2713.5145	2523.15	1632.35
997.9183	2714.7403	2522.55	1637.05
998.0403	2715.9654	2520.05	1630.3
998.1623	2717.1899	2542.35	1637.4
998.2842	2718.4136	2543.55	1654.45
998.4062	2719.6367	2543.05	1654
998.528	2720.8591	2559.1	1664.7
998.6498	2722.0809	2547.2	1658.6
998.7716	2723.3019	2561.75	1671.2
998.8934	2724.5223	2576.25	1685.7
999.0151	2725.7421	2567.05	1678.5
999.1368	2726.9611	2559.3	1671.3
999.2584	2728.1795	2557.35	1665.5
999.38	2729.3972	2550.4	1662.55
999.5016	2730.6142	2539.35	1638.55
999.6231	2731.8306	2523.35	1634.25
999.7446	2733.0462	2495.2	1607.75
999.8661	2734.2612	2476.25	1581.8
999.9875	2735.4756	2443.95	1553.65
1000.1089	2736.6892	2436.45	1548.3
1000.2302	2737.9022	2408.5	1522
1000.3515	2739.1145	2389.4	1503
1000.4728	2740.3262	2383.65	1488.15
1000.594	2741.5372	2360.5	1474.1
1000.7152	2742.7475	2340.2	1452.55
1000.8363	2743.9571	2332.8	1441
1000.9575	2745.1661	2333.45	1442.2
1001.0785	2746.3744	2309.85	1420.15
1001.1996	2747.582	2289.45	1405.05
1001.3206	2748.7889	2287.3	1399.25
1001.4415	2749.9952	2269.85	1383.75
1001.5625	2751.2008	2269.9	1382.8
1001.6833	2752.4057	2264.6	1375.15
1001.8042	2753.61	2242.25	1356
1001.925	2754.8136	2250	1360.55
1002.0458	2756.0165	2242.6	1353.75
1002.1665	2757.2188	2236.65	1352.8
1002.2872	2758.4204	2246.25	1359.25
1002.4078	2759.6213	2218.75	1327.9
1002.5285	2760.8215	2239.8	1349.5
1002.649	2762.0211	2227.1	1338.15
1002.7696	2763.22	2220.15	1330.85
1002.8901	2764.4182	2210.7	1322.85
1003.0106	2765.6158	2199	1312.45
1003.131	2766.8127	2197.25	1308.65
1003.2514	2768.009	2194.85	1308.7
1003.3717	2769.2045	2190.2	1303.75
1003.492	2770.3994	2188.5	1300.4
1003.6123	2771.5936	2170.15	1283.35
1003.7325	2772.7872	2161.9	1278.05
1003.8527	2773.9801	2167.75	1277.2
1003.9729	2775.1723	2174.6	1271.05
1004.093	2776.3639	2150.7	1263.9
1004.2131	2777.5548	2161.35	1271.8
1004.3331	2778.745	2152.5	1266.75
1004.4531	2779.9346	2151.9	1266.1
1004.5731	2781.1235	2166.05	1279.6
1004.693	2782.3117	2163.75	1278.75
1004.8129	2783.4992	2156.45	1269
1004.9328	2784.6861	2156.5	1271.2
1005.0526	2785.8723	2152.25	1264.25
1005.1723	2787.0579	2168.95	1281.35
1005.2921	2788.2428	2165.35	1279.6
1005.4118	2789.427	2169.3	1283.2
1005.5314	2790.6106	2183.8	1297.9
1005.651	2791.7935	2181.9	1295
1005.7706	2792.9757	2188.65	1304.1
1005.8902	2794.1573	2210.05	1320.8
1006.0097	2795.3382	2214.95	1328.35
1006.1291	2796.5184	2230	1347.3
1006.2485	2797.698	2236.1	1346.2
1006.3679	2798.8769	2254.15	1367.15
1006.4873	2800.0551	2266.5	1381.15
1006.6066	2801.2327	2275.65	1387
1006.7258	2802.4096	2293.15	1405.7
1006.8451	2803.5859	2321.8	1435.65
1006.9642	2804.7615	2334.4	1448.8
1007.0834	2805.9364	2353.1	1469.1
1007.2025	2807.1106	2387.3	1502.25
1007.3216	2808.2842	2418.4	1531.65
1007.4406	2809.4572	2446.95	1560.35
1007.5596	2810.6294	2465.3	1578
1007.6785	2811.801	2511.05	1625
1007.7975	2812.972	2553.2	1665.5
1007.9163	2814.1423	2585.45	1701.25
1008.0352	2815.3119	2640.5	1755.15
1008.154	2816.4808	2699.9	1815.95
1008.2727	2817.6491	2729.2	1841.95
1008.3914	2818.8167	2781.45	1895.75
1008.5101	2819.9837	2838.4	1947
1008.6288	2821.15	2883.25	1997.15
1008.7474	2822.3157	2924.2	2040.4
1008.8659	2823.4807	2957.45	2071.3
1008.9844	2824.645	3002.9	2113.95
1009.1029	2825.8086	3019.8	2137.4
1009.2214	2826.9716	3059.9	2174.65
1009.3398	2828.134	3107.1	2220.6
1009.4581	2829.2957	3141.05	2256
1009.5764	2830.4567	3160.25	2276.4
1009.6947	2831.617	3178.15	2293.35
1009.813	2832.7767	3196.1	2311.85
1009.9312	2833.9358	3203.4	2318.7
1010.0493	2835.0941	3189.35	2301.15
1010.1675	2836.2519	3165.45	2280.3
1010.2855	2837.4089	3159.15	2271
1010.4036	2838.5653	3155.8	2271.2
1010.5216	2839.7211	3148.2	2263.3
1010.6396	2840.8761	3161.55	2275.25
1010.7575	2842.0306	3170.5	2286.5
1010.8754	2843.1843	3226.5	2340.7
1010.9932	2844.3374	3273.65	2389.35
1011.111	2845.4899	3320.5	2433.7
1011.2288	2846.6417	3412.6	2527.6
1011.3465	2847.7928	3483.65	2598.35
1011.4642	2848.9433	3559.95	2673.4
1011.5818	2850.0931	3646.65	2763.35
1011.6995	2851.2422	3730.9	2841.6
1011.817	2852.3907	3797.3	2910.15
1011.9345	2853.5385	3857.25	2971.7
1012.052	2854.6857	3925.6	3032.6
1012.1695	2855.8323	3969.65	3087.55
1012.2869	2856.9781	3993.6	3109.75
1012.4042	2858.1233	4054.45	3169.1
1012.5216	2859.2679	4104.35	3220.55
1012.6389	2860.4118	4143.5	3257.45
1012.7561	2861.555	4173.5	3283.75
1012.8733	2862.6976	4210.5	3320.75
1012.9905	2863.8395	4229.1	3343.65
1013.1076	2864.9808	4254	3369.7
1013.2247	2866.1214	4262.5	3380.05
1013.3417	2867.2614	4276.85	3391.75
1013.4587	2868.4007	4289.55	3402.5
1013.5757	2869.5393	4296.95	3410.2
1013.6926	2870.6773	4304.05	3415.15
1013.8095	2871.8146	4324.35	3436.95
1013.9263	2872.9513	4324.3	3437.5
1014.0431	2874.0874	4316.05	3431.85
1014.1599	2875.2227	4303.7	3418.85
1014.2766	2876.3574	4276.55	3390.7
1014.3933	2877.4915	4234.95	3350.75
1014.51	2878.6249	4226.3	3344.05
1014.6266	2879.7577	4202.6	3317.3
1014.7431	2880.8898	4177.3	3282.65
1014.8596	2882.0212	4152.35	3269.4
1014.9761	2883.152	4136.35	3253.7
1015.0925	2884.2821	4132.55	3249.3
1015.2089	2885.4116	4127.65	3245.1
1015.3253	2886.5405	4115.35	3231
1015.4416	2887.6686	4120.25	3231
1015.5579	2888.7962	4129.15	3246.2
1015.6741	2889.923	4138	3255.25
1015.7903	2891.0493	4140.55	3256.65
1015.9065	2892.1748	4156.85	3272.45
1016.0226	2893.2997	4156.4	3272.25
1016.1387	2894.424	4173.85	3291.6
1016.2547	2895.5476	4184.9	3300.75
1016.3707	2896.6706	4214.45	3330.5
1016.4866	2897.7929	4234.2	3347.9
1016.6025	2898.9145	4270.9	3385.55
1016.7184	2900.0355	4280.65	3395.7
1016.8342	2901.1559	4320.85	3436.45
1016.95	2902.2756	4358.4	3474.5
1017.0658	2903.3946	4377.95	3493.3
1017.1815	2904.513	4413.1	3526
1017.2971	2905.6308	4453.05	3571.85
1017.4127	2906.7479	4455.3	3571.15
1017.5283	2907.8643	4478.7	3592.95
1017.6439	2908.9801	4494.55	3609.25
1017.7594	2910.0953	4500.45	3618.6
1017.8748	2911.2098	4496.05	3607.3
1017.9902	2912.3236	4474.15	3582.5
1018.1056	2913.4368	4471.45	3584.75
1018.2209	2914.5494	4446.3	3561.7
1018.3362	2915.6613	4427.4	3538.1
1018.4515	2916.7725	4401.65	3514.6
1018.5667	2917.8831	4369.55	3484
1018.6819	2918.9931	4325.55	3438.35
1018.797	2920.1024	4284.8	3400.35
1018.9121	2921.211	4267.7	3384.2
1019.0271	2922.319	4258.9	3374.9
1019.1421	2923.4264	4253.5	3370
1019.2571	2924.5331	4212	3329.65
1019.372	2925.6391	4205.8	3323.15
1019.4869	2926.7445	4185.65	3303.1
1019.6017	2927.8493	4168.65	3284.15
1019.7165	2928.9534	4175.5	3292.3
1019.8313	2930.0569	4163.55	3277.5
1019.946	2931.1597	4153.9	3268.55
1020.0606	2932.2619	4129.8	3247.15
1020.1753	2933.3634	4120	3237
1020.2899	2934.4643	4100.15	3208.8
1020.4044	2935.5645	4092.8	3202.05
1020.5189	2936.6641	4059.1	3169.35
1020.6334	2937.763	4001.7	3117.5
1020.7478	2938.8613	3953.1	3067.4
1020.8622	2939.959	3897.15	3007.35
1020.9765	2941.056	3792.8	2909.95
1021.0908	2942.1523	3714.9	2828.9
1021.2051	2943.248	3619.65	2733.9
1021.3193	2944.3431	3533.1	2649.45
1021.4334	2945.4375	3425.9	2542.15
1021.5476	2946.5313	3331.05	2450.1
1021.6617	2947.6244	3211.4	2326.95
1021.7757	2948.7169	3100.35	2214.9
1021.8897	2949.8087	2999.1	2115.25
1022.0037	2950.8999	2916.55	2032.85
1022.1176	2951.9904	2830.65	1948.75
1022.2315	2953.0803	2766.5	1883.5
1022.3453	2954.1696	2698.55	1813.95
1022.4591	2955.2582	2647.25	1765.75
1022.5728	2956.3462	2609.6	1726.45
1022.6865	2957.4335	2561.95	1675.9
1022.8002	2958.5202	2520.95	1635.7
1022.9138	2959.6062	2484	1601.95
1023.0274	2960.6916	2471.95	1587.75
1023.141	2961.7764	2439.95	1555.9
1023.2545	2962.8605	2428.2	1544.65
1023.3679	2963.9439	2410.65	1526.55
1023.4813	2965.0267	2410.15	1526.5
1023.5947	2966.1089	2417.4	1511.2
1023.708	2967.1905	2390.25	1506.4
1023.8213	2968.2714	2379.05	1497.15
1023.9346	2969.3516	2386	1503.05
1024.0478	2970.4312	2388.5	1497.1
1024.1609	2971.5102	2376.55	1492.15
1024.274	2972.5885	2386.5	1505.9
1024.3871	2973.6662	2382.5	1494.8
1024.5002	2974.7432	2362.25	1480.95
1024.6132	2975.8196	2350.95	1466.3
1024.7261	2976.8954	2338.4	1456.05
1024.839	2977.9705	2330.8	1447.7
1024.9519	2979.045	2320.8	1437
1025.0647	2980.1188	2296.45	1412.6
1025.1775	2981.192	2284.9	1403.4
1025.2902	2982.2645	2248.2	1362.95
1025.4029	2983.3364	2225.85	1343.45
1025.5156	2984.4077	2188.05	1306.15
1025.6282	2985.4783	2167.95	1280.8
1025.7407	2986.5483	2129.2	1246.7
1025.8532	2987.6177	2097.55	1217.15
1025.9657	2988.6864	2059.05	1176.05
1026.0782	2989.7545	2018.8	1133.95
1026.1906	2990.8219	1991.3	1110.3
1026.3029	2991.8887	1954.15	1069.1
1026.4152	2992.9548	1921.25	1037.95
1026.5275	2994.0204	1889.1	1008.75
1026.6397	2995.0852	1860.45	977.6
1026.7519	2996.1495	1834.9	950.85
1026.864	2997.2131	1820.5	938.1
1026.9761	2998.276	1787.3	905.6
1027.0882	2999.3383	1770.65	887.15
1027.2002	3000.4	1751.3	868.8
1027.3122	3001.4611	1729.15	847.65
1027.4241	3002.5215	1714.95	833
1027.536	3003.5812	1699.3	817.9
1027.6478	3004.6404	1695.85	812.55
1027.7596	3005.6989	1677.05	793.55
1027.8714	3006.7567	1674.6	791.7
1027.9831	3007.8139	1675.25	773.2
1028.0947	3008.8705	1660.05	777.95
1028.2064	3009.9264	1673.9	774.55
1028.3179	3010.9818	1649.2	767.65
1028.4295	3012.0364	1642.85	759.7
1028.541	3013.0905	1632.6	748.75
1028.6524	3014.1439	1638.1	755.55
1028.7638	3015.1966	1626.15	745.55
1028.8752	3016.2487	1625.6	742.6
1028.9865	3017.3002	1626.15	736.85
1029.0978	3018.3511	1623.95	742.75
1029.209	3019.4013	1622.25	742.25
1029.3202	3020.4509	1621.2	738.7
1029.4314	3021.4998	1621.75	739.9
1029.5425	3022.5481	1624	740.15
1029.6535	3023.5958	1618.65	735.7
1029.7645	3024.6428	1624.65	741.75
1029.8755	3025.6892	1621.45	741.65
1029.9864	3026.735	1628.95	747.2
1030.0973	3027.7802	1622.8	742.35
1030.2082	3028.8247	1620.65	737.8
1030.319	3029.8685	1625.7	743.4
1030.4297	3030.9118	1633.35	748.6
1030.5404	3031.9544	1637.75	756.65
1030.6511	3032.9963	1637.9	756
1030.7617	3034.0376	1637	755.1
1030.8723	3035.0783	1649.9	765.9
1030.9829	3036.1184	1648.15	764.2
1031.0934	3037.1578	1646.05	764.85
1031.2038	3038.1966	1644.8	762.45
1031.3142	3039.2348	1649.25	767.8
1031.4246	3040.2723	1663.8	771.3
1031.5349	3041.3092	1652.6	771.3
1031.6452	3042.3455	1643.75	761
1031.7554	3043.3811	1649.65	767.45
1031.8656	3044.4161	1627.45	746.4
1031.9758	3045.4505	1623.25	741.5
1032.0859	3046.4842	1618.2	736.95
1032.1959	3047.5173	1609.75	727.8
1032.3059	3048.5498	1599.3	718.95
1032.4159	3049.5816	1599.55	716.8
1032.5258	3050.6128	1599.95	717.1
1032.6357	3051.6434	1581.9	700.5
1032.7455	3052.6734	1576.95	693.6
1032.8553	3053.7027	1567.5	687.95
1032.9651	3054.7314	1554.35	671.95
1033.0748	3055.7594	1545.9	664.15
1033.1845	3056.7868	1538.35	656.85
1033.2941	3057.8136	1536.25	654.4
1033.4037	3058.8398	1526.85	646.6
1033.5132	3059.8653	1528.1	645.4
1033.6227	3060.8902	1516.75	634.3
1033.7321	3061.9145	1508.1	628.05
1033.8415	3062.9381	1504.9	621.35
1033.9509	3063.9612	1517.65	618.75
1034.0602	3064.9835	1494.85	614
1034.1694	3066.0053	1484.25	599.25
1034.2787	3067.0264	1475.95	594.25
1034.3878	3068.0469	1465	578.4
1034.497	3069.0668	1466.5	582.05
1034.6061	3070.086	1448.6	568.75
1034.7151	3071.1046	1444	559.05
1034.8241	3072.1226	1442.1	559.9
1034.9331	3073.1399	1421.15	540.05
1035.042	3074.1567	1413.15	532
1035.1508	3075.1727	1405.55	522
1035.2597	3076.1882	1386.25	504.8
1035.3684	3077.203	1381.45	500.8
1035.4772	3078.2173	1369.1	487.4
1035.5859	3079.2308	1371.3	484.85
1035.6945	3080.2438	1349.9	465.55
1035.8031	3081.2561	1340.45	459.2
1035.9117	3082.2678	1334.4	452.8
1036.0202	3083.2789	1330.85	449.75
1036.1286	3084.2893	1333.15	450.55
1036.2371	3085.2991	1314.2	432.35
1036.3454	3086.3083	1307.35	420.6
1036.4538	3087.3169	1305.85	423.15
1036.562	3088.3248	1303.2	420.3
1036.6703	3089.3321	1287.65	404.05
1036.7785	3090.3388	1280.05	398.65
1036.8866	3091.3449	1277.2	395.95
1036.9948	3092.3503	1280.85	397
1037.1028	3093.3551	1273.45	393.9
1037.2108	3094.3593	1266	386.1
1037.3188	3095.3629	1267.45	386.7
1037.4267	3096.3658	1262.35	380.7
1037.5346	3097.3681	1257.2	376.6
1037.6425	3098.3698	1259	375.05
1037.7503	3099.3708	1258.05	369.75
1037.858	3100.3713	1250.1	369.45
1037.9657	3101.3711	1246.1	363.95
1038.0734	3102.3702	1373.25	356.6
1038.181	3103.3688	1244.7	360.3
1038.2886	3104.3667	1236	355.25
1038.3961	3105.364	1238.4	357.8
1038.5036	3106.3607	1230.7	348.15
1038.611	3107.3568	1229.35	346.1
1038.7184	3108.3522	1221.7	342.5
1038.8257	3109.347	1219.85	336.65
1038.933	3110.3412	1223.6	337.65
1039.0403	3111.3348	1219.7	337.15
1039.1475	3112.3277	1213.75	334.25
1039.2547	3113.32	1208.35	328.35
1039.3618	3114.3117	1205.65	324.1
1039.4689	3115.3028	1206.65	325.4
1039.5759	3116.2932	1211.65	330.45
1039.6829	3117.2831	1209.15	320.15
1039.7898	3118.2723	1200.65	321.15
1039.8967	3119.2608	1199.1	318.55
1040.0035	3120.2488	1197.4	316.45
1040.1103	3121.2361	1197.05	314.9
1040.2171	3122.2229	1194.8	312.6
1040.3238	3123.209	1192.5	310.8
1040.4305	3124.1944	1184.3	304.5
1040.5371	3125.1793	1186.1	303.1
1040.6437	3126.1635	1182.8	302.5
1040.7502	3127.1471	1184.15	302.75
1040.8567	3128.1301	1179.65	298.6
1040.9631	3129.1125	1178.6	297.5
1041.0695	3130.0942	1176.4	295.1
1041.1759	3131.0753	1178.8	288.75
1041.2822	3132.0558	1175.45	291.8
1041.3884	3133.0357	1172.6	290.55
1041.4946	3134.015	1175.35	292.35
1041.6008	3134.9936	1173.35	290.2
1041.7069	3135.9716	1191.9	288.8
1041.813	3136.949	1167.75	285.2
1041.919	3137.9258	1183.9	285.9
1042.025	3138.902	1167.05	279.7
1042.1309	3139.8775	1157.5	278
1042.2368	3140.8524	1154.65	274.2
1042.3427	3141.8267	1155.6	272
1042.4485	3142.8004	1153.55	273.9
1042.5542	3143.7735	1157	268.4
1042.6599	3144.7459	1156.95	273.85
1042.7656	3145.7178	1149.15	265.45
1042.8712	3146.689	1151.35	270.15
1042.9768	3147.6596	1147.35	264.4
1043.0823	3148.6295	1143.55	260.15
1043.1878	3149.5989	1146.35	265.9
1043.2932	3150.5676	1139.5	259.5
1043.3986	3151.5357	1141.3	262.35
1043.5039	3152.5032	1137.1	260.55
1043.6092	3153.4701	1133.35	252.6
1043.7145	3154.4364	1132.6	248.3
1043.8197	3155.402	1133.1	253.85
1043.9248	3156.367	1133.55	250.75
1044.03	3157.3315	1154.2	245.7
1044.135	3158.2952	1128.15	244.95
1044.24	3159.2584	1126.15	244.85
1044.345	3160.221	1122.9	240.4
1044.4499	3161.1829	1123.3	241.6
1044.5548	3162.1442	1117.25	236.75
1044.6596	3163.105	1116.65	238.15
1044.7644	3164.065	1117.05	235.3
1044.8692	3165.0245	1113.7	232.4
1044.9739	3165.9834	1114.35	236.05
1045.0785	3166.9416	1114.4	233.65
1045.1831	3167.8993	1110.9	231.25
1045.2877	3168.8563	1114.65	232.2
1045.3922	3169.8127	1106.9	224.8
1045.4966	3170.7684	1108.65	228.2
1045.6011	3171.7236	1102.35	220.35
1045.7054	3172.6782	1103.35	223.7
1045.8098	3173.6321	1101.15	219.05
1045.914	3174.5854	1106.95	220.95
1046.0183	3175.5381	1102.75	221.4
1046.1224	3176.4902	1095.2	214.25
1046.2266	3177.4417	1097	216.95
1046.3307	3178.3926	1095.1	214.2
1046.4347	3179.3428	1092.8	211.7
1046.5387	3180.2924	1091.1	209.95
1046.6427	3181.2415	1090.65	210.95
1046.7466	3182.1899	1090.75	207.2
1046.8504	3183.1377	1092.3	212.25
1046.9542	3184.0848	1092.15	208.15
1047.058	3185.0314	1086.6	206
1047.1617	3185.9773	1090.6	210.3
1047.2654	3186.9227	1086.85	204.9
1047.369	3187.8674	1085.5	204.9
1047.4726	3188.8115	1089.1	205.45
1047.5761	3189.755	1080.6	201.9
1047.6796	3190.6979	1080.75	201.15
1047.783	3191.6402	1078.2	198.95
1047.8864	3192.5818	1080.2	198.9
1047.9898	3193.5229	1092.35	203.65
1048.0931	3194.4633	1078.4	197.5
1048.1963	3195.4031	1076.55	194.85
1048.2995	3196.3423	1077.4	195
1048.4027	3197.2809	1073.45	193.5
1048.5058	3198.2189	1076.15	194.6
1048.6089	3199.1563	1081.8	196.45
1048.7119	3200.0931	1074.9	194.6
1048.8148	3201.0292	1068.35	190.7
1048.9178	3201.9648	1072.65	192.85
1049.0206	3202.8997	1071.2	186.6
1049.1235	3203.834	1069.85	189.75
1049.2262	3204.7677	1071.45	191.45
1049.329	3205.7008	1067.75	183.4
1049.4317	3206.6333	1061.8	183.3
1049.5343	3207.5652	1066.15	182.3
1049.6369	3208.4964	1065.6	185.8
1049.7394	3209.4271	1065.2	186.15
1049.8419	3210.3571	1061.45	180.2
1049.9444	3211.2865	1060.75	180.4
1050.0468	3212.2154	1060.5	178.65
1050.1491	3213.1436	1061.25	179
1050.2514	3214.0712	1064.6	176.5
1050.3537	3214.9982	1054	174.75
1050.4559	3215.9246	1057.4	176.3
1050.5581	3216.8503	1054.4	175.3
1050.6602	3217.7755	1049.2	169.2
1050.7623	3218.7001	1053.55	172.8
1050.8643	3219.624	1056.1	176.4
1050.9663	3220.5473	1050.35	170.3
1051.0682	3221.4701	1054.45	173.1
1051.1701	3222.3922	1051.05	167.05
1051.2719	3223.3137	1052.05	172.9
1051.3737	3224.2346	1049.95	170.4
1051.4754	3225.1549	1048.8	170.2
1051.5771	3226.0746	1047	165.55
1051.6788	3226.9937	1042.95	162.8
1051.7804	3227.9121	1043.15	163.1
1051.8819	3228.83	1042.9	164.95
1051.9834	3229.7473	1049.85	170.25
1052.0849	3230.6639	1043	163.25
1052.1863	3231.5799	1039.05	158.55
1052.2876	3232.4954	1042.55	162.05
1052.3889	3233.4102	1039.5	159.65
1052.4902	3234.3244	1035.55	153.3
1052.5914	3235.238	1036.7	157.05
1052.6926	3236.151	1061	155
1052.7937	3237.0634	1035.35	156.2
1052.8948	3237.9752	1034.35	153.4
1052.9958	3238.8864	1030.95	149.5
1053.0968	3239.797	1031.25	151.6
1053.1977	3240.7069	1036.05	155.05
1053.2986	3241.6163	1033.9	152.05
1053.3994	3242.5251	1025.85	146.45
1053.5002	3243.4332	1026.45	145.95
1053.6009	3244.3408	1035.45	155.15
1053.7016	3245.2477	1022.5	143.85
1053.8022	3246.154	1027.4	145.2
1053.9028	3247.0598	1025.65	143.8
1054.0034	3247.9649	1024.5	144.1
1054.1039	3248.8694	1024.6	145.75
1054.2043	3249.7733	1021.1	140.7
1054.3047	3250.6766	1022.65	142.9
1054.4051	3251.5793	1022.8	141.85
1054.5054	3252.4814	1020.2	140.95
1054.6056	3253.3829	1021.25	141.55
1054.7058	3254.2838	1017.55	138.65
1054.806	3255.1841	1018.95	140.45
1054.9061	3256.0838	1013.75	134.35
1055.0061	3256.9829	1009.5	129.7
1055.1062	3257.8814	1012.8	130.4
1055.2061	3258.7792	1007.8	125
1055.306	3259.6765	1008.4	130.5
1055.4059	3260.5731	1010.05	129.8
1055.5057	3261.4692	1007.3	127.2
1055.6055	3262.3647	1005.85	124.55
1055.7052	3263.2595	1003.05	122.3
1055.8049	3264.1538	999.95	121.35
1055.9045	3265.0474	1003.9	124.65
1056.0041	3265.9404	993.55	115.05
1056.1036	3266.8329	996.15	115.75
1056.2031	3267.7247	1000.9	111.65
1056.3025	3268.616	991.05	112.1
1056.4019	3269.5066	988.6	109
1056.5013	3270.3966	986.65	103.35
1056.6005	3271.286	984.3	105.7
