Software Version:	3.9.2.0
Unit SN:	10000200
Spectrometer SN:	6960
Date:	3/26/2024 1:23:36 PM
Data Line Index:	25
Spectral Points:	2048
Integration time (ms):	125
Averages:	20
Delay (ms):	30000
Sequence Number:	1
Processing:	dark subtract
Laser Power (mW):	305
Laser Current (mA):	822
Laser Diode Temp (C):	25.1
Laser Case Temp (C):	26.7
System Temp (C):	26.6
Spectrometer Temp (C):	24.4
CCD Temp (C):	0
Secondary Temp (C):	20.019
Heatsink Temp (C):	22.143
CCDPCB Temp (C):	36.429
SecondaryPCB Temp (C):	33.328

Wavelength	RamanShift	Raw Counts	Dark Subtracted
787.061	30.1047	445.15	33.8
787.2016	32.3739	445.95	36.75
787.3422	34.6426	449.65	39.95
787.4828	36.9109	453.4	41.05
787.6235	39.1787	461.3	45.45
787.7642	41.4461	470.2	48.35
787.9049	43.7131	477.45	54.25
788.0456	45.9796	481.1	54
788.1863	48.2456	487.15	54.75
788.3271	50.5112	496.75	62.5
788.4679	52.7764	501.55	63.4
788.6087	55.0411	509.1	68.25
788.7496	57.3054	519.75	74.35
788.8904	59.5692	524.7	75.15
789.0313	61.8326	534.15	83.95
789.1722	64.0955	544.35	87.7
789.3132	66.3579	554	90.9
789.4541	68.6199	569.4	105.4
789.5951	70.8815	592.2	124.85
789.7361	73.1426	635.2	165.2
789.8771	75.4032	732.25	255.25
790.0181	77.6634	976.8	496.35
790.1592	79.9231	1580.7	1097.7
790.3003	82.1824	2863.8	2374.8
790.4414	84.4412	5155.75	4660.5
790.5825	86.6995	8391.2	7882
790.7237	88.9574	11708.65	11188.8
790.8648	91.2148	14240.9	13720.3
791.006	93.4717	15667.2	15137.3
791.1472	95.7282	16269.3	15738.75
791.2885	97.9842	16538.65	16003.35
791.4297	100.2398	16601.3	16064.4
791.571	102.4949	16600.5	16060.4
791.7123	104.7495	16547.6	16003.25
791.8536	107.0036	16474.7	15930.2
791.9949	109.2573	16447.35	15904.3
792.1363	111.5105	16426.75	15879.45
792.2777	113.7632	16357.75	15812
792.4191	116.0154	16358.45	15800.55
792.5605	118.2672	16388.75	15835.15
792.7019	120.5185	16362.35	15809.55
792.8434	122.7693	16370.8	15813.5
792.9849	125.0197	16377.7	15819.25
793.1264	127.2696	16361.15	15798.95
793.2679	129.519	16401.7	15835.4
793.4094	131.7679	16368.45	15802.75
793.551	134.0163	16380.95	15808.7
793.6926	136.2642	16362.35	15787.25
793.8342	138.5117	16345.1	15760
793.9758	140.7587	16330.55	15751.05
794.1175	143.0052	16278.75	15697.8
794.2591	145.2512	16269.9	15687.9
794.4008	147.4967	16210.4	15627.8
794.5425	149.7417	16180.65	15594.3
794.6842	151.9863	16160.8	15571.1
794.826	154.2304	16155.75	15564.2
794.9677	156.4739	16072.8	15475.7
795.1095	158.717	16064.2	15466.25
795.2513	160.9596	16062.7	15456.6
795.3931	163.2017	16049.8	15443.95
795.535	165.4433	15991.75	15386.15
795.6768	167.6844	15969.05	15359.15
795.8187	169.925	15945.9	15335.8
795.9606	172.1651	15868.15	15248.45
796.1025	174.4047	15833	15211.35
796.2445	176.6439	15794.55	15173.65
796.3864	178.8825	15766.05	15143.05
796.5284	181.1206	15778.15	15148.75
796.6704	183.3582	15740.55	15108
796.8124	185.5954	15708.95	15074.45
796.9544	187.832	15727.9	15093.25
797.0965	190.0681	15739.1	15100.5
797.2386	192.3037	15743.25	15099.05
797.3806	194.5388	15719.05	15072.55
797.5228	196.7734	15738.95	15088.05
797.6649	199.0075	15801.95	15150.05
797.807	201.2411	15799.15	15143.8
797.9492	203.4742	15814.3	15160.35
798.0914	205.7068	15860	15204.05
798.2336	207.9389	15854.05	15194.8
798.3758	210.1704	15895.2	15232.05
798.518	212.4015	15819.8	15155.6
798.6603	214.632	15856.8	15196.7
798.8025	216.862	15864	15210.85
798.9448	219.0915	15790.35	15143.1
799.0871	221.3205	15841.25	15196.4
799.2294	223.549	15826.7	15185.4
799.3718	225.777	15849.7	15208.85
799.5141	228.0044	15858.8	15212.4
799.6565	230.2314	15876.85	15233.15
799.7989	232.4578	15834.95	15189.15
799.9413	234.6837	15816.7	15164.5
800.0837	236.909	15813.55	15159.5
800.2262	239.1339	15829.25	15151.45
800.3687	241.3582	15818.7	15155.25
800.5111	243.582	15804.5	15109.05
800.6536	245.8053	15786.4	15102.35
800.7961	248.0281	15809.8	15130.55
800.9387	250.2503	15761.75	15078.45
801.0812	252.472	15749.75	15061.7
801.2238	254.6932	15789	15098.7
801.3664	256.9139	15715.65	15024.05
801.509	259.134	15733	15036.4
801.6516	261.3536	15708.4	15017.1
801.7942	263.5727	15740.2	15043.5
801.9369	265.7912	15715.35	15021.4
802.0795	268.0092	15767.2	15071.25
802.2222	270.2267	15740.55	15042.6
802.3649	272.4436	15735.35	15035.45
802.5076	274.6601	15741.8	15034.35
802.6504	276.8759	15690.95	14990.6
802.7931	279.0913	15738.15	15034.25
802.9359	281.3061	15705.85	15000.3
803.0787	283.5204	15697.6	14987.9
803.2215	285.7341	15715.75	15003.4
803.3643	287.9473	15711.7	14986.7
803.5071	290.16	15719.6	15004.25
803.6499	292.3721	15656.85	14944.05
803.7928	294.5837	15679.25	14963.65
803.9357	296.7947	15594.05	14881
804.0786	299.0052	15579.25	14865.15
804.2215	301.2152	15552.9	14835.9
804.3644	303.4246	15561.4	14846.85
804.5074	305.6334	15516.3	14802.95
804.6503	307.8418	15479.95	14761
804.7933	310.0495	15429.85	14711.7
804.9363	312.2568	15379.5	14661.1
805.0793	314.4635	15284.15	14559.95
805.2223	316.6696	15269.45	14545
805.3653	318.8752	15197.4	14465.3
805.5084	321.0802	15136.7	14411.95
805.6514	323.2847	15136.65	14411.4
805.7945	325.4887	15102.25	14375.3
805.9376	327.692	15058.05	14329.05
806.0807	329.8949	15121.1	14392.75
806.2238	332.0972	15092.75	14362.95
806.367	334.2989	15097	14363.6
806.5101	336.5001	15033.85	14297.15
806.6533	338.7007	15049.8	14314.5
806.7965	340.9008	15025.75	14289.4
806.9397	343.1003	14972.3	14233.25
807.0829	345.2992	14954.75	14215
807.2261	347.4976	14912.3	14170.8
807.3693	349.6955	14860.1	14115.6
807.5126	351.8927	14903.45	14156.9
807.6559	354.0895	14858.85	14101.7
807.7991	356.2856	14867.25	14119.8
807.9424	358.4812	14792.65	14045.9
808.0857	360.6763	14798.6	14050.6
808.2291	362.8707	14772.55	14021.35
808.3724	365.0646	14789.6	14035.6
808.5158	367.258	14747.15	13993.25
808.6591	369.4508	14706.55	13945.3
808.8025	371.643	14691.65	13932.55
808.9459	373.8346	14655.4	13893.05
809.0893	376.0257	14648.55	13884.25
809.2327	378.2162	14642.1	13878.7
809.3762	380.4062	14648.15	13882.05
809.5196	382.5956	14568.35	13797.9
809.6631	384.7844	14555.9	13791.6
809.8066	386.9726	14485.75	13718.25
809.9501	389.1603	14442.05	13676.45
810.0936	391.3474	14457.7	13660.85
810.2371	393.5339	14388.75	13624.45
810.3806	395.7199	14341.95	13580.15
810.5241	397.9052	14329.6	13566.4
810.6677	400.09	14323.65	13563.15
810.8113	402.2743	14320.05	13558.75
810.9548	404.4579	14305.35	13545.1
811.0984	406.641	14324.4	13565.4
811.2421	408.8235	14371.9	13609.85
811.3857	411.0054	14358.85	13595.1
811.5293	413.1868	14467.4	13698.55
811.673	415.3675	14475.7	13706.3
811.8166	417.5477	14426.1	13656.75
811.9603	419.7273	14386.75	13612.75
812.104	421.9064	14287.45	13505.75
812.2477	424.0848	14211.75	13436.7
812.3914	426.2627	14153	13374.15
812.5351	428.4399	14131.8	13353.5
812.6788	430.6166	14060.9	13278.35
812.8226	432.7928	14011.7	13227.9
812.9663	434.9683	13971.95	13188
813.1101	437.1432	13938.45	13150.6
813.2539	439.3176	13858.8	13073.3
813.3977	441.4914	13782.2	12994.9
813.5415	443.6645	13783.05	12993.8
813.6853	445.8371	13728.55	12938.45
813.8291	448.0091	13657.85	12871.2
813.973	450.1806	13613.55	12826.1
814.1168	452.3514	13559.85	12770.5
814.2607	454.5216	13584.85	12787.8
814.4046	456.6913	13454.6	12662.65
814.5485	458.8603	13465.65	12674.9
814.6924	461.0288	13509.65	12718.85
814.8363	463.1967	13475.1	12683.15
814.9802	465.3639	13480.25	12684.2
815.1241	467.5306	13430.2	12636.05
815.2681	469.6967	13401.75	12608.25
815.412	471.8622	13345.1	12551
815.556	474.0271	13362.7	12566.55
815.7	476.1914	13377.3	12580.9
815.844	478.3551	13332.45	12533.35
815.988	480.5182	13352.25	12553.5
816.132	482.6807	13356.15	12558.65
816.276	484.8426	13383.5	12589.15
816.4201	487.0039	13390.85	12594.85
816.5641	489.1647	13384.25	12585.25
816.7082	491.3248	13436.2	12635.05
816.8522	493.4843	13380.85	12579.5
816.9963	495.6432	13394.65	12594.35
817.1404	497.8015	13332.7	12527.25
817.2845	499.9592	13341.1	12537.45
817.4286	502.1163	13313.55	12512
817.5727	504.2728	13241.75	12438
817.7168	506.4287	13251.1	12448.7
817.861	508.5839	13205.25	12399.85
818.0051	510.7386	13175.35	12369.2
818.1493	512.8927	13186.7	12373.7
818.2935	515.0461	13166.15	12359.9
818.4377	517.199	13161.1	12354.4
818.5818	519.3512	13123.4	12314.45
818.726	521.5029	13192.95	12379.4
818.8703	523.6539	13177.9	12368.05
819.0145	525.8043	13180.75	12372.95
819.1587	527.9541	13180.75	12366.65
819.303	530.1033	13125.55	12313.6
819.4472	532.2519	13068.2	12254.65
819.5915	534.3999	13030.4	12218.25
819.7357	536.5472	13042.5	12228.9
819.88	538.694	13041.75	12230.7
820.0243	540.8401	13042.15	12228.7
820.1686	542.9856	13050.7	12236.1
820.3129	545.1305	13028.1	12212.05
820.4572	547.2748	13063.5	12247.4
820.6016	549.4185	13064.25	12247.7
820.7459	551.5615	13019.5	12202.1
820.8902	553.704	13021.9	12205.5
821.0346	555.8458	12990.5	12172.1
821.1789	557.987	13004.65	12186.9
821.3233	560.1276	12980.4	12159.15
821.4677	562.2675	13016.25	12195.55
821.6121	564.4069	13030.55	12209.3
821.7565	566.5456	13016.95	12197.9
821.9009	568.6837	12992.4	12171.85
822.0453	570.8212	12966	12148.75
822.1897	572.958	12896.25	12074.15
822.3342	575.0942	12847.05	12027.85
822.4786	577.2299	12795.1	11971.8
822.6231	579.3648	12765.15	11942.5
822.7675	581.4992	12711.3	11890.25
822.912	583.6329	12658.75	11839.3
823.0565	585.766	12651.3	11832.05
823.201	587.8985	12645.4	11828.35
823.3454	590.0304	12603.8	11768.3
823.4899	592.1616	12617.4	11790.7
823.6345	594.2922	12580.55	11753.65
823.779	596.4222	12535.2	11708
823.9235	598.5515	12506.6	11679.3
824.068	600.6802	12433.65	11606.15
824.2126	602.8083	12375.4	11547.45
824.3571	604.9358	12378.9	11548.8
824.5017	607.0626	12326.3	11497.2
824.6462	609.1888	12318.4	11486.7
824.7908	611.3144	12324.95	11494.8
824.9354	613.4393	12323.8	11495.1
825.08	615.5636	12323.05	11492.6
825.2246	617.6873	12332.8	11500.6
825.3692	619.8103	12360.3	11527.5
825.5138	621.9327	12325	11489.5
825.6584	624.0544	12285.95	11456.2
825.803	626.1756	12268.7	11439.85
825.9477	628.2961	12241.1	11407.85
826.0923	630.4159	12178.25	11342.05
826.237	632.5351	12187.1	11351.8
826.3816	634.6537	12159.7	11323.6
826.5263	636.7716	12170.7	11333.5
826.6709	638.8889	12188.3	11352.55
826.8156	641.0056	12200.2	11364.15
826.9603	643.1216	12157.75	11320.8
827.105	645.237	12182.2	11343.25
827.2497	647.3518	12139.65	11302.7
827.3944	649.4659	12117.15	11280.65
827.5391	651.5793	12080.45	11241.5
827.6838	653.6922	12064.4	11226.7
827.8285	655.8043	12048.05	11211.25
827.9733	657.9159	12048.7	11208.05
828.118	660.0268	11996.6	11155.75
828.2627	662.137	11982.3	11141
828.4075	664.2466	11951.25	11108.6
828.5522	666.3556	11965.7	11123.65
828.697	668.4639	11906.5	11062.3
828.8418	670.5716	11931.25	11090
828.9865	672.6786	11944.25	11101.3
829.1313	674.785	11875.6	11032.75
829.2761	676.8907	11862.6	11021.3
829.4209	678.9958	11826.35	10987.05
829.5657	681.1002	11789.95	10947.05
829.7105	683.204	11795.05	10948
829.8553	685.3072	11779	10935.7
830.0001	687.4097	11752.55	10909.35
830.1449	689.5115	11763.5	10916.55
830.2898	691.6127	11740.3	10896.5
830.4346	693.7132	11740.1	10895.75
830.5794	695.8131	11736.1	10868.05
830.7243	697.9123	11735.25	10888.4
830.8691	700.0109	11687.35	10839.9
831.014	702.1089	11701.4	10857.75
831.1588	704.2061	11661.9	10816.7
831.3037	706.3028	11648.05	10797.45
831.4486	708.3987	11651.1	10803.3
831.5935	710.4941	11635.65	10788.25
831.7383	712.5887	11640.55	10790.65
831.8832	714.6827	11654.75	10802.35
832.0281	716.7761	11634.85	10787.6
832.173	718.8688	11635.85	10785.9
832.3179	720.9608	11596.25	10742.4
832.4628	723.0522	11616.7	10762.8
832.6077	725.1429	11583.6	10732.55
832.7527	727.233	11593.5	10746.3
832.8976	729.3224	11590.4	10741.45
833.0425	731.4112	11582.65	10731.55
833.1874	733.4993	11558.05	10704.35
833.3324	735.5867	11522.4	10672
833.4773	737.6735	11476.8	10621.6
833.6222	739.7596	11432.25	10577.7
833.7672	741.845	11407.1	10552.8
833.9122	743.9298	11382.8	10524.9
834.0571	746.014	11362.15	10508.8
834.2021	748.0974	11392.3	10536.05
834.347	750.1802	11350.65	10495.45
834.492	752.2624	11327.95	10472.5
834.637	754.3439	11249.1	10392.35
834.782	756.4247	11254.45	10393.2
834.9269	758.5048	11181.1	10326.85
835.0719	760.5843	11172.6	10315.55
835.2169	762.6631	11161.9	10304.55
835.3619	764.7413	11173.45	10317
835.5069	766.8188	11206.75	10350.6
835.6519	768.8956	11182.5	10323.55
835.7969	770.9718	11190.85	10333.95
835.9419	773.0473	11166	10311.7
836.0869	775.1221	11121.85	10266.35
836.232	777.1962	11107.8	10249.35
836.377	779.2697	11105.75	10246.15
836.522	781.3426	11099.1	10220.2
836.667	783.4147	11058.85	10199.05
836.8121	785.4862	11045.3	10188.35
836.9571	787.557	11006.1	10146.6
837.1021	789.6271	10937.3	10075.35
837.2472	791.6966	10862.25	10003.6
837.3922	793.7654	10785.15	9927.2
837.5373	795.8335	10775.6	9916.45
837.6823	797.901	10711.75	9850.1
837.8274	799.9678	10688.9	9827.3
837.9724	802.0339	10660.6	9800.75
838.1175	804.0993	10604.6	9732.1
838.2626	806.1641	10607.2	9744.5
838.4076	808.2282	10591.55	9728.15
838.5527	810.2916	10551.9	9688.75
838.6978	812.3544	10532.2	9673.05
838.8428	814.4164	10482.65	9625.9
838.9879	816.4778	10491.3	9629.45
839.133	818.5385	10464.9	9600.45
839.2781	820.5986	10488.75	9625.4
839.4232	822.658	10504.45	9640.2
839.5682	824.7166	10460.65	9596.65
839.7133	826.7747	10509	9646.3
839.8584	828.832	10525.7	9663.2
840.0035	830.8886	10504.6	9641.1
840.1486	832.9446	10499.8	9634.5
840.2937	834.9999	10462.15	9602.55
840.4388	837.0545	10447.95	9579.5
840.5839	839.1085	10388.85	9523.2
840.729	841.1618	10338.6	9469.95
840.8741	843.2143	10295.95	9429.95
841.0192	845.2662	10216.35	9352.35
841.1643	847.3175	10221.55	9358.15
841.3095	849.368	10174.7	9308.3
841.4546	851.4179	10144.1	9281.15
841.5997	853.467	10128.45	9264.2
841.7448	855.5155	10082.6	9216
841.8899	857.5633	10063.25	9195.85
842.0351	859.6105	10000.5	9132.75
842.1802	861.6569	9992.55	9125.7
842.3253	863.7027	9989.35	9121.6
842.4704	865.7478	9967.45	9099.45
842.6156	867.7922	9946.55	9080.35
842.7607	869.8359	9913.35	9045.8
842.9058	871.8789	9909.15	9040.45
843.0509	873.9212	9883.05	8980.75
843.1961	875.9629	9839.05	8971.05
843.3412	878.0039	9844.5	8977.65
843.4863	880.0441	9826.15	8957.05
843.6315	882.0837	9833.1	8961.45
843.7766	884.1226	9846.1	8976.45
843.9218	886.1609	9795.05	8929.35
844.0669	888.1984	9810.75	8941.95
844.212	890.2352	9834.25	8964.25
844.3572	892.2714	9796.8	8923.4
844.5023	894.3069	9770.3	8903.25
844.6475	896.3416	9711.05	8840.2
844.7926	898.3757	9678.05	8806.95
844.9377	900.4091	9666.9	8795.9
845.0829	902.4418	9638.4	8764.4
845.228	904.4739	9599.85	8725.65
845.3732	906.5052	9604.9	8732.3
845.5183	908.5358	9552.8	8679.95
845.6635	910.5658	9541.5	8669.05
845.8086	912.595	9515.25	8644.75
845.9538	914.6236	9470.55	8600.55
846.0989	916.6515	9424	8554.7
846.2441	918.6786	9385.4	8514.7
846.3892	920.7051	9361.8	8487.6
846.5344	922.7309	9365.3	8493.85
846.6795	924.756	9306.8	8435.75
846.8246	926.7804	9297.6	8423.35
846.9698	928.8041	9216.2	8343.1
847.1149	930.8272	9233.25	8362.05
847.2601	932.8495	9176.35	8301.05
847.4052	934.8711	9180.95	8307.9
847.5504	936.892	9126.3	8253.75
847.6955	938.9123	9104.25	8231.35
847.8407	940.9318	9101.15	8227.9
847.9858	942.9506	9078.05	8204
848.131	944.9688	9040.95	8167
848.2761	946.9862	8980.2	8104.85
848.4213	949.003	8934.05	8059.6
848.5664	951.019	8906.1	8030.85
848.7115	953.0344	8854.35	7979.15
848.8567	955.0491	8847.4	7971.05
849.0018	957.063	8838	7964.15
849.147	959.0763	8851.9	7970.35
849.2921	961.0888	8805.3	7929.05
849.4373	963.1007	8799.15	7925.6
849.5824	965.1119	8770.15	7896.65
849.7275	967.1223	8747.45	7874.65
849.8727	969.1321	8729.6	7857.95
850.0178	971.1412	8691.9	7817.2
850.1629	973.1495	8654.4	7781.25
850.3081	975.1572	8659.85	7767.35
850.4532	977.1641	8623.8	7750.75
850.5983	979.1704	8604.85	7728.8
850.7435	981.1759	8552.85	7674.1
850.8886	983.1808	8545.6	7669.05
851.0337	985.1849	8540.8	7651.1
851.1788	987.1884	8504.1	7625.3
851.324	989.1911	8488.1	7608.15
851.4691	991.1932	8445.75	7570.1
851.6142	993.1945	8416.3	7540.7
851.7593	995.1951	8360.35	7485.35
851.9045	997.1951	8362.65	7479.4
852.0496	999.1943	8316.95	7441.1
852.1947	1001.1928	8279.1	7400.65
852.3398	1003.1906	8236.55	7360.7
852.4849	1005.1877	8244	7364.9
852.63	1007.1841	8210.6	7334.25
852.7751	1009.1798	8171.95	7294.65
852.9202	1011.1748	8146.6	7271.15
853.0653	1013.1691	8113.15	7231.95
853.2104	1015.1627	8057.95	7182.2
853.3555	1017.1556	8005.75	7125.65
853.5006	1019.1477	7963.75	7086.65
853.6457	1021.1392	7912.15	7036.55
853.7908	1023.1299	7883.75	7004.95
853.9359	1025.12	7847.35	6969.95
854.081	1027.1093	7788.95	6916.75
854.2261	1029.0979	7775.4	6902.15
854.3712	1031.0859	7745	6869.6
854.5163	1033.0731	7739	6861.4
854.6613	1035.0596	7700.35	6824.55
854.8064	1037.0454	7666.9	6789.05
854.9515	1039.0304	7636.85	6758.25
855.0965	1041.0148	7580.9	6702.25
855.2416	1042.9985	7545.05	6662.95
855.3867	1044.9814	7530.85	6652.3
855.5317	1046.9636	7492.65	6611.95
855.6768	1048.9452	7473.05	6597.5
855.8219	1050.926	7444.65	6565.6
855.9669	1052.9061	7425.55	6548.4
856.112	1054.8855	7398.55	6521.2
856.257	1056.8642	7355.8	6477.8
856.4021	1058.8421	7355.35	6471.3
856.5471	1060.8194	7341.9	6462.2
856.6921	1062.7959	7311.1	6431.45
856.8372	1064.7717	7298.3	6418.2
856.9822	1066.7469	7281.8	6399.75
857.1272	1068.7213	7262.9	6380.6
857.2723	1070.695	7226.65	6347.1
857.4173	1072.6679	7209.8	6329.45
857.5623	1074.6402	7179	6299.55
857.7073	1076.6117	7178.2	6293.6
857.8523	1078.5826	7159.3	6280.75
857.9973	1080.5527	7118.2	6236.15
858.1423	1082.5221	7076.55	6197.45
858.2873	1084.4908	7047.9	6166.3
858.4323	1086.4587	7024.6	6143.6
858.5773	1088.426	6996.1	6116.65
858.7223	1090.3925	6983.4	6097.65
858.8673	1092.3584	6976.65	6098.25
859.0123	1094.3235	6921.2	6041.85
859.1573	1096.2879	6889.15	6007.75
859.3022	1098.2515	6893.55	6013.35
859.4472	1100.2145	6897	6017.9
859.5922	1102.1767	6892.75	6011.3
859.7371	1104.1382	6883.7	6002.6
859.8821	1106.099	6873.9	5990.65
860.027	1108.0591	6874.3	5994.5
860.172	1110.0185	6869	5984.75
860.3169	1111.9771	6879.6	5999.1
860.4619	1113.9351	6846.75	5964.55
860.6068	1115.8923	6824.55	5941
860.7517	1117.8488	6803.45	5921.6
860.8967	1119.8045	6783.3	5900.75
861.0416	1121.7596	6713.75	5832.7
861.1865	1123.7139	6672.6	5789.5
861.3314	1125.6675	6616.85	5735.75
861.4763	1127.6204	6633.75	5752.7
861.6212	1129.5726	6599.95	5716.35
861.7661	1131.524	6587.95	5707.15
861.911	1133.4748	6555.3	5672.25
862.0559	1135.4248	6491.25	5607.05
862.2008	1137.3741	6459.55	5577.4
862.3457	1139.3226	6410.25	5526.7
862.4905	1141.2705	6402.25	5519.85
862.6354	1143.2176	6370.15	5480.55
862.7803	1145.164	6392.1	5507.9
862.9251	1147.1097	6356.55	5474.55
863.07	1149.0546	6335.95	5452.05
863.2148	1150.9989	6283.6	5399.65
863.3597	1152.9424	6265.65	5382.2
863.5045	1154.8852	6229.95	5345.85
863.6493	1156.8272	6213	5330.65
863.7942	1158.7686	6224.15	5334.85
863.939	1160.7092	6195.2	5312
864.0838	1162.6491	6167.5	5281.85
864.2286	1164.5883	6140.55	5258.05
864.3734	1166.5267	6144.65	5259.45
864.5182	1168.4644	6144.3	5261.9
864.663	1170.4014	6141.9	5252.3
864.8078	1172.3377	6142.35	5261.7
864.9526	1174.2732	6147.15	5264.45
865.0974	1176.2081	6184.55	5301.1
865.2421	1178.1421	6221.3	5333.3
865.3869	1180.0755	6275.1	5393.05
865.5317	1182.0082	6260.75	5379.05
865.6764	1183.9401	6257.3	5373.3
865.8212	1185.8713	6183.15	5303.65
865.9659	1187.8017	6122.7	5241.7
866.1106	1189.7315	6067.7	5189.1
866.2554	1191.6605	5993.45	5111.55
866.4001	1193.5888	5959.25	5078.2
866.5448	1195.5163	5924.2	5043.6
866.6895	1197.4432	5893.55	5007.15
866.8342	1199.3693	5865.95	4984.45
866.9789	1201.2947	5808.7	4923.2
867.1236	1203.2193	5799.7	4917.7
867.2683	1205.1432	5783.25	4896.35
867.413	1207.0664	5749.85	4867.9
867.5576	1208.9889	5738.65	4851.35
867.7023	1210.9106	5706.1	4823.1
867.847	1212.8316	5663.75	4781.9
867.9916	1214.7519	5686.1	4793
868.1363	1216.6715	5627.35	4744.75
868.2809	1218.5903	5621.75	4740.4
868.4255	1220.5084	5631.9	4750.3
868.5701	1222.4257	5631.1	4748.3
868.7148	1224.3424	5591.25	4708.25
868.8594	1226.2583	5605.3	4717.3
869.004	1228.1735	5608	4723.05
869.1486	1230.0879	5586.85	4703.85
869.2932	1232.0016	5587.85	4703.9
869.4377	1233.9146	5578.35	4692.85
869.5823	1235.8269	5581.75	4699
869.7269	1237.7384	5580.6	4696.05
869.8715	1239.6492	5544.8	4662.55
870.016	1241.5592	5529.8	4643.5
870.1606	1243.4686	5517.85	4637
870.3051	1245.3772	5532.55	4650.85
870.4496	1247.285	5548.85	4663.8
870.5941	1249.1922	5560.35	4676.25
870.7387	1251.0986	5572.6	4689.7
870.8832	1253.0042	5581.9	4697.95
871.0277	1254.9092	5608.35	4723.4
871.1722	1256.8134	5613.05	4731.45
871.3167	1258.7169	5625.1	4741.5
871.4611	1260.6196	5626.3	4742.3
871.6056	1262.5216	5623.35	4739.05
871.7501	1264.4229	5617.5	4736.5
871.8945	1266.3234	5614	4731.65
872.039	1268.2232	5592.05	4706.65
872.1834	1270.1223	5567.4	4682.8
872.3278	1272.0207	5552.55	4669.55
872.4723	1273.9183	5513.8	4623.8
872.6167	1275.8151	5511.1	4627.8
872.7611	1277.7113	5517.65	4633.7
872.9055	1279.6067	5501.55	4618.75
873.0499	1281.5014	5545.95	4660.55
873.1943	1283.3953	5601.55	4712.9
873.3386	1285.2885	5668.9	4783.6
873.483	1287.181	5732.4	4848.5
873.6274	1289.0727	5784.55	4901.6
873.7717	1290.9637	5762.05	4877.85
873.9161	1292.854	5733.9	4850.45
874.0604	1294.7435	5710.95	4825.3
874.2047	1296.6323	5655.8	4770.4
874.349	1298.5204	5629.3	4741.3
874.4933	1300.4077	5569.75	4684.55
874.6376	1302.2943	5528.45	4645.9
874.7819	1304.1802	5501.6	4619.6
874.9262	1306.0653	5452.15	4565.35
875.0705	1307.9497	5408.05	4525.7
875.2147	1309.8333	5367.55	4483.45
875.359	1311.7162	5307.25	4423.2
875.5032	1313.5984	5306.95	4418.6
875.6475	1315.4798	5293.85	4395.35
875.7917	1317.3605	5258.55	4366.5
875.9359	1319.2405	5261.1	4374.35
876.0801	1321.1197	5232.5	4343.05
876.2243	1322.9982	5198.55	4307.85
876.3685	1324.876	5159.05	4272.35
876.5127	1326.753	5103.65	4219.9
876.6569	1328.6293	5048.3	4160.1
876.801	1330.5048	5002.2	4113.3
876.9452	1332.3796	4966.75	4083.65
877.0893	1334.2537	4957.2	4048.3
877.2335	1336.127	4898.05	4008.95
877.3776	1337.9996	4896.4	4010.4
877.5217	1339.8714	4851.6	3966.3
877.6658	1341.7426	4886.3	3958.2
877.8099	1343.6129	4835.95	3948.9
877.954	1345.4826	4826.5	3941.65
878.0981	1347.3515	4793.9	3905.6
878.2422	1349.2196	4796.6	3908.95
878.3862	1351.087	4777.95	3891.85
878.5303	1352.9537	4764.95	3877.85
878.6743	1354.8197	4769.6	3881.7
878.8184	1356.6849	4789.5	3906.4
878.9624	1358.5493	4766.75	3880.5
879.1064	1360.4131	4766.3	3881.4
879.2504	1362.276	4781.1	3894.5
879.3944	1364.1383	4764.45	3878.15
879.5384	1365.9998	4779.75	3889.1
879.6823	1367.8606	4746.45	3857.9
879.8263	1369.7206	4722	3836.3
879.9702	1371.5799	4696.45	3807.45
880.1142	1373.4384	4681.1	3794.6
880.2581	1375.2962	4653.95	3766.55
880.402	1377.1533	4617.25	3732.85
880.5459	1379.0096	4558.3	3671.75
880.6898	1380.8652	4538.15	3652.25
880.8337	1382.7201	4502.85	3618.8
880.9776	1384.5742	4472.15	3585.05
881.1215	1386.4275	4435.9	3550.25
881.2653	1388.2802	4386.25	3500.3
881.4092	1390.132	4394.5	3507.85
881.553	1391.9832	4378.25	3490.2
881.6968	1393.8336	4355.25	3468.05
881.8406	1395.6832	4326.2	3437.1
881.9844	1397.5322	4309	3420.8
882.1282	1399.3803	4310.3	3420.25
882.272	1401.2278	4269.25	3381.8
882.4158	1403.0745	4252.25	3368.6
882.5595	1404.9204	4239.8	3355
882.7033	1406.7656	4236.1	3349.1
882.847	1408.6101	4217.45	3330.9
882.9908	1410.4538	4212.55	3325.35
883.1345	1412.2968	4179.45	3291.65
883.2782	1414.139	4172.65	3285.4
883.4219	1415.9805	4176.85	3290.6
883.5656	1417.8213	4162.5	3257.05
883.7092	1419.6613	4142.9	3257.8
883.8529	1421.5006	4164.5	3277.8
883.9965	1423.3391	4161.85	3275.4
884.1402	1425.1769	4172.25	3287.1
884.2838	1427.0139	4171.25	3285.3
884.4274	1428.8502	4237.95	3352.55
884.571	1430.6858	4254.45	3368.6
884.7146	1432.5206	4272.5	3387
884.8582	1434.3547	4277.3	3392.8
885.0018	1436.188	4247.85	3362
885.1453	1438.0206	4242.2	3355.25
885.2889	1439.8524	4230.5	3344
885.4324	1441.6835	4217.4	3331
885.5759	1443.5139	4194.15	3301.65
885.7194	1445.3435	4179.95	3294
885.8629	1447.1724	4164.55	3279.75
886.0064	1449.0005	4157.3	3272.5
886.1499	1450.8279	4141.3	3255.25
886.2933	1452.6545	4131.5	3245.6
886.4368	1454.4804	4134.35	3248.2
886.5802	1456.3056	4124.9	3230.6
886.7237	1458.13	4111	3225.9
886.8671	1459.9536	4094.8	3207
887.0105	1461.7766	4071.1	3184.55
887.1539	1463.5987	4036.15	3148.6
887.2972	1465.4202	4001.25	3114.9
887.4406	1467.2409	3969.9	3083.55
887.584	1469.0608	3930.35	3045.2
887.7273	1470.88	3914.8	3026.7
887.8706	1472.6984	3888.45	3001.55
888.0139	1474.5161	3879.15	2990.5
888.1572	1476.3331	3849.35	2964.1
888.3005	1478.1493	3821.25	2935.75
888.4438	1479.9648	3828.75	2942
888.5871	1481.7795	3807.9	2923.1
888.7303	1483.5935	3801.5	2915.05
888.8736	1485.4067	3790.15	2904.8
889.0168	1487.2192	3779.65	2892.05
889.16	1489.031	3766.8	2878.7
889.3032	1490.842	3769.2	2886.2
889.4464	1492.6522	3759.15	2873.7
889.5896	1494.4618	3756.05	2868.05
889.7327	1496.2705	3728.05	2843.3
889.8759	1498.0785	3733.3	2846.55
890.019	1499.8858	3718.4	2830.95
890.1622	1501.6924	3706.05	2818.05
890.3053	1503.4981	3695.15	2811.2
890.4484	1505.3032	3682.9	2797.25
890.5914	1507.1075	3685.8	2799.6
890.7345	1508.911	3661.3	2774.8
890.8776	1510.7138	3646.9	2760.4
891.0206	1512.5159	3632.4	2744.55
891.1637	1514.3172	3604.75	2721.15
891.3067	1516.1178	3598.1	2713.2
891.4497	1517.9176	3575.7	2687.3
891.5927	1519.7166	3574.45	2687.45
891.7357	1521.515	3564.45	2669.35
891.8786	1523.3126	3547.95	2661.35
892.0216	1525.1094	3534.05	2645.8
892.1645	1526.9055	3509.5	2624.7
892.3074	1528.7008	3512.35	2628
892.4503	1530.4954	3500.6	2613.8
892.5932	1532.2893	3479.75	2594.7
892.7361	1534.0824	3467.85	2577.65
892.879	1535.8747	3466.55	2581.85
893.0218	1537.6663	3441.35	2553.9
893.1647	1539.4572	3414.3	2528.6
893.3075	1541.2473	3421.4	2536.15
893.4503	1543.0367	3400.45	2517.05
893.5931	1544.8253	3405.1	2515.05
893.7359	1546.6132	3404.6	2516.45
893.8787	1548.4003	3383.25	2487.05
894.0214	1550.1867	3379.35	2484.35
894.1642	1551.9723	3385.6	2495.1
894.3069	1553.7572	3380.15	2492.85
894.4496	1555.5414	3360.9	2476.2
894.5923	1557.3247	3363.8	2477.45
894.735	1559.1074	3361	2479
894.8777	1560.8893	3372.05	2489.2
895.0204	1562.6705	3375.85	2489.35
895.163	1564.4509	3388.8	2504.55
895.3056	1566.2305	3390.65	2506.3
895.4482	1568.0094	3389.45	2507.5
895.5908	1569.7876	3393.7	2510.2
895.7334	1571.565	3376.45	2491.5
895.876	1573.3417	3362.7	2480.6
896.0186	1575.1176	3358.85	2472.65
896.1611	1576.8928	3345.5	2462.55
896.3036	1578.6672	3335.4	2452.9
896.4461	1580.4409	3343.05	2461.85
896.5886	1582.2138	3341.6	2457
896.7311	1583.986	3356.65	2469.1
896.8736	1585.7575	3354.6	2471
897.0161	1587.5282	3361.3	2478.15
897.1585	1589.2981	3374.4	2492.65
897.3009	1591.0673	3373.65	2488.55
897.4433	1592.8358	3366.8	2481.6
897.5857	1594.6035	3358	2473.8
897.7281	1596.3704	3338.55	2454.6
897.8705	1598.1366	3320	2436.05
898.0128	1599.9021	3317.9	2431.55
898.1551	1601.6668	3291.4	2404.85
898.2975	1603.4308	3295.5	2409.65
898.4398	1605.194	3282.35	2393.8
898.5821	1606.9564	3284.95	2402
898.7243	1608.7182	3327.4	2441.05
898.8666	1610.4791	3339.55	2457.15
899.0088	1612.2394	3355.75	2474.4
899.1511	1613.9988	3397.8	2516.4
899.2933	1615.7576	3435.85	2552.6
899.4355	1617.5156	3460.6	2570
899.5776	1619.2728	3430.05	2546.3
899.7198	1621.0293	3390.1	2507.5
899.862	1622.785	3348.85	2463.7
900.0041	1624.54	3286.2	2402.65
900.1462	1626.2942	3235.45	2351.4
900.2883	1628.0477	3168.2	2283.2
900.4304	1629.8005	3131.2	2242.45
900.5725	1631.5525	3077.4	2194.75
900.7145	1633.3037	3040.05	2156.95
900.8566	1635.0542	3013.45	2130.85
900.9986	1636.804	2990	2107.75
901.1406	1638.553	3019.25	2062.5
901.2826	1640.3013	2952.4	2069.4
901.4245	1642.0488	2932.2	2046.6
901.5665	1643.7955	2918.2	2036.25
901.7085	1645.5416	2898.3	2016.05
901.8504	1647.2868	2891.75	2009.55
901.9923	1649.0313	2881.7	1998.85
902.1342	1650.7751	2873.1	1984.8
902.2761	1652.5181	2872.05	1990.6
902.4179	1654.2604	2865.7	1980
902.5598	1656.0019	2861.1	1980.75
902.7016	1657.7427	2869.3	1988.8
902.8434	1659.4828	2875	1991.75
902.9852	1661.222	2889.85	2005.15
903.127	1662.9606	2889.35	2007.05
903.2687	1664.6984	2888	2004.3
903.4105	1666.4354	2878.35	1996.25
903.5522	1668.1717	2838.05	1952.9
903.6939	1669.9072	2798.4	1917.7
903.8356	1671.642	2778.8	1894.7
903.9773	1673.3761	2744.45	1862.4
904.119	1675.1094	2715.95	1833.1
904.2606	1676.8419	2691.2	1808.35
904.4022	1678.5737	2682.3	1799.55
904.5439	1680.3048	2661.6	1779.85
904.6855	1682.0351	2642.2	1758.35
904.827	1683.7646	2636.45	1750.8
904.9686	1685.4934	2612.25	1730.55
905.1101	1687.2215	2605.6	1723.65
905.2517	1688.9488	2591.9	1710.75
905.3932	1690.6754	2574.75	1691.45
905.5347	1692.4012	2571.55	1690.2
905.6761	1694.1263	2555.05	1673.1
905.8176	1695.8506	2551.35	1668.5
905.9591	1697.5742	2544.6	1663
906.1005	1699.297	2535.4	1653.9
906.2419	1701.0191	2520.75	1637.75
906.3833	1702.7404	2515.05	1632.2
906.5246	1704.461	2510.15	1626.15
906.666	1706.1808	2502	1617.2
906.8073	1707.8999	2489	1605.3
906.9487	1709.6182	2486.2	1604.85
907.09	1711.3358	2487.2	1605.45
907.2313	1713.0527	2477.25	1596.4
907.3725	1714.7688	2464.45	1576
907.5138	1716.4841	2462.05	1575.6
907.655	1718.1987	2466.55	1577.9
907.7962	1719.9126	2443.65	1563.65
907.9374	1721.6257	2435.8	1550.75
908.0786	1723.338	2438.65	1556.55
908.2198	1725.0496	2426.65	1542
908.3609	1726.7605	2420.7	1537.7
908.502	1728.4706	2427.6	1543.9
908.6431	1730.18	2414.2	1531.05
908.7842	1731.8886	2412.25	1528.75
908.9253	1733.5964	2412.65	1525.45
909.0664	1735.3036	2400.65	1515.75
909.2074	1737.0099	2396.85	1512.85
909.3484	1738.7156	2388.4	1507.6
909.4894	1740.4204	2383.85	1498.45
909.6304	1742.1246	2382.65	1499.1
909.7714	1743.8279	2378.2	1496.4
909.9123	1745.5306	2375.4	1493.95
910.0532	1747.2325	2367.95	1487
910.1941	1748.9336	2359.35	1478
910.335	1750.634	2364.4	1481.05
910.4759	1752.3336	2358.8	1476.95
910.6168	1754.0325	2358.8	1476.75
910.7576	1755.7307	2345.55	1464.05
910.8984	1757.4281	2351.5	1468.3
911.0392	1759.1247	2360.6	1471.15
911.18	1760.8206	2341.15	1455.35
911.3208	1762.5158	2346.15	1460.9
911.4615	1764.2102	2329	1447.65
911.6022	1765.9039	2327.05	1445.6
911.7429	1767.5968	2326.9	1446.35
911.8836	1769.289	2317.35	1436.1
912.0243	1770.9804	2303.75	1421.3
912.1649	1772.6711	2304.45	1422.2
912.3056	1774.361	2303.85	1420.25
912.4462	1776.0502	2307.65	1424.9
912.5868	1777.7386	2300.35	1414.45
912.7274	1779.4263	2293.1	1409.1
912.8679	1781.1132	2292.65	1410.3
913.0084	1782.7994	2292.6	1409.7
913.149	1784.4849	2275.25	1391.6
913.2895	1786.1696	2274.15	1382.85
913.4299	1787.8535	2273.65	1390.05
913.5704	1789.5367	2268.15	1384.1
913.7108	1791.2192	2257.75	1374.95
913.8513	1792.9009	2275.8	1367.7
913.9917	1794.5818	2264.6	1381.05
914.132	1796.2621	2256.2	1374.4
914.2724	1797.9415	2245.35	1361.05
914.4128	1799.6202	2243.7	1362.25
914.5531	1801.2982	2239.8	1356.5
914.6934	1802.9755	2235.6	1351.2
914.8337	1804.6519	2241.85	1357.65
914.9739	1806.3277	2222.65	1341.45
915.1142	1808.0027	2216.7	1336.3
915.2544	1809.6769	2217.45	1333.2
915.3946	1811.3504	2206.3	1322.5
915.5348	1813.0231	2209.85	1326
915.675	1814.6951	2202.6	1319.35
915.8151	1816.3664	2198.75	1313.2
915.9553	1818.0369	2204.85	1323.45
916.0954	1819.7067	2196.95	1314.75
916.2355	1821.3757	2190.2	1306.3
916.3755	1823.044	2196.25	1313.85
916.5156	1824.7115	2183.65	1300.95
916.6556	1826.3783	2170.85	1290.45
916.7956	1828.0443	2175.7	1294.35
916.9356	1829.7096	2174.5	1291.25
917.0756	1831.3741	2182.7	1297.5
917.2155	1833.0379	2157.25	1275.95
917.3555	1834.701	2164.15	1280.15
917.4954	1836.3633	2149.25	1266.4
917.6353	1838.0248	2155.3	1271.2
917.7751	1839.6856	2149.6	1267.8
917.915	1841.3457	2149.05	1267.4
918.0548	1843.005	2145.4	1263.65
918.1946	1844.6636	2134.15	1253.7
918.3344	1846.3214	2131.3	1248.6
918.4742	1847.9785	2132.55	1250.6
918.6139	1849.6349	2127.95	1241.5
918.7537	1851.2904	2131.6	1243.25
918.8934	1852.9453	2119.4	1235.5
919.0331	1854.5994	2125.55	1240.75
919.1727	1856.2528	2114.95	1227.9
919.3124	1857.9054	2112.4	1229.95
919.452	1859.5572	2112.5	1228.95
919.5916	1861.2083	2096.15	1212.95
919.7312	1862.8587	2107.55	1225.35
919.8708	1864.5084	2092.4	1208.75
920.0103	1866.1572	2087.5	1206.1
920.1498	1867.8054	2084.75	1203.25
920.2893	1869.4528	2081.1	1198.55
920.4288	1871.0994	2085.55	1203.45
920.5683	1872.7453	2081.65	1199.15
920.7077	1874.3905	2081.55	1192.75
920.8471	1876.0349	2064.5	1182.65
920.9865	1877.6786	2058.8	1175.3
921.1259	1879.3215	2067.4	1184.55
921.2653	1880.9637	2069.8	1186.1
921.4046	1882.6051	2048.1	1165.35
921.5439	1884.2458	2058.2	1174.15
921.6832	1885.8858	2047.2	1164.55
921.8225	1887.525	2054.35	1170.85
921.9617	1889.1634	2040.65	1159.5
922.101	1890.8011	2032.25	1151.55
922.2402	1892.4381	2025.55	1143.7
922.3794	1894.0743	2031	1146.9
922.5185	1895.7098	2020.45	1139.5
922.6577	1897.3446	2022.8	1139.5
922.7968	1898.9786	2013.15	1124.8
922.9359	1900.6118	2019.4	1139.05
923.075	1902.2443	2008.65	1123.05
923.214	1903.8761	2001.25	1119.65
923.3531	1905.5071	2006.6	1125.05
923.4921	1907.1374	2003.45	1120.35
923.6311	1908.7669	1991.1	1107.6
923.77	1910.3957	1987.4	1105.85
923.909	1912.0237	1978.35	1096.85
924.0479	1913.651	1984.7	1103.6
924.1868	1915.2776	1975.8	1095.1
924.3257	1916.9034	1973.7	1093.7
924.4646	1918.5285	1968.85	1087.35
924.6034	1920.1528	1965.85	1082.5
924.7422	1921.7764	1963.05	1081.7
924.881	1923.3992	1951.8	1070.45
925.0198	1925.0213	1944.85	1062.8
925.1586	1926.6427	1940.45	1060.45
925.2973	1928.2633	2013.3	1058.55
925.436	1929.8832	1946.55	1064.95
925.5747	1931.5023	1936.1	1053.95
925.7134	1933.1207	1929.55	1046.75
925.852	1934.7383	1932.4	1049.5
925.9906	1936.3552	1921.95	1039.4
926.1292	1937.9714	1915.9	1035.6
926.2678	1939.5868	1918.5	1035.3
926.4064	1941.2015	1917.4	1036.9
926.5449	1942.8154	1924.45	1041.35
926.6834	1944.4286	1911.2	1029.5
926.8219	1946.041	1923.15	1015.55
926.9604	1947.6528	1901.5	1015.5
927.0988	1949.2637	1898.1	1016.45
927.2372	1950.8739	1899.2	1016.4
927.3756	1952.4834	1894.05	1009.35
927.514	1954.0921	1890.2	1007.8
927.6523	1955.7001	1891.55	1004.9
927.7907	1957.3074	1887.05	1005.1
927.929	1958.9139	1876.05	993.5
928.0673	1960.5197	1870.7	986.45
928.2055	1962.1247	1876.9	996.25
928.3438	1963.729	1866	985.65
928.482	1965.3325	1884.6	978.7
928.6202	1966.9353	1855.85	975.45
928.7584	1968.5374	1859.25	975.95
928.8965	1970.1387	1860.75	978.75
929.0346	1971.7393	1850.35	966.85
929.1727	1973.3392	1853.55	969.55
929.3108	1974.9383	1840.4	958.6
929.4489	1976.5366	1841.05	959.55
929.5869	1978.1342	1844	958.85
929.7249	1979.7311	1841.35	958.8
929.8629	1981.3273	1837.2	954
930.0009	1982.9227	1830.95	946.7
930.1388	1984.5173	1826.8	944.9
930.2767	1986.1112	1817.85	935.35
930.4146	1987.7044	1824.9	943.65
930.5525	1989.2968	1818.4	933.5
930.6904	1990.8885	1825.75	940.65
930.8282	1992.4795	1821.15	939.05
930.966	1994.0697	1813.85	932.75
931.1038	1995.6592	1812.25	929.65
931.2415	1997.2479	1813.75	929.5
931.3793	1998.8359	1799.9	919.05
931.517	2000.4232	1805.85	925.25
931.6547	2002.0097	1792.15	910.5
931.7923	2003.5955	1797.45	914.6
931.93	2005.1805	1797.55	913.2
932.0676	2006.7648	1790.2	909.7
932.2052	2008.3484	1797.4	913.3
932.3427	2009.9312	1792.6	909.5
932.4803	2011.5133	1790.85	909.1
932.6178	2013.0946	1779.45	897.1
932.7553	2014.6752	1783	902.95
932.8928	2016.2551	1775.5	892.3
933.0302	2017.8342	1777.55	894.95
933.1676	2019.4126	1771.55	891.7
933.305	2020.9902	1767.55	884.9
933.4424	2022.5672	1761.4	878.8
933.5798	2024.1433	1773.05	883.9
933.7171	2025.7188	1761.75	881.55
933.8544	2027.2935	1772.15	888.9
933.9917	2028.8674	1757.25	875.25
934.129	2030.4406	1754.15	873.8
934.2662	2032.0131	1745.75	864.75
934.4034	2033.5849	1748.15	861
934.5406	2035.1559	1738.15	857.35
934.6778	2036.7261	1742.65	861.25
934.8149	2038.2957	1754.25	872.6
934.952	2039.8645	1751.65	870.75
935.0891	2041.4325	1745.75	860.05
935.2262	2042.9998	1736	856.75
935.3632	2044.5664	1736.8	850.85
935.5002	2046.1323	1730.3	848.55
935.6372	2047.6974	1738.15	857.85
935.7742	2049.2617	1731.15	850.4
935.9111	2050.8254	1740.2	854.95
936.048	2052.3883	1733.25	851.95
936.1849	2053.9504	1724.75	842.95
936.3218	2055.5118	1721.45	839.05
936.4586	2057.0725	1723.9	838.5
936.5955	2058.6325	1710.95	827.25
936.7323	2060.1917	1705.55	823.05
936.869	2061.7502	1725.85	841.15
937.0058	2063.3079	1717.25	837.25
937.1425	2064.8649	1712.8	829.4
937.2792	2066.4212	1711.55	829.7
937.4159	2067.9767	1709.15	827.1
937.5525	2069.5315	1709.5	827.2
937.6891	2071.0856	1697.65	817.3
937.8257	2072.6389	1691.15	809.3
937.9623	2074.1915	1693.9	814.3
938.0989	2075.7433	1691.5	806.9
938.2354	2077.2945	1692.35	813
938.3719	2078.8448	1683.05	802.5
938.5084	2080.3945	1683.8	801.8
938.6448	2081.9434	1688.7	810.1
938.7812	2083.4916	1682.25	799.7
938.9176	2085.039	1682.7	799.35
939.054	2086.5857	1676.35	792.4
939.1903	2088.1317	1681.05	798.6
939.3267	2089.677	1683.45	799.25
939.463	2091.2215	1671.15	788.5
939.5992	2092.7652	1667.7	782.55
939.7355	2094.3083	1664.55	782.75
939.8717	2095.8506	1667.05	784.25
940.0079	2097.3921	1668	786.85
940.1441	2098.933	1666.2	786.9
940.2802	2100.4731	1662.8	782.05
940.4163	2102.0124	1664.1	775.2
940.5524	2103.5511	1661.7	780.3
940.6885	2105.089	1661.65	778.3
940.8245	2106.6261	1667.15	784.35
940.9606	2108.1626	1656.7	771.55
941.0965	2109.6983	1677.2	765.6
941.2325	2111.2332	1656.05	770.6
941.3684	2112.7675	1649	767.5
941.5044	2114.301	1655.4	772.8
941.6403	2115.8337	1651.6	771.15
941.7761	2117.3657	1650.7	770.6
941.912	2118.897	1644.75	762.55
942.0478	2120.4276	1648.35	761.4
942.1835	2121.9575	1644.45	761.75
942.3193	2123.4866	1655	758.2
942.455	2125.0149	1640.35	756.25
942.5907	2126.5426	1627.15	746.65
942.7264	2128.0695	1642.95	756.35
942.8621	2129.5956	1628.95	749.6
942.9977	2131.1211	1624.75	737.1
943.1333	2132.6458	1625.05	743.35
943.2689	2134.1698	1627.8	745.85
943.4044	2135.693	1626.1	741.7
943.54	2137.2155	1627.55	742.9
943.6755	2138.7373	1627.1	742.65
943.8109	2140.2584	1619.25	737.4
943.9464	2141.7787	1619.65	733.1
944.0818	2143.2983	1613.55	731.65
944.2172	2144.8171	1610.25	730.6
944.3526	2146.3353	1612.85	727.85
944.4879	2147.8527	1606.4	725.1
944.6232	2149.3693	1605.8	722.55
944.7585	2150.8853	1602.25	718.55
944.8938	2152.4005	1597.25	715.6
945.029	2153.9149	1597.75	714.25
945.1642	2155.4287	1701.6	712.95
945.2994	2156.9417	1605.65	719.75
945.4346	2158.454	1599.85	712.4
945.5697	2159.9655	1591.1	709.7
945.7048	2161.4764	1588.6	705.45
945.8399	2162.9865	1578.55	697.4
945.9749	2164.4958	1575.25	691.25
946.1099	2166.0045	1581.15	695.45
946.2449	2167.5124	1581.4	699.05
946.3799	2169.0195	1574.05	692.95
946.5148	2170.526	1583.35	699.55
946.6498	2172.0317	1582.55	702.55
946.7846	2173.5367	1573.85	691
946.9195	2175.0409	1572.55	690.7
947.0543	2176.5445	1580.7	698.55
947.1891	2178.0473	1573.55	690.75
947.3239	2179.5494	1573.65	686.1
947.4587	2181.0507	1561.65	677.3
947.5934	2182.5513	1566.1	685.3
947.7281	2184.0512	1558.75	678.1
947.8628	2185.5504	1564.7	681.45
947.9974	2187.0488	1554.6	672.65
948.132	2188.5465	1554.75	671.1
948.2666	2190.0435	1559.6	677.65
948.4012	2191.5397	1544.3	661.25
948.5357	2193.0353	1541.75	659.05
948.6702	2194.5301	1546.75	662.75
948.8047	2196.0241	1541.45	658.75
948.9392	2197.5175	1532.9	650.95
949.0736	2199.0101	1547.15	660.3
949.208	2200.502	1530.45	648.8
949.3424	2201.9931	1527.7	646.2
949.4767	2203.4835	1534.15	650.05
949.611	2204.9733	1544.5	644.05
949.7453	2206.4622	1528.55	646
949.8796	2207.9505	1527.45	641.6
950.0138	2209.438	1523.7	643.55
950.148	2210.9248	1512	628.95
950.2822	2212.4109	1515.1	631.3
950.4164	2213.8962	1514.95	628.7
950.5505	2215.3809	1513.6	630.45
950.6846	2216.8648	1515.9	632.7
950.8186	2218.3479	1524.9	639.7
950.9527	2219.8304	1511.7	626.3
951.0867	2221.3121	1510.5	625.05
951.2207	2222.7931	1500.5	617.6
951.3546	2224.2733	1500.45	616.8
951.4886	2225.7529	1502.6	619.8
951.6225	2227.2317	1497.8	611.1
951.7563	2228.7098	1493	611.45
951.8902	2230.1872	1489.8	606.8
952.024	2231.6638	1484.7	601.5
952.1578	2233.1397	1492.75	606
952.2916	2234.6149	1482.1	600
952.4253	2236.0894	1484.9	602.4
952.559	2237.5632	1476.4	592.5
952.6927	2239.0362	1477.2	594.7
952.8263	2240.5085	1479.9	597.05
952.9599	2241.9801	1475.7	592.8
953.0935	2243.4509	1473.95	591.35
953.2271	2244.921	1464.25	582.05
953.3606	2246.3904	1467.75	583.7
953.4941	2247.8591	1464.3	582.05
953.6276	2249.3271	1463.35	581.85
953.7611	2250.7943	1459.3	575.25
953.8945	2252.2608	1463.65	581.25
954.0279	2253.7266	1454.1	573.2
954.1612	2255.1917	1467.15	585.4
954.2946	2256.656	1459.25	575.1
954.4279	2258.1197	1458.85	578.2
954.5612	2259.5826	1457.45	573.1
954.6944	2261.0447	1448.85	566.95
954.8276	2262.5062	1450.3	566.4
954.9608	2263.9669	1445.85	561.35
955.094	2265.4269	1445.8	563
955.2271	2266.8862	1443.35	562.95
955.3602	2268.3448	1450.5	566.75
955.4933	2269.8026	1438.1	555.75
955.6264	2271.2598	1445.2	560.1
955.7594	2272.7162	1435.15	554.2
955.8924	2274.1719	1434.2	550.9
956.0253	2275.6268	1435.7	552.6
956.1583	2277.0811	1430.9	547.45
956.2912	2278.5346	1428.2	545.4
956.4241	2279.9874	1435	550.45
956.5569	2281.4395	1428.95	549.15
956.6897	2282.8908	1422.05	534.6
956.8225	2284.3414	1423.9	540.55
956.9553	2285.7914	1426.3	545.45
957.088	2287.2406	1427.95	542.3
957.2207	2288.689	1419.5	536.45
957.3534	2290.1368	1423.95	538
957.486	2291.5838	1415	529.25
957.6186	2293.0302	1420.95	536
957.7512	2294.4758	1409.45	526.55
957.8838	2295.9206	1413	528.65
958.0163	2297.3648	1401.6	517.15
958.1488	2298.8082	1406.7	522.75
958.2813	2300.251	1406.6	525.4
958.4137	2301.693	1402.6	516.95
958.5461	2303.1343	1406.15	522.15
958.6785	2304.5748	1401.35	517.25
958.8108	2306.0147	1398.35	515.8
958.9432	2307.4538	1403.45	517.75
959.0754	2308.8922	1402.65	521.35
959.2077	2310.3299	1390.85	510.4
959.3399	2311.7669	1385.05	501
959.4721	2313.2031	1387.2	504.6
959.6043	2314.6387	1392.3	509.3
959.7365	2316.0735	1385.95	503
959.8686	2317.5076	1384.8	503.05
960.0006	2318.941	1385.8	502.2
960.1327	2320.3737	1378	495.15
960.2647	2321.8056	1382.45	498.55
960.3967	2323.2369	1374.95	491.75
960.5287	2324.6674	1377.1	492.3
960.6606	2326.0972	1375.05	490.2
960.7925	2327.5263	1380.1	498.35
960.9244	2328.9547	1378.85	495.55
961.0562	2330.3823	1372.15	488.85
961.1881	2331.8092	1369.9	485.45
961.3198	2333.2355	1361	477.35
961.4516	2334.661	1371.3	485.05
961.5833	2336.0858	1359.15	474.05
961.715	2337.5098	1363.3	479.9
961.8467	2338.9332	1359.8	478.15
961.9783	2340.3558	1355.55	468.9
962.1099	2341.7778	1354.55	472.7
962.2415	2343.199	1360.1	475.25
962.373	2344.6195	1348.85	466.6
962.5045	2346.0393	1343.8	461.75
962.636	2347.4583	1350.5	465.05
962.7675	2348.8767	1346.5	462.5
962.8989	2350.2943	1349.65	467.15
963.0303	2351.7113	1346.85	460.95
963.1617	2353.1275	1339.55	455.8
963.293	2354.543	1357.05	447.2
963.4243	2355.9578	1331.45	448.15
963.5556	2357.3718	1324.1	443.1
963.6868	2358.7852	1325.15	437.05
963.818	2360.1978	1329.65	445.1
963.9492	2361.6098	1318.6	436.45
964.0803	2363.021	1327.1	436.95
964.2114	2364.4315	1318.55	436.35
964.3425	2365.8413	1325.95	435.1
964.4736	2367.2504	1316	433.65
964.6046	2368.6587	1309.25	425.9
964.7356	2370.0664	1310.6	428
964.8666	2371.4733	1309.7	426.6
964.9975	2372.8795	1304.8	421.65
965.1284	2374.285	1299.4	415
965.2593	2375.6899	1296.25	413.9
965.3901	2377.0939	1296.1	412.9
965.5209	2378.4973	1291.55	408.5
965.6517	2379.9	1288.5	403.5
965.7825	2381.3019	1284.65	401.7
965.9132	2382.7032	1286.5	405.55
966.0439	2384.1037	1278.2	394.8
966.1745	2385.5035	1282.75	403.15
966.3051	2386.9027	1278.4	395.65
966.4357	2388.3011	1283.6	398.1
966.5663	2389.6987	1284.3	403
966.6968	2391.0957	1274.45	389.35
966.8273	2392.492	1268.35	386
966.9578	2393.8876	1267.4	384.35
967.0882	2395.2824	1264.55	382
967.2186	2396.6765	1259.7	378.5
967.349	2398.07	1260.65	376.1
967.4793	2399.4627	1264.65	380.4
967.6097	2400.8547	1260.9	377.2
967.7399	2402.246	1265.5	376.35
967.8702	2403.6366	1250	367.55
968.0004	2405.0265	1248.45	364.95
968.1306	2406.4156	1253.6	366.5
968.2607	2407.8041	1256.95	371.05
968.3909	2409.1918	1248.3	361.1
968.521	2410.5789	1245.4	362.55
968.651	2411.9652	1248.95	362.75
968.781	2413.3508	1240.45	356.85
968.911	2414.7358	1239.7	355.6
969.041	2416.12	1237.55	354.65
969.1709	2417.5035	1236.7	354.95
969.3008	2418.8863	1242.75	358.55
969.4307	2420.2684	1236.65	356.25
969.5606	2421.6497	1228.45	343.8
969.6904	2423.0304	1226.15	342.1
969.8201	2424.4104	1228.05	345.85
969.9499	2425.7896	1235.35	349.1
970.0796	2427.1682	1230.65	348.5
970.2093	2428.546	1226.85	343.4
970.3389	2429.9232	1224.75	338.9
970.4685	2431.2996	1224.4	341.15
970.5981	2432.6753	1217.35	334.6
970.7277	2434.0503	1224.1	339.8
970.8572	2435.4246	1224.7	343.4
970.9867	2436.7982	1226.15	339.6
971.1161	2438.1711	1222.35	340.6
971.2456	2439.5433	1229.05	344.45
971.375	2440.9148	1225.75	338
971.5043	2442.2856	1216.05	333.05
971.6336	2443.6557	1224.7	340.7
971.7629	2445.025	1215.85	332.9
971.8922	2446.3937	1213.7	329.35
972.0214	2447.7617	1212.7	329
972.1506	2449.1289	1211.4	328
972.2798	2450.4955	1213.05	325.45
972.4089	2451.8613	1214.35	331.45
972.538	2453.2265	1213.85	329.85
972.6671	2454.5909	1207.35	324.2
972.7961	2455.9546	1205.5	321.2
972.9251	2457.3177	1205.95	323
973.0541	2458.68	1205.65	321
973.1831	2460.0416	1209.75	326.65
973.312	2461.4025	1209.85	323.7
973.4408	2462.7627	1217.35	322
973.5697	2464.1222	1201.65	319.1
973.6985	2465.4811	1201.95	317.8
973.8273	2466.8392	1205.6	321.95
973.956	2468.1966	1205.25	319.95
974.0847	2469.5533	1200.2	314.6
974.2134	2470.9093	1201.85	319.2
974.3421	2472.2645	1191.7	308.5
974.4707	2473.6191	1197.9	314.55
974.5993	2474.973	1199.05	315.9
974.7278	2476.3262	1195.7	310.55
974.8563	2477.6787	1192.9	310.8
974.9848	2479.0305	1193.15	309.1
975.1132	2480.3816	1190.2	305.1
975.2417	2481.7319	1191.55	310
975.37	2483.0816	1194.6	310.6
975.4984	2484.4306	1192.3	310.65
975.6267	2485.7789	1182.65	301.3
975.755	2487.1264	1183.85	299.4
975.8833	2488.4733	1182.8	301.4
976.0115	2489.8195	1203.9	302.25
976.1397	2491.165	1188.75	300.55
976.2678	2492.5097	1185.7	301.5
976.3959	2493.8538	1177.35	294.1
976.524	2495.1972	1178.95	296.45
976.6521	2496.5398	1175.2	291.3
976.7801	2497.8818	1179.9	294.1
976.9081	2499.2231	1173.9	291.3
977.036	2500.5637	1177.2	292.9
977.164	2501.9035	1172	287.7
977.2918	2503.2427	1171.5	284.2
977.4197	2504.5812	1165.4	282.35
977.5475	2505.919	1175.75	288.45
977.6753	2507.256	1162.5	278.3
977.8031	2508.5924	1169.95	286.35
977.9308	2509.9281	1175	285.15
978.0585	2511.2631	1165.7	282.8
978.1861	2512.5974	1161.85	277.35
978.3137	2513.9309	1169.8	286.6
978.4413	2515.2638	1189.75	276.45
978.5689	2516.596	1168.7	287.2
978.6964	2517.9275	1156.85	272.95
978.8239	2519.2583	1159.75	274.8
978.9513	2520.5884	1155.7	271.3
979.0788	2521.9178	1155.9	272.55
979.2062	2523.2465	1155.2	273.15
979.3335	2524.5745	1152.75	271.2
979.4608	2525.9018	1150.2	266.3
979.5881	2527.2284	1150.25	268.8
979.7154	2528.5543	1148.4	266.75
979.8426	2529.8796	1149	265.95
979.9698	2531.2041	1151.65	268.85
980.0969	2532.5279	1142.1	261.7
980.224	2533.851	1156.6	273.75
980.3511	2535.1735	1147.3	263.7
980.4781	2536.4952	1148.9	265.05
980.6052	2537.8163	1144.9	261.3
980.7321	2539.1366	1144.35	262.1
980.8591	2540.4562	1146.8	261.6
980.986	2541.7752	1142.75	259.3
981.1129	2543.0935	1144.2	261.3
981.2397	2544.411	1140.1	254.5
981.3665	2545.7279	1141.75	259.35
981.4933	2547.0441	1137.4	254.2
981.62	2548.3596	1142.2	254.65
981.7467	2549.6744	1139.65	257.35
981.8734	2550.9885	1140.45	256.15
982.0001	2552.3019	1133.75	250.9
982.1267	2553.6146	1139.55	255.55
982.2532	2554.9266	1139.9	256.15
982.3798	2556.2379	1135.25	248.45
982.5063	2557.5485	1134.85	253.75
982.6327	2558.8585	1136.05	244.25
982.7592	2560.1677	1141.55	253.4
982.8856	2561.4762	1128.55	246.55
983.0119	2562.7841	1131.9	243.85
983.1383	2564.0913	1133.05	252.1
983.2646	2565.3977	1127.25	243.1
983.3908	2566.7035	1130	246.45
983.517	2568.0086	1133.5	249.9
983.6432	2569.313	1125.85	243.2
983.7694	2570.6167	1130.15	242.55
983.8955	2571.9197	1125	241.5
984.0216	2573.222	1128.95	242.55
984.1476	2574.5236	1126.6	242.45
984.2737	2575.8246	1128.1	242.9
984.3996	2577.1248	1124	239.6
984.5256	2578.4244	1124.35	242.15
984.6515	2579.7232	1123.55	240.05
984.7774	2581.0214	1153.2	236.6
984.9032	2582.3189	1119.8	237.15
985.029	2583.6157	1134.4	236.2
985.1548	2584.9118	1121.5	238.15
985.2806	2586.2072	1117.55	235.2
985.4063	2587.5019	1116.3	234.55
985.5319	2588.7959	1117.5	234.45
985.6576	2590.0893	1115.55	230.3
985.7832	2591.3819	1113.55	231.6
985.9087	2592.6739	1112.45	230.1
986.0343	2593.9652	1116.1	230.35
986.1597	2595.2557	1112.6	228.45
986.2852	2596.5456	1115.55	233.2
986.4106	2597.8348	1109.35	224.8
986.536	2599.1234	1104.3	221.85
986.6614	2600.4112	1110.45	227.45
986.7867	2601.6983	1116.25	229.15
986.912	2602.9848	1102.6	219
987.0372	2604.2705	1114.5	222.9
987.1624	2605.5556	1108.95	224.8
987.2876	2606.84	1101.15	218.25
987.4128	2608.1237	1104.45	221.6
987.5379	2609.4067	1102.95	218.9
987.6629	2610.689	1106.6	216.1
987.788	2611.9707	1105.7	218.45
987.913	2613.2516	1106.4	219.55
988.0379	2614.5319	1098.35	213.8
988.1629	2615.8115	1097.7	212.3
988.2878	2617.0903	1100	214.4
988.4126	2618.3685	1095.65	210.2
988.5375	2619.6461	1092.8	210.45
988.6622	2620.9229	1090.65	209.2
988.787	2622.199	1095.3	212.05
988.9117	2623.4745	1089.9	206.55
989.0364	2624.7493	1088.8	204.55
989.161	2626.0234	1091.1	210.7
989.2857	2627.2968	1085.85	202.65
989.4102	2628.5695	1086.8	203.35
989.5348	2629.8415	1086.45	204.6
989.6593	2631.1128	1087.25	203.05
989.7837	2632.3835	1083.85	199.85
989.9082	2633.6535	1081.5	197
990.0326	2634.9228	1080.95	198.2
990.1569	2636.1914	1079.55	196.5
990.2812	2637.4593	1083	200.55
990.4055	2638.7265	1079.4	195.7
990.5298	2639.9931	1079.15	195.1
990.654	2641.259	1082.3	200.5
990.7782	2642.5242	1075.9	192.35
990.9023	2643.7887	1073.25	189.3
991.0264	2645.0525	1076.7	196.15
991.1505	2646.3156	1086.45	186.6
991.2745	2647.5781	1069.9	186.9
991.3985	2648.8398	1071	190
991.5225	2650.1009	1095.35	187.7
991.6464	2651.3613	1076.5	193.25
991.7703	2652.6211	1072.2	188.8
991.8942	2653.8801	1072.35	190.3
992.018	2655.1385	1071.75	184.65
992.1418	2656.3961	1069.65	187.05
992.2655	2657.6531	1066.55	182.45
992.3892	2658.9094	1069.05	184.25
992.5129	2660.1651	1066.55	184.45
992.6366	2661.42	1069.85	186
992.7602	2662.6743	1067.1	184.25
992.8837	2663.9279	1065.9	184.1
993.0073	2665.1808	1065.45	179
993.1307	2666.433	1069.9	187.3
993.2542	2667.6846	1067.85	186.85
993.3776	2668.9354	1069.7	183.45
993.501	2670.1856	1065.5	182.05
993.6244	2671.4351	1060.8	180.1
993.7477	2672.6839	1063.05	181.3
993.8709	2673.9321	1063.05	180.55
993.9942	2675.1795	1060.35	176.35
994.1174	2676.4263	1062.25	180.55
994.2405	2677.6724	1058.1	176.3
994.3637	2678.9179	1062.25	180.7
994.4868	2680.1626	1060.7	179.75
994.6098	2681.4067	1060.7	175.1
994.7328	2682.6501	1059.9	178.2
994.8558	2683.8928	1059.8	174.8
994.9788	2685.1348	1058.45	177.9
995.1017	2686.3761	1051.9	169.15
995.2245	2687.6168	1054.6	171.15
995.3474	2688.8568	1052.25	170.9
995.4702	2690.0961	1053.3	171.9
995.5929	2691.3348	1052.8	169.55
995.7156	2692.5727	1050	166.5
995.8383	2693.81	1053	170.15
995.961	2695.0466	1050.75	168.4
996.0836	2696.2826	1051.1	166.75
996.2062	2697.5178	1053.6	167.85
996.3287	2698.7524	1050.25	167.8
996.4512	2699.9863	1050.75	167.2
996.5737	2701.2195	1046.3	165.35
996.6961	2702.452	1050.9	166.75
996.8185	2703.6839	1046.05	162.6
996.9408	2704.9151	1042.7	160
997.0631	2706.1456	1048.6	167.25
997.1854	2707.3755	1048.75	165.6
997.3077	2708.6046	1047.35	161.75
997.4299	2709.8331	1045.85	159.95
997.552	2711.0609	1045.2	162.6
997.6742	2712.2881	1049.75	165.6
997.7963	2713.5145	1047.9	162.85
997.9183	2714.7403	1044.75	162.9
998.0403	2715.9654	1046.35	163.2
998.1623	2717.1899	1062.25	167
998.2842	2718.4136	1043.85	160.35
998.4062	2719.6367	1046.95	162.75
998.528	2720.8591	1052.05	164.9
998.6498	2722.0809	1046.45	165.65
998.7716	2723.3019	1049.8	164.7
998.8934	2724.5223	1045.85	161.45
999.0151	2725.7421	1043.45	159.8
999.1368	2726.9611	1046.55	160.45
999.2584	2728.1795	1046.85	161.15
999.38	2729.3972	1040.55	158.35
999.5016	2730.6142	1051.35	162
999.6231	2731.8306	1041.85	158
999.7446	2733.0462	1039.45	155.8
999.8661	2734.2612	1040.15	152.5
999.9875	2735.4756	1036.85	154.2
1000.1089	2736.6892	1032.2	148.35
1000.2302	2737.9022	1030.4	146.55
1000.3515	2739.1145	1026.7	145.2
1000.4728	2740.3262	1038.75	147.95
1000.594	2741.5372	1031.4	147.8
1000.7152	2742.7475	1032.15	149.6
1000.8363	2743.9571	1031.8	146.6
1000.9575	2745.1661	1029.05	142.35
1001.0785	2746.3744	1028.3	143.95
1001.1996	2747.582	1025.2	142.75
1001.3206	2748.7889	1020.85	138.25
1001.4415	2749.9952	1023.4	139.25
1001.5625	2751.2008	1020.9	139.7
1001.6833	2752.4057	1024.15	138.35
1001.8042	2753.61	1022.2	139.65
1001.925	2754.8136	1023.3	139.15
1002.0458	2756.0165	1017.8	136.5
1002.1665	2757.2188	1017.05	133.45
1002.2872	2758.4204	1020.65	138.55
1002.4078	2759.6213	1021.55	133.4
1002.5285	2760.8215	1026.75	141.2
1002.649	2762.0211	1016.2	131.5
1002.7696	2763.22	1020	135.5
1002.8901	2764.4182	1019.95	137.8
1003.0106	2765.6158	1018.65	134.05
1003.131	2766.8127	1015.9	133.9
1003.2514	2768.009	1014.4	130.35
1003.3717	2769.2045	1017.25	133.45
1003.492	2770.3994	1014.85	130.4
1003.6123	2771.5936	1012.65	127.15
1003.7325	2772.7872	1007.2	127.25
1003.8527	2773.9801	1011.05	126.5
1003.9729	2775.1723	1027.1	124.85
1004.093	2776.3639	1008.9	128.25
1004.2131	2777.5548	1011.65	127.25
1004.3331	2778.745	1008.5	124.45
1004.4531	2779.9346	1010.85	127.35
1004.5731	2781.1235	1007.7	126.4
1004.693	2782.3117	1007.2	124.25
1004.8129	2783.4992	1009.45	125.5
1004.9328	2784.6861	1008.15	125.8
1005.0526	2785.8723	1010.7	128.75
1005.1723	2787.0579	1004.95	121.8
1005.2921	2788.2428	1003.95	121.85
1005.4118	2789.427	1008.75	126.5
1005.5314	2790.6106	1008.9	127.45
1005.651	2791.7935	1006.7	123.65
1005.7706	2792.9757	1004.4	123.8
1005.8902	2794.1573	1008	122.2
1006.0097	2795.3382	1007.1	123.8
1006.1291	2796.5184	1004.45	123
1006.2485	2797.698	1007.1	121.65
1006.3679	2798.8769	1003	119
1006.4873	2800.0551	1007.35	123.05
1006.6066	2801.2327	1005.15	120.7
1006.7258	2802.4096	999.75	118.2
1006.8451	2803.5859	1005	122.25
1006.9642	2804.7615	1006.55	121.75
1007.0834	2805.9364	1002.7	122.15
1007.2025	2807.1106	1005.95	124.5
1007.3216	2808.2842	1005.5	121.4
1007.4406	2809.4572	1006.95	124.95
1007.5596	2810.6294	1003.95	121.9
1007.6785	2811.801	1005.25	124.65
1007.7975	2812.972	1009.4	128.85
1007.9163	2814.1423	1008.55	126.95
1008.0352	2815.3119	1012.55	131.1
1008.154	2816.4808	1013.6	131.75
1008.2727	2817.6491	1016.1	134.45
1008.3914	2818.8167	1018.1	136.9
1008.5101	2819.9837	1028	140.6
1008.6288	2821.15	1023.85	141.25
1008.7474	2822.3157	1025.65	144.85
1008.8659	2823.4807	1031.3	149.65
1008.9844	2824.645	1038.2	154.85
1009.1029	2825.8086	1036.35	154.05
1009.2214	2826.9716	1039.05	156.5
1009.3398	2828.134	1042.75	160.8
1009.4581	2829.2957	1044.5	161.7
1009.5764	2830.4567	1050.45	169.85
1009.6947	2831.617	1051	167.75
1009.813	2832.7767	1051.7	168.85
1009.9312	2833.9358	1051.4	168.75
1010.0493	2835.0941	1050.75	166.5
1010.1675	2836.2519	1046.65	164.6
1010.2855	2837.4089	1051.75	168.35
1010.4036	2838.5653	1045.15	163.05
1010.5216	2839.7211	1041.25	159.85
1010.6396	2840.8761	1046.7	161.45
1010.7575	2842.0306	1041.1	161.05
1010.8754	2843.1843	1042.2	159.5
1010.9932	2844.3374	1043.8	162.8
1011.111	2845.4899	1046.1	161.95
1011.2288	2846.6417	1050.6	167.35
1011.3465	2847.7928	1050.8	168.9
1011.4642	2848.9433	1053.2	172.65
1011.5818	2850.0931	1052.3	170.95
1011.6995	2851.2422	1057.1	172.8
1011.817	2852.3907	1056.4	174.2
1011.9345	2853.5385	1058.5	176.15
1012.052	2854.6857	1066.05	175.75
1012.1695	2855.8323	1058.3	176.6
1012.2869	2856.9781	1066.75	184.8
1012.4042	2858.1233	1063.4	180.75
1012.5216	2859.2679	1066.15	184.55
1012.6389	2860.4118	1070.45	188.6
1012.7561	2861.555	1073.85	187.15
1012.8733	2862.6976	1075.75	192.5
1012.9905	2863.8395	1071.6	190.85
1013.1076	2864.9808	1071.95	190.65
1013.2247	2866.1214	1076.05	196.1
1013.3417	2867.2614	1076.3	193.4
1013.4587	2868.4007	1080.6	197.7
1013.5757	2869.5393	1081.6	198.2
1013.6926	2870.6773	1081.05	197.35
1013.8095	2871.8146	1077.8	191.8
1013.9263	2872.9513	1083.05	199.15
1014.0431	2874.0874	1078.65	196.3
1014.1599	2875.2227	1081.5	199
1014.2766	2876.3574	1079.75	196.1
1014.3933	2877.4915	1077.75	196.75
1014.51	2878.6249	1076.3	196.95
1014.6266	2879.7577	1078.8	195.1
1014.7431	2880.8898	1086.3	192.75
1014.8596	2882.0212	1073	191
1014.9761	2883.152	1077.5	195.15
1015.0925	2884.2821	1074.8	193.6
1015.2089	2885.4116	1078.35	196.6
1015.3253	2886.5405	1077.5	197.05
1015.4416	2887.6686	1081.7	196.1
1015.5579	2888.7962	1080.55	199.85
1015.6741	2889.923	1073.95	191.85
1015.7903	2891.0493	1077.45	197.05
1015.9065	2892.1748	1083.05	199.15
1016.0226	2893.2997	1079.85	197.5
1016.1387	2894.424	1078.9	196.95
1016.2547	2895.5476	1079.7	196.55
1016.3707	2896.6706	1082.6	201.7
1016.4866	2897.7929	1083.4	201.95
1016.6025	2898.9145	1080.7	197.85
1016.7184	2900.0355	1079.65	197.7
1016.8342	2901.1559	1084.65	202.45
1016.95	2902.2756	1084.4	204.4
1017.0658	2903.3946	1081.7	200.1
1017.1815	2904.513	1086.2	200.85
1017.2971	2905.6308	1082.45	201.75
1017.4127	2906.7479	1082.5	200
1017.5283	2907.8643	1085.65	203.1
1017.6439	2908.9801	1083.8	201.6
1017.7594	2910.0953	1084.65	201.8
1017.8748	2911.2098	1085.55	199.45
1017.9902	2912.3236	1092.15	200.1
1018.1056	2913.4368	1085.15	200.1
1018.2209	2914.5494	1081.55	199.85
1018.3362	2915.6613	1084.65	195.7
1018.4515	2916.7725	1080.5	196.8
1018.5667	2917.8831	1076.1	193.2
1018.6819	2918.9931	1075.1	188.9
1018.797	2920.1024	1068.3	184.1
1018.9121	2921.211	1072.25	192.1
1019.0271	2922.319	1068.15	186.45
1019.1421	2923.4264	1067.9	186.55
1019.2571	2924.5331	1066.35	184.55
1019.372	2925.6391	1065.95	183.85
1019.4869	2926.7445	1063.2	181.9
1019.6017	2927.8493	1064.45	182.6
1019.7165	2928.9534	1065.25	183.85
1019.8313	2930.0569	1063.2	177.55
1019.946	2931.1597	1065.45	183.4
1020.0606	2932.2619	1062.65	179.85
1020.1753	2933.3634	1064.7	183.05
1020.2899	2934.4643	1076.05	187.9
1020.4044	2935.5645	1075.4	186.25
1020.5189	2936.6641	1074.3	188.65
1020.6334	2937.763	1063.65	182.9
1020.7478	2938.8613	1061.25	178.05
1020.8622	2939.959	1060.35	172.7
1020.9765	2941.056	1054.65	175
1021.0908	2942.1523	1056.6	174.75
1021.2051	2943.248	1047.35	163.65
1021.3193	2944.3431	1043.95	164.45
1021.4334	2945.4375	1041.65	158.9
1021.5476	2946.5313	1033.5	151.6
1021.6617	2947.6244	1028.75	146.55
1021.7757	2948.7169	1026.05	144.7
1021.8897	2949.8087	1019.95	138.05
1022.0037	2950.8999	1014	132.6
1022.1176	2951.9904	1010.65	129.2
1022.2315	2953.0803	1002.35	118.85
1022.3453	2954.1696	1005.75	124
1022.4591	2955.2582	998.65	117.75
1022.5728	2956.3462	1000.1	117.3
1022.6865	2957.4335	998.5	117.25
1022.8002	2958.5202	996.8	112.35
1022.9138	2959.6062	993.55	112.8
1023.0274	2960.6916	991.7	108.3
1023.141	2961.7764	991.9	108.7
1023.2545	2962.8605	989.6	106.15
1023.3679	2963.9439	990.85	109.65
1023.4813	2965.0267	988.1	102.25
1023.5947	2966.1089	1013.8	106.7
1023.708	2967.1905	986.1	104.8
1023.8213	2968.2714	987.6	106.45
1023.9346	2969.3516	987.6	105.95
1024.0478	2970.4312	997.6	107.75
1024.1609	2971.5102	988.35	107.35
1024.274	2972.5885	984.85	103.45
1024.3871	2973.6662	996.85	109.7
1024.5002	2974.7432	984.45	102.5
1024.6132	2975.8196	985.8	102.15
1024.7261	2976.8954	985.95	101.8
1024.839	2977.9705	986.1	104.5
1024.9519	2979.045	986.35	105.35
1025.0647	2980.1188	982.85	102.05
1025.1775	2981.192	984.3	104.35
1025.2902	2982.2645	989	106.3
1025.4029	2983.3364	981.15	99.2
1025.5156	2984.4077	977.75	96.15
1025.6282	2985.4783	985.7	96.65
1025.7407	2986.5483	976.3	96.6
1025.8532	2987.6177	974.6	93.4
1025.9657	2988.6864	972.05	89.7
1026.0782	2989.7545	974.3	91.6
1026.1906	2990.8219	967.1	84.85
1026.3029	2991.8887	968.9	84.45
1026.4152	2992.9548	965.8	82.45
1026.5275	2994.0204	963.9	83.7
1026.6397	2995.0852	957.65	77.1
1026.7519	2996.1495	960.55	77.15
1026.864	2997.2131	956.75	74.55
1026.9761	2998.276	955.8	75.1
1027.0882	2999.3383	952.8	71.05
1027.2002	3000.4	954.85	71.8
1027.3122	3001.4611	951.55	69.75
1027.4241	3002.5215	952.6	70.5
1027.536	3003.5812	948.8	66.35
1027.6478	3004.6404	948.65	67.85
1027.7596	3005.6989	949	66.95
1027.8714	3006.7567	944.9	60.45
1027.9831	3007.8139	965.4	63.75
1028.0947	3008.8705	947.5	65.55
1028.2064	3009.9264	960.55	62.75
1028.3179	3010.9818	946.4	64.5
1028.4295	3012.0364	945.65	63.85
1028.541	3013.0905	941.2	59.1
1028.6524	3014.1439	943.05	60.65
1028.7638	3015.1966	938.85	56.9
1028.8752	3016.2487	940.75	58.3
1028.9865	3017.3002	945.15	58.55
1029.0978	3018.3511	940.6	62.95
1029.209	3019.4013	942.05	61.75
1029.3202	3020.4509	940.25	57.65
1029.4314	3021.4998	937.9	55.4
1029.5425	3022.5481	936.35	54.15
1029.6535	3023.5958	939.9	58.3
1029.7645	3024.6428	941.6	58.9
1029.8755	3025.6892	936.7	55.9
1029.9864	3026.735	939.35	58.6
1030.0973	3027.7802	940	58.65
1030.2082	3028.8247	939.45	57.05
1030.319	3029.8685	937.25	56.6
1030.4297	3030.9118	940.3	56.1
1030.5404	3031.9544	936.25	55.3
1030.6511	3032.9963	937.75	55.95
1030.7617	3034.0376	938.55	56.05
1030.8723	3035.0783	938.5	55
1030.9829	3036.1184	936.35	53.1
1031.0934	3037.1578	937.15	57.7
1031.2038	3038.1966	937.4	54.85
1031.3142	3039.2348	935.9	55.45
1031.4246	3040.2723	942.75	51.85
1031.5349	3041.3092	934.75	54
1031.6452	3042.3455	934.85	54.75
1031.7554	3043.3811	934.9	54.55
1031.8656	3044.4161	937.85	55.7
1031.9758	3045.4505	934.45	54.9
1032.0859	3046.4842	939.15	56.35
1032.1959	3047.5173	933.25	51.55
1032.3059	3048.5498	936.35	53
1032.4159	3049.5816	934.2	51.55
1032.5258	3050.6128	933.9	51.8
1032.6357	3051.6434	938.1	54.85
1032.7455	3052.6734	935.4	51.8
1032.8553	3053.7027	934.75	52.95
1032.9651	3054.7314	934.15	51.3
1033.0748	3055.7594	935.3	55.6
1033.1845	3056.7868	937.1	56.65
1033.2941	3057.8136	931.45	50.45
1033.4037	3058.8398	932.3	50.45
1033.5132	3059.8653	933.4	51.15
1033.6227	3060.8902	933.95	53.3
1033.7321	3061.9145	930.3	48.55
1033.8415	3062.9381	935.05	51.65
1033.9509	3063.9612	949.5	54.45
1034.0602	3064.9835	933.35	52.1
1034.1694	3066.0053	935.2	51.05
1034.2787	3067.0264	931.85	49.95
1034.3878	3068.0469	933.5	51.65
1034.497	3069.0668	935.25	51.35
1034.6061	3070.086	931.25	48.35
1034.7151	3071.1046	932.75	51
1034.8241	3072.1226	931.65	48.3
1034.9331	3073.1399	931.15	48.1
1035.042	3074.1567	931.1	49.75
1035.1508	3075.1727	933.4	49.55
1035.2597	3076.1882	927.45	45.05
1035.3684	3077.203	926.7	45.8
1035.4772	3078.2173	929.7	47.95
1035.5859	3079.2308	930.95	45.8
1035.6945	3080.2438	929.5	44.1
1035.8031	3081.2561	925.5	45.55
1035.9117	3082.2678	925.85	44.8
1036.0202	3083.2789	926.35	44.65
1036.1286	3084.2893	922.65	42.9
1036.2371	3085.2991	925.1	42.9
1036.3454	3086.3083	927.05	41.2
1036.4538	3087.3169	925.15	43.6
1036.562	3088.3248	925.05	41.45
1036.6703	3089.3321	922.3	40.35
1036.7785	3090.3388	924	42.2
1036.8866	3091.3449	923.8	42.05
1036.9948	3092.3503	923.3	39.65
1037.1028	3093.3551	922.25	42.05
1037.2108	3094.3593	920.5	38.2
1037.3188	3095.3629	918.35	39.25
1037.4267	3096.3658	923.75	40
1037.5346	3097.3681	921.8	40.75
1037.6425	3098.3698	920.7	37.65
1037.7503	3099.3708	925.3	36.55
1037.858	3100.3713	920.05	39.3
1037.9657	3101.3711	917.05	34.95
1038.0734	3102.3702	1053.05	37.25
1038.181	3103.3688	919.85	37.9
1038.2886	3104.3667	917.8	37.25
1038.3961	3105.364	916.55	34.35
1038.5036	3106.3607	920.3	35.7
1038.611	3107.3568	919.6	37.95
1038.7184	3108.3522	919.8	37
1038.8257	3109.347	918.9	36.1
1038.933	3110.3412	922.75	39.25
1039.0403	3111.3348	917	35.6
1039.1475	3112.3277	917	38.1
1039.2547	3113.32	916.3	33.8
1039.3618	3114.3117	918.5	35.95
1039.4689	3115.3028	916.4	34.55
1039.5759	3116.2932	917.8	34.85
1039.6829	3117.2831	922.45	35.55
1039.7898	3118.2723	915.8	33.15
1039.8967	3119.2608	915.6	33.7
1040.0035	3120.2488	916.3	33.75
1040.1103	3121.2361	914.75	31.75
1040.2171	3122.2229	914.25	34.15
1040.3238	3123.209	915.85	32.9
1040.4305	3124.1944	915.6	33.65
1040.5371	3125.1793	915.8	33.5
1040.6437	3126.1635	913.7	32.95
1040.7502	3127.1471	914.4	34.15
1040.8567	3128.1301	913.55	31.25
1040.9631	3129.1125	912.15	30.15
1041.0695	3130.0942	912.3	30.5
1041.1759	3131.0753	919.15	28.6
1041.2822	3132.0558	914.5	29.65
1041.3884	3133.0357	913.9	30.6
1041.4946	3134.015	913.05	30.5
1041.6008	3134.9936	912.85	29.15
1041.7069	3135.9716	936.25	32.55
1041.813	3136.949	912.5	32.6
1041.919	3137.9258	928.45	29.5
1042.025	3138.902	919.2	33.55
1042.1309	3139.8775	910.6	29.2
1042.2368	3140.8524	910.85	28.25
1042.3427	3141.8267	914.25	31.2
1042.4485	3142.8004	911.3	29.05
1042.5542	3143.7735	916.95	29.8
1042.6599	3144.7459	911.7	28.5
1042.7656	3145.7178	909.9	26.35
1042.8712	3146.689	908.6	29.45
1042.9768	3147.6596	911.75	30.65
1043.0823	3148.6295	910.95	27.25
1043.1878	3149.5989	911.3	30.55
1043.2932	3150.5676	909.05	28.6
1043.3986	3151.5357	907.95	27.25
1043.5039	3152.5032	907.75	26.9
1043.6092	3153.4701	907.55	26.25
1043.7145	3154.4364	910.05	25.4
1043.8197	3155.402	906.75	26.1
1043.9248	3156.367	912.05	29.45
1044.03	3157.3315	928	26.9
1044.135	3158.2952	908.35	26.35
1044.24	3159.2584	905.85	25.15
1044.345	3160.221	907.4	26.3
1044.4499	3161.1829	909.55	27.5
1044.5548	3162.1442	907.6	27.25
1044.6596	3163.105	906.55	24.8
1044.7644	3164.065	908.4	26.35
1044.8692	3165.0245	909.1	24.45
1044.9739	3165.9834	906.65	27.25
1045.0785	3166.9416	907.65	28.2
1045.1831	3167.8993	908.2	24.55
1045.2877	3168.8563	906.8	23.75
1045.3922	3169.8127	906.6	26.55
1045.4966	3170.7684	907.15	25.25
1045.6011	3171.7236	907	24.75
1045.7054	3172.6782	905	21.3
1045.8098	3173.6321	908.8	26.8
1045.914	3174.5854	911.1	24.1
1046.0183	3175.5381	906.05	24.65
1046.1224	3176.4902	903.8	23.15
1046.2266	3177.4417	905.7	23.2
1046.3307	3178.3926	906.05	25.9
1046.4347	3179.3428	903.75	21.85
1046.5387	3180.2924	905	24
1046.6427	3181.2415	903.05	21.6
1046.7466	3182.1899	906.7	23.1
1046.8504	3183.1377	906.85	26.3
1046.9542	3184.0848	908.3	23.1
1047.058	3185.0314	905.2	25.15
1047.1617	3185.9773	903.5	20.5
1047.2654	3186.9227	907.35	24.05
1047.369	3187.8674	903.7	22.9
1047.4726	3188.8115	908.15	22.8
1047.5761	3189.755	904.5	23.2
1047.6796	3190.6979	902.7	22.05
1047.783	3191.6402	903	21.8
1047.8864	3192.5818	903.95	22.1
1047.9898	3193.5229	911.6	25.75
1048.0931	3194.4633	903	22.7
1048.1963	3195.4031	901.45	19.25
1048.2995	3196.3423	902.35	19.85
1048.4027	3197.2809	902.85	20.65
1048.5058	3198.2189	902.7	20.95
1048.6089	3199.1563	910.9	22.55
1048.7119	3200.0931	904.3	22.65
1048.8148	3201.0292	900.95	20.75
1048.9178	3201.9648	900.85	18.45
1049.0206	3202.8997	905.15	20.5
1049.1235	3203.834	902.9	21.15
1049.2262	3204.7677	900.1	20.25
1049.329	3205.7008	902.75	17.75
1049.4317	3206.6333	900.05	20.9
1049.5343	3207.5652	904.25	21.6
1049.6369	3208.4964	901.1	19.7
1049.7394	3209.4271	902.95	21.7
1049.8419	3210.3571	901.7	19.75
1049.9444	3211.2865	903.55	22
1050.0468	3212.2154	903.6	20.35
1050.1491	3213.1436	905.1	20.7
1050.2514	3214.0712	909.25	22.9
1050.3537	3214.9982	900.9	19.3
1050.4559	3215.9246	902.35	18.85
1050.5581	3216.8503	898.85	18.35
1050.6602	3217.7755	902	17.8
1050.7623	3218.7001	901.35	20.95
1050.8643	3219.624	900.25	17.4
1050.9663	3220.5473	899.9	17.75
1051.0682	3221.4701	904.65	21.7
1051.1701	3222.3922	901.5	18.85
1051.2719	3223.3137	902	21.4
1051.3737	3224.2346	901	17.2
1051.4754	3225.1549	898.2	18.1
1051.5771	3226.0746	898.75	17.5
1051.6788	3226.9937	900.5	18.9
1051.7804	3227.9121	899.85	19.6
1051.8819	3228.83	900.35	19.8
1051.9834	3229.7473	900	18.55
1052.0849	3230.6639	900.4	20.25
1052.1863	3231.5799	897.4	16.55
1052.2876	3232.4954	900.7	19.6
1052.3889	3233.4102	897.15	16.45
1052.4902	3234.3244	899.45	15.9
1052.5914	3235.238	899	17.8
1052.6926	3236.151	924.3	16.4
1052.7937	3237.0634	898.8	19.5
1052.8948	3237.9752	900.15	18.65
1052.9958	3238.8864	899.7	16.1
1053.0968	3239.797	898.95	18.9
1053.1977	3240.7069	899.1	16.55
1053.2986	3241.6163	901.25	17.55
1053.3994	3242.5251	898.3	18.8
1053.5002	3243.4332	894.8	12.25
1053.6009	3244.3408	899.1	17.85
1053.7016	3245.2477	896.45	16.1
1053.8022	3246.154	899.7	18.45
1053.9028	3247.0598	900.4	19.35
1054.0034	3247.9649	896.6	14.55
1054.1039	3248.8694	896.45	14.85
1054.2043	3249.7733	899	16.25
1054.3047	3250.6766	899.05	17.3
1054.4051	3251.5793	896.65	11.85
1054.5054	3252.4814	899.15	15.85
1054.6056	3253.3829	895.95	13.7
1054.7058	3254.2838	897.3	14.6
1054.806	3255.1841	896.25	15.25
1054.9061	3256.0838	896.35	14.6
1055.0061	3256.9829	896.3	16
1055.1062	3257.8814	896.95	13.35
1055.2061	3258.7792	896.65	13.2
1055.306	3259.6765	896.65	15.1
1055.4059	3260.5731	896.2	15.2
1055.5057	3261.4692	896.35	13.35
1055.6055	3262.3647	897.65	14.95
1055.7052	3263.2595	894.05	10.9
1055.8049	3264.1538	896.25	14.75
1055.9045	3265.0474	895	13.1
1056.0041	3265.9404	894.35	12.75
1056.1036	3266.8329	894.35	15.15
1056.2031	3267.7247	903.9	10.65
1056.3025	3268.616	892.25	12.35
1056.4019	3269.5066	895.35	13.45
1056.5013	3270.3966	897.65	14.5
1056.6005	3271.286	892.15	11.95
