Software Version:	3.9.2.0
Unit SN:	10000200
Spectrometer SN:	6960
Date:	3/26/2024 1:49:03 PM
Data Line Index:	25
Spectral Points:	2048
Integration time (ms):	125
Averages:	20
Delay (ms):	30000
Sequence Number:	1
Processing:	dark subtract
Laser Power (mW):	305
Laser Current (mA):	821
Laser Diode Temp (C):	25.1
Laser Case Temp (C):	27.2
System Temp (C):	27.3
Spectrometer Temp (C):	25.1
CCD Temp (C):	0.007
Secondary Temp (C):	20.007
Heatsink Temp (C):	22.433
CCDPCB Temp (C):	36.807
SecondaryPCB Temp (C):	34.128

Wavelength	RamanShift	Raw Counts	Dark Subtracted
787.061	30.1047	614.8	201.75
787.2016	32.3739	622.5	211.3
787.3422	34.6426	638.35	226
787.4828	36.9109	655.25	244.75
787.6235	39.1787	670.55	252.15
787.7642	41.4461	693.55	270.75
787.9049	43.7131	715.15	290.5
788.0456	45.9796	736.95	309.8
788.1863	48.2456	760.65	328.8
788.3271	50.5112	783.6	347.05
788.4679	52.7764	806.15	369.35
788.6087	55.0411	829.35	389.05
788.7496	57.3054	858.7	412.9
788.8904	59.5692	889.9	442.45
789.0313	61.8326	919	468.5
789.1722	64.0955	956.4	499.55
789.3132	66.3579	997.9	535.4
789.4541	68.6199	1045.65	580.15
789.5951	70.8815	1136.75	668.75
789.7361	73.1426	1322.1	851.35
789.8771	75.4032	1783.45	1306.9
790.0181	77.6634	2946.3	2461.5
790.1592	79.9231	5832.1	5339.05
790.3003	82.1824	12448.45	11932.6
790.4414	84.4412	26411.9	25859.95
790.5825	86.6995	50098.7	49499.4
790.7237	88.9574	61084.1	60437.2
790.8648	91.2148	64447.35	63768
791.006	93.4717	64948.45	64247.45
791.1472	95.7282	65151.45	64436.2
791.2885	97.9842	65235.15	64518.35
791.4297	100.2398	65184	64465.25
791.571	102.4949	65172.15	64448.7
791.7123	104.7495	65105.55	64378.7
791.8536	107.0036	65047.65	64323.2
791.9949	109.2573	65114.5	64394.45
792.1363	111.5105	65010.25	64279.65
792.2777	113.7632	64976.15	64251.4
792.4191	116.0154	65024.5	64285.85
792.5605	118.2672	65101.8	64368.05
792.7019	120.5185	65099.25	64364.05
792.8434	122.7693	65061.95	64325.45
792.9849	125.0197	64871.9	64134.9
793.1264	127.2696	65188.7	64448.35
793.2679	129.519	65088.55	64343.65
793.4094	131.7679	65205.35	64454.9
793.551	134.0163	64924.35	64169.7
793.6926	136.2642	65014.4	64252.8
793.8342	138.5117	65168.5	64401.9
793.9758	140.7587	65097.35	64336.5
794.1175	143.0052	65068	64303.9
794.2591	145.2512	64900.85	64141.45
794.4008	147.4967	65080.3	64318.3
794.5425	149.7417	65036.9	64270.3
794.6842	151.9863	65000.85	64230.55
794.826	154.2304	64934.4	64159.55
794.9677	156.4739	64944.15	64162.55
795.1095	158.717	65102.9	64322
795.2513	160.9596	64972.25	64187.5
795.3931	163.2017	64807.8	64021.75
795.535	165.4433	64969.6	64182.1
795.6768	167.6844	64869.15	64084.75
795.8187	169.925	64922.7	64133.9
795.9606	172.1651	64779.95	63991.3
796.1025	174.4047	64874.45	64087.6
796.2445	176.6439	64810.45	64018.95
796.3864	178.8825	64714.95	63918.7
796.5284	181.1206	64921.1	64116.2
796.6704	183.3582	64852.45	64045.4
796.8124	185.5954	64786.5	63980.7
796.9544	187.832	64800.7	63991.1
797.0965	190.0681	64632.55	63818.45
797.2386	192.3037	64848.15	64029.8
797.3806	194.5388	65076.35	64255.4
797.5228	196.7734	64511.2	63691.1
797.6649	199.0075	65063.1	64234.15
797.807	201.2411	64839.55	64008.1
797.9492	203.4742	65139.1	64305.95
798.0914	205.7068	65053.7	64224.1
798.2336	207.9389	65043.7	64211.05
798.3758	210.1704	65012.15	64178.55
798.518	212.4015	65182.05	64344.8
798.6603	214.632	64990.25	64154.45
798.8025	216.862	65207.35	64380.15
798.9448	219.0915	65048.85	64232.3
799.0871	221.3205	65058.5	64238.9
799.2294	223.549	65246.15	64432.7
799.3718	225.777	65200.85	64386.6
799.5141	228.0044	65291.65	64470.7
799.6565	230.2314	65229.2	64414.8
799.7989	232.4578	65227.65	64415.9
799.9413	234.6837	65262.45	64439.85
800.0837	236.909	65387.05	64559.8
800.2262	239.1339	65124.4	64273.55
800.3687	241.3582	65289.05	64449.15
800.5111	243.582	65282.55	64416.15
800.6536	245.8053	65255.3	64402.6
800.7961	248.0281	65290.35	64444.4
800.9387	250.2503	65316.05	64463.3
801.0812	252.472	65215.2	64354.15
801.2238	254.6932	65296.4	64436.65
801.3664	256.9139	65248.55	64392.2
801.509	259.134	65389.85	64528.2
801.6516	261.3536	65243.4	64378.6
801.7942	263.5727	65321.6	64450.95
801.9369	265.7912	65298.25	64433.95
802.0795	268.0092	65314.15	64451.1
802.2222	270.2267	65328.85	64463.25
802.3649	272.4436	65257.55	64393.35
802.5076	274.6601	65338.6	64464.1
802.6504	276.8759	65353.15	64485.45
802.7931	279.0913	65305	64435
802.9359	281.3061	65335.25	64464.25
803.0787	283.5204	65324.1	64447
803.2215	285.7341	65318.3	64439.95
803.3643	287.9473	65376.5	64483.4
803.5071	290.16	65340.65	64457.95
803.6499	292.3721	65342.85	64465.45
803.7928	294.5837	65319.4	64441.7
803.9357	296.7947	65294.55	64415.95
804.0786	299.0052	65386.35	64504.5
804.2215	301.2152	65341.95	64461.5
804.3644	303.4246	65363.5	64486.25
804.5074	305.6334	65350.35	64474.95
804.6503	307.8418	65272.3	64389.15
804.7933	310.0495	65246.05	64363.6
804.9363	312.2568	65254.95	64369.25
805.0793	314.4635	65233.2	64351.7
805.2223	316.6696	65288.15	64398
805.3653	318.8752	65315.2	64421.1
805.5084	321.0802	65096.9	64208.95
805.6514	323.2847	65229.95	64339.4
805.7945	325.4887	65192.7	64302
805.9376	327.692	65160.05	64268.25
806.0807	329.8949	65203	64309.7
806.2238	332.0972	65134.7	64237.1
806.367	334.2989	65184.55	64286.25
806.5101	336.5001	65240.2	64339.05
806.6533	338.7007	65015.75	64115.4
806.7965	340.9008	65143.2	64247.3
806.9397	343.1003	65162.65	64260.4
807.0829	345.2992	65218.2	64321.3
807.2261	347.4976	65104	64202.3
807.3693	349.6955	65156.35	64249.4
807.5126	351.8927	65050.15	64144.25
807.6559	354.0895	65153.3	64233.5
807.7991	356.2856	65137.9	64232.95
807.9424	358.4812	65213.5	64309.9
808.0857	360.6763	65011.4	64104.35
808.2291	362.8707	65222.5	64315.8
808.3724	365.0646	65085.85	64177.05
808.5158	367.258	65095.15	64183.25
808.6591	369.4508	64948.1	64031.7
808.8025	371.643	65194.3	64277.2
808.9459	373.8346	65098.75	64184.45
809.0893	376.0257	65121.2	64203.7
809.2327	378.2162	65068.35	64150.1
809.3762	380.4062	64843.8	63925.05
809.5196	382.5956	65058.25	64137.9
809.6631	384.7844	65010.7	64092.4
809.8066	386.9726	65110.25	64189.75
809.9501	389.1603	65070	64154.05
810.0936	391.3474	64910.55	63960.15
810.2371	393.5339	65027.7	64106.95
810.3806	395.7199	64781.6	63869.2
810.5241	397.9052	64861.7	63950.6
810.6677	400.09	64924.6	64019.15
810.8113	402.2743	65087.95	64179.6
810.9548	404.4579	64857.6	63949.95
811.0984	406.641	64909.9	63998.9
811.2421	408.8235	64979.85	64065.65
811.3857	411.0054	65021.95	64113.05
811.5293	413.1868	65062.6	64148.85
811.673	415.3675	64970	64052
811.8166	417.5477	64972.9	64058.55
811.9603	419.7273	64992.8	64076.1
812.104	421.9064	64972.7	64045.25
812.2477	424.0848	64973.7	64050.6
812.3914	426.2627	65115.15	64194.2
812.5351	428.4399	64864.95	63945.3
812.6788	430.6166	64640.95	63712.35
812.8226	432.7928	64880.8	63951.15
812.9663	434.9683	64699.55	63781.1
813.1101	437.1432	64665.8	63744.9
813.2539	439.3176	64844.3	63927.1
813.3977	441.4914	64549.7	63634.6
813.5415	443.6645	64583.3	63661.65
813.6853	445.8371	64617.15	63694.5
813.8291	448.0091	64484.2	63556.4
813.973	450.1806	64411.7	63493.6
814.1168	452.3514	64480.4	63561.9
814.2607	454.5216	64305.3	63381.55
814.4046	456.6913	64492.3	63569.15
814.5485	458.8603	64531	63608.45
814.6924	461.0288	64272.7	63357.05
814.8363	463.1967	64501.7	63588.1
814.9802	465.3639	64501.2	63579.3
815.1241	467.5306	64096.2	63173.5
815.2681	469.6967	64361.85	63443.2
815.412	471.8622	64506.9	63590.6
815.556	474.0271	64351	63431
815.7	476.1914	64389.85	63463.55
815.844	478.3551	64400.1	63473.8
815.988	480.5182	64609.1	63692.4
816.132	482.6807	64293.3	63379.05
816.276	484.8426	64344.2	63437.3
816.4201	487.0039	64607.75	63694.3
816.5641	489.1647	64616	63698.75
816.7082	491.3248	64331.3	63409.25
816.8522	493.4843	64663.8	63743.8
816.9963	495.6432	64666.7	63751.45
817.1404	497.8015	64348.25	63414.9
817.2845	499.9592	64534.15	63596.8
817.4286	502.1163	64484.55	63551.15
817.5727	504.2728	64454	63527.35
817.7168	506.4287	64393	63482.6
817.861	508.5839	64216.35	63301.35
818.0051	510.7386	64355.8	63436.2
818.1493	512.8927	64364.7	63435.1
818.2935	515.0461	64289.9	63360.9
818.4377	517.199	64436.55	63505
818.5818	519.3512	64267.7	63336.1
818.726	521.5029	64304.1	63369.65
818.8703	523.6539	64350.7	63422.3
819.0145	525.8043	64059.35	63126.45
819.1587	527.9541	64322.1	63393.8
819.303	530.1033	64270.9	63334.1
819.4472	532.2519	64121.85	63188.3
819.5915	534.3999	64357.6	63423.85
819.7357	536.5472	64461.45	63532.05
819.88	538.694	64124.7	63198.45
820.0243	540.8401	64348.15	63417.6
820.1686	542.9856	64385.55	63444.3
820.3129	545.1305	64499.35	63548.6
820.4572	547.2748	64241.8	63290.4
820.6016	549.4185	64197.8	63244.7
820.7459	551.5615	64402.9	63450.05
820.8902	553.704	64340.25	63387.2
821.0346	555.8458	64213.6	63272.6
821.1789	557.987	64275.9	63332.2
821.3233	560.1276	64372.85	63426.75
821.4677	562.2675	64288.6	63344.95
821.6121	564.4069	64366.05	63418.75
821.7565	566.5456	64497	63556.8
821.9009	568.6837	64221.4	63282
822.0453	570.8212	64312.65	63374.7
822.1897	572.958	63895.5	62956.8
822.3342	575.0942	64170.65	63237.1
822.4786	577.2299	63922.35	62992.85
822.6231	579.3648	63881.6	62962.55
822.7675	581.4992	63800.65	62891.6
822.912	583.6329	63774.8	62863.5
823.0565	585.766	63793	62877
823.201	587.8985	63955	63032.6
823.3454	590.0304	63588.1	62630.15
823.4899	592.1616	63864.4	62924.2
823.6345	594.2922	63685.9	62741.5
823.779	596.4222	63430.55	62484.75
823.9235	598.5515	63518.4	62568.7
824.068	600.6802	63676.15	62731.9
824.2126	602.8083	63311.7	62372.65
824.3571	604.9358	63271.85	62328.1
824.5017	607.0626	63577.2	62629.6
824.6462	609.1888	63100.15	62147.6
824.7908	611.3144	63418.35	62467.65
824.9354	613.4393	63278.7	62321.65
825.08	615.5636	63056.85	62105.85
825.2246	617.6873	63291.85	62343.5
825.3692	619.8103	62997.5	62047.55
825.5138	621.9327	63346.75	62405.05
825.6584	624.0544	63318.35	62374.35
825.803	626.1756	63066.4	62124
825.9477	628.2961	63061.45	62119.4
826.0923	630.4159	62882.85	61935.25
826.237	632.5351	62827.85	61878.5
826.3816	634.6537	63352.05	62400.9
826.5263	636.7716	62755.45	61800.8
826.6709	638.8889	62901.35	61939.7
826.8156	641.0056	62865.65	61909.75
826.9603	643.1216	62971.6	62015.3
827.105	645.237	63065.95	62112.4
827.2497	647.3518	62722.45	61777.8
827.3944	649.4659	62813.4	61873.35
827.5391	651.5793	62836.15	61892.55
827.6838	653.6922	62893.35	61945.95
827.8285	655.8043	62526.1	61580.25
827.9733	657.9159	63026.95	62081.25
828.118	660.0268	62212.8	61265.55
828.2627	662.137	62672.65	61719.9
828.4075	664.2466	62704.15	61748.2
828.5522	666.3556	62510.75	61556.6
828.697	668.4639	62656.45	61706.35
828.8418	670.5716	62455.3	61513.15
828.9865	672.6786	62632.55	61682.7
829.1313	674.785	62375.85	61418.15
829.2761	676.8907	62411.35	61464.2
829.4209	678.9958	62468.2	61526.7
829.5657	681.1002	62564.85	61615.7
829.7105	683.204	62246.65	61283.85
829.8553	685.3072	62121.1	61161.5
830.0001	687.4097	62261.05	61305.45
830.1449	689.5115	62192.5	61240.7
830.2898	691.6127	62361.35	61413
830.4346	693.7132	62110.4	61159.35
830.5794	695.8131	62181.05	61210.7
830.7243	697.9123	62244.5	61284.4
830.8691	700.0109	62284.35	61323.8
831.014	702.1089	61927.15	60967.65
831.1588	704.2061	62060.15	61104.65
831.3037	706.3028	62052.6	61095.85
831.4486	708.3987	62088.9	61131.3
831.5935	710.4941	61972.4	61015.2
831.7383	712.5887	62175.8	61223.8
831.8832	714.6827	62042.95	61089.4
832.0281	716.7761	62198.45	61243.05
832.173	718.8688	62276.6	61320.7
832.3179	720.9608	62099.9	61138.35
832.4628	723.0522	62134.95	61168.2
832.6077	725.1429	61943.25	60983.7
832.7527	727.233	62423.95	61464.2
832.8976	729.3224	61704.1	60745.85
833.0425	731.4112	61895.85	60941
833.1874	733.4993	61881.05	60926.35
833.3324	735.5867	61815.6	60857.65
833.4773	737.6735	61672.2	60710.85
833.6222	739.7596	61482.25	60521.95
833.7672	741.845	61502.95	60543.7
833.9122	743.9298	61582.15	60620.15
834.0571	746.014	61432.3	60476.65
834.2021	748.0974	61257.45	60294.5
834.347	750.1802	61535.05	60573.4
834.492	752.2624	61088.85	60123.15
834.637	754.3439	61181	60214.6
834.782	756.4247	61249.35	60279.2
834.9269	758.5048	61097.7	60135.75
835.0719	760.5843	61197.6	60234.4
835.2169	762.6631	61316.1	60353.85
835.3619	764.7413	61333.15	60372.7
835.5069	766.8188	61453.65	60491.1
835.6519	768.8956	61626.3	60661.75
835.7969	770.9718	61643.75	60679.2
835.9419	773.0473	61527.3	60565
836.0869	775.1221	61304.7	60345.4
836.232	777.1962	61245	60283.55
836.377	779.2697	60997.45	60032.95
836.522	781.3426	61116.35	60143.25
836.667	783.4147	61173.2	60209.2
836.8121	785.4862	61125.1	60164.5
836.9571	787.557	60950.25	59985.25
837.1021	789.6271	60978.45	60014.95
837.2472	791.6966	60665.5	59698.4
837.3922	793.7654	60293.1	59329.95
837.5373	795.8335	60255.4	59292.9
837.6823	797.901	60238	59276.35
837.8274	799.9678	60074.1	59108.2
837.9724	802.0339	59976.5	59012.3
838.1175	804.0993	59969.2	58993.85
838.2626	806.1641	59879.15	58913.9
838.4076	808.2282	59783.8	58821.45
838.5527	810.2916	59726.45	58763.45
838.6978	812.3544	59805.25	58843.85
838.8428	814.4164	59527.75	58564.6
838.9879	816.4778	59593.5	58623.9
839.133	818.5385	59567.35	58602.2
839.2781	820.5986	59544.4	58577.4
839.4232	822.658	59631	58659.85
839.5682	824.7166	59708.6	58746.2
839.7133	826.7747	59558.1	58594.3
839.8584	828.832	59772.45	58805.85
840.0035	830.8886	59898.3	58933.8
840.1486	832.9446	59929.7	58962.85
840.2937	834.9999	59443.15	58482.3
840.4388	837.0545	59598.95	58628.15
840.5839	839.1085	59614.55	58645.4
840.729	841.1618	59424.4	58454.7
840.8741	843.2143	59108.85	58143.55
841.0192	845.2662	59029.95	58062
841.1643	847.3175	59075.35	58109.5
841.3095	849.368	58686.8	57721.6
841.4546	851.4179	58910.45	57947.7
841.5997	853.467	58611.5	57646.4
841.7448	855.5155	58711.45	57747.1
841.8899	857.5633	58443.2	57472.4
842.0351	859.6105	58298.05	57330.55
842.1802	861.6569	58380.35	57413.25
842.3253	863.7027	58038.9	57071.4
842.4704	865.7478	58156.75	57188.15
842.6156	867.7922	58025.35	57057.45
842.7607	869.8359	58145.65	57180.15
842.9058	871.8789	57749.6	56780.5
843.0509	873.9212	57963.1	56965.15
843.1961	875.9629	57955.8	56986.2
843.3412	878.0039	57952.75	56981.05
843.4863	880.0441	57831.3	56865.15
843.6315	882.0837	57890.35	56925.85
843.7766	884.1226	57841.25	56874.75
843.9218	886.1609	57832.65	56867.15
844.0669	888.1984	57626.25	56660.1
844.212	890.2352	57915.4	56947.6
844.3572	892.2714	57525.85	56551.75
844.5023	894.3069	57731.15	56758.95
844.6475	896.3416	57349.95	56385.5
844.7926	898.3757	57247.55	56283.4
844.9377	900.4091	56771.45	55801.35
845.0829	902.4418	57325.55	56351.35
845.228	904.4739	56975.2	56006.95
845.3732	906.5052	57101.1	56131.15
845.5183	908.5358	56842.95	55873.15
845.6635	910.5658	56604.55	55633.1
845.8086	912.595	56495	55525.3
845.9538	914.6236	55853.05	54885.8
846.0989	916.6515	56571.2	55601.9
846.2441	918.6786	55688.95	54720
846.3892	920.7051	55883.25	54914.15
846.5344	922.7309	55778.35	54811.2
846.6795	924.756	55856.8	54890.1
846.8246	926.7804	55594.05	54624.7
846.9698	928.8041	54975.05	54007.1
847.1149	930.8272	55434	54464.7
847.2601	932.8495	55348.2	54378.7
847.4052	934.8711	54934.5	53962.6
847.5504	936.892	54610.8	53639.6
847.6955	938.9123	54783.65	53814.15
847.8407	940.9318	54525.4	53558.3
847.9858	942.9506	54351.6	53384.75
848.131	944.9688	54370.75	53405.4
848.2761	946.9862	53662.25	52694.8
848.4213	949.003	53764.45	52794.9
848.5664	951.019	53109.45	52138.75
848.7115	953.0344	53185.4	52218.3
848.8567	955.0491	53088.05	52120.25
849.0018	957.063	53226	52257.35
849.147	959.0763	53366.4	52394.3
849.2921	961.0888	52899.5	51930.05
849.4373	963.1007	53249.9	52283.05
849.5824	965.1119	53162.6	52204
849.7275	967.1223	52783.6	51831.85
849.8727	969.1321	53130.25	52175.6
850.0178	971.1412	52639.8	51680.75
850.1629	973.1495	52364.95	51396.6
850.3081	975.1572	52492.15	51486.9
850.4532	977.1641	52327.4	51362
850.5983	979.1704	52225.05	51255.45
850.7435	981.1759	52182.2	51209.25
850.8886	983.1808	51873.65	50901.5
851.0337	985.1849	51873.85	50895.5
851.1788	987.1884	51935.25	50965.85
851.324	989.1911	52148.35	51180.95
851.4691	991.1932	51509.95	50543.9
851.6142	993.1945	51600.45	50637.7
851.7593	995.1951	51560	50595.55
851.9045	997.1951	51178	50206.7
852.0496	999.1943	51007	50039.95
852.1947	1001.1928	50838.95	49868.6
852.3398	1003.1906	50888.65	49921.65
852.4849	1005.1877	50563.75	49600
852.63	1007.1841	50347.95	49383.8
852.7751	1009.1798	50292.1	49330.8
852.9202	1011.1748	50162.85	49198.25
853.0653	1013.1691	49889.6	48924.8
853.2104	1015.1627	49147.75	48186.85
853.3555	1017.1556	49042.35	48082.05
853.5006	1019.1477	49045.95	48082.85
853.6457	1021.1392	48542.1	47589.1
853.7908	1023.1299	48097.85	47141.6
853.9359	1025.12	48194.4	47246.75
854.081	1027.1093	47940.55	47000.9
854.2261	1029.0979	47924	46989.9
854.3712	1031.0859	47868.8	46925.05
854.5163	1033.0731	47500.15	46543.2
854.6613	1035.0596	47518.95	46564.85
854.8064	1037.0454	47284.95	46327.15
854.9515	1039.0304	46986.5	46027
855.0965	1041.0148	46592.9	45632.8
855.2416	1042.9985	46442.95	45480.15
855.3867	1044.9814	46484.4	45524.75
855.5317	1046.9636	46104.2	45143.9
855.6768	1048.9452	45971.7	45011.6
855.8219	1050.926	45962.85	45003.2
855.9669	1052.9061	45900.8	44941.65
856.112	1054.8855	45826.35	44863.8
856.257	1056.8642	45682.25	44720
856.4021	1058.8421	45627.05	44658.85
856.5471	1060.8194	45537.8	44573.7
856.6921	1062.7959	45407.3	44443.15
856.8372	1064.7717	45395.45	44431.15
856.9822	1066.7469	45289.3	44327.55
857.1272	1068.7213	45288.05	44323.65
857.2723	1070.695	45210.7	44249
857.4173	1072.6679	44987.55	44023.1
857.5623	1074.6402	44993.15	44030.4
857.7073	1076.6117	44904.45	43940.7
857.8523	1078.5826	44747.55	43786.6
857.9973	1080.5527	44567.05	43600.9
858.1423	1082.5221	44344.15	43383.4
858.2873	1084.4908	44293.25	43328.95
858.4323	1086.4587	44169.45	43203.9
858.5773	1088.426	44254.8	43294.8
858.7223	1090.3925	44092.15	43127.85
858.8673	1092.3584	44023.45	43061.6
859.0123	1094.3235	43743.8	42783.9
859.1573	1096.2879	43659.85	42699.55
859.3022	1098.2515	43652.5	42691.9
859.4472	1100.2145	43704.6	42745.25
859.5922	1102.1767	43664.8	42702.4
859.7371	1104.1382	43754.25	42795.55
859.8821	1106.099	43836.65	42876.35
860.027	1108.0591	43854.1	42894.75
860.172	1110.0185	43829.05	42867.15
860.3169	1111.9771	43896.7	42934.7
860.4619	1113.9351	43589.95	42631.05
860.6068	1115.8923	43349.5	42386.25
860.7517	1117.8488	43034.1	42074.45
860.8967	1119.8045	42689.2	41728.4
861.0416	1121.7596	42581	41618.9
861.1865	1123.7139	42350.4	41392.95
861.3314	1125.6675	42202.3	41245.3
861.4763	1127.6204	42247.45	41288.9
861.6212	1129.5726	42037.65	41079.2
861.7661	1131.524	41932.4	40974.7
861.911	1133.4748	41853.6	40895.45
862.0559	1135.4248	41583.45	40626.65
862.2008	1137.3741	41420.35	40457.2
862.3457	1139.3226	41228.85	40271.15
862.4905	1141.2705	41163.15	40201.85
862.6354	1143.2176	40862.5	39894.55
862.7803	1145.164	40823.7	39858.35
862.9251	1147.1097	40686.25	39728.1
863.07	1149.0546	40565.45	39603.1
863.2148	1150.9989	40467	39506.7
863.3597	1152.9424	40336.5	39376.05
863.5045	1154.8852	40131.4	39175.8
863.6493	1156.8272	40012.15	39054.5
863.7942	1158.7686	40016.5	39052.55
863.939	1160.7092	39840.75	38882.8
864.0838	1162.6491	39687.1	38728.8
864.2286	1164.5883	39754.5	38797.15
864.3734	1166.5267	39676.15	38720.7
864.5182	1168.4644	39800.3	38843.45
864.663	1170.4014	39866.6	38907.15
864.8078	1172.3377	40050.3	39093.35
864.9526	1174.2732	40180.9	39223.2
865.0974	1176.2081	40432.6	39475.05
865.2421	1178.1421	40675.9	39715.15
865.3869	1180.0755	40949.05	39993.55
865.5317	1182.0082	40970	40015.15
865.6764	1183.9401	41016.45	40066.5
865.8212	1185.8713	40793.9	39845
865.9659	1187.8017	40499.9	39553.25
866.1106	1189.7315	40218.95	39281.35
866.2554	1191.6605	39724.8	38791.2
866.4001	1193.5888	39355.15	38413.7
866.5448	1195.5163	39162.3	38216.6
866.6895	1197.4432	38937.05	37985.5
866.8342	1199.3693	38838.85	37885.5
866.9789	1201.2947	38654.05	37699.95
867.1236	1203.2193	38516	37560.45
867.2683	1205.1432	38442	37488.85
867.413	1207.0664	38346.75	37393.6
867.5576	1208.9889	38193.4	37239.35
867.7023	1210.9106	38099.85	37143.15
867.847	1212.8316	37981.95	37027.95
867.9916	1214.7519	37934.2	36969.65
868.1363	1216.6715	37770.65	36815.8
868.2809	1218.5903	37793.95	36842.05
868.4255	1220.5084	37707.4	36752.9
868.5701	1222.4257	37786.9	36837.5
868.7148	1224.3424	37581.25	36635.3
868.8594	1226.2583	37580.7	36624.4
869.004	1228.1735	37609.5	36655.65
869.1486	1230.0879	37570.9	36617.3
869.2932	1232.0016	37622.5	36672
869.4377	1233.9146	37588.7	36636.45
869.5823	1235.8269	37468.45	36515.05
869.7269	1237.7384	37356.3	36403.35
869.8715	1239.6492	37086	36135.6
870.016	1241.5592	37029.1	36078.35
870.1606	1243.4686	36893.3	35940.05
870.3051	1245.3772	36865.15	35914.25
870.4496	1247.285	36883.3	35932.35
870.5941	1249.1922	36873.8	35921.6
870.7387	1251.0986	36912.65	35962.05
870.8832	1253.0042	36791.45	35839.05
871.0277	1254.9092	36790.65	35840.65
871.1722	1256.8134	36741.9	35792.95
871.3167	1258.7169	36877.2	35926.55
871.4611	1260.6196	36904	35951.55
871.6056	1262.5216	37066.6	36116.7
871.7501	1264.4229	37143	36194.9
871.8945	1266.3234	37235.45	36286.55
872.039	1268.2232	37231.8	36279.45
872.1834	1270.1223	37187.95	36233.55
872.3278	1272.0207	37165.6	36212.9
872.4723	1273.9183	37074.4	36116.45
872.6167	1275.8151	36848.5	35900.85
872.7611	1277.7113	36803.85	35859.75
872.9055	1279.6067	36728.25	35779.9
873.0499	1281.5014	36747	35796.25
873.1943	1283.3953	36891.8	35941.85
873.3386	1285.2885	37141.05	36192.35
873.483	1287.181	37368.2	36419.45
873.6274	1289.0727	37648.85	36701.3
873.7717	1290.9637	37789.3	36839.85
873.9161	1292.854	37945.95	36997.5
874.0604	1294.7435	37849.6	36896.15
874.2047	1296.6323	37781.45	36832.25
874.349	1298.5204	37706.35	36756.05
874.4933	1300.4077	37573.5	36621.75
874.6376	1302.2943	37405.05	36455.05
874.7819	1304.1802	37225.85	36279.4
874.9262	1306.0653	36774.45	35824.55
875.0705	1307.9497	36375.9	35428.9
875.2147	1309.8333	36101.1	35155.85
875.359	1311.7162	35876.9	34927.2
875.5032	1313.5984	35773.4	34821.6
875.6475	1315.4798	35561.65	34594.65
875.7917	1317.3605	35418.7	34455.1
875.9359	1319.2405	35420.95	34465.65
876.0801	1321.1197	35215.95	34265.95
876.2243	1322.9982	34887.85	33937.2
876.3685	1324.876	34761.05	33810.25
876.5127	1326.753	34416.45	33466.75
876.6569	1328.6293	34310.9	33357.35
876.801	1330.5048	34232.9	33282.8
876.9452	1332.3796	34029.45	33082.4
877.0893	1334.2537	33922.4	32950.15
877.2335	1336.127	33776.55	32828.5
877.3776	1337.9996	33674.25	32727.2
877.5217	1339.8714	33647.05	32694.35
877.6658	1341.7426	33543.3	32550.1
877.8099	1343.6129	33503.55	32555.15
877.954	1345.4826	33454.85	32507.15
878.0981	1347.3515	33394.8	32446
878.2422	1349.2196	33329.95	32381.2
878.3862	1351.087	33279.4	32333.15
878.5303	1352.9537	33314.5	32367.3
878.6743	1354.8197	33347.95	32397.6
878.8184	1356.6849	33439.45	32487.65
878.9624	1358.5493	33478.05	32529.55
879.1064	1360.4131	33529.25	32582.3
879.2504	1362.276	33567.75	32622.9
879.3944	1364.1383	33400.7	32453.05
879.5384	1365.9998	33238.2	32286.7
879.6823	1367.8606	32884.4	31934.35
879.8263	1369.7206	32518.55	31569.55
879.9702	1371.5799	32180.55	31228.5
880.1142	1373.4384	31885.65	30937.75
880.2581	1375.2962	31694.8	30747.3
880.402	1377.1533	31320.75	30375.45
880.5459	1379.0096	30900.15	29956.4
880.6898	1380.8652	30614.35	29673.3
880.8337	1382.7201	30274.8	29330.55
880.9776	1384.5742	29967.4	29022.8
881.1215	1386.4275	29703.25	28753.25
881.2653	1388.2802	29518.05	28569.3
881.4092	1390.132	29322.15	28375.15
881.553	1391.9832	29254	28305.75
881.6968	1393.8336	29061.6	28113.2
881.8406	1395.6832	28976.85	28028.4
881.9844	1397.5322	28839.9	27892.6
882.1282	1399.3803	28666.9	27718.85
882.272	1401.2278	28510	27566.95
882.4158	1403.0745	28464.65	27518.4
882.5595	1404.9204	28333.35	27388.9
882.7033	1406.7656	28324.95	27378.8
882.847	1408.6101	28235.6	27288.9
882.9908	1410.4538	28162.9	27217.35
883.1345	1412.2968	28132.25	27185.95
883.2782	1414.139	28042.8	27097.85
883.4219	1415.9805	28079.4	27133.45
883.5656	1417.8213	28052.45	27087.1
883.7092	1419.6613	28044.35	27099.25
883.8529	1421.5006	28144.05	27203.15
883.9965	1423.3391	28264.05	27319.6
884.1402	1425.1769	28388.35	27445.7
884.2838	1427.0139	28686.7	27741.35
884.4274	1428.8502	29103.05	28159.7
884.571	1430.6858	29433.95	28489.4
884.7146	1432.5206	29636.7	28694.3
884.8582	1434.3547	29845.4	28899.05
885.0018	1436.188	29815.2	28871.8
885.1453	1438.0206	29732.3	28786.35
885.2889	1439.8524	29469.25	28524.95
885.4324	1441.6835	29342.5	28400.8
885.5759	1443.5139	29196.9	28252
885.7194	1445.3435	29103.6	28162.15
885.8629	1447.1724	29022	28079.1
886.0064	1449.0005	28981.85	28041.25
886.1499	1450.8279	28798.65	27855.85
886.2933	1452.6545	28759.45	27817.75
886.4368	1454.4804	28803.55	27865.9
886.5802	1456.3056	28699.7	27752.15
886.7237	1458.13	28637.25	27699.95
886.8671	1459.9536	28443.9	27503.45
887.0105	1461.7766	28206.6	27265.7
887.1539	1463.5987	27860.75	26916.85
887.2972	1465.4202	27504.4	26562.65
887.4406	1467.2409	27147.05	26205.5
887.584	1469.0608	26951.45	26010.7
887.7273	1470.88	26645.5	25702
887.8706	1472.6984	26440.4	25500.1
888.0139	1474.5161	26221.1	25277.25
888.1572	1476.3331	26056.3	25114.8
888.3005	1478.1493	25831.8	24891.85
888.4438	1479.9648	25824.7	24883.7
888.5871	1481.7795	25663.45	24722.6
888.7303	1483.5935	25593.35	24655.05
888.8736	1485.4067	25501	24560.05
889.0168	1487.2192	25421.7	24484.15
889.16	1489.031	25368.45	24427.1
889.3032	1490.842	25264.2	24328.15
889.4464	1492.6522	25222.55	24282.25
889.5896	1494.4618	25122.7	24183.5
889.7327	1496.2705	25066.6	24126.4
889.8759	1498.0785	24986.45	24045.25
890.019	1499.8858	24908.3	23966.85
890.1622	1501.6924	24815.15	23873.55
890.3053	1503.4981	24802.1	23861.95
890.4484	1505.3032	24720.3	23782.65
890.5914	1507.1075	24671.35	23730.1
890.7345	1508.911	24614.9	23673.75
890.8776	1510.7138	24490.5	23550.35
891.0206	1512.5159	24387.5	23447.35
891.1637	1514.3172	24328.5	23388
891.3067	1516.1178	24190.85	23253.15
891.4497	1517.9176	24160.9	23216.75
891.5927	1519.7166	24064.9	23128.5
891.7357	1521.515	23972.95	23031.3
891.8786	1523.3126	23894.5	22960.65
892.0216	1525.1094	23809.35	22870.5
892.1645	1526.9055	23726.6	22790.5
892.3074	1528.7008	23634.9	22698.05
892.4503	1530.4954	23482.15	22539.5
892.5932	1532.2893	23483.55	22551.2
892.7361	1534.0824	23368.45	22433.35
892.879	1535.8747	23313.4	22385.35
893.0218	1537.6663	23261.1	22330.1
893.1647	1539.4572	23189.6	22253.8
893.3075	1541.2473	23140.3	22207.8
893.4503	1543.0367	23098.5	22165.45
893.5931	1544.8253	23007.65	22069.65
893.7359	1546.6132	22997	22061.35
893.8787	1548.4003	22919.55	21976.35
894.0214	1550.1867	22884.55	21946.55
894.1642	1551.9723	22893.9	21959.4
894.3069	1553.7572	22916.5	21983.4
894.4496	1555.5414	22929.8	22000.35
894.5923	1557.3247	22957.4	22031.1
894.735	1559.1074	23007.85	22081.05
894.8777	1560.8893	23042.95	22118.5
895.0204	1562.6705	23091.9	22164.75
895.163	1564.4509	23169.35	22245
895.3056	1566.2305	23191.4	22268.1
895.4482	1568.0094	23222	22302.3
895.5908	1569.7876	23202.05	22279.7
895.7334	1571.565	23163.45	22236.7
895.876	1573.3417	23133.4	22207.9
896.0186	1575.1176	23045	22120.85
896.1611	1576.8928	22982.45	22060.75
896.3036	1578.6672	22874.05	21958.65
896.4461	1580.4409	22815.95	21901.55
896.5886	1582.2138	22743.85	21823.3
896.7311	1583.986	22706.4	21783.65
896.8736	1585.7575	22714.7	21791.75
897.0161	1587.5282	22680.65	21762.3
897.1585	1589.2981	22694.8	21780.95
897.3009	1591.0673	22638.8	21725.3
897.4433	1592.8358	22653.2	21738.6
897.5857	1594.6035	22695.45	21776.35
897.7281	1596.3704	22701.35	21779.9
897.8705	1598.1366	22680.9	21761.25
898.0128	1599.9021	22714.9	21798.4
898.1551	1601.6668	22645.85	21728.3
898.2975	1603.4308	22733.95	21809.85
898.4398	1605.194	22810.95	21886.65
898.5821	1606.9564	22903.65	21992.65
898.7243	1608.7182	23064.8	22156.2
898.8666	1610.4791	23197.95	22294.05
899.0088	1612.2394	23347.95	22444.7
899.1511	1613.9988	23497.1	22590.35
899.2933	1615.7576	23712.95	22801.05
899.4355	1617.5156	23828.5	22903.75
899.5776	1619.2728	23923.55	22997.55
899.7198	1621.0293	23899.2	22980.15
899.862	1622.785	23739.7	22825.7
900.0041	1624.54	23454.85	22542.25
900.1462	1626.2942	23179.4	22267.05
900.2883	1628.0477	22813.25	21897.1
900.4304	1629.8005	22520.9	21603.4
900.5725	1631.5525	22248.15	21338.75
900.7145	1633.3037	21992.55	21084.8
900.8566	1635.0542	21818.75	20904.55
900.9986	1636.804	21624.05	20712.65
901.1406	1638.553	21576.65	20611.8
901.2826	1640.3013	21362.45	20451
901.4245	1642.0488	21312.5	20397.45
901.5665	1643.7955	21295.3	20385.75
901.7085	1645.5416	21298.8	20389.95
901.8504	1647.2868	21354.1	20441.2
901.9923	1649.0313	21372.2	20458.5
902.1342	1650.7751	21467.5	20554.4
902.2761	1652.5181	21562.3	20654.65
902.4179	1654.2604	21632.65	20724.6
902.5598	1656.0019	21775.6	20867.55
902.7016	1657.7427	21895.9	20984.35
902.8434	1659.4828	22143.4	21226.8
902.9852	1661.222	22245.7	21332.4
903.127	1662.9606	22167.35	21255
903.2687	1664.6984	22007.4	21091.95
903.4105	1666.4354	21657.9	20739.7
903.5522	1668.1717	21106.85	20190.35
903.6939	1669.9072	20617.5	19697.45
903.8356	1671.642	20230.1	19311.3
903.9773	1673.3761	19867.95	18953.3
904.119	1675.1094	19555.45	18642.25
904.2606	1676.8419	19318.25	18405.05
904.4022	1678.5737	19087.1	18170.4
904.5439	1680.3048	18953.8	18037.75
904.6855	1682.0351	18765.85	17852.5
904.827	1683.7646	18638.45	17719.85
904.9686	1685.4934	18541.4	17627.4
905.1101	1687.2215	18419.7	17506
905.2517	1688.9488	18310.05	17399.3
905.3932	1690.6754	18199	17286.65
905.5347	1692.4012	18172.3	17260.15
905.6761	1694.1263	18059.35	17143.95
905.8176	1695.8506	18020.95	17107.95
905.9591	1697.5742	17949.9	17040.95
906.1005	1699.297	17862.25	16954.4
906.2419	1701.0191	17733.65	16828.6
906.3833	1702.7404	17662.75	16756.15
906.5246	1704.461	17540	16629.65
906.666	1706.1808	17476.7	16566.35
906.8073	1707.8999	17418	16508.9
906.9487	1709.6182	17342.15	16437.65
907.09	1711.3358	17344.65	16441.9
907.2313	1713.0527	17258.4	16356.1
907.3725	1714.7688	17184.8	16274.3
907.5138	1716.4841	17110.7	16200.1
907.655	1718.1987	17073.2	16159.35
907.7962	1719.9126	17014.75	16111.35
907.9374	1721.6257	16939.7	16034.4
908.0786	1723.338	16914.6	16012.9
908.2198	1725.0496	16828.3	15923.15
908.3609	1726.7605	16805.05	15896.05
908.502	1728.4706	16762.65	15858.1
908.6431	1730.18	16648.65	15743.55
908.7842	1731.8886	16564.25	15663.75
908.9253	1733.5964	16594.2	15668.6
909.0664	1735.3036	16525.8	15615.7
909.2074	1737.0099	16516.05	15611.1
909.3484	1738.7156	16441.45	15538.45
909.4894	1740.4204	16340.05	15432
909.6304	1742.1246	16334.5	15428.8
909.7714	1743.8279	16279.65	15374.3
909.9123	1745.5306	16248.7	15346.4
910.0532	1747.2325	16177.6	15273.5
910.1941	1748.9336	16117.4	15214.65
910.335	1750.634	16060.65	15153.55
910.4759	1752.3336	16039.15	15134.95
910.6168	1754.0325	16016.65	15118.2
910.7576	1755.7307	15949.45	15050
910.8984	1757.4281	15947.05	15043.25
911.0392	1759.1247	15924.45	15009.15
911.18	1760.8206	15887.25	14973.9
911.3208	1762.5158	15882.4	14971.4
911.4615	1764.2102	15762.6	14855.35
911.6022	1765.9039	15717.25	14813.25
911.7429	1767.5968	15700.45	14799.45
911.8836	1769.289	15663.65	14763.2
912.0243	1770.9804	15652.5	14748.1
912.1649	1772.6711	15611.4	14705.6
912.3056	1774.361	15582.65	14676
912.4462	1776.0502	15508.25	14600.75
912.5868	1777.7386	15475.7	14568.3
912.7274	1779.4263	15432.95	14531.55
912.8679	1781.1132	15443.95	14544.5
913.0084	1782.7994	15393.6	14494.55
913.149	1784.4849	15347.7	14450.55
913.2895	1786.1696	15296.9	14389.65
913.4299	1787.8535	15241.25	14344.9
913.5704	1789.5367	15202	14304.35
913.7108	1791.2192	15200.5	14298.55
913.8513	1792.9009	15174.05	14243.15
913.9917	1794.5818	15101.05	14197.3
914.132	1796.2621	15047.5	14144.65
914.2724	1797.9415	15013.55	14109.3
914.4128	1799.6202	14978.3	14071.9
914.5531	1801.2982	14950.85	14047.75
914.6934	1802.9755	14907.2	14002.25
914.8337	1804.6519	14894.1	13990.3
914.9739	1806.3277	14820.45	13918.8
915.1142	1808.0027	14753.3	13855.75
915.2544	1809.6769	14754.1	13858.15
915.3946	1811.3504	14711.15	13811.1
915.5348	1813.0231	14698.25	13801.25
915.675	1814.6951	14676.7	13776.45
915.8151	1816.3664	14693.75	13789.85
915.9553	1818.0369	14642.15	13739.45
916.0954	1819.7067	14585.8	13685.6
916.2355	1821.3757	14524.95	13620
916.3755	1823.044	14548.6	13642.85
916.5156	1824.7115	14498.05	13592.6
916.6556	1826.3783	14418.6	13514.3
916.7956	1828.0443	14389	13487.6
916.9356	1829.7096	14378.25	13473.7
917.0756	1831.3741	14352.4	13446.95
917.2155	1833.0379	14322.7	13422.95
917.3555	1834.701	14276.3	13379
917.4954	1836.3633	14249	13349.75
917.6353	1838.0248	14195.9	13297.35
917.7751	1839.6856	14171.4	13269.3
917.915	1841.3457	14184.25	13282.75
918.0548	1843.005	14104.35	13199.9
918.1946	1844.6636	14107.65	13204.75
918.3344	1846.3214	14066.8	13165.1
918.4742	1847.9785	14076.5	13176.55
918.6139	1849.6349	14021.75	13116.5
918.7537	1851.2904	14031.3	13117.55
918.8934	1852.9453	13948.65	13043.85
919.0331	1854.5994	13916.1	13010.2
919.1727	1856.2528	13934.25	13023.1
919.3124	1857.9054	13914.35	13012.8
919.452	1859.5572	13870.85	12970.15
919.5916	1861.2083	13853.95	12950.05
919.7312	1862.8587	13858.3	12955.1
919.8708	1864.5084	13821.55	12914.65
920.0103	1866.1572	13771.55	12866.55
920.1498	1867.8054	13700	12794.35
920.2893	1869.4528	13655.25	12750.5
920.4288	1871.0994	13628.55	12724.5
920.5683	1872.7453	13598.1	12690.7
920.7077	1874.3905	13600.45	12687.75
920.8471	1876.0349	13558.75	12658
920.9865	1877.6786	13512.7	12609.15
921.1259	1879.3215	13492.9	12589.45
921.2653	1880.9637	13461.05	12557.15
921.4046	1882.6051	13458.3	12558.2
921.5439	1884.2458	13432.9	12530.6
921.6832	1885.8858	13384.35	12482
921.8225	1887.525	13337.5	12434.3
921.9617	1889.1634	13269.2	12364.1
922.101	1890.8011	13235.1	12328.25
922.2402	1892.4381	13251.6	12348.4
922.3794	1894.0743	13251.45	12347.95
922.5185	1895.7098	13186.8	12284.9
922.6577	1897.3446	13156.95	12253.8
922.7968	1898.9786	13146.45	12237.9
922.9359	1900.6118	13100.85	12198.35
923.075	1902.2443	13033.1	12127.85
923.214	1903.8761	13014.75	12111.95
923.3531	1905.5071	12962.15	12059.5
923.4921	1907.1374	12896.9	11993.7
923.6311	1908.7669	12888	11983.1
923.77	1910.3957	12862.35	11962.75
923.909	1912.0237	12800.15	11899.55
924.0479	1913.651	12758.05	11858.7
924.1868	1915.2776	12749.55	11849.55
924.3257	1916.9034	12663	11765.55
924.4646	1918.5285	12652.65	11754.8
924.6034	1920.1528	12576.75	11675.35
924.7422	1921.7764	12566.55	11665.35
924.881	1923.3992	12534.35	11633.6
925.0198	1925.0213	12433.5	11531.5
925.1586	1926.6427	12415	11515
925.2973	1928.2633	12416.15	11440.75
925.436	1929.8832	12337.25	11433.6
925.5747	1931.5023	12301.2	11401.45
925.7134	1933.1207	12277.35	11375.35
925.852	1934.7383	12246.75	11345.9
925.9906	1936.3552	12177.6	11276.85
926.1292	1937.9714	12156.1	11256.7
926.2678	1939.5868	12111.35	11207.45
926.4064	1941.2015	12098.4	11195.75
926.5449	1942.8154	12054.35	11152.15
926.6834	1944.4286	11991.35	11088.15
926.8219	1946.041	11958.45	11033.05
926.9604	1947.6528	11878.7	10971.7
927.0988	1949.2637	11873	10973.15
927.2372	1950.8739	11812.75	10913.6
927.3756	1952.4834	11818.9	10918.7
927.514	1954.0921	11801.15	10900.95
927.6523	1955.7001	11724.9	10819.25
927.7907	1957.3074	11695.1	10799.95
927.929	1958.9139	11644	10748.8
928.0673	1960.5197	11611.8	10716.6
928.2055	1962.1247	11562.65	10666.9
928.3438	1963.729	11545.95	10650.2
928.482	1965.3325	11498.85	10580
928.6202	1966.9353	11442.75	10549.7
928.7584	1968.5374	11418.7	10522.4
928.8965	1970.1387	11410.6	10513.55
929.0346	1971.7393	11354.6	10458.85
929.1727	1973.3392	11330.55	10433.8
929.3108	1974.9383	11272.1	10376.7
929.4489	1976.5366	11197.2	10303.9
929.5869	1978.1342	11193.15	10297.45
929.7249	1979.7311	11162.15	10271.5
929.8629	1981.3273	11158.8	10265.9
930.0009	1982.9227	11115.35	10220.75
930.1388	1984.5173	11084.3	10192
930.2767	1986.1112	11040.8	10146.95
930.4146	1987.7044	10992.25	10102.15
930.5525	1989.2968	10977.25	10083.1
930.6904	1990.8885	10956.55	10060.2
930.8282	1992.4795	10920.85	10030.45
930.966	1994.0697	10876.55	9988.1
931.1038	1995.6592	10841.85	9950.2
931.2415	1997.2479	10807.2	9915.3
931.3793	1998.8359	10801.35	9910.15
931.517	2000.4232	10754.8	9868.5
931.6547	2002.0097	10711.75	9826.9
931.7923	2003.5955	10677.65	9790.9
931.93	2005.1805	10670.9	9778.7
932.0676	2006.7648	10631.7	9741.3
932.2052	2008.3484	10602.5	9712.95
932.3427	2009.9312	10611.6	9721.95
932.4803	2011.5133	10571.15	9688.55
932.6178	2013.0946	10525.85	9639.4
932.7553	2014.6752	10521.6	9635.3
932.8928	2016.2551	10491.75	9603.4
933.0302	2017.8342	10437.8	9549.45
933.1676	2019.4126	10411.7	9524.9
933.305	2020.9902	10362.4	9478.2
933.4424	2022.5672	10355.25	9470.2
933.5798	2024.1433	10332.15	9441.7
933.7171	2025.7188	10290.35	9406.9
933.8544	2027.2935	10262.7	9377.25
933.9917	2028.8674	10209.8	9323.15
934.129	2030.4406	10207.15	9323.2
934.2662	2032.0131	10141.4	9256.5
934.4034	2033.5849	10119.5	9232.5
934.5406	2035.1559	10112.25	9228.3
934.6778	2036.7261	10095.6	9209.3
934.8149	2038.2957	10049.1	9158.35
934.952	2039.8645	10050.8	9159.75
935.0891	2041.4325	10036.65	9144.8
935.2262	2042.9998	9979.9	9095.1
935.3632	2044.5664	9975	9087
935.5002	2046.1323	9921.1	9037.6
935.6372	2047.6974	9890.85	9005.85
935.7742	2049.2617	9878.1	8992.75
935.9111	2050.8254	9890.1	8979.65
936.048	2052.3883	9858.15	8968.35
936.1849	2053.9504	9818.3	8928.2
936.3218	2055.5118	9787.7	8899.35
936.4586	2057.0725	9762.95	8871.4
936.5955	2058.6325	9737.25	8851.45
936.7323	2060.1917	9706.45	8822.15
936.869	2061.7502	9676.45	8787.85
937.0058	2063.3079	9642.3	8756.5
937.1425	2064.8649	9622.6	8735.45
937.2792	2066.4212	9609.55	8720.75
937.4159	2067.9767	9581.25	8694.7
937.5525	2069.5315	9547	8658.05
937.6891	2071.0856	9513	8625.15
937.8257	2072.6389	9474.5	8586.7
937.9623	2074.1915	9422.6	8539
938.0989	2075.7433	9365.25	8477.15
938.2354	2077.2945	9355	8469.55
938.3719	2078.8448	9315.6	8425.7
938.5084	2080.3945	9318.05	8426.55
938.6448	2081.9434	9312.85	8422.4
938.7812	2083.4916	9280	8387.65
938.9176	2085.039	9251.15	8355.25
939.054	2086.5857	9254.25	8358.2
939.1903	2088.1317	9202.2	8306.7
939.3267	2089.677	9184.75	8287.95
939.463	2091.2215	9163.25	8267.25
939.5992	2092.7652	9138.55	8241.75
939.7355	2094.3083	9139.5	8244.75
939.8717	2095.8506	9109.1	8216.5
940.0079	2097.3921	9093.2	8202.7
940.1441	2098.933	9054.45	8164.05
940.2802	2100.4731	9045.95	8155.3
940.4163	2102.0124	9050.8	8152.15
940.5524	2103.5511	8998.9	8107.85
940.6885	2105.089	8963.85	8069.1
940.8245	2106.6261	8948	8056.1
940.9606	2108.1626	8935.85	8046.15
941.0965	2109.6983	8946.5	8029
941.2325	2111.2332	8892.95	8002.45
941.3684	2112.7675	8857.4	7964.75
941.5044	2114.301	8815.5	7921.85
941.6403	2115.8337	8828.65	7936.4
941.7761	2117.3657	8809.6	7918.05
941.912	2118.897	8789.7	7896.45
942.0478	2120.4276	8769.4	7868.7
942.1835	2121.9575	8725.8	7832.7
942.3193	2123.4866	8720.25	7823.25
942.455	2125.0149	8697.15	7803.45
942.5907	2126.5426	8648.1	7760.65
942.7264	2128.0695	8631.5	7742.55
942.8621	2129.5956	8623.1	7736
942.9977	2131.1211	8595.15	7704.45
943.1333	2132.6458	8569.45	7680.35
943.2689	2134.1698	8575.5	7682.95
943.4044	2135.693	8521.2	7622.3
943.54	2137.2155	8517.25	7620.05
943.6755	2138.7373	8495.2	7604.6
943.8109	2140.2584	8474.8	7587.3
943.9464	2141.7787	8448.75	7557.5
944.0818	2143.2983	8410.95	7524.65
944.2172	2144.8171	8392.05	7508.05
944.3526	2146.3353	8368.65	7480.7
944.4879	2147.8527	8328.7	7443.05
944.6232	2149.3693	8310.9	7419.75
944.7585	2150.8853	8291.15	7399.4
944.8938	2152.4005	8247.6	7352.7
945.029	2153.9149	8264.05	7370.7
945.1642	2155.4287	8313.55	7318.6
945.2994	2156.9417	8225.1	7330.85
945.4346	2158.454	8188.25	7296.15
945.5697	2159.9655	8155.1	7268.85
945.7048	2161.4764	8143.1	7253.75
945.8399	2162.9865	8108.85	7219.4
945.9749	2164.4958	8106.3	7218.95
946.1099	2166.0045	8056.15	7165.2
946.2449	2167.5124	8064.95	7175.75
946.3799	2169.0195	8041.6	7151.05
946.5148	2170.526	8009.6	7118.05
946.6498	2172.0317	8011	7122.25
946.7846	2173.5367	7987.5	7098.15
946.9195	2175.0409	7958.6	7069.6
947.0543	2176.5445	7943.75	7052.3
947.1891	2178.0473	7921.9	7028.9
947.3239	2179.5494	7906.35	7009.65
947.4587	2181.0507	7874.35	6983.35
947.5934	2182.5513	7857.25	6966.7
947.7281	2184.0512	7832.6	6941.4
947.8628	2185.5504	7803.4	6911.95
947.9974	2187.0488	7763.65	6875.8
948.132	2188.5465	7758.5	6869.5
948.2666	2190.0435	7751.2	6862.25
948.4012	2191.5397	7716.3	6823.5
948.5357	2193.0353	7693.7	6800.65
948.6702	2194.5301	7657.3	6764.1
948.8047	2196.0241	7612.6	6714.95
948.9392	2197.5175	7596.7	6700
949.0736	2199.0101	7578.95	6680.4
949.208	2200.502	7541.75	6652.05
949.3424	2201.9931	7509.3	6621.8
949.4767	2203.4835	7482.15	6592.7
949.611	2204.9733	7487.95	6583.65
949.7453	2206.4622	7462.9	6576.05
949.8796	2207.9505	7426.65	6537.8
950.0138	2209.438	7392.65	6510.05
950.148	2210.9248	7377.4	6488.45
950.2822	2212.4109	7348.55	6458.6
950.4164	2213.8962	7357.75	6463.3
950.5505	2215.3809	7329.9	6433.45
950.6846	2216.8648	7306.1	6407.8
950.8186	2218.3479	7297.4	6395.5
950.9527	2219.8304	7254.6	6354.45
951.0867	2221.3121	7233.2	6335.55
951.2207	2222.7931	7207.65	6313.25
951.3546	2224.2733	7165.55	6273.15
951.4886	2225.7529	7159.9	6269.2
951.6225	2227.2317	7138.8	6247.35
951.7563	2228.7098	7135.6	6248.7
951.8902	2230.1872	7099.1	6212.75
952.024	2231.6638	7087.1	6199.7
952.1578	2233.1397	7062.5	6172.4
952.2916	2234.6149	7050.95	6162.4
952.4253	2236.0894	7016	6125.3
952.559	2237.5632	7025.2	6131.75
952.6927	2239.0362	6982.75	6090.1
952.8263	2240.5085	6959.4	6068.6
952.9599	2241.9801	6942.6	6051.6
953.0935	2243.4509	6920.25	6026.4
953.2271	2244.921	6902.6	6007.55
953.3606	2246.3904	6885.3	5986.75
953.4941	2247.8591	6850.25	5956.8
953.6276	2249.3271	6822.1	5928.2
953.7611	2250.7943	6827.4	5935.95
953.8945	2252.2608	6781.4	5888.5
954.0279	2253.7266	6789.95	5896.85
954.1612	2255.1917	6735.5	5844.75
954.2946	2256.656	6722.8	5832.15
954.4279	2258.1197	6695.8	5808.85
954.5612	2259.5826	6688.35	5796.75
954.6944	2261.0447	6679.65	5786.65
954.8276	2262.5062	6658.75	5763.1
954.9608	2263.9669	6652.95	5756.4
955.094	2265.4269	6657.8	5766.2
955.2271	2266.8862	6609.2	5717.9
955.3602	2268.3448	6610.8	5722.8
955.4933	2269.8026	6604.9	5717.8
955.6264	2271.2598	6569.1	5680.35
955.7594	2272.7162	6550.2	5661.35
955.8924	2274.1719	6550.8	5659.2
956.0253	2275.6268	6524.9	5630.95
956.1583	2277.0811	6510.05	5614.4
956.2912	2278.5346	6480.9	5588.55
956.4241	2279.9874	6468.55	5580.15
956.5569	2281.4395	6476.6	5591.25
956.6897	2282.8908	6433.4	5537.1
956.8225	2284.3414	6431.95	5538.85
956.9553	2285.7914	6393.95	5503.6
957.088	2287.2406	6373.3	5477.15
957.2207	2288.689	6368.9	5474.55
957.3534	2290.1368	6352.35	5455.45
957.486	2291.5838	6330.85	5429.85
957.6186	2293.0302	6323.5	5426.45
957.7512	2294.4758	6292.05	5397.3
957.8838	2295.9206	6284.4	5389.35
958.0163	2297.3648	6254.1	5365.5
958.1488	2298.8082	6274.45	5382.4
958.2813	2300.251	6227.7	5333.4
958.4137	2301.693	6201.95	5304.3
958.5461	2303.1343	6205.45	5310.6
958.6785	2304.5748	6179.2	5289
958.8108	2306.0147	6157.4	5266.15
958.9432	2307.4538	6160.45	5272.15
959.0754	2308.8922	6120.05	5233.7
959.2077	2310.3299	6104.1	5215.55
959.3399	2311.7669	6078.05	5189.5
959.4721	2313.2031	6084.1	5194.05
959.6043	2314.6387	6062.4	5170.25
959.7365	2316.0735	6036.4	5143.3
959.8686	2317.5076	6040.45	5147.6
960.0006	2318.941	6006.25	5114.3
960.1327	2320.3737	6012.95	5117.05
960.2647	2321.8056	5993.85	5099.75
960.3967	2323.2369	5971	5078.55
960.5287	2324.6674	5938.6	5043.85
960.6606	2326.0972	5947.35	5054.05
960.7925	2327.5263	5909.9	5016.85
960.9244	2328.9547	5892.55	4999.4
961.0562	2330.3823	5862.4	4965.65
961.1881	2331.8092	5865.85	4964.9
961.3198	2333.2355	5857.25	4961.45
961.4516	2334.661	5838.6	4941.8
961.5833	2336.0858	5822.2	4927.85
961.715	2337.5098	5798.45	4905.25
961.8467	2338.9332	5786.95	4894.5
961.9783	2340.3558	5768.55	4873.55
962.1099	2341.7778	5754.15	4863.35
962.2415	2343.199	5735.25	4840
962.373	2344.6195	5714.3	4822.95
962.5045	2346.0393	5717	4825.65
962.636	2347.4583	5704.05	4811.7
962.7675	2348.8767	5680	4785
962.8989	2350.2943	5690.5	4792.85
963.0303	2351.7113	5682.25	4783
963.1617	2353.1275	5655.6	4760.05
963.293	2354.543	5667.4	4748.45
963.4243	2355.9578	5622.25	4725.8
963.5556	2357.3718	5588.45	4698.3
963.6868	2358.7852	5574.75	4681.95
963.818	2360.1978	5567.7	4677.5
963.9492	2361.6098	5548.75	4658.1
964.0803	2363.021	5527.45	4631.85
964.2114	2364.4315	5525.95	4634.45
964.3425	2365.8413	5488.9	4593.65
964.4736	2367.2504	5481.85	4588.1
964.6046	2368.6587	5460.65	4569.2
964.7356	2370.0664	5442.2	4550.45
964.8666	2371.4733	5427.6	4535.1
964.9975	2372.8795	5411.4	4517.65
965.1284	2374.285	5384.45	4491.95
965.2593	2375.6899	5365.15	4472.35
965.3901	2377.0939	5367.55	4475.05
965.5209	2378.4973	5334.75	4443.75
965.6517	2379.9	5311.95	4417.75
965.7825	2381.3019	5318.7	4425.95
965.9132	2382.7032	5306.2	4415.35
966.0439	2384.1037	5284.15	4395.5
966.1745	2385.5035	5269.3	4378.7
966.3051	2386.9027	5254.9	4366.35
966.4357	2388.3011	5252.75	4358.35
966.5663	2389.6987	5211.55	4319.05
966.6968	2391.0957	5212.25	4320.75
966.8273	2392.492	5181.45	4290.95
966.9578	2393.8876	5149.3	4256.75
967.0882	2395.2824	5157.45	4265.5
967.2186	2396.6765	5133.05	4240.5
967.349	2398.07	5107.5	4214.75
967.4793	2399.4627	5100.95	4205.1
967.6097	2400.8547	5099.6	4205.95
967.7399	2402.246	5102.1	4200.5
967.8702	2403.6366	5061.4	4167.75
968.0004	2405.0265	5021.45	4130.45
968.1306	2406.4156	5014.45	4117.75
968.2607	2407.8041	5016.6	4120.5
968.3909	2409.1918	4984.8	4089.8
968.521	2410.5789	4951.55	4057.65
968.651	2411.9652	4974.9	4075.4
968.781	2413.3508	4961.4	4066.45
968.911	2414.7358	4926.5	4030.2
969.041	2416.12	4900.85	4006.05
969.1709	2417.5035	4893.2	4002
969.3008	2418.8863	4878	3983.3
969.4307	2420.2684	4872.05	3977.8
969.5606	2421.6497	4853.65	3958.3
969.6904	2423.0304	4826.45	3932.5
969.8201	2424.4104	4804.7	3911
969.9499	2425.7896	4803.9	3908.7
970.0796	2427.1682	4796.25	3903.5
970.2093	2428.546	4785.85	3890.95
970.3389	2429.9232	4769.05	3873.7
970.4685	2431.2996	4765.05	3870.9
970.5981	2432.6753	4728.45	3833.5
970.7277	2434.0503	4732.3	3835.6
970.8572	2435.4246	4703.95	3810
970.9867	2436.7982	4689.85	3793.45
971.1161	2438.1711	4684.55	3791.95
971.2456	2439.5433	4668.6	3772.85
971.375	2440.9148	4649.35	3748.5
971.5043	2442.2856	4631	3737.3
971.6336	2443.6557	4619.8	3724.3
971.7629	2445.025	4585.25	3689.85
971.8922	2446.3937	4597.1	3699.55
972.0214	2447.7617	4583.7	3689.2
972.1506	2449.1289	4571.95	3678.65
972.2798	2450.4955	4573.25	3677.35
972.4089	2451.8613	4559.3	3668.1
972.538	2453.2265	4545.45	3653.4
972.6671	2454.5909	4537.05	3643.65
972.7961	2455.9546	4530.3	3638.05
972.9251	2457.3177	4509.4	3616.3
973.0541	2458.68	4497.05	3602.7
973.1831	2460.0416	4485.05	3590.95
973.312	2461.4025	4491.05	3597.8
973.4408	2462.7627	4482.5	3578.5
973.5697	2464.1222	4460.95	3571.15
973.6985	2465.4811	4431.55	3540.2
973.8273	2466.8392	4434.65	3544.1
973.956	2468.1966	4427.15	3530.5
974.0847	2469.5533	4427.4	3531.25
974.2134	2470.9093	4412.8	3518.6
974.3421	2472.2645	4398.15	3504.95
974.4707	2473.6191	4389.1	3497.05
974.5993	2474.973	4383.6	3489.6
974.7278	2476.3262	4366.7	3474.1
974.8563	2477.6787	4339.95	3446.85
974.9848	2479.0305	4327.65	3435.15
975.1132	2480.3816	4308.5	3415.65
975.2417	2481.7319	4286.45	3393.75
975.37	2483.0816	4304.3	3410.85
975.4984	2484.4306	4294.15	3401.3
975.6267	2485.7789	4262.05	3370.95
975.755	2487.1264	4248.2	3355.6
975.8833	2488.4733	4236.2	3346.45
976.0115	2489.8195	4245.4	3335.45
976.1397	2491.165	4229.3	3333.95
976.2678	2492.5097	4201.25	3307.3
976.3959	2493.8538	4183.6	3293.5
976.524	2495.1972	4149.75	3258.15
976.6521	2496.5398	4143.95	3249.9
976.7801	2497.8818	4142.95	3247.1
976.9081	2499.2231	4133.65	3241.35
977.036	2500.5637	4108.35	3214.8
977.164	2501.9035	4105.15	3210.65
977.2918	2503.2427	4096	3198.05
977.4197	2504.5812	4089.3	3195.5
977.5475	2505.919	4071.95	3178.15
977.6753	2507.256	4074.7	3181.65
977.8031	2508.5924	4036.85	3142.2
977.9308	2509.9281	4049.1	3149.75
978.0585	2511.2631	4046.5	3153.6
978.1861	2512.5974	4023.55	3133.25
978.3137	2513.9309	4024.75	3133.9
978.4413	2515.2638	4014.4	3097.3
978.5689	2516.596	3987.95	3094.45
978.6964	2517.9275	3974.45	3080.8
978.8239	2519.2583	3976	3081.85
978.9513	2520.5884	3950.8	3056.25
979.0788	2521.9178	3938.95	3047.7
979.2062	2523.2465	3931.25	3041.3
979.3335	2524.5745	3903.75	3013.85
979.4608	2525.9018	3901.7	3008.3
979.5881	2527.2284	3888.5	2997.8
979.7154	2528.5543	3881.35	2986.95
979.8426	2529.8796	3863.6	2969.7
979.9698	2531.2041	3885.35	2993.2
980.0969	2532.5279	3873.95	2984.85
980.224	2533.851	3856.75	2964.9
980.3511	2535.1735	3850.25	2957
980.4781	2536.4952	3841.85	2948.9
980.6052	2537.8163	3844.05	2950.55
980.7321	2539.1366	3826.75	2934.8
980.8591	2540.4562	3807.15	2911.4
980.986	2541.7752	3808.9	2914.1
981.1129	2543.0935	3817.35	2924.3
981.2397	2544.411	3797.5	2902.15
981.3665	2545.7279	3799.85	2907.7
981.4933	2547.0441	3781.2	2889.5
981.62	2548.3596	3788.35	2892.3
981.7467	2549.6744	3771.25	2876.85
981.8734	2550.9885	3762.4	2866.95
982.0001	2552.3019	3769.05	2874.5
982.1267	2553.6146	3735.7	2841.85
982.2532	2554.9266	3734.25	2838.95
982.3798	2556.2379	3715.6	2820.6
982.5063	2557.5485	3728.65	2837.95
982.6327	2558.8585	3727.6	2827.8
982.7592	2560.1677	3710.5	2811.95
982.8856	2561.4762	3693.7	2799.4
983.0119	2562.7841	3696.95	2800.45
983.1383	2564.0913	3683.25	2790.3
983.2646	2565.3977	3658.75	2766.55
983.3908	2566.7035	3670.9	2775.95
983.517	2568.0086	3656.2	2760.9
983.6432	2569.313	3667.05	2771.7
983.7694	2570.6167	3646.25	2748.9
983.8955	2571.9197	3644.2	2749
984.0216	2573.222	3637.15	2739.65
984.1476	2574.5236	3619.8	2726.7
984.2737	2575.8246	3616.7	2721.05
984.3996	2577.1248	3611.25	2715.05
984.5256	2578.4244	3599.7	2708.05
984.6515	2579.7232	3605.6	2713.15
984.7774	2581.0214	3606.8	2684.15
984.9032	2582.3189	3596.35	2703.05
985.029	2583.6157	3592.4	2692.3
985.1548	2584.9118	3569.4	2676.45
985.2806	2586.2072	3566.15	2672.2
985.4063	2587.5019	3566.35	2674.6
985.5319	2588.7959	3554.05	2660.9
985.6576	2590.0893	3550.15	2655.5
985.7832	2591.3819	3541.3	2646.7
985.9087	2592.6739	3535.85	2643.7
986.0343	2593.9652	3525.85	2630.55
986.1597	2595.2557	3517.25	2622
986.2852	2596.5456	3506.55	2611.75
986.4106	2597.8348	3498.35	2604.9
986.536	2599.1234	3486.35	2591.1
986.6614	2600.4112	3475.75	2581.7
986.7867	2601.6983	3464.5	2568.65
986.912	2602.9848	3455.1	2561.55
987.0372	2604.2705	3451.5	2552.6
987.1624	2605.5556	3452	2556.65
987.2876	2606.84	3437.05	2544.85
987.4128	2608.1237	3436.1	2543.05
987.5379	2609.4067	3419.15	2525.25
987.6629	2610.689	3411.7	2510.85
987.788	2611.9707	3393.35	2496.2
987.913	2613.2516	3388.45	2490.8
988.0379	2614.5319	3374.15	2480.4
988.1629	2615.8115	3358.4	2466.1
988.2878	2617.0903	3353.75	2460
988.4126	2618.3685	3345.35	2452.6
988.5375	2619.6461	3344	2449.6
988.6622	2620.9229	3331.65	2439.15
988.787	2622.199	3317.45	2424.65
988.9117	2623.4745	3324.4	2432.05
989.0364	2624.7493	3300.35	2410.4
989.161	2626.0234	3281	2390
989.2857	2627.2968	3278	2385.25
989.4102	2628.5695	3264.1	2367.1
989.5348	2629.8415	3252.55	2360.75
989.6593	2631.1128	3247.35	2354.3
989.7837	2632.3835	3242.7	2350.05
989.9082	2633.6535	3233.5	2342.45
990.0326	2634.9228	3215	2323.95
990.1569	2636.1914	3219.05	2327.55
990.2812	2637.4593	3213.6	2320.1
990.4055	2638.7265	3204.85	2311.45
990.5298	2639.9931	3195.25	2301.95
990.654	2641.259	3193.35	2300.05
990.7782	2642.5242	3177.55	2286.6
990.9023	2643.7887	3182.5	2289.4
991.0264	2645.0525	3160.45	2269.05
991.1505	2646.3156	3165.55	2258.55
991.2745	2647.5781	3138.75	2245.25
991.3985	2648.8398	3135.45	2243
991.5225	2650.1009	3157.85	2239.35
991.6464	2651.3613	3113.9	2221.7
991.7703	2652.6211	3120	2230.15
991.8942	2653.8801	3112.45	2221.1
992.018	2655.1385	3092.85	2198.45
992.1418	2656.3961	3093.5	2200.55
992.2655	2657.6531	3095.25	2202.45
992.3892	2658.9094	3096.2	2203.65
992.5129	2660.1651	3088.15	2197.85
992.6366	2661.42	3073.45	2181
992.7602	2662.6743	3061.2	2171.2
992.8837	2663.9279	3063.55	2174.2
993.0073	2665.1808	3045.7	2154.9
993.1307	2666.433	3060.1	2168
993.2542	2667.6846	3050.65	2157.85
993.3776	2668.9354	3052.25	2157.7
993.501	2670.1856	3045.6	2153.3
993.6244	2671.4351	3046.4	2154.3
993.7477	2672.6839	3046.75	2152.45
993.8709	2673.9321	3016.6	2125.15
993.9942	2675.1795	3028.9	2137.2
994.1174	2676.4263	3014.5	2123.9
994.2405	2677.6724	3004.75	2112.4
994.3637	2678.9179	3015.65	2123.7
994.4868	2680.1626	3005.1	2114.6
994.6098	2681.4067	2982.55	2090.5
994.7328	2682.6501	2982.95	2090.95
994.8558	2683.8928	2974.8	2084.1
994.9788	2685.1348	2977.7	2086.25
995.1017	2686.3761	2959.6	2069.2
995.2245	2687.6168	2957	2067.35
995.3474	2688.8568	2953.5	2062.5
995.4702	2690.0961	2928.3	2039.2
995.5929	2691.3348	2937.6	2045.9
995.7156	2692.5727	2924.15	2032.35
995.8383	2693.81	2915.5	2023.4
995.961	2695.0466	2902.75	2012.3
996.0836	2696.2826	2915.75	2024.35
996.2062	2697.5178	2909.6	2018.6
996.3287	2698.7524	2881.1	1989.15
996.4512	2699.9863	2893.85	2000.9
996.5737	2701.2195	2875.2	1985.1
996.6961	2702.452	2876.6	1985.05
996.8185	2703.6839	2878.85	1985.25
996.9408	2704.9151	2869.05	1978.9
997.0631	2706.1456	2862.55	1972.75
997.1854	2707.3755	2866.9	1974.55
997.3077	2708.6046	2865.95	1971.5
997.4299	2709.8331	2857.55	1965.75
997.552	2711.0609	2865.25	1976
997.6742	2712.2881	2861.95	1971.75
997.7963	2713.5145	2854.3	1960.3
997.9183	2714.7403	2859	1969.4
998.0403	2715.9654	2858.8	1965.35
998.1623	2717.1899	2878.2	1972.7
998.2842	2718.4136	2862	1969.95
998.4062	2719.6367	2859.25	1969.35
998.528	2720.8591	2864.4	1968.45
998.6498	2722.0809	2864.95	1974.4
998.7716	2723.3019	2864.1	1970.15
998.8934	2724.5223	2876.9	1987.8
999.0151	2725.7421	2875.7	1982.45
999.1368	2726.9611	2860.3	1966
999.2584	2728.1795	2860.55	1964.95
999.38	2729.3972	2841	1950.3
999.5016	2730.6142	2828.8	1932.3
999.6231	2731.8306	2799.7	1908.2
999.7446	2733.0462	2790.85	1898.3
999.8661	2734.2612	2767.7	1871.7
999.9875	2735.4756	2741.55	1852.1
1000.1089	2736.6892	2744.8	1852.75
1000.2302	2737.9022	2717.05	1827.4
1000.3515	2739.1145	2695.95	1806.1
1000.4728	2740.3262	2699.65	1804.4
1000.594	2741.5372	2682.65	1792.6
1000.7152	2742.7475	2659.1	1768.9
1000.8363	2743.9571	2646.25	1754.5
1000.9575	2745.1661	2641.5	1744.6
1001.0785	2746.3744	2628.65	1737.35
1001.1996	2747.582	2613.2	1722.35
1001.3206	2748.7889	2607.15	1716.1
1001.4415	2749.9952	2598.9	1711.4
1001.5625	2751.2008	2585.25	1695.8
1001.6833	2752.4057	2586.65	1693.1
1001.8042	2753.61	2582.45	1691.65
1001.925	2754.8136	2569.2	1676.15
1002.0458	2756.0165	2552.35	1663.5
1002.1665	2757.2188	2561.05	1672.2
1002.2872	2758.4204	2544.35	1656.5
1002.4078	2759.6213	2547.35	1656.25
1002.5285	2760.8215	2537.35	1641.95
1002.649	2762.0211	2543.1	1651.65
1002.7696	2763.22	2527.1	1635.4
1002.8901	2764.4182	2518.75	1628.25
1003.0106	2765.6158	2517.05	1626.95
1003.131	2766.8127	2498.1	1608.15
1003.2514	2768.009	2500.95	1610.9
1003.3717	2769.2045	2495.45	1604.85
1003.492	2770.3994	2486.55	1594.9
1003.6123	2771.5936	2474.15	1582.65
1003.7325	2772.7872	2451.7	1564
1003.8527	2773.9801	2452.8	1562.25
1003.9729	2775.1723	2465.5	1558.2
1004.093	2776.3639	2444.95	1556.25
1004.2131	2777.5548	2445.95	1555.7
1004.3331	2778.745	2442.65	1552.85
1004.4531	2779.9346	2424.5	1537.1
1004.5731	2781.1235	2430.05	1541.9
1004.693	2782.3117	2423.45	1535.8
1004.8129	2783.4992	2421.85	1532.7
1004.9328	2784.6861	2422.8	1532.75
1005.0526	2785.8723	2407.75	1518.35
1005.1723	2787.0579	2413.6	1523.7
1005.2921	2788.2428	2403.25	1514.45
1005.4118	2789.427	2415.8	1527.5
1005.5314	2790.6106	2412.35	1524.95
1005.651	2791.7935	2416.1	1527.05
1005.7706	2792.9757	2415.75	1528.55
1005.8902	2794.1573	2422.2	1533.4
1006.0097	2795.3382	2423.4	1534.55
1006.1291	2796.5184	2428.85	1542.9
1006.2485	2797.698	2432.35	1543.45
1006.3679	2798.8769	2434.25	1546.95
1006.4873	2800.0551	2438.25	1547.3
1006.6066	2801.2327	2450.2	1560.55
1006.7258	2802.4096	2441.6	1553.5
1006.8451	2803.5859	2458	1571
1006.9642	2804.7615	2466.15	1577.95
1007.0834	2805.9364	2485.3	1597.7
1007.2025	2807.1106	2491	1603.8
1007.3216	2808.2842	2517.65	1629.55
1007.4406	2809.4572	2530.1	1641.6
1007.5596	2810.6294	2550.65	1660.75
1007.6785	2811.801	2585	1697.6
1007.7975	2812.972	2597.1	1709
1007.9163	2814.1423	2623.65	1736.15
1008.0352	2815.3119	2664.75	1777.85
1008.154	2816.4808	2696.45	1807.9
1008.2727	2817.6491	2736.1	1847.15
1008.3914	2818.8167	2748.3	1859.55
1008.5101	2819.9837	2801.45	1909.15
1008.6288	2821.15	2840.85	1953.55
1008.7474	2822.3157	2872.25	1986.7
1008.8659	2823.4807	2916.3	2027.4
1008.9844	2824.645	2968.2	2078.05
1009.1029	2825.8086	2997	2109.75
1009.2214	2826.9716	3042.8	2156.3
1009.3398	2828.134	3083.95	2197.3
1009.4581	2829.2957	3120.65	2233.5
1009.5764	2830.4567	3135.75	2248.8
1009.6947	2831.617	3157.3	2268.15
1009.813	2832.7767	3165.2	2277.2
1009.9312	2833.9358	3138.45	2253.15
1010.0493	2835.0941	3154.85	2265.8
1010.1675	2836.2519	3136.3	2251.15
1010.2855	2837.4089	3129.25	2241.7
1010.4036	2838.5653	3104.45	2220.2
1010.5216	2839.7211	3098	2212.6
1010.6396	2840.8761	3082.6	2192.7
1010.7575	2842.0306	3100.25	2214.2
1010.8754	2843.1843	3112.65	2225.5
1010.9932	2844.3374	3134.35	2246.4
1011.111	2845.4899	3164.95	2276.4
1011.2288	2846.6417	3222.85	2336.25
1011.3465	2847.7928	3259.95	2375.45
1011.4642	2848.9433	3300.95	2414.6
1011.5818	2850.0931	3363.55	2477.9
1011.6995	2851.2422	3403.85	2516.15
1011.817	2852.3907	3451.25	2563.75
1011.9345	2853.5385	3495.2	2607.65
1012.052	2854.6857	3538.45	2643.2
1012.1695	2855.8323	3564.45	2676.9
1012.2869	2856.9781	3603.75	2716.75
1012.4042	2858.1233	3644.65	2757.2
1012.5216	2859.2679	3681.6	2794.8
1012.6389	2860.4118	3711.7	2825.65
1012.7561	2861.555	3742.25	2850.3
1012.8733	2862.6976	3779.8	2889.8
1012.9905	2863.8395	3800.05	2911.55
1013.1076	2864.9808	3830.1	2944.15
1013.2247	2866.1214	3816.4	2932.25
1013.3417	2867.2614	3833.65	2945.15
1013.4587	2868.4007	3848	2960.25
1013.5757	2869.5393	3869.2	2982
1013.6926	2870.6773	3874.65	2985.25
1013.8095	2871.8146	3875.15	2984.8
1013.9263	2872.9513	3879.6	2990.7
1014.0431	2874.0874	3854.7	2968.25
1014.1599	2875.2227	3848.15	2960.4
1014.2766	2876.3574	3836.3	2949.1
1014.3933	2877.4915	3808.15	2920.75
1014.51	2878.6249	3764.5	2879.25
1014.6266	2879.7577	3753	2866.2
1014.7431	2880.8898	3744.15	2847.4
1014.8596	2882.0212	3718.35	2832
1014.9761	2883.152	3708.55	2823.3
1015.0925	2884.2821	3699.4	2813.55
1015.2089	2885.4116	3687.75	2800.95
1015.3253	2886.5405	3682.55	2795.1
1015.4416	2887.6686	3701.95	2811.5
1015.5579	2888.7962	3686	2802.3
1015.6741	2889.923	3689.85	2804.6
1015.7903	2891.0493	3688.5	2803.25
1015.9065	2892.1748	3696.6	2811.6
1016.0226	2893.2997	3695.5	2809.7
1016.1387	2894.424	3689.65	2804.35
1016.2547	2895.5476	3717.05	2830.45
1016.3707	2896.6706	3736.95	2852.6
1016.4866	2897.7929	3749.75	2861.85
1016.6025	2898.9145	3759.1	2874.65
1016.7184	2900.0355	3790.6	2905.85
1016.8342	2901.1559	3787.3	2902.5
1016.95	2902.2756	3806.4	2920.55
1017.0658	2903.3946	3845.05	2960.95
1017.1815	2904.513	3865.5	2975.6
1017.2971	2905.6308	3886.6	3002.05
1017.4127	2906.7479	3892.85	3005.65
1017.5283	2907.8643	3908.4	3022.45
1017.6439	2908.9801	3926.25	3040.35
1017.7594	2910.0953	3923.7	3036.3
1017.8748	2911.2098	3922.8	3035.3
1017.9902	2912.3236	3900.85	3004.8
1018.1056	2913.4368	3897.75	3008.55
1018.2209	2914.5494	3880.35	2995.75
1018.3362	2915.6613	3854	2962.4
1018.4515	2916.7725	3817.95	2930.05
1018.5667	2917.8831	3789.35	2904.6
1018.6819	2918.9931	3768.8	2881.1
1018.797	2920.1024	3725.4	2839.35
1018.9121	2921.211	3711.5	2824.35
1019.0271	2922.319	3693.5	2807.9
1019.1421	2923.4264	3685.8	2802.65
1019.2571	2924.5331	3679.4	2796.4
1019.372	2925.6391	3666.35	2782.8
1019.4869	2926.7445	3644.45	2759.9
1019.6017	2927.8493	3650.6	2764.3
1019.7165	2928.9534	3658.3	2772.2
1019.8313	2930.0569	3640.85	2752.3
1019.946	2931.1597	3645.45	2757.35
1020.0606	2932.2619	3648.55	2762.6
1020.1753	2933.3634	3660.95	2775.85
1020.2899	2934.4643	3665.25	2773.8
1020.4044	2935.5645	3643.6	2754.3
1020.5189	2936.6641	3630.75	2742.1
1020.6334	2937.763	3591.3	2706.9
1020.7478	2938.8613	3560.15	2673.75
1020.8622	2939.959	3506.3	2617.85
1020.9765	2941.056	3467.2	2582.3
1021.0908	2942.1523	3401.7	2515.45
1021.2051	2943.248	3330.6	2443.95
1021.3193	2944.3431	3264.9	2382.55
1021.4334	2945.4375	3178.5	2292.5
1021.5476	2946.5313	3104.35	2220.2
1021.6617	2947.6244	3018.45	2133.15
1021.7757	2948.7169	2930.95	2047.55
1021.8897	2949.8087	2861.1	1976.25
1022.0037	2950.8999	2783.65	1897.35
1022.1176	2951.9904	2722.9	1838.3
1022.2315	2953.0803	2660.1	1775
1022.3453	2954.1696	2614.7	1728.65
1022.4591	2955.2582	2556.45	1671.05
1022.5728	2956.3462	2520	1633.55
1022.6865	2957.4335	2489.2	1602.25
1022.8002	2958.5202	2457.55	1570.95
1022.9138	2959.6062	2422.05	1536.95
1023.0274	2960.6916	2403	1519.35
1023.141	2961.7764	2397.55	1513.55
1023.2545	2962.8605	2376.8	1491.5
1023.3679	2963.9439	2358.95	1474.65
1023.4813	2965.0267	2347.6	1461.5
1023.5947	2966.1089	2362.4	1455.1
1023.708	2967.1905	2326.9	1442.7
1023.8213	2968.2714	2319.65	1438.2
1023.9346	2969.3516	2322.2	1437.65
1024.0478	2970.4312	2328.75	1437.6
1024.1609	2971.5102	2327.65	1441.95
1024.274	2972.5885	2316.05	1432
1024.3871	2973.6662	2324.5	1433.3
1024.5002	2974.7432	2310.9	1426.2
1024.6132	2975.8196	2303.05	1420.05
1024.7261	2976.8954	2311.2	1426.15
1024.839	2977.9705	2299.2	1417.2
1024.9519	2979.045	2287.4	1401.95
1025.0647	2980.1188	2271.1	1386.55
1025.1775	2981.192	2257.85	1375.05
1025.2902	2982.2645	2242.2	1354.75
1025.4029	2983.3364	2210.8	1326.2
1025.5156	2984.4077	2198.25	1314.95
1025.6282	2985.4783	2178.05	1290.4
1025.7407	2986.5483	2148.85	1266.45
1025.8532	2987.6177	2114.4	1231.9
1025.9657	2988.6864	2092.5	1208.85
1026.0782	2989.7545	2063	1177.95
1026.1906	2990.8219	2038.65	1153.75
1026.3029	2991.8887	2013.95	1127.45
1026.4152	2992.9548	1974	1089.8
1026.5275	2994.0204	1950.1	1065.1
1026.6397	2995.0852	1922	1040.55
1026.7519	2996.1495	1896.7	1011.65
1026.864	2997.2131	1881.5	996.95
1026.9761	2998.276	1857.75	973.15
1027.0882	2999.3383	1831.95	946.25
1027.2002	3000.4	1819.7	934.7
1027.3122	3001.4611	1794.3	910.5
1027.4241	3002.5215	1786.8	903.05
1027.536	3003.5812	1766.85	881.5
1027.6478	3004.6404	1760.15	874
1027.7596	3005.6989	1749.05	863.1
1027.8714	3006.7567	1736.8	852.1
1027.9831	3007.8139	1744.05	841.15
1028.0947	3008.8705	1718.75	834.35
1028.2064	3009.9264	1726.75	826.9
1028.3179	3010.9818	1701.7	817.5
1028.4295	3012.0364	1690.1	804.55
1028.541	3013.0905	1680.1	796.9
1028.6524	3014.1439	1684.25	801.75
1028.7638	3015.1966	1676.7	793.4
1028.8752	3016.2487	1672.4	787.5
1028.9865	3017.3002	1674.15	787.55
1029.0978	3018.3511	1669.25	787.75
1029.209	3019.4013	1659.45	776.4
1029.3202	3020.4509	1651.55	768.7
1029.4314	3021.4998	1649.75	765.7
1029.5425	3022.5481	1644.45	760.05
1029.6535	3023.5958	1650.9	768.4
1029.7645	3024.6428	1652.2	768.95
1029.8755	3025.6892	1640.65	757.35
1029.9864	3026.735	1638.85	754.8
1030.0973	3027.7802	1641.15	757.1
1030.2082	3028.8247	1634.5	754.15
1030.319	3029.8685	1629.7	746.1
1030.4297	3030.9118	1642.65	759.1
1030.5404	3031.9544	1630.5	747.65
1030.6511	3032.9963	1634.25	751.25
1030.7617	3034.0376	1634.95	752.15
1030.8723	3035.0783	1642.05	756.95
1030.9829	3036.1184	1645.2	760.75
1031.0934	3037.1578	1638.8	757.3
1031.2038	3038.1966	1642.35	756.45
1031.3142	3039.2348	1629.35	747.05
1031.4246	3040.2723	1648.2	758.4
1031.5349	3041.3092	1627.95	745.45
1031.6452	3042.3455	1621.7	736.4
1031.7554	3043.3811	1627.9	745.45
1031.8656	3044.4161	1620.2	735.85
1031.9758	3045.4505	1613.4	731.85
1032.0859	3046.4842	1616.85	730.85
1032.1959	3047.5173	1602.4	719.25
1032.3059	3048.5498	1603.2	720.95
1032.4159	3049.5816	1603.85	720.65
1032.5258	3050.6128	1598.6	712.6
1032.6357	3051.6434	1592.4	706.95
1032.7455	3052.6734	1589.65	706.25
1032.8553	3053.7027	1586.6	704
1032.9651	3054.7314	1579.95	697.5
1033.0748	3055.7594	1568.35	686.6
1033.1845	3056.7868	1574.6	691.6
1033.2941	3057.8136	1567	683.7
1033.4037	3058.8398	1559.3	677.45
1033.5132	3059.8653	1551.9	669.05
1033.6227	3060.8902	1553.4	670.3
1033.7321	3061.9145	1549.25	666.2
1033.8415	3062.9381	1545.6	661.5
1033.9509	3063.9612	1557.45	658.65
1034.0602	3064.9835	1540.1	656.25
1034.1694	3066.0053	1535.1	650.45
1034.2787	3067.0264	1525.15	641.95
1034.3878	3068.0469	1523.2	638.7
1034.497	3069.0668	1523.65	639
1034.6061	3070.086	1512.55	631.25
1034.7151	3071.1046	1503.2	619.2
1034.8241	3072.1226	1498.35	614.5
1034.9331	3073.1399	1488.95	605.8
1035.042	3074.1567	1479.3	597.1
1035.1508	3075.1727	1473.85	591.2
1035.2597	3076.1882	1461.45	576.85
1035.3684	3077.203	1458.85	576.15
1035.4772	3078.2173	1451.25	565.45
1035.5859	3079.2308	1450.1	564.75
1035.6945	3080.2438	1448.4	564.9
1035.8031	3081.2561	1439.7	557.45
1035.9117	3082.2678	1426.95	544.2
1036.0202	3083.2789	1431.35	547.25
1036.1286	3084.2893	1419.5	535.45
1036.2371	3085.2991	1415.8	532.15
1036.3454	3086.3083	1410.45	524.3
1036.4538	3087.3169	1400	515.7
1036.562	3088.3248	1394.05	510.55
1036.6703	3089.3321	1390.15	506.55
1036.7785	3090.3388	1381.6	500.1
1036.8866	3091.3449	1382.15	499.4
1036.9948	3092.3503	1377.4	492.9
1037.1028	3093.3551	1364.15	483.1
1037.2108	3094.3593	1359.55	475.8
1037.3188	3095.3629	1360.7	480
1037.4267	3096.3658	1358.95	474.3
1037.5346	3097.3681	1354.3	470.55
1037.6425	3098.3698	1348.9	464.5
1037.7503	3099.3708	1354.45	465.35
1037.858	3100.3713	1344.35	462.15
1037.9657	3101.3711	1341.05	456.9
1038.0734	3102.3702	1474.1	458.35
1038.181	3103.3688	1335.75	451.2
1038.2886	3104.3667	1325	444.05
1038.3961	3105.364	1328.5	445.7
1038.5036	3106.3607	1320.3	436.35
1038.611	3107.3568	1322.65	439.9
1038.7184	3108.3522	1310.4	426.95
1038.8257	3109.347	1315.8	430
1038.933	3110.3412	1313.3	426.75
1039.0403	3111.3348	1310.3	428.35
1039.1475	3112.3277	1302.35	419.75
1039.2547	3113.32	1300.3	417.05
1039.3618	3114.3117	1303.3	421.05
1039.4689	3115.3028	1295.95	413.95
1039.5759	3116.2932	1294.6	409.25
1039.6829	3117.2831	1297.85	410.85
1039.7898	3118.2723	1285.25	404.05
1039.8967	3119.2608	1284.65	403.9
1040.0035	3120.2488	1280.85	396.85
1040.1103	3121.2361	1281.95	400.05
1040.2171	3122.2229	1273.35	390.75
1040.3238	3123.209	1276.2	394.75
1040.4305	3124.1944	1275.95	395.15
1040.5371	3125.1793	1266.95	384.05
1040.6437	3126.1635	1264.7	384.1
1040.7502	3127.1471	1263.45	382.7
1040.8567	3128.1301	1258.95	377.45
1040.9631	3129.1125	1253.8	372.7
1041.0695	3130.0942	1255.85	372.05
1041.1759	3131.0753	1261	370.15
1041.2822	3132.0558	1260.3	374.9
1041.3884	3133.0357	1251.25	369.3
1041.4946	3134.015	1254.65	370.85
1041.6008	3134.9936	1249.65	365.75
1041.7069	3135.9716	1266.3	361.75
1041.813	3136.949	1238	357.05
1041.919	3137.9258	1255.25	355.15
1042.025	3138.902	1246.25	358.7
1042.1309	3139.8775	1229.15	347.75
1042.2368	3140.8524	1232.05	351.1
1042.3427	3141.8267	1230.25	345.75
1042.4485	3142.8004	1230.85	348.85
1042.5542	3143.7735	1236.25	346.1
1042.6599	3144.7459	1232.25	348.75
1042.7656	3145.7178	1227.15	344.7
1042.8712	3146.689	1224.15	342.85
1042.9768	3147.6596	1224.5	341.75
1043.0823	3148.6295	1217.05	334.55
1043.1878	3149.5989	1213.4	329.3
1043.2932	3150.5676	1218.6	338.95
1043.3986	3151.5357	1205.35	324.15
1043.5039	3152.5032	1206.95	324.05
1043.6092	3153.4701	1209.05	326.15
1043.7145	3154.4364	1216.1	333.9
1043.8197	3155.402	1208.35	325.35
1043.9248	3156.367	1208.25	325.9
1044.03	3157.3315	1238.15	319.5
1044.135	3158.2952	1202.15	320.85
1044.24	3159.2584	1199	319.7
1044.345	3160.221	1191.85	310.35
1044.4499	3161.1829	1191.1	309.5
1044.5548	3162.1442	1186.1	303.8
1044.6596	3163.105	1184.45	303.55
1044.7644	3164.065	1187.15	304.45
1044.8692	3165.0245	1192.35	307
1044.9739	3165.9834	1189.95	310.95
1045.0785	3166.9416	1190.25	307.8
1045.1831	3167.8993	1183.1	301.5
1045.2877	3168.8563	1177.75	297.7
1045.3922	3169.8127	1178.6	298.45
1045.4966	3170.7684	1179.8	296.5
1045.6011	3171.7236	1175	293.2
1045.7054	3172.6782	1167.9	287.85
1045.8098	3173.6321	1174.55	292.1
1045.914	3174.5854	1174.1	287.85
1046.0183	3175.5381	1166.7	285.05
1046.1224	3176.4902	1170.8	289.25
1046.2266	3177.4417	1162.95	281.1
1046.3307	3178.3926	1158.2	277.75
1046.4347	3179.3428	1163.25	281.65
1046.5387	3180.2924	1157.15	275.45
1046.6427	3181.2415	1159.2	277
1046.7466	3182.1899	1159	275.4
1046.8504	3183.1377	1151.25	271.5
1046.9542	3184.0848	1157.85	271.85
1047.058	3185.0314	1153.75	271.85
1047.1617	3185.9773	1151.3	269.6
1047.2654	3186.9227	1148.15	263.95
1047.369	3187.8674	1150.35	269.25
1047.4726	3188.8115	1150.5	264.4
1047.5761	3189.755	1142.4	260.4
1047.6796	3190.6979	1140	256.4
1047.783	3191.6402	1132.3	250.9
1047.8864	3192.5818	1143.3	261.7
1047.9898	3193.5229	1145.7	260.05
1048.0931	3194.4633	1139	257.45
1048.1963	3195.4031	1138.2	256.05
1048.2995	3196.3423	1136.2	255.6
1048.4027	3197.2809	1132.65	250.7
1048.5058	3198.2189	1133.4	251.35
1048.6089	3199.1563	1139.75	250.15
1048.7119	3200.0931	1124.95	245.5
1048.8148	3201.0292	1130.6	251.45
1048.9178	3201.9648	1126	245.8
1049.0206	3202.8997	1125.9	241.9
1049.1235	3203.834	1126.4	247.25
1049.2262	3204.7677	1119.7	238.6
1049.329	3205.7008	1126.85	242.35
1049.4317	3206.6333	1118.3	239.9
1049.5343	3207.5652	1120.65	235.7
1049.6369	3208.4964	1117.8	236.15
1049.7394	3209.4271	1113.45	232.2
1049.8419	3210.3571	1117.05	237.05
1049.9444	3211.2865	1109.05	225.85
1050.0468	3212.2154	1113.75	232.1
1050.1491	3213.1436	1114.65	231.3
1050.2514	3214.0712	1115.35	228.6
1050.3537	3214.9982	1111.65	232.7
1050.4559	3215.9246	1107.45	225.35
1050.5581	3216.8503	1106.75	226.5
1050.6602	3217.7755	1107.55	228.1
1050.7623	3218.7001	1107.4	226.85
1050.8643	3219.624	1103.1	222.65
1050.9663	3220.5473	1104.3	221.5
1051.0682	3221.4701	1100.75	219.75
1051.1701	3222.3922	1097.4	215.15
1051.2719	3223.3137	1096.25	215.2
1051.3737	3224.2346	1094.15	213.5
1051.4754	3225.1549	1096.3	216.05
1051.5771	3226.0746	1096.95	217
1051.6788	3226.9937	1100.15	216.25
1051.7804	3227.9121	1094	214.75
1051.8819	3228.83	1089	209.6
1051.9834	3229.7473	1092.65	210.1
1052.0849	3230.6639	1091.45	209.7
1052.1863	3231.5799	1084.2	204.2
1052.2876	3232.4954	1085.65	205.7
1052.3889	3233.4102	1085.8	205.2
1052.4902	3234.3244	1078.15	195.75
1052.5914	3235.238	1077.25	196.5
1052.6926	3236.151	1109.6	203.25
1052.7937	3237.0634	1080.35	199.8
1052.8948	3237.9752	1078.9	197.65
1052.9958	3238.8864	1077.45	195.3
1053.0968	3239.797	1074.35	194.65
1053.1977	3240.7069	1070.8	189.05
1053.2986	3241.6163	1071.75	189.85
1053.3994	3242.5251	1075.75	195.3
1053.5002	3243.4332	1069.85	190.1
1053.6009	3244.3408	1079.75	196.7
1053.7016	3245.2477	1069.85	189.65
1053.8022	3246.154	1071.85	190.3
1053.9028	3247.0598	1069.3	187.75
1054.0034	3247.9649	1064.85	184.4
1054.1039	3248.8694	1065.3	183.5
1054.2043	3249.7733	1061.55	181.55
1054.3047	3250.6766	1063.4	182.25
1054.4051	3251.5793	1064.65	182.7
1054.5054	3252.4814	1059.25	180.8
1054.6056	3253.3829	1057.75	176.2
1054.7058	3254.2838	1057.75	176.8
1054.806	3255.1841	1056.2	177.4
1054.9061	3256.0838	1052.4	173.55
1055.0061	3256.9829	1050.75	171.65
1055.1062	3257.8814	1052.75	169.6
1055.2061	3258.7792	1057.3	175.35
1055.306	3259.6765	1049.9	166.85
1055.4059	3260.5731	1045.2	165.95
1055.5057	3261.4692	1044.25	161.6
1055.6055	3262.3647	1040.95	157.25
1055.7052	3263.2595	1043.9	164.75
1055.8049	3264.1538	1039	158.65
1055.9045	3265.0474	1037.9	157.45
1056.0041	3265.9404	1033.45	154.7
1056.1036	3266.8329	1027.85	147.35
1056.2031	3267.7247	1033.95	144.15
1056.3025	3268.616	1023.95	145
1056.4019	3269.5066	1023.65	142
1056.5013	3270.3966	1021.3	138.8
1056.6005	3271.286	1012.55	133.35
