Software Version:	3.9.2.0
Unit SN:	10000200
Spectrometer SN:	6960
Date:	3/26/2024 1:02:54 PM
Data Line Index:	25
Spectral Points:	2048
Integration time (ms):	125
Averages:	20
Delay (ms):	30000
Sequence Number:	1
Processing:	dark subtract
Laser Power (mW):	305
Laser Current (mA):	817
Laser Diode Temp (C):	25.1
Laser Case Temp (C):	25.8
System Temp (C):	25.7
Spectrometer Temp (C):	23.4
CCD Temp (C):	0.008
Secondary Temp (C):	20.01
Heatsink Temp (C):	21.516
CCDPCB Temp (C):	36.207
SecondaryPCB Temp (C):	29.993

Wavelength	RamanShift	Raw Counts	Dark Subtracted
787.061	30.1047	423.05	13.4
787.2016	32.3739	422.5	12.75
787.3422	34.6426	424.95	13.55
787.4828	36.9109	428.85	16.2
787.6235	39.1787	432.65	15.25
787.7642	41.4461	436.8	14.6
787.9049	43.7131	444.65	19.6
788.0456	45.9796	447.4	17.55
788.1863	48.2456	450.25	18
788.3271	50.5112	457.65	21.4
788.4679	52.7764	459.95	23.25
788.6087	55.0411	463.6	22.55
788.7496	57.3054	469.1	23.85
788.8904	59.5692	474.25	25.7
789.0313	61.8326	481.7	30.65
789.1722	64.0955	486.1	30.8
789.3132	66.3579	494.15	31.95
789.4541	68.6199	503.6	39.05
789.5951	70.8815	514	49.45
789.7361	73.1426	533.7	63.35
789.8771	75.4032	579.8	105.65
790.0181	77.6634	691.8	214.05
790.1592	79.9231	945.35	462.15
790.3003	82.1824	1494.3	1006.4
790.4414	84.4412	2404.25	1912.15
790.5825	86.6995	3626.75	3125.3
790.7237	88.9574	4837.05	4330
790.8648	91.2148	5742.75	5231.05
791.006	93.4717	6211.4	5694.15
791.1472	95.7282	6376.25	5856.3
791.2885	97.9842	6440.5	5915.75
791.4297	100.2398	6432.75	5908.9
791.571	102.4949	6417.85	5892.35
791.7123	104.7495	6383.15	5853
791.8536	107.0036	6345.6	5811.4
791.9949	109.2573	6309.2	5778.45
792.1363	111.5105	6251	5716.5
792.2777	113.7632	6173.55	5634.6
792.4191	116.0154	6121.4	5577.55
792.5605	118.2672	6059.8	5519.75
792.7019	120.5185	6002.7	5463.35
792.8434	122.7693	5942.1	5399.7
792.9849	125.0197	5877.85	5332.2
793.1264	127.2696	5803.5	5252.95
793.2679	129.519	5785.25	5234.25
793.4094	131.7679	5766.15	5210.1
793.551	134.0163	5734.85	5174.3
793.6926	136.2642	5713.75	5148.3
793.8342	138.5117	5728.25	5154.9
793.9758	140.7587	5716.7	5149
794.1175	143.0052	5699.25	5129
794.2591	145.2512	5645.65	5074.65
794.4008	147.4967	5596.75	5027.3
794.5425	149.7417	5572.45	4998.3
794.6842	151.9863	5529	4952.65
794.826	154.2304	5519.1	4938.5
794.9677	156.4739	5482.7	4894.85
795.1095	158.717	5489.3	4902.3
795.2513	160.9596	5514.9	4920.5
795.3931	163.2017	5500.15	4906.75
795.535	165.4433	5530.4	4936.5
795.6768	167.6844	5510.7	4913.3
795.8187	169.925	5501.85	4899.9
795.9606	172.1651	5447.5	4841.4
796.1025	174.4047	5407.2	4800.65
796.2445	176.6439	5375.75	4765.8
796.3864	178.8825	5347.4	4734.9
796.5284	181.1206	5345.1	4729.7
796.6704	183.3582	5321.75	4699.6
796.8124	185.5954	5297.3	4677.5
796.9544	187.832	5304.95	4679.05
797.0965	190.0681	5308.85	4683
797.2386	192.3037	5304.25	4674.95
797.3806	194.5388	5305	4674.5
797.5228	196.7734	5304.85	4669.25
797.6649	199.0075	5332.85	4692.2
797.807	201.2411	5354.75	4711
797.9492	203.4742	5363	4719.75
798.0914	205.7068	5384.25	4741.65
798.2336	207.9389	5397.3	4755.05
798.3758	210.1704	5422.1	4772.75
798.518	212.4015	5383.6	4731.75
798.6603	214.632	5398.5	4750.2
798.8025	216.862	5399.1	4757.65
798.9448	219.0915	5381.85	4747.95
799.0871	221.3205	5384.45	4751.8
799.2294	223.549	5403.5	4775.8
799.3718	225.777	5378.8	4751.15
799.5141	228.0044	5404.25	4774.5
799.6565	230.2314	5393.7	4766.4
799.7989	232.4578	5359.55	4727.8
799.9413	234.6837	5362.8	4720.55
800.0837	236.909	5336.55	4693.45
800.2262	239.1339	5342.6	4677.3
800.3687	241.3582	5325.2	4671.3
800.5111	243.582	5327.55	4644.5
800.6536	245.8053	5325.25	4653.85
800.7961	248.0281	5318.15	4653.2
800.9387	250.2503	5320.95	4651.15
801.0812	252.472	5324.7	4650.35
801.2238	254.6932	5338.3	4661.15
801.3664	256.9139	5338.15	4657.1
801.509	259.134	5333.45	4650.5
801.6516	261.3536	5330.95	4651.3
801.7942	263.5727	5374.7	4691.4
801.9369	265.7912	5390.4	4707.7
802.0795	268.0092	5408.5	4725.45
802.2222	270.2267	5458.95	4773.35
802.3649	272.4436	5499.8	4811.65
802.5076	274.6601	5511.95	4819.25
802.6504	276.8759	5522.8	4834.05
802.7931	279.0913	5547.3	4852.3
802.9359	281.3061	5541.55	4846.15
803.0787	283.5204	5556.75	4861.8
803.2215	285.7341	5578.8	4880.75
803.3643	287.9473	5627.6	4915.75
803.5071	290.16	5602.3	4896.9
803.6499	292.3721	5581.8	4882.45
803.7928	294.5837	5513.9	4813.9
803.9357	296.7947	5490.7	4790.25
804.0786	299.0052	5476.4	4774.05
804.2215	301.2152	5452.9	4746.55
804.3644	303.4246	5453.95	4753.45
804.5074	305.6334	5439.5	4736.7
804.6503	307.8418	5433.75	4727.9
804.7933	310.0495	5418.85	4711.75
804.9363	312.2568	5380.65	4674.7
805.0793	314.4635	5341.25	4631.95
805.2223	316.6696	5287.55	4576.25
805.3653	318.8752	5238.2	4518.15
805.5084	321.0802	5209.7	4498
805.6514	323.2847	5200.15	4487.4
805.7945	325.4887	5194.55	4481.9
805.9376	327.692	5189.85	4475.55
806.0807	329.8949	5225.6	4509.4
806.2238	332.0972	5258.85	4540.9
806.367	334.2989	5294.85	4574.45
806.5101	336.5001	5291.45	4567.15
806.6533	338.7007	5264.6	4542.05
806.7965	340.9008	5243	4519.7
806.9397	343.1003	5186.7	4459.8
807.0829	345.2992	5137.75	4408.05
807.2261	347.4976	5113.75	4386.05
807.3693	349.6955	5096.2	4362
807.5126	351.8927	5074.4	4339.5
807.6559	354.0895	5035.9	4290.2
807.7991	356.2856	5033.7	4296.95
807.9424	358.4812	5028.05	4292.05
808.0857	360.6763	5023.6	4286.4
808.2291	362.8707	5024.35	4285.85
808.3724	365.0646	5020.7	4281.55
808.5158	367.258	5005.95	4261.45
808.6591	369.4508	5014.1	4266.8
808.8025	371.643	5035.05	4288.8
808.9459	373.8346	5061.35	4312.3
809.0893	376.0257	5078.55	4324.9
809.2327	378.2162	5107.75	4353.55
809.3762	380.4062	5123.5	4368.95
809.5196	382.5956	5080.15	4322.65
809.6631	384.7844	5044.55	4292.1
809.8066	386.9726	5000.55	4243.4
809.9501	389.1603	4978.55	4224.1
810.0936	391.3474	4972	4174.5
810.2371	393.5339	4929.55	4176.5
810.3806	395.7199	4924.75	4177.9
810.5241	397.9052	4929.6	4180.6
810.6677	400.09	4961.7	4211.2
810.8113	402.2743	4993.35	4245.1
810.9548	404.4579	5021.7	4272.5
811.0984	406.641	5059.35	4308.65
811.2421	408.8235	5078.6	4326.15
811.3857	411.0054	5136.25	4382
811.5293	413.1868	5259.8	4503.55
811.673	415.3675	5352.2	4592.45
811.8166	417.5477	5396.8	4636.9
811.9603	419.7273	5319.45	4554.95
812.104	421.9064	5178.75	4406.75
812.2477	424.0848	5057.45	4291.3
812.3914	426.2627	5017.5	4251.4
812.5351	428.4399	4975	4205.05
812.6788	430.6166	4906.9	4131.8
812.8226	432.7928	4876.85	4106.2
812.9663	434.9683	4823.95	4049.5
813.1101	437.1432	4792.5	4017.25
813.2539	439.3176	4761.05	3986
813.3977	441.4914	4736.65	3961.3
813.5415	443.6645	4759.65	3980.05
813.6853	445.8371	4740.65	3964.65
813.8291	448.0091	4722.9	3944.55
813.973	450.1806	4726.7	3948.1
814.1168	452.3514	4706.5	3924.05
814.2607	454.5216	4699.65	3910.85
814.4046	456.6913	4675.85	3892.15
814.5485	458.8603	4677.45	3896.05
814.6924	461.0288	4687.25	3904
814.8363	463.1967	4694.6	3911.4
814.9802	465.3639	4679.5	3896.05
815.1241	467.5306	4658.65	3872.55
815.2681	469.6967	4661.2	3879.55
815.412	471.8622	4650.6	3865.9
815.556	474.0271	4652.75	3868.05
815.7	476.1914	4660.8	3871.6
815.844	478.3551	4633.3	3845.9
815.988	480.5182	4640.4	3851.75
816.132	482.6807	4646.1	3858.75
816.276	484.8426	4665.6	3878
816.4201	487.0039	4705.1	3917.05
816.5641	489.1647	4748.55	3958.55
816.7082	491.3248	4766.2	3976.95
816.8522	493.4843	4807.7	4018.35
816.9963	495.6432	4786.7	3996.4
817.1404	497.8015	4769.5	3974
817.2845	499.9592	4737.55	3942.35
817.4286	502.1163	4683.6	3888.85
817.5727	504.2728	4637.25	3840.35
817.7168	506.4287	4613.8	3820.9
817.861	508.5839	4614.1	3818.3
818.0051	510.7386	4609.6	3813.1
818.1493	512.8927	4630.05	3824.75
818.2935	515.0461	4631	3832.7
818.4377	517.199	4616.9	3818.85
818.5818	519.3512	4646.55	3847.3
818.726	521.5029	4705.6	3900.1
818.8703	523.6539	4736.6	3934.85
819.0145	525.8043	4764.65	3964.75
819.1587	527.9541	4721.25	3916.25
819.303	530.1033	4665.6	3862.8
819.4472	532.2519	4615.75	3812
819.5915	534.3999	4594.35	3789.05
819.7357	536.5472	4606.4	3800.3
819.88	538.694	4588.35	3783.95
820.0243	540.8401	4613.4	3808.25
820.1686	542.9856	4620.15	3812.7
820.3129	545.1305	4628.55	3821.3
820.4572	547.2748	4654.8	3847.2
820.6016	549.4185	4658.2	3847.7
820.7459	551.5615	4651.8	3843.4
820.8902	553.704	4653.8	3843.75
821.0346	555.8458	4665.35	3856.25
821.1789	557.987	4675.1	3867.65
821.3233	560.1276	4700.4	3889.95
821.4677	562.2675	4762.4	3952.25
821.6121	564.4069	4824.55	4014.3
821.7565	566.5456	4866.85	4057.75
821.9009	568.6837	4839.8	4027.7
822.0453	570.8212	4779	3967.1
822.1897	572.958	4698.65	3884.75
822.3342	575.0942	4669	3857.85
822.4786	577.2299	4640.7	3829.05
822.6231	579.3648	4604.85	3792.75
822.7675	581.4992	4567.25	3755.65
822.912	583.6329	4553.45	3741.25
823.0565	585.766	4568.4	3755.6
823.201	587.8985	4593.05	3780.85
823.3454	590.0304	4626	3800.4
823.4899	592.1616	4669.45	3849.7
823.6345	594.2922	4666	3849.1
823.779	596.4222	4657	3839.5
823.9235	598.5515	4593.3	3772.95
824.068	600.6802	4537.1	3719.75
824.2126	602.8083	4495.2	3677.4
824.3571	604.9358	4476.9	3657.1
824.5017	607.0626	4464.7	3644.3
824.6462	609.1888	4460.35	3635.1
824.7908	611.3144	4487.95	3664.95
824.9354	613.4393	4507.9	3684.7
825.08	615.5636	4540.8	3718.75
825.2246	617.6873	4593.1	3770.85
825.3692	619.8103	4634.75	3811.4
825.5138	621.9327	4639.6	3813.15
825.6584	624.0544	4621.45	3797.95
825.803	626.1756	4568.1	3745.3
825.9477	628.2961	4501.65	3677.15
826.0923	630.4159	4480.3	3654.6
826.237	632.5351	4490.75	3668.85
826.3816	634.6537	4467.1	3643.6
826.5263	636.7716	4455.1	3628.4
826.6709	638.8889	4461.2	3634.15
826.8156	641.0056	4466.7	3640.55
826.9603	643.1216	4479.3	3652.2
827.105	645.237	4501.05	3669.45
827.2497	647.3518	4471.45	3642.3
827.3944	649.4659	4448.05	3620.2
827.5391	651.5793	4416.6	3588.4
827.6838	653.6922	4402.8	3573.35
827.8285	655.8043	4402.25	3574.75
827.9733	657.9159	4394.85	3564.75
828.118	660.0268	4364.4	3529.8
828.2627	662.137	4369	3537.8
828.4075	664.2466	4372.3	3538.05
828.5522	666.3556	4376.25	3542.9
828.697	668.4639	4350.4	3514.45
828.8418	670.5716	4352.1	3519.35
828.9865	672.6786	4361.75	3528.95
829.1313	674.785	4340.35	3506.55
829.2761	676.8907	4329.45	3496.05
829.4209	678.9958	4337.2	3505.35
829.5657	681.1002	4321.25	3486.7
829.7105	683.204	4329.15	3490.95
829.8553	685.3072	4323.15	3485.5
830.0001	687.4097	4314.95	3477.45
830.1449	689.5115	4295.2	3457.45
830.2898	691.6127	4316.15	3479.05
830.4346	693.7132	4309.7	3471.45
830.5794	695.8131	4321.3	3465.8
830.7243	697.9123	4317.25	3477.35
830.8691	700.0109	4308.4	3468.55
831.014	702.1089	4319.7	3481.1
831.1588	704.2061	4328.25	3489.95
831.3037	706.3028	4354.35	3511.4
831.4486	708.3987	4349.95	3507.75
831.5935	710.4941	4349	3508.45
831.7383	712.5887	4370.55	3529.55
831.8832	714.6827	4371.55	3527.85
832.0281	716.7761	4359.9	3520.3
832.173	718.8688	4358.05	3515.35
832.3179	720.9608	4350.7	3507.05
832.4628	723.0522	4347.5	3502.3
832.6077	725.1429	4387.8	3546.95
832.7527	727.233	4389.2	3544.8
832.8976	729.3224	4437.8	3595.9
833.0425	731.4112	4479.1	3634.8
833.1874	733.4993	4515.9	3671.5
833.3324	735.5867	4466.7	3621.7
833.4773	737.6735	4425.2	3578.8
833.6222	739.7596	4375.35	3528.7
833.7672	741.845	4346.5	3499.2
833.9122	743.9298	4352.35	3504.6
834.0571	746.014	4357.3	3512.1
834.2021	748.0974	4381.35	3533.25
834.347	750.1802	4377.65	3530.55
834.492	752.2624	4364.2	3514.9
834.637	754.3439	4322.8	3472.7
834.782	756.4247	4301.45	3443.75
834.9269	758.5048	4277.8	3429
835.0719	760.5843	4286.3	3438.85
835.2169	762.6631	4292.6	3443.25
835.3619	764.7413	4296.7	3447.95
835.5069	766.8188	4360.75	3508.9
835.6519	768.8956	4422.2	3570.5
835.7969	770.9718	4466.55	3618.3
835.9419	773.0473	4463.5	3613.7
836.0869	775.1221	4428.95	3578.5
836.232	777.1962	4388.55	3537.1
836.377	779.2697	4448.65	3597.9
836.522	781.3426	4524.5	3654.6
836.667	783.4147	4599.3	3748
836.8121	785.4862	4594.35	3744.55
836.9571	787.557	4521.05	3667.7
837.1021	789.6271	4393.35	3537.6
837.2472	791.6966	4306.35	3454.45
837.3922	793.7654	4222.95	3369.85
837.5373	795.8335	4162.85	3312.4
837.6823	797.901	4128.7	3276.5
837.8274	799.9678	4132.65	3280.25
837.9724	802.0339	4107.35	3254.85
838.1175	804.0993	4120.75	3258.4
838.2626	806.1641	4098.75	3244.2
838.4076	808.2282	4093.3	3241.4
838.5527	810.2916	4081.5	3226.95
838.6978	812.3544	4060.7	3207.95
838.8428	814.4164	4040.5	3189.65
838.9879	816.4778	4045.25	3190
839.133	818.5385	4028.7	3173.85
839.2781	820.5986	4048.95	3193.65
839.4232	822.658	4094.1	3237.75
839.5682	824.7166	4143.95	3290
839.7133	826.7747	4219.3	3364.45
839.8584	828.832	4252.75	3397.8
840.0035	830.8886	4301.95	3444.7
840.1486	832.9446	4322.05	3464.35
840.2937	834.9999	4310.15	3455.1
840.4388	837.0545	4272.7	3414.1
840.5839	839.1085	4182.45	3323.4
840.729	841.1618	4121.15	3262.2
840.8741	843.2143	4060.35	3203.35
841.0192	845.2662	4015.85	3158.65
841.1643	847.3175	3988.1	3132.05
841.3095	849.368	3986.15	3128.6
841.4546	851.4179	3971.65	3115.1
841.5997	853.467	3976.55	3116.35
841.7448	855.5155	3977.95	3117.35
841.8899	857.5633	3965.5	3105.35
842.0351	859.6105	3976.4	3118.5
842.1802	861.6569	3949.6	3092.1
842.3253	863.7027	3940.05	3081.05
842.4704	865.7478	3927.25	3066.45
842.6156	867.7922	3908.95	3049.05
842.7607	869.8359	3910.45	3051.25
842.9058	871.8789	3882.85	3022.45
843.0509	873.9212	3905.05	3011.45
843.1961	875.9629	3879.95	3019.95
843.3412	878.0039	3881.7	3017.35
843.4863	880.0441	3898.9	3038.3
843.6315	882.0837	3899.7	3036.95
843.7766	884.1226	3918.1	3056.2
843.9218	886.1609	3934.55	3073.7
844.0669	888.1984	3955.45	3094.75
844.212	890.2352	4004.3	3142.35
844.3572	892.2714	4023.2	3155.8
844.5023	894.3069	4010.55	3147.5
844.6475	896.3416	3941.7	3078.6
844.7926	898.3757	3903.05	3040.6
844.9377	900.4091	3875.55	3012.05
845.0829	902.4418	3868.8	3000.7
845.228	904.4739	3872.65	3008.1
845.3732	906.5052	3890.75	3025.4
845.5183	908.5358	3892.35	3029.75
845.6635	910.5658	3874.05	3006.3
845.8086	912.595	3843.85	2981.3
845.9538	914.6236	3794.15	2929.6
846.0989	916.6515	3772.85	2909.85
846.2441	918.6786	3751.65	2885.35
846.3892	920.7051	3736.05	2869.6
846.5344	922.7309	3736.85	2872.4
846.6795	924.756	3719.8	2856.05
846.8246	926.7804	3739.95	2873.4
846.9698	928.8041	3711.55	2845.6
847.1149	930.8272	3732.35	2866.55
847.2601	932.8495	3728.2	2861.55
847.4052	934.8711	3730.4	2861.2
847.5504	936.892	3733.25	2865.95
847.6955	938.9123	3733.25	2867.3
847.8407	940.9318	3741.15	2873.05
847.9858	942.9506	3763.2	2895.65
848.131	944.9688	3742.75	2874.2
848.2761	946.9862	3735.9	2868
848.4213	949.003	3683.7	2817.25
848.5664	951.019	3670.6	2802.6
848.7115	953.0344	3645.65	2779.45
848.8567	955.0491	3628.55	2759.7
849.0018	957.063	3605	2737.2
849.147	959.0763	3624.35	2750.45
849.2921	961.0888	3603.1	2732.55
849.4373	963.1007	3597.65	2728.75
849.5824	965.1119	3595.55	2728.55
849.7275	967.1223	3587.7	2717.45
849.8727	969.1321	3560.6	2692.2
850.0178	971.1412	3552.25	2685.1
850.1629	973.1495	3553.1	2683.95
850.3081	975.1572	3567.05	2666
850.4532	977.1641	3532.3	2664.4
850.5983	979.1704	3527.05	2657.4
850.7435	981.1759	3515.6	2643.35
850.8886	983.1808	3523.65	2653.4
851.0337	985.1849	3504	2623.9
851.1788	987.1884	3475.7	2604.65
851.324	989.1911	3492.5	2621.4
851.4691	991.1932	3486.55	2613.4
851.6142	993.1945	3480.6	2612.1
851.7593	995.1951	3474.95	2604.65
851.9045	997.1951	3465.4	2586.1
852.0496	999.1943	3446.75	2577.65
852.1947	1001.1928	3443.45	2570.95
852.3398	1003.1906	3432.45	2563.55
852.4849	1005.1877	3450.25	2578.05
852.63	1007.1841	3462	2589.6
852.7751	1009.1798	3458.2	2587.1
852.9202	1011.1748	3448.5	2577.4
853.0653	1013.1691	3424.4	2552.75
853.2104	1015.1627	3385.9	2513.75
853.3555	1017.1556	3349.45	2476.8
853.5006	1019.1477	3328.6	2457.95
853.6457	1021.1392	3289.95	2419.95
853.7908	1023.1299	3291.4	2420.25
853.9359	1025.12	3275.1	2403.25
854.081	1027.1093	3272.15	2401.7
854.2261	1029.0979	3285.45	2417.7
854.3712	1031.0859	3299.2	2428.2
854.5163	1033.0731	3299.5	2429.1
854.6613	1035.0596	3289.95	2418.05
854.8064	1037.0454	3273.2	2400.1
854.9515	1039.0304	3273.45	2400
855.0965	1041.0148	3249.45	2377.7
855.2416	1042.9985	3224.55	2349.55
855.3867	1044.9814	3203.8	2334.2
855.5317	1046.9636	3177.15	2300.6
855.6768	1048.9452	3164.95	2294.65
855.8219	1050.926	3190	2318.4
855.9669	1052.9061	3193.3	2319.3
856.112	1054.8855	3198.3	2325.35
856.257	1056.8642	3193.65	2319.9
856.4021	1058.8421	3196.85	2319.2
856.5471	1060.8194	3185.85	2311.6
856.6921	1062.7959	3160.9	2286.7
856.8372	1064.7717	3155.25	2279.05
856.9822	1066.7469	3170.6	2293.55
857.1272	1068.7213	3156.15	2279.35
857.2723	1070.695	3159.2	2286.25
857.4173	1072.6679	3165.7	2290.05
857.5623	1074.6402	3181.4	2308.65
857.7073	1076.6117	3189.9	2308.5
857.8523	1078.5826	3174.75	2300.75
857.9973	1080.5527	3150.9	2274.3
858.1423	1082.5221	3106	2230.7
858.2873	1084.4908	3070.35	2196.95
858.4323	1086.4587	3047.75	2171.55
858.5773	1088.426	3042.7	2164.4
858.7223	1090.3925	3024.35	2144.35
858.8673	1092.3584	3033.6	2158.65
859.0123	1094.3235	3016.1	2142
859.1573	1096.2879	3021.75	2143.95
859.3022	1098.2515	3043.65	2167.35
859.4472	1100.2145	3065.25	2188.45
859.5922	1102.1767	3072.65	2193.4
859.7371	1104.1382	3109.8	2236.1
859.8821	1106.099	3138.3	2260.25
860.027	1108.0591	3179.7	2302.4
860.172	1110.0185	3214.95	2337.05
860.3169	1111.9771	3235.6	2357.9
860.4619	1113.9351	3247.35	2369.55
860.6068	1115.8923	3294.7	2416.75
860.7517	1117.8488	3339.25	2461.95
860.8967	1119.8045	3311.9	2436.45
861.0416	1121.7596	3233.25	2356.75
861.1865	1123.7139	3126.15	2249.45
861.3314	1125.6675	3062.5	2186.6
861.4763	1127.6204	3063.5	2187.7
861.6212	1129.5726	3062.05	2182.5
861.7661	1131.524	3069.85	2195.6
861.911	1133.4748	3036.15	2158.5
862.0559	1135.4248	2994.1	2116.8
862.2008	1137.3741	2942.3	2066.05
862.3457	1139.3226	2901.15	2024.15
862.4905	1141.2705	2887.65	2011.6
862.6354	1143.2176	2891.25	2007.25
862.7803	1145.164	2910.4	2031.6
862.9251	1147.1097	2917.05	2040.35
863.07	1149.0546	2897.65	2018.65
863.2148	1150.9989	2868.4	1989.2
863.3597	1152.9424	2831.3	1952.9
863.5045	1154.8852	2815.8	1937.5
863.6493	1156.8272	2818.55	1940.15
863.7942	1158.7686	2815.55	1930.05
863.939	1160.7092	2797.4	1917.1
864.0838	1162.6491	2810.15	1927.2
864.2286	1164.5883	2807.2	1930.8
864.3734	1166.5267	2803.65	1924.7
864.5182	1168.4644	2824.75	1944.8
864.663	1170.4014	2839.45	1954.3
864.8078	1172.3377	2865.45	1988.5
864.9526	1174.2732	2903.7	2026.4
865.0974	1176.2081	2965.65	2087.4
865.2421	1178.1421	3052.9	2169.8
865.3869	1180.0755	3160.15	2280.55
865.5317	1182.0082	3212.3	2332.35
865.6764	1183.9401	3234.65	2353.6
865.8212	1185.8713	3158.7	2281.45
865.9659	1187.8017	3049.4	2171.8
866.1106	1189.7315	2956.7	2082.3
866.2554	1191.6605	2869.1	1990.2
866.4001	1193.5888	2805.05	1926.35
866.5448	1195.5163	2780.95	1900.8
866.6895	1197.4432	2754.7	1875.3
866.8342	1199.3693	2734.1	1854.05
866.9789	1201.2947	2718.25	1836.35
867.1236	1203.2193	2691.35	1813.2
867.2683	1205.1432	2692.05	1811.5
867.413	1207.0664	2689	1807.9
867.5576	1208.9889	2681	1798.95
867.7023	1210.9106	2683	1803.55
867.847	1212.8316	2675.15	1796.5
867.9916	1214.7519	2668.9	1779.1
868.1363	1216.6715	2681.15	1804.1
868.2809	1218.5903	2682.85	1803.65
868.4255	1220.5084	2689.7	1808.4
868.5701	1222.4257	2698.1	1817.3
868.7148	1224.3424	2694.95	1815.7
868.8594	1226.2583	2708.5	1824.45
869.004	1228.1735	2719.1	1839.25
869.1486	1230.0879	2741	1858.45
869.2932	1232.0016	2770.85	1893.25
869.4377	1233.9146	2798.3	1916.2
869.5823	1235.8269	2792.85	1912.1
869.7269	1237.7384	2804.55	1926.25
869.8715	1239.6492	2792.1	1913.2
870.016	1241.5592	2804.8	1924.7
870.1606	1243.4686	2820	1941.15
870.3051	1245.3772	2875.8	1995.6
870.4496	1247.285	2946.1	2066.9
870.5941	1249.1922	3005.7	2125.15
870.7387	1251.0986	3066.35	2186.75
870.8832	1253.0042	3114.15	2234.25
871.0277	1254.9092	3178.9	2295.7
871.1722	1256.8134	3243.4	2365.7
871.3167	1258.7169	3327.45	2443.25
871.4611	1260.6196	3380.65	2499.75
871.6056	1262.5216	3436.85	2554.25
871.7501	1264.4229	3427.15	2545.95
871.8945	1266.3234	3412.7	2532.75
872.039	1268.2232	3354.1	2470.75
872.1834	1270.1223	3294.45	2410.5
872.3278	1272.0207	3262.85	2380.8
872.4723	1273.9183	3227.7	2341.25
872.6167	1275.8151	3225	2345.15
872.7611	1277.7113	3234.2	2350
872.9055	1279.6067	3294.75	2414.2
873.0499	1281.5014	3401.35	2517.85
873.1943	1283.3953	3542.85	2657.65
873.3386	1285.2885	3736.95	2856.3
873.483	1287.181	3871.15	2988.45
873.6274	1289.0727	3952.25	3073.55
873.7717	1290.9637	3923.95	3042.7
873.9161	1292.854	3827.55	2944.75
874.0604	1294.7435	3700.85	2818.35
874.2047	1296.6323	3567.6	2685.35
874.349	1298.5204	3467.4	2580.1
874.4933	1300.4077	3388.1	2502.2
874.6376	1302.2943	3325.65	2443.05
874.7819	1304.1802	3288.5	2406.9
874.9262	1306.0653	3248	2364.6
875.0705	1307.9497	3229.95	2347.4
875.2147	1309.8333	3216	2334.7
875.359	1311.7162	3186.7	2303.7
875.5032	1313.5984	3171.35	2285.2
875.6475	1315.4798	3168.7	2268.1
875.7917	1317.3605	3158.85	2268.85
875.9359	1319.2405	3165.85	2283.15
876.0801	1321.1197	3154.35	2269.75
876.2243	1322.9982	3141.1	2253.65
876.3685	1324.876	3095.5	2211.45
876.5127	1326.753	3027.6	2145
876.6569	1328.6293	2941.1	2057.7
876.801	1330.5048	2875.45	1991.05
876.9452	1332.3796	2778.45	1894.9
877.0893	1334.2537	2747.95	1842.05
877.2335	1336.127	2672.3	1789.45
877.3776	1337.9996	2649	1767
877.5217	1339.8714	2614.4	1730.2
877.6658	1341.7426	2633.6	1707.25
877.8099	1343.6129	2595.3	1712.05
877.954	1345.4826	2577.25	1693.1
878.0981	1347.3515	2550.7	1664.5
878.2422	1349.2196	2527.9	1644.6
878.3862	1351.087	2525.1	1643.65
878.5303	1352.9537	2525.5	1640
878.6743	1354.8197	2524.95	1643.3
878.8184	1356.6849	2524	1639.95
878.9624	1358.5493	2524.65	1641.5
879.1064	1360.4131	2550.3	1667.35
879.2504	1362.276	2582.9	1700.55
879.3944	1364.1383	2602.95	1719.4
879.5384	1365.9998	2619.85	1731.2
879.6823	1367.8606	2594.4	1709.8
879.8263	1369.7206	2598.5	1715.2
879.9702	1371.5799	2593.7	1706.85
880.1142	1373.4384	2591.2	1707.65
880.2581	1375.2962	2572.05	1687.1
880.402	1377.1533	2520.6	1637.4
880.5459	1379.0096	2480.75	1596.5
880.6898	1380.8652	2459.3	1576.8
880.8337	1382.7201	2421.5	1538.9
880.9776	1384.5742	2394.4	1510.4
881.1215	1386.4275	2367.25	1483.1
881.2653	1388.2802	2352.55	1470
881.4092	1390.132	2333.05	1450.4
881.553	1391.9832	2322.55	1437.55
881.6968	1393.8336	2311	1427.45
881.8406	1395.6832	2310.65	1423.8
881.9844	1397.5322	2300.6	1416.2
882.1282	1399.3803	2294.6	1406.3
882.272	1401.2278	2257.75	1373.25
882.4158	1403.0745	2247.65	1362.8
882.5595	1404.9204	2240.85	1358.95
882.7033	1406.7656	2242.5	1356.85
882.847	1408.6101	2237.05	1352.7
882.9908	1410.4538	2223.9	1339.2
883.1345	1412.2968	2229.8	1345.7
883.2782	1414.139	2229.45	1344.65
883.4219	1415.9805	2228.75	1344.15
883.5656	1417.8213	2248.45	1342.75
883.7092	1419.6613	2239.8	1356.4
883.8529	1421.5006	2245.6	1358.9
883.9965	1423.3391	2279.6	1393.25
884.1402	1425.1769	2328.5	1442.9
884.2838	1427.0139	2386.7	1501.1
884.4274	1428.8502	2447.5	1561.35
884.571	1430.6858	2499.6	1611.8
884.7146	1432.5206	2542.1	1658
884.8582	1434.3547	2525.6	1639.15
885.0018	1436.188	2509.65	1624.55
885.1453	1438.0206	2492.1	1607.85
885.2889	1439.8524	2488.05	1602.5
885.4324	1441.6835	2466.05	1582.25
885.5759	1443.5139	2467.95	1578.55
885.7194	1445.3435	2474.4	1588
885.8629	1447.1724	2481.25	1598.1
886.0064	1449.0005	2473.1	1588.35
886.1499	1450.8279	2467.7	1581.6
886.2933	1452.6545	2454	1568.3
886.4368	1454.4804	2461.9	1576.45
886.5802	1456.3056	2463	1572.15
886.7237	1458.13	2434.7	1548.7
886.8671	1459.9536	2415.4	1529.45
887.0105	1461.7766	2383.05	1499.4
887.1539	1463.5987	2358.8	1473.85
887.2972	1465.4202	2316.55	1429.9
887.4406	1467.2409	2272.85	1387.15
887.584	1469.0608	2255.95	1370.6
887.7273	1470.88	2219.1	1334.65
887.8706	1472.6984	2198.2	1313.45
888.0139	1474.5161	2168.35	1280.25
888.1572	1476.3331	2159.35	1275.55
888.3005	1478.1493	2143	1258.55
888.4438	1479.9648	2145.55	1260.95
888.5871	1481.7795	2138	1252.9
888.7303	1483.5935	2136.3	1250.9
888.8736	1485.4067	2142	1256.05
889.0168	1487.2192	2139.6	1253.05
889.16	1489.031	2145.6	1257.75
889.3032	1490.842	2143.4	1259.1
889.4464	1492.6522	2133.75	1249.25
889.5896	1494.4618	2128.3	1241.6
889.7327	1496.2705	2131.5	1247.4
889.8759	1498.0785	2125.2	1241.55
890.019	1499.8858	2109.2	1222.5
890.1622	1501.6924	2105.05	1221.95
890.3053	1503.4981	2087.45	1202.75
890.4484	1505.3032	2101.05	1215.7
890.5914	1507.1075	2084.8	1199.25
890.7345	1508.911	2085.3	1200.45
890.8776	1510.7138	2066.35	1180.6
891.0206	1512.5159	2054.15	1167.6
891.1637	1514.3172	2052.2	1166.75
891.3067	1516.1178	2052.65	1168.4
891.4497	1517.9176	2044.8	1158.15
891.5927	1519.7166	2035.75	1151.5
891.7357	1521.515	2029.35	1137.5
891.8786	1523.3126	2023.9	1137.2
892.0216	1525.1094	2013.5	1125.2
892.1645	1526.9055	1998.55	1113.8
892.3074	1528.7008	1992.55	1106.45
892.4503	1530.4954	1990.05	1102
892.5932	1532.2893	1974.8	1091.9
892.7361	1534.0824	1984.65	1094.25
892.879	1535.8747	1982.7	1097.25
893.0218	1537.6663	1973.2	1088.45
893.1647	1539.4572	1962.6	1075.95
893.3075	1541.2473	1968	1083.5
893.4503	1543.0367	1956.55	1069.8
893.5931	1544.8253	1960.8	1070.65
893.7359	1546.6132	1954.45	1065.15
893.8787	1548.4003	1968.1	1071.9
894.0214	1550.1867	1966.25	1073.25
894.1642	1551.9723	1977.65	1087.2
894.3069	1553.7572	1974.75	1086.1
894.4496	1555.5414	1985.1	1099.2
894.5923	1557.3247	2003.6	1116.25
894.735	1559.1074	2036.7	1155.35
894.8777	1560.8893	2068.8	1185.1
895.0204	1562.6705	2090.05	1205.15
895.163	1564.4509	2112.6	1226.35
895.3056	1566.2305	2124.3	1240.25
895.4482	1568.0094	2134.8	1250.15
895.5908	1569.7876	2127.7	1242.35
895.7334	1571.565	2114.85	1229.25
895.876	1573.3417	2128.3	1242.7
896.0186	1575.1176	2128.35	1242.55
896.1611	1576.8928	2130.3	1244.25
896.3036	1578.6672	2153.5	1268.65
896.4461	1580.4409	2160.8	1279.7
896.5886	1582.2138	2205.45	1318.8
896.7311	1583.986	2238.7	1353.6
896.8736	1585.7575	2271.1	1389.3
897.0161	1587.5282	2298.85	1416.1
897.1585	1589.2981	2332.9	1448.25
897.3009	1591.0673	2332	1446.45
897.4433	1592.8358	2348.95	1465.1
897.5857	1594.6035	2339.25	1454.05
897.7281	1596.3704	2329.55	1444.4
897.8705	1598.1366	2304.35	1418.6
898.0128	1599.9021	2273.5	1389.85
898.1551	1601.6668	2242.1	1355.7
898.2975	1603.4308	2226.6	1341.25
898.4398	1605.194	2231.95	1342.85
898.5821	1606.9564	2225.75	1342
898.7243	1608.7182	2279.5	1393.2
898.8666	1610.4791	2343.85	1460.25
899.0088	1612.2394	2432.3	1547.95
899.1511	1613.9988	2523.3	1638.5
899.2933	1615.7576	2616.55	1732.65
899.4355	1617.5156	2664.5	1774.75
899.5776	1619.2728	2646.6	1762
899.7198	1621.0293	2583.1	1698.55
899.862	1622.785	2492.75	1607.4
900.0041	1624.54	2370.35	1484.7
900.1462	1626.2942	2259.3	1374.8
900.2883	1628.0477	2156.4	1268.8
900.4304	1629.8005	2076	1188
900.5725	1631.5525	2007.6	1123.45
900.7145	1633.3037	1949.45	1064.1
900.8566	1635.0542	1911.85	1026.8
900.9986	1636.804	1877.2	990.95
901.1406	1638.553	1900.7	965.8
901.2826	1640.3013	1837.15	952.6
901.4245	1642.0488	1812.55	928.15
901.5665	1643.7955	1807.75	923.75
901.7085	1645.5416	1781.8	897.35
901.8504	1647.2868	1773.35	889.5
901.9923	1649.0313	1760.7	875.5
902.1342	1650.7751	1761.6	873.85
902.2761	1652.5181	1749.9	864.85
902.4179	1654.2604	1744.6	859.9
902.5598	1656.0019	1752.3	867.45
902.7016	1657.7427	1762.1	877.4
902.8434	1659.4828	1763.25	878.65
902.9852	1661.222	1790.25	904.75
903.127	1662.9606	1819.55	936.45
903.2687	1664.6984	1854.85	968
903.4105	1666.4354	1877.8	991.85
903.5522	1668.1717	1862.15	978.05
903.6939	1669.9072	1829.25	944.3
903.8356	1671.642	1789.45	900.1
903.9773	1673.3761	1747.95	863.3
904.119	1675.1094	1718.75	832.6
904.2606	1676.8419	1700.5	816.35
904.4022	1678.5737	1669	783.4
904.5439	1680.3048	1666.7	780.6
904.6855	1682.0351	1648.95	762.9
904.827	1683.7646	1644.05	756.6
904.9686	1685.4934	1639.15	754.75
905.1101	1687.2215	1627.3	741.65
905.2517	1688.9488	1623.35	738.1
905.3932	1690.6754	1614.5	728.85
905.5347	1692.4012	1613.85	728.65
905.6761	1694.1263	1608.1	722.85
905.8176	1695.8506	1600.8	713.35
905.9591	1697.5742	1609.6	724.55
906.1005	1699.297	1612.75	726.5
906.2419	1701.0191	1594.35	708.95
906.3833	1702.7404	1589.9	705.25
906.5246	1704.461	1593.5	707.65
906.666	1706.1808	1581.25	694.35
906.8073	1707.8999	1576.2	688.5
906.9487	1709.6182	1577.15	693.15
907.09	1711.3358	1581.2	695.85
907.2313	1713.0527	1563.85	678.9
907.3725	1714.7688	1578.9	688.3
907.5138	1716.4841	1560.8	673.3
907.655	1718.1987	1563.9	672.05
907.7962	1719.9126	1557.35	672.1
907.9374	1721.6257	1550.65	663.7
908.0786	1723.338	1561.8	677.25
908.2198	1725.0496	1559.8	672.85
908.3609	1726.7605	1550.6	662.75
908.502	1728.4706	1548.5	662
908.6431	1730.18	1543.55	656.1
908.7842	1731.8886	1543.65	658.5
908.9253	1733.5964	1550.25	658.9
909.0664	1735.3036	1543.7	656.95
909.2074	1737.0099	1537.8	654.45
909.3484	1738.7156	1529.75	645.55
909.4894	1740.4204	1535.65	647.85
909.6304	1742.1246	1533.1	645.65
909.7714	1743.8279	1529.65	642.65
909.9123	1745.5306	1532.75	645
910.0532	1747.2325	1523.45	638.3
910.1941	1748.9336	1518.3	632.9
910.335	1750.634	1522.05	636.35
910.4759	1752.3336	1521.35	637.6
910.6168	1754.0325	1522.45	639.15
910.7576	1755.7307	1517.15	631.6
910.8984	1757.4281	1518.9	635.85
911.0392	1759.1247	1519.85	625.8
911.18	1760.8206	1520.3	630.25
911.3208	1762.5158	1522.45	631.4
911.4615	1764.2102	1514	629.6
911.6022	1765.9039	1512.55	628
911.7429	1767.5968	1509.7	626.65
911.8836	1769.289	1504	619.5
912.0243	1770.9804	1504.45	617.85
912.1649	1772.6711	1503.35	618.55
912.3056	1774.361	1499.25	612.2
912.4462	1776.0502	1498.55	613.25
912.5868	1777.7386	1500.95	610.05
912.7274	1779.4263	1501.6	616
912.8679	1781.1132	1502.35	615.5
913.0084	1782.7994	1496.9	609.95
913.149	1784.4849	1490.55	608.6
913.2895	1786.1696	1494.2	602.05
913.4299	1787.8535	1491.75	608.2
913.5704	1789.5367	1489.95	603.65
913.7108	1791.2192	1486.5	601.65
913.8513	1792.9009	1501.3	590.1
913.9917	1794.5818	1491.05	605.35
914.132	1796.2621	1482.65	599.4
914.2724	1797.9415	1474.25	587.9
914.4128	1799.6202	1474.65	590.05
914.5531	1801.2982	1478.55	594.4
914.6934	1802.9755	1465.8	578.55
914.8337	1804.6519	1471.55	586.9
914.9739	1806.3277	1472.05	588.45
915.1142	1808.0027	1463.55	581.1
915.2544	1809.6769	1467.75	582.85
915.3946	1811.3504	1462.05	574.85
915.5348	1813.0231	1470.35	585.5
915.675	1814.6951	1461.4	575.8
915.8151	1816.3664	1467.75	580.8
915.9553	1818.0369	1452.2	567.15
916.0954	1819.7067	1453.6	569.55
916.2355	1821.3757	1453.6	566.35
916.3755	1823.044	1454.15	568.35
916.5156	1824.7115	1451.65	564.95
916.6556	1826.3783	1447.95	562.95
916.7956	1828.0443	1448.3	563.55
916.9356	1829.7096	1447	558.45
917.0756	1831.3741	1452.65	564.4
917.2155	1833.0379	1448.65	562.25
917.3555	1834.701	1446.55	558.8
917.4954	1836.3633	1442.2	556
917.6353	1838.0248	1441.7	555.9
917.7751	1839.6856	1444.6	558.95
917.915	1841.3457	1441.3	556.8
918.0548	1843.005	1439.8	554.4
918.1946	1844.6636	1437.25	553
918.3344	1846.3214	1427.15	541.45
918.4742	1847.9785	1429.3	543.75
918.6139	1849.6349	1430.8	545.2
918.7537	1851.2904	1432.75	538.9
918.8934	1852.9453	1437.45	551.55
919.0331	1854.5994	1429.15	541.75
919.1727	1856.2528	1435.5	545
919.3124	1857.9054	1424.4	537.8
919.452	1859.5572	1428.2	541.85
919.5916	1861.2083	1421.55	535.05
919.7312	1862.8587	1423.25	538.25
919.8708	1864.5084	1428.55	540.95
920.0103	1866.1572	1428.85	545.85
920.1498	1867.8054	1414	527.9
920.2893	1869.4528	1418.8	532.3
920.4288	1871.0994	1418.1	530.85
920.5683	1872.7453	1417.8	531.7
920.7077	1874.3905	1417.75	524.6
920.8471	1876.0349	1406	520.85
920.9865	1877.6786	1410.1	522.55
921.1259	1879.3215	1411.6	525.85
921.2653	1880.9637	1415.35	527.7
921.4046	1882.6051	1409.8	525.55
921.5439	1884.2458	1405.55	516.65
921.6832	1885.8858	1410.9	524.2
921.8225	1887.525	1403.15	516.4
921.9617	1889.1634	1402.15	517.1
922.101	1890.8011	1401.9	517.4
922.2402	1892.4381	1401.6	517.1
922.3794	1894.0743	1397.75	512.3
922.5185	1895.7098	1401.2	515.65
922.6577	1897.3446	1402.15	514.45
922.7968	1898.9786	1393.25	503.6
922.9359	1900.6118	1392.25	509.05
923.075	1902.2443	1388.65	502.85
923.214	1903.8761	1388.65	502.95
923.3531	1905.5071	1386.55	499.55
923.4921	1907.1374	1383.35	495.7
923.6311	1908.7669	1380.4	494.75
923.77	1910.3957	1381.75	495.6
923.909	1912.0237	1380.55	495.7
924.0479	1913.651	1376.15	489.7
924.1868	1915.2776	1378.95	492.05
924.3257	1916.9034	1373.95	489.65
924.4646	1918.5285	1376.55	491.95
924.6034	1920.1528	1375.55	490.65
924.7422	1921.7764	1370.7	486.75
924.881	1923.3992	1371.9	487.95
925.0198	1925.0213	1363.4	476.3
925.1586	1926.6427	1367.6	485.45
925.2973	1928.2633	1430.1	475.9
925.436	1929.8832	1370.7	482.75
925.5747	1931.5023	1365.55	480.2
925.7134	1933.1207	1358.65	473.55
925.852	1934.7383	1364.4	477.35
925.9906	1936.3552	1350.3	466.75
926.1292	1937.9714	1353.4	466.4
926.2678	1939.5868	1354	465.7
926.4064	1941.2015	1353.1	468.3
926.5449	1942.8154	1350.55	464.8
926.6834	1944.4286	1352.85	468.2
926.8219	1946.041	1368.3	459.9
926.9604	1947.6528	1356	464.35
927.0988	1949.2637	1341.9	455.85
927.2372	1950.8739	1349.95	463.25
927.3756	1952.4834	1351.15	465.95
927.514	1954.0921	1343.7	455.85
927.6523	1955.7001	1341.2	451.7
927.7907	1957.3074	1339.1	453.45
927.929	1958.9139	1335.4	450.5
928.0673	1960.5197	1336.05	449.1
928.2055	1962.1247	1329.85	444.35
928.3438	1963.729	1333	448.7
928.482	1965.3325	1358.9	448.65
928.6202	1966.9353	1325.45	439.7
928.7584	1968.5374	1335.9	448.6
928.8965	1970.1387	1325.15	441.85
929.0346	1971.7393	1328.9	441.95
929.1727	1973.3392	1323.95	438.4
929.3108	1974.9383	1319.9	433.4
929.4489	1976.5366	1320.5	435.45
929.5869	1978.1342	1324.15	437.7
929.7249	1979.7311	1316.45	430.95
929.8629	1981.3273	1319.45	434.45
930.0009	1982.9227	1318.7	430
930.1388	1984.5173	1314.25	429.8
930.2767	1986.1112	1311.7	426.2
930.4146	1987.7044	1311.1	426.95
930.5525	1989.2968	1312.2	426.5
930.6904	1990.8885	1310.45	421.55
930.8282	1992.4795	1311.15	423.65
930.966	1994.0697	1311.1	427.25
931.1038	1995.6592	1307.9	421.95
931.2415	1997.2479	1303.05	418.35
931.3793	1998.8359	1303.65	419.25
931.517	2000.4232	1301.35	417.25
931.6547	2002.0097	1303.25	422
931.7923	2003.5955	1302.3	416.55
931.93	2005.1805	1302.05	415
932.0676	2006.7648	1303.75	421.2
932.2052	2008.3484	1299.5	412.15
932.3427	2009.9312	1299.3	413.45
932.4803	2011.5133	1294	412.05
932.6178	2013.0946	1293.85	409.55
932.7553	2014.6752	1288.35	406.8
932.8928	2016.2551	1292.95	406.9
933.0302	2017.8342	1291.45	408.95
933.1676	2019.4126	1289.65	406.4
933.305	2020.9902	1289.9	407.35
933.4424	2022.5672	1294.3	409.6
933.5798	2024.1433	1301.3	410.55
933.7171	2025.7188	1289.5	406.55
933.8544	2027.2935	1285.35	402.3
933.9917	2028.8674	1281.1	398.1
934.129	2030.4406	1280.8	397.5
934.2662	2032.0131	1273.75	391.6
934.4034	2033.5849	1284.05	397.3
934.5406	2035.1559	1282.65	399.5
934.6778	2036.7261	1280	395.8
934.8149	2038.2957	1277.75	393.5
934.952	2039.8645	1279.5	395.3
935.0891	2041.4325	1283.25	395.95
935.2262	2042.9998	1273.45	389.35
935.3632	2044.5664	1276.4	391.1
935.5002	2046.1323	1276.3	393.1
935.6372	2047.6974	1275.15	390.95
935.7742	2049.2617	1275.45	393.6
935.9111	2050.8254	1300.35	394.3
936.048	2052.3883	1275.45	387.95
936.1849	2053.9504	1269.3	386.55
936.3218	2055.5118	1272.85	387.85
936.4586	2057.0725	1271.6	384.3
936.5955	2058.6325	1267.7	383.35
936.7323	2060.1917	1272.55	389.65
936.869	2061.7502	1273.05	386.25
937.0058	2063.3079	1265.25	381.1
937.1425	2064.8649	1265.65	376.05
937.2792	2066.4212	1268.2	383.1
937.4159	2067.9767	1269.25	385.35
937.5525	2069.5315	1260.6	376.05
937.6891	2071.0856	1258.15	373.75
937.8257	2072.6389	1264.35	379.5
937.9623	2074.1915	1256.2	373.45
938.0989	2075.7433	1264.35	377.75
938.2354	2077.2945	1259.2	377.25
938.3719	2078.8448	1258.85	373.95
938.5084	2080.3945	1256.75	374.75
938.6448	2081.9434	1255.25	369.9
938.7812	2083.4916	1260.3	375.25
938.9176	2085.039	1257.2	371.25
939.054	2086.5857	1257.85	372.25
939.1903	2088.1317	1253.65	369.95
939.3267	2089.677	1256.65	371.45
939.463	2091.2215	1249.95	365.05
939.5992	2092.7652	1251.65	366.2
939.7355	2094.3083	1253.3	366.95
939.8717	2095.8506	1258.35	375.4
940.0079	2097.3921	1248.2	364.4
940.1441	2098.933	1247.5	363.1
940.2802	2100.4731	1249.8	365.5
940.4163	2102.0124	1261.35	359
940.5524	2103.5511	1247.35	363.7
940.6885	2105.089	1249.35	363.95
940.8245	2106.6261	1256	371.85
940.9606	2108.1626	1243.3	358.5
941.0965	2109.6983	1273.7	359.7
941.2325	2111.2332	1249.85	364.25
941.3684	2112.7675	1246.95	362.45
941.5044	2114.301	1243.1	358.15
941.6403	2115.8337	1243.75	359.85
941.7761	2117.3657	1244.5	360.1
941.912	2118.897	1238.8	354.3
942.0478	2120.4276	1250.3	359.55
942.1835	2121.9575	1240.2	354.8
942.3193	2123.4866	1257.3	360.2
942.455	2125.0149	1241.95	354.85
942.5907	2126.5426	1240.65	357.65
942.7264	2128.0695	1239.45	351.6
942.8621	2129.5956	1236.4	352.55
942.9977	2131.1211	1232.65	343.35
943.1333	2132.6458	1234.4	352.1
943.2689	2134.1698	1235.75	350.4
943.4044	2135.693	1230.3	343.6
943.54	2137.2155	1233.8	346.8
943.6755	2138.7373	1229.55	344.8
943.8109	2140.2584	1229.3	344.95
943.9464	2141.7787	1240.75	349.9
944.0818	2143.2983	1228.35	345.45
944.2172	2144.8171	1226.1	343.75
944.3526	2146.3353	1231.25	345.6
944.4879	2147.8527	1217.1	331.6
944.6232	2149.3693	1223.2	339.15
944.7585	2150.8853	1225.5	337.55
944.8938	2152.4005	1226.5	343.55
945.029	2153.9149	1228.4	342.8
945.1642	2155.4287	1313.45	327.2
945.2994	2156.9417	1226.95	338.1
945.4346	2158.454	1218.95	332.7
945.5697	2159.9655	1219.6	333.75
945.7048	2161.4764	1223.05	338.9
945.8399	2162.9865	1220.3	337
945.9749	2164.4958	1220.15	334.15
946.1099	2166.0045	1219.75	331.2
946.2449	2167.5124	1221.35	337.2
946.3799	2169.0195	1217.4	332.7
946.5148	2170.526	1215.85	332.35
946.6498	2172.0317	1211.95	328.15
946.7846	2173.5367	1210.9	328.5
946.9195	2175.0409	1213.95	328.3
947.0543	2176.5445	1208.85	326.7
947.1891	2178.0473	1210.35	325.95
947.3239	2179.5494	1214.55	324.55
947.4587	2181.0507	1214.7	328.45
947.5934	2182.5513	1213.15	327.5
947.7281	2184.0512	1208.2	324.25
947.8628	2185.5504	1206.2	321.75
947.9974	2187.0488	1206.5	321.55
948.132	2188.5465	1202.8	318.3
948.2666	2190.0435	1205.7	320.65
948.4012	2191.5397	1202.85	317.3
948.5357	2193.0353	1206.5	324
948.6702	2194.5301	1205.9	321.6
948.8047	2196.0241	1202.6	317.05
948.9392	2197.5175	1202.65	320.1
949.0736	2199.0101	1204	314.1
949.208	2200.502	1195.6	312.4
949.3424	2201.9931	1191.6	307.2
949.4767	2203.4835	1197.9	312.35
949.611	2204.9733	1208.85	306.2
949.7453	2206.4622	1195.4	310.05
949.8796	2207.9505	1190.35	304.4
950.0138	2209.438	1190.9	308.05
950.148	2210.9248	1190.1	305.45
950.2822	2212.4109	1190.5	306.2
950.4164	2213.8962	1185.2	297.6
950.5505	2215.3809	1191.65	305.2
950.6846	2216.8648	1188.2	302.6
950.8186	2218.3479	1185.7	297.35
950.9527	2219.8304	1181.5	293.25
951.0867	2221.3121	1187.95	301.3
951.2207	2222.7931	1186.65	302.9
951.3546	2224.2733	1185.75	303.5
951.4886	2225.7529	1184.35	299.75
951.6225	2227.2317	1181.75	296
951.7563	2228.7098	1174.35	291.85
951.8902	2230.1872	1179.95	296.65
952.024	2231.6638	1179.2	294.25
952.1578	2233.1397	1179.4	290.25
952.2916	2234.6149	1175.85	291.85
952.4253	2236.0894	1177.15	293.6
952.559	2237.5632	1175.05	288.45
952.6927	2239.0362	1174	289.85
952.8263	2240.5085	1170.35	286.3
952.9599	2241.9801	1172.05	289.05
953.0935	2243.4509	1166.6	281.2
953.2271	2244.921	1169.75	284.7
953.3606	2246.3904	1172	285.5
953.4941	2247.8591	1167.65	283.85
953.6276	2249.3271	1167.45	282.35
953.7611	2250.7943	1165.1	281.6
953.8945	2252.2608	1168.9	284.7
954.0279	2253.7266	1162.85	278.95
954.1612	2255.1917	1164.8	279.05
954.2946	2256.656	1160.45	276.4
954.4279	2258.1197	1158.55	274
954.5612	2259.5826	1159.2	272.55
954.6944	2261.0447	1162.05	277.2
954.8276	2262.5062	1162.7	276.8
954.9608	2263.9669	1161.35	275.2
955.094	2265.4269	1161.25	276.3
955.2271	2266.8862	1153.3	268.7
955.3602	2268.3448	1156.25	271.4
955.4933	2269.8026	1163.5	276.7
955.6264	2271.2598	1157.95	274.65
955.7594	2272.7162	1148.25	263.65
955.8924	2274.1719	1155.1	271.6
956.0253	2275.6268	1153.8	269.7
956.1583	2277.0811	1154.85	269.65
956.2912	2278.5346	1157.5	275.2
956.4241	2279.9874	1151.2	267.15
956.5569	2281.4395	1142.1	259.45
956.6897	2282.8908	1154.95	267.1
956.8225	2284.3414	1159.45	273.2
956.9553	2285.7914	1151.8	268.65
957.088	2287.2406	1152.65	266.15
957.2207	2288.689	1147.8	265.15
957.3534	2290.1368	1150.9	263.7
957.486	2291.5838	1150.2	263.15
957.6186	2293.0302	1144.85	259.55
957.7512	2294.4758	1145.25	261.7
957.8838	2295.9206	1147.3	258.65
958.0163	2297.3648	1144.4	259.1
958.1488	2298.8082	1142.45	257.1
958.2813	2300.251	1138.3	254.3
958.4137	2301.693	1142.65	254.5
958.5461	2303.1343	1140.35	253.55
958.6785	2304.5748	1139.1	254.1
958.8108	2306.0147	1138.85	253.55
958.9432	2307.4538	1130.1	244.45
959.0754	2308.8922	1137.55	253.8
959.2077	2310.3299	1136.45	251.85
959.3399	2311.7669	1133	248.7
959.4721	2313.2031	1132.55	247.85
959.6043	2314.6387	1134.9	250.2
959.7365	2316.0735	1135.85	251.65
959.8686	2317.5076	1139.85	254.15
960.0006	2318.941	1133.7	250.2
960.1327	2320.3737	1136.5	252.15
960.2647	2321.8056	1138	250.95
960.3967	2323.2369	1132.95	247.2
960.5287	2324.6674	1131.35	244.9
960.6606	2326.0972	1131.9	245.35
960.7925	2327.5263	1132.25	248.7
960.9244	2328.9547	1135.5	250.3
961.0562	2330.3823	1134	249.25
961.1881	2331.8092	1134.8	247.05
961.3198	2333.2355	1122.85	239.6
961.4516	2334.661	1129.85	242.2
961.5833	2336.0858	1126.5	240.9
961.715	2337.5098	1123.25	239.15
961.8467	2338.9332	1128.55	241.65
961.9783	2340.3558	1126.55	238.7
962.1099	2341.7778	1127.2	242.4
962.2415	2343.199	1121.7	236.2
962.373	2344.6195	1118.05	234
962.5045	2346.0393	1117.65	232.85
962.636	2347.4583	1116.7	232.05
962.7675	2348.8767	1118.35	233.5
962.8989	2350.2943	1119.3	232.4
963.0303	2351.7113	1121.2	234.4
963.1617	2353.1275	1119.6	233.1
963.293	2354.543	1139.25	231.7
963.4243	2355.9578	1118.8	233.35
963.5556	2357.3718	1115.1	230.25
963.6868	2358.7852	1115.25	228.7
963.818	2360.1978	1112.85	227.35
963.9492	2361.6098	1111.95	227.85
964.0803	2363.021	1114.15	226.7
964.2114	2364.4315	1114.45	230.3
964.3425	2365.8413	1108.85	223.2
964.4736	2367.2504	1108.3	224.9
964.6046	2368.6587	1110.45	225.35
964.7356	2370.0664	1105.95	221.95
964.8666	2371.4733	1106.05	221.05
964.9975	2372.8795	1107.2	223.15
965.1284	2374.285	1108.45	220.75
965.2593	2375.6899	1108.7	224.35
965.3901	2377.0939	1107.05	224.4
965.5209	2378.4973	1100.15	216.55
965.6517	2379.9	1102.95	217.25
965.7825	2381.3019	1105.3	219.75
965.9132	2382.7032	1097.45	212.7
966.0439	2384.1037	1099.1	213.6
966.1745	2385.5035	1099.25	215.5
966.3051	2386.9027	1100.1	215.1
966.4357	2388.3011	1098.35	209.7
966.5663	2389.6987	1099.2	213.3
966.6968	2391.0957	1097.65	213.15
966.8273	2392.492	1100.05	214.05
966.9578	2393.8876	1094.1	209.9
967.0882	2395.2824	1091.2	206.45
967.2186	2396.6765	1092.65	208.7
967.349	2398.07	1090	206.3
967.4793	2399.4627	1092.65	204.95
967.6097	2400.8547	1092.55	206.65
967.7399	2402.246	1096.55	203.95
967.8702	2403.6366	1088.5	204.4
968.0004	2405.0265	1091.15	206.35
968.1306	2406.4156	1093.7	204.3
968.2607	2407.8041	1093	204.75
968.3909	2409.1918	1090.5	202.45
968.521	2410.5789	1088.65	203.45
968.651	2411.9652	1086.4	197.9
968.781	2413.3508	1080.6	192.8
968.911	2414.7358	1087.05	200.45
969.041	2416.12	1085	200.35
969.1709	2417.5035	1083.5	198.05
969.3008	2418.8863	1083.85	197.1
969.4307	2420.2684	1080.7	193.4
969.5606	2421.6497	1082.35	198
969.6904	2423.0304	1076	191.5
969.8201	2424.4104	1079.1	194.35
969.9499	2425.7896	1082.05	195.2
970.0796	2427.1682	1076.4	190.15
970.2093	2428.546	1078.7	193.1
970.3389	2429.9232	1074.75	185.55
970.4685	2431.2996	1073.35	187.6
970.5981	2432.6753	1075.65	190.6
970.7277	2434.0503	1076.5	190.8
970.8572	2435.4246	1074.15	189.25
970.9867	2436.7982	1070.95	183.5
971.1161	2438.1711	1072.5	186.65
971.2456	2439.5433	1076.2	191
971.375	2440.9148	1075.4	183.05
971.5043	2442.2856	1073.9	188.15
971.6336	2443.6557	1072.9	183.3
971.7629	2445.025	1066.85	181.85
971.8922	2446.3937	1073.55	187.75
972.0214	2447.7617	1069.35	182.05
972.1506	2449.1289	1070.55	184.05
972.2798	2450.4955	1068.6	182.1
972.4089	2451.8613	1068.25	185.3
972.538	2453.2265	1065.65	178.75
972.6671	2454.5909	1067.3	184.4
972.7961	2455.9546	1062.25	175.65
972.9251	2457.3177	1065.4	180
973.0541	2458.68	1070.55	182.75
973.1831	2460.0416	1067.45	182.6
973.312	2461.4025	1063.95	178.85
973.4408	2462.7627	1076.4	181.9
973.5697	2464.1222	1062.15	178.95
973.6985	2465.4811	1060.75	176.6
973.8273	2466.8392	1061.3	176.6
973.956	2468.1966	1061.65	172.45
974.0847	2469.5533	1064.55	176.6
974.2134	2470.9093	1064.95	177.35
974.3421	2472.2645	1057.55	171.55
974.4707	2473.6191	1058.75	174.35
974.5993	2474.973	1058.8	174.9
974.7278	2476.3262	1063.5	174.95
974.8563	2477.6787	1057.2	173.9
974.9848	2479.0305	1051.05	166.65
975.1132	2480.3816	1056.3	169.15
975.2417	2481.7319	1054.85	170.05
975.37	2483.0816	1056.1	169.15
975.4984	2484.4306	1061.25	175.4
975.6267	2485.7789	1052.4	167.1
975.755	2487.1264	1055.45	169.7
975.8833	2488.4733	1054.2	170.3
976.0115	2489.8195	1061.35	168.15
976.1397	2491.165	1055.25	165.15
976.2678	2492.5097	1053.5	167.35
976.3959	2493.8538	1051.4	165.95
976.524	2495.1972	1049.25	164.85
976.6521	2496.5398	1051.55	164.9
976.7801	2497.8818	1050.85	164.15
976.9081	2499.2231	1048.75	163.15
977.036	2500.5637	1048.6	163.4
977.164	2501.9035	1047.3	162
977.2918	2503.2427	1052.7	163.3
977.4197	2504.5812	1050.5	166.8
977.5475	2505.919	1047.2	159.2
977.6753	2507.256	1048.9	163.6
977.8031	2508.5924	1043.3	160
977.9308	2509.9281	1048.8	157.65
978.0585	2511.2631	1044.3	159.85
978.1861	2512.5974	1045.2	160.7
978.3137	2513.9309	1042.9	156.5
978.4413	2515.2638	1063.4	151.9
978.5689	2516.596	1042.35	155.8
978.6964	2517.9275	1044.7	158.1
978.8239	2519.2583	1040.8	156.45
978.9513	2520.5884	1042.2	155.4
979.0788	2521.9178	1044.15	160.45
979.2062	2523.2465	1036.5	151.45
979.3335	2524.5745	1038.45	154.8
979.4608	2525.9018	1038.7	155.35
979.5881	2527.2284	1036.5	151.65
979.7154	2528.5543	1039.05	156.1
979.8426	2529.8796	1033.1	147.65
979.9698	2531.2041	1036.35	150.65
980.0969	2532.5279	1033.5	148.9
980.224	2533.851	1037.05	150.65
980.3511	2535.1735	1032.95	149.95
980.4781	2536.4952	1032.75	148.9
980.6052	2537.8163	1035.55	148.95
980.7321	2539.1366	1030.7	147.6
980.8591	2540.4562	1037.4	151.4
980.986	2541.7752	1034.9	149.8
981.1129	2543.0935	1033.1	147.1
981.2397	2544.411	1036.8	149.7
981.3665	2545.7279	1028.9	144.5
981.4933	2547.0441	1032.3	147.65
981.62	2548.3596	1035.2	147.6
981.7467	2549.6744	1031.6	145.95
981.8734	2550.9885	1040.75	147.55
982.0001	2552.3019	1026.6	142
982.1267	2553.6146	1035.35	149.95
982.2532	2554.9266	1030.45	145.5
982.3798	2556.2379	1029.65	143.45
982.5063	2557.5485	1028.05	144.05
982.6327	2558.8585	1032.45	138.7
982.7592	2560.1677	1034.45	144.2
982.8856	2561.4762	1026.4	141.25
983.0119	2562.7841	1029.45	141.2
983.1383	2564.0913	1028.8	145.75
983.2646	2565.3977	1024.85	140.9
983.3908	2566.7035	1023.65	139.6
983.517	2568.0086	1026.65	140.05
983.6432	2569.313	1026.2	142.65
983.7694	2570.6167	1030.4	142.9
983.8955	2571.9197	1023.55	138.25
984.0216	2573.222	1027.5	139.2
984.1476	2574.5236	1024.7	140.65
984.2737	2575.8246	1023.1	136.25
984.3996	2577.1248	1026.1	137.1
984.5256	2578.4244	1022.4	137.4
984.6515	2579.7232	1021.7	136.1
984.7774	2581.0214	1051	135
984.9032	2582.3189	1023.95	140.5
985.029	2583.6157	1034.25	136.6
985.1548	2584.9118	1019	134.5
985.2806	2586.2072	1023.85	137.95
985.4063	2587.5019	1020.4	133.65
985.5319	2588.7959	1020.55	135.1
985.6576	2590.0893	1021.75	132.1
985.7832	2591.3819	1022.8	138.7
985.9087	2592.6739	1017.8	133.3
986.0343	2593.9652	1024.65	138.6
986.1597	2595.2557	1020	135.6
986.2852	2596.5456	1019.6	132.9
986.4106	2597.8348	1021.65	137.9
986.536	2599.1234	1016.65	131.3
986.6614	2600.4112	1021.9	137.5
986.7867	2601.6983	1019.9	132.05
986.912	2602.9848	1018.8	133.25
987.0372	2604.2705	1027.3	136.1
987.1624	2605.5556	1017.35	131.15
987.2876	2606.84	1015.9	130.45
987.4128	2608.1237	1015.3	127.35
987.5379	2609.4067	1015.25	130.3
987.6629	2610.689	1023.8	129.7
987.788	2611.9707	1019.35	130.65
987.913	2613.2516	1018.4	130.3
988.0379	2614.5319	1010.75	126
988.1629	2615.8115	1011.15	126.45
988.2878	2617.0903	1008	121.2
988.4126	2618.3685	1013.7	128.15
988.5375	2619.6461	1010.2	125.05
988.6622	2620.9229	1009.55	124.75
988.787	2622.199	1008.35	123.3
988.9117	2623.4745	1012.45	128.65
989.0364	2624.7493	1011.7	127.35
989.161	2626.0234	1006.55	122.9
989.2857	2627.2968	1008.45	125.35
989.4102	2628.5695	1008.35	121.5
989.5348	2629.8415	1009	123.3
989.6593	2631.1128	1008	123.3
989.7837	2632.3835	1005.85	121.3
989.9082	2633.6535	1004	116.85
990.0326	2634.9228	1001.15	117.1
990.1569	2636.1914	1003.15	117.8
990.2812	2637.4593	1012.75	122.45
990.4055	2638.7265	1003.15	116.5
990.5298	2639.9931	1001.05	117.85
990.654	2641.259	1004.55	118.55
990.7782	2642.5242	1005.85	120.25
990.9023	2643.7887	1003.75	117.2
991.0264	2645.0525	1004.15	117.85
991.1505	2646.3156	1015.3	115.3
991.2745	2647.5781	1002.9	118.95
991.3985	2648.8398	1000.75	118.1
991.5225	2650.1009	1008.4	116.45
991.6464	2651.3613	1001.4	116.8
991.7703	2652.6211	998.5	112.35
991.8942	2653.8801	995.45	112
992.018	2655.1385	1000.8	113.35
992.1418	2656.3961	995.35	111.1
992.2655	2657.6531	996.4	112.65
992.3892	2658.9094	997.2	110.7
992.5129	2660.1651	995.3	109.85
992.6366	2661.42	998	112.75
992.7602	2662.6743	997.05	111
992.8837	2663.9279	996.65	111.2
993.0073	2665.1808	997.55	110
993.1307	2666.433	998.55	111.75
993.2542	2667.6846	995.95	113.15
993.3776	2668.9354	1001.4	111.85
993.501	2670.1856	1000.65	114.75
993.6244	2671.4351	994.25	109.85
993.7477	2672.6839	995.45	109.25
993.8709	2673.9321	995.1	111.45
993.9942	2675.1795	995.35	110.4
994.1174	2676.4263	998.1	112.6
994.2405	2677.6724	993.6	109.95
994.3637	2678.9179	993.4	108.35
994.4868	2680.1626	993.3	109.1
994.6098	2681.4067	993.5	108.55
994.7328	2682.6501	993.35	108
994.8558	2683.8928	993.8	108.85
994.9788	2685.1348	994.5	108.95
995.1017	2686.3761	994.3	111.2
995.2245	2687.6168	991.8	104.65
995.3474	2688.8568	991.05	105.3
995.4702	2690.0961	989.2	107.05
995.5929	2691.3348	988.25	104.3
995.7156	2692.5727	987.2	100.7
995.8383	2693.81	988.4	103.15
995.961	2695.0466	984.2	102.05
996.0836	2696.2826	990.75	101.85
996.2062	2697.5178	988.55	101.3
996.3287	2698.7524	986.25	101.25
996.4512	2699.9863	992.35	105.7
996.5737	2701.2195	986.75	104.05
996.6961	2702.452	988.4	102.15
996.8185	2703.6839	988.75	102.85
996.9408	2704.9151	986.45	103.75
997.0631	2706.1456	988.1	103.35
997.1854	2707.3755	987.95	103.55
997.3077	2708.6046	988.6	102.85
997.4299	2709.8331	986.4	103.3
997.552	2711.0609	985.1	100
997.6742	2712.2881	987.7	102.9
997.7963	2713.5145	990.65	105.25
997.9183	2714.7403	986.85	105.3
998.0403	2715.9654	987.1	101.3
998.1623	2717.1899	1000.8	99.45
998.2842	2718.4136	987.95	104.25
998.4062	2719.6367	989.4	103.4
998.528	2720.8591	996.5	106.45
998.6498	2722.0809	989.25	103.9
998.7716	2723.3019	999.5	112.25
998.8934	2724.5223	992.05	106.05
999.0151	2725.7421	992.55	106.25
999.1368	2726.9611	992.05	104.9
999.2584	2728.1795	993.4	105.95
999.38	2729.3972	987.45	101.95
999.5016	2730.6142	995.05	95.9
999.6231	2731.8306	989.1	103.85
999.7446	2733.0462	986.5	100
999.8661	2734.2612	987.8	97.2
999.9875	2735.4756	981.8	96.25
1000.1089	2736.6892	982.85	97.85
1000.2302	2737.9022	978.8	93.8
1000.3515	2739.1145	975.1	89.95
1000.4728	2740.3262	988.05	96.65
1000.594	2741.5372	976.75	92.4
1000.7152	2742.7475	981.25	96.45
1000.8363	2743.9571	975.15	89.65
1000.9575	2745.1661	978.1	90.8
1001.0785	2746.3744	976.85	90.65
1001.1996	2747.582	973.05	88.25
1001.3206	2748.7889	974.05	87.25
1001.4415	2749.9952	970.5	84.75
1001.5625	2751.2008	969.75	84.65
1001.6833	2752.4057	973.5	86.75
1001.8042	2753.61	972.5	86.75
1001.925	2754.8136	972.85	85.35
1002.0458	2756.0165	968.65	83
1002.1665	2757.2188	966	82.75
1002.2872	2758.4204	970.6	86.95
1002.4078	2759.6213	971.75	83.55
1002.5285	2760.8215	978.15	90.8
1002.649	2762.0211	972.5	87.8
1002.7696	2763.22	972.5	84.55
1002.8901	2764.4182	971.85	83.2
1003.0106	2765.6158	966.9	81.1
1003.131	2766.8127	970.55	85.15
1003.2514	2768.009	965.95	81.1
1003.3717	2769.2045	967.55	81.65
1003.492	2770.3994	967.5	81
1003.6123	2771.5936	966.9	81.1
1003.7325	2772.7872	966.6	83.3
1003.8527	2773.9801	965.9	77.3
1003.9729	2775.1723	983.75	80.45
1004.093	2776.3639	964.95	81.1
1004.2131	2777.5548	964.9	77.8
1004.3331	2778.745	968.7	82.85
1004.4531	2779.9346	959.65	76.35
1004.5731	2781.1235	964.35	79.4
1004.693	2782.3117	964.75	81.75
1004.8129	2783.4992	963.25	79.5
1004.9328	2784.6861	962.75	77.8
1005.0526	2785.8723	965.85	80.45
1005.1723	2787.0579	963.8	78.6
1005.2921	2788.2428	963.95	78.7
1005.4118	2789.427	961.15	76.25
1005.5314	2790.6106	961.75	78.4
1005.651	2791.7935	966.45	81.45
1005.7706	2792.9757	962.15	76.6
1005.8902	2794.1573	964.05	75.45
1006.0097	2795.3382	963.05	76.9
1006.1291	2796.5184	960.45	75.35
1006.2485	2797.698	965.7	79.85
1006.3679	2798.8769	963.3	79.45
1006.4873	2800.0551	964.05	80.75
1006.6066	2801.2327	963.35	77.5
1006.7258	2802.4096	963.45	79.35
1006.8451	2803.5859	962.8	77.2
1006.9642	2804.7615	964.35	78.4
1007.0834	2805.9364	961.55	80.6
1007.2025	2807.1106	961.95	78.3
1007.3216	2808.2842	963.25	77.1
1007.4406	2809.4572	964.4	79.75
1007.5596	2810.6294	967.5	81.9
1007.6785	2811.801	966.9	82.85
1007.7975	2812.972	968.95	84.25
1007.9163	2814.1423	966.05	82.1
1008.0352	2815.3119	970.15	86
1008.154	2816.4808	969.2	86.9
1008.2727	2817.6491	979.7	95.45
1008.3914	2818.8167	978.45	95.35
1008.5101	2819.9837	983.5	92.35
1008.6288	2821.15	987.2	103.55
1008.7474	2822.3157	983.6	99.2
1008.8659	2823.4807	997	111.5
1008.9844	2824.645	1003.05	118.3
1009.1029	2825.8086	1008.4	126.2
1009.2214	2826.9716	1015.95	132.85
1009.3398	2828.134	1025.35	141.8
1009.4581	2829.2957	1028.6	143.3
1009.5764	2830.4567	1031.6	148.9
1009.6947	2831.617	1038.75	152.25
1009.813	2832.7767	1040.35	155.4
1009.9312	2833.9358	1042.5	160.75
1010.0493	2835.0941	1040.3	155.05
1010.1675	2836.2519	1038.7	153.3
1010.2855	2837.4089	1031.35	146
1010.4036	2838.5653	1029.7	144.6
1010.5216	2839.7211	1023.5	140.65
1010.6396	2840.8761	1027.45	140.6
1010.7575	2842.0306	1024.4	140.75
1010.8754	2843.1843	1022.45	138.7
1010.9932	2844.3374	1023.5	138.9
1011.111	2845.4899	1029.3	143.95
1011.2288	2846.6417	1028.25	143.25
1011.3465	2847.7928	1026.9	141.85
1011.4642	2848.9433	1026.9	143.1
1011.5818	2850.0931	1030.75	145.9
1011.6995	2851.2422	1033.05	147.5
1011.817	2852.3907	1031.3	145.7
1011.9345	2853.5385	1030.4	145
1012.052	2854.6857	1039.75	146.2
1012.1695	2855.8323	1035.45	153.05
1012.2869	2856.9781	1034.9	150.5
1012.4042	2858.1233	1033.75	150.4
1012.5216	2859.2679	1038.95	154.75
1012.6389	2860.4118	1045.45	161.95
1012.7561	2861.555	1047.55	157.95
1012.8733	2862.6976	1051.7	169
1012.9905	2863.8395	1051.35	166.05
1013.1076	2864.9808	1054.15	170.8
1013.2247	2866.1214	1049.25	165.5
1013.3417	2867.2614	1056.35	172.35
1013.4587	2868.4007	1055.95	170.85
1013.5757	2869.5393	1059.2	172.4
1013.6926	2870.6773	1068.35	181.4
1013.8095	2871.8146	1065.4	176.95
1013.9263	2872.9513	1065.55	178.8
1014.0431	2874.0874	1064.6	181.7
1014.1599	2875.2227	1066.7	182.2
1014.2766	2876.3574	1068.5	184.15
1014.3933	2877.4915	1069	186.1
1014.51	2878.6249	1071.35	188.45
1014.6266	2879.7577	1077	193.55
1014.7431	2880.8898	1085.75	190.6
1014.8596	2882.0212	1078.6	195.6
1014.9761	2883.152	1079.5	195.4
1015.0925	2884.2821	1081.75	197.45
1015.2089	2885.4116	1081.55	198.15
1015.3253	2886.5405	1090.15	205
1015.4416	2887.6686	1094.8	207.35
1015.5579	2888.7962	1088.5	206.45
1015.6741	2889.923	1087.2	203.35
1015.7903	2891.0493	1089.15	204.7
1015.9065	2892.1748	1086	203.15
1016.0226	2893.2997	1083.2	198.9
1016.1387	2894.424	1085.95	203.7
1016.2547	2895.5476	1081.45	196.3
1016.3707	2896.6706	1087.65	202.15
1016.4866	2897.7929	1088.3	201.7
1016.6025	2898.9145	1083.3	198.65
1016.7184	2900.0355	1086.5	201.1
1016.8342	2901.1559	1082.6	197.6
1016.95	2902.2756	1089.1	201.25
1017.0658	2903.3946	1081.1	197.4
1017.1815	2904.513	1085.4	198.7
1017.2971	2905.6308	1082.15	198.65
1017.4127	2906.7479	1079.85	193.15
1017.5283	2907.8643	1083.75	199
1017.6439	2908.9801	1081.05	198
1017.7594	2910.0953	1079.55	195.2
1017.8748	2911.2098	1083.4	196.15
1017.9902	2912.3236	1082.65	189.65
1018.1056	2913.4368	1079.1	191.05
1018.2209	2914.5494	1076.6	192
1018.3362	2915.6613	1080.85	191.1
1018.4515	2916.7725	1079.85	192.5
1018.5667	2917.8831	1069.05	184.4
1018.6819	2918.9931	1070.05	181.7
1018.797	2920.1024	1067.55	181.9
1018.9121	2921.211	1059.95	175.65
1019.0271	2922.319	1063.45	179.35
1019.1421	2923.4264	1052.3	168.3
1019.2571	2924.5331	1053.4	169.35
1019.372	2925.6391	1056.55	172.9
1019.4869	2926.7445	1056.55	173.75
1019.6017	2927.8493	1060.3	174.8
1019.7165	2928.9534	1057.35	172.4
1019.8313	2930.0569	1064.7	176.3
1019.946	2931.1597	1061.95	174.85
1020.0606	2932.2619	1063.1	178.6
1020.1753	2933.3634	1061.25	176.15
1020.2899	2934.4643	1063.75	173.15
1020.4044	2935.5645	1073.55	182.4
1020.5189	2936.6641	1069.85	179.85
1020.6334	2937.763	1063.2	180.95
1020.7478	2938.8613	1067.65	182.55
1020.8622	2939.959	1071.55	181.85
1020.9765	2941.056	1062.15	178.2
1021.0908	2942.1523	1053.05	167.2
1021.2051	2943.248	1050.5	164.15
1021.3193	2944.3431	1046.4	161.7
1021.4334	2945.4375	1034.05	148.6
1021.5476	2946.5313	1028.6	146.95
1021.6617	2947.6244	1027.15	141.4
1021.7757	2948.7169	1019.15	134.5
1021.8897	2949.8087	1011.6	127.25
1022.0037	2950.8999	1005.35	120.9
1022.1176	2951.9904	1000.7	116.95
1022.2315	2953.0803	993.2	107.95
1022.3453	2954.1696	989.8	106.8
1022.4591	2955.2582	990.7	107.4
1022.5728	2956.3462	986.4	101.35
1022.6865	2957.4335	989.45	104.7
1022.8002	2958.5202	984.1	96.7
1022.9138	2959.6062	984.05	100.35
1023.0274	2960.6916	983	99.55
1023.141	2961.7764	987.55	103
1023.2545	2962.8605	983.85	101.05
1023.3679	2963.9439	983.8	99.15
1023.4813	2965.0267	982.95	98.1
1023.5947	2966.1089	1005.65	98.7
1023.708	2967.1905	982.05	99.3
1023.8213	2968.2714	979.25	95.1
1023.9346	2969.3516	977.15	93.05
1024.0478	2970.4312	989.4	98.15
1024.1609	2971.5102	977.85	92.4
1024.274	2972.5885	977.65	92.2
1024.3871	2973.6662	983.5	92.85
1024.5002	2974.7432	980.6	96.35
1024.6132	2975.8196	979.55	95.45
1024.7261	2976.8954	977.75	94.6
1024.839	2977.9705	979.8	95
1024.9519	2979.045	979.3	97.25
1025.0647	2980.1188	979.45	96.8
1025.1775	2981.192	973.55	90.1
1025.2902	2982.2645	980.65	95.1
1025.4029	2983.3364	974.8	90.55
1025.5156	2984.4077	972.15	88.4
1025.6282	2985.4783	978.95	88.5
1025.7407	2986.5483	967.15	84.5
1025.8532	2987.6177	965.2	83.25
1025.9657	2988.6864	964.4	80.1
1026.0782	2989.7545	964.05	80.7
1026.1906	2990.8219	959.75	75.5
1026.3029	2991.8887	959.85	73.4
1026.4152	2992.9548	959.55	74.5
1026.5275	2994.0204	952.45	68.2
1026.6397	2995.0852	948.85	65.45
1026.7519	2996.1495	950.15	65.15
1026.864	2997.2131	946.25	62.15
1026.9761	2998.276	947.9	64.3
1027.0882	2999.3383	944.85	59.5
1027.2002	3000.4	942.75	57.1
1027.3122	3001.4611	940.5	58.5
1027.4241	3002.5215	936.75	52
1027.536	3003.5812	935.4	51.75
1027.6478	3004.6404	933.1	48.1
1027.7596	3005.6989	936.25	51.15
1027.8714	3006.7567	933.15	48.15
1027.9831	3007.8139	953.8	48
1028.0947	3008.8705	928.75	45.15
1028.2064	3009.9264	936.3	48.8
1028.3179	3010.9818	930.55	46.1
1028.4295	3012.0364	929.5	46.25
1028.541	3013.0905	925.95	41.2
1028.6524	3014.1439	926.7	42.45
1028.7638	3015.1966	927.5	43.85
1028.8752	3016.2487	924.3	40.9
1028.9865	3017.3002	930.8	42.4
1029.0978	3018.3511	922.85	41
1029.209	3019.4013	924.25	40.05
1029.3202	3020.4509	925.9	42.95
1029.4314	3021.4998	924.85	42.45
1029.5425	3022.5481	923.5	40.7
1029.6535	3023.5958	923.85	39.8
1029.7645	3024.6428	923.3	38.8
1029.8755	3025.6892	923	40.95
1029.9864	3026.735	924.95	39.8
1030.0973	3027.7802	923.35	37.85
1030.2082	3028.8247	922.65	38.9
1030.319	3029.8685	925.8	41.95
1030.4297	3030.9118	928.55	43.1
1030.5404	3031.9544	924.1	41.05
1030.6511	3032.9963	919.35	35.9
1030.7617	3034.0376	925.55	42
1030.8723	3035.0783	926.15	39.1
1030.9829	3036.1184	926.05	41.4
1031.0934	3037.1578	923.1	41.2
1031.2038	3038.1966	923.6	38.45
1031.3142	3039.2348	922.75	40.15
1031.4246	3040.2723	933.05	40.55
1031.5349	3041.3092	925.55	41.65
1031.6452	3042.3455	923.5	41.25
1031.7554	3043.3811	922.8	40.05
1031.8656	3044.4161	923	40.4
1031.9758	3045.4505	922.5	40.35
1032.0859	3046.4842	925.35	41.1
1032.1959	3047.5173	920.95	38.25
1032.3059	3048.5498	924.3	41.45
1032.4159	3049.5816	922.6	38.5
1032.5258	3050.6128	923.75	39.5
1032.6357	3051.6434	922.1	38.4
1032.7455	3052.6734	921.4	35.5
1032.8553	3053.7027	921.55	36.45
1032.9651	3054.7314	921.4	38
1033.0748	3055.7594	923.1	40.25
1033.1845	3056.7868	924.15	38.1
1033.2941	3057.8136	921.45	37.35
1033.4037	3058.8398	923.5	40.4
1033.5132	3059.8653	924.35	41.6
1033.6227	3060.8902	922.9	38.6
1033.7321	3061.9145	923.9	39.45
1033.8415	3062.9381	926	42.25
1033.9509	3063.9612	938.1	38.7
1034.0602	3064.9835	926.6	42.4
1034.1694	3066.0053	927.8	42.3
1034.2787	3067.0264	921.5	38.55
1034.3878	3068.0469	923.8	38.85
1034.497	3069.0668	926.5	39.7
1034.6061	3070.086	925.05	42.4
1034.7151	3071.1046	926.25	39.5
1034.8241	3072.1226	922.9	37.45
1034.9331	3073.1399	922.05	38.75
1035.042	3074.1567	922.65	38.1
1035.1508	3075.1727	925.55	41.8
1035.2597	3076.1882	918.75	35.2
1035.3684	3077.203	920.6	38.1
1035.4772	3078.2173	920.1	34.95
1035.5859	3079.2308	925.9	37.5
1035.6945	3080.2438	920.85	34.4
1035.8031	3081.2561	921.25	38.8
1035.9117	3082.2678	918.95	32.8
1036.0202	3083.2789	918.6	35.2
1036.1286	3084.2893	916.05	31.2
1036.2371	3085.2991	917.6	32.5
1036.3454	3086.3083	918.95	29.8
1036.4538	3087.3169	915.7	31.7
1036.562	3088.3248	915.35	29.35
1036.6703	3089.3321	916.95	31.6
1036.7785	3090.3388	913.85	31.5
1036.8866	3091.3449	915.9	32.45
1036.9948	3092.3503	914.8	30.25
1037.1028	3093.3551	915.2	32.6
1037.2108	3094.3593	912.8	30.6
1037.3188	3095.3629	914	30.75
1037.4267	3096.3658	915.45	28.95
1037.5346	3097.3681	912.8	30.65
1037.6425	3098.3698	913.5	28.2
1037.7503	3099.3708	914.65	24.75
1037.858	3100.3713	911.85	27.3
1037.9657	3101.3711	912.3	28.75
1038.0734	3102.3702	1054.8	31.25
1038.181	3103.3688	913.9	26.9
1038.2886	3104.3667	911.2	27.65
1038.3961	3105.364	911.2	27.4
1038.5036	3106.3607	911.6	27.05
1038.611	3107.3568	914.2	30
1038.7184	3108.3522	910.95	26.8
1038.8257	3109.347	911.45	26.3
1038.933	3110.3412	914.5	27.3
1039.0403	3111.3348	910	25.35
1039.1475	3112.3277	907.7	24.4
1039.2547	3113.32	909.9	26.7
1039.3618	3114.3117	910.45	25.7
1039.4689	3115.3028	908.25	24.45
1039.5759	3116.2932	909.7	22.75
1039.6829	3117.2831	913.45	23.75
1039.7898	3118.2723	909.75	25.7
1039.8967	3119.2608	907.2	23.65
1040.0035	3120.2488	908.7	25.8
1040.1103	3121.2361	908.6	22.55
1040.2171	3122.2229	905.95	23.95
1040.3238	3123.209	910.15	24.2
1040.4305	3124.1944	907.85	24.3
1040.5371	3125.1793	908	21.9
1040.6437	3126.1635	908.8	25.15
1040.7502	3127.1471	905.6	23.7
1040.8567	3128.1301	906.15	23.4
1040.9631	3129.1125	902.7	19.15
1041.0695	3130.0942	908.95	24.8
1041.1759	3131.0753	916.1	24.2
1041.2822	3132.0558	907.8	21.15
1041.3884	3133.0357	905.9	20.4
1041.4946	3134.015	907.4	21.8
1041.6008	3134.9936	906.25	21.85
1041.7069	3135.9716	924.55	20.8
1041.813	3136.949	902.85	18.65
1041.919	3137.9258	924.6	23.3
1042.025	3138.902	910.5	21.35
1042.1309	3139.8775	904.4	20.5
1042.2368	3140.8524	905.6	21.35
1042.3427	3141.8267	905.4	20.95
1042.4485	3142.8004	904.3	20.4
1042.5542	3143.7735	910.75	20.1
1042.6599	3144.7459	905.65	18.8
1042.7656	3145.7178	904.45	21.65
1042.8712	3146.689	904.8	23.6
1042.9768	3147.6596	909.15	21.2
1043.0823	3148.6295	903.65	19.95
1043.1878	3149.5989	903.8	20.1
1043.2932	3150.5676	902.1	18.7
1043.3986	3151.5357	901.1	18.75
1043.5039	3152.5032	903.7	19.8
1043.6092	3153.4701	903	19.25
1043.7145	3154.4364	906.1	20.45
1043.8197	3155.402	902.25	18.4
1043.9248	3156.367	904	18.15
1044.03	3157.3315	940.85	20.2
1044.135	3158.2952	901.9	19.5
1044.24	3159.2584	901.8	19.05
1044.345	3160.221	903.5	18.9
1044.4499	3161.1829	901.75	17.6
1044.5548	3162.1442	901.95	16.55
1044.6596	3163.105	902.2	17.15
1044.7644	3164.065	904.6	21.05
1044.8692	3165.0245	905.4	18.2
1044.9739	3165.9834	899.15	16.2
1045.0785	3166.9416	900.2	16.25
1045.1831	3167.8993	902.45	18.3
1045.2877	3168.8563	899.8	15.3
1045.3922	3169.8127	900.4	18.25
1045.4966	3170.7684	899.35	13.9
1045.6011	3171.7236	904.55	19.2
1045.7054	3172.6782	900.4	16
1045.8098	3173.6321	901.05	18
1045.914	3174.5854	903.5	15.1
1046.0183	3175.5381	901.45	17.5
1046.1224	3176.4902	900.75	16.4
1046.2266	3177.4417	899.05	14.4
1046.3307	3178.3926	897.9	14.3
1046.4347	3179.3428	898.95	15.6
1046.5387	3180.2924	901.35	20.25
1046.6427	3181.2415	899.45	16.5
1046.7466	3182.1899	902.75	17.15
1046.8504	3183.1377	898.95	14.2
1046.9542	3184.0848	903.35	15.9
1047.058	3185.0314	900.8	17.1
1047.1617	3185.9773	898.4	13.15
1047.2654	3186.9227	901.35	16.45
1047.369	3187.8674	898.25	14.9
1047.4726	3188.8115	904.25	18.2
1047.5761	3189.755	900.75	17.15
1047.6796	3190.6979	898.65	16.2
1047.783	3191.6402	898.5	16.15
1047.8864	3192.5818	897.65	13.95
1047.9898	3193.5229	906.4	16.4
1048.0931	3194.4633	898.2	12.8
1048.1963	3195.4031	900.25	16.95
1048.2995	3196.3423	899	14.6
1048.4027	3197.2809	897.7	14.95
1048.5058	3198.2189	899.35	15.85
1048.6089	3199.1563	916.8	16.05
1048.7119	3200.0931	897	16.15
1048.8148	3201.0292	899	15.3
1048.9178	3201.9648	897.65	12.75
1049.0206	3202.8997	898	10.3
1049.1235	3203.834	896.3	12.75
1049.2262	3204.7677	896.7	14.1
1049.329	3205.7008	900.8	14.75
1049.4317	3206.6333	898.2	16
1049.5343	3207.5652	899.15	10.65
1049.6369	3208.4964	897.8	15.05
1049.7394	3209.4271	895.85	12.95
1049.8419	3210.3571	896.6	12.9
1049.9444	3211.2865	898.35	16.4
1050.0468	3212.2154	897.3	12.7
1050.1491	3213.1436	900.55	14.25
1050.2514	3214.0712	904.15	14
1050.3537	3214.9982	898.65	14.85
1050.4559	3215.9246	896.7	12.85
1050.5581	3216.8503	897.2	14.25
1050.6602	3217.7755	896.75	11.7
1050.7623	3218.7001	897	12.85
1050.8643	3219.624	897.65	13.8
1050.9663	3220.5473	898.15	15.4
1051.0682	3221.4701	898.2	14.05
1051.1701	3222.3922	898.25	12.35
1051.2719	3223.3137	897.25	13.55
1051.3737	3224.2346	894.65	9.4
1051.4754	3225.1549	896.6	13.8
1051.5771	3226.0746	894.7	9.45
1051.6788	3226.9937	897.35	13.35
1051.7804	3227.9121	893.9	10.2
1051.8819	3228.83	895.85	12.4
1051.9834	3229.7473	897.5	14.05
1052.0849	3230.6639	896.4	13.9
1052.1863	3231.5799	897.3	11.2
1052.2876	3232.4954	896.75	13
1052.3889	3233.4102	894.85	11.6
1052.4902	3234.3244	895.4	12.9
1052.5914	3235.238	894.7	10
1052.6926	3236.151	909.45	11.65
1052.7937	3237.0634	895.3	13.2
1052.8948	3237.9752	895.5	10.7
1052.9958	3238.8864	896.4	11.35
1053.0968	3239.797	896.35	13.3
1053.1977	3240.7069	897.7	13.95
1053.2986	3241.6163	897	10.6
1053.3994	3242.5251	894.15	12.6
1053.5002	3243.4332	894.2	10.8
1053.6009	3244.3408	895.45	11.05
1053.7016	3245.2477	894.65	11.6
1053.8022	3246.154	894.8	10.6
1053.9028	3247.0598	895.9	11.65
1054.0034	3247.9649	895.9	12.2
1054.1039	3248.8694	895.55	11.85
1054.2043	3249.7733	895.15	12.55
1054.3047	3250.6766	895.8	11.95
1054.4051	3251.5793	897.2	13.65
1054.5054	3252.4814	893.85	11.5
1054.6056	3253.3829	892.35	6.9
1054.7058	3254.2838	894.15	11.55
1054.806	3255.1841	894.35	9.4
1054.9061	3256.0838	893.4	9
1055.0061	3256.9829	891.3	9.1
1055.1062	3257.8814	895.5	11.15
1055.2061	3258.7792	898.85	12.55
1055.306	3259.6765	894.05	9.3
1055.4059	3260.5731	892.7	8.85
1055.5057	3261.4692	894.7	9.65
1055.6055	3262.3647	893.6	9.45
1055.7052	3263.2595	892.5	8
1055.8049	3264.1538	892.35	9.1
1055.9045	3265.0474	893.8	8.5
1056.0041	3265.9404	891.6	8.75
1056.1036	3266.8329	892.5	8.45
1056.2031	3267.7247	902.4	9.55
1056.3025	3268.616	890.8	8.95
1056.4019	3269.5066	890.65	7.3
1056.5013	3270.3966	892.65	7.9
1056.6005	3271.286	891.25	9.35
