Software Version:	3.9.2.0
Unit SN:	10000200
Spectrometer SN:	6960
Date:	3/26/2024 1:11:40 PM
Data Line Index:	25
Spectral Points:	2048
Integration time (ms):	125
Averages:	20
Delay (ms):	30000
Sequence Number:	1
Processing:	dark subtract
Laser Power (mW):	305
Laser Current (mA):	818
Laser Diode Temp (C):	25
Laser Case Temp (C):	26.2
System Temp (C):	26.2
Spectrometer Temp (C):	24
CCD Temp (C):	0.007
Secondary Temp (C):	20.003
Heatsink Temp (C):	21.688
CCDPCB Temp (C):	36.218
SecondaryPCB Temp (C):	32.65

Wavelength	RamanShift	Raw Counts	Dark Subtracted
787.061	30.1047	424.6	13.9
787.2016	32.3739	423.55	14.35
787.3422	34.6426	426.75	15.1
787.4828	36.9109	430.15	15.3
787.6235	39.1787	433.9	16.45
787.7642	41.4461	439.35	17.1
787.9049	43.7131	446.4	21
788.0456	45.9796	449.45	20.9
788.1863	48.2456	452.95	22.05
788.3271	50.5112	458.95	23.1
788.4679	52.7764	459.65	23.65
788.6087	55.0411	468	27
788.7496	57.3054	473.85	28.3
788.8904	59.5692	475.95	27.25
789.0313	61.8326	482.65	30.4
789.1722	64.0955	491.3	35.05
789.3132	66.3579	500.65	38.85
789.4541	68.6199	504.7	41.1
789.5951	70.8815	517.4	51.65
789.7361	73.1426	540.7	70.8
789.8771	75.4032	587.1	111.9
790.0181	77.6634	703.35	226.55
790.1592	79.9231	976.45	493.25
790.3003	82.1824	1554.8	1066.8
790.4414	84.4412	2544.35	2053.25
790.5825	86.6995	3878	3378.85
790.7237	88.9574	5229.85	4726.25
790.8648	91.2148	6218.3	5712
791.006	93.4717	6750.85	6238.55
791.1472	95.7282	6963.35	6446.05
791.2885	97.9842	7026.9	6508.95
791.4297	100.2398	7021.8	6502.55
791.571	102.4949	7004.55	6484.15
791.7123	104.7495	6995.55	6467.9
791.8536	107.0036	6956.6	6426
791.9949	109.2573	6930	6404.35
792.1363	111.5105	6870.45	6340.15
792.2777	113.7632	6798.9	6267.6
792.4191	116.0154	6757.85	6216.05
792.5605	118.2672	6700.5	6166.35
792.7019	120.5185	6636.55	6101.05
792.8434	122.7693	6577.3	6039.3
792.9849	125.0197	6503.65	5963.6
793.1264	127.2696	6467	5923.5
793.2679	129.519	6462.25	5915.85
793.4094	131.7679	6428.25	5876
793.551	134.0163	6392.15	5837.75
793.6926	136.2642	6408.05	5848.3
793.8342	138.5117	6405.95	5836.8
793.9758	140.7587	6386.6	5823.95
794.1175	143.0052	6360.3	5795.85
794.2591	145.2512	6315.6	5749.5
794.4008	147.4967	6292.7	5727.8
794.5425	149.7417	6244.75	5676.65
794.6842	151.9863	6224.1	5652.35
794.826	154.2304	6212.45	5635.5
794.9677	156.4739	6184.75	5601.9
795.1095	158.717	6181.9	5599.5
795.2513	160.9596	6185.1	5600.35
795.3931	163.2017	6199	5610.05
795.535	165.4433	6200.35	5608.45
795.6768	167.6844	6186.45	5592.6
795.8187	169.925	6168.3	5571.5
795.9606	172.1651	6108	5508.1
796.1025	174.4047	6069.2	5464.5
796.2445	176.6439	6056.05	5448.75
796.3864	178.8825	6016.75	5407.45
796.5284	181.1206	5996.35	5384.6
796.6704	183.3582	5989.45	5373.1
796.8124	185.5954	5987.05	5370.3
796.9544	187.832	5975.6	5355.6
797.0965	190.0681	5977.5	5355.65
797.2386	192.3037	5989.6	5364.4
797.3806	194.5388	5975	5344.85
797.5228	196.7734	5998.2	5366.45
797.6649	199.0075	6007.15	5370.2
797.807	201.2411	6035.95	5397.35
797.9492	203.4742	6020.65	5383.3
798.0914	205.7068	6060.2	5422.35
798.2336	207.9389	6049.65	5410.7
798.3758	210.1704	6055.5	5412.15
798.518	212.4015	6051.3	5404.05
798.6603	214.632	6049.6	5403.9
798.8025	216.862	6047.5	5411.7
798.9448	219.0915	6030.3	5400.45
799.0871	221.3205	6044.65	5416.05
799.2294	223.549	6046.8	5422.3
799.3718	225.777	6044	5419.75
799.5141	228.0044	6050.8	5423.85
799.6565	230.2314	6032.25	5406.85
799.7989	232.4578	5998.5	5371.8
799.9413	234.6837	5996.7	5359.25
800.0837	236.909	6002.45	5363.7
800.2262	239.1339	6004.55	5341.1
800.3687	241.3582	5981.6	5335.15
800.5111	243.582	5991.9	5314.95
800.6536	245.8053	5994.2	5330.35
800.7961	248.0281	5980.75	5318.4
800.9387	250.2503	5980.7	5315.25
801.0812	252.472	5973.25	5300.7
801.2238	254.6932	5987.15	5311.3
801.3664	256.9139	5964.25	5289.05
801.509	259.134	5976.8	5299.2
801.6516	261.3536	5983.1	5308.3
801.7942	263.5727	6013.1	5335.35
801.9369	265.7912	6011.75	5332.95
802.0795	268.0092	6047.3	5368.75
802.2222	270.2267	6069.6	5388.8
802.3649	272.4436	6095.6	5412.65
802.5076	274.6601	6134.25	5445.25
802.6504	276.8759	6126.5	5442.3
802.7931	279.0913	6147.25	5456.95
802.9359	281.3061	6151.2	5460.85
803.0787	283.5204	6170.45	5480.85
803.2215	285.7341	6181.2	5490.55
803.3643	287.9473	6209.5	5502.9
803.5071	290.16	6199.4	5495.9
803.6499	292.3721	6148.6	5450.95
803.7928	294.5837	6113.6	5416.95
803.9357	296.7947	6087.7	5389.2
804.0786	299.0052	6054.1	5356.95
804.2215	301.2152	6024.35	5322.85
804.3644	303.4246	6023.7	5326.2
804.5074	305.6334	6001.1	5302.1
804.6503	307.8418	5991.75	5290.6
804.7933	310.0495	5967.55	5264.65
804.9363	312.2568	5928.75	5227.15
805.0793	314.4635	5905.4	5203.6
805.2223	316.6696	5867.75	5161.85
805.3653	318.8752	5832.6	5119.6
805.5084	321.0802	5800.15	5093
805.6514	323.2847	5777.1	5068.4
805.7945	325.4887	5773.8	5063.1
805.9376	327.692	5757.15	5045.85
806.0807	329.8949	5817.05	5104.9
806.2238	332.0972	5800.15	5085.95
806.367	334.2989	5849.7	5131.9
806.5101	336.5001	5821.8	5104.55
806.6533	338.7007	5802.4	5084.3
806.7965	340.9008	5790.35	5070
806.9397	343.1003	5734.5	5010.5
807.0829	345.2992	5704.65	4981.5
807.2261	347.4976	5654.25	4928.8
807.3693	349.6955	5635.1	4908
807.5126	351.8927	5629.15	4899.5
807.6559	354.0895	5602.45	4863.15
807.7991	356.2856	5592.9	4864.1
807.9424	358.4812	5575.2	4845.45
808.0857	360.6763	5578.7	4846.4
808.2291	362.8707	5561	4827.35
808.3724	365.0646	5565.55	4828.3
808.5158	367.258	5555.5	4819.35
808.6591	369.4508	5567.75	4825.8
808.8025	371.643	5578.6	4834.65
808.9459	373.8346	5576.3	4831
809.0893	376.0257	5605.05	4856
809.2327	378.2162	5623.65	4876.35
809.3762	380.4062	5634.05	4885.6
809.5196	382.5956	5599	4846.7
809.6631	384.7844	5572.4	4820.3
809.8066	386.9726	5515.2	4759.85
809.9501	389.1603	5508.6	4755.75
810.0936	391.3474	5511.55	4730.15
810.2371	393.5339	5451.5	4698.3
810.3806	395.7199	5440.65	4697.1
810.5241	397.9052	5450.5	4708.3
810.6677	400.09	5477.4	4736.05
810.8113	402.2743	5481.25	4736.35
810.9548	404.4579	5494.55	4749.1
811.0984	406.641	5538.5	4793
811.2421	408.8235	5571.55	4826.1
811.3857	411.0054	5619	4872.15
811.5293	413.1868	5714.65	4963.75
811.673	415.3675	5806.7	5052.45
811.8166	417.5477	5855.65	5103.25
811.9603	419.7273	5756	4996.75
812.104	421.9064	5625.3	4860.75
812.2477	424.0848	5556.7	4792.35
812.3914	426.2627	5504	4739.35
812.5351	428.4399	5455.75	4690.3
812.6788	430.6166	5385.25	4616.8
812.8226	432.7928	5335.65	4566.95
812.9663	434.9683	5321.45	4553.65
813.1101	437.1432	5273.3	4501.8
813.2539	439.3176	5246.6	4475.5
813.3977	441.4914	5187.25	4414.8
813.5415	443.6645	5225.6	4451.3
813.6853	445.8371	5209.8	4434.5
813.8291	448.0091	5209.1	4435.65
813.973	450.1806	5186.4	4411.95
814.1168	452.3514	5149.85	4371.5
814.2607	454.5216	5163.15	4382.65
814.4046	456.6913	5128.65	4349.4
814.5485	458.8603	5127.6	4350.35
814.6924	461.0288	5145	4368.2
814.8363	463.1967	5123.8	4344.5
814.9802	465.3639	5145.95	4365.35
815.1241	467.5306	5119.8	4338.05
815.2681	469.6967	5106.7	4323.45
815.412	471.8622	5088	4307.65
815.556	474.0271	5077	4294.9
815.7	476.1914	5074.55	4288.9
815.844	478.3551	5083.05	4299.8
815.988	480.5182	5082.8	4298.45
816.132	482.6807	5093.75	4306.5
816.276	484.8426	5107.15	4323.25
816.4201	487.0039	5117.6	4331.1
816.5641	489.1647	5166.6	4380.75
816.7082	491.3248	5203.55	4416.95
816.8522	493.4843	5204.3	4418.5
816.9963	495.6432	5189.15	4401.4
817.1404	497.8015	5158.4	4368.05
817.2845	499.9592	5144.25	4357.05
817.4286	502.1163	5099.6	4309.6
817.5727	504.2728	5064.95	4272.45
817.7168	506.4287	5052.7	4261.4
817.861	508.5839	5022.35	4230.65
818.0051	510.7386	5017.95	4225.45
818.1493	512.8927	5034.2	4232.8
818.2935	515.0461	5031.6	4238.8
818.4377	517.199	5030.9	4238.6
818.5818	519.3512	5053.95	4257.7
818.726	521.5029	5108.1	4308.35
818.8703	523.6539	5140.8	4345.25
819.0145	525.8043	5155.2	4357.5
819.1587	527.9541	5104.5	4307.35
819.303	530.1033	5062.4	4261.25
819.4472	532.2519	5010.9	4211
819.5915	534.3999	5007.5	4206
819.7357	536.5472	5002.7	4201.9
819.88	538.694	4984.85	4183.65
820.0243	540.8401	5009.65	4207.2
820.1686	542.9856	5030.3	4223.55
820.3129	545.1305	5021.3	4215.1
820.4572	547.2748	5047.25	4244.05
820.6016	549.4185	5042.75	4237.05
820.7459	551.5615	5048.35	4240.7
820.8902	553.704	5046.4	4240.15
821.0346	555.8458	5057.9	4254.05
821.1789	557.987	5082.95	4277.35
821.3233	560.1276	5085.4	4279.9
821.4677	562.2675	5127.9	4323.1
821.6121	564.4069	5172.3	4367.3
821.7565	566.5456	5218.3	4412.95
821.9009	568.6837	5208.65	4401.3
822.0453	570.8212	5149.1	4343.05
822.1897	572.958	5090.5	4279.6
822.3342	575.0942	5051.35	4244.15
822.4786	577.2299	5033.95	4224.2
822.6231	579.3648	4977.5	4168.55
822.7675	581.4992	4947	4138.05
822.912	583.6329	4919.6	4109.95
823.0565	585.766	4946.65	4137.9
823.201	587.8985	4986.35	4176.65
823.3454	590.0304	4993.45	4171.7
823.4899	592.1616	5024.4	4209.55
823.6345	594.2922	5008.95	4194.75
823.779	596.4222	4986.15	4171.25
823.9235	598.5515	4928.45	4111.7
824.068	600.6802	4906.85	4091.05
824.2126	602.8083	4853.5	4038.15
824.3571	604.9358	4837.4	4020.25
824.5017	607.0626	4825.95	4009.9
824.6462	609.1888	4821.85	4005.25
824.7908	611.3144	4837.15	4018
824.9354	613.4393	4835.95	4018.65
825.08	615.5636	4897.85	4080
825.2246	617.6873	4942.3	4123.6
825.3692	619.8103	4959.5	4139.2
825.5138	621.9327	4968.15	4145.15
825.6584	624.0544	4944.1	4125.15
825.803	626.1756	4899.3	4080.35
825.9477	628.2961	4860.45	4039.7
826.0923	630.4159	4816.45	3996.7
826.237	632.5351	4832.35	4009.85
826.3816	634.6537	4825.9	4003.7
826.5263	636.7716	4810.3	3987.15
826.6709	638.8889	4809.2	3986.7
826.8156	641.0056	4825.15	4003.75
826.9603	643.1216	4814	3988.3
827.105	645.237	4845.1	4020.3
827.2497	647.3518	4803.85	3979.65
827.3944	649.4659	4808.7	3984.9
827.5391	651.5793	4762.1	3938.75
827.6838	653.6922	4747.35	3920.95
827.8285	655.8043	4735.65	3910.1
827.9733	657.9159	4731.55	3904.55
828.118	660.0268	4729.25	3897.5
828.2627	662.137	4729.85	3901.95
828.4075	664.2466	4725.95	3896.15
828.5522	666.3556	4704.1	3876.85
828.697	668.4639	4687.25	3856.8
828.8418	670.5716	4692.05	3863.8
828.9865	672.6786	4698.85	3869.1
829.1313	674.785	4671.35	3839.7
829.2761	676.8907	4659.2	3826.45
829.4209	678.9958	4662.8	3833.75
829.5657	681.1002	4655.8	3822.7
829.7105	683.204	4661.7	3826.85
829.8553	685.3072	4666.3	3832.85
830.0001	687.4097	4659.9	3826.75
830.1449	689.5115	4653.1	3817.65
830.2898	691.6127	4623.35	3788.65
830.4346	693.7132	4613.4	3778.95
830.5794	695.8131	4648.5	3799.05
830.7243	697.9123	4647.3	3809.75
830.8691	700.0109	4647.65	3815.7
831.014	702.1089	4635.4	3800.95
831.1588	704.2061	4643.8	3808
831.3037	706.3028	4651.1	3813.8
831.4486	708.3987	4680.65	3843.4
831.5935	710.4941	4685.8	3850.15
831.7383	712.5887	4693.7	3857.2
831.8832	714.6827	4696.9	3855.2
832.0281	716.7761	4671.15	3833.5
832.173	718.8688	4680.1	3842.4
832.3179	720.9608	4658.35	3816.95
832.4628	723.0522	4665.2	3822
832.6077	725.1429	4690.5	3852.45
832.7527	727.233	4724.6	3885.95
832.8976	729.3224	4754.1	3916.3
833.0425	731.4112	4783.75	3943.45
833.1874	733.4993	4810.3	3968.7
833.3324	735.5867	4782.45	3939.5
833.4773	737.6735	4730.35	3887.45
833.6222	739.7596	4677.15	3835.95
833.7672	741.845	4656.05	3813.5
833.9122	743.9298	4655.85	3811.25
834.0571	746.014	4662.6	3818.1
834.2021	748.0974	4675.25	3830.95
834.347	750.1802	4681.8	3837.95
834.492	752.2624	4658.4	3815.6
834.637	754.3439	4638.65	3793.75
834.782	756.4247	4595.95	3741.15
834.9269	758.5048	4589.95	3745.7
835.0719	760.5843	4583.35	3737.75
835.2169	762.6631	4581.6	3736.45
835.3619	764.7413	4597.4	3755.85
835.5069	766.8188	4663.2	3816.45
835.6519	768.8956	4701.2	3853.05
835.7969	770.9718	4757.5	3912.35
835.9419	773.0473	4735.25	3888.4
836.0869	775.1221	4712.4	3868.15
836.232	777.1962	4674.3	3828.35
836.377	779.2697	4720.7	3873.8
836.522	781.3426	4789.65	3922.4
836.667	783.4147	4822.4	3973.65
836.8121	785.4862	4819.55	3972.55
836.9571	787.557	4753.2	3906.8
837.1021	789.6271	4678.1	3830.15
837.2472	791.6966	4589.2	3740.35
837.3922	793.7654	4501.2	3649.85
837.5373	795.8335	4456.2	3605.2
837.6823	797.901	4423.15	3574.85
837.8274	799.9678	4390.8	3541
837.9724	802.0339	4379.3	3531.5
838.1175	804.0993	4403.8	3543.35
838.2626	806.1641	4380.9	3530.55
838.4076	808.2282	4356	3504.4
838.5527	810.2916	4340.85	3488.6
838.6978	812.3544	4338.85	3490.9
838.8428	814.4164	4318.55	3470.5
838.9879	816.4778	4329.8	3479.85
839.133	818.5385	4317.85	3468.35
839.2781	820.5986	4342	3490.3
839.4232	822.658	4382.95	3527.7
839.5682	824.7166	4417.2	3565.55
839.7133	826.7747	4471.35	3619.8
839.8584	828.832	4507.3	3653.7
840.0035	830.8886	4554	3700.65
840.1486	832.9446	4584.4	3730.45
840.2937	834.9999	4568.45	3717.45
840.4388	837.0545	4494.15	3638
840.5839	839.1085	4438.25	3583.5
840.729	841.1618	4373.85	3513.35
840.8741	843.2143	4341.3	3489.65
841.0192	845.2662	4302.6	3451.05
841.1643	847.3175	4282.5	3432.55
841.3095	849.368	4263.05	3408.6
841.4546	851.4179	4251.7	3395.9
841.5997	853.467	4247.35	3393.4
841.7448	855.5155	4256.75	3399.25
841.8899	857.5633	4239.5	3384.05
842.0351	859.6105	4230.4	3376.55
842.1802	861.6569	4205.75	3353.1
842.3253	863.7027	4204.8	3348.8
842.4704	865.7478	4184.35	3327.8
842.6156	867.7922	4165	3309.9
842.7607	869.8359	4155.6	3299.3
842.9058	871.8789	4147.45	3289.45
843.0509	873.9212	4159.85	3269.95
843.1961	875.9629	4137.85	3279.25
843.3412	878.0039	4138.55	3281.5
843.4863	880.0441	4150.75	3294.7
843.6315	882.0837	4161.35	3301.35
843.7766	884.1226	4175	3314.9
843.9218	886.1609	4193.9	3335.65
844.0669	888.1984	4213.8	3356.3
844.212	890.2352	4245.1	3387.5
844.3572	892.2714	4251.3	3387.3
844.5023	894.3069	4225.05	3367.85
844.6475	896.3416	4185.15	3325.85
844.7926	898.3757	4149.3	3289.9
844.9377	900.4091	4134.25	3273.55
845.0829	902.4418	4134.1	3270.4
845.228	904.4739	4123.85	3261.35
845.3732	906.5052	4136.35	3274.55
845.5183	908.5358	4130.1	3270
845.6635	910.5658	4115.7	3253.85
845.8086	912.595	4074.45	3213.65
845.9538	914.6236	4052	3194.75
846.0989	916.6515	4025.25	3166
846.2441	918.6786	4009.95	3146.5
846.3892	920.7051	3993.65	3130.85
846.5344	922.7309	4002	3140.25
846.6795	924.756	3966.5	3105.9
846.8246	926.7804	3963.65	3099.55
846.9698	928.8041	3946.6	3082.5
847.1149	930.8272	3967.7	3104.95
847.2601	932.8495	3951.8	3088
847.4052	934.8711	3972.1	3111.05
847.5504	936.892	3950.35	3086.8
847.6955	938.9123	3965.85	3099.9
847.8407	940.9318	3972.6	3107.7
847.9858	942.9506	3983.25	3120.35
848.131	944.9688	3959.8	3096.6
848.2761	946.9862	3946.7	3084.35
848.4213	949.003	3921.5	3058.05
848.5664	951.019	3881.65	3019.1
848.7115	953.0344	3842.3	2977
848.8567	955.0491	3840.6	2974.05
849.0018	957.063	3827	2961.85
849.147	959.0763	3829.1	2958.55
849.2921	961.0888	3809.2	2943.15
849.4373	963.1007	3803.3	2938.65
849.5824	965.1119	3808.4	2944.85
849.7275	967.1223	3808.05	2945.4
849.8727	969.1321	3785.6	2922.6
850.0178	971.1412	3767.85	2902.6
850.1629	973.1495	3752.15	2886.7
850.3081	975.1572	3771.35	2889.5
850.4532	977.1641	3751	2886.6
850.5983	979.1704	3735.65	2870.45
850.7435	981.1759	3730.95	2861.3
850.8886	983.1808	3722.3	2852.4
851.0337	985.1849	3712.5	2834.75
851.1788	987.1884	3697.85	2829.7
851.324	989.1911	3694.5	2823.2
851.4691	991.1932	3691.25	2822
851.6142	993.1945	3678.7	2813.95
851.7593	995.1951	3660.55	2794.05
851.9045	997.1951	3663.1	2790.7
852.0496	999.1943	3642.75	2777.15
852.1947	1001.1928	3627.55	2758.9
852.3398	1003.1906	3634.45	2767.75
852.4849	1005.1877	3641.1	2773.65
852.63	1007.1841	3643.85	2777.25
852.7751	1009.1798	3643.05	2774.95
852.9202	1011.1748	3642	2775.05
853.0653	1013.1691	3614.2	2746.05
853.2104	1015.1627	3594.55	2726
853.3555	1017.1556	3541.25	2672.7
853.5006	1019.1477	3528.25	2659.35
853.6457	1021.1392	3486.65	2619.95
853.7908	1023.1299	3482.45	2612.25
853.9359	1025.12	3469.95	2599.5
854.081	1027.1093	3458.8	2592.25
854.2261	1029.0979	3463.95	2598.2
854.3712	1031.0859	3462.4	2596.9
854.5163	1033.0731	3459.35	2591.65
854.6613	1035.0596	3453.9	2586.35
854.8064	1037.0454	3454.05	2583.05
854.9515	1039.0304	3438.7	2569.25
855.0965	1041.0148	3407.05	2538.4
855.2416	1042.9985	3370.6	2499.85
855.3867	1044.9814	3367.25	2498.8
855.5317	1046.9636	3352.85	2481.9
855.6768	1048.9452	3355.6	2486.45
855.8219	1050.926	3348.15	2480.6
855.9669	1052.9061	3345.5	2476.05
856.112	1054.8855	3361.8	2490.55
856.257	1056.8642	3357.15	2486.1
856.4021	1058.8421	3347.15	2471.3
856.5471	1060.8194	3327.65	2456.55
856.6921	1062.7959	3327	2456.1
856.8372	1064.7717	3303.3	2430.35
856.9822	1066.7469	3299.9	2428.85
857.1272	1068.7213	3298.9	2425.35
857.2723	1070.695	3310.05	2440.1
857.4173	1072.6679	3308.3	2435.2
857.5623	1074.6402	3312.15	2439.8
857.7073	1076.6117	3341.9	2465.9
857.8523	1078.5826	3318.25	2447.05
857.9973	1080.5527	3273.1	2399.3
858.1423	1082.5221	3261.15	2388.85
858.2873	1084.4908	3221.6	2349.75
858.4323	1086.4587	3202.15	2329.55
858.5773	1088.426	3194.25	2321
858.7223	1090.3925	3173.75	2298.1
858.8673	1092.3584	3167.7	2296.4
859.0123	1094.3235	3149.3	2279.1
859.1573	1096.2879	3165.7	2293.1
859.3022	1098.2515	3176.15	2303.65
859.4472	1100.2145	3194.9	2323.55
859.5922	1102.1767	3207.8	2333.65
859.7371	1104.1382	3229.9	2354.6
859.8821	1106.099	3270.3	2396.6
860.027	1108.0591	3298.2	2425.8
860.172	1110.0185	3313.3	2439.85
860.3169	1111.9771	3331.3	2458.5
860.4619	1113.9351	3363.15	2490.9
860.6068	1115.8923	3406.85	2534.4
860.7517	1117.8488	3429.15	2553.55
860.8967	1119.8045	3387.55	2514.4
861.0416	1121.7596	3312.8	2438.55
861.1865	1123.7139	3236.2	2364
861.3314	1125.6675	3190.45	2319.3
861.4763	1127.6204	3173.75	2300.3
861.6212	1129.5726	3179.1	2300.55
861.7661	1131.524	3170.95	2299.65
861.911	1133.4748	3135.6	2262.35
862.0559	1135.4248	3103.65	2227.4
862.2008	1137.3741	3057.65	2185.15
862.3457	1139.3226	3019.9	2145.2
862.4905	1141.2705	3026.15	2151.3
862.6354	1143.2176	3010.05	2130.1
862.7803	1145.164	3015.6	2138.9
862.9251	1147.1097	3010.15	2135.8
863.07	1149.0546	2998.2	2122.35
863.2148	1150.9989	2964.9	2088.9
863.3597	1152.9424	2960.45	2085.1
863.5045	1154.8852	2930.85	2055.3
863.6493	1156.8272	2927.05	2051.9
863.7942	1158.7686	2928.05	2044.35
863.939	1160.7092	2912.95	2036.6
864.0838	1162.6491	2914.75	2037.55
864.2286	1164.5883	2904.5	2030.6
864.3734	1166.5267	2915.3	2039.45
864.5182	1168.4644	2926.05	2049.9
864.663	1170.4014	2942.55	2061.75
864.8078	1172.3377	2951.55	2079.9
864.9526	1174.2732	2996.5	2121.8
865.0974	1176.2081	3061.5	2184.6
865.2421	1178.1421	3137.05	2257.6
865.3869	1180.0755	3217.4	2344.25
865.5317	1182.0082	3265.2	2390.1
865.6764	1183.9401	3287.15	2409.25
865.8212	1185.8713	3208.3	2333.65
865.9659	1187.8017	3115.35	2240.25
866.1106	1189.7315	3011.6	2136.1
866.2554	1191.6605	2953.95	2078.3
866.4001	1193.5888	2896.15	2021.95
866.5448	1195.5163	2869	1993.65
866.6895	1197.4432	2841.4	1965.4
866.8342	1199.3693	2813.75	1938.7
866.9789	1201.2947	2804.8	1926.3
867.1236	1203.2193	2798.25	1922.8
867.2683	1205.1432	2800.55	1922.6
867.413	1207.0664	2769.95	1892
867.5576	1208.9889	2761.1	1880.5
867.7023	1210.9106	2749.6	1871.1
867.847	1212.8316	2750.95	1875.45
867.9916	1214.7519	2761.35	1875.1
868.1363	1216.6715	2741.7	1865.25
868.2809	1218.5903	2760.25	1882.15
868.4255	1220.5084	2752.3	1876.25
868.5701	1222.4257	2770.5	1892.5
868.7148	1224.3424	2765.75	1891.8
868.8594	1226.2583	2779.45	1897.4
869.004	1228.1735	2793.8	1913.4
869.1486	1230.0879	2816.95	1938.75
869.2932	1232.0016	2824.55	1948.1
869.4377	1233.9146	2843.2	1965.75
869.5823	1235.8269	2857.1	1980.7
869.7269	1237.7384	2863.65	1985.75
869.8715	1239.6492	2854.45	1980.45
870.016	1241.5592	2862.55	1981.65
870.1606	1243.4686	2885	2008.35
870.3051	1245.3772	2926.7	2049.05
870.4496	1247.285	2990.15	2111.05
870.5941	1249.1922	3046.1	2167.3
870.7387	1251.0986	3092.7	2213.3
870.8832	1253.0042	3141.7	2262.75
871.0277	1254.9092	3206.1	2326.95
871.1722	1256.8134	3269.1	2392.25
871.3167	1258.7169	3329.55	2450.9
871.4611	1260.6196	3368.55	2490.45
871.6056	1262.5216	3384.5	2504.6
871.7501	1264.4229	3391.5	2513.35
871.8945	1266.3234	3362.35	2483.25
872.039	1268.2232	3331.65	2453.6
872.1834	1270.1223	3280.75	2402.75
872.3278	1272.0207	3238.75	2359.4
872.4723	1273.9183	3225.15	2340.4
872.6167	1275.8151	3222.2	2343.9
872.7611	1277.7113	3227.95	2348.7
872.9055	1279.6067	3280.3	2402.55
873.0499	1281.5014	3380.25	2498.75
873.1943	1283.3953	3515.85	2634.65
873.3386	1285.2885	3665.75	2788.8
873.483	1287.181	3790.9	2911.7
873.6274	1289.0727	3851.15	2973
873.7717	1290.9637	3799.7	2918.85
873.9161	1292.854	3715.7	2834.7
874.0604	1294.7435	3627.15	2746.95
874.2047	1296.6323	3515.55	2636.4
874.349	1298.5204	3435.55	2550.8
874.4933	1300.4077	3361.25	2482.4
874.6376	1302.2943	3305.8	2424.85
874.7819	1304.1802	3294.15	2415.25
874.9262	1306.0653	3267.75	2386.35
875.0705	1307.9497	3227.8	2349.25
875.2147	1309.8333	3212.3	2333.9
875.359	1311.7162	3175.45	2295.1
875.5032	1313.5984	3164.25	2283
875.6475	1315.4798	3144.5	2265.1
875.7917	1317.3605	3141.2	2253.9
875.9359	1319.2405	3154.3	2273.15
876.0801	1321.1197	3132.55	2250.05
876.2243	1322.9982	3107.3	2224.05
876.3685	1324.876	3067.05	2188.2
876.5127	1326.753	2996.85	2117.8
876.6569	1328.6293	2932.3	2050.6
876.801	1330.5048	2856.45	1976.75
876.9452	1332.3796	2778.7	1899.65
877.0893	1334.2537	2746.9	1841.75
877.2335	1336.127	2683.65	1801.1
877.3776	1337.9996	2656.25	1775.75
877.5217	1339.8714	2633.15	1754.65
877.6658	1341.7426	2652.7	1729.95
877.8099	1343.6129	2618.4	1737.1
877.954	1345.4826	2586.6	1705.8
878.0981	1347.3515	2567.85	1686
878.2422	1349.2196	2556.7	1675.35
878.3862	1351.087	2561.1	1679.6
878.5303	1352.9537	2557.6	1675.55
878.6743	1354.8197	2540.55	1660.05
878.8184	1356.6849	2555.75	1675.3
878.9624	1358.5493	2563.75	1682.25
879.1064	1360.4131	2576.7	1696.85
879.2504	1362.276	2586.1	1707.65
879.3944	1364.1383	2629.5	1749.3
879.5384	1365.9998	2624.05	1738.4
879.6823	1367.8606	2630.75	1750.8
879.8263	1369.7206	2608.5	1727.15
879.9702	1371.5799	2605.05	1722.55
880.1142	1373.4384	2603.6	1722.55
880.2581	1375.2962	2578.55	1698.6
880.402	1377.1533	2541.65	1658.7
880.5459	1379.0096	2499.25	1617.05
880.6898	1380.8652	2475.55	1592.4
880.8337	1382.7201	2448.6	1569
880.9776	1384.5742	2417.75	1534.9
881.1215	1386.4275	2382.45	1500.6
881.2653	1388.2802	2375	1493.9
881.4092	1390.132	2354.5	1474.2
881.553	1391.9832	2362.85	1479.95
881.6968	1393.8336	2332.35	1450.45
881.8406	1395.6832	2332.05	1449.55
881.9844	1397.5322	2309.65	1428.35
882.1282	1399.3803	2307.65	1421.4
882.272	1401.2278	2299.2	1418.25
882.4158	1403.0745	2272.75	1390.4
882.5595	1404.9204	2273.1	1391.9
882.7033	1406.7656	2262	1380.6
882.847	1408.6101	2263.25	1381.45
882.9908	1410.4538	2244.9	1364.3
883.1345	1412.2968	2244.7	1363.2
883.2782	1414.139	2246.9	1366.6
883.4219	1415.9805	2248.25	1367.4
883.5656	1417.8213	2264.45	1363
883.7092	1419.6613	2259.3	1378.4
883.8529	1421.5006	2271.95	1387.75
883.9965	1423.3391	2305.2	1422.9
884.1402	1425.1769	2337.65	1454.35
884.2838	1427.0139	2380.85	1499.75
884.4274	1428.8502	2445.95	1561.6
884.571	1430.6858	2490.65	1606.85
884.7146	1432.5206	2519.85	1636
884.8582	1434.3547	2506.15	1626.1
885.0018	1436.188	2490.85	1610.2
885.1453	1438.0206	2469.2	1588.3
885.2889	1439.8524	2462.2	1578.6
885.4324	1441.6835	2463.65	1581.5
885.5759	1443.5139	2451.2	1566.5
885.7194	1445.3435	2453.35	1571.6
885.8629	1447.1724	2457.6	1576.15
886.0064	1449.0005	2457.7	1574.55
886.1499	1450.8279	2443.9	1561.6
886.2933	1452.6545	2441.25	1558.75
886.4368	1454.4804	2438.15	1556.9
886.5802	1456.3056	2427.85	1539.7
886.7237	1458.13	2414.9	1534.7
886.8671	1459.9536	2396.65	1511.45
887.0105	1461.7766	2361.65	1481
887.1539	1463.5987	2332.3	1446.5
887.2972	1465.4202	2297.8	1416
887.4406	1467.2409	2277.3	1394.4
887.584	1469.0608	2245.8	1364.1
887.7273	1470.88	2218.55	1335.15
887.8706	1472.6984	2198.95	1317.7
888.0139	1474.5161	2177.9	1293.35
888.1572	1476.3331	2156	1273.85
888.3005	1478.1493	2151	1267.05
888.4438	1479.9648	2145.35	1262.75
888.5871	1481.7795	2143	1260.45
888.7303	1483.5935	2132.6	1251.8
888.8736	1485.4067	2130.45	1247.8
889.0168	1487.2192	2142.5	1257.95
889.16	1489.031	2143.95	1260.2
889.3032	1490.842	2134.75	1254.1
889.4464	1492.6522	2126.2	1244.95
889.5896	1494.4618	2125.4	1240.15
889.7327	1496.2705	2122.9	1239.5
889.8759	1498.0785	2117.5	1235
890.019	1499.8858	2110.35	1225.2
890.1622	1501.6924	2090.7	1209.5
890.3053	1503.4981	2088.95	1204.95
890.4484	1505.3032	2090.65	1207.15
890.5914	1507.1075	2078.85	1195.15
890.7345	1508.911	2076.4	1194.75
890.8776	1510.7138	2066.9	1181.85
891.0206	1512.5159	2061.15	1177.1
891.1637	1514.3172	2044.2	1162.5
891.3067	1516.1178	2033.1	1150.25
891.4497	1517.9176	2024.65	1138.45
891.5927	1519.7166	2024.7	1143
891.7357	1521.515	2016.55	1125.9
891.8786	1523.3126	2004.8	1121.1
892.0216	1525.1094	1995.75	1110.9
892.1645	1526.9055	1989.6	1108.4
892.3074	1528.7008	1988.1	1104.95
892.4503	1530.4954	1987.6	1102.4
892.5932	1532.2893	1975.3	1093.1
892.7361	1534.0824	1971.5	1085.2
892.879	1535.8747	1965.7	1083.9
893.0218	1537.6663	1962.7	1080
893.1647	1539.4572	1959.65	1074.95
893.3075	1541.2473	1958.35	1075.3
893.4503	1543.0367	1953.6	1072.65
893.5931	1544.8253	1957.5	1070.8
893.7359	1546.6132	1957.5	1071.5
893.8787	1548.4003	1956.5	1065.25
894.0214	1550.1867	1959.4	1068.6
894.1642	1551.9723	1963.8	1076.1
894.3069	1553.7572	1962.9	1077.95
894.4496	1555.5414	1971.2	1086.95
894.5923	1557.3247	1989.75	1108.9
894.735	1559.1074	2005.65	1124.95
894.8777	1560.8893	2034.6	1152
895.0204	1562.6705	2064.55	1180.55
895.163	1564.4509	2081.95	1200
895.3056	1566.2305	2089.45	1208.3
895.4482	1568.0094	2107.95	1226.6
895.5908	1569.7876	2095.05	1212.9
895.7334	1571.565	2090.2	1206.95
895.876	1573.3417	2098.2	1216.15
896.0186	1575.1176	2086.7	1204.65
896.1611	1576.8928	2092	1208.3
896.3036	1578.6672	2099.15	1218.75
896.4461	1580.4409	2122.4	1241.05
896.5886	1582.2138	2147.85	1265
896.7311	1583.986	2186.35	1303.2
896.8736	1585.7575	2209.85	1327.6
897.0161	1587.5282	2234.95	1353.15
897.1585	1589.2981	2258.25	1376.55
897.3009	1591.0673	2268.05	1387.05
897.4433	1592.8358	2272.8	1390.55
897.5857	1594.6035	2272.05	1386.9
897.7281	1596.3704	2255.15	1372
897.8705	1598.1366	2239.35	1356.9
898.0128	1599.9021	2214.4	1331.1
898.1551	1601.6668	2187.2	1302.5
898.2975	1603.4308	2165.9	1282.35
898.4398	1605.194	2176.15	1288.2
898.5821	1606.9564	2170.1	1289.05
898.7243	1608.7182	2222.6	1335.55
898.8666	1610.4791	2261.05	1379.3
899.0088	1612.2394	2355.05	1473.9
899.1511	1613.9988	2445.9	1562.95
899.2933	1615.7576	2515.35	1632.5
899.4355	1617.5156	2553.05	1664
899.5776	1619.2728	2538.05	1654.8
899.7198	1621.0293	2474.45	1592.05
899.862	1622.785	2371.95	1488.55
900.0041	1624.54	2276.45	1392.55
900.1462	1626.2942	2179.35	1296.85
900.2883	1628.0477	2090.75	1204.95
900.4304	1629.8005	2019.55	1133.15
900.5725	1631.5525	1945.55	1062.95
900.7145	1633.3037	1898.75	1016.5
900.8566	1635.0542	1862.8	979.95
900.9986	1636.804	1841.65	959.4
901.1406	1638.553	1869.2	938.3
901.2826	1640.3013	1793.7	911.9
901.4245	1642.0488	1774.95	891.85
901.5665	1643.7955	1756.1	875.1
901.7085	1645.5416	1747.85	865.5
901.8504	1647.2868	1741	859.6
901.9923	1649.0313	1731.2	849.25
902.1342	1650.7751	1729.95	844.25
902.2761	1652.5181	1718.7	837.05
902.4179	1654.2604	1713.75	829.7
902.5598	1656.0019	1729.45	847.75
902.7016	1657.7427	1728.35	843.85
902.8434	1659.4828	1728.7	846.5
902.9852	1661.222	1755.95	872.05
903.127	1662.9606	1778.5	896.5
903.2687	1664.6984	1814.7	931.95
903.4105	1666.4354	1822.3	939.4
903.5522	1668.1717	1814.75	933.25
903.6939	1669.9072	1765.3	882.2
903.8356	1671.642	1734.85	849.2
903.9773	1673.3761	1702.1	818.95
904.119	1675.1094	1676.3	795.55
904.2606	1676.8419	1654.65	772.7
904.4022	1678.5737	1635.6	751.2
904.5439	1680.3048	1626.6	742.45
904.6855	1682.0351	1617.4	735.2
904.827	1683.7646	1607.7	720.8
904.9686	1685.4934	1594.2	713
905.1101	1687.2215	1590.6	708.1
905.2517	1688.9488	1585.9	702
905.3932	1690.6754	1582.3	700.35
905.5347	1692.4012	1592.15	709.95
905.6761	1694.1263	1569	685.6
905.8176	1695.8506	1564	680.2
905.9591	1697.5742	1567.65	685.4
906.1005	1699.297	1569.4	687.25
906.2419	1701.0191	1558.2	676.3
906.3833	1702.7404	1548.65	665.7
906.5246	1704.461	1552.6	668.7
906.666	1706.1808	1545.65	661.7
906.8073	1707.8999	1540.45	657.25
906.9487	1709.6182	1538.75	657
907.09	1711.3358	1530.1	647
907.2313	1713.0527	1529.15	648.95
907.3725	1714.7688	1532.8	644.05
907.5138	1716.4841	1534.9	650.4
907.655	1718.1987	1530.45	641.65
907.7962	1719.9126	1517.65	635.85
907.9374	1721.6257	1526.95	640.1
908.0786	1723.338	1522.85	638.25
908.2198	1725.0496	1511.2	628
908.3609	1726.7605	1515.6	631.2
908.502	1728.4706	1521.2	637.85
908.6431	1730.18	1506.55	620.25
908.7842	1731.8886	1501.05	619.4
908.9253	1733.5964	1523.05	634.1
909.0664	1735.3036	1513.75	627.6
909.2074	1737.0099	1509.75	628.35
909.3484	1738.7156	1490.55	607.1
909.4894	1740.4204	1503	616.4
909.6304	1742.1246	1493.25	609.85
909.7714	1743.8279	1495.2	610.65
909.9123	1745.5306	1507.15	623.45
910.0532	1747.2325	1493.15	610.2
910.1941	1748.9336	1493.2	611
910.335	1750.634	1490.4	607.7
910.4759	1752.3336	1481.45	600.45
910.6168	1754.0325	1487.4	604.45
910.7576	1755.7307	1483.85	599.9
910.8984	1757.4281	1489.2	604.35
911.0392	1759.1247	1488.45	596.95
911.18	1760.8206	1480.45	594.3
911.3208	1762.5158	1483.85	595.25
911.4615	1764.2102	1479.7	596.05
911.6022	1765.9039	1473.85	589.95
911.7429	1767.5968	1472.5	589.15
911.8836	1769.289	1473.45	588.7
912.0243	1770.9804	1470.35	587.45
912.1649	1772.6711	1473.6	589.8
912.3056	1774.361	1470.4	587.3
912.4462	1776.0502	1460.6	576.7
912.5868	1777.7386	1462.8	574
912.7274	1779.4263	1461.85	577.05
912.8679	1781.1132	1457.2	575.2
913.0084	1782.7994	1462.75	581.25
913.149	1784.4849	1456.7	574.2
913.2895	1786.1696	1463.55	574.95
913.4299	1787.8535	1459.5	576.2
913.5704	1789.5367	1456.7	574.6
913.7108	1791.2192	1453	569
913.8513	1792.9009	1481.3	571.9
913.9917	1794.5818	1455.45	572.35
914.132	1796.2621	1439.75	557.35
914.2724	1797.9415	1442.2	558.55
914.4128	1799.6202	1448.05	564.7
914.5531	1801.2982	1441.6	559.6
914.6934	1802.9755	1442.5	558.8
914.8337	1804.6519	1439.1	555.6
914.9739	1806.3277	1430.1	547.2
915.1142	1808.0027	1432.75	550.65
915.2544	1809.6769	1431.8	547.8
915.3946	1811.3504	1428.3	543.15
915.5348	1813.0231	1420.6	537
915.675	1814.6951	1429	545.8
915.8151	1816.3664	1437.45	551.45
915.9553	1818.0369	1422.9	539.6
916.0954	1819.7067	1429.6	547.3
916.2355	1821.3757	1429	543.05
916.3755	1823.044	1421.85	538.75
916.5156	1824.7115	1418.2	533.75
916.6556	1826.3783	1417.25	533.1
916.7956	1828.0443	1426.4	545.1
916.9356	1829.7096	1415.15	530.05
917.0756	1831.3741	1413.05	527.85
917.2155	1833.0379	1410.7	527.8
917.3555	1834.701	1414.8	528.05
917.4954	1836.3633	1407.35	523.1
917.6353	1838.0248	1397.4	513.15
917.7751	1839.6856	1409.35	526.85
917.915	1841.3457	1406.15	524.15
918.0548	1843.005	1403.45	521.4
918.1946	1844.6636	1395.05	512.05
918.3344	1846.3214	1395.8	511.95
918.4742	1847.9785	1400.9	521.15
918.6139	1849.6349	1399.7	516.4
918.7537	1851.2904	1402	510.95
918.8934	1852.9453	1393.35	508.3
919.0331	1854.5994	1396.55	511.7
919.1727	1856.2528	1399.35	512.05
919.3124	1857.9054	1389	506.05
919.452	1859.5572	1391.05	507.2
919.5916	1861.2083	1391.35	506.55
919.7312	1862.8587	1392	508.85
919.8708	1864.5084	1391.9	508.25
920.0103	1866.1572	1388.45	505.2
920.1498	1867.8054	1376.8	495.4
920.2893	1869.4528	1389.4	504.85
920.4288	1871.0994	1383.25	498.35
920.5683	1872.7453	1378.55	492.9
920.7077	1874.3905	1388.3	496.45
920.8471	1876.0349	1373	488.3
920.9865	1877.6786	1373.85	490.2
921.1259	1879.3215	1374.8	493.05
921.2653	1880.9637	1376.8	491.05
921.4046	1882.6051	1377.6	495.9
921.5439	1884.2458	1376.65	490.2
921.6832	1885.8858	1370.6	486.5
921.8225	1887.525	1373.25	488
921.9617	1889.1634	1365.7	481.95
922.101	1890.8011	1369.35	485.8
922.2402	1892.4381	1361.45	477.95
922.3794	1894.0743	1367.1	484.1
922.5185	1895.7098	1360.2	477.2
922.6577	1897.3446	1367.7	483.8
922.7968	1898.9786	1373.2	486.4
922.9359	1900.6118	1357.4	474.35
923.075	1902.2443	1355.65	471.95
923.214	1903.8761	1359	474.95
923.3531	1905.5071	1353.85	468.85
923.4921	1907.1374	1350.6	469
923.6311	1908.7669	1355.35	471.85
923.77	1910.3957	1347.05	465.15
923.909	1912.0237	1348.9	465.5
924.0479	1913.651	1346.55	461.95
924.1868	1915.2776	1345	462.65
924.3257	1916.9034	1346.15	464.8
924.4646	1918.5285	1344.3	462.7
924.6034	1920.1528	1340.65	454.9
924.7422	1921.7764	1336.3	451.3
924.881	1923.3992	1335.9	453.85
925.0198	1925.0213	1333.05	446.9
925.1586	1926.6427	1333.25	450.85
925.2973	1928.2633	1397.4	443.55
925.436	1929.8832	1328.15	443.35
925.5747	1931.5023	1333.05	450
925.7134	1933.1207	1326.2	441.6
925.852	1934.7383	1330.9	446.05
925.9906	1936.3552	1327.7	445
926.1292	1937.9714	1326.1	444.25
926.2678	1939.5868	1324.65	438.05
926.4064	1941.2015	1326.35	443.5
926.5449	1942.8154	1320.2	437.6
926.6834	1944.4286	1323.65	439.7
926.8219	1946.041	1330.4	424.45
926.9604	1947.6528	1313.25	423.05
927.0988	1949.2637	1315.65	432.8
927.2372	1950.8739	1309.3	424.65
927.3756	1952.4834	1313.8	430.4
927.514	1954.0921	1314.2	429.2
927.6523	1955.7001	1311.9	424.25
927.7907	1957.3074	1306	423.5
927.929	1958.9139	1309.05	426.35
928.0673	1960.5197	1306.2	422.7
928.2055	1962.1247	1303.4	421.05
928.3438	1963.729	1303.5	422.65
928.482	1965.3325	1324.55	419.95
928.6202	1966.9353	1299.85	417.4
928.7584	1968.5374	1307.1	423.3
928.8965	1970.1387	1294.9	412.95
929.0346	1971.7393	1302.35	418.75
929.1727	1973.3392	1290.3	407.85
929.3108	1974.9383	1295.95	413.3
929.4489	1976.5366	1289.5	407.35
929.5869	1978.1342	1292.2	408.15
929.7249	1979.7311	1299.5	416.2
929.8629	1981.3273	1291.15	408.5
930.0009	1982.9227	1289.05	404.95
930.1388	1984.5173	1282.85	398.7
930.2767	1986.1112	1283.6	401.65
930.4146	1987.7044	1283.3	401.25
930.5525	1989.2968	1284.75	399.45
930.6904	1990.8885	1283.85	395.5
930.8282	1992.4795	1285.35	399.5
930.966	1994.0697	1278.35	394.4
931.1038	1995.6592	1284.95	402.6
931.2415	1997.2479	1275.95	392.8
931.3793	1998.8359	1275.75	392.35
931.517	2000.4232	1278.3	396.3
931.6547	2002.0097	1273.9	394.15
931.7923	2003.5955	1279.05	394.25
931.93	2005.1805	1272	388
932.0676	2006.7648	1270.8	385.6
932.2052	2008.3484	1273.5	389.8
932.3427	2009.9312	1277.55	391.1
932.4803	2011.5133	1266.7	385.4
932.6178	2013.0946	1271.65	390
932.7553	2014.6752	1264.55	382.55
932.8928	2016.2551	1271.3	387.95
933.0302	2017.8342	1263.15	380.9
933.1676	2019.4126	1262.7	380.95
933.305	2020.9902	1264.1	382.05
933.4424	2022.5672	1263	378
933.5798	2024.1433	1273.6	385.75
933.7171	2025.7188	1257.1	376.85
933.8544	2027.2935	1261.7	376.75
933.9917	2028.8674	1258.9	377.2
934.129	2030.4406	1256.55	375.4
934.2662	2032.0131	1260.15	379.55
934.4034	2033.5849	1264.95	380.1
934.5406	2035.1559	1257.65	377.1
934.6778	2036.7261	1256.35	374.2
934.8149	2038.2957	1254.7	371.9
934.952	2039.8645	1254.7	372.6
935.0891	2041.4325	1263.25	375.45
935.2262	2042.9998	1253.95	371.4
935.3632	2044.5664	1255.9	373.4
935.5002	2046.1323	1252.2	369.95
935.6372	2047.6974	1257.35	375.55
935.7742	2049.2617	1245.8	361.5
935.9111	2050.8254	1257.8	370.15
936.048	2052.3883	1250.95	367
936.1849	2053.9504	1245.5	363.15
936.3218	2055.5118	1249.15	365.3
936.4586	2057.0725	1253.45	365.25
936.5955	2058.6325	1249.95	369.5
936.7323	2060.1917	1249.15	367.6
936.869	2061.7502	1247.7	361.3
937.0058	2063.3079	1247.15	364
937.1425	2064.8649	1251.9	363.45
937.2792	2066.4212	1244.05	360.55
937.4159	2067.9767	1244.4	363.15
937.5525	2069.5315	1235.35	353.4
937.6891	2071.0856	1236.85	354.15
937.8257	2072.6389	1243	359.4
937.9623	2074.1915	1238.5	358.9
938.0989	2075.7433	1237.2	352.35
938.2354	2077.2945	1232	352.6
938.3719	2078.8448	1238.05	355.7
938.5084	2080.3945	1237.4	354.35
938.6448	2081.9434	1232.75	350.1
938.7812	2083.4916	1237.1	354.45
938.9176	2085.039	1237.05	352.5
939.054	2086.5857	1233	349.65
939.1903	2088.1317	1233.25	349.05
939.3267	2089.677	1230.75	348.55
939.463	2091.2215	1230.75	348.45
939.5992	2092.7652	1229.95	345.2
939.7355	2094.3083	1232.55	350.3
939.8717	2095.8506	1235.55	354.6
940.0079	2097.3921	1232.05	349
940.1441	2098.933	1225.65	340.95
940.2802	2100.4731	1226.35	343
940.4163	2102.0124	1245.65	344.85
940.5524	2103.5511	1231.3	349.35
940.6885	2105.089	1230.1	347.55
940.8245	2106.6261	1225.75	342.75
940.9606	2108.1626	1228.4	344.3
941.0965	2109.6983	1254.5	343.1
941.2325	2111.2332	1225.3	341.7
941.3684	2112.7675	1224.25	341.55
941.5044	2114.301	1222.7	338.9
941.6403	2115.8337	1224.15	341
941.7761	2117.3657	1223.35	342.8
941.912	2118.897	1219.5	335.15
942.0478	2120.4276	1225.35	335.95
942.1835	2121.9575	1225.1	341.25
942.3193	2123.4866	1236.85	339.05
942.455	2125.0149	1228.7	343.65
942.5907	2126.5426	1216.65	336.25
942.7264	2128.0695	1217	328.2
942.8621	2129.5956	1220.85	339.9
942.9977	2131.1211	1223.85	335.6
943.1333	2132.6458	1215.15	332.4
943.2689	2134.1698	1216.55	332.2
943.4044	2135.693	1219.05	333.35
943.54	2137.2155	1218.15	331.9
943.6755	2138.7373	1208.7	326
943.8109	2140.2584	1210.6	328.15
943.9464	2141.7787	1214.65	326
944.0818	2143.2983	1214.95	334.95
944.2172	2144.8171	1211.9	331.3
944.3526	2146.3353	1212.6	329.7
944.4879	2147.8527	1211.05	329.45
944.6232	2149.3693	1212.65	330.55
944.7585	2150.8853	1213.1	328.35
944.8938	2152.4005	1209.7	325.7
945.029	2153.9149	1208.75	326.1
945.1642	2155.4287	1298.6	314.2
945.2994	2156.9417	1208.15	322.15
945.4346	2158.454	1203.75	319.8
945.5697	2159.9655	1208	326.25
945.7048	2161.4764	1203.35	318.6
945.8399	2162.9865	1202.4	317.45
945.9749	2164.4958	1204.5	320.15
946.1099	2166.0045	1199.45	313.1
946.2449	2167.5124	1207.85	324.8
946.3799	2169.0195	1194.85	313.45
946.5148	2170.526	1199.55	315.4
946.6498	2172.0317	1204.6	321
946.7846	2173.5367	1200.95	318.55
946.9195	2175.0409	1197.45	314.4
947.0543	2176.5445	1196.3	313.2
947.1891	2178.0473	1197.95	315.7
947.3239	2179.5494	1201.3	314.7
947.4587	2181.0507	1193.05	309.55
947.5934	2182.5513	1197	313.1
947.7281	2184.0512	1190.7	308.05
947.8628	2185.5504	1195.85	312.85
947.9974	2187.0488	1190.3	308.6
948.132	2188.5465	1194.1	310.7
948.2666	2190.0435	1187.75	303.75
948.4012	2191.5397	1188.4	306.5
948.5357	2193.0353	1186.15	303.15
948.6702	2194.5301	1186.5	303.45
948.8047	2196.0241	1194	309.5
948.9392	2197.5175	1184	301.3
949.0736	2199.0101	1184.75	299.1
949.208	2200.502	1183.2	301.9
949.3424	2201.9931	1181.8	298
949.4767	2203.4835	1179.15	296.05
949.611	2204.9733	1195.25	296.1
949.7453	2206.4622	1183.4	301.2
949.8796	2207.9505	1181.8	297.3
950.0138	2209.438	1172.1	291
950.148	2210.9248	1176.4	291.85
950.2822	2212.4109	1177.75	295.1
950.4164	2213.8962	1175.7	289.4
950.5505	2215.3809	1177.2	292.3
950.6846	2216.8648	1174.4	291.7
950.8186	2218.3479	1177.9	292.4
950.9527	2219.8304	1173.2	287.2
951.0867	2221.3121	1175.25	290.15
951.2207	2222.7931	1167.4	284.45
951.3546	2224.2733	1169.2	286.5
951.4886	2225.7529	1173.15	291.15
951.6225	2227.2317	1169.65	281.5
951.7563	2228.7098	1172.8	290.05
951.8902	2230.1872	1159.8	276.9
952.024	2231.6638	1167.35	287.9
952.1578	2233.1397	1171.95	285.75
952.2916	2234.6149	1162.9	279.75
952.4253	2236.0894	1158.1	273.9
952.559	2237.5632	1159.7	274.8
952.6927	2239.0362	1162.3	279.5
952.8263	2240.5085	1159.7	276.4
952.9599	2241.9801	1155.5	271.7
953.0935	2243.4509	1157.7	276.8
953.2271	2244.921	1157.5	275.7
953.3606	2246.3904	1157.55	273.15
953.4941	2247.8591	1157.6	275.1
953.6276	2249.3271	1154.35	271.05
953.7611	2250.7943	1154.2	269.8
953.8945	2252.2608	1157.65	275.25
954.0279	2253.7266	1154.15	272
954.1612	2255.1917	1149.4	267.45
954.2946	2256.656	1153.2	268.5
954.4279	2258.1197	1146.85	264.45
954.5612	2259.5826	1155.2	269.85
954.6944	2261.0447	1147.1	261.95
954.8276	2262.5062	1147.65	262.8
954.9608	2263.9669	1145.3	260.05
955.094	2265.4269	1145.8	262.75
955.2271	2266.8862	1142.8	259.1
955.3602	2268.3448	1142.85	261.7
955.4933	2269.8026	1146.4	263.5
955.6264	2271.2598	1142.65	260.05
955.7594	2272.7162	1139.75	258.3
955.8924	2274.1719	1143.6	261.8
956.0253	2275.6268	1142.75	258.1
956.1583	2277.0811	1141.4	257.7
956.2912	2278.5346	1139.1	256.8
956.4241	2279.9874	1137.8	256.65
956.5569	2281.4395	1137.4	257.2
956.6897	2282.8908	1141.55	253.35
956.8225	2284.3414	1145.2	261.65
956.9553	2285.7914	1136.9	253.4
957.088	2287.2406	1143.8	260.7
957.2207	2288.689	1134.5	250.55
957.3534	2290.1368	1133.3	249.6
957.486	2291.5838	1135.35	251.45
957.6186	2293.0302	1137.1	252.15
957.7512	2294.4758	1137	253.05
957.8838	2295.9206	1131.7	247.5
958.0163	2297.3648	1131	247.55
958.1488	2298.8082	1135.15	252.25
958.2813	2300.251	1129.05	246.95
958.4137	2301.693	1137.95	252.45
958.5461	2303.1343	1130.35	248.05
958.6785	2304.5748	1126.15	241.1
958.8108	2306.0147	1128.2	243.55
958.9432	2307.4538	1131.1	246.15
959.0754	2308.8922	1125.2	243.35
959.2077	2310.3299	1123.3	240.75
959.3399	2311.7669	1119.45	237
959.4721	2313.2031	1120.85	237.2
959.6043	2314.6387	1122.9	239.75
959.7365	2316.0735	1121.75	238.6
959.8686	2317.5076	1127.2	243
960.0006	2318.941	1120.85	238.4
960.1327	2320.3737	1125.15	241
960.2647	2321.8056	1125.7	241.6
960.3967	2323.2369	1118.75	233
960.5287	2324.6674	1121.5	235.05
960.6606	2326.0972	1124.1	238.45
960.7925	2327.5263	1126.1	244.25
960.9244	2328.9547	1124.6	242.1
961.0562	2330.3823	1122.05	237.3
961.1881	2331.8092	1120.5	234.15
961.3198	2333.2355	1115.95	235.4
961.4516	2334.661	1116	233.65
961.5833	2336.0858	1114.9	231.85
961.715	2337.5098	1112.85	229.7
961.8467	2338.9332	1113.55	229.6
961.9783	2340.3558	1115.15	227.7
962.1099	2341.7778	1111.7	228.05
962.2415	2343.199	1110.65	223.5
962.373	2344.6195	1112.2	230.9
962.5045	2346.0393	1105.5	224.85
962.636	2347.4583	1107.35	222.05
962.7675	2348.8767	1106.55	223.7
962.8989	2350.2943	1109.65	226.5
963.0303	2351.7113	1103.55	218.65
963.1617	2353.1275	1104.2	221.65
963.293	2354.543	1126.85	218.3
963.4243	2355.9578	1102.95	218.15
963.5556	2357.3718	1099.2	215.15
963.6868	2358.7852	1106.95	222.7
963.818	2360.1978	1104.3	219.2
963.9492	2361.6098	1104.3	220.1
964.0803	2363.021	1101.1	214.05
964.2114	2364.4315	1098.65	215.65
964.3425	2365.8413	1102.85	212.8
964.4736	2367.2504	1097	215.05
964.6046	2368.6587	1097.9	213.4
964.7356	2370.0664	1099.95	214.55
964.8666	2371.4733	1102.35	217.15
964.9975	2372.8795	1095.8	212.95
965.1284	2374.285	1094.85	211.15
965.2593	2375.6899	1096.6	213.85
965.3901	2377.0939	1092.55	207.35
965.5209	2378.4973	1091.65	209.1
965.6517	2379.9	1091.95	208.95
965.7825	2381.3019	1089.35	208.9
965.9132	2382.7032	1091.7	210.5
966.0439	2384.1037	1088.3	207.25
966.1745	2385.5035	1087.35	204.45
966.3051	2386.9027	1090.4	207.4
966.4357	2388.3011	1094.1	206.75
966.5663	2389.6987	1087.55	203.15
966.6968	2391.0957	1082.6	199.3
966.8273	2392.492	1085.5	203.4
966.9578	2393.8876	1084.95	200.95
967.0882	2395.2824	1081	197.7
967.2186	2396.6765	1080.1	198.1
967.349	2398.07	1081.4	198.75
967.4793	2399.4627	1083.75	198.65
967.6097	2400.8547	1085.35	202.25
967.7399	2402.246	1087.45	196.7
967.8702	2403.6366	1080.85	197.05
968.0004	2405.0265	1077.9	195.65
968.1306	2406.4156	1074.85	186.4
968.2607	2407.8041	1076.55	189.55
968.3909	2409.1918	1075.85	189.95
968.521	2410.5789	1075.25	188.9
968.651	2411.9652	1072.4	185.6
968.781	2413.3508	1074.9	190.6
968.911	2414.7358	1077.35	193.4
969.041	2416.12	1068.5	184.8
969.1709	2417.5035	1071.4	188.6
969.3008	2418.8863	1069.5	184.2
969.4307	2420.2684	1069.85	185.55
969.5606	2421.6497	1070.05	185.3
969.6904	2423.0304	1068.65	185.55
969.8201	2424.4104	1068.15	183.85
969.9499	2425.7896	1072.65	186.2
970.0796	2427.1682	1066.2	180.25
970.2093	2428.546	1065.7	178.9
970.3389	2429.9232	1070.05	186.8
970.4685	2431.2996	1067.35	184.25
970.5981	2432.6753	1067.95	183.85
970.7277	2434.0503	1069.15	185.05
970.8572	2435.4246	1061.35	178.35
970.9867	2436.7982	1062.3	177.75
971.1161	2438.1711	1062.15	179.55
971.2456	2439.5433	1062.75	177.35
971.375	2440.9148	1067.35	177.45
971.5043	2442.2856	1057.7	176
971.6336	2443.6557	1063.25	176.7
971.7629	2445.025	1057.6	174.4
971.8922	2446.3937	1054.1	169.6
972.0214	2447.7617	1058.7	174.05
972.1506	2449.1289	1060.65	178.6
972.2798	2450.4955	1064	177.25
972.4089	2451.8613	1056.1	173.75
972.538	2453.2265	1052.9	168.25
972.6671	2454.5909	1057.3	173.45
972.7961	2455.9546	1054.45	169.6
972.9251	2457.3177	1052.15	168.6
973.0541	2458.68	1057.3	171.25
973.1831	2460.0416	1056.5	173.85
973.312	2461.4025	1053.65	169.05
973.4408	2462.7627	1063.65	169.1
973.5697	2464.1222	1053.95	171.95
973.6985	2465.4811	1053.55	167.75
973.8273	2466.8392	1050.5	165.55
973.956	2468.1966	1052.35	166.8
974.0847	2469.5533	1053.25	167.5
974.2134	2470.9093	1053.45	170.9
974.3421	2472.2645	1047.75	164.2
974.4707	2473.6191	1046.45	163.65
974.5993	2474.973	1048.8	163.9
974.7278	2476.3262	1046.65	161.8
974.8563	2477.6787	1045.9	162.35
974.9848	2479.0305	1044.9	161.7
975.1132	2480.3816	1047.55	160.35
975.2417	2481.7319	1043	158.95
975.37	2483.0816	1048.1	162.6
975.4984	2484.4306	1048.2	164.1
975.6267	2485.7789	1046.15	163.15
975.755	2487.1264	1042.95	158.25
975.8833	2488.4733	1043.6	161.85
976.0115	2489.8195	1061.55	158.9
976.1397	2491.165	1044.45	158.65
976.2678	2492.5097	1045.65	161.85
976.3959	2493.8538	1039.95	156.5
976.524	2495.1972	1044.1	160.15
976.6521	2496.5398	1041.2	154.95
976.7801	2497.8818	1039.35	153.45
976.9081	2499.2231	1040.7	156.7
977.036	2500.5637	1037	151.8
977.164	2501.9035	1037.5	152.1
977.2918	2503.2427	1042.05	153.9
977.4197	2504.5812	1036.85	153.2
977.5475	2505.919	1037.35	151.75
977.6753	2507.256	1041.1	158.45
977.8031	2508.5924	1038.2	156.95
977.9308	2509.9281	1040.1	149.25
978.0585	2511.2631	1037.05	153.45
978.1861	2512.5974	1032.7	150.3
978.3137	2513.9309	1035.8	151.15
978.4413	2515.2638	1058.05	150.6
978.5689	2516.596	1035.9	151.85
978.6964	2517.9275	1030.55	145.5
978.8239	2519.2583	1032	147.6
978.9513	2520.5884	1031.8	146.3
979.0788	2521.9178	1031.05	148.5
979.2062	2523.2465	1026	141.15
979.3335	2524.5745	1024.9	140.35
979.4608	2525.9018	1029.4	146.75
979.5881	2527.2284	1026.3	145.05
979.7154	2528.5543	1021.75	138.9
979.8426	2529.8796	1028.4	145.55
979.9698	2531.2041	1027.65	143.05
980.0969	2532.5279	1023.3	141.1
980.224	2533.851	1031.35	145.9
980.3511	2535.1735	1025.05	142.1
980.4781	2536.4952	1025.5	142.05
980.6052	2537.8163	1026.2	141.3
980.7321	2539.1366	1022.8	140.15
980.8591	2540.4562	1021.65	138.5
980.986	2541.7752	1022.1	138.4
981.1129	2543.0935	1027.15	143.3
981.2397	2544.411	1024.2	138.2
981.3665	2545.7279	1020.65	137.65
981.4933	2547.0441	1024.75	141.65
981.62	2548.3596	1026.7	140.2
981.7467	2549.6744	1021.7	138.65
981.8734	2550.9885	1033.45	143.6
982.0001	2552.3019	1018.6	136.05
982.1267	2553.6146	1016.55	132.45
982.2532	2554.9266	1016.75	133.05
982.3798	2556.2379	1024.6	140.15
982.5063	2557.5485	1017.8	136.3
982.6327	2558.8585	1025.5	133.55
982.7592	2560.1677	1022.45	134.85
982.8856	2561.4762	1019.5	136.65
983.0119	2562.7841	1017.6	130.7
983.1383	2564.0913	1016.2	131.95
983.2646	2565.3977	1018.4	136.85
983.3908	2566.7035	1013.75	129.5
983.517	2568.0086	1018.25	132.8
983.6432	2569.313	1014.45	130.7
983.7694	2570.6167	1017.85	132.05
983.8955	2571.9197	1018.05	136.3
984.0216	2573.222	1018.35	131.65
984.1476	2574.5236	1014.7	130.15
984.2737	2575.8246	1015.45	129.2
984.3996	2577.1248	1016.4	128.7
984.5256	2578.4244	1017.25	133.8
984.6515	2579.7232	1013.3	130.75
984.7774	2581.0214	1044.45	128.7
984.9032	2582.3189	1008.95	127.3
985.029	2583.6157	1029.25	134.25
985.1548	2584.9118	1010.65	128.7
985.2806	2586.2072	1010	126.3
985.4063	2587.5019	1009.85	126.55
985.5319	2588.7959	1006.15	122.8
985.6576	2590.0893	1011.4	127.6
985.7832	2591.3819	1010.2	129.2
985.9087	2592.6739	1007.5	127.15
986.0343	2593.9652	1010.95	126.25
986.1597	2595.2557	1006.55	124.2
986.2852	2596.5456	1009.9	125.35
986.4106	2597.8348	1010.65	127.9
986.536	2599.1234	1006.4	124.3
986.6614	2600.4112	1009.2	126
986.7867	2601.6983	1013.5	127.05
986.912	2602.9848	1010.35	127.85
987.0372	2604.2705	1013.45	121.6
987.1624	2605.5556	1011.15	128.75
987.2876	2606.84	1005.15	122.35
987.4128	2608.1237	1002.75	118.45
987.5379	2609.4067	1007.6	123.45
987.6629	2610.689	1014.6	122.1
987.788	2611.9707	1008	122.2
987.913	2613.2516	1008.85	119.7
988.0379	2614.5319	1002.65	119.35
988.1629	2615.8115	1002.6	118.7
988.2878	2617.0903	1004.25	119.95
988.4126	2618.3685	1003.7	120.35
988.5375	2619.6461	1001.55	118.3
988.6622	2620.9229	998.25	115
988.787	2622.199	1001.75	117.35
988.9117	2623.4745	1000.9	117.8
989.0364	2624.7493	997.95	116.1
989.161	2626.0234	1000.55	119.1
989.2857	2627.2968	999.15	115.7
989.4102	2628.5695	996.8	112.25
989.5348	2629.8415	999.1	115.7
989.6593	2631.1128	1001.9	118.75
989.7837	2632.3835	996.25	113.9
989.9082	2633.6535	994.2	110.9
990.0326	2634.9228	993.95	109.95
990.1569	2636.1914	997	115.15
990.2812	2637.4593	994.1	112.1
990.4055	2638.7265	991.75	108.65
990.5298	2639.9931	992.2	109.45
990.654	2641.259	995.25	111.35
990.7782	2642.5242	994	110.25
990.9023	2643.7887	996.4	112.8
991.0264	2645.0525	991.95	109
991.1505	2646.3156	1004.15	106
991.2745	2647.5781	987	102.5
991.3985	2648.8398	989.8	106.05
991.5225	2650.1009	995.1	103.75
991.6464	2651.3613	987.15	105.35
991.7703	2652.6211	986.55	103.4
991.8942	2653.8801	990.2	108.3
992.018	2655.1385	988.95	102.95
992.1418	2656.3961	988.1	105.5
992.2655	2657.6531	989.2	106.7
992.3892	2658.9094	985.9	100.65
992.5129	2660.1651	987.7	103.85
992.6366	2661.42	991.95	109.05
992.7602	2662.6743	985.2	101
992.8837	2663.9279	986.1	105.3
993.0073	2665.1808	986.3	104.25
993.1307	2666.433	988.4	101.95
993.2542	2667.6846	988.55	106.5
993.3776	2668.9354	986.55	99.3
993.501	2670.1856	988.85	105.5
993.6244	2671.4351	985.95	102.25
993.7477	2672.6839	986.15	100.7
993.8709	2673.9321	985.95	103.75
993.9942	2675.1795	986.85	101.15
994.1174	2676.4263	983.3	101.05
994.2405	2677.6724	987.45	104.35
994.3637	2678.9179	983.55	100.3
994.4868	2680.1626	984.8	103.05
994.6098	2681.4067	985.1	100.6
994.7328	2682.6501	984.15	99.65
994.8558	2683.8928	986.95	103.5
994.9788	2685.1348	983.2	101.05
995.1017	2686.3761	981.5	100.25
995.2245	2687.6168	982.3	98.2
995.3474	2688.8568	976.95	91.75
995.4702	2690.0961	980.65	99.25
995.5929	2691.3348	979.35	95.8
995.7156	2692.5727	979	96.05
995.8383	2693.81	983.3	100.95
995.961	2695.0466	976.7	94.45
996.0836	2696.2826	976.55	91.55
996.2062	2697.5178	981.2	93.7
996.3287	2698.7524	976.65	92.8
996.4512	2699.9863	982.3	96.55
996.5737	2701.2195	976.9	94.7
996.6961	2702.452	979.15	94.45
996.8185	2703.6839	975.35	91.95
996.9408	2704.9151	974.05	91.8
997.0631	2706.1456	976.55	91.25
997.1854	2707.3755	978.5	95.6
997.3077	2708.6046	979.85	94.25
997.4299	2709.8331	977.4	95.45
997.552	2711.0609	979.3	94.35
997.6742	2712.2881	976.65	95.9
997.7963	2713.5145	980.65	95.7
997.9183	2714.7403	978.1	97.1
998.0403	2715.9654	977.15	94
998.1623	2717.1899	992.15	93.5
998.2842	2718.4136	980.95	96.4
998.4062	2719.6367	978.5	96.75
998.528	2720.8591	987.15	97.4
998.6498	2722.0809	981.1	98.8
998.7716	2723.3019	984.15	99.35
998.8934	2724.5223	979.45	95.55
999.0151	2725.7421	983.65	99.95
999.1368	2726.9611	981.75	97.2
999.2584	2728.1795	983.25	97.2
999.38	2729.3972	978.55	95.75
999.5016	2730.6142	983.55	91.05
999.6231	2731.8306	977	93.7
999.7446	2733.0462	972.3	87.1
999.8661	2734.2612	978.35	90
999.9875	2735.4756	972.2	86.75
1000.1089	2736.6892	971.9	89.2
1000.2302	2737.9022	969.05	87.6
1000.3515	2739.1145	969.35	84.55
1000.4728	2740.3262	977.15	86.25
1000.594	2741.5372	967.45	85.25
1000.7152	2742.7475	971.15	87.2
1000.8363	2743.9571	968.6	83.8
1000.9575	2745.1661	974.5	85.05
1001.0785	2746.3744	966.9	82.45
1001.1996	2747.582	966.35	83
1001.3206	2748.7889	968	82.85
1001.4415	2749.9952	965.15	83.4
1001.5625	2751.2008	966.75	83
1001.6833	2752.4057	965.25	77.8
1001.8042	2753.61	962.2	78.3
1001.925	2754.8136	963.75	79.5
1002.0458	2756.0165	962.7	81.25
1002.1665	2757.2188	963.45	80
1002.2872	2758.4204	963.5	80.15
1002.4078	2759.6213	962.15	76
1002.5285	2760.8215	968.35	80.65
1002.649	2762.0211	963.7	78.6
1002.7696	2763.22	963.5	77.55
1002.8901	2764.4182	966.15	79.6
1003.0106	2765.6158	961.2	78.15
1003.131	2766.8127	958.55	75.4
1003.2514	2768.009	955.45	71.75
1003.3717	2769.2045	958.7	73.35
1003.492	2770.3994	963.15	77.6
1003.6123	2771.5936	959.5	74.65
1003.7325	2772.7872	956	73.35
1003.8527	2773.9801	958.55	73.15
1003.9729	2775.1723	971.1	72.35
1004.093	2776.3639	953	71.05
1004.2131	2777.5548	957.85	69.5
1004.3331	2778.745	957.5	73.3
1004.4531	2779.9346	956.8	75.05
1004.5731	2781.1235	957.6	73.05
1004.693	2782.3117	955	74.4
1004.8129	2783.4992	956.05	71.85
1004.9328	2784.6861	953.15	68.6
1005.0526	2785.8723	957	73.25
1005.1723	2787.0579	955.55	71.45
1005.2921	2788.2428	955	71.1
1005.4118	2789.427	955.6	71.95
1005.5314	2790.6106	952.3	68.25
1005.651	2791.7935	955.3	70.4
1005.7706	2792.9757	952.9	72.05
1005.8902	2794.1573	954.2	69.85
1006.0097	2795.3382	953.4	72.45
1006.1291	2796.5184	953	71.65
1006.2485	2797.698	956.15	69.25
1006.3679	2798.8769	956.8	72.75
1006.4873	2800.0551	957.65	73.35
1006.6066	2801.2327	953.9	64.05
1006.7258	2802.4096	955.1	72
1006.8451	2803.5859	954.8	71.15
1006.9642	2804.7615	955.45	70.7
1007.0834	2805.9364	955.8	76.25
1007.2025	2807.1106	953.45	70.3
1007.3216	2808.2842	958.4	76.45
1007.4406	2809.4572	960.55	77.7
1007.5596	2810.6294	955.5	70.4
1007.6785	2811.801	961.75	80.9
1007.7975	2812.972	953.55	73.1
1007.9163	2814.1423	961.9	78.75
1008.0352	2815.3119	963.45	80.6
1008.154	2816.4808	962.15	79.85
1008.2727	2817.6491	967.45	83.55
1008.3914	2818.8167	966.1	83.7
1008.5101	2819.9837	976.95	87.55
1008.6288	2821.15	971.8	90.05
1008.7474	2822.3157	977.55	96.05
1008.8659	2823.4807	983.8	99.35
1008.9844	2824.645	993.8	112.95
1009.1029	2825.8086	996.55	113.55
1009.2214	2826.9716	1000.1	117.9
1009.3398	2828.134	1009.1	127
1009.4581	2829.2957	1012.25	129.45
1009.5764	2830.4567	1016.1	134.5
1009.6947	2831.617	1021.45	138.3
1009.813	2832.7767	1024.45	142.45
1009.9312	2833.9358	1022.95	141.45
1010.0493	2835.0941	1024.7	142.9
1010.1675	2836.2519	1018.95	138.75
1010.2855	2837.4089	1017.3	134
1010.4036	2838.5653	1017.45	133
1010.5216	2839.7211	1012.35	131.35
1010.6396	2840.8761	1012.9	127.25
1010.7575	2842.0306	1007.85	127.15
1010.8754	2843.1843	1009.05	126.15
1010.9932	2844.3374	1011.35	129.4
1011.111	2845.4899	1013.05	129.5
1011.2288	2846.6417	1013.35	130.05
1011.3465	2847.7928	1014.6	133.75
1011.4642	2848.9433	1010.25	128
1011.5818	2850.0931	1013.2	133.5
1011.6995	2851.2422	1020.6	137.8
1011.817	2852.3907	1018.9	133.95
1011.9345	2853.5385	1018.7	135.1
1012.052	2854.6857	1025.65	134.55
1012.1695	2855.8323	1017.65	132.05
1012.2869	2856.9781	1023	139.75
1012.4042	2858.1233	1022.95	137.8
1012.5216	2859.2679	1027.6	145.4
1012.6389	2860.4118	1027	142.45
1012.7561	2861.555	1033.35	146.1
1012.8733	2862.6976	1032.4	146.95
1012.9905	2863.8395	1037.75	156.55
1013.1076	2864.9808	1036.85	154.6
1013.2247	2866.1214	1036.7	156.35
1013.3417	2867.2614	1039.15	155.4
1013.4587	2868.4007	1039.1	155.55
1013.5757	2869.5393	1043.2	159.3
1013.6926	2870.6773	1043.7	159.6
1013.8095	2871.8146	1050.2	164.6
1013.9263	2872.9513	1050.65	166
1014.0431	2874.0874	1051.35	170.35
1014.1599	2875.2227	1050.9	168.75
1014.2766	2876.3574	1050.1	168.6
1014.3933	2877.4915	1053	170.9
1014.51	2878.6249	1053.75	173.35
1014.6266	2879.7577	1061.2	178
1014.7431	2880.8898	1071.95	179.65
1014.8596	2882.0212	1063	179.55
1014.9761	2883.152	1057.65	174.5
1015.0925	2884.2821	1060.6	177.75
1015.2089	2885.4116	1057.8	173.45
1015.3253	2886.5405	1060.85	178.35
1015.4416	2887.6686	1068.4	180.55
1015.5579	2888.7962	1070.05	190.9
1015.6741	2889.923	1065.05	184
1015.7903	2891.0493	1067.85	186.45
1015.9065	2892.1748	1071.85	189.8
1016.0226	2893.2997	1065.75	182.65
1016.1387	2894.424	1063.95	182.8
1016.2547	2895.5476	1064.8	182.25
1016.3707	2896.6706	1066.85	185.15
1016.4866	2897.7929	1067.5	181.55
1016.6025	2898.9145	1064.45	180.1
1016.7184	2900.0355	1067.3	183.2
1016.8342	2901.1559	1064.35	182.6
1016.95	2902.2756	1067.2	179.85
1017.0658	2903.3946	1063	179.25
1017.1815	2904.513	1064.45	179.4
1017.2971	2905.6308	1059.35	175.85
1017.4127	2906.7479	1060.4	177
1017.5283	2907.8643	1062.35	177.45
1017.6439	2908.9801	1061	176.8
1017.7594	2910.0953	1059.55	177.5
1017.8748	2911.2098	1062.4	176.2
1017.9902	2912.3236	1069.1	178.15
1018.1056	2913.4368	1059.8	173.4
1018.2209	2914.5494	1057.55	175.2
1018.3362	2915.6613	1060.5	173.8
1018.4515	2916.7725	1058.55	172.35
1018.5667	2917.8831	1050.8	166.15
1018.6819	2918.9931	1056.15	170.75
1018.797	2920.1024	1050.95	166.9
1018.9121	2921.211	1043.75	160.6
1019.0271	2922.319	1042.95	160.1
1019.1421	2923.4264	1039.65	157.3
1019.2571	2924.5331	1041.3	161.55
1019.372	2925.6391	1040.05	156.75
1019.4869	2926.7445	1042.6	161.5
1019.6017	2927.8493	1041.95	156.75
1019.7165	2928.9534	1041.35	159.2
1019.8313	2930.0569	1046.5	160.5
1019.946	2931.1597	1046.15	161.9
1020.0606	2932.2619	1045.15	162.55
1020.1753	2933.3634	1042.45	160.35
1020.2899	2934.4643	1051.05	162.65
1020.4044	2935.5645	1050.3	161.05
1020.5189	2936.6641	1054.9	168.3
1020.6334	2937.763	1051.1	169
1020.7478	2938.8613	1051.2	166.7
1020.8622	2939.959	1050.7	163.35
1020.9765	2941.056	1044.2	161.85
1021.0908	2942.1523	1039.45	156.9
1021.2051	2943.248	1033.1	151.2
1021.3193	2944.3431	1027.15	143.65
1021.4334	2945.4375	1019.25	134.3
1021.5476	2946.5313	1012	129.1
1021.6617	2947.6244	1010.25	126.05
1021.7757	2948.7169	1004.95	120.15
1021.8897	2949.8087	998.05	114.75
1022.0037	2950.8999	993.65	111.15
1022.1176	2951.9904	987.9	105.35
1022.2315	2953.0803	985.7	100.85
1022.3453	2954.1696	982.45	100.35
1022.4591	2955.2582	977.7	95.5
1022.5728	2956.3462	974.75	90.1
1022.6865	2957.4335	976.25	94.4
1022.8002	2958.5202	976.65	91.75
1022.9138	2959.6062	969.5	88.05
1023.0274	2960.6916	971.8	87.95
1023.141	2961.7764	973.8	89.5
1023.2545	2962.8605	975.4	91.4
1023.3679	2963.9439	972.3	90.85
1023.4813	2965.0267	972	87
1023.5947	2966.1089	996.15	89.75
1023.708	2967.1905	969.1	86.55
1023.8213	2968.2714	966.5	85.95
1023.9346	2969.3516	970.05	87.6
1024.0478	2970.4312	977.35	87.45
1024.1609	2971.5102	970.35	90.15
1024.274	2972.5885	969.85	86.85
1024.3871	2973.6662	970.75	81.6
1024.5002	2974.7432	970.7	88.35
1024.6132	2975.8196	971.35	88.6
1024.7261	2976.8954	968.85	86.55
1024.839	2977.9705	970.5	88
1024.9519	2979.045	967.65	85.2
1025.0647	2980.1188	968.7	86.25
1025.1775	2981.192	965.95	84.35
1025.2902	2982.2645	965.7	81.65
1025.4029	2983.3364	965.7	82.8
1025.5156	2984.4077	966.75	85.35
1025.6282	2985.4783	964.4	75.65
1025.7407	2986.5483	959.75	77.45
1025.8532	2987.6177	955.9	73.6
1025.9657	2988.6864	955.3	72.35
1026.0782	2989.7545	953.4	69.15
1026.1906	2990.8219	949.75	69.15
1026.3029	2991.8887	952.4	67.05
1026.4152	2992.9548	950.5	68.6
1026.5275	2994.0204	947	65.15
1026.6397	2995.0852	941.7	59.4
1026.7519	2996.1495	942.6	58.15
1026.864	2997.2131	940.85	58.55
1026.9761	2998.276	936.55	53.05
1027.0882	2999.3383	937.55	54.25
1027.2002	3000.4	933.45	51.4
1027.3122	3001.4611	931.1	48.95
1027.4241	3002.5215	932.6	50.4
1027.536	3003.5812	928.05	44.55
1027.6478	3004.6404	926.2	44.3
1027.7596	3005.6989	927.1	41.15
1027.8714	3006.7567	927.45	43.1
1027.9831	3007.8139	946.25	43.65
1028.0947	3008.8705	925.35	41
1028.2064	3009.9264	934	48.45
1028.3179	3010.9818	925.3	42.7
1028.4295	3012.0364	926.1	41.4
1028.541	3013.0905	925.2	44
1028.6524	3014.1439	923.7	39.7
1028.7638	3015.1966	922.9	40.6
1028.8752	3016.2487	921	37.1
1028.9865	3017.3002	925.5	39
1029.0978	3018.3511	920.15	37.2
1029.209	3019.4013	923.85	40.5
1029.3202	3020.4509	920.1	38.05
1029.4314	3021.4998	922.95	40.65
1029.5425	3022.5481	918.8	37.05
1029.6535	3023.5958	921.25	39.15
1029.7645	3024.6428	922.1	38.05
1029.8755	3025.6892	917.95	35.75
1029.9864	3026.735	918.65	36.7
1030.0973	3027.7802	919.45	37.25
1030.2082	3028.8247	920.45	37.6
1030.319	3029.8685	920.3	36.8
1030.4297	3030.9118	918.95	36.35
1030.5404	3031.9544	917.85	36.05
1030.6511	3032.9963	917.4	33.55
1030.7617	3034.0376	918.05	36.25
1030.8723	3035.0783	920.7	34.05
1030.9829	3036.1184	918	33.65
1031.0934	3037.1578	919.5	39.4
1031.2038	3038.1966	921	37.1
1031.3142	3039.2348	919.6	37.6
1031.4246	3040.2723	926.55	34.35
1031.5349	3041.3092	917.55	37.3
1031.6452	3042.3455	918.3	35.2
1031.7554	3043.3811	920.9	37.75
1031.8656	3044.4161	919.3	35.6
1031.9758	3045.4505	917.85	36.45
1032.0859	3046.4842	921.25	38
1032.1959	3047.5173	917.95	36.4
1032.3059	3048.5498	919.1	34.4
1032.4159	3049.5816	918.25	36.5
1032.5258	3050.6128	918.25	34.35
1032.6357	3051.6434	923.25	38.9
1032.7455	3052.6734	919.75	35.6
1032.8553	3053.7027	920.1	37.75
1032.9651	3054.7314	918.65	34.95
1033.0748	3055.7594	918.45	36.55
1033.1845	3056.7868	917.9	34.85
1033.2941	3057.8136	917.5	34.6
1033.4037	3058.8398	915.5	33.5
1033.5132	3059.8653	915.05	32.95
1033.6227	3060.8902	918.65	35.85
1033.7321	3061.9145	919.45	36.45
1033.8415	3062.9381	919.85	39.85
1033.9509	3063.9612	933.65	33.55
1034.0602	3064.9835	918.4	35
1034.1694	3066.0053	919.2	36.1
1034.2787	3067.0264	916.4	35.2
1034.3878	3068.0469	920.3	36
1034.497	3069.0668	922.15	36.65
1034.6061	3070.086	917.45	36.2
1034.7151	3071.1046	921.55	37.3
1034.8241	3072.1226	917.15	33.35
1034.9331	3073.1399	916.2	33.45
1035.042	3074.1567	916.75	33.15
1035.1508	3075.1727	919.2	36.05
1035.2597	3076.1882	915.35	31.45
1035.3684	3077.203	917.95	37.3
1035.4772	3078.2173	918.65	34.5
1035.5859	3079.2308	919.65	32.8
1035.6945	3080.2438	915.7	31.55
1035.8031	3081.2561	913.2	30.75
1035.9117	3082.2678	911.15	30.6
1036.0202	3083.2789	912.45	29.25
1036.1286	3084.2893	911.1	29.55
1036.2371	3085.2991	912.15	30.5
1036.3454	3086.3083	916.15	29.45
1036.4538	3087.3169	913.95	31.1
1036.562	3088.3248	913.5	29.5
1036.6703	3089.3321	912.3	28.15
1036.7785	3090.3388	910	30.2
1036.8866	3091.3449	909.4	27.45
1036.9948	3092.3503	913.9	30.65
1037.1028	3093.3551	910.1	29.85
1037.2108	3094.3593	907.4	24
1037.3188	3095.3629	908.6	26.4
1037.4267	3096.3658	910.1	24.5
1037.5346	3097.3681	909	27.35
1037.6425	3098.3698	909.35	25.85
1037.7503	3099.3708	915	24.9
1037.858	3100.3713	905.85	23.6
1037.9657	3101.3711	908.6	27.95
1038.0734	3102.3702	1037.65	22.15
1038.181	3103.3688	909.9	25.35
1038.2886	3104.3667	905.9	26.35
1038.3961	3105.364	907.3	26.4
1038.5036	3106.3607	906.15	23.45
1038.611	3107.3568	908.05	24.35
1038.7184	3108.3522	909.15	27.55
1038.8257	3109.347	905.6	22.15
1038.933	3110.3412	913.6	28.6
1039.0403	3111.3348	906.85	24.75
1039.1475	3112.3277	904.4	20.75
1039.2547	3113.32	904.5	21.25
1039.3618	3114.3117	904.55	20.6
1039.4689	3115.3028	905.8	24.55
1039.5759	3116.2932	908.8	23.85
1039.6829	3117.2831	910.85	23.2
1039.7898	3118.2723	904.95	22.55
1039.8967	3119.2608	901.85	19.8
1040.0035	3120.2488	904.45	20.85
1040.1103	3121.2361	904.8	21.35
1040.2171	3122.2229	903.65	19.6
1040.3238	3123.209	904.05	19.7
1040.4305	3124.1944	902.25	21.6
1040.5371	3125.1793	903.15	18.55
1040.6437	3126.1635	903.05	20.1
1040.7502	3127.1471	902.3	20.4
1040.8567	3128.1301	903.7	22.2
1040.9631	3129.1125	905.55	22.55
1041.0695	3130.0942	904.95	21.25
1041.1759	3131.0753	911.4	20.35
1041.2822	3132.0558	904.9	19.95
1041.3884	3133.0357	903	20.3
1041.4946	3134.015	902.9	21.35
1041.6008	3134.9936	901.75	18
1041.7069	3135.9716	920.8	19.35
1041.813	3136.949	900.1	17.5
1041.919	3137.9258	919.3	16.6
1042.025	3138.902	906.45	17
1042.1309	3139.8775	901.15	19.65
1042.2368	3140.8524	902.2	20
1042.3427	3141.8267	905.6	17.85
1042.4485	3142.8004	899.25	16.45
1042.5542	3143.7735	905.65	16.7
1042.6599	3144.7459	901.05	18.1
1042.7656	3145.7178	901.35	19.95
1042.8712	3146.689	898.45	14.95
1042.9768	3147.6596	902.55	18.75
1043.0823	3148.6295	899.15	14.15
1043.1878	3149.5989	900.35	18.1
1043.2932	3150.5676	901	19.25
1043.3986	3151.5357	899.5	19.95
1043.5039	3152.5032	897.95	14.3
1043.6092	3153.4701	899	17.9
1043.7145	3154.4364	902.85	16.5
1043.8197	3155.402	900.2	19.7
1043.9248	3156.367	901	15.2
1044.03	3157.3315	934.05	17.15
1044.135	3158.2952	898.6	16.25
1044.24	3159.2584	897.95	15.55
1044.345	3160.221	900.1	16.85
1044.4499	3161.1829	897.95	14.65
1044.5548	3162.1442	898.65	17.4
1044.6596	3163.105	898.45	16.55
1044.7644	3164.065	897.85	14.85
1044.8692	3165.0245	900.9	16.7
1044.9739	3165.9834	897.25	16.5
1045.0785	3166.9416	898.05	15.2
1045.1831	3167.8993	900.25	19.15
1045.2877	3168.8563	898.95	15.8
1045.3922	3169.8127	897.55	15.6
1045.4966	3170.7684	895.8	12.55
1045.6011	3171.7236	900.1	18.4
1045.7054	3172.6782	899.15	18.8
1045.8098	3173.6321	898.6	14
1045.914	3174.5854	901.4	14.75
1046.0183	3175.5381	897.65	15.9
1046.1224	3176.4902	898	15.5
1046.2266	3177.4417	897.5	16.35
1046.3307	3178.3926	896.8	13.9
1046.4347	3179.3428	895.85	13.85
1046.5387	3180.2924	896.55	13.85
1046.6427	3181.2415	898.45	13.7
1046.7466	3182.1899	897.25	12.6
1046.8504	3183.1377	896.5	13.8
1046.9542	3184.0848	899.8	14.8
1047.058	3185.0314	896.4	11.35
1047.1617	3185.9773	896.95	13.25
1047.2654	3186.9227	897.3	13.8
1047.369	3187.8674	896.5	14.65
1047.4726	3188.8115	902.55	15.95
1047.5761	3189.755	898.3	16.35
1047.6796	3190.6979	896.75	14.25
1047.783	3191.6402	896.3	15.3
1047.8864	3192.5818	895.65	12.15
1047.9898	3193.5229	905.05	15.7
1048.0931	3194.4633	896.35	13.25
1048.1963	3195.4031	896.45	13.6
1048.2995	3196.3423	896.2	13.85
1048.4027	3197.2809	896.25	12.5
1048.5058	3198.2189	897.85	14.3
1048.6089	3199.1563	903.8	14.85
1048.7119	3200.0931	897.1	15.4
1048.8148	3201.0292	894	11.45
1048.9178	3201.9648	894.4	13.85
1049.0206	3202.8997	899.1	15.15
1049.1235	3203.834	893.85	12.65
1049.2262	3204.7677	894.35	11.2
1049.329	3205.7008	897.3	14.95
1049.4317	3206.6333	895	13.85
1049.5343	3207.5652	896.65	13.6
1049.6369	3208.4964	897	15.55
1049.7394	3209.4271	895.3	11.25
1049.8419	3210.3571	893.95	11.9
1049.9444	3211.2865	895.6	12.75
1050.0468	3212.2154	895.2	10.95
1050.1491	3213.1436	897.2	12.05
1050.2514	3214.0712	901.65	11.4
1050.3537	3214.9982	893.35	9.6
1050.4559	3215.9246	895.8	12.55
1050.5581	3216.8503	892.55	9.6
1050.6602	3217.7755	897.25	13.4
1050.7623	3218.7001	894.6	14.2
1050.8643	3219.624	895.7	13.05
1050.9663	3220.5473	895.45	13.4
1051.0682	3221.4701	896.8	14.75
1051.1701	3222.3922	894.8	11.65
1051.2719	3223.3137	896.2	13.5
1051.3737	3224.2346	893.35	9.95
1051.4754	3225.1549	892.7	11.05
1051.5771	3226.0746	891.8	7.9
1051.6788	3226.9937	895.1	14.65
1051.7804	3227.9121	893.55	11.05
1051.8819	3228.83	893.95	11.85
1051.9834	3229.7473	893.65	9.9
1052.0849	3230.6639	893.85	9.75
1052.1863	3231.5799	894.65	14.35
1052.2876	3232.4954	893.5	7.75
1052.3889	3233.4102	893.25	12.35
1052.4902	3234.3244	892.15	8.45
1052.5914	3235.238	891.95	10.55
1052.6926	3236.151	918.95	11.4
1052.7937	3237.0634	892.85	9.55
1052.8948	3237.9752	894.45	10.05
1052.9958	3238.8864	892.15	11.2
1053.0968	3239.797	893.15	9.85
1053.1977	3240.7069	893.4	8.75
1053.2986	3241.6163	894	9.05
1053.3994	3242.5251	891.8	10.3
1053.5002	3243.4332	891.95	9
1053.6009	3244.3408	892.65	8.95
1053.7016	3245.2477	892.25	10.5
1053.8022	3246.154	893	10.25
1053.9028	3247.0598	891.35	7.35
1054.0034	3247.9649	892.6	9.95
1054.1039	3248.8694	892.2	8.45
1054.2043	3249.7733	892.1	9.15
1054.3047	3250.6766	891.6	8.15
1054.4051	3251.5793	892.8	8.9
1054.5054	3252.4814	890.75	9.2
1054.6056	3253.3829	890.35	8.75
1054.7058	3254.2838	893.55	10.05
1054.806	3255.1841	892.65	11.45
1054.9061	3256.0838	890.05	6.7
1055.0061	3256.9829	890.25	9.65
1055.1062	3257.8814	893.95	9.65
1055.2061	3258.7792	894.55	10.6
1055.306	3259.6765	890.95	7.7
1055.4059	3260.5731	889.95	8
1055.5057	3261.4692	888.4	6.4
1055.6055	3262.3647	891.5	7.6
1055.7052	3263.2595	892.55	12.75
1055.8049	3264.1538	890.7	8.6
1055.9045	3265.0474	892.2	7.55
1056.0041	3265.9404	889.65	8.65
1056.1036	3266.8329	889.2	7.35
1056.2031	3267.7247	898.85	7.7
1056.3025	3268.616	889.4	8.2
1056.4019	3269.5066	889.8	5.8
1056.5013	3270.3966	892.9	9.4
1056.6005	3271.286	887.8	5.4
