Software Version:	3.9.2.0
Unit SN:	10000200
Spectrometer SN:	6960
Date:	3/26/2024 2:28:36 PM
Data Line Index:	25
Spectral Points:	2048
Integration time (ms):	125
Averages:	20
Delay (ms):	30000
Sequence Number:	1
Processing:	dark subtract
Laser Power (mW):	300
Laser Current (mA):	819
Laser Diode Temp (C):	25
Laser Case Temp (C):	27.8
System Temp (C):	27.8
Spectrometer Temp (C):	25.7
CCD Temp (C):	0.004
Secondary Temp (C):	20.01
Heatsink Temp (C):	23.46
CCDPCB Temp (C):	37.196
SecondaryPCB Temp (C):	34.673

Wavelength	RamanShift	Raw Counts	Dark Subtracted
787.061	30.1047	661.3	248.05
787.2016	32.3739	670	259.5
787.3422	34.6426	685.45	273.9
787.4828	36.9109	703.35	289.5
787.6235	39.1787	730.2	313.5
787.7642	41.4461	755.5	334.1
787.9049	43.7131	782.25	357.55
788.0456	45.9796	800.8	371.55
788.1863	48.2456	830.1	397.95
788.3271	50.5112	866.75	430.2
788.4679	52.7764	890.4	451.7
788.6087	55.0411	919.75	479.25
788.7496	57.3054	948.2	502
788.8904	59.5692	986.15	537.6
789.0313	61.8326	1022.45	570.1
789.1722	64.0955	1068.15	611.1
789.3132	66.3579	1114.05	652.95
789.4541	68.6199	1178.25	714.1
789.5951	70.8815	1276.05	808.4
789.7361	73.1426	1500.25	1028.5
789.8771	75.4032	2032.4	1556.7
790.0181	77.6634	3361	2876.2
790.1592	79.9231	6729.55	6236.2
790.3003	82.1824	14463.5	13950.05
790.4414	84.4412	33420.25	32876.85
790.5825	86.6995	61313.45	60721.15
790.7237	88.9574	65535	64902.5
790.8648	91.2148	65535	64873.7
791.006	93.4717	65535	64849.6
791.1472	95.7282	65535	64836.65
791.2885	97.9842	65535	64831.2
791.4297	100.2398	65535	64828.8
791.571	102.4949	65535	64829.2
791.7123	104.7495	65535	64826.95
791.8536	107.0036	65535	64829.85
791.9949	109.2573	65535	64824.75
792.1363	111.5105	65535	64821.45
792.2777	113.7632	65535	64822.8
792.4191	116.0154	65535	64814.15
792.5605	118.2672	65535	64818.9
792.7019	120.5185	65535	64817.15
792.8434	122.7693	65535	64818.25
792.9849	125.0197	65535	64811.3
793.1264	127.2696	65535	64805.05
793.2679	129.519	65535	64805.5
793.4094	131.7679	65535	64800.25
793.551	134.0163	65535	64796.3
793.6926	136.2642	65535	64794.05
793.8342	138.5117	65535	64791.3
793.9758	140.7587	65535	64791
794.1175	143.0052	65535	64785.4
794.2591	145.2512	65535	64784.35
794.4008	147.4967	65535	64792.1
794.5425	149.7417	65535	64788.55
794.6842	151.9863	65535	64782.4
794.826	154.2304	65535	64777.5
794.9677	156.4739	65535	64777.2
795.1095	158.717	65535	64774.75
795.2513	160.9596	65535	64768.8
795.3931	163.2017	65535	64762.15
795.535	165.4433	65535	64762.5
795.6768	167.6844	65535	64764.45
795.8187	169.925	65535	64762.45
795.9606	172.1651	65535	64760.95
796.1025	174.4047	65535	64759.65
796.2445	176.6439	65535	64751.65
796.3864	178.8825	65535	64751.4
796.5284	181.1206	65535	64745.95
796.6704	183.3582	65535	64742.3
796.8124	185.5954	65535	64744.35
796.9544	187.832	65535	64738.25
797.0965	190.0681	65535	64735
797.2386	192.3037	65535	64735.7
797.3806	194.5388	65535	64729.55
797.5228	196.7734	65535	64729.05
797.6649	199.0075	65535	64723.15
797.807	201.2411	65535	64717.65
797.9492	203.4742	65535	64719
798.0914	205.7068	65535	64717.8
798.2336	207.9389	65535	64720
798.3758	210.1704	65535	64718.45
798.518	212.4015	65535	64715.15
798.6603	214.632	65535	64719.45
798.8025	216.862	65535	64728.2
798.9448	219.0915	65535	64734.85
799.0871	221.3205	65535	64736.05
799.2294	223.549	65535	64739.65
799.3718	225.777	65535	64736.3
799.5141	228.0044	65535	64734.15
799.6565	230.2314	65535	64738.2
799.7989	232.4578	65535	64734.25
799.9413	234.6837	65535	64728.6
800.0837	236.909	65535	64725.05
800.2262	239.1339	65535	64703.15
800.3687	241.3582	65535	64710.8
800.5111	243.582	65535	64684.35
800.6536	245.8053	65535	64698.4
800.7961	248.0281	65535	64703.2
800.9387	250.2503	65535	64695.85
801.0812	252.472	65535	64689.55
801.2238	254.6932	65535	64691.9
801.3664	256.9139	65535	64693.1
801.509	259.134	65535	64688.25
801.6516	261.3536	65535	64689.05
801.7942	263.5727	65535	64683.85
801.9369	265.7912	65535	64691.35
802.0795	268.0092	65535	64690.25
802.2222	270.2267	65535	64686.4
802.3649	272.4436	65535	64684.1
802.5076	274.6601	65535	64678.35
802.6504	276.8759	65535	64686
802.7931	279.0913	65535	64682.65
802.9359	281.3061	65535	64681.2
803.0787	283.5204	65535	64676.7
803.2215	285.7341	65535	64670.95
803.3643	287.9473	65535	64659.25
803.5071	290.16	65535	64667.4
803.6499	292.3721	65535	64671.55
803.7928	294.5837	65535	64671.1
803.9357	296.7947	65535	64674.5
804.0786	299.0052	65535	64674.6
804.2215	301.2152	65535	64674.5
804.3644	303.4246	65535	64675.3
804.5074	305.6334	65535	64677.95
804.6503	307.8418	65535	64670.55
804.7933	310.0495	65535	64667.8
804.9363	312.2568	65535	64669.6
805.0793	314.4635	65535	64672.15
805.2223	316.6696	65535	64663.55
805.3653	318.8752	65535	64660.9
805.5084	321.0802	65535	64666.75
805.6514	323.2847	65535	64660.3
805.7945	325.4887	65535	64664.55
805.9376	327.692	65535	64665.65
806.0807	329.8949	65535	64658.75
806.2238	332.0972	65535	64659.55
806.367	334.2989	65535	64651.75
806.5101	336.5001	65535	64656.45
806.6533	338.7007	65535	64656.55
806.7965	340.9008	65535	64655.65
806.9397	343.1003	65535	64653.35
807.0829	345.2992	65535	64646.85
807.2261	347.4976	65535	64651.15
807.3693	349.6955	65535	64645.95
807.5126	351.8927	65535	64641.35
807.6559	354.0895	65535	64636.85
807.7991	356.2856	65535	64641.7
807.9424	358.4812	65535	64645.8
808.0857	360.6763	65535	64642.7
808.2291	362.8707	65535	64641.15
808.3724	365.0646	65535	64641.2
808.5158	367.258	65535	64642.5
808.6591	369.4508	65535	64636.35
808.8025	371.643	65535	64638.8
808.9459	373.8346	65535	64633.7
809.0893	376.0257	65535	64631.3
809.2327	378.2162	65535	64634.7
809.3762	380.4062	65535	64634
809.5196	382.5956	65535	64631.35
809.6631	384.7844	65535	64636.9
809.8066	386.9726	65535	64632.45
809.9501	389.1603	65535	64636.25
810.0936	391.3474	65535	64592.45
810.2371	393.5339	65535	64627.3
810.3806	395.7199	65535	64635.65
810.5241	397.9052	65535	64638.5
810.6677	400.09	65535	64636.9
810.8113	402.2743	65535	64639.4
810.9548	404.4579	65535	64646.5
811.0984	406.641	65535	64641.85
811.2421	408.8235	65535	64636.4
811.3857	411.0054	65535	64637.2
811.5293	413.1868	65535	64630
811.673	415.3675	65535	64632.95
811.8166	417.5477	65535	64635.8
811.9603	419.7273	65535	64631.65
812.104	421.9064	65535	64622.4
812.2477	424.0848	65535	64630.8
812.3914	426.2627	65535	64630.2
812.5351	428.4399	65535	64621.5
812.6788	430.6166	65535	64623.25
812.8226	432.7928	65535	64625.95
812.9663	434.9683	65535	64624.65
813.1101	437.1432	65535	64626.75
813.2539	439.3176	65535	64630.1
813.3977	441.4914	65535	64632.25
813.5415	443.6645	65535	64623.3
813.6853	445.8371	65535	64626.35
813.8291	448.0091	65535	64629
813.973	450.1806	65535	64629.7
814.1168	452.3514	65535	64630.25
814.2607	454.5216	65535	64624.35
814.4046	456.6913	65535	64626.35
814.5485	458.8603	65535	64628.05
814.6924	461.0288	65535	64631.8
814.8363	463.1967	65535	64632.15
814.9802	465.3639	65535	64628.35
815.1241	467.5306	65535	64627.1
815.2681	469.6967	65535	64631.9
815.412	471.8622	65535	64633.7
815.556	474.0271	65535	64627.7
815.7	476.1914	65535	64621.2
815.844	478.3551	65535	64622.3
815.988	480.5182	65535	64629.7
816.132	482.6807	65535	64630.35
816.276	484.8426	65535	64634.75
816.4201	487.0039	65535	64627.05
816.5641	489.1647	65535	64625
816.7082	491.3248	65535	64626.35
816.8522	493.4843	65535	64628.7
816.9963	495.6432	65535	64627.45
817.1404	497.8015	65535	64621.35
817.2845	499.9592	65535	64619.1
817.4286	502.1163	65535	64611.25
817.5727	504.2728	65535	64618.75
817.7168	506.4287	65535	64630.75
817.861	508.5839	65535	64631.95
818.0051	510.7386	65535	64625.5
818.1493	512.8927	65535	64611.15
818.2935	515.0461	65535	64619.05
818.4377	517.199	65535	64615.35
818.5818	519.3512	65535	64619.8
818.726	521.5029	65535	64613.45
818.8703	523.6539	65535	64616.95
819.0145	525.8043	65535	64618.2
819.1587	527.9541	65535	64615.3
819.303	530.1033	65535	64615.35
819.4472	532.2519	65535	64616.1
819.5915	534.3999	65535	64616.3
819.7357	536.5472	65535	64617.3
819.88	538.694	65535	64617.7
820.0243	540.8401	65535	64618.45
820.1686	542.9856	65535	64601
820.3129	545.1305	65535	64601.9
820.4572	547.2748	65535	64598.65
820.6016	549.4185	65535	64596.7
820.7459	551.5615	65535	64598.05
820.8902	553.704	65535	64601.75
821.0346	555.8458	65535	64603.9
821.1789	557.987	65535	64604.9
821.3233	560.1276	65535	64605.7
821.4677	562.2675	65535	64602
821.6121	564.4069	65535	64601.8
821.7565	566.5456	65535	64605.8
821.9009	568.6837	65535	64604.4
822.0453	570.8212	65535	64606.95
822.1897	572.958	65535	64609
822.3342	575.0942	65535	64609.9
822.4786	577.2299	65535	64612.05
822.6231	579.3648	65535	64622.7
822.7675	581.4992	65535	64634.65
822.912	583.6329	65535	64634.15
823.0565	585.766	65535	64630.55
823.201	587.8985	65535	64622.6
823.3454	590.0304	65535	64589.15
823.4899	592.1616	65535	64607.2
823.6345	594.2922	65535	64604.5
823.779	596.4222	65535	64605.1
823.9235	598.5515	65535	64601
824.068	600.6802	65535	64605.45
824.2126	602.8083	65535	64604.75
824.3571	604.9358	65535	64601.55
824.5017	607.0626	65535	64601.6
824.6462	609.1888	65535	64597.3
824.7908	611.3144	65535	64594.4
824.9354	613.4393	65535	64595.35
825.08	615.5636	65535	64598.25
825.2246	617.6873	65535	64599.1
825.3692	619.8103	65535	64595.45
825.5138	621.9327	65535	64605.45
825.6584	624.0544	65535	64602
825.803	626.1756	65535	64603.85
825.9477	628.2961	65535	64597.5
826.0923	630.4159	65535	64600.75
826.237	632.5351	65535	64600.35
826.3816	634.6537	65535	64601.5
826.5263	636.7716	65535	64592.05
826.6709	638.8889	65535	64591.25
826.8156	641.0056	65535	64594.3
826.9603	643.1216	65535	64592.85
827.105	645.237	65535	64596.1
827.2497	647.3518	65535	64600.4
827.3944	649.4659	65535	64605.1
827.5391	651.5793	65535	64608.95
827.6838	653.6922	65535	64605.5
827.8285	655.8043	65535	64600.2
827.9733	657.9159	65535	64602.2
828.118	660.0268	65535	64600.3
828.2627	662.137	65535	64596.1
828.4075	664.2466	65535	64595
828.5522	666.3556	65535	64597.2
828.697	668.4639	65535	64597.25
828.8418	670.5716	65535	64600.95
828.9865	672.6786	65535	64598.7
829.1313	674.785	65535	64594.75
829.2761	676.8907	65535	64594
829.4209	678.9958	65535	64602.3
829.5657	681.1002	65535	64597.6
829.7105	683.204	65535	64584.5
829.8553	685.3072	65535	64592.9
830.0001	687.4097	65535	64594.65
830.1449	689.5115	65535	64594.95
830.2898	691.6127	65535	64594.8
830.4346	693.7132	65535	64598.35
830.5794	695.8131	65535	64571.5
830.7243	697.9123	65535	64586.85
830.8691	700.0109	65535	64589.25
831.014	702.1089	65535	64593.05
831.1588	704.2061	65535	64593
831.3037	706.3028	65535	64588.15
831.4486	708.3987	65535	64588.35
831.5935	710.4941	65535	64591.7
831.7383	712.5887	65535	64590.9
831.8832	714.6827	65535	64590.75
832.0281	716.7761	65535	64592.7
832.173	718.8688	65535	64593.2
832.3179	720.9608	65535	64591.9
832.4628	723.0522	65535	64581.55
832.6077	725.1429	65535	64587.65
832.7527	727.233	65535	64589.9
832.8976	729.3224	65535	64587.6
833.0425	731.4112	65535	64594.8
833.1874	733.4993	65535	64587.3
833.3324	735.5867	65535	64590.6
833.4773	737.6735	65535	64588.65
833.6222	739.7596	65535	64584.25
833.7672	741.845	65535	64594.3
833.9122	743.9298	65535	64588.35
834.0571	746.014	65535	64586.9
834.2021	748.0974	65535	64582.15
834.347	750.1802	65535	64582.45
834.492	752.2624	65535	64582.6
834.637	754.3439	65535	64585.75
834.782	756.4247	65535	64578.65
834.9269	758.5048	65535	64582.5
835.0719	760.5843	65535	64582.3
835.2169	762.6631	65535	64586.2
835.3619	764.7413	65535	64586.75
835.5069	766.8188	65535	64588.05
835.6519	768.8956	65535	64580.8
835.7969	770.9718	65535	64588.05
835.9419	773.0473	65535	64587.65
836.0869	775.1221	65535	64585.05
836.232	777.1962	65535	64583.55
836.377	779.2697	65535	64585.05
836.522	781.3426	65535	64566.95
836.667	783.4147	65535	64583.85
836.8121	785.4862	65535	64585.7
836.9571	787.557	65535	64583.45
837.1021	789.6271	65535	64582.2
837.2472	791.6966	65535	64583.6
837.3922	793.7654	65530.5	64581.55
837.5373	795.8335	65533.3	64585.25
837.6823	797.901	65535	64583.65
837.8274	799.9678	65531.25	64577.05
837.9724	802.0339	65525.2	64574.25
838.1175	804.0993	65531.4	64568.05
838.2626	806.1641	65521.4	64569.3
838.4076	808.2282	65516.1	64564.35
838.5527	810.2916	65506.15	64555.9
838.6978	812.3544	65527.9	64580.25
838.8428	814.4164	65482.75	64532.1
838.9879	816.4778	65483.9	64532.4
839.133	818.5385	65487.35	64534.65
839.2781	820.5986	65480.2	64523.4
839.4232	822.658	65495.65	64542.05
839.5682	824.7166	65505.65	64551.4
839.7133	826.7747	65420.65	64469
839.8584	828.832	65448.05	64494.15
840.0035	830.8886	65498	64542.6
840.1486	832.9446	65508.05	64552
840.2937	834.9999	65361.35	64408.3
840.4388	837.0545	65434.25	64477.3
840.5839	839.1085	65495	64541.9
840.729	841.1618	65477.8	64519.95
840.8741	843.2143	65349.2	64397.9
841.0192	845.2662	65335.4	64380.6
841.1643	847.3175	65401.95	64452.5
841.3095	849.368	65172.75	64219.25
841.4546	851.4179	65370.2	64413.15
841.5997	853.467	65220.2	64269.7
841.7448	855.5155	65290.05	64334.05
841.8899	857.5633	65106	64150.65
842.0351	859.6105	65007.4	64056.65
842.1802	861.6569	65150.45	64194.35
842.3253	863.7027	64809.1	63851.25
842.4704	865.7478	64943.8	63990.2
842.6156	867.7922	64859.85	63902.55
842.7607	869.8359	65051.9	64093.6
842.9058	871.8789	64670.85	63714.05
843.0509	873.9212	64936.35	63952.8
843.1961	875.9629	65029.95	64074.05
843.3412	878.0039	64944.2	63988
843.4863	880.0441	64799.2	63842.95
843.6315	882.0837	64796.95	63842.4
843.7766	884.1226	64731.85	63777.65
843.9218	886.1609	64653.4	63698.2
844.0669	888.1984	64397.05	63441.05
844.212	890.2352	64692.9	63740
844.3572	892.2714	64271.85	63311.3
844.5023	894.3069	64461.55	63507
844.6475	896.3416	64244.6	63286.6
844.7926	898.3757	64201.3	63247.35
844.9377	900.4091	63647.55	62687
845.0829	902.4418	64381.45	63418.55
845.228	904.4739	63962.9	63003.95
845.3732	906.5052	64000.45	63042.2
845.5183	908.5358	63754.6	62797.05
845.6635	910.5658	63563.25	62602.5
845.8086	912.595	63578	62621.85
845.9538	914.6236	63016.35	62060.25
846.0989	916.6515	63768.6	62812.85
846.2441	918.6786	62973.3	62015.5
846.3892	920.7051	63191.15	62233.15
846.5344	922.7309	63063.5	62106.15
846.6795	924.756	63229.25	62273.15
846.8246	926.7804	63000.15	62044.1
846.9698	928.8041	62442.75	61484.4
847.1149	930.8272	62841.8	61883.2
847.2601	932.8495	62822.45	61864.5
847.4052	934.8711	62321.05	61365.55
847.5504	936.892	62041.65	61085.65
847.6955	938.9123	62187.15	61232.65
847.8407	940.9318	61801	60843.65
847.9858	942.9506	61725.75	60770.55
848.131	944.9688	61778.35	60825.25
848.2761	946.9862	60930	59975.15
848.4213	949.003	61214.9	60255.1
848.5664	951.019	60434.75	59478.3
848.7115	953.0344	60623.05	59664.95
848.8567	955.0491	60472.35	59517.75
849.0018	957.063	60810.2	59852.65
849.147	959.0763	60831.4	59872.4
849.2921	961.0888	60236.6	59276.65
849.4373	963.1007	60667.65	59715.15
849.5824	965.1119	60649.4	59700
849.7275	967.1223	60136	59192.65
849.8727	969.1321	60686.75	59744.95
850.0178	971.1412	59934.25	58986.25
850.1629	973.1495	59649.55	58698.7
850.3081	975.1572	60012.75	59001.85
850.4532	977.1641	59694.4	58739.55
850.5983	979.1704	59462.45	58503.05
850.7435	981.1759	59574.25	58614.35
850.8886	983.1808	59153.1	58196.75
851.0337	985.1849	59188.3	58221.9
851.1788	987.1884	59331.05	58371.05
851.324	989.1911	59803.75	58843.05
851.4691	991.1932	58735.8	57779.4
851.6142	993.1945	58951.15	57995.5
851.7593	995.1951	59162	58206
851.9045	997.1951	58542.9	57585.65
852.0496	999.1943	58301.55	57346.9
852.1947	1001.1928	58066.9	57107.9
852.3398	1003.1906	58178.75	57224.7
852.4849	1005.1877	57460.25	56504.05
852.63	1007.1841	57161.45	56206.8
852.7751	1009.1798	57027.3	56073.2
852.9202	1011.1748	56852.1	55900.15
853.0653	1013.1691	56579.55	55624.7
853.2104	1015.1627	55339.65	54386
853.3555	1017.1556	55395.95	54448.05
853.5006	1019.1477	55527.15	54572.95
853.6457	1021.1392	54898.05	53950.8
853.7908	1023.1299	54211.05	53263.95
853.9359	1025.12	54484.1	53543
854.081	1027.1093	54070.45	53136.7
854.2261	1029.0979	54053.2	53127.65
854.3712	1031.0859	53938.5	53002.35
854.5163	1033.0731	53357.9	52419
854.6613	1035.0596	53384.2	52436.45
854.8064	1037.0454	53162.5	52216.65
854.9515	1039.0304	52738.05	51787.55
855.0965	1041.0148	52180.95	51230.1
855.2416	1042.9985	52039.05	51086.75
855.3867	1044.9814	52156.1	51205.15
855.5317	1046.9636	51657.25	50704
855.6768	1048.9452	51531.7	50582.4
855.8219	1050.926	51430.25	50482.5
855.9669	1052.9061	51238.2	50287.55
856.112	1054.8855	51106.55	50155.7
856.257	1056.8642	50841.5	49890.1
856.4021	1058.8421	50785.15	49828.65
856.5471	1060.8194	50634.9	49684.15
856.6921	1062.7959	50509.8	49562.8
856.8372	1064.7717	50482.6	49530.85
856.9822	1066.7469	50326.25	49371.8
857.1272	1068.7213	50107.65	49155.9
857.2723	1070.695	49920	48964.8
857.4173	1072.6679	49533.75	48585.5
857.5623	1074.6402	49496.4	48542.15
857.7073	1076.6117	49319.35	48360.45
857.8523	1078.5826	49246.3	48294.6
857.9973	1080.5527	49170.35	48217.6
858.1423	1082.5221	49091.05	48136.2
858.2873	1084.4908	49287.6	48337.1
858.4323	1086.4587	49287.65	48338.1
858.5773	1088.426	49360.1	48409.65
858.7223	1090.3925	49203.95	48244.9
858.8673	1092.3584	49036.7	48085.75
859.0123	1094.3235	48586.4	47638.6
859.1573	1096.2879	48310.2	47361.6
859.3022	1098.2515	48174.65	47226.35
859.4472	1100.2145	48095	47142.65
859.5922	1102.1767	47907.75	46955.3
859.7371	1104.1382	47915.2	46964.6
859.8821	1106.099	48009.6	47059.4
860.027	1108.0591	48031.75	47077
860.172	1110.0185	47942.7	46991.55
860.3169	1111.9771	47954.05	47006.25
860.4619	1113.9351	47457.95	46509.5
860.6068	1115.8923	46951.15	45999.35
860.7517	1117.8488	46519.1	45569.45
860.8967	1119.8045	45939.1	44989.2
861.0416	1121.7596	45757.65	44805.55
861.1865	1123.7139	45535.7	44588.7
861.3314	1125.6675	45447	44496.75
861.4763	1127.6204	45484.2	44535.3
861.6212	1129.5726	45306.45	44357.3
861.7661	1131.524	45284.2	44338.05
861.911	1133.4748	45233.6	44281.3
862.0559	1135.4248	45103.4	44151
862.2008	1137.3741	45058.85	44109.4
862.3457	1139.3226	44855.05	43904.1
862.4905	1141.2705	44826.8	43875.45
862.6354	1143.2176	44473.2	43522.2
862.7803	1145.164	44390.4	43435.05
862.9251	1147.1097	44334.7	43384.6
863.07	1149.0546	44270.7	43321.25
863.2148	1150.9989	44069.6	43118.7
863.3597	1152.9424	43830.65	42882.3
863.5045	1154.8852	43539.75	42589.65
863.6493	1156.8272	43253.05	42302.75
863.7942	1158.7686	43165.05	42206.8
863.939	1160.7092	42861.1	41911
864.0838	1162.6491	42675.8	41724.6
864.2286	1164.5883	42736.95	41789.45
864.3734	1166.5267	42669.15	41720.8
864.5182	1168.4644	42701.6	41752.45
864.663	1170.4014	42778.05	41822.3
864.8078	1172.3377	42954.65	42009.9
864.9526	1174.2732	43073.1	42129.1
865.0974	1176.2081	43176.95	42227.2
865.2421	1178.1421	43227.25	42274.85
865.3869	1180.0755	43228.8	42282
865.5317	1182.0082	43033.45	42088.35
865.6764	1183.9401	42926.4	41979.05
865.8212	1185.8713	42599.6	41660.65
865.9659	1187.8017	42259.9	41323.35
866.1106	1189.7315	41872.55	40944.5
866.2554	1191.6605	41439.9	40511.35
866.4001	1193.5888	41087.25	40151.95
866.5448	1195.5163	40871.3	39930.05
866.6895	1197.4432	40656.1	39709.3
866.8342	1199.3693	40448.9	39504.75
866.9789	1201.2947	40204.3	39250.35
867.1236	1203.2193	40045.3	39101.1
867.2683	1205.1432	39969.75	39024.5
867.413	1207.0664	39938	38994.55
867.5576	1208.9889	39847.95	38899
867.7023	1210.9106	39818.15	38872.7
867.847	1212.8316	39718.3	38774.75
867.9916	1214.7519	39631.55	38678.15
868.1363	1216.6715	39535.5	38592.3
868.2809	1218.5903	39478.9	38534.3
868.4255	1220.5084	39243.35	38298.9
868.5701	1222.4257	39176.55	38234.8
868.7148	1224.3424	38877.55	37937.2
868.8594	1226.2583	38797.55	37852.4
869.004	1228.1735	38827.45	37885.75
869.1486	1230.0879	38764.75	37819.3
869.2932	1232.0016	38799.45	37857.45
869.4377	1233.9146	38688.4	37745.25
869.5823	1235.8269	38496.9	37549.45
869.7269	1237.7384	38290.55	37347.85
869.8715	1239.6492	37931.65	36990.2
870.016	1241.5592	37743.75	36800.7
870.1606	1243.4686	37533.15	36590.55
870.3051	1245.3772	37336	36391.75
870.4496	1247.285	37146.4	36202.45
870.5941	1249.1922	37001.85	36057.45
870.7387	1251.0986	36879.65	35937.15
870.8832	1253.0042	36682.85	35741.5
871.0277	1254.9092	36716.3	35771.35
871.1722	1256.8134	36705.25	35766.85
871.3167	1258.7169	36820.65	35879.6
871.4611	1260.6196	36817.75	35877
871.6056	1262.5216	36995.95	36053.35
871.7501	1264.4229	36993.4	36055.05
871.8945	1266.3234	37067.8	36124
872.039	1268.2232	37044.7	36101.05
872.1834	1270.1223	36906.55	35963.85
872.3278	1272.0207	36814.55	35872.7
872.4723	1273.9183	36645.95	35699.2
872.6167	1275.8151	36469.5	35530.45
872.7611	1277.7113	36363.05	35424.6
872.9055	1279.6067	36021.35	35080.3
873.0499	1281.5014	35749.7	34804.3
873.1943	1283.3953	35529	34585.4
873.3386	1285.2885	35363.05	34423.95
873.483	1287.181	35236.5	34295.6
873.6274	1289.0727	35206.75	34266.2
873.7717	1290.9637	35095.95	34155.15
873.9161	1292.854	35211.9	34271.2
874.0604	1294.7435	35185.25	34246.4
874.2047	1296.6323	35330.7	34388.75
874.349	1298.5204	35531.55	34590.05
874.4933	1300.4077	35725.85	34781.3
874.6376	1302.2943	35821.4	34879.55
874.7819	1304.1802	35904.8	34964.4
874.9262	1306.0653	35713.8	34769.65
875.0705	1307.9497	35500.35	34560.55
875.2147	1309.8333	35393.05	34452.5
875.359	1311.7162	35341.1	34402.7
875.5032	1313.5984	35330	34389.95
875.6475	1315.4798	35355.4	34401.9
875.7917	1317.3605	35477.5	34520.65
875.9359	1319.2405	35621.45	34678.85
876.0801	1321.1197	35652.1	34710.7
876.2243	1322.9982	35369.65	34424.4
876.3685	1324.876	35401.55	34461.8
876.5127	1326.753	35282.45	34339.65
876.6569	1328.6293	35267.4	34323.85
876.801	1330.5048	35298.1	34353.2
876.9452	1332.3796	35148.3	34211
877.0893	1334.2537	35128.65	34164.65
877.2335	1336.127	34929.25	33991.85
877.3776	1337.9996	34782.55	33844.2
877.5217	1339.8714	34646.65	33704.25
877.6658	1341.7426	34540.65	33557.7
877.8099	1343.6129	34413.25	33473.6
877.954	1345.4826	34219.2	33278.35
878.0981	1347.3515	34240.55	33293.05
878.2422	1349.2196	34051.85	33113.4
878.3862	1351.087	33969.5	33028.7
878.5303	1352.9537	33924.45	32984.55
878.6743	1354.8197	34031.45	33089.5
878.8184	1356.6849	34144.05	33205.55
878.9624	1358.5493	34106.5	33165.95
879.1064	1360.4131	34057.65	33119.1
879.2504	1362.276	33884.35	32943.2
879.3944	1364.1383	33604.1	32666.6
879.5384	1365.9998	33294.75	32346.9
879.6823	1367.8606	32917.1	31973
879.8263	1369.7206	32615	31674
879.9702	1371.5799	32318.85	31375.05
880.1142	1373.4384	32121.25	31181.1
880.2581	1375.2962	31961.8	31020
880.402	1377.1533	31619.7	30684.2
880.5459	1379.0096	31190.1	30252.65
880.6898	1380.8652	30868.05	29932.8
880.8337	1382.7201	30575.65	29637.85
880.9776	1384.5742	30286.7	29348.7
881.1215	1386.4275	29974.15	29034.8
881.2653	1388.2802	29808.95	28868.7
881.4092	1390.132	29593.2	28655.75
881.553	1391.9832	29515.2	28576.35
881.6968	1393.8336	29254.85	28315
881.8406	1395.6832	29163.4	28223.85
881.9844	1397.5322	29032.6	28094.1
882.1282	1399.3803	28948.15	28007.45
882.272	1401.2278	28755.45	27819.75
882.4158	1403.0745	28659.4	27724.65
882.5595	1404.9204	28454.85	27520.5
882.7033	1406.7656	28444.45	27508.7
882.847	1408.6101	28376.8	27439.2
882.9908	1410.4538	28275.75	27336.95
883.1345	1412.2968	28235.6	27299.55
883.2782	1414.139	28118.5	27182.95
883.4219	1415.9805	28214.5	27279.8
883.5656	1417.8213	28183.15	27227.65
883.7092	1419.6613	28188.05	27252.6
883.8529	1421.5006	28322.2	27387.45
883.9965	1423.3391	28529.4	27592.45
884.1402	1425.1769	28797.7	27859.6
884.2838	1427.0139	29202.35	28267.4
884.4274	1428.8502	29799.7	28860.1
884.571	1430.6858	30334.2	29399.85
884.7146	1432.5206	30646.85	29710.75
884.8582	1434.3547	30894.85	29960.85
885.0018	1436.188	30832.85	29898.25
885.1453	1438.0206	30792.65	29855.95
885.2889	1439.8524	30486.4	29551.95
885.4324	1441.6835	30388.3	29454.8
885.5759	1443.5139	30188.75	29252.9
885.7194	1445.3435	30041.3	29106.35
885.8629	1447.1724	29950.9	29016.8
886.0064	1449.0005	29834.25	28900.2
886.1499	1450.8279	29661.25	28724.15
886.2933	1452.6545	29595.75	28665.55
886.4368	1454.4804	29580.75	28650.35
886.5802	1456.3056	29534.15	28593.85
886.7237	1458.13	29383.2	28450.35
886.8671	1459.9536	29147.7	28216.2
887.0105	1461.7766	28737.7	27805.15
887.1539	1463.5987	28214.25	27280.25
887.2972	1465.4202	27770.85	26838.8
887.4406	1467.2409	27374.1	26439.7
887.584	1469.0608	27057.15	26125.4
887.7273	1470.88	26733.55	25801.85
887.8706	1472.6984	26513.8	25581.25
888.0139	1474.5161	26173	25235.7
888.1572	1476.3331	25966.45	25031.25
888.3005	1478.1493	25782.55	24849.15
888.4438	1479.9648	25688.7	24757.85
888.5871	1481.7795	25525.45	24593.2
888.7303	1483.5935	25449.85	24517.75
888.8736	1485.4067	25309.6	24377.9
889.0168	1487.2192	25234.25	24298.45
889.16	1489.031	25131.05	24194.7
889.3032	1490.842	25006.55	24074.55
889.4464	1492.6522	24997.95	24064.65
889.5896	1494.4618	24883.8	23951.95
889.7327	1496.2705	24801.1	23872.05
889.8759	1498.0785	24744.95	23812.7
890.019	1499.8858	24671.75	23736.65
890.1622	1501.6924	24582.45	23647.2
890.3053	1503.4981	24501.35	23568.25
890.4484	1505.3032	24489.8	23556.85
890.5914	1507.1075	24403.95	23469.95
890.7345	1508.911	24334.2	23402.15
890.8776	1510.7138	24261.25	23326.9
891.0206	1512.5159	24137.15	23205.65
891.1637	1514.3172	24013.8	23082.95
891.3067	1516.1178	23900.5	22969.6
891.4497	1517.9176	23863.7	22927.95
891.5927	1519.7166	23717.1	22785.25
891.7357	1521.515	23665.55	22730.05
891.8786	1523.3126	23588.8	22659.05
892.0216	1525.1094	23549.05	22617.45
892.1645	1526.9055	23432.75	22503.55
892.3074	1528.7008	23334.2	22406
892.4503	1530.4954	23193.2	22259
892.5932	1532.2893	23143.75	22218.95
892.7361	1534.0824	23032.05	22099.6
892.879	1535.8747	22997.2	22074.25
893.0218	1537.6663	22909.4	21987.55
893.1647	1539.4572	22812.95	21886.55
893.3075	1541.2473	22791.65	21866.1
893.4503	1543.0367	22689.95	21762.75
893.5931	1544.8253	22588.45	21659
893.7359	1546.6132	22550.25	21619.45
893.8787	1548.4003	22457.95	21520.1
894.0214	1550.1867	22422.85	21491.25
894.1642	1551.9723	22402.25	21475.4
894.3069	1553.7572	22365.15	21440.05
894.4496	1555.5414	22298.65	21373.95
894.5923	1557.3247	22287.4	21366.35
894.735	1559.1074	22231.95	21312.75
894.8777	1560.8893	22209.05	21290
895.0204	1562.6705	22213.75	21293.3
895.163	1564.4509	22224.75	21305.15
895.3056	1566.2305	22216.3	21299.5
895.4482	1568.0094	22366.2	21449.35
895.5908	1569.7876	22377.15	21457.9
895.7334	1571.565	22396.1	21476.75
895.876	1573.3417	22397.85	21478.25
896.0186	1575.1176	22396.1	21481.1
896.1611	1576.8928	22294.5	21376.6
896.3036	1578.6672	22159.1	21246.35
896.4461	1580.4409	21979.75	21069.1
896.5886	1582.2138	21792.5	20874.8
896.7311	1583.986	21649.75	20734.05
896.8736	1585.7575	21494.6	20579.95
897.0161	1587.5282	21335.2	20421.85
897.1585	1589.2981	21236.65	20325.15
897.3009	1591.0673	21089.9	20177.45
897.4433	1592.8358	21019.3	20105.15
897.5857	1594.6035	20981.05	20064.5
897.7281	1596.3704	20915.5	19998.8
897.8705	1598.1366	20859.45	19942.05
898.0128	1599.9021	20837	19922.2
898.1551	1601.6668	20781.95	19867.4
898.2975	1603.4308	20781.55	19864.6
898.4398	1605.194	20802.5	19885.4
898.5821	1606.9564	20795.8	19889
898.7243	1608.7182	20849.75	19942.6
898.8666	1610.4791	20921.65	20017.9
899.0088	1612.2394	20985.7	20084.75
899.1511	1613.9988	21086.75	20182.05
899.2933	1615.7576	21267.5	20360.7
899.4355	1617.5156	21510.05	20590.8
899.5776	1619.2728	21744.3	20829.9
899.7198	1621.0293	21865.5	20952.5
899.862	1622.785	21908.4	20996.15
900.0041	1624.54	21770.35	20860.9
900.1462	1626.2942	21551.15	20645.05
900.2883	1628.0477	21255.9	20343.05
900.4304	1629.8005	20976.85	20064.35
900.5725	1631.5525	20681.65	19774.8
900.7145	1633.3037	20403.15	19495.7
900.8566	1635.0542	20223.6	19318.6
900.9986	1636.804	20040.8	19131.15
901.1406	1638.553	19964.9	19009.9
901.2826	1640.3013	19763.4	18856.15
901.4245	1642.0488	19659.3	18746.35
901.5665	1643.7955	19600.35	18694.25
901.7085	1645.5416	19569.2	18662.45
901.8504	1647.2868	19554.85	18649.2
901.9923	1649.0313	19585.4	18676.65
902.1342	1650.7751	19653.5	18743.55
902.2761	1652.5181	19792.3	18888.25
902.4179	1654.2604	19946.55	19042.1
902.5598	1656.0019	20247.6	19342
902.7016	1657.7427	20587.3	19679.05
902.8434	1659.4828	20938.3	20028.8
902.9852	1661.222	21136.4	20225.05
903.127	1662.9606	21159.1	20250.8
903.2687	1664.6984	20986.25	20076.2
903.4105	1666.4354	20623.45	19708.45
903.5522	1668.1717	20158	19245.25
903.6939	1669.9072	19627.25	18714.6
903.8356	1671.642	19239.4	18326.15
903.9773	1673.3761	18894.9	17985.85
904.119	1675.1094	18625.3	17718.45
904.2606	1676.8419	18387.25	17479.4
904.4022	1678.5737	18188.85	17278.75
904.5439	1680.3048	18042.5	17129.9
904.6855	1682.0351	17873.55	16964.7
904.827	1683.7646	17796.1	16885.1
904.9686	1685.4934	17667.25	16757.15
905.1101	1687.2215	17604.85	16698.5
905.2517	1688.9488	17474	16566.5
905.3932	1690.6754	17358.85	16455.2
905.5347	1692.4012	17350.9	16443.6
905.6761	1694.1263	17302.7	16393.85
905.8176	1695.8506	17238.05	16329.8
905.9591	1697.5742	17142.65	16237.15
906.1005	1699.297	17081.7	16178.5
906.2419	1701.0191	16933.95	16032.9
906.3833	1702.7404	16883	15981.35
906.5246	1704.461	16786.85	15878.9
906.666	1706.1808	16727.65	15820.9
906.8073	1707.8999	16655.5	15754.05
906.9487	1709.6182	16623.85	15723.85
907.09	1711.3358	16568.35	15667.7
907.2313	1713.0527	16491.45	15594.75
907.3725	1714.7688	16451.55	15544.6
907.5138	1716.4841	16369.8	15464.2
907.655	1718.1987	16349.15	15441.1
907.7962	1719.9126	16279.9	15380.3
907.9374	1721.6257	16233.5	15330
908.0786	1723.338	16165.1	15266
908.2198	1725.0496	16104.7	15203.65
908.3609	1726.7605	16059.85	15158.5
908.502	1728.4706	15988.6	15085.85
908.6431	1730.18	15908.05	15007.7
908.7842	1731.8886	15871.75	14973
908.9253	1733.5964	15841.8	14922.8
909.0664	1735.3036	15770.75	14868.2
909.2074	1737.0099	15733	14834.05
909.3484	1738.7156	15700.3	14802.35
909.4894	1740.4204	15605.7	14703.9
909.6304	1742.1246	15578.5	14675.5
909.7714	1743.8279	15544.4	14644.45
909.9123	1745.5306	15504	14607.8
910.0532	1747.2325	15427.05	14529.05
910.1941	1748.9336	15400.7	14501.9
910.335	1750.634	15350.5	14445.55
910.4759	1752.3336	15328.9	14431.2
910.6168	1754.0325	15286.45	14390.15
910.7576	1755.7307	15228.25	14328.75
910.8984	1757.4281	15245.05	14347.3
911.0392	1759.1247	15233.45	14320.65
911.18	1760.8206	15151.8	14243.55
911.3208	1762.5158	15136.65	14229.6
911.4615	1764.2102	15044.15	14144.55
911.6022	1765.9039	14999.15	14100.65
911.7429	1767.5968	14960.2	14064.65
911.8836	1769.289	14929.55	14033.75
912.0243	1770.9804	14874.55	13975.1
912.1649	1772.6711	14886.7	13985.5
912.3056	1774.361	14813	13911.4
912.4462	1776.0502	14765.75	13864.7
912.5868	1777.7386	14741.5	13837.45
912.7274	1779.4263	14678.05	13780.1
912.8679	1781.1132	14665	13771
913.0084	1782.7994	14606.6	13710.8
913.149	1784.4849	14577.2	13682.3
913.2895	1786.1696	14545	13627.6
913.4299	1787.8535	14491.5	13595.7
913.5704	1789.5367	14471.1	13577.65
913.7108	1791.2192	14457.6	13562.5
913.8513	1792.9009	14403.3	13480.9
913.9917	1794.5818	14374.75	13472.25
914.132	1796.2621	14344.1	13445.55
914.2724	1797.9415	14272.3	13371.65
914.4128	1799.6202	14236.55	13338
914.5531	1801.2982	14213.15	13314.55
914.6934	1802.9755	14183.75	13281.5
914.8337	1804.6519	14180	13279.25
914.9739	1806.3277	14056.05	13157.95
915.1142	1808.0027	13991	13097.3
915.2544	1809.6769	14010.25	13117.5
915.3946	1811.3504	13994.3	13099.45
915.5348	1813.0231	13958.3	13063.45
915.675	1814.6951	13909.3	13014.25
915.8151	1816.3664	13907.3	13007.9
915.9553	1818.0369	13861.35	12961.75
916.0954	1819.7067	13827.25	12929.5
916.2355	1821.3757	13769.35	12869.95
916.3755	1823.044	13773.3	12875.7
916.5156	1824.7115	13701.95	12803.45
916.6556	1826.3783	13690.65	12792.8
916.7956	1828.0443	13629.2	12732.75
916.9356	1829.7096	13591.9	12693.15
917.0756	1831.3741	13571.5	12669.9
917.2155	1833.0379	13550.9	12656.5
917.3555	1834.701	13494.95	12598.75
917.4954	1836.3633	13451.2	12557.05
917.6353	1838.0248	13437.45	12539.75
917.7751	1839.6856	13398.3	12500.9
917.915	1841.3457	13394.7	12496.2
918.0548	1843.005	13341.95	12444.5
918.1946	1844.6636	13314.65	12418.75
918.3344	1846.3214	13252	12355.35
918.4742	1847.9785	13280.8	12386.15
918.6139	1849.6349	13239.3	12337.9
918.7537	1851.2904	13211.6	12304.75
918.8934	1852.9453	13182.25	12285.35
919.0331	1854.5994	13144	12244.7
919.1727	1856.2528	13147.35	12244.05
919.3124	1857.9054	13083.45	12185.3
919.452	1859.5572	13086	12190.25
919.5916	1861.2083	13051.5	12154.8
919.7312	1862.8587	13054.7	12157.75
919.8708	1864.5084	12978	12076.05
920.0103	1866.1572	12937.1	12039.1
920.1498	1867.8054	12889.65	11989.5
920.2893	1869.4528	12879.35	11978.85
920.4288	1871.0994	12848.9	11950.35
920.5683	1872.7453	12813	11911.95
920.7077	1874.3905	12790.8	11874.15
920.8471	1876.0349	12737.15	11837.25
920.9865	1877.6786	12700.85	11802.4
921.1259	1879.3215	12692.3	11795.05
921.2653	1880.9637	12694.75	11796.35
921.4046	1882.6051	12652.9	11757.4
921.5439	1884.2458	12607.2	11709.15
921.6832	1885.8858	12566.85	11670.9
921.8225	1887.525	12568.05	11672
921.9617	1889.1634	12484.05	11587.6
922.101	1890.8011	12452.4	11552.85
922.2402	1892.4381	12429.15	11530.8
922.3794	1894.0743	12423.65	11527.15
922.5185	1895.7098	12381.05	11484.1
922.6577	1897.3446	12347.4	11449.95
922.7968	1898.9786	12329.9	11430.5
922.9359	1900.6118	12297.35	11401.1
923.075	1902.2443	12223.25	11324.7
923.214	1903.8761	12207.35	11310.4
923.3531	1905.5071	12145.25	11249.7
923.4921	1907.1374	12139.9	11241.9
923.6311	1908.7669	12064.45	11167.85
923.77	1910.3957	12053.65	11154.7
923.909	1912.0237	11978.4	11083.1
924.0479	1913.651	11965.5	11067.3
924.1868	1915.2776	11926.45	11029.6
924.3257	1916.9034	11892.95	10998.2
924.4646	1918.5285	11821.2	10927.3
924.6034	1920.1528	11782.3	10885.65
924.7422	1921.7764	11774.35	10879.4
924.881	1923.3992	11743.05	10848.3
925.0198	1925.0213	11661.45	10765.7
925.1586	1926.6427	11625.1	10730
925.2973	1928.2633	11653.45	10690.7
925.436	1929.8832	11578.05	10680.55
925.5747	1931.5023	11530.05	10634.75
925.7134	1933.1207	11480.85	10585.85
925.852	1934.7383	11453.3	10555.95
925.9906	1936.3552	11430.05	10534.65
926.1292	1937.9714	11368.25	10472.45
926.2678	1939.5868	11316.3	10420.3
926.4064	1941.2015	11279.8	10381.9
926.5449	1942.8154	11266	10367.2
926.6834	1944.4286	11198.9	10302.25
926.8219	1946.041	11188.25	10268.8
926.9604	1947.6528	11132.4	10232
927.0988	1949.2637	11075	10180.9
927.2372	1950.8739	11027.35	10132.2
927.3756	1952.4834	11021.25	10125.35
927.514	1954.0921	10989.85	10095.2
927.6523	1955.7001	10939.15	10042.95
927.7907	1957.3074	10926.9	10034.35
927.929	1958.9139	10877.35	9986.7
928.0673	1960.5197	10834.1	9940.25
928.2055	1962.1247	10774.2	9880.7
928.3438	1963.729	10737.1	9843.9
928.482	1965.3325	10728.45	9816.05
928.6202	1966.9353	10671.5	9780.5
928.7584	1968.5374	10663	9769.85
928.8965	1970.1387	10618.85	9725.5
929.0346	1971.7393	10560.65	9667.9
929.1727	1973.3392	10549.3	9657.9
929.3108	1974.9383	10500.2	9609.75
929.4489	1976.5366	10450.8	9560.15
929.5869	1978.1342	10431.95	9540.25
929.7249	1979.7311	10403.8	9510.95
929.8629	1981.3273	10364.05	9473.9
930.0009	1982.9227	10345.45	9453.5
930.1388	1984.5173	10304.45	9415.6
930.2767	1986.1112	10270.5	9381.05
930.4146	1987.7044	10253.15	9363.1
930.5525	1989.2968	10201.8	9311.25
930.6904	1990.8885	10178.7	9284.35
930.8282	1992.4795	10161.7	9271.35
930.966	1994.0697	10106.7	9219.15
931.1038	1995.6592	10090.3	9201.35
931.2415	1997.2479	10055.95	9165.85
931.3793	1998.8359	10041.3	9152.2
931.517	2000.4232	9986.95	9101.6
931.6547	2002.0097	9952.1	9067.2
931.7923	2003.5955	9925.55	9039.9
931.93	2005.1805	9926.1	9036.2
932.0676	2006.7648	9888.3	9001.25
932.2052	2008.3484	9857.4	8969.6
932.3427	2009.9312	9842.15	8955.7
932.4803	2011.5133	9802.9	8915.5
932.6178	2013.0946	9763.35	8876.65
932.7553	2014.6752	9730.4	8845.8
932.8928	2016.2551	9731.55	8842.65
933.0302	2017.8342	9701.85	8813.9
933.1676	2019.4126	9639.35	8752.05
933.305	2020.9902	9581.05	8697.2
933.4424	2022.5672	9593.9	8706.35
933.5798	2024.1433	9579.35	8687.75
933.7171	2025.7188	9532	8649.05
933.8544	2027.2935	9505	8617.75
933.9917	2028.8674	9471.45	8586.25
934.129	2030.4406	9448.9	8563.7
934.2662	2032.0131	9385.85	8502.5
934.4034	2033.5849	9375.5	8481.25
934.5406	2035.1559	9339.65	8454.4
934.6778	2036.7261	9353.6	8467.85
934.8149	2038.2957	9322.9	8435.35
934.952	2039.8645	9289.65	8398.75
935.0891	2041.4325	9287.45	8394.8
935.2262	2042.9998	9277.05	8388
935.3632	2044.5664	9267.1	8380.8
935.5002	2046.1323	9195.45	8308.55
935.6372	2047.6974	9173.05	8287.65
935.7742	2049.2617	9132.1	8247.3
935.9111	2050.8254	9140.55	8248.65
936.048	2052.3883	9110.15	8222.85
936.1849	2053.9504	9081.65	8194.05
936.3218	2055.5118	9045.35	8156.15
936.4586	2057.0725	9008.95	8117
936.5955	2058.6325	9006.95	8120.4
936.7323	2060.1917	8970.15	8084.2
936.869	2061.7502	8975.5	8085.4
937.0058	2063.3079	8919.65	8035
937.1425	2064.8649	8881.1	7994
937.2792	2066.4212	8881.1	7993.65
937.4159	2067.9767	8848.4	7960.9
937.5525	2069.5315	8813.5	7926.5
937.6891	2071.0856	8780.5	7893.85
937.8257	2072.6389	8740.75	7853.1
937.9623	2074.1915	8680.8	7797.35
938.0989	2075.7433	8659.25	7770.55
938.2354	2077.2945	8640.05	7752.2
938.3719	2078.8448	8623.3	7735.7
938.5084	2080.3945	8597.7	7707.95
938.6448	2081.9434	8588.5	7699
938.7812	2083.4916	8557.6	7666.55
938.9176	2085.039	8534.95	7641.4
939.054	2086.5857	8525.45	7630.1
939.1903	2088.1317	8509.6	7617.1
939.3267	2089.677	8473.85	7579.05
939.463	2091.2215	8447.45	7555.7
939.5992	2092.7652	8418.55	7523.45
939.7355	2094.3083	8390.85	7500.5
939.8717	2095.8506	8384.5	7495.65
940.0079	2097.3921	8387.45	7499.05
940.1441	2098.933	8347.15	7458.95
940.2802	2100.4731	8322.85	7434.9
940.4163	2102.0124	8296.1	7399.15
940.5524	2103.5511	8300.9	7411.35
940.6885	2105.089	8284.65	7394.3
940.8245	2106.6261	8250.65	7359.35
940.9606	2108.1626	8197.8	7307.3
941.0965	2109.6983	8233.65	7315.6
941.2325	2111.2332	8196.05	7304.8
941.3684	2112.7675	8162.75	7269.55
941.5044	2114.301	8131.5	7238.4
941.6403	2115.8337	8126.1	7234.25
941.7761	2117.3657	8102.5	7213.6
941.912	2118.897	8069.45	7178.1
942.0478	2120.4276	8070.4	7174.85
942.1835	2121.9575	8031.3	7138
942.3193	2123.4866	8038.3	7144.1
942.455	2125.0149	8009	7115.35
942.5907	2126.5426	7950.1	7061.95
942.7264	2128.0695	7945.65	7055.25
942.8621	2129.5956	7917.05	7032.35
942.9977	2131.1211	7907.65	7015.9
943.1333	2132.6458	7900.35	7012.05
943.2689	2134.1698	7902	7008.9
943.4044	2135.693	7844.1	6948.25
943.54	2137.2155	7835.55	6938.55
943.6755	2138.7373	7800	6908.55
943.8109	2140.2584	7795.2	6908
943.9464	2141.7787	7762.35	6870
944.0818	2143.2983	7720.2	6834.55
944.2172	2144.8171	7674.8	6791.6
944.3526	2146.3353	7675.75	6786.65
944.4879	2147.8527	7634.1	6744.95
944.6232	2149.3693	7646.1	6752.5
944.7585	2150.8853	7605.65	6712.5
944.8938	2152.4005	7591.85	6700.05
945.029	2153.9149	7573.95	6681.7
945.1642	2155.4287	7619.9	6613.45
945.2994	2156.9417	7565.25	6671.2
945.4346	2158.454	7526.3	6635.55
945.5697	2159.9655	7495.45	6609.15
945.7048	2161.4764	7491.35	6602.8
945.8399	2162.9865	7462.6	6573.2
945.9749	2164.4958	7447.9	6559.6
946.1099	2166.0045	7403.35	6511.7
946.2449	2167.5124	7377.75	6488.75
946.3799	2169.0195	7369.3	6480.25
946.5148	2170.526	7352.35	6460.7
946.6498	2172.0317	7340.7	6448.8
946.7846	2173.5367	7330.3	6439.8
946.9195	2175.0409	7322.75	6434.9
947.0543	2176.5445	7297.15	6408.3
947.1891	2178.0473	7276	6385.95
947.3239	2179.5494	7231.4	6338.1
947.4587	2181.0507	7202.7	6310.95
947.5934	2182.5513	7178.35	6288.25
947.7281	2184.0512	7143.65	6251.45
947.8628	2185.5504	7153.35	6263.2
947.9974	2187.0488	7120.3	6233.45
948.132	2188.5465	7090.3	6202.15
948.2666	2190.0435	7060.7	6171.3
948.4012	2191.5397	7039.5	6150.05
948.5357	2193.0353	7042.05	6150.35
948.6702	2194.5301	7002.45	6109.4
948.8047	2196.0241	6984.6	6091.3
948.9392	2197.5175	6962.9	6069.25
949.0736	2199.0101	6945.05	6046.3
949.208	2200.502	6909.15	6019.8
949.3424	2201.9931	6895.45	6009.15
949.4767	2203.4835	6850.75	5961.15
949.611	2204.9733	6836.85	5942.85
949.7453	2206.4622	6815.1	5929.7
949.8796	2207.9505	6813.35	5923.7
950.0138	2209.438	6773.15	5888.6
950.148	2210.9248	6756.45	5867.4
950.2822	2212.4109	6732.75	5843.3
950.4164	2213.8962	6715.75	5820.4
950.5505	2215.3809	6707.95	5812.5
950.6846	2216.8648	6701	5805.25
950.8186	2218.3479	6680.95	5781
950.9527	2219.8304	6659.2	5759.3
951.0867	2221.3121	6606.4	5710.8
951.2207	2222.7931	6590.05	5696.85
951.3546	2224.2733	6580.05	5686.5
951.4886	2225.7529	6563.05	5670.5
951.6225	2227.2317	6524.05	5629.85
951.7563	2228.7098	6514.55	5626.95
951.8902	2230.1872	6487.75	5599.9
952.024	2231.6638	6484.45	5597.45
952.1578	2233.1397	6447.2	5553.55
952.2916	2234.6149	6424.7	5535.8
952.4253	2236.0894	6428.4	5537.25
952.559	2237.5632	6424.5	5531.15
952.6927	2239.0362	6378.35	5489.7
952.8263	2240.5085	6352.6	5463.8
952.9599	2241.9801	6328.35	5438
953.0935	2243.4509	6334.75	5443.15
953.2271	2244.921	6308.5	5410.85
953.3606	2246.3904	6277.15	5381.25
953.4941	2247.8591	6265.15	5373.55
953.6276	2249.3271	6256.5	5363.45
953.7611	2250.7943	6240.3	5349.3
953.8945	2252.2608	6191.15	5298.7
954.0279	2253.7266	6190.45	5298.1
954.1612	2255.1917	6172.3	5281.45
954.2946	2256.656	6135.05	5244.45
954.4279	2258.1197	6128.55	5240.6
954.5612	2259.5826	6099.2	5206.85
954.6944	2261.0447	6108.3	5219.15
954.8276	2262.5062	6081.7	5188.15
954.9608	2263.9669	6072.9	5177.15
955.094	2265.4269	6065.7	5172.9
955.2271	2266.8862	6033.85	5143.25
955.3602	2268.3448	6023.3	5132.7
955.4933	2269.8026	6004.85	5114.7
955.6264	2271.2598	5999.6	5108.5
955.7594	2272.7162	5983.3	5094.35
955.8924	2274.1719	5954.6	5062.65
956.0253	2275.6268	5962.85	5068.35
956.1583	2277.0811	5927.7	5034.85
956.2912	2278.5346	5914.75	5026.8
956.4241	2279.9874	5897.55	5007.8
956.5569	2281.4395	5900.5	5012.7
956.6897	2282.8908	5895.35	4999
956.8225	2284.3414	5865.75	4972.2
956.9553	2285.7914	5836.1	4945.55
957.088	2287.2406	5818	4925.9
957.2207	2288.689	5811.25	4918.4
957.3534	2290.1368	5792.1	4897.75
957.486	2291.5838	5781.9	4884.55
957.6186	2293.0302	5773.75	4876.3
957.7512	2294.4758	5757.2	4862.65
957.8838	2295.9206	5741.55	4846.25
958.0163	2297.3648	5706.25	4815.5
958.1488	2298.8082	5697.25	4805.6
958.2813	2300.251	5695.9	4802.5
958.4137	2301.693	5673.75	4780.3
958.5461	2303.1343	5650.6	4757.35
958.6785	2304.5748	5636.6	4745.6
958.8108	2306.0147	5617.65	4726.75
958.9432	2307.4538	5616.5	4724.45
959.0754	2308.8922	5574.2	4685.8
959.2077	2310.3299	5565.8	4677.9
959.3399	2311.7669	5546.1	4658.05
959.4721	2313.2031	5542.95	4653.8
959.6043	2314.6387	5505.35	4612.05
959.7365	2316.0735	5473.75	4580.6
959.8686	2317.5076	5486.75	4593.2
960.0006	2318.941	5465.15	4570.2
960.1327	2320.3737	5465.35	4572.9
960.2647	2321.8056	5440.75	4543.2
960.3967	2323.2369	5444.25	4551.7
960.5287	2324.6674	5415.35	4522.7
960.6606	2326.0972	5394.55	4500.65
960.7925	2327.5263	5375.35	4483.05
960.9244	2328.9547	5371.1	4477.7
961.0562	2330.3823	5335.35	4441.3
961.1881	2331.8092	5345.6	4448
961.3198	2333.2355	5324.55	4428.35
961.4516	2334.661	5322.4	4427.95
961.5833	2336.0858	5306.25	4413.15
961.715	2337.5098	5298.4	4404
961.8467	2338.9332	5276.6	4385.9
961.9783	2340.3558	5263.55	4370.55
962.1099	2341.7778	5257.35	4367.95
962.2415	2343.199	5234.95	4342.65
962.373	2344.6195	5216.6	4325.2
962.5045	2346.0393	5199	4310.05
962.636	2347.4583	5182.2	4289.85
962.7675	2348.8767	5160.8	4268.25
962.8989	2350.2943	5156.4	4262.7
963.0303	2351.7113	5150.8	4253.7
963.1617	2353.1275	5127.7	4232.6
963.293	2354.543	5131.4	4227.85
963.4243	2355.9578	5104.65	4211.95
963.5556	2357.3718	5050.5	4159.4
963.6868	2358.7852	5062.4	4169.5
963.818	2360.1978	5040.9	4151.1
963.9492	2361.6098	5038.95	4148.55
964.0803	2363.021	5032.3	4137.9
964.2114	2364.4315	5009.35	4115.55
964.3425	2365.8413	4994.05	4099.9
964.4736	2367.2504	4967	4077.45
964.6046	2368.6587	4957	4067.65
964.7356	2370.0664	4923.9	4035
964.8666	2371.4733	4927.25	4036.85
964.9975	2372.8795	4906.9	4016.25
965.1284	2374.285	4900.25	4009.7
965.2593	2375.6899	4862.9	3973.25
965.3901	2377.0939	4825.9	3935.8
965.5209	2378.4973	4841.65	3950.6
965.6517	2379.9	4816.75	3925.3
965.7825	2381.3019	4804.45	3914.75
965.9132	2382.7032	4795.85	3908.15
966.0439	2384.1037	4781.45	3894.25
966.1745	2385.5035	4755.9	3868.7
966.3051	2386.9027	4742.95	3855.55
966.4357	2388.3011	4743.85	3852.85
966.5663	2389.6987	4715.55	3827.3
966.6968	2391.0957	4702.9	3813.3
966.8273	2392.492	4687.3	3800.6
966.9578	2393.8876	4652.25	3764.15
967.0882	2395.2824	4657.8	3769
967.2186	2396.6765	4638.7	3747.05
967.349	2398.07	4615.5	3725.55
967.4793	2399.4627	4605.85	3713.1
967.6097	2400.8547	4601.7	3711.1
967.7399	2402.246	4603.9	3707.15
967.8702	2403.6366	4557.2	3668.8
968.0004	2405.0265	4541.3	3654.85
968.1306	2406.4156	4529.55	3636.95
968.2607	2407.8041	4527.65	3635.1
968.3909	2409.1918	4512.75	3620.85
968.521	2410.5789	4494.55	3603.9
968.651	2411.9652	4462.7	3569.8
968.781	2413.3508	4456.4	3565.75
968.911	2414.7358	4461.95	3570.8
969.041	2416.12	4439.05	3550.3
969.1709	2417.5035	4428.7	3538.9
969.3008	2418.8863	4419.65	3529.25
969.4307	2420.2684	4394.5	3504.35
969.5606	2421.6497	4371.4	3478.6
969.6904	2423.0304	4357	3466.3
969.8201	2424.4104	4339.1	3448.1
969.9499	2425.7896	4337.05	3445.8
970.0796	2427.1682	4320.85	3430.3
970.2093	2428.546	4321.75	3429.85
970.3389	2429.9232	4311.85	3419.3
970.4685	2431.2996	4290.9	3401.2
970.5981	2432.6753	4280.35	3390.65
970.7277	2434.0503	4277.8	3386.2
970.8572	2435.4246	4262.5	3373.4
970.9867	2436.7982	4245.95	3353.15
971.1161	2438.1711	4231.45	3341.25
971.2456	2439.5433	4215.15	3323.05
971.375	2440.9148	4221.5	3324.3
971.5043	2442.2856	4204.25	3313.8
971.6336	2443.6557	4191.35	3299.85
971.7629	2445.025	4167.6	3275.85
971.8922	2446.3937	4159.3	3266.5
972.0214	2447.7617	4160	3266.95
972.1506	2449.1289	4147.75	3258.65
972.2798	2450.4955	4146	3252.2
972.4089	2451.8613	4130.15	3239.7
972.538	2453.2265	4120.35	3229.55
972.6671	2454.5909	4107.55	3215.9
972.7961	2455.9546	4106.85	3215.75
972.9251	2457.3177	4087.3	3195.75
973.0541	2458.68	4074.85	3183.9
973.1831	2460.0416	4071.85	3179.75
973.312	2461.4025	4056.05	3164.5
973.4408	2462.7627	4063.05	3161.05
973.5697	2464.1222	4052.25	3164.25
973.6985	2465.4811	4031.55	3141.9
973.8273	2466.8392	4006.85	3117.7
973.956	2468.1966	4011.6	3118.1
974.0847	2469.5533	4026.95	3133.8
974.2134	2470.9093	4006.8	3115.55
974.3421	2472.2645	3988	3097.9
974.4707	2473.6191	3962.55	3073.3
974.5993	2474.973	3964	3073.1
974.7278	2476.3262	3959.65	3066.55
974.8563	2477.6787	3947.7	3057.3
974.9848	2479.0305	3914.45	3024.4
975.1132	2480.3816	3911.9	3020.25
975.2417	2481.7319	3902.1	3012.1
975.37	2483.0816	3890.05	2999.15
975.4984	2484.4306	3874.8	2985.8
975.6267	2485.7789	3848.7	2960.5
975.755	2487.1264	3855.9	2966.1
975.8833	2488.4733	3835.7	2946.2
976.0115	2489.8195	3835.65	2928.3
976.1397	2491.165	3821.95	2927.75
976.2678	2492.5097	3820.75	2930
976.3959	2493.8538	3791.85	2902.45
976.524	2495.1972	3775.5	2883.85
976.6521	2496.5398	3750.7	2857.25
976.7801	2497.8818	3761.75	2870.35
976.9081	2499.2231	3754.65	2862.2
977.036	2500.5637	3725.85	2833.15
977.164	2501.9035	3729.4	2837.45
977.2918	2503.2427	3719.85	2825.4
977.4197	2504.5812	3702.65	2812.25
977.5475	2505.919	3697.55	2806.8
977.6753	2507.256	3689.6	2799.8
977.8031	2508.5924	3669.55	2778.4
977.9308	2509.9281	3663.8	2766.5
978.0585	2511.2631	3640.25	2748.9
978.1861	2512.5974	3655.15	2765.15
978.3137	2513.9309	3637.05	2746.55
978.4413	2515.2638	3648.3	2732.5
978.5689	2516.596	3606.75	2717.1
978.6964	2517.9275	3601.6	2709.85
978.8239	2519.2583	3601.85	2708.6
978.9513	2520.5884	3591.95	2699.75
979.0788	2521.9178	3571.75	2680.85
979.2062	2523.2465	3562.2	2673.55
979.3335	2524.5745	3548.1	2659.1
979.4608	2525.9018	3545.45	2654.7
979.5881	2527.2284	3521.3	2630.55
979.7154	2528.5543	3530.3	2639.15
979.8426	2529.8796	3504.5	2613.75
979.9698	2531.2041	3512.05	2619.85
980.0969	2532.5279	3502.65	2614.45
980.224	2533.851	3488.75	2599.85
980.3511	2535.1735	3484.35	2592.85
980.4781	2536.4952	3478.95	2588.9
980.6052	2537.8163	3481.85	2590.85
980.7321	2539.1366	3458.2	2567.9
980.8591	2540.4562	3461.6	2570.25
980.986	2541.7752	3450.05	2557.85
981.1129	2543.0935	3441	2548.85
981.2397	2544.411	3432.05	2541.8
981.3665	2545.7279	3421.8	2531.6
981.4933	2547.0441	3429.5	2539.85
981.62	2548.3596	3425.65	2532.4
981.7467	2549.6744	3418.75	2528.15
981.8734	2550.9885	3399.9	2505.45
982.0001	2552.3019	3399.25	2508
982.1267	2553.6146	3389.2	2497.8
982.2532	2554.9266	3378.1	2485.05
982.3798	2556.2379	3367.3	2475.2
982.5063	2557.5485	3373.3	2483.15
982.6327	2558.8585	3368.1	2470.45
982.7592	2560.1677	3350.75	2454.45
982.8856	2561.4762	3338.3	2445.8
983.0119	2562.7841	3342.2	2449.25
983.1383	2564.0913	3335.1	2445.05
983.2646	2565.3977	3304	2414.45
983.3908	2566.7035	3309.75	2420.1
983.517	2568.0086	3314.45	2421.7
983.6432	2569.313	3324.85	2433
983.7694	2570.6167	3307.85	2411.4
983.8955	2571.9197	3308.3	2416.05
984.0216	2573.222	3290.75	2397
984.1476	2574.5236	3285.45	2392.45
984.2737	2575.8246	3276.25	2382.5
984.3996	2577.1248	3271.9	2378.45
984.5256	2578.4244	3268.45	2377.2
984.6515	2579.7232	3272.4	2381.2
984.7774	2581.0214	3275	2354.15
984.9032	2582.3189	3262.45	2371.75
985.029	2583.6157	3251.75	2354.35
985.1548	2584.9118	3239.9	2348.45
985.2806	2586.2072	3241.25	2350.9
985.4063	2587.5019	3234.7	2344.5
985.5319	2588.7959	3223.4	2329.05
985.6576	2590.0893	3240.7	2346.95
985.7832	2591.3819	3224.2	2332.6
985.9087	2592.6739	3206.95	2315.85
986.0343	2593.9652	3212.5	2320.6
986.1597	2595.2557	3191.15	2298
986.2852	2596.5456	3190.7	2297.5
986.4106	2597.8348	3187.6	2296.55
986.536	2599.1234	3190.55	2299.9
986.6614	2600.4112	3165.3	2273.8
986.7867	2601.6983	3169.05	2271.8
986.912	2602.9848	3154.65	2262.4
987.0372	2604.2705	3138.55	2241.3
987.1624	2605.5556	3161.2	2268.7
987.2876	2606.84	3132.45	2242.7
987.4128	2608.1237	3135.6	2242.85
987.5379	2609.4067	3111.45	2219.6
987.6629	2610.689	3120.95	2221.1
987.788	2611.9707	3112.7	2216.95
987.913	2613.2516	3098.35	2203.4
988.0379	2614.5319	3079.3	2186.2
988.1629	2615.8115	3075.55	2183.65
988.2878	2617.0903	3065.1	2172.05
988.4126	2618.3685	3054.15	2161.3
988.5375	2619.6461	3036.05	2143.1
988.6622	2620.9229	3042.75	2150
988.787	2622.199	3028.75	2137.5
988.9117	2623.4745	3047	2153.85
989.0364	2624.7493	3023.7	2131.4
989.161	2626.0234	3016.45	2126
989.2857	2627.2968	3005.6	2113
989.4102	2628.5695	3005.85	2113.65
989.5348	2629.8415	2982.25	2090.9
989.6593	2631.1128	2996.2	2103.15
989.7837	2632.3835	2971.35	2080.3
989.9082	2633.6535	2969.7	2080.3
990.0326	2634.9228	2958.85	2068.85
990.1569	2636.1914	2960.3	2069.75
990.2812	2637.4593	2962	2065.1
990.4055	2638.7265	2946.9	2056.2
990.5298	2639.9931	2930.7	2040.85
990.654	2641.259	2922.8	2028.45
990.7782	2642.5242	2925.15	2034.3
990.9023	2643.7887	2911.9	2018.3
991.0264	2645.0525	2907.7	2018.55
991.1505	2646.3156	2899.15	2005.5
991.2745	2647.5781	2891.6	2000.35
991.3985	2648.8398	2880.6	1992.5
991.5225	2650.1009	2894.2	1979.85
991.6464	2651.3613	2864.5	1972.55
991.7703	2652.6211	2852.5	1960.4
991.8942	2653.8801	2856.8	1966.1
992.018	2655.1385	2850.45	1956.7
992.1418	2656.3961	2860.95	1970.15
992.2655	2657.6531	2847.45	1955.45
992.3892	2658.9094	2841.65	1949.8
992.5129	2660.1651	2838.8	1948.65
992.6366	2661.42	2838.25	1949.6
992.7602	2662.6743	2832.05	1940
992.8837	2663.9279	2823.45	1932.3
993.0073	2665.1808	2811.8	1921.35
993.1307	2666.433	2805.2	1913.1
993.2542	2667.6846	2809.5	1918.2
993.3776	2668.9354	2809.65	1915.45
993.501	2670.1856	2803.8	1911.45
993.6244	2671.4351	2802.85	1913.15
993.7477	2672.6839	2798.2	1905.7
993.8709	2673.9321	2801.25	1910.2
993.9942	2675.1795	2784.55	1893
994.1174	2676.4263	2795.95	1904.2
994.2405	2677.6724	2778.55	1891
994.3637	2678.9179	2776.75	1886.85
994.4868	2680.1626	2771.15	1880.8
994.6098	2681.4067	2773.6	1880.75
994.7328	2682.6501	2764.7	1874.6
994.8558	2683.8928	2762.5	1871.6
994.9788	2685.1348	2755.25	1864.65
995.1017	2686.3761	2739.8	1847.6
995.2245	2687.6168	2734.8	1843.2
995.3474	2688.8568	2724.25	1835.15
995.4702	2690.0961	2716.3	1826.65
995.5929	2691.3348	2710.45	1819.6
995.7156	2692.5727	2718.5	1829
995.8383	2693.81	2696.35	1807.1
995.961	2695.0466	2692.15	1801.75
996.0836	2696.2826	2683	1791.45
996.2062	2697.5178	2672.9	1781.8
996.3287	2698.7524	2663.9	1772.7
996.4512	2699.9863	2680.3	1789.45
996.5737	2701.2195	2670.35	1781.95
996.6961	2702.452	2673.95	1782.15
996.8185	2703.6839	2657.8	1765.25
996.9408	2704.9151	2671.6	1782.25
997.0631	2706.1456	2661	1768.7
997.1854	2707.3755	2668.15	1779.15
997.3077	2708.6046	2679.05	1787.75
997.4299	2709.8331	2663.1	1773.2
997.552	2711.0609	2674.85	1785.35
997.6742	2712.2881	2671.1	1780.9
997.7963	2713.5145	2673.3	1782.25
997.9183	2714.7403	2676.8	1786.4
998.0403	2715.9654	2672.75	1780.6
998.1623	2717.1899	2704.9	1801.4
998.2842	2718.4136	2696.45	1807.2
998.4062	2719.6367	2696.2	1806.1
998.528	2720.8591	2707.3	1813.25
998.6498	2722.0809	2717.85	1829.5
998.7716	2723.3019	2715.2	1823.75
998.8934	2724.5223	2720.05	1830.35
999.0151	2725.7421	2712.8	1818.85
999.1368	2726.9611	2717.05	1825.45
999.2584	2728.1795	2703.85	1807.6
999.38	2729.3972	2695	1805.45
999.5016	2730.6142	2685.05	1789.55
999.6231	2731.8306	2683.95	1793.9
999.7446	2733.0462	2646.45	1755.5
999.8661	2734.2612	2626.3	1729.65
999.9875	2735.4756	2606.9	1714.6
1000.1089	2736.6892	2580.35	1689.65
1000.2302	2737.9022	2555.5	1665.45
1000.3515	2739.1145	2540.4	1652.5
1000.4728	2740.3262	2529.7	1634.95
1000.594	2741.5372	2511.75	1623.7
1000.7152	2742.7475	2490.4	1600.55
1000.8363	2743.9571	2473.6	1582.7
1000.9575	2745.1661	2474.55	1580.4
1001.0785	2746.3744	2460.15	1569
1001.1996	2747.582	2441.9	1551.4
1001.3206	2748.7889	2439.95	1549.25
1001.4415	2749.9952	2417.55	1530
1001.5625	2751.2008	2401.75	1511.35
1001.6833	2752.4057	2409.75	1516.95
1001.8042	2753.61	2401.75	1510.25
1001.925	2754.8136	2400.75	1508.95
1002.0458	2756.0165	2380.8	1492.95
1002.1665	2757.2188	2380.3	1491.05
1002.2872	2758.4204	2370.8	1482.15
1002.4078	2759.6213	2372.1	1478.05
1002.5285	2760.8215	2370.55	1476.65
1002.649	2762.0211	2354.1	1462.6
1002.7696	2763.22	2364.05	1470.35
1002.8901	2764.4182	2348	1458.4
1003.0106	2765.6158	2344.95	1455.05
1003.131	2766.8127	2323.2	1431.4
1003.2514	2768.009	2321.8	1433.9
1003.3717	2769.2045	2316.7	1427.55
1003.492	2770.3994	2313.2	1422.9
1003.6123	2771.5936	2300.6	1410.5
1003.7325	2772.7872	2303.6	1416.4
1003.8527	2773.9801	2293.3	1403.65
1003.9729	2775.1723	2306.35	1400.45
1004.093	2776.3639	2287.35	1397.4
1004.2131	2777.5548	2291.35	1402.05
1004.3331	2778.745	2293.1	1402.95
1004.4531	2779.9346	2288.9	1402.4
1004.5731	2781.1235	2280.4	1389.15
1004.693	2782.3117	2281.35	1394
1004.8129	2783.4992	2275.7	1386.25
1004.9328	2784.6861	2268.8	1381.15
1005.0526	2785.8723	2281.75	1392
1005.1723	2787.0579	2284.15	1396
1005.2921	2788.2428	2281.3	1390.65
1005.4118	2789.427	2287.8	1400.75
1005.5314	2790.6106	2297.95	1408.8
1005.651	2791.7935	2295.15	1405.05
1005.7706	2792.9757	2304.45	1416.55
1005.8902	2794.1573	2308.5	1417.8
1006.0097	2795.3382	2324.1	1436.45
1006.1291	2796.5184	2329.15	1441.4
1006.2485	2797.698	2352.2	1461.4
1006.3679	2798.8769	2355.3	1467
1006.4873	2800.0551	2372.65	1484.2
1006.6066	2801.2327	2394.85	1505.4
1006.7258	2802.4096	2408.65	1521.65
1006.8451	2803.5859	2420.25	1531.7
1006.9642	2804.7615	2433.8	1546.55
1007.0834	2805.9364	2465.7	1579.05
1007.2025	2807.1106	2490.65	1603.85
1007.3216	2808.2842	2504.6	1616.55
1007.4406	2809.4572	2537.9	1649.3
1007.5596	2810.6294	2580.3	1691.4
1007.6785	2811.801	2627.25	1738.05
1007.7975	2812.972	2669.05	1781.4
1007.9163	2814.1423	2691.7	1802.65
1008.0352	2815.3119	2742.85	1854.25
1008.154	2816.4808	2784.4	1898.2
1008.2727	2817.6491	2824.1	1936.15
1008.3914	2818.8167	2881	1995.15
1008.5101	2819.9837	2935.15	2042.75
1008.6288	2821.15	2959.8	2071.8
1008.7474	2822.3157	3009.85	2123.05
1008.8659	2823.4807	3053.4	2166.2
1008.9844	2824.645	3099.3	2210.75
1009.1029	2825.8086	3134.2	2247.6
1009.2214	2826.9716	3162.5	2274.6
1009.3398	2828.134	3210.2	2323.35
1009.4581	2829.2957	3251.9	2364.3
1009.5764	2830.4567	3257.45	2370.25
1009.6947	2831.617	3278.15	2391.3
1009.813	2832.7767	3296.15	2407.5
1009.9312	2833.9358	3294.15	2410.65
1010.0493	2835.0941	3284.1	2396.6
1010.1675	2836.2519	3267.45	2379.5
1010.2855	2837.4089	3254.1	2367.95
1010.4036	2838.5653	3241.4	2355.15
1010.5216	2839.7211	3256.45	2372.1
1010.6396	2840.8761	3259.35	2370
1010.7575	2842.0306	3270.25	2382.8
1010.8754	2843.1843	3298.15	2412.1
1010.9932	2844.3374	3341.75	2453.75
1011.111	2845.4899	3408.4	2520.8
1011.2288	2846.6417	3484.3	2595.55
1011.3465	2847.7928	3576.2	2689.8
1011.4642	2848.9433	3643.75	2757.75
1011.5818	2850.0931	3719.75	2836.15
1011.6995	2851.2422	3797.25	2908.4
1011.817	2852.3907	3876.3	2987.35
1011.9345	2853.5385	3928.3	3040.7
1012.052	2854.6857	4006.1	3109.75
1012.1695	2855.8323	4035.3	3148.75
1012.2869	2856.9781	4070.45	3185.9
1012.4042	2858.1233	4137.75	3251.5
1012.5216	2859.2679	4176.05	3291.1
1012.6389	2860.4118	4223.05	3334.4
1012.7561	2861.555	4261.9	3369.95
1012.8733	2862.6976	4296.95	3408.25
1012.9905	2863.8395	4302.85	3416.7
1013.1076	2864.9808	4336.3	3449.1
1013.2247	2866.1214	4354.55	3470.15
1013.3417	2867.2614	4361.05	3474.15
1013.4587	2868.4007	4363.85	3475.85
1013.5757	2869.5393	4389.35	3499.2
1013.6926	2870.6773	4385.85	3495.05
1013.8095	2871.8146	4402.4	3513.2
1013.9263	2872.9513	4413.75	3524.5
1014.0431	2874.0874	4398.95	3513.3
1014.1599	2875.2227	4384.8	3497.9
1014.2766	2876.3574	4373.2	3485.65
1014.3933	2877.4915	4328.7	3443.75
1014.51	2878.6249	4309.4	3422.45
1014.6266	2879.7577	4273.25	3386.4
1014.7431	2880.8898	4255.75	3356.8
1014.8596	2882.0212	4235.9	3349.15
1014.9761	2883.152	4245.6	3358.95
1015.0925	2884.2821	4207.1	3320.9
1015.2089	2885.4116	4203.35	3318.75
1015.3253	2886.5405	4184.9	3299.5
1015.4416	2887.6686	4203.7	3314.7
1015.5579	2888.7962	4207.05	3322.1
1015.6741	2889.923	4224.6	3339.75
1015.7903	2891.0493	4217.4	3334.4
1015.9065	2892.1748	4233.05	3344.95
1016.0226	2893.2997	4216.95	3329.85
1016.1387	2894.424	4234.45	3350.3
1016.2547	2895.5476	4258.95	3374
1016.3707	2896.6706	4279.25	3394.3
1016.4866	2897.7929	4315.1	3427.6
1016.6025	2898.9145	4317.35	3430.8
1016.7184	2900.0355	4353.55	3467.25
1016.8342	2901.1559	4389.65	3503.8
1016.95	2902.2756	4431.05	3546
1017.0658	2903.3946	4438.15	3552.4
1017.1815	2904.513	4466.95	3578.15
1017.2971	2905.6308	4490.95	3605.8
1017.4127	2906.7479	4506.9	3620.95
1017.5283	2907.8643	4539.45	3653.1
1017.6439	2908.9801	4541.9	3656.5
1017.7594	2910.0953	4560.5	3674.3
1017.8748	2911.2098	4550.35	3658.8
1017.9902	2912.3236	4550	3655.45
1018.1056	2913.4368	4529.45	3639.2
1018.2209	2914.5494	4494.85	3606.9
1018.3362	2915.6613	4477.9	3586.45
1018.4515	2916.7725	4460.3	3572.1
1018.5667	2917.8831	4414.25	3528.1
1018.6819	2918.9931	4394	3507.75
1018.797	2920.1024	4355.05	3469
1018.9121	2921.211	4336.3	3450.3
1019.0271	2922.319	4306.05	3420.75
1019.1421	2923.4264	4285.95	3401.65
1019.2571	2924.5331	4280.5	3394.35
1019.372	2925.6391	4267.15	3381.95
1019.4869	2926.7445	4233.7	3349.55
1019.6017	2927.8493	4231.55	3344.65
1019.7165	2928.9534	4235.15	3349
1019.8313	2930.0569	4236.1	3348.45
1019.946	2931.1597	4209.05	3322.25
1020.0606	2932.2619	4207.65	3323.25
1020.1753	2933.3634	4184.4	3298.65
1020.2899	2934.4643	4173.2	3280.6
1020.4044	2935.5645	4170.15	3278.3
1020.5189	2936.6641	4108.35	3217.6
1020.6334	2937.763	4054.15	3169.95
1020.7478	2938.8613	4021.7	3137.1
1020.8622	2939.959	3966.75	3076.35
1020.9765	2941.056	3891.35	3005.75
1021.0908	2942.1523	3800.45	2913
1021.2051	2943.248	3702.25	2814.45
1021.3193	2944.3431	3610.5	2727.1
1021.4334	2945.4375	3490.65	2603.6
1021.5476	2946.5313	3396.95	2513.55
1021.6617	2947.6244	3290.45	2407
1021.7757	2948.7169	3190.7	2304.9
1021.8897	2949.8087	3085.85	2200.35
1022.0037	2950.8999	2977.75	2091.95
1022.1176	2951.9904	2916.85	2032.45
1022.2315	2953.0803	2836.2	1948.55
1022.3453	2954.1696	2763.5	1879.55
1022.4591	2955.2582	2706.15	1819.8
1022.5728	2956.3462	2664.1	1778.85
1022.6865	2957.4335	2605.75	1719.4
1022.8002	2958.5202	2576	1689.95
1022.9138	2959.6062	2548	1662.25
1023.0274	2960.6916	2519	1633.85
1023.141	2961.7764	2499.35	1612.85
1023.2545	2962.8605	2488.95	1602.9
1023.3679	2963.9439	2474.55	1591.5
1023.4813	2965.0267	2467.1	1580.8
1023.5947	2966.1089	2467.65	1560.4
1023.708	2967.1905	2443.45	1557.9
1023.8213	2968.2714	2446.2	1562.1
1023.9346	2969.3516	2433.45	1548.9
1024.0478	2970.4312	2449.85	1559.3
1024.1609	2971.5102	2433.4	1548.3
1024.274	2972.5885	2431.65	1547.65
1024.3871	2973.6662	2434.1	1543.85
1024.5002	2974.7432	2419.6	1535.55
1024.6132	2975.8196	2414.85	1529
1024.7261	2976.8954	2410.6	1526.45
1024.839	2977.9705	2388.3	1503.15
1024.9519	2979.045	2374	1491.7
1025.0647	2980.1188	2359.65	1474.55
1025.1775	2981.192	2326.8	1442.95
1025.2902	2982.2645	2312.9	1426.85
1025.4029	2983.3364	2290.8	1406.85
1025.5156	2984.4077	2256.85	1372.75
1025.6282	2985.4783	2226.9	1335.45
1025.7407	2986.5483	2188.95	1305.25
1025.8532	2987.6177	2150.9	1267.5
1025.9657	2988.6864	2121.7	1237.75
1026.0782	2989.7545	2086	1200.4
1026.1906	2990.8219	2056.9	1173
1026.3029	2991.8887	2024.55	1139.45
1026.4152	2992.9548	1982.45	1097.15
1026.5275	2994.0204	1950.75	1067.4
1026.6397	2995.0852	1917.15	1033.45
1026.7519	2996.1495	1889.1	1004
1026.864	2997.2131	1868.5	987.05
1026.9761	2998.276	1848.6	963.9
1027.0882	2999.3383	1826.2	940.35
1027.2002	3000.4	1806.35	920.2
1027.3122	3001.4611	1786.35	903.2
1027.4241	3002.5215	1761.1	876
1027.536	3003.5812	1748.5	864.4
1027.6478	3004.6404	1737.1	851.7
1027.7596	3005.6989	1740.2	852.75
1027.8714	3006.7567	1718.3	832.45
1027.9831	3007.8139	1728.7	823.2
1028.0947	3008.8705	1706.15	821.2
1028.2064	3009.9264	1715.15	812.8
1028.3179	3010.9818	1693.05	809.05
1028.4295	3012.0364	1692.4	807.7
1028.541	3013.0905	1680.9	796.85
1028.6524	3014.1439	1681.45	797
1028.7638	3015.1966	1676.9	793.1
1028.8752	3016.2487	1678.85	793.25
1028.9865	3017.3002	1681.2	790.05
1029.0978	3018.3511	1670.1	787.2
1029.209	3019.4013	1674.9	788.2
1029.3202	3020.4509	1676.25	794
1029.4314	3021.4998	1675.85	792.25
1029.5425	3022.5481	1665.55	780.85
1029.6535	3023.5958	1661.2	776.8
1029.7645	3024.6428	1674.1	789.1
1029.8755	3025.6892	1667.8	784.2
1029.9864	3026.735	1666.95	783.5
1030.0973	3027.7802	1665.15	779.55
1030.2082	3028.8247	1668.85	786
1030.319	3029.8685	1669	785.75
1030.4297	3030.9118	1682.65	797.3
1030.5404	3031.9544	1670.1	787.45
1030.6511	3032.9963	1684.8	800.25
1030.7617	3034.0376	1687.95	803.9
1030.8723	3035.0783	1683.85	798.4
1030.9829	3036.1184	1694.05	807.75
1031.0934	3037.1578	1696.85	812.1
1031.2038	3038.1966	1696.2	811.1
1031.3142	3039.2348	1697	813.25
1031.4246	3040.2723	1698.5	805.7
1031.5349	3041.3092	1683.6	799.4
1031.6452	3042.3455	1685.25	800.35
1031.7554	3043.3811	1677.55	792.2
1031.8656	3044.4161	1677.35	793.3
1031.9758	3045.4505	1657.85	776.5
1032.0859	3046.4842	1664.2	779.25
1032.1959	3047.5173	1646.95	765.9
1032.3059	3048.5498	1649.3	765.8
1032.4159	3049.5816	1634.8	751.45
1032.5258	3050.6128	1633.7	748
1032.6357	3051.6434	1626.8	740.15
1032.7455	3052.6734	1614.2	730.05
1032.8553	3053.7027	1612.45	727.8
1032.9651	3054.7314	1603.7	722
1033.0748	3055.7594	1584	700.7
1033.1845	3056.7868	1582.1	695.95
1033.2941	3057.8136	1583.3	697.65
1033.4037	3058.8398	1581.7	699.5
1033.5132	3059.8653	1561.9	678.1
1033.6227	3060.8902	1563.5	677.95
1033.7321	3061.9145	1557.8	675.7
1033.8415	3062.9381	1547.35	660.65
1033.9509	3063.9612	1553.75	654.7
1034.0602	3064.9835	1535.35	648.95
1034.1694	3066.0053	1531.35	645.25
1034.2787	3067.0264	1517.6	633.55
1034.3878	3068.0469	1514.7	629.95
1034.497	3069.0668	1509.85	623
1034.6061	3070.086	1491.5	608.3
1034.7151	3071.1046	1481.45	594.35
1034.8241	3072.1226	1473.5	588.5
1034.9331	3073.1399	1463.9	580.7
1035.042	3074.1567	1443	558.95
1035.1508	3075.1727	1443.3	558.35
1035.2597	3076.1882	1435.9	550.65
1035.3684	3077.203	1423.75	539.5
1035.4772	3078.2173	1411.7	527.35
1035.5859	3079.2308	1402.45	515.65
1035.6945	3080.2438	1393.35	506.5
1035.8031	3081.2561	1384.55	501.05
1035.9117	3082.2678	1374.2	490.95
1036.0202	3083.2789	1371.15	487.65
1036.1286	3084.2893	1364.7	481.85
1036.2371	3085.2991	1356.8	473.1
1036.3454	3086.3083	1357.8	468.65
1036.4538	3087.3169	1340.85	457.95
1036.562	3088.3248	1332.85	447.1
1036.6703	3089.3321	1337.85	450.8
1036.7785	3090.3388	1321.85	439.25
1036.8866	3091.3449	1316.3	432.6
1036.9948	3092.3503	1321.15	435.75
1037.1028	3093.3551	1310	428
1037.2108	3094.3593	1312.2	429.25
1037.3188	3095.3629	1303.3	419.55
1037.4267	3096.3658	1301.95	417.2
1037.5346	3097.3681	1293.95	408.15
1037.6425	3098.3698	1296.5	411.6
1037.7503	3099.3708	1293.1	403.1
1037.858	3100.3713	1283.4	398.75
1037.9657	3101.3711	1277.05	390.5
1038.0734	3102.3702	1410.3	394.05
1038.181	3103.3688	1277.6	392.15
1038.2886	3104.3667	1267.45	384.8
1038.3961	3105.364	1269.55	386.45
1038.5036	3106.3607	1263.5	378.1
1038.611	3107.3568	1262.55	379.5
1038.7184	3108.3522	1254.85	371.65
1038.8257	3109.347	1255	370.6
1038.933	3110.3412	1255.25	367.35
1039.0403	3111.3348	1251.1	368.8
1039.1475	3112.3277	1254.85	371.3
1039.2547	3113.32	1240.45	360.05
1039.3618	3114.3117	1238.95	353.9
1039.4689	3115.3028	1241.9	357.85
1039.5759	3116.2932	1241.7	355.65
1039.6829	3117.2831	1241.2	352.95
1039.7898	3118.2723	1232.75	348.25
1039.8967	3119.2608	1232.25	350.4
1040.0035	3120.2488	1230.1	346.1
1040.1103	3121.2361	1232.85	350.35
1040.2171	3122.2229	1226.2	345.15
1040.3238	3123.209	1217.15	332.2
1040.4305	3124.1944	1222.75	339.05
1040.5371	3125.1793	1221.95	336.5
1040.6437	3126.1635	1213.55	330.4
1040.7502	3127.1471	1214.6	331.6
1040.8567	3128.1301	1216.2	332.85
1040.9631	3129.1125	1207.6	325.35
1041.0695	3130.0942	1210.85	328
1041.1759	3131.0753	1213.25	322.25
1041.2822	3132.0558	1205.5	318.05
1041.3884	3133.0357	1204.35	321.25
1041.4946	3134.015	1197.65	315.8
1041.6008	3134.9936	1197	310.6
1041.7069	3135.9716	1215.1	310.95
1041.813	3136.949	1195.3	312.05
1041.919	3137.9258	1211.45	310.95
1042.025	3138.902	1198.5	309.6
1042.1309	3139.8775	1192.25	309.75
1042.2368	3140.8524	1187.15	303.95
1042.3427	3141.8267	1188.6	306.25
1042.4485	3142.8004	1185	300.05
1042.5542	3143.7735	1188.65	297.6
1042.6599	3144.7459	1184.45	298.15
1042.7656	3145.7178	1178.3	294.3
1042.8712	3146.689	1176.65	294.8
1042.9768	3147.6596	1178.45	294.55
1043.0823	3148.6295	1174.95	291.65
1043.1878	3149.5989	1173.75	290.55
1043.2932	3150.5676	1165.2	283.25
1043.3986	3151.5357	1163	281.45
1043.5039	3152.5032	1161.8	278.55
1043.6092	3153.4701	1164.1	283.85
1043.7145	3154.4364	1168.7	284.1
1043.8197	3155.402	1160.65	279.3
1043.9248	3156.367	1158.65	274.7
1044.03	3157.3315	1193.5	272.1
1044.135	3158.2952	1155.85	272.55
1044.24	3159.2584	1152.75	273.85
1044.345	3160.221	1149.65	267.7
1044.4499	3161.1829	1148.55	267.7
1044.5548	3162.1442	1147.5	264.3
1044.6596	3163.105	1141.85	258.2
1044.7644	3164.065	1145.35	261.75
1044.8692	3165.0245	1146.95	261.6
1044.9739	3165.9834	1141.35	259.5
1045.0785	3166.9416	1137.1	255.25
1045.1831	3167.8993	1134.25	252.05
1045.2877	3168.8563	1131.4	248.85
1045.3922	3169.8127	1131.85	250.3
1045.4966	3170.7684	1134.35	252.95
1045.6011	3171.7236	1131.85	248
1045.7054	3172.6782	1132.6	250.95
1045.8098	3173.6321	1126.9	243.9
1045.914	3174.5854	1132.85	246.1
1046.0183	3175.5381	1122.25	239.6
1046.1224	3176.4902	1123.95	241.3
1046.2266	3177.4417	1124.45	241.8
1046.3307	3178.3926	1118.5	236.6
1046.4347	3179.3428	1115.75	233.65
1046.5387	3180.2924	1117.55	236.6
1046.6427	3181.2415	1121.1	236.5
1046.7466	3182.1899	1122.4	238.7
1046.8504	3183.1377	1110.25	226.35
1046.9542	3184.0848	1115.3	229.65
1047.058	3185.0314	1111.35	230.3
1047.1617	3185.9773	1110.8	228.1
1047.2654	3186.9227	1110.6	227.55
1047.369	3187.8674	1111	228.95
1047.4726	3188.8115	1107.1	219.65
1047.5761	3189.755	1106.15	225
1047.6796	3190.6979	1102.25	221.15
1047.783	3191.6402	1101.2	219.8
1047.8864	3192.5818	1106.45	223
1047.9898	3193.5229	1105.3	214.7
1048.0931	3194.4633	1097.55	214
1048.1963	3195.4031	1103.9	219.75
1048.2995	3196.3423	1102.05	220
1048.4027	3197.2809	1098.2	214.4
1048.5058	3198.2189	1091.4	208.65
1048.6089	3199.1563	1102.45	212.8
1048.7119	3200.0931	1095	213.25
1048.8148	3201.0292	1090.6	208.3
1048.9178	3201.9648	1091.7	209.35
1049.0206	3202.8997	1091.95	206.45
1049.1235	3203.834	1088.25	205.7
1049.2262	3204.7677	1083.65	202.95
1049.329	3205.7008	1084.45	199.1
1049.4317	3206.6333	1088.1	206.3
1049.5343	3207.5652	1085.55	201.2
1049.6369	3208.4964	1087.8	207.5
1049.7394	3209.4271	1081.25	201.65
1049.8419	3210.3571	1082.65	202.2
1049.9444	3211.2865	1076.4	195.7
1050.0468	3212.2154	1080.75	198.4
1050.1491	3213.1436	1080.85	195.85
1050.2514	3214.0712	1083.7	196.15
1050.3537	3214.9982	1081.9	199.45
1050.4559	3215.9246	1079.7	197.95
1050.5581	3216.8503	1076.65	196
1050.6602	3217.7755	1075.4	192.9
1050.7623	3218.7001	1071.85	189.6
1050.8643	3219.624	1068.7	185.65
1050.9663	3220.5473	1077.8	195.35
1051.0682	3221.4701	1068.9	185.4
1051.1701	3222.3922	1073.2	188.85
1051.2719	3223.3137	1070.6	189.9
1051.3737	3224.2346	1067.3	185.4
1051.4754	3225.1549	1064.5	182.05
1051.5771	3226.0746	1064.8	183.55
1051.6788	3226.9937	1063.45	180.15
1051.7804	3227.9121	1063.55	181.7
1051.8819	3228.83	1060.35	180.5
1051.9834	3229.7473	1060.9	176.95
1052.0849	3230.6639	1057.4	175.75
1052.1863	3231.5799	1060.15	177.95
1052.2876	3232.4954	1059.85	177.45
1052.3889	3233.4102	1057.8	175.3
1052.4902	3234.3244	1061.3	180.35
1052.5914	3235.238	1054.35	172.5
1052.6926	3236.151	1081.85	174.65
1052.7937	3237.0634	1052.5	169
1052.8948	3237.9752	1055.25	173.35
1052.9958	3238.8864	1050.6	168.55
1053.0968	3239.797	1048.15	166.3
1053.1977	3240.7069	1051.85	169.15
1053.2986	3241.6163	1045.15	160.65
1053.3994	3242.5251	1045.15	164.55
1053.5002	3243.4332	1042.65	159.5
1053.6009	3244.3408	1044.7	162.15
1053.7016	3245.2477	1044.65	164.15
1053.8022	3246.154	1047.9	164.15
1053.9028	3247.0598	1041.35	159.45
1054.0034	3247.9649	1041.45	159.55
1054.1039	3248.8694	1039.6	156.8
1054.2043	3249.7733	1036.75	155.15
1054.3047	3250.6766	1040.35	157.85
1054.4051	3251.5793	1037.6	154.55
1054.5054	3252.4814	1032.25	152.05
1054.6056	3253.3829	1038.5	155.45
1054.7058	3254.2838	1033.9	152.25
1054.806	3255.1841	1033.05	151.2
1054.9061	3256.0838	1031.2	148.65
1055.0061	3256.9829	1029.95	148.9
1055.1062	3257.8814	1029.4	145.7
1055.2061	3258.7792	1030.35	144.75
1055.306	3259.6765	1027.6	145.75
1055.4059	3260.5731	1021.8	138.3
1055.5057	3261.4692	1019.95	137.4
1055.6055	3262.3647	1023.3	141.5
1055.7052	3263.2595	1015.6	133.95
1055.8049	3264.1538	1013.75	132.95
1055.9045	3265.0474	1013.65	131.8
1056.0041	3265.9404	1012.25	131.25
1056.1036	3266.8329	1012.4	130.85
1056.2031	3267.7247	1018.7	128.15
1056.3025	3268.616	1004.35	123.85
1056.4019	3269.5066	1003.15	120.2
1056.5013	3270.3966	1000.5	115.75
1056.6005	3271.286	996.55	115.8
