Software Version:	3.9.2.0
Unit SN:	10000200
Spectrometer SN:	6960
Date:	3/26/2024 1:54:37 PM
Data Line Index:	25
Spectral Points:	2048
Integration time (ms):	125
Averages:	20
Delay (ms):	30000
Sequence Number:	1
Processing:	dark subtract
Laser Power (mW):	300
Laser Current (mA):	821
Laser Diode Temp (C):	25
Laser Case Temp (C):	27.3
System Temp (C):	27.3
Spectrometer Temp (C):	25.3
CCD Temp (C):	0.001
Secondary Temp (C):	20.004
Heatsink Temp (C):	22.433
CCDPCB Temp (C):	36.807
SecondaryPCB Temp (C):	34.417

Wavelength	RamanShift	Raw Counts	Dark Subtracted
787.061	30.1047	599.65	190.8
787.2016	32.3739	605.4	198.7
787.3422	34.6426	619.9	211.15
787.4828	36.9109	633.85	222.45
787.6235	39.1787	653.6	238.15
787.7642	41.4461	677.45	256.85
787.9049	43.7131	693.15	269.9
788.0456	45.9796	712.75	285.9
788.1863	48.2456	732.4	301.7
788.3271	50.5112	753.35	315.25
788.4679	52.7764	775.3	339.4
788.6087	55.0411	804.95	365.6
788.7496	57.3054	829.3	383.35
788.8904	59.5692	860	413.4
789.0313	61.8326	885	434.35
789.1722	64.0955	923.2	467.5
789.3132	66.3579	962.95	501.25
789.4541	68.6199	1006.3	540.35
789.5951	70.8815	1090.9	622.45
789.7361	73.1426	1254.8	781.65
789.8771	75.4032	1691	1214.9
790.0181	77.6634	2745.35	2261
790.1592	79.9231	5404.05	4909.3
790.3003	82.1824	11464.35	10950.4
790.4414	84.4412	23917.95	23360.95
790.5825	86.6995	45969.25	45359.95
790.7237	88.9574	58248.75	57586.35
790.8648	91.2148	61754.15	61059.05
791.006	93.4717	62642.45	61924
791.1472	95.7282	62979.3	62250.15
791.2885	97.9842	63106.05	62371.4
791.4297	100.2398	63092.65	62356.3
791.571	102.4949	63037.1	62303.7
791.7123	104.7495	63011.55	62270.75
791.8536	107.0036	62862.95	62122.95
791.9949	109.2573	62954.1	62209.05
792.1363	111.5105	62774.15	62029.7
792.2777	113.7632	62788.15	62042.65
792.4191	116.0154	62816.35	62058.7
792.5605	118.2672	62903.75	62151.2
792.7019	120.5185	62855.3	62100.35
792.8434	122.7693	62833.15	62073.5
792.9849	125.0197	62647.8	61891.6
793.1264	127.2696	62942.5	62182.35
793.2679	129.519	62862.5	62103.5
793.4094	131.7679	63012.05	62245.85
793.551	134.0163	62650.95	61874.5
793.6926	136.2642	62790.1	62012.2
793.8342	138.5117	62955.8	62175.85
793.9758	140.7587	62834.55	62054.25
794.1175	143.0052	62816.7	62032.8
794.2591	145.2512	62641.2	61860.25
794.4008	147.4967	62840.75	62059.6
794.5425	149.7417	62779.75	61992.7
794.6842	151.9863	62774.55	61989.15
794.826	154.2304	62628	61831.45
794.9677	156.4739	62685.2	61889.6
795.1095	158.717	62836.2	62039
795.2513	160.9596	62695.5	61893.45
795.3931	163.2017	62505.35	61698.3
795.535	165.4433	62650.7	61843.45
795.6768	167.6844	62532.1	61728.5
795.8187	169.925	62579.4	61771.85
795.9606	172.1651	62431.8	61625.4
796.1025	174.4047	62515.2	61704.15
796.2445	176.6439	62448.7	61640.15
796.3864	178.8825	62322.9	61505.65
796.5284	181.1206	62539.3	61716.35
796.6704	183.3582	62465.4	61636.75
796.8124	185.5954	62386.95	61559.4
796.9544	187.832	62398.1	61566.3
797.0965	190.0681	62241.5	61410.55
797.2386	192.3037	62494.85	61657.7
797.3806	194.5388	62720.8	61877.05
797.5228	196.7734	62083.25	61239.75
797.6649	199.0075	62662.05	61813.8
797.807	201.2411	62520.45	61670.65
797.9492	203.4742	62765.55	61916.4
798.0914	205.7068	62711.9	61859.95
798.2336	207.9389	62689.35	61840.85
798.3758	210.1704	62676.5	61822.9
798.518	212.4015	62839.85	61985.2
798.6603	214.632	62660.65	61808
798.8025	216.862	62875.9	62026.75
798.9448	219.0915	62771.95	61930.5
799.0871	221.3205	62758.55	61915.05
799.2294	223.549	62940.8	62104.7
799.3718	225.777	62922.95	62090.05
799.5141	228.0044	62998.65	62164.2
799.6565	230.2314	62952.55	62120.45
799.7989	232.4578	62996.5	62162.65
799.9413	234.6837	63002.25	62163.4
800.0837	236.909	63218.25	62376.4
800.2262	239.1339	62909.5	62040.65
800.3687	241.3582	63043.4	62191.2
800.5111	243.582	63051	62164.45
800.6536	245.8053	63019.55	62148.85
800.7961	248.0281	63020.2	62154.45
800.9387	250.2503	63076.55	62199.45
801.0812	252.472	62959.1	62085.9
801.2238	254.6932	63031.45	62152.25
801.3664	256.9139	62960.9	62085.35
801.509	259.134	63166.95	62275.4
801.6516	261.3536	62952.4	62068.35
801.7942	263.5727	63083.95	62199.7
801.9369	265.7912	63014.7	62135
802.0795	268.0092	63048.15	62163.45
802.2222	270.2267	63083.3	62192.95
802.3649	272.4436	62978.7	62095.9
802.5076	274.6601	63067.5	62175.5
802.6504	276.8759	63098.25	62213.5
802.7931	279.0913	63033.65	62142.65
802.9359	281.3061	63060	62170.25
803.0787	283.5204	63053.95	62160.5
803.2215	285.7341	63065.2	62165.55
803.3643	287.9473	63147.9	62237.2
803.5071	290.16	63083.05	62178.25
803.6499	292.3721	63150.05	62246
803.7928	294.5837	63079.5	62177.8
803.9357	296.7947	63035.1	62135.1
804.0786	299.0052	63170.8	62266.2
804.2215	301.2152	63120.5	62216.9
804.3644	303.4246	63154.1	62259.15
804.5074	305.6334	63120.85	62225.5
804.6503	307.8418	62979	62082.55
804.7933	310.0495	62958.85	62058.05
804.9363	312.2568	62930.55	62028.05
805.0793	314.4635	62912.05	62006.05
805.2223	316.6696	62961.7	62051.75
805.3653	318.8752	62980.8	62067.65
805.5084	321.0802	62745.65	61838
805.6514	323.2847	62858.2	61951.25
805.7945	325.4887	62838.7	61928.55
805.9376	327.692	62795.95	61887.55
806.0807	329.8949	62864.7	61947.5
806.2238	332.0972	62760.65	61850.05
806.367	334.2989	62802.15	61886.85
806.5101	336.5001	62840.35	61923.5
806.6533	338.7007	62620.25	61702.15
806.7965	340.9008	62750.9	61830.65
806.9397	343.1003	62763.4	61843.85
807.0829	345.2992	62813.9	61893
807.2261	347.4976	62687.8	61761.9
807.3693	349.6955	62725.25	61801.15
807.5126	351.8927	62676.45	61749.6
807.6559	354.0895	62767.55	61835.1
807.7991	356.2856	62729.2	61804.5
807.9424	358.4812	62817.1	61889.8
808.0857	360.6763	62633.2	61705.55
808.2291	362.8707	62803.35	61874.35
808.3724	365.0646	62697.45	61770.25
808.5158	367.258	62688.3	61759.6
808.6591	369.4508	62579.45	61648.95
808.8025	371.643	62758.85	61817.1
808.9459	373.8346	62675.45	61735.6
809.0893	376.0257	62682	61745.35
809.2327	378.2162	62645.45	61712.7
809.3762	380.4062	62466.05	61524.1
809.5196	382.5956	62609.7	61668.3
809.6631	384.7844	62582.8	61645.55
809.8066	386.9726	62622.2	61686.05
809.9501	389.1603	62610.85	61676.5
810.0936	391.3474	62487.6	61509.75
810.2371	393.5339	62547.05	61609.05
810.3806	395.7199	62366.1	61435.65
810.5241	397.9052	62414.95	61485.05
810.6677	400.09	62442.8	61516.25
810.8113	402.2743	62578.55	61649.05
810.9548	404.4579	62405.15	61476.85
811.0984	406.641	62459.4	61531.55
811.2421	408.8235	62526.85	61596.4
811.3857	411.0054	62555.15	61623.35
811.5293	413.1868	62628.1	61694.55
811.673	415.3675	62562.15	61623.9
811.8166	417.5477	62549.85	61612.45
811.9603	419.7273	62562	61621.05
812.104	421.9064	62545.7	61605.8
812.2477	424.0848	62547.4	61610.7
812.3914	426.2627	62600.45	61659.15
812.5351	428.4399	62412.95	61468.9
812.6788	430.6166	62214.1	61267.25
812.8226	432.7928	62395.25	61443.75
812.9663	434.9683	62225.75	61290
813.1101	437.1432	62174.65	61235.65
813.2539	439.3176	62278.2	61339.95
813.3977	441.4914	61979.3	61044.2
813.5415	443.6645	62065.1	61127.05
813.6853	445.8371	62089.45	61145.8
813.8291	448.0091	61937.55	60997.3
813.973	450.1806	61808.6	60873.85
814.1168	452.3514	61871.5	60937.3
814.2607	454.5216	61672.2	60726.4
814.4046	456.6913	61875.7	60929.75
814.5485	458.8603	61931.85	60994.95
814.6924	461.0288	61667	60732.05
814.8363	463.1967	61905.5	60978.4
814.9802	465.3639	61867.25	60934.8
815.1241	467.5306	61451.95	60513.4
815.2681	469.6967	61735.2	60804.45
815.412	471.8622	61866.5	60933.7
815.556	474.0271	61710.65	60772.7
815.7	476.1914	61753.45	60813.9
815.844	478.3551	61759.65	60822.5
815.988	480.5182	62000.6	61063.1
816.132	482.6807	61683.5	60753.95
816.276	484.8426	61720.6	60800
816.4201	487.0039	62042.3	61118.5
816.5641	489.1647	62080.7	61142.65
816.7082	491.3248	61797.4	60856.1
816.8522	493.4843	62133.2	61205.15
816.9963	495.6432	62137.9	61204.9
817.1404	497.8015	61806.65	60859.75
817.2845	499.9592	62013.3	61060.45
817.4286	502.1163	61982.85	61031.3
817.5727	504.2728	61909.65	60967.2
817.7168	506.4287	61819.2	60892.25
817.861	508.5839	61604	60675.8
818.0051	510.7386	61719.95	60777.35
818.1493	512.8927	61735.35	60793.15
818.2935	515.0461	61670.9	60725.05
818.4377	517.199	61829.4	60883.1
818.5818	519.3512	61598.15	60648.95
818.726	521.5029	61633.6	60680.85
818.8703	523.6539	61681	60732.05
819.0145	525.8043	61422.7	60473.5
819.1587	527.9541	61669.35	60718.35
819.303	530.1033	61610.55	60664.85
819.4472	532.2519	61490.5	60544.35
819.5915	534.3999	61723.9	60777.9
819.7357	536.5472	61845.8	60902.5
819.88	538.694	61535.85	60595.55
820.0243	540.8401	61769.9	60818.6
820.1686	542.9856	61835.15	60874.35
820.3129	545.1305	61944.2	60973.05
820.4572	547.2748	61717.75	60748.6
820.6016	549.4185	61676.15	60704.65
820.7459	551.5615	61825.3	60858.25
820.8902	553.704	61732	60764.3
821.0346	555.8458	61578	60621.8
821.1789	557.987	61653.9	60696.1
821.3233	560.1276	61712	60751.75
821.4677	562.2675	61595.45	60635.8
821.6121	564.4069	61675.85	60707.05
821.7565	566.5456	61823.7	60862.35
821.9009	568.6837	61548.4	60589.6
822.0453	570.8212	61643	60686.3
822.1897	572.958	61210.55	60253.45
822.3342	575.0942	61451.25	60499.1
822.4786	577.2299	61201.25	60257.35
822.6231	579.3648	61141.65	60208.45
822.7675	581.4992	61092.2	60170.45
822.912	583.6329	61057.85	60135.75
823.0565	585.766	61083.2	60159.45
823.201	587.8985	61212.8	60276.1
823.3454	590.0304	60867.35	59896
823.4899	592.1616	61127.3	60168.5
823.6345	594.2922	60939.45	59984
823.779	596.4222	60734.5	59772.15
823.9235	598.5515	60745.15	59779.9
824.068	600.6802	60889.5	59926.7
824.2126	602.8083	60602.45	59641.8
824.3571	604.9358	60564.1	59605.6
824.5017	607.0626	60740.4	59775.4
824.6462	609.1888	60424.8	59453.15
824.7908	611.3144	60628.25	59652.25
824.9354	613.4393	60485.75	59513.15
825.08	615.5636	60366.45	59398.2
825.2246	617.6873	60461.9	59492.45
825.3692	619.8103	60234.05	59267.15
825.5138	621.9327	60474.25	59512.15
825.6584	624.0544	60462.2	59503.05
825.803	626.1756	60327.2	59367.95
825.9477	628.2961	60320.2	59355.35
826.0923	630.4159	60147.5	59182
826.237	632.5351	60125.45	59158.45
826.3816	634.6537	60466.2	59496.9
826.5263	636.7716	60101.1	59129.3
826.6709	638.8889	60162.8	59185.75
826.8156	641.0056	60161.2	59181.25
826.9603	643.1216	60220.65	59244.35
827.105	645.237	60291.25	59322.55
827.2497	647.3518	60067.05	59107.3
827.3944	649.4659	60078.9	59125.7
827.5391	651.5793	60085.7	59130.6
827.6838	653.6922	60148.75	59192.1
827.8285	655.8043	59892.9	58928.15
827.9733	657.9159	60209.45	59248.85
828.118	660.0268	59652.6	58688.4
828.2627	662.137	59908.3	58946.2
828.4075	664.2466	59958.7	58984.3
828.5522	666.3556	59843.55	58871
828.697	668.4639	59929.1	58962.65
828.8418	670.5716	59807.85	58852.15
828.9865	672.6786	59907.25	58939.7
829.1313	674.785	59680.6	58706.85
829.2761	676.8907	59712.1	58746.1
829.4209	678.9958	59811.25	58848
829.5657	681.1002	59856.3	58892.9
829.7105	683.204	59657	58678.1
829.8553	685.3072	59541.75	58567.35
830.0001	687.4097	59599.1	58621.25
830.1449	689.5115	59543.55	58565
830.2898	691.6127	59631.45	58660.05
830.4346	693.7132	59501.8	58538
830.5794	695.8131	59539.95	58553.55
830.7243	697.9123	59526.6	58548.35
830.8691	700.0109	59570.4	58593
831.014	702.1089	59364.6	58391.95
831.1588	704.2061	59421.7	58450.75
831.3037	706.3028	59438.85	58464.9
831.4486	708.3987	59426.95	58451.85
831.5935	710.4941	59371.85	58396.6
831.7383	712.5887	59459.35	58489.9
831.8832	714.6827	59442.4	58468.45
832.0281	716.7761	59589.4	58624.35
832.173	718.8688	59604.1	58636.5
832.3179	720.9608	59502.7	58522.55
832.4628	723.0522	59572.8	58589.9
832.6077	725.1429	59389.3	58408.95
832.7527	727.233	59673.35	58698.3
832.8976	729.3224	59204.6	58228.3
833.0425	731.4112	59254.95	58276.6
833.1874	733.4993	59254.95	58278.75
833.3324	735.5867	59166.05	58191.65
833.4773	737.6735	59058.7	58080.65
833.6222	739.7596	58933.6	57957.15
833.7672	741.845	58925.5	57949
833.9122	743.9298	58964.35	57988.4
834.0571	746.014	58835.8	57860.1
834.2021	748.0974	58725.1	57746.35
834.347	750.1802	58890.6	57910.6
834.492	752.2624	58628.6	57645.35
834.637	754.3439	58682.65	57701.6
834.782	756.4247	58727.05	57739.2
834.9269	758.5048	58598.2	57616.6
835.0719	760.5843	58653.85	57672.8
835.2169	762.6631	58720.75	57744.15
835.3619	764.7413	58751.7	57773.25
835.5069	766.8188	58851	57866.8
835.6519	768.8956	58932.4	57952
835.7969	770.9718	58997.85	58020.2
835.9419	773.0473	58888.65	57910.2
836.0869	775.1221	58727.15	57746.95
836.232	777.1962	58641.7	57662.1
836.377	779.2697	58488.3	57507.15
836.522	781.3426	58533.85	57539.6
836.667	783.4147	58554.8	57570.55
836.8121	785.4862	58542.15	57559.45
836.9571	787.557	58428.05	57446.55
837.1021	789.6271	58453.45	57467.35
837.2472	791.6966	58220.3	57235.05
837.3922	793.7654	57838.2	56856.4
837.5373	795.8335	57755.1	56773.05
837.6823	797.901	57750.9	56769.85
837.8274	799.9678	57554.65	56568.05
837.9724	802.0339	57438.3	56457.2
838.1175	804.0993	57475.15	56481.2
838.2626	806.1641	57299.55	56314.25
838.4076	808.2282	57183.9	56201.45
838.5527	810.2916	57099.1	56117.45
838.6978	812.3544	57279.8	56295.95
838.8428	814.4164	56814.75	55838.25
838.9879	816.4778	56901.8	55917.85
839.133	818.5385	56928.4	55942.9
839.2781	820.5986	56929.35	55938.65
839.4232	822.658	57059.7	56074.1
839.5682	824.7166	57100.4	56119.25
839.7133	826.7747	56914.55	55928.65
839.8584	828.832	57131.95	56142.6
840.0035	830.8886	57286.2	56297.85
840.1486	832.9446	57378.3	56390.7
840.2937	834.9999	56658.35	55675.95
840.4388	837.0545	56957.8	55967
840.5839	839.1085	57101.9	56118.25
840.729	841.1618	56851.6	55861.95
840.8741	843.2143	56349	55363.7
841.0192	845.2662	56230.9	55245.65
841.1643	847.3175	56377.15	55395.35
841.3095	849.368	55682.25	54697.9
841.4546	851.4179	56123.6	55135.95
841.5997	853.467	55647.8	54663.95
841.7448	855.5155	55852.1	54866.9
841.8899	857.5633	55418.85	54431.15
842.0351	859.6105	55194.7	54210.85
842.1802	861.6569	55411.05	54423.85
842.3253	863.7027	54874.15	53885.05
842.4704	865.7478	55078.95	54096.5
842.6156	867.7922	54913.3	53923.75
842.7607	869.8359	55165.7	54176.9
842.9058	871.8789	54566.75	53583.4
843.0509	873.9212	54965.05	53945.8
843.1961	875.9629	54997.7	54008.4
843.3412	878.0039	54930.45	53942.3
843.4863	880.0441	54733.3	53748.4
843.6315	882.0837	54822.55	53838.75
843.7766	884.1226	54773.35	53785.15
843.9218	886.1609	54690.95	53706
844.0669	888.1984	54461.95	53472.7
844.212	890.2352	54874.3	53886.5
844.3572	892.2714	54270.05	53278.95
844.5023	894.3069	54532.3	53547.65
844.6475	896.3416	54114	53126.45
844.7926	898.3757	54000.25	53010.15
844.9377	900.4091	53373.3	52386.85
845.0829	902.4418	54166.25	53169.25
845.228	904.4739	53656.35	52664.05
845.3732	906.5052	53732.6	52743.7
845.5183	908.5358	53457.25	52469.5
845.6635	910.5658	53194.85	52206.2
845.8086	912.595	53076.15	52086.15
845.9538	914.6236	52343.65	51357.1
846.0989	916.6515	53231.85	52240.3
846.2441	918.6786	52231.55	51240.15
846.3892	920.7051	52473.05	51480.25
846.5344	922.7309	52364.5	51375.45
846.6795	924.756	52479	51492.75
846.8246	926.7804	52170.65	51180.2
846.9698	928.8041	51619.1	50632.55
847.1149	930.8272	51978.05	50989.35
847.2601	932.8495	51922.6	50932.2
847.4052	934.8711	51451.05	50463.7
847.5504	936.892	51135.3	50145.75
847.6955	938.9123	51266.6	50278.4
847.8407	940.9318	50927.8	49936.85
847.9858	942.9506	50831.75	49847.05
848.131	944.9688	50832.35	49845.9
848.2761	946.9862	50218.85	49236
848.4213	949.003	50327	49339.75
848.5664	951.019	49724.5	48735.75
848.7115	953.0344	49765.6	48774.65
848.8567	955.0491	49696	48707.4
849.0018	957.063	49881.25	48894.3
849.147	959.0763	49980.15	48985.7
849.2921	961.0888	49615.45	48627.1
849.4373	963.1007	49844.6	48860.25
849.5824	965.1119	49769.7	48796.05
849.7275	967.1223	49482.95	48514.35
849.8727	969.1321	49730.55	48763.85
850.0178	971.1412	49325.85	48348.65
850.1629	973.1495	49141.05	48157.65
850.3081	975.1572	49285	48257.55
850.4532	977.1641	49122.55	48135.45
850.5983	979.1704	48924.85	47937.25
850.7435	981.1759	48897.7	47908.5
850.8886	983.1808	48774	47787.6
851.0337	985.1849	48712.9	47715.7
851.1788	987.1884	48731.15	47743.05
851.324	989.1911	48966.75	47981.05
851.4691	991.1932	48486.85	47502.85
851.6142	993.1945	48537.6	47552.8
851.7593	995.1951	48476.2	47489.75
851.9045	997.1951	48180.7	47189.6
852.0496	999.1943	47976.1	46990.25
852.1947	1001.1928	47865.45	46883
852.3398	1003.1906	47809.35	46825.1
852.4849	1005.1877	47489.45	46501.5
852.63	1007.1841	47328.05	46345.7
852.7751	1009.1798	47296.5	46313.15
852.9202	1011.1748	47060.2	46076.95
853.0653	1013.1691	46832.35	45848.75
853.2104	1015.1627	46288.15	45307
853.3555	1017.1556	45991.45	45011.3
853.5006	1019.1477	45953.15	44972.3
853.6457	1021.1392	45566.75	44591.7
853.7908	1023.1299	45271.3	44303.25
853.9359	1025.12	45272.55	44307.2
854.081	1027.1093	45072.4	44121.45
854.2261	1029.0979	45015.5	44069.95
854.3712	1031.0859	44961	44007.25
854.5163	1033.0731	44713.25	43746.35
854.6613	1035.0596	44617.9	43645.65
854.8064	1037.0454	44344.85	43371.3
854.9515	1039.0304	44092.9	43113.4
855.0965	1041.0148	43841	42866.25
855.2416	1042.9985	43686.35	42707.85
855.3867	1044.9814	43608.05	42630.8
855.5317	1046.9636	43371.2	42392.9
855.6768	1048.9452	43207.05	42227.3
855.8219	1050.926	43158.35	42180.85
855.9669	1052.9061	43046	42069.35
856.112	1054.8855	43003.4	42025.5
856.257	1056.8642	42898.6	41920.65
856.4021	1058.8421	42894.9	41908
856.5471	1060.8194	42767.85	41789.45
856.6921	1062.7959	42692.05	41712.95
856.8372	1064.7717	42638.9	41658.7
856.9822	1066.7469	42586.4	41605.95
857.1272	1068.7213	42510.75	41528.25
857.2723	1070.695	42448.45	41466.45
857.4173	1072.6679	42231.8	41251.9
857.5623	1074.6402	42133.5	41156.5
857.7073	1076.6117	42088.95	41100.55
857.8523	1078.5826	42031	41054.25
857.9973	1080.5527	41804	40820.95
858.1423	1082.5221	41740.75	40762.8
858.2873	1084.4908	41760.85	40784.05
858.4323	1086.4587	41731.4	40753.95
858.5773	1088.426	41739.15	40757.9
858.7223	1090.3925	41523.7	40542.7
858.8673	1092.3584	41537.3	40557.55
859.0123	1094.3235	41212.35	40236.95
859.1573	1096.2879	41094.65	40116.3
859.3022	1098.2515	41104.1	40126.75
859.4472	1100.2145	41132.35	40156.55
859.5922	1102.1767	41056.95	40078.55
859.7371	1104.1382	41172.35	40197.55
859.8821	1106.099	41206.1	40227.7
860.027	1108.0591	41250.3	40274.1
860.172	1110.0185	41284.85	40303.7
860.3169	1111.9771	41348.25	40372.95
860.4619	1113.9351	41024.7	40047.75
860.6068	1115.8923	40708.35	39729.6
860.7517	1117.8488	40416.2	39441
860.8967	1119.8045	40030.7	39054.05
861.0416	1121.7596	39888.05	38913.1
861.1865	1123.7139	39715.2	38745.3
861.3314	1125.6675	39598.55	38620.95
861.4763	1127.6204	39649.35	38677.8
861.6212	1129.5726	39488.8	38515.05
861.7661	1131.524	39421.85	38446.2
861.911	1133.4748	39317.25	38342.95
862.0559	1135.4248	39074.75	38097.05
862.2008	1137.3741	38996.45	38022
862.3457	1139.3226	38735.35	37759
862.4905	1141.2705	38758.75	37781.95
862.6354	1143.2176	38418.65	37436.7
862.7803	1145.164	38445.15	37463.8
862.9251	1147.1097	38292.35	37316.3
863.07	1149.0546	38201.1	37222.25
863.2148	1150.9989	38113.35	37141.15
863.3597	1152.9424	37964.15	36990.25
863.5045	1154.8852	37791	36813.45
863.6493	1156.8272	37698.95	36722.35
863.7942	1158.7686	37673.25	36692.65
863.939	1160.7092	37481.75	36503.55
864.0838	1162.6491	37325.2	36350.25
864.2286	1164.5883	37403.25	36429.6
864.3734	1166.5267	37340.4	36363.5
864.5182	1168.4644	37452.95	36477.95
864.663	1170.4014	37494.4	36517.85
864.8078	1172.3377	37653.8	36683.15
864.9526	1174.2732	37793.6	36819.45
865.0974	1176.2081	38063.35	37091.35
865.2421	1178.1421	38211.6	37232.45
865.3869	1180.0755	38478.15	37506.3
865.5317	1182.0082	38486.5	37519.65
865.6764	1183.9401	38516.05	37544.8
865.8212	1185.8713	38301.45	37337.65
865.9659	1187.8017	38009.25	37055.75
866.1106	1189.7315	37693.9	36748.8
866.2554	1191.6605	37239.05	36292.15
866.4001	1193.5888	36905.65	35951.2
866.5448	1195.5163	36756.8	35793.5
866.6895	1197.4432	36654.65	35686.25
866.8342	1199.3693	36509.25	35538.85
866.9789	1201.2947	36320.85	35350.35
867.1236	1203.2193	36134.3	35162.9
867.2683	1205.1432	36190.65	35221.2
867.413	1207.0664	36078.75	35110.55
867.5576	1208.9889	35979.4	35007.85
867.7023	1210.9106	35856.5	34886.85
867.847	1212.8316	35726.1	34757.45
867.9916	1214.7519	35706.9	34730.05
868.1363	1216.6715	35619.7	34650.9
868.2809	1218.5903	35595.35	34625.5
868.4255	1220.5084	35524.2	34554.7
868.5701	1222.4257	35529.05	34562.55
868.7148	1224.3424	35304.8	34339.1
868.8594	1226.2583	35333.55	34365.4
869.004	1228.1735	35367.7	34398.6
869.1486	1230.0879	35272.4	34302.85
869.2932	1232.0016	35328.15	34361.5
869.4377	1233.9146	35287.75	34314.6
869.5823	1235.8269	35106.7	34138.15
869.7269	1237.7384	35036.25	34066.9
869.8715	1239.6492	34757.95	33791.85
870.016	1241.5592	34669	33702.25
870.1606	1243.4686	34568.55	33603.6
870.3051	1245.3772	34535.2	33564.95
870.4496	1247.285	34436.65	33469.3
870.5941	1249.1922	34431.4	33464.8
870.7387	1251.0986	34388.75	33422.45
870.8832	1253.0042	34277.2	33313.45
871.0277	1254.9092	34231.2	33267.9
871.1722	1256.8134	34255.5	33294.65
871.3167	1258.7169	34368.25	33402.6
871.4611	1260.6196	34377.25	33412.9
871.6056	1262.5216	34560.1	33593.15
871.7501	1264.4229	34600.3	33634.35
871.8945	1266.3234	34714.25	33746.25
872.039	1268.2232	34694.8	33730
872.1834	1270.1223	34663.1	33693.4
872.3278	1272.0207	34611.25	33645.2
872.4723	1273.9183	34520.45	33547.45
872.6167	1275.8151	34364.95	33402.55
872.7611	1277.7113	34273.65	33305.7
872.9055	1279.6067	34154.05	33190.35
873.0499	1281.5014	34084.05	33115.6
873.1943	1283.3953	34125.85	33157.9
873.3386	1285.2885	34286.95	33325.8
873.483	1287.181	34366.6	33402.15
873.6274	1289.0727	34620.9	33662.45
873.7717	1290.9637	34694.95	33729.55
873.9161	1292.854	34804.35	33838.65
874.0604	1294.7435	34724.3	33762.6
874.2047	1296.6323	34750.95	33789.35
874.349	1298.5204	34730.3	33762.95
874.4933	1300.4077	34691.65	33721.55
874.6376	1302.2943	34596.3	33632.45
874.7819	1304.1802	34486	33522.3
874.9262	1306.0653	34168	33203.15
875.0705	1307.9497	33873.2	32911.25
875.2147	1309.8333	33648.8	32685.3
875.359	1311.7162	33427.6	32463.45
875.5032	1313.5984	33371.2	32405.95
875.6475	1315.4798	33284.3	32310.6
875.7917	1317.3605	33177.1	32197.15
875.9359	1319.2405	33186.75	32221
876.0801	1321.1197	33021.75	32054.55
876.2243	1322.9982	32797.75	31828.75
876.3685	1324.876	32682.15	31714.9
876.5127	1326.753	32442.15	31482
876.6569	1328.6293	32379.25	31413.15
876.801	1330.5048	32304.95	31343.15
876.9452	1332.3796	32150	31184.1
877.0893	1334.2537	32078.25	31087.95
877.2335	1336.127	31934.5	30972.8
877.3776	1337.9996	31895.35	30928.35
877.5217	1339.8714	31818.15	30856.3
877.6658	1341.7426	31754.55	30746.65
877.8099	1343.6129	31681.05	30713.25
877.954	1345.4826	31611.6	30646.05
878.0981	1347.3515	31629	30660.6
878.2422	1349.2196	31511.3	30549.05
878.3862	1351.087	31485.15	30523.3
878.5303	1352.9537	31495.1	30527.25
878.6743	1354.8197	31551.75	30587.1
878.8184	1356.6849	31675.2	30709.55
878.9624	1358.5493	31717.25	30754
879.1064	1360.4131	31731.75	30767
879.2504	1362.276	31718	30757.1
879.3944	1364.1383	31561.4	30600.55
879.5384	1365.9998	31343.25	30372.4
879.6823	1367.8606	30962.45	29997.55
879.8263	1369.7206	30663.85	29700.3
879.9702	1371.5799	30355.7	29389.25
880.1142	1373.4384	30102.3	29140
880.2581	1375.2962	29878.85	28915.9
880.402	1377.1533	29552.65	28593.7
880.5459	1379.0096	29180.6	28225
880.6898	1380.8652	28831.55	27875.6
880.8337	1382.7201	28589.35	27633.1
880.9776	1384.5742	28269.85	27310.55
881.1215	1386.4275	28039.6	27078.25
881.2653	1388.2802	27874.9	26915.5
881.4092	1390.132	27702.8	26743.7
881.553	1391.9832	27651.35	26687.6
881.6968	1393.8336	27407.6	26445.8
881.8406	1395.6832	27268.55	26305.7
881.9844	1397.5322	27187.1	26227.45
882.1282	1399.3803	27085.35	26118.7
882.272	1401.2278	26963.45	26004.25
882.4158	1403.0745	26898.25	25939.6
882.5595	1404.9204	26770.15	25813.25
882.7033	1406.7656	26753.55	25796.1
882.847	1408.6101	26675.7	25718.9
882.9908	1410.4538	26578.85	25622.35
883.1345	1412.2968	26581.3	25621.6
883.2782	1414.139	26504.25	25544.25
883.4219	1415.9805	26552.9	25594.55
883.5656	1417.8213	26525.25	25544.65
883.7092	1419.6613	26499.35	25541.95
883.8529	1421.5006	26609.15	25653
883.9965	1423.3391	26782.6	25829.3
884.1402	1425.1769	26925.3	25967.85
884.2838	1427.0139	27234.55	26275.7
884.4274	1428.8502	27683.25	26725.75
884.571	1430.6858	28025.7	27070.65
884.7146	1432.5206	28239.9	27280.05
884.8582	1434.3547	28444.3	27481.85
885.0018	1436.188	28395.15	27436.8
885.1453	1438.0206	28269.75	27316.25
885.2889	1439.8524	28064.1	27109.35
885.4324	1441.6835	28021.45	27063.95
885.5759	1443.5139	27803.1	26844.7
885.7194	1445.3435	27656.2	26699.65
885.8629	1447.1724	27632.3	26679.3
886.0064	1449.0005	27578.85	26625.9
886.1499	1450.8279	27440.35	26484.05
886.2933	1452.6545	27370.15	26414.55
886.4368	1454.4804	27373.85	26423.9
886.5802	1456.3056	27328.5	26367.05
886.7237	1458.13	27234.1	26285.65
886.8671	1459.9536	27050.4	26094.9
887.0105	1461.7766	26767.65	25813.85
887.1539	1463.5987	26403.05	25449.05
887.2972	1465.4202	26089.15	25132.75
887.4406	1467.2409	25723.05	24766.75
887.584	1469.0608	25533.95	24578.25
887.7273	1470.88	25292.55	24338.6
887.8706	1472.6984	25008.1	24052.1
888.0139	1474.5161	24750	23793.25
888.1572	1476.3331	24575.9	23624.25
888.3005	1478.1493	24498.5	23541.65
888.4438	1479.9648	24362.6	23408.4
888.5871	1481.7795	24241.9	23289.25
888.7303	1483.5935	24186.3	23234.15
888.8736	1485.4067	24082.15	23130.4
889.0168	1487.2192	23990.8	23036.25
889.16	1489.031	23947.35	22991.75
889.3032	1490.842	23877.5	22923.45
889.4464	1492.6522	23815.65	22858.25
889.5896	1494.4618	23698.1	22748.5
889.7327	1496.2705	23663.45	22710.7
889.8759	1498.0785	23645.9	22693.5
890.019	1499.8858	23561.8	22608.8
890.1622	1501.6924	23471.75	22516.9
890.3053	1503.4981	23425.7	22472.05
890.4484	1505.3032	23353.05	22401.2
890.5914	1507.1075	23291.8	22337.3
890.7345	1508.911	23244.6	22290.15
890.8776	1510.7138	23156.05	22200.2
891.0206	1512.5159	23055.85	22103.75
891.1637	1514.3172	23004.55	22054.25
891.3067	1516.1178	22866.75	21916.85
891.4497	1517.9176	22844.25	21889.15
891.5927	1519.7166	22772.5	21822.85
891.7357	1521.515	22675.55	21720.6
891.8786	1523.3126	22592.1	21643.7
892.0216	1525.1094	22535.45	21585.1
892.1645	1526.9055	22477.85	21529.25
892.3074	1528.7008	22358.55	21407.95
892.4503	1530.4954	22234.4	21280.6
892.5932	1532.2893	22235.35	21289.15
892.7361	1534.0824	22079.75	21130
892.879	1535.8747	22061.75	21120.25
893.0218	1537.6663	21988.75	21045.2
893.1647	1539.4572	21935.45	20991.45
893.3075	1541.2473	21894.45	20948.45
893.4503	1543.0367	21809.1	20866.55
893.5931	1544.8253	21736.85	20786.8
893.7359	1546.6132	21740.95	20792.05
893.8787	1548.4003	21636.4	20681.6
894.0214	1550.1867	21660.5	20710.25
894.1642	1551.9723	21662.7	20715.2
894.3069	1553.7572	21682.2	20741
894.4496	1555.5414	21651.2	20710.75
894.5923	1557.3247	21664.2	20724.95
894.735	1559.1074	21703.8	20769.05
894.8777	1560.8893	21747.65	20813.4
895.0204	1562.6705	21778.9	20842.8
895.163	1564.4509	21837.75	20904.2
895.3056	1566.2305	21810.1	20881.45
895.4482	1568.0094	21880.35	20948.65
895.5908	1569.7876	21867.2	20935.85
895.7334	1571.565	21814.3	20876.7
895.876	1573.3417	21796	20863.4
896.0186	1575.1176	21745.25	20807.8
896.1611	1576.8928	21691.8	20763
896.3036	1578.6672	21557.95	20632.8
896.4461	1580.4409	21500.3	20578.25
896.5886	1582.2138	21394.6	20466.25
896.7311	1583.986	21308.8	20380.3
896.8736	1585.7575	21279.35	20347.6
897.0161	1587.5282	21239.5	20313.6
897.1585	1589.2981	21220.6	20297.6
897.3009	1591.0673	21169	20247.6
897.4433	1592.8358	21181.55	20257.4
897.5857	1594.6035	21182.5	20252.5
897.7281	1596.3704	21151.1	20222.15
897.8705	1598.1366	21123.5	20190.55
898.0128	1599.9021	21191.5	20267.25
898.1551	1601.6668	21148.7	20218.6
898.2975	1603.4308	21176.15	20247.1
898.4398	1605.194	21237.4	20307.9
898.5821	1606.9564	21310.6	20391.9
898.7243	1608.7182	21438.55	20523.1
898.8666	1610.4791	21588.35	20679.2
899.0088	1612.2394	21680	20771.15
899.1511	1613.9988	21858.65	20946.95
899.2933	1615.7576	22044.25	21123.75
899.4355	1617.5156	22169.85	21236.65
899.5776	1619.2728	22287.85	21357
899.7198	1621.0293	22284.7	21357.65
899.862	1622.785	22182.75	21262.3
900.0041	1624.54	21955.15	21035.6
900.1462	1626.2942	21762.25	20844.65
900.2883	1628.0477	21430.5	20512
900.4304	1629.8005	21151.15	20229.25
900.5725	1631.5525	20920	20001.2
900.7145	1633.3037	20667.75	19747.5
900.8566	1635.0542	20558	19639.85
900.9986	1636.804	20397.75	19481.95
901.1406	1638.553	20335.35	19364.55
901.2826	1640.3013	20207.15	19285.75
901.4245	1642.0488	20105.25	19184.85
901.5665	1643.7955	20131.2	19215.8
901.7085	1645.5416	20081.6	19166.45
901.8504	1647.2868	20198.5	19280.45
901.9923	1649.0313	20231.6	19313.3
902.1342	1650.7751	20318	19394.1
902.2761	1652.5181	20415.75	19499.1
902.4179	1654.2604	20473.7	19555.15
902.5598	1656.0019	20633.85	19717.75
902.7016	1657.7427	20820.65	19900.9
902.8434	1659.4828	21048.95	20127.85
902.9852	1661.222	21150.05	20226.65
903.127	1662.9606	21086.75	20166.55
903.2687	1664.6984	20915.1	19991.75
903.4105	1666.4354	20529.8	19600.3
903.5522	1668.1717	20100.6	19173.05
903.6939	1669.9072	19534.25	18607.05
903.8356	1671.642	19169.7	18240.15
903.9773	1673.3761	18846.75	17921.9
904.119	1675.1094	18534.35	17615.1
904.2606	1676.8419	18328.15	17406.2
904.4022	1678.5737	18126.75	17204.15
904.5439	1680.3048	17970.05	17047.6
904.6855	1682.0351	17821.7	16895.9
904.827	1683.7646	17673.45	16749.5
904.9686	1685.4934	17562.5	16638.6
905.1101	1687.2215	17470.2	16550.3
905.2517	1688.9488	17344.1	16422.05
905.3932	1690.6754	17269.05	16349.95
905.5347	1692.4012	17219.8	16297.85
905.6761	1694.1263	17126.35	16206.05
905.8176	1695.8506	17048	16127
905.9591	1697.5742	17011.6	16094.1
906.1005	1699.297	16942.8	16027.25
906.2419	1701.0191	16862.9	15950.7
906.3833	1702.7404	16795.75	15883
906.5246	1704.461	16715.05	15796.15
906.666	1706.1808	16599.7	15681.9
906.8073	1707.8999	16571.7	15655.7
906.9487	1709.6182	16488.05	15580.25
907.09	1711.3358	16454	15544.25
907.2313	1713.0527	16390.15	15483.1
907.3725	1714.7688	16310.55	15393.55
907.5138	1716.4841	16252.55	15338.3
907.655	1718.1987	16244.45	15324.9
907.7962	1719.9126	16144.45	15232.65
907.9374	1721.6257	16087.95	15178.6
908.0786	1723.338	16072.85	15165
908.2198	1725.0496	15995.25	15081.45
908.3609	1726.7605	15964.9	15050.15
908.502	1728.4706	15892.6	14983.1
908.6431	1730.18	15814.25	14902.15
908.7842	1731.8886	15761.5	14853.9
908.9253	1733.5964	15755.3	14825.65
909.0664	1735.3036	15727.4	14815
909.2074	1737.0099	15696.25	14789.1
909.3484	1738.7156	15639.8	14729.25
909.4894	1740.4204	15550.95	14639.65
909.6304	1742.1246	15529.85	14618.1
909.7714	1743.8279	15474.85	14564.8
909.9123	1745.5306	15449	14542.5
910.0532	1747.2325	15387.45	14481.15
910.1941	1748.9336	15344.35	14435.75
910.335	1750.634	15255.7	14339.6
910.4759	1752.3336	15240.1	14331.9
910.6168	1754.0325	15201.1	14298.15
910.7576	1755.7307	15182.25	14277.25
910.8984	1757.4281	15184.85	14276.75
911.0392	1759.1247	15150.45	14231.25
911.18	1760.8206	15092.1	14173.4
911.3208	1762.5158	15066.3	14147.9
911.4615	1764.2102	15026.75	14111.5
911.6022	1765.9039	14966.7	14058.2
911.7429	1767.5968	14943.65	14037.9
911.8836	1769.289	14891	13985.6
912.0243	1770.9804	14829.95	13919.85
912.1649	1772.6711	14828.35	13915.5
912.3056	1774.361	14793.25	13879.6
912.4462	1776.0502	14792.8	13880.85
912.5868	1777.7386	14723.45	13810.8
912.7274	1779.4263	14685.15	13776.5
912.8679	1781.1132	14665.45	13761.45
913.0084	1782.7994	14619.1	13713.5
913.149	1784.4849	14590.8	13690.35
913.2895	1786.1696	14552.35	13642.25
913.4299	1787.8535	14530.1	13629
913.5704	1789.5367	14480.05	13578.95
913.7108	1791.2192	14457.8	13555.35
913.8513	1792.9009	14410.4	13478.75
913.9917	1794.5818	14389.05	13475.9
914.132	1796.2621	14354.35	13442.2
914.2724	1797.9415	14314.2	13403.95
914.4128	1799.6202	14274.45	13362.2
914.5531	1801.2982	14254.4	13343.1
914.6934	1802.9755	14187.55	13276.9
914.8337	1804.6519	14197.5	13290.85
914.9739	1806.3277	14105.85	13199.9
915.1142	1808.0027	14052.3	13150
915.2544	1809.6769	14034.8	13133.8
915.3946	1811.3504	13987.3	13083.2
915.5348	1813.0231	14003.65	13103.25
915.675	1814.6951	13978.65	13074.6
915.8151	1816.3664	13991.7	13082.5
915.9553	1818.0369	13956.2	13049.85
916.0954	1819.7067	13896.55	12990.35
916.2355	1821.3757	13881.95	12971.35
916.3755	1823.044	13830.45	12920.45
916.5156	1824.7115	13831.15	12921.2
916.6556	1826.3783	13765.75	12858.95
916.7956	1828.0443	13733.05	12827
916.9356	1829.7096	13674.8	12767.65
917.0756	1831.3741	13682.15	12771.35
917.2155	1833.0379	13625.3	12720.35
917.3555	1834.701	13598.6	12697.35
917.4954	1836.3633	13549.2	12649.45
917.6353	1838.0248	13549.75	12645.7
917.7751	1839.6856	13531.2	12625.55
917.915	1841.3457	13490.15	12584.05
918.0548	1843.005	13459.9	12555.8
918.1946	1844.6636	13448.95	12543.25
918.3344	1846.3214	13436.25	12530.6
918.4742	1847.9785	13423.85	12518.95
918.6139	1849.6349	13381.4	12472.1
918.7537	1851.2904	13381.1	12462.9
918.8934	1852.9453	13338.85	12428.95
919.0331	1854.5994	13278.25	12366.55
919.1727	1856.2528	13295.9	12382
919.3124	1857.9054	13250.05	12343.35
919.452	1859.5572	13206.75	12302.55
919.5916	1861.2083	13203.15	12295.6
919.7312	1862.8587	13206.95	12298.35
919.8708	1864.5084	13167.05	12256.6
920.0103	1866.1572	13098.15	12186.55
920.1498	1867.8054	13069.7	12160.7
920.2893	1869.4528	13016.8	12104.5
920.4288	1871.0994	12990.05	12078.1
920.5683	1872.7453	13003.5	12095.15
920.7077	1874.3905	12972.45	12056.75
920.8471	1876.0349	12911.1	12004
920.9865	1877.6786	12892.95	11983.05
921.1259	1879.3215	12887.95	11980.35
921.2653	1880.9637	12861.85	11952.5
921.4046	1882.6051	12841.65	11936.95
921.5439	1884.2458	12818.25	11911.7
921.6832	1885.8858	12767.65	11860.9
921.8225	1887.525	12741.65	11834.45
921.9617	1889.1634	12677.1	11768.45
922.101	1890.8011	12637.9	11726.3
922.2402	1892.4381	12611.4	11702.5
922.3794	1894.0743	12625.65	11716.1
922.5185	1895.7098	12550.75	11644.25
922.6577	1897.3446	12544.3	11635.8
922.7968	1898.9786	12517.15	11605.75
922.9359	1900.6118	12525.05	11619.85
923.075	1902.2443	12457.55	11548.9
923.214	1903.8761	12439.6	11532.4
923.3531	1905.5071	12373.6	11465.65
923.4921	1907.1374	12344.6	11438.2
923.6311	1908.7669	12315.5	11408.1
923.77	1910.3957	12286.85	11381.9
923.909	1912.0237	12204.1	11297.95
924.0479	1913.651	12197.5	11288.65
924.1868	1915.2776	12155.1	11248.6
924.3257	1916.9034	12113.8	11211.15
924.4646	1918.5285	12057.6	11151.7
924.6034	1920.1528	12006.1	11103.2
924.7422	1921.7764	11995.4	11090.3
924.881	1923.3992	11968.8	11062.45
925.0198	1925.0213	11866.35	10959.9
925.1586	1926.6427	11848.95	10942.4
925.2973	1928.2633	11868.15	10890.75
925.436	1929.8832	11807.5	10902.15
925.5747	1931.5023	11743.8	10836.9
925.7134	1933.1207	11707.95	10803.5
925.852	1934.7383	11691.95	10786.75
925.9906	1936.3552	11651	10747.35
926.1292	1937.9714	11648.2	10745.1
926.2678	1939.5868	11574.45	10667.8
926.4064	1941.2015	11528.9	10619.75
926.5449	1942.8154	11487.9	10581
926.6834	1944.4286	11458.25	10551.95
926.8219	1946.041	11422.85	10495.35
926.9604	1947.6528	11369.95	10459.2
927.0988	1949.2637	11320.9	10418.75
927.2372	1950.8739	11280.8	10375.85
927.3756	1952.4834	11304.55	10398.8
927.514	1954.0921	11274.75	10370.75
927.6523	1955.7001	11217.45	10309.5
927.7907	1957.3074	11190.5	10290.45
927.929	1958.9139	11158.3	10261.25
928.0673	1960.5197	11126.8	10226.2
928.2055	1962.1247	11069.45	10166.8
928.3438	1963.729	11004.2	10102.7
928.482	1965.3325	10995.4	10074.65
928.6202	1966.9353	10931.8	10032.95
928.7584	1968.5374	10932.75	10034.95
928.8965	1970.1387	10889.35	9990.15
929.0346	1971.7393	10862.1	9962.2
929.1727	1973.3392	10828	9930.35
929.3108	1974.9383	10757.8	9861.05
929.4489	1976.5366	10724.55	9827.55
929.5869	1978.1342	10739.4	9841.15
929.7249	1979.7311	10697.5	9800.5
929.8629	1981.3273	10635.55	9740.6
930.0009	1982.9227	10628.8	9732.5
930.1388	1984.5173	10590.75	9695.75
930.2767	1986.1112	10553.5	9659.1
930.4146	1987.7044	10554.6	9660.25
930.5525	1989.2968	10508.05	9611.3
930.6904	1990.8885	10463.8	9565.9
930.8282	1992.4795	10442.55	9549.25
930.966	1994.0697	10406.5	9515.1
931.1038	1995.6592	10401.95	9508.4
931.2415	1997.2479	10380.05	9484.6
931.3793	1998.8359	10330.95	9437.5
931.517	2000.4232	10284	9396.85
931.6547	2002.0097	10256.15	9369.8
931.7923	2003.5955	10188.65	9299.7
931.93	2005.1805	10221.05	9328.2
932.0676	2006.7648	10195.2	9303.2
932.2052	2008.3484	10167.3	9277.65
932.3427	2009.9312	10155.25	9267.7
932.4803	2011.5133	10117.6	9231.1
932.6178	2013.0946	10076	9188.95
932.7553	2014.6752	10084.85	9196.45
932.8928	2016.2551	10051.4	9158.9
933.0302	2017.8342	10000.35	9105.55
933.1676	2019.4126	9938.85	9050.1
933.305	2020.9902	9940.15	9055.75
933.4424	2022.5672	9907.1	9019.15
933.5798	2024.1433	9897.25	9004.55
933.7171	2025.7188	9847.05	8962.7
933.8544	2027.2935	9822.35	8936
933.9917	2028.8674	9792.2	8905.95
934.129	2030.4406	9756.45	8873
934.2662	2032.0131	9746.45	8863.5
934.4034	2033.5849	9716.55	8826.65
934.5406	2035.1559	9705.65	8822.9
934.6778	2036.7261	9672.45	8784
934.8149	2038.2957	9651.85	8760.8
934.952	2039.8645	9627.15	8734.55
935.0891	2041.4325	9632	8738.2
935.2262	2042.9998	9596.3	8707.15
935.3632	2044.5664	9563.9	8674.75
935.5002	2046.1323	9528.15	8641.25
935.6372	2047.6974	9496.6	8610.05
935.7742	2049.2617	9471.95	8587
935.9111	2050.8254	9478.35	8567.45
936.048	2052.3883	9461.9	8570.3
936.1849	2053.9504	9409.45	8517.75
936.3218	2055.5118	9373	8478.25
936.4586	2057.0725	9351.7	8458.35
936.5955	2058.6325	9321.35	8432.8
936.7323	2060.1917	9302	8415.8
936.869	2061.7502	9270.9	8381.85
937.0058	2063.3079	9264.05	8381.6
937.1425	2064.8649	9216.3	8326.95
937.2792	2066.4212	9197.55	8308.45
937.4159	2067.9767	9185.9	8294.85
937.5525	2069.5315	9144.95	8256.75
937.6891	2071.0856	9097.7	8208.5
937.8257	2072.6389	9072.05	8184.4
937.9623	2074.1915	9035.05	8150.55
938.0989	2075.7433	9006.15	8116
938.2354	2077.2945	8971.05	8083.8
938.3719	2078.8448	8974.2	8083.5
938.5084	2080.3945	8937.9	8045.6
938.6448	2081.9434	8913.1	8022.25
938.7812	2083.4916	8884.3	7990
938.9176	2085.039	8886	7987.45
939.054	2086.5857	8868.8	7969.3
939.1903	2088.1317	8862	7965.45
939.3267	2089.677	8833.95	7932.75
939.463	2091.2215	8792.35	7892.5
939.5992	2092.7652	8765.75	7867.95
939.7355	2094.3083	8727.45	7827.65
939.8717	2095.8506	8728	7835.7
940.0079	2097.3921	8722.8	7831.4
940.1441	2098.933	8697.05	7804.65
940.2802	2100.4731	8674.65	7782.15
940.4163	2102.0124	8683.15	7780.75
940.5524	2103.5511	8645.35	7750.75
940.6885	2105.089	8629.8	7735.7
940.8245	2106.6261	8598.75	7704.25
940.9606	2108.1626	8575.1	7682.2
941.0965	2109.6983	8569.85	7648.35
941.2325	2111.2332	8527.45	7632.9
941.3684	2112.7675	8502.25	7606.85
941.5044	2114.301	8485.75	7586.55
941.6403	2115.8337	8487.7	7594.65
941.7761	2117.3657	8467.55	7571.6
941.912	2118.897	8452.85	7557.7
942.0478	2120.4276	8419.3	7518.15
942.1835	2121.9575	8404	7507.4
942.3193	2123.4866	8361.9	7465.4
942.455	2125.0149	8364.75	7468.85
942.5907	2126.5426	8326	7434.5
942.7264	2128.0695	8286	7395.7
942.8621	2129.5956	8286.2	7400.5
942.9977	2131.1211	8272.35	7378.6
943.1333	2132.6458	8240.5	7347.85
943.2689	2134.1698	8232.05	7336.4
943.4044	2135.693	8202	7300.6
943.54	2137.2155	8196.6	7297.95
943.6755	2138.7373	8176.8	7283.75
943.8109	2140.2584	8124.35	7235.55
943.9464	2141.7787	8104.8	7212.5
944.0818	2143.2983	8083.55	7197.45
944.2172	2144.8171	8028.65	7145.4
944.3526	2146.3353	8027.3	7135.75
944.4879	2147.8527	8003.6	7114.9
944.6232	2149.3693	8017.6	7120.1
944.7585	2150.8853	7977.1	7079.65
944.8938	2152.4005	7931.35	7035.15
945.029	2153.9149	7943.85	7046.6
945.1642	2155.4287	7983.15	6987.4
945.2994	2156.9417	7913.85	7018.2
945.4346	2158.454	7869.5	6976.8
945.5697	2159.9655	7850.1	6961.65
945.7048	2161.4764	7822.15	6932.85
945.8399	2162.9865	7781.6	6891.5
945.9749	2164.4958	7773.45	6882.25
946.1099	2166.0045	7770.3	6877.7
946.2449	2167.5124	7760.55	6868.55
946.3799	2169.0195	7718.8	6825.4
946.5148	2170.526	7720.25	6823
946.6498	2172.0317	7694.2	6800.35
946.7846	2173.5367	7676.1	6782.4
946.9195	2175.0409	7672.4	6779.3
947.0543	2176.5445	7639.7	6743.7
947.1891	2178.0473	7633.45	6737.2
947.3239	2179.5494	7619.25	6720.55
947.4587	2181.0507	7584.35	6691.5
947.5934	2182.5513	7561.35	6666
947.7281	2184.0512	7550.95	6656.45
947.8628	2185.5504	7503.55	6612.55
947.9974	2187.0488	7463.75	6574.05
948.132	2188.5465	7449.75	6559.95
948.2666	2190.0435	7448.1	6557.5
948.4012	2191.5397	7413.55	6519.2
948.5357	2193.0353	7400.1	6507.5
948.6702	2194.5301	7366.55	6470.8
948.8047	2196.0241	7346.55	6444.7
948.9392	2197.5175	7327.9	6426.6
949.0736	2199.0101	7278.15	6374.75
949.208	2200.502	7275.4	6383.15
949.3424	2201.9931	7264.05	6374.35
949.4767	2203.4835	7212.35	6320.9
949.611	2204.9733	7227.6	6322.55
949.7453	2206.4622	7190.3	6302.8
949.8796	2207.9505	7185.3	6293.15
950.0138	2209.438	7134.75	6247.4
950.148	2210.9248	7100.65	6211.5
950.2822	2212.4109	7072.45	6181.15
950.4164	2213.8962	7064.4	6166.75
950.5505	2215.3809	7065.2	6165.85
950.6846	2216.8648	7037.45	6135.3
950.8186	2218.3479	7022.5	6116.75
950.9527	2219.8304	7016.35	6112.75
951.0867	2221.3121	6983.75	6079.85
951.2207	2222.7931	6962.75	6063.5
951.3546	2224.2733	6924.15	6027.15
951.4886	2225.7529	6896.25	6000.85
951.6225	2227.2317	6888.9	5994.1
951.7563	2228.7098	6881.7	5993.9
951.8902	2230.1872	6832.95	5942.6
952.024	2231.6638	6820.55	5932
952.1578	2233.1397	6804.9	5912.45
952.2916	2234.6149	6803.45	5913.75
952.4253	2236.0894	6756.85	5863.7
952.559	2237.5632	6741.5	5847.8
952.6927	2239.0362	6713.5	5821.15
952.8263	2240.5085	6723.8	5831.65
952.9599	2241.9801	6691.5	5796.7
953.0935	2243.4509	6671.9	5776.4
953.2271	2244.921	6657.2	5759.1
953.3606	2246.3904	6635.8	5738.5
953.4941	2247.8591	6617.2	5723.45
953.6276	2249.3271	6604.95	5712.9
953.7611	2250.7943	6559.4	5660.8
953.8945	2252.2608	6531.95	5633.35
954.0279	2253.7266	6533.55	5636.45
954.1612	2255.1917	6524.8	5630.2
954.2946	2256.656	6484	5590.15
954.4279	2258.1197	6475.15	5586.15
954.5612	2259.5826	6453.65	5559.9
954.6944	2261.0447	6453.05	5558.3
954.8276	2262.5062	6430.75	5533.25
954.9608	2263.9669	6414.9	5517.3
955.094	2265.4269	6414.95	5519.5
955.2271	2266.8862	6387.05	5492.25
955.3602	2268.3448	6373.45	5478.85
955.4933	2269.8026	6344.55	5451.45
955.6264	2271.2598	6325.6	5435.15
955.7594	2272.7162	6314.15	5423.25
955.8924	2274.1719	6319.65	5423.8
956.0253	2275.6268	6298.6	5400.15
956.1583	2277.0811	6265.25	5368.55
956.2912	2278.5346	6254.75	5361.65
956.4241	2279.9874	6242.55	5351.1
956.5569	2281.4395	6229.35	5338.95
956.6897	2282.8908	6204.2	5306.7
956.8225	2284.3414	6196.15	5303.45
956.9553	2285.7914	6169.3	5277.1
957.088	2287.2406	6165.15	5268.2
957.2207	2288.689	6182.1	5284.7
957.3534	2290.1368	6144.9	5241.2
957.486	2291.5838	6144.35	5241.4
957.6186	2293.0302	6109.35	5206.9
957.7512	2294.4758	6063.65	5163.55
957.8838	2295.9206	6060.9	5163
958.0163	2297.3648	6050.45	5156.15
958.1488	2298.8082	6021	5126.25
958.2813	2300.251	6033.3	5137.05
958.4137	2301.693	6000.1	5099.6
958.5461	2303.1343	5994.6	5094.5
958.6785	2304.5748	5960.35	5065.5
958.8108	2306.0147	5960.25	5070.3
958.9432	2307.4538	5939.35	5045.25
959.0754	2308.8922	5918.7	5031.6
959.2077	2310.3299	5895.8	5005.65
959.3399	2311.7669	5870.15	4979.35
959.4721	2313.2031	5865.65	4971.15
959.6043	2314.6387	5864	4968.2
959.7365	2316.0735	5834.65	4939.75
959.8686	2317.5076	5811.8	4914.95
960.0006	2318.941	5811.8	4913.7
960.1327	2320.3737	5792.3	4892.95
960.2647	2321.8056	5773.1	4872.2
960.3967	2323.2369	5765.1	4869.35
960.5287	2324.6674	5752.15	4854.25
960.6606	2326.0972	5734	4837.15
960.7925	2327.5263	5715.65	4819.95
960.9244	2328.9547	5704.2	4806.9
961.0562	2330.3823	5687.9	4790.1
961.1881	2331.8092	5699.25	4796.05
961.3198	2333.2355	5656.5	4756.4
961.4516	2334.661	5650	4750.8
961.5833	2336.0858	5650.45	4749.25
961.715	2337.5098	5627.5	4728.35
961.8467	2338.9332	5597.3	4702.35
961.9783	2340.3558	5585.25	4688.4
962.1099	2341.7778	5552.8	4660.4
962.2415	2343.199	5553.9	4659.4
962.373	2344.6195	5525.25	4632.7
962.5045	2346.0393	5515.4	4621.8
962.636	2347.4583	5527.35	4630.75
962.7675	2348.8767	5512.1	4614.65
962.8989	2350.2943	5498.25	4601.2
963.0303	2351.7113	5486.2	4585.35
963.1617	2353.1275	5466.6	4563.65
963.293	2354.543	5469.7	4545.05
963.4243	2355.9578	5457.6	4559
963.5556	2357.3718	5420.35	4525.7
963.6868	2358.7852	5390.7	4495.4
963.818	2360.1978	5370.8	4476.05
963.9492	2361.6098	5361.2	4466.65
964.0803	2363.021	5356.5	4455.25
964.2114	2364.4315	5335	4435.6
964.3425	2365.8413	5341.2	4444.15
964.4736	2367.2504	5308.25	4416.35
964.6046	2368.6587	5276.45	4384.45
964.7356	2370.0664	5244.95	4349.35
964.8666	2371.4733	5255.85	4359.45
964.9975	2372.8795	5229.05	4332.75
965.1284	2374.285	5231.7	4334.75
965.2593	2375.6899	5196.85	4303.65
965.3901	2377.0939	5183.75	4290.4
965.5209	2378.4973	5170.9	4278.05
965.6517	2379.9	5158.55	4262.85
965.7825	2381.3019	5132.7	4238.7
965.9132	2382.7032	5109.35	4216.9
966.0439	2384.1037	5114.85	4223.7
966.1745	2385.5035	5075.5	4185.05
966.3051	2386.9027	5068.9	4179.85
966.4357	2388.3011	5082.05	4189.05
966.5663	2389.6987	5046.65	4153.05
966.6968	2391.0957	5044.05	4152.65
966.8273	2392.492	5013.15	4121.9
966.9578	2393.8876	4980.25	4087.2
967.0882	2395.2824	4972.15	4073.95
967.2186	2396.6765	4948.15	4053
967.349	2398.07	4934	4037.5
967.4793	2399.4627	4930.85	4031.65
967.6097	2400.8547	4942.8	4046.55
967.7399	2402.246	4923.4	4023.2
967.8702	2403.6366	4882.95	3990.2
968.0004	2405.0265	4857.7	3963.25
968.1306	2406.4156	4855.9	3955.3
968.2607	2407.8041	4841.2	3942.35
968.3909	2409.1918	4826.5	3927.95
968.521	2410.5789	4797.85	3898.8
968.651	2411.9652	4800.55	3903.35
968.781	2413.3508	4774.55	3878.5
968.911	2414.7358	4769.35	3872.75
969.041	2416.12	4748.6	3851.85
969.1709	2417.5035	4730.65	3836.15
969.3008	2418.8863	4717.95	3821.3
969.4307	2420.2684	4713.05	3816.5
969.5606	2421.6497	4696.6	3799.4
969.6904	2423.0304	4654.7	3758.55
969.8201	2424.4104	4656.25	3760.15
969.9499	2425.7896	4639.1	3742.1
970.0796	2427.1682	4643.3	3748
970.2093	2428.546	4626.55	3731.65
970.3389	2429.9232	4614.4	3716.4
970.4685	2431.2996	4606.95	3710.95
970.5981	2432.6753	4604.45	3706.65
970.7277	2434.0503	4586.35	3690.8
970.8572	2435.4246	4551.8	3656.8
970.9867	2436.7982	4531.7	3633.4
971.1161	2438.1711	4541.85	3645.7
971.2456	2439.5433	4536.55	3640.25
971.375	2440.9148	4506.2	3604.65
971.5043	2442.2856	4487.25	3592.8
971.6336	2443.6557	4490.55	3593.95
971.7629	2445.025	4475.3	3580.1
971.8922	2446.3937	4457.45	3559.95
972.0214	2447.7617	4438.55	3538
972.1506	2449.1289	4442.15	3548.05
972.2798	2450.4955	4436.2	3536.75
972.4089	2451.8613	4427.5	3533.25
972.538	2453.2265	4399.25	3504.6
972.6671	2454.5909	4394.15	3496.1
972.7961	2455.9546	4367.05	3469.45
972.9251	2457.3177	4365.75	3469.95
973.0541	2458.68	4373.45	3474.3
973.1831	2460.0416	4345.55	3448.95
973.312	2461.4025	4340.4	3442.35
973.4408	2462.7627	4354.8	3450.1
973.5697	2464.1222	4328.4	3436.15
973.6985	2465.4811	4308.4	3414.9
973.8273	2466.8392	4299.05	3406.55
973.956	2468.1966	4296.2	3398
974.0847	2469.5533	4296.2	3398.05
974.2134	2470.9093	4280.7	3387.45
974.3421	2472.2645	4262.1	3365.35
974.4707	2473.6191	4260.15	3366.95
974.5993	2474.973	4231.1	3335.3
974.7278	2476.3262	4230.75	3333.85
974.8563	2477.6787	4214.55	3321.8
974.9848	2479.0305	4202.8	3309.25
975.1132	2480.3816	4192.15	3296.05
975.2417	2481.7319	4174.85	3281.8
975.37	2483.0816	4149.65	3253.6
975.4984	2484.4306	4151.75	3256.6
975.6267	2485.7789	4124.45	3230.6
975.755	2487.1264	4112.15	3217.1
975.8833	2488.4733	4097.95	3208.55
976.0115	2489.8195	4088.35	3186.8
976.1397	2491.165	4084.55	3187.05
976.2678	2492.5097	4073.75	3179.2
976.3959	2493.8538	4050.9	3159.45
976.524	2495.1972	4055.25	3160.75
976.6521	2496.5398	4038.4	3145.35
976.7801	2497.8818	4023.5	3125.55
976.9081	2499.2231	4011.6	3113.5
977.036	2500.5637	3992.2	3093.4
977.164	2501.9035	3987.15	3088.15
977.2918	2503.2427	3979.95	3079.95
977.4197	2504.5812	3960.35	3066.6
977.5475	2505.919	3958.35	3060.05
977.6753	2507.256	3949.6	3054.05
977.8031	2508.5924	3950.1	3057.1
977.9308	2509.9281	3936.45	3035.3
978.0585	2511.2631	3913.9	3019.7
978.1861	2512.5974	3902.65	3008.7
978.3137	2513.9309	3910.9	3016.25
978.4413	2515.2638	3898.3	2978.7
978.5689	2516.596	3873.65	2980.6
978.6964	2517.9275	3859.35	2964.1
978.8239	2519.2583	3844.45	2948.5
978.9513	2520.5884	3841.6	2944.75
979.0788	2521.9178	3828.6	2933.3
979.2062	2523.2465	3816.05	2920.65
979.3335	2524.5745	3814.1	2921.1
979.4608	2525.9018	3789.25	2894.75
979.5881	2527.2284	3788.8	2893.7
979.7154	2528.5543	3778.1	2884
979.8426	2529.8796	3772.25	2875.25
979.9698	2531.2041	3759.15	2865.55
980.0969	2532.5279	3760.75	2867.1
980.224	2533.851	3741.15	2847.15
980.3511	2535.1735	3740.35	2846.15
980.4781	2536.4952	3734.9	2839
980.6052	2537.8163	3729.2	2832.7
980.7321	2539.1366	3699.55	2803.3
980.8591	2540.4562	3701.15	2804.9
980.986	2541.7752	3700.15	2804.65
981.1129	2543.0935	3697.55	2799.85
981.2397	2544.411	3696.6	2799.55
981.3665	2545.7279	3680.15	2784.2
981.4933	2547.0441	3683.9	2786.9
981.62	2548.3596	3689.3	2790.85
981.7467	2549.6744	3663.6	2767.25
981.8734	2550.9885	3663.6	2758.9
982.0001	2552.3019	3652.9	2758.35
982.1267	2553.6146	3638.5	2741.7
982.2532	2554.9266	3630.05	2733.7
982.3798	2556.2379	3606.8	2709.6
982.5063	2557.5485	3604.9	2711.4
982.6327	2558.8585	3597.55	2696.35
982.7592	2560.1677	3599.3	2698.8
982.8856	2561.4762	3589.25	2695.65
983.0119	2562.7841	3594.3	2695.25
983.1383	2564.0913	3588.25	2691.4
983.2646	2565.3977	3576.6	2680.15
983.3908	2566.7035	3560.75	2664.45
983.517	2568.0086	3561.15	2663.25
983.6432	2569.313	3559.2	2660.7
983.7694	2570.6167	3557.25	2657.4
983.8955	2571.9197	3553	2657.2
984.0216	2573.222	3541.1	2640.7
984.1476	2574.5236	3526.35	2627.95
984.2737	2575.8246	3523.35	2623.85
984.3996	2577.1248	3523.9	2626.35
984.5256	2578.4244	3507.05	2612.6
984.6515	2579.7232	3497.25	2601.95
984.7774	2581.0214	3511.05	2587.55
984.9032	2582.3189	3494.6	2601.25
985.029	2583.6157	3487.2	2586.85
985.1548	2584.9118	3469.3	2575.5
985.2806	2586.2072	3470.4	2575
985.4063	2587.5019	3453.2	2557.5
985.5319	2588.7959	3457.45	2560.75
985.6576	2590.0893	3443.7	2545.5
985.7832	2591.3819	3456.95	2561.65
985.9087	2592.6739	3443.3	2547.45
986.0343	2593.9652	3417.2	2520.2
986.1597	2595.2557	3429.85	2534.55
986.2852	2596.5456	3415.85	2518.9
986.4106	2597.8348	3408.4	2512.5
986.536	2599.1234	3401.45	2508.45
986.6614	2600.4112	3384.2	2487.85
986.7867	2601.6983	3401.4	2504.55
986.912	2602.9848	3366.35	2471.25
987.0372	2604.2705	3369.85	2465.9
987.1624	2605.5556	3363.95	2467
987.2876	2606.84	3350.95	2453.2
987.4128	2608.1237	3341.1	2446.35
987.5379	2609.4067	3320.95	2425.4
987.6629	2610.689	3324.55	2420.1
987.788	2611.9707	3311.5	2412.4
987.913	2613.2516	3302.3	2403.05
988.0379	2614.5319	3297.55	2404.7
988.1629	2615.8115	3278.55	2383.2
988.2878	2617.0903	3269.35	2370.65
988.4126	2618.3685	3264	2366.2
988.5375	2619.6461	3253.8	2357.8
988.6622	2620.9229	3249.1	2354.15
988.787	2622.199	3241.75	2344.65
988.9117	2623.4745	3227.65	2332
989.0364	2624.7493	3227.5	2333.95
989.161	2626.0234	3211.85	2318.15
989.2857	2627.2968	3210.25	2315.9
989.4102	2628.5695	3195.2	2300.5
989.5348	2629.8415	3192.25	2299.5
989.6593	2631.1128	3174.05	2277.75
989.7837	2632.3835	3164.6	2269.7
989.9082	2633.6535	3150	2256.6
990.0326	2634.9228	3143.05	2250.95
990.1569	2636.1914	3142.6	2248.1
990.2812	2637.4593	3131.2	2234.25
990.4055	2638.7265	3121.65	2225.05
990.5298	2639.9931	3115	2218.95
990.654	2641.259	3111.7	2215.8
990.7782	2642.5242	3105.9	2209.1
990.9023	2643.7887	3093.2	2199.3
991.0264	2645.0525	3101.35	2207.05
991.1505	2646.3156	3092.55	2182.75
991.2745	2647.5781	3072.6	2176.65
991.3985	2648.8398	3062.45	2166.9
991.5225	2650.1009	3079.85	2160.95
991.6464	2651.3613	3048.9	2154.85
991.7703	2652.6211	3042.15	2147.35
991.8942	2653.8801	3033.1	2138.65
992.018	2655.1385	3033.85	2136.05
992.1418	2656.3961	3028.85	2135.6
992.2655	2657.6531	3030.45	2134.3
992.3892	2658.9094	3017.8	2121.9
992.5129	2660.1651	3017	2123.9
992.6366	2661.42	3003.4	2107.25
992.7602	2662.6743	3006.75	2112.7
992.8837	2663.9279	2997.2	2104.55
993.0073	2665.1808	2995.55	2102.15
993.1307	2666.433	3003.4	2108.85
993.2542	2667.6846	2972.1	2075.95
993.3776	2668.9354	2972.4	2075.65
993.501	2670.1856	2971.8	2076.3
993.6244	2671.4351	2972.85	2080
993.7477	2672.6839	2962.25	2065.2
993.8709	2673.9321	2971.25	2078.05
993.9942	2675.1795	2955.6	2063.7
994.1174	2676.4263	2951.5	2056.95
994.2405	2677.6724	2947.3	2053.9
994.3637	2678.9179	2947.9	2052.2
994.4868	2680.1626	2934.6	2041.85
994.6098	2681.4067	2933.2	2038.95
994.7328	2682.6501	2927.7	2034.35
994.8558	2683.8928	2928.9	2033.05
994.9788	2685.1348	2906.95	2015.3
995.1017	2686.3761	2906	2011.8
995.2245	2687.6168	2899.45	2005.35
995.3474	2688.8568	2881.15	1989.8
995.4702	2690.0961	2862.4	1968.15
995.5929	2691.3348	2854.35	1962.25
995.7156	2692.5727	2857.9	1965.05
995.8383	2693.81	2843	1949.75
995.961	2695.0466	2845.9	1951.85
996.0836	2696.2826	2839.05	1943.55
996.2062	2697.5178	2833.9	1937.55
996.3287	2698.7524	2830.25	1937.5
996.4512	2699.9863	2828.1	1931.35
996.5737	2701.2195	2824.85	1933.35
996.6961	2702.452	2813.8	1920.9
996.8185	2703.6839	2821.65	1928.65
996.9408	2704.9151	2814.35	1920.2
997.0631	2706.1456	2801.95	1906.25
997.1854	2707.3755	2804.15	1911.7
997.3077	2708.6046	2814.8	1920.1
997.4299	2709.8331	2805.1	1911.4
997.552	2711.0609	2811.85	1919.35
997.6742	2712.2881	2803.15	1909.05
997.7963	2713.5145	2799.65	1905.8
997.9183	2714.7403	2800.8	1908.5
998.0403	2715.9654	2810.15	1916.8
998.1623	2717.1899	2820.15	1909.65
998.2842	2718.4136	2809.15	1915.7
998.4062	2719.6367	2811.1	1920
998.528	2720.8591	2808.2	1908
998.6498	2722.0809	2809.1	1917.7
998.7716	2723.3019	2814.35	1918.45
998.8934	2724.5223	2821.9	1929.2
999.0151	2725.7421	2810.75	1917.7
999.1368	2726.9611	2817.2	1921.2
999.2584	2728.1795	2806.85	1909.55
999.38	2729.3972	2784.35	1894.05
999.5016	2730.6142	2784.75	1885.2
999.6231	2731.8306	2756.05	1863.25
999.7446	2733.0462	2738.35	1843.85
999.8661	2734.2612	2726.05	1829.5
999.9875	2735.4756	2703.7	1812.25
1000.1089	2736.6892	2690.4	1798.05
1000.2302	2737.9022	2670.6	1779.35
1000.3515	2739.1145	2650.65	1759.35
1000.4728	2740.3262	2650.7	1750.25
1000.594	2741.5372	2625.25	1732.35
1000.7152	2742.7475	2614.75	1724
1000.8363	2743.9571	2599.6	1707.45
1000.9575	2745.1661	2590.9	1694.85
1001.0785	2746.3744	2587.45	1694
1001.1996	2747.582	2560.45	1668.4
1001.3206	2748.7889	2556.5	1663.65
1001.4415	2749.9952	2544.45	1653.2
1001.5625	2751.2008	2535.9	1644.55
1001.6833	2752.4057	2528.5	1632.55
1001.8042	2753.61	2530.05	1639.2
1001.925	2754.8136	2507.9	1615.2
1002.0458	2756.0165	2498.75	1607.55
1002.1665	2757.2188	2492	1601.8
1002.2872	2758.4204	2489.9	1599
1002.4078	2759.6213	2494.2	1600
1002.5285	2760.8215	2498.3	1602.45
1002.649	2762.0211	2479.65	1587.9
1002.7696	2763.22	2470.45	1576
1002.8901	2764.4182	2467	1573.3
1003.0106	2765.6158	2461.55	1569.3
1003.131	2766.8127	2459.35	1567.65
1003.2514	2768.009	2446.45	1555.8
1003.3717	2769.2045	2450.85	1560.25
1003.492	2770.3994	2442.7	1550.75
1003.6123	2771.5936	2417.7	1526.1
1003.7325	2772.7872	2418.9	1529.2
1003.8527	2773.9801	2409.45	1517.1
1003.9729	2775.1723	2433.9	1526.9
1004.093	2776.3639	2403.8	1512.95
1004.2131	2777.5548	2399.05	1508.05
1004.3331	2778.745	2400.05	1509.3
1004.4531	2779.9346	2390.5	1500.1
1004.5731	2781.1235	2397.3	1506.7
1004.693	2782.3117	2393.75	1504.6
1004.8129	2783.4992	2379.95	1490.05
1004.9328	2784.6861	2373.5	1484.5
1005.0526	2785.8723	2381.15	1489.9
1005.1723	2787.0579	2382.9	1492.75
1005.2921	2788.2428	2374.55	1485.2
1005.4118	2789.427	2374.65	1486.4
1005.5314	2790.6106	2374.2	1484.5
1005.651	2791.7935	2382.75	1492
1005.7706	2792.9757	2390.4	1501.15
1005.8902	2794.1573	2389.2	1498.1
1006.0097	2795.3382	2383	1493
1006.1291	2796.5184	2394.9	1507.3
1006.2485	2797.698	2398.15	1506.9
1006.3679	2798.8769	2404.75	1515.95
1006.4873	2800.0551	2422.4	1533.65
1006.6066	2801.2327	2412.85	1521.4
1006.7258	2802.4096	2422.7	1532.4
1006.8451	2803.5859	2441.05	1552
1006.9642	2804.7615	2435.25	1546.7
1007.0834	2805.9364	2457	1570.95
1007.2025	2807.1106	2474.9	1588.25
1007.3216	2808.2842	2496.55	1606.15
1007.4406	2809.4572	2504.05	1613.4
1007.5596	2810.6294	2537.7	1646.8
1007.6785	2811.801	2549.5	1661.55
1007.7975	2812.972	2574.35	1687.35
1007.9163	2814.1423	2617.2	1728.7
1008.0352	2815.3119	2648.6	1759.5
1008.154	2816.4808	2682.3	1795.8
1008.2727	2817.6491	2716.25	1826.85
1008.3914	2818.8167	2756.1	1867.1
1008.5101	2819.9837	2805.25	1913.35
1008.6288	2821.15	2835	1945.2
1008.7474	2822.3157	2875.6	1985.5
1008.8659	2823.4807	2915.05	2026.4
1008.9844	2824.645	2953.35	2063.35
1009.1029	2825.8086	2991.8	2104.75
1009.2214	2826.9716	3022.2	2134.75
1009.3398	2828.134	3073.8	2185.05
1009.4581	2829.2957	3096.6	2209.95
1009.5764	2830.4567	3110.15	2220.75
1009.6947	2831.617	3130.95	2242.95
1009.813	2832.7767	3150.8	2261.9
1009.9312	2833.9358	3131.65	2245.45
1010.0493	2835.0941	3134.6	2242.75
1010.1675	2836.2519	3134	2243.35
1010.2855	2837.4089	3113.5	2223.6
1010.4036	2838.5653	3092.4	2204.1
1010.5216	2839.7211	3083.5	2196.3
1010.6396	2840.8761	3083.7	2192.2
1010.7575	2842.0306	3090.05	2203
1010.8754	2843.1843	3104.85	2214.25
1010.9932	2844.3374	3139.2	2250.75
1011.111	2845.4899	3182.75	2293.8
1011.2288	2846.6417	3219.3	2333.55
1011.3465	2847.7928	3281.4	2393.7
1011.4642	2848.9433	3328.55	2439.4
1011.5818	2850.0931	3378.7	2491.5
1011.6995	2851.2422	3435.05	2546.35
1011.817	2852.3907	3477.7	2590.9
1011.9345	2853.5385	3526.55	2636.8
1012.052	2854.6857	3557.1	2660.45
1012.1695	2855.8323	3603.15	2713.2
1012.2869	2856.9781	3630	2740.95
1012.4042	2858.1233	3676	2788.1
1012.5216	2859.2679	3709.25	2821.6
1012.6389	2860.4118	3754.7	2867.65
1012.7561	2861.555	3792.5	2900.05
1012.8733	2862.6976	3811.85	2921
1012.9905	2863.8395	3830.65	2943.8
1013.1076	2864.9808	3854.55	2969.2
1013.2247	2866.1214	3869.9	2982.05
1013.3417	2867.2614	3875.65	2987.45
1013.4587	2868.4007	3893.35	3002.9
1013.5757	2869.5393	3897.1	3007.7
1013.6926	2870.6773	3902.9	3012.45
1013.8095	2871.8146	3912.05	3019.7
1013.9263	2872.9513	3897.95	3006.95
1014.0431	2874.0874	3894.35	3005.9
1014.1599	2875.2227	3874.4	2988.15
1014.2766	2876.3574	3853.6	2966.45
1014.3933	2877.4915	3842.05	2957
1014.51	2878.6249	3810.2	2922.25
1014.6266	2879.7577	3792.2	2902.7
1014.7431	2880.8898	3781.35	2882.6
1014.8596	2882.0212	3733.05	2847.5
1014.9761	2883.152	3742.4	2854.9
1015.0925	2884.2821	3719.9	2835.35
1015.2089	2885.4116	3719.8	2832.45
1015.3253	2886.5405	3721.25	2832.75
1015.4416	2887.6686	3733	2843.2
1015.5579	2888.7962	3728.55	2842.7
1015.6741	2889.923	3726.65	2843.05
1015.7903	2891.0493	3728.45	2841.85
1015.9065	2892.1748	3736.9	2849.05
1016.0226	2893.2997	3735.95	2848.7
1016.1387	2894.424	3733.15	2847.45
1016.2547	2895.5476	3749.15	2863.3
1016.3707	2896.6706	3766.65	2879.6
1016.4866	2897.7929	3772.1	2882.35
1016.6025	2898.9145	3807.05	2918.85
1016.7184	2900.0355	3816.8	2930.65
1016.8342	2901.1559	3850.55	2964.35
1016.95	2902.2756	3865	2980.35
1017.0658	2903.3946	3885.1	2999.7
1017.1815	2904.513	3913.5	3025.4
1017.2971	2905.6308	3926.2	3037.8
1017.4127	2906.7479	3928.7	3041.3
1017.5283	2907.8643	3949.9	3061.85
1017.6439	2908.9801	3960.35	3075.3
1017.7594	2910.0953	3970.25	3081.9
1017.8748	2911.2098	3963.35	3074
1017.9902	2912.3236	3954.6	3061.55
1018.1056	2913.4368	3950.05	3061.5
1018.2209	2914.5494	3917.45	3028.85
1018.3362	2915.6613	3893.35	3002.55
1018.4515	2916.7725	3872.45	2983.2
1018.5667	2917.8831	3857.85	2970.65
1018.6819	2918.9931	3818.8	2931.6
1018.797	2920.1024	3790.45	2901.85
1018.9121	2921.211	3765.5	2881.45
1019.0271	2922.319	3740.5	2855
1019.1421	2923.4264	3747.25	2863.85
1019.2571	2924.5331	3707.95	2822.55
1019.372	2925.6391	3708.05	2825.25
1019.4869	2926.7445	3697.1	2813.55
1019.6017	2927.8493	3693.1	2805.4
1019.7165	2928.9534	3696.3	2809.4
1019.8313	2930.0569	3677.9	2788.6
1019.946	2931.1597	3699.45	2814.2
1020.0606	2932.2619	3696.55	2810.2
1020.1753	2933.3634	3696.35	2809.4
1020.2899	2934.4643	3689.75	2798.2
1020.4044	2935.5645	3672.5	2779.3
1020.5189	2936.6641	3650.15	2759.95
1020.6334	2937.763	3601.25	2717.35
1020.7478	2938.8613	3572.25	2685.55
1020.8622	2939.959	3545.55	2655.35
1020.9765	2941.056	3471.55	2585.65
1021.0908	2942.1523	3420.1	2533.15
1021.2051	2943.248	3347.8	2462.3
1021.3193	2944.3431	3273.9	2387.75
1021.4334	2945.4375	3192.95	2306.6
1021.5476	2946.5313	3109.3	2224.2
1021.6617	2947.6244	3012.3	2125.15
1021.7757	2948.7169	2933.1	2046.35
1021.8897	2949.8087	2859.6	1972.9
1022.0037	2950.8999	2793.8	1908.45
1022.1176	2951.9904	2715.85	1832.15
1022.2315	2953.0803	2651.1	1764.35
1022.3453	2954.1696	2600.5	1718
1022.4591	2955.2582	2563.95	1678.5
1022.5728	2956.3462	2514.7	1626.95
1022.6865	2957.4335	2489	1602.5
1022.8002	2958.5202	2443.35	1554.75
1022.9138	2959.6062	2413.45	1528.85
1023.0274	2960.6916	2403.95	1519.25
1023.141	2961.7764	2382.65	1496.4
1023.2545	2962.8605	2364.75	1481.8
1023.3679	2963.9439	2362.8	1477.35
1023.4813	2965.0267	2343.25	1457
1023.5947	2966.1089	2363.15	1456.95
1023.708	2967.1905	2327.8	1442.9
1023.8213	2968.2714	2327.5	1445.1
1023.9346	2969.3516	2317.55	1430.4
1024.0478	2970.4312	2328	1436.1
1024.1609	2971.5102	2314.65	1427.7
1024.274	2972.5885	2317.05	1432
1024.3871	2973.6662	2307.2	1419.05
1024.5002	2974.7432	2309.25	1423.3
1024.6132	2975.8196	2302.15	1418.35
1024.7261	2976.8954	2299.75	1416.1
1024.839	2977.9705	2281.7	1395.8
1024.9519	2979.045	2274.15	1389.95
1025.0647	2980.1188	2257.35	1372.55
1025.1775	2981.192	2238.05	1356.7
1025.2902	2982.2645	2238.7	1353.4
1025.4029	2983.3364	2204.9	1320
1025.5156	2984.4077	2182.55	1299.15
1025.6282	2985.4783	2168.45	1278.7
1025.7407	2986.5483	2126.35	1244.25
1025.8532	2987.6177	2097.85	1214.65
1025.9657	2988.6864	2071.4	1186.1
1026.0782	2989.7545	2039	1153.85
1026.1906	2990.8219	2008.3	1123.5
1026.3029	2991.8887	1986.85	1098.95
1026.4152	2992.9548	1958.3	1073.05
1026.5275	2994.0204	1930.15	1046.3
1026.6397	2995.0852	1904.4	1019.6
1026.7519	2996.1495	1879.35	994.1
1026.864	2997.2131	1854.2	970
1026.9761	2998.276	1839.6	954.8
1027.0882	2999.3383	1820.35	934.1
1027.2002	3000.4	1796.9	911.2
1027.3122	3001.4611	1787.05	903.2
1027.4241	3002.5215	1768.6	885.4
1027.536	3003.5812	1755.2	870.85
1027.6478	3004.6404	1737.05	851.45
1027.7596	3005.6989	1728.1	841.5
1027.8714	3006.7567	1723.25	838.05
1027.9831	3007.8139	1737.75	838.25
1028.0947	3008.8705	1708.45	825.4
1028.2064	3009.9264	1708.55	805.95
1028.3179	3010.9818	1693.5	808.6
1028.4295	3012.0364	1681.25	796.45
1028.541	3013.0905	1677.8	792.55
1028.6524	3014.1439	1673.05	787.05
1028.7638	3015.1966	1672.75	790.05
1028.8752	3016.2487	1660.6	776.25
1028.9865	3017.3002	1661.55	772
1029.0978	3018.3511	1656.2	775.4
1029.209	3019.4013	1651.2	767.7
1029.3202	3020.4509	1649.2	765.35
1029.4314	3021.4998	1648.1	765
1029.5425	3022.5481	1640.5	755.7
1029.6535	3023.5958	1647.2	762.6
1029.7645	3024.6428	1639.9	755.75
1029.8755	3025.6892	1640.95	758.85
1029.9864	3026.735	1632.4	748.05
1030.0973	3027.7802	1634.85	751.35
1030.2082	3028.8247	1642.55	757.45
1030.319	3029.8685	1636.75	753.7
1030.4297	3030.9118	1636.55	750.85
1030.5404	3031.9544	1636.45	753.45
1030.6511	3032.9963	1636.05	752.15
1030.7617	3034.0376	1633.05	750.75
1030.8723	3035.0783	1640.4	755.35
1030.9829	3036.1184	1631.9	746.8
1031.0934	3037.1578	1639.45	756.15
1031.2038	3038.1966	1635.8	751.55
1031.3142	3039.2348	1636.5	754.15
1031.4246	3040.2723	1637.45	747.05
1031.5349	3041.3092	1631.15	748.8
1031.6452	3042.3455	1632.35	747.9
1031.7554	3043.3811	1628.3	743.15
1031.8656	3044.4161	1620.1	735.95
1031.9758	3045.4505	1618.45	735.25
1032.0859	3046.4842	1621.45	737.5
1032.1959	3047.5173	1613.85	731.7
1032.3059	3048.5498	1593.5	712.45
1032.4159	3049.5816	1591.4	707
1032.5258	3050.6128	1594.05	708.9
1032.6357	3051.6434	1592.8	707.25
1032.7455	3052.6734	1580.45	696.35
1032.8553	3053.7027	1581.1	698.95
1032.9651	3054.7314	1569.85	685.65
1033.0748	3055.7594	1569.35	687.75
1033.1845	3056.7868	1565.3	680.95
1033.2941	3057.8136	1554	669.85
1033.4037	3058.8398	1558	675.15
1033.5132	3059.8653	1549	666.05
1033.6227	3060.8902	1537.75	654.85
1033.7321	3061.9145	1541.3	659.3
1033.8415	3062.9381	1533.25	651.15
1033.9509	3063.9612	1550.3	649.95
1034.0602	3064.9835	1526.65	643.8
1034.1694	3066.0053	1528.35	642.05
1034.2787	3067.0264	1513.45	630.8
1034.3878	3068.0469	1513.1	627.1
1034.497	3069.0668	1508	621.8
1034.6061	3070.086	1498.15	614.8
1034.7151	3071.1046	1485.85	603.15
1034.8241	3072.1226	1487.85	604.05
1034.9331	3073.1399	1478.15	593.75
1035.042	3074.1567	1475.6	591.2
1035.1508	3075.1727	1460.9	575.9
1035.2597	3076.1882	1454.65	570.35
1035.3684	3077.203	1439.05	554.05
1035.4772	3078.2173	1437.15	553.95
1035.5859	3079.2308	1435.85	551.15
1035.6945	3080.2438	1427.95	542.85
1035.8031	3081.2561	1421.2	537.5
1035.9117	3082.2678	1409.25	524.9
1036.0202	3083.2789	1403.9	521.55
1036.1286	3084.2893	1405.75	521.8
1036.2371	3085.2991	1392.1	509.4
1036.3454	3086.3083	1388.65	500.4
1036.4538	3087.3169	1382.95	500
1036.562	3088.3248	1379	493.85
1036.6703	3089.3321	1369.5	487.6
1036.7785	3090.3388	1367.4	485.95
1036.8866	3091.3449	1362.05	478.8
1036.9948	3092.3503	1361.55	475.7
1037.1028	3093.3551	1356.35	474.35
1037.2108	3094.3593	1347.4	464.75
1037.3188	3095.3629	1342.9	460.35
1037.4267	3096.3658	1345.7	459.4
1037.5346	3097.3681	1347.2	465.4
1037.6425	3098.3698	1336.65	451.65
1037.7503	3099.3708	1339.75	451.35
1037.858	3100.3713	1326.25	444.1
1037.9657	3101.3711	1317.5	433.85
1038.0734	3102.3702	1459.35	435
1038.181	3103.3688	1325.05	440.6
1038.2886	3104.3667	1314.4	432.8
1038.3961	3105.364	1313.85	431.1
1038.5036	3106.3607	1311.85	429.35
1038.611	3107.3568	1298.7	416.05
1038.7184	3108.3522	1300.85	418.6
1038.8257	3109.347	1307.1	425
1038.933	3110.3412	1298	411.7
1039.0403	3111.3348	1296.95	414.95
1039.1475	3112.3277	1288.95	406.25
1039.2547	3113.32	1291.8	410.1
1039.3618	3114.3117	1286.55	404.4
1039.4689	3115.3028	1283.3	402.95
1039.5759	3116.2932	1275.65	390.85
1039.6829	3117.2831	1282.55	393.25
1039.7898	3118.2723	1270.85	388.65
1039.8967	3119.2608	1264.45	382.9
1040.0035	3120.2488	1263.45	380.65
1040.1103	3121.2361	1261.05	377.7
1040.2171	3122.2229	1266.3	384.4
1040.3238	3123.209	1257.05	372.8
1040.4305	3124.1944	1255	374.4
1040.5371	3125.1793	1260.1	377
1040.6437	3126.1635	1246.35	364.05
1040.7502	3127.1471	1249.45	368.35
1040.8567	3128.1301	1249.9	367.65
1040.9631	3129.1125	1244.2	364.15
1041.0695	3130.0942	1244.2	362.9
1041.1759	3131.0753	1253.5	360.45
1041.2822	3132.0558	1242.75	358.85
1041.3884	3133.0357	1239.1	356.45
1041.4946	3134.015	1232.95	352
1041.6008	3134.9936	1237.95	355.65
1041.7069	3135.9716	1254.05	349.65
1041.813	3136.949	1234.1	353.3
1041.919	3137.9258	1243.4	342.75
1042.025	3138.902	1237.95	351.35
1042.1309	3139.8775	1227.2	345.45
1042.2368	3140.8524	1222.65	343.75
1042.3427	3141.8267	1221.9	336
1042.4485	3142.8004	1221.5	341.35
1042.5542	3143.7735	1229.05	340
1042.6599	3144.7459	1221	337.25
1042.7656	3145.7178	1219.05	337.95
1042.8712	3146.689	1210.7	330.15
1042.9768	3147.6596	1209.55	327.55
1043.0823	3148.6295	1207.2	323.45
1043.1878	3149.5989	1203.05	323.55
1043.2932	3150.5676	1199.55	319.45
1043.3986	3151.5357	1199.45	319.15
1043.5039	3152.5032	1197.85	317.55
1043.6092	3153.4701	1192.9	312.15
1043.7145	3154.4364	1200.4	315.95
1043.8197	3155.402	1199.5	318.6
1043.9248	3156.367	1196.15	312.65
1044.03	3157.3315	1229.3	311.85
1044.135	3158.2952	1192.8	310.65
1044.24	3159.2584	1186.15	305.6
1044.345	3160.221	1189.3	305.35
1044.4499	3161.1829	1187	303.9
1044.5548	3162.1442	1180.25	298.5
1044.6596	3163.105	1178.65	296.4
1044.7644	3164.065	1174.8	292.6
1044.8692	3165.0245	1182.7	298.75
1044.9739	3165.9834	1173.9	293.5
1045.0785	3166.9416	1171.5	290.35
1045.1831	3167.8993	1173.25	291.4
1045.2877	3168.8563	1163.6	282.75
1045.3922	3169.8127	1161	279.65
1045.4966	3170.7684	1167.85	287.45
1045.6011	3171.7236	1169.9	285.95
1045.7054	3172.6782	1159.15	277.75
1045.8098	3173.6321	1160.6	279
1045.914	3174.5854	1164.1	280.85
1046.0183	3175.5381	1159	277.55
1046.1224	3176.4902	1158.55	277.65
1046.2266	3177.4417	1151.6	270.9
1046.3307	3178.3926	1150.95	270.45
1046.4347	3179.3428	1149.8	271.7
1046.5387	3180.2924	1150.6	271.1
1046.6427	3181.2415	1147.7	268.15
1046.7466	3182.1899	1153.3	270.5
1046.8504	3183.1377	1151.1	270.7
1046.9542	3184.0848	1148.05	265.75
1047.058	3185.0314	1138.85	256.9
1047.1617	3185.9773	1144.75	264.15
1047.2654	3186.9227	1140.75	257.2
1047.369	3187.8674	1135	253.3
1047.4726	3188.8115	1134.95	250.5
1047.5761	3189.755	1136	254.55
1047.6796	3190.6979	1130.25	247.65
1047.783	3191.6402	1135.65	254.8
1047.8864	3192.5818	1134.55	252.75
1047.9898	3193.5229	1141	254.3
1048.0931	3194.4633	1133.2	252.2
1048.1963	3195.4031	1129.45	246
1048.2995	3196.3423	1125.95	244.75
1048.4027	3197.2809	1126.75	245.85
1048.5058	3198.2189	1123.75	241.2
1048.6089	3199.1563	1131.25	244.75
1048.7119	3200.0931	1119.25	238.7
1048.8148	3201.0292	1118.5	238.75
1048.9178	3201.9648	1115.8	233.75
1049.0206	3202.8997	1120.5	236.45
1049.1235	3203.834	1116.1	236.1
1049.2262	3204.7677	1117.7	238.15
1049.329	3205.7008	1113.7	230
1049.4317	3206.6333	1110.75	229.8
1049.5343	3207.5652	1112.1	228.4
1049.6369	3208.4964	1110.85	230.35
1049.7394	3209.4271	1107.2	228.7
1049.8419	3210.3571	1102.75	222.1
1049.9444	3211.2865	1113.05	231.8
1050.0468	3212.2154	1103.75	223.7
1050.1491	3213.1436	1106.8	223.25
1050.2514	3214.0712	1109.85	222.55
1050.3537	3214.9982	1100.85	219.1
1050.4559	3215.9246	1099.15	218
1050.5581	3216.8503	1096	217.05
1050.6602	3217.7755	1100.75	218
1050.7623	3218.7001	1097.65	216.8
1050.8643	3219.624	1094.2	213.1
1050.9663	3220.5473	1094.75	214.7
1051.0682	3221.4701	1092.05	209
1051.1701	3222.3922	1093.65	210.65
1051.2719	3223.3137	1094	212.9
1051.3737	3224.2346	1088.1	207.4
1051.4754	3225.1549	1086.3	203.85
1051.5771	3226.0746	1091.25	211.15
1051.6788	3226.9937	1088.7	206.9
1051.7804	3227.9121	1085.45	204.75
1051.8819	3228.83	1081.35	200.9
1051.9834	3229.7473	1084.9	204.9
1052.0849	3230.6639	1083.8	205.85
1052.1863	3231.5799	1084.3	205.35
1052.2876	3232.4954	1079.5	197.1
1052.3889	3233.4102	1080.95	198.65
1052.4902	3234.3244	1079.85	199.7
1052.5914	3235.238	1077.7	198.2
1052.6926	3236.151	1103.5	196.85
1052.7937	3237.0634	1069.65	189.65
1052.8948	3237.9752	1076.25	196.85
1052.9958	3238.8864	1072.8	191.35
1053.0968	3239.797	1068.35	187
1053.1977	3240.7069	1069.65	189
1053.2986	3241.6163	1067.95	186.4
1053.3994	3242.5251	1065.2	184.7
1053.5002	3243.4332	1063.85	184.85
1053.6009	3244.3408	1065.95	184.3
1053.7016	3245.2477	1061.55	180.7
1053.8022	3246.154	1061.75	181.05
1053.9028	3247.0598	1059.7	177.7
1054.0034	3247.9649	1061.25	181.15
1054.1039	3248.8694	1058.6	178.35
1054.2043	3249.7733	1058.75	178.5
1054.3047	3250.6766	1055.6	175.95
1054.4051	3251.5793	1058.9	178.45
1054.5054	3252.4814	1049.35	170.5
1054.6056	3253.3829	1050.8	170.95
1054.7058	3254.2838	1051.6	172.65
1054.806	3255.1841	1052.65	175
1054.9061	3256.0838	1048.6	166.65
1055.0061	3256.9829	1043	162.7
1055.1062	3257.8814	1048.05	166.3
1055.2061	3258.7792	1043.25	161.95
1055.306	3259.6765	1041.95	160.05
1055.4059	3260.5731	1042.7	161.95
1055.5057	3261.4692	1040.5	159.95
1055.6055	3262.3647	1037.6	156
1055.7052	3263.2595	1038.6	159.7
1055.8049	3264.1538	1035.5	155.05
1055.9045	3265.0474	1032.1	151.45
1056.0041	3265.9404	1031.8	151.45
1056.1036	3266.8329	1019.35	140.75
1056.2031	3267.7247	1030.3	141.15
1056.3025	3268.616	1016.85	136.9
1056.4019	3269.5066	1016.5	137.3
1056.5013	3270.3966	1014.7	132.7
1056.6005	3271.286	1007.7	129.3
