Software Version:	3.9.2.0
Unit SN:	10000200
Spectrometer SN:	6960
Date:	3/26/2024 12:59:44 PM
Data Line Index:	25
Spectral Points:	2048
Integration time (ms):	125
Averages:	20
Delay (ms):	30000
Sequence Number:	1
Processing:	dark subtract
Laser Power (mW):	300
Laser Current (mA):	817
Laser Diode Temp (C):	25.1
Laser Case Temp (C):	25.5
System Temp (C):	25.4
Spectrometer Temp (C):	23.2
CCD Temp (C):	0.009
Secondary Temp (C):	20.001
Heatsink Temp (C):	21.426
CCDPCB Temp (C):	35.229
SecondaryPCB Temp (C):	29.46

Wavelength	RamanShift	Raw Counts	Dark Subtracted
787.061	30.1047	422.5	11.95
787.2016	32.3739	422.75	13.25
787.3422	34.6426	422.9	11.15
787.4828	36.9109	426.05	12.15
787.6235	39.1787	430.55	14.9
787.7642	41.4461	435.05	13.15
787.9049	43.7131	440.35	14.55
788.0456	45.9796	443.7	15.55
788.1863	48.2456	449.45	15.8
788.3271	50.5112	453.8	17.9
788.4679	52.7764	458.5	21.95
788.6087	55.0411	460.25	19.8
788.7496	57.3054	468.75	23.95
788.8904	59.5692	470.45	24.15
789.0313	61.8326	476.85	25.4
789.1722	64.0955	483.45	26.1
789.3132	66.3579	490.95	29.9
789.4541	68.6199	498.15	33.75
789.5951	70.8815	508.45	42.6
789.7361	73.1426	529.5	60.9
789.8771	75.4032	571.45	96.3
790.0181	77.6634	674.2	195.55
790.1592	79.9231	902	417.7
790.3003	82.1824	1390.45	903
790.4414	84.4412	2206.25	1714.85
790.5825	86.6995	3283.5	2782.5
790.7237	88.9574	4347.1	3841.9
790.8648	91.2148	5113.85	4606.95
791.006	93.4717	5534.9	5023.2
791.1472	95.7282	5663.8	5146.6
791.2885	97.9842	5732	5213.5
791.4297	100.2398	5705.7	5183.5
791.571	102.4949	5695.3	5170.7
791.7123	104.7495	5662.4	5135.85
791.8536	107.0036	5631.2	5102.05
791.9949	109.2573	5589.45	5062.9
792.1363	111.5105	5521.7	4990.8
792.2777	113.7632	5452.1	4919.15
792.4191	116.0154	5411.1	4869.7
792.5605	118.2672	5343.85	4807.15
792.7019	120.5185	5265.9	4731.05
792.8434	122.7693	5201.65	4664.65
792.9849	125.0197	5117.25	4575.1
793.1264	127.2696	5058.7	4511.45
793.2679	129.519	5038.25	4490.8
793.4094	131.7679	5014.3	4463.25
793.551	134.0163	5003.15	4446.8
793.6926	136.2642	4994.85	4436.7
793.8342	138.5117	5006.9	4437.6
793.9758	140.7587	4986.45	4424.7
794.1175	143.0052	4950.5	4386.15
794.2591	145.2512	4913.35	4346.75
794.4008	147.4967	4865.8	4299.55
794.5425	149.7417	4833.35	4264.45
794.6842	151.9863	4787.2	4214.7
794.826	154.2304	4772.85	4194.25
794.9677	156.4739	4751.65	4170.4
795.1095	158.717	4757.85	4175.55
795.2513	160.9596	4781.45	4196.25
795.3931	163.2017	4798.6	4209.9
795.535	165.4433	4807.95	4217.6
795.6768	167.6844	4790.6	4197.45
795.8187	169.925	4785.65	4189.75
795.9606	172.1651	4730	4130
796.1025	174.4047	4705.1	4100.55
796.2445	176.6439	4667.5	4062.2
796.3864	178.8825	4623.75	4014.5
796.5284	181.1206	4615.65	4002.9
796.6704	183.3582	4604.6	3990.2
796.8124	185.5954	4591.95	3974.75
796.9544	187.832	4583.65	3963.2
797.0965	190.0681	4599.9	3976.85
797.2386	192.3037	4607.8	3982.1
797.3806	194.5388	4614.7	3986
797.5228	196.7734	4615.7	3983.2
797.6649	199.0075	4610.3	3974.2
797.807	201.2411	4650.85	4011.65
797.9492	203.4742	4653.65	4017.2
798.0914	205.7068	4669.7	4030.1
798.2336	207.9389	4699.55	4057.95
798.3758	210.1704	4715.4	4070.8
798.518	212.4015	4708.9	4059.3
798.6603	214.632	4701.35	4057.4
798.8025	216.862	4693	4058.55
798.9448	219.0915	4675.15	4045.3
799.0871	221.3205	4691.9	4063.4
799.2294	223.549	4711.55	4087
799.3718	225.777	4716.6	4091.65
799.5141	228.0044	4695.4	4068.05
799.6565	230.2314	4693.35	4064.85
799.7989	232.4578	4689.25	4059.6
799.9413	234.6837	4694.1	4056.75
800.0837	236.909	4669.45	4030.5
800.2262	239.1339	4681.75	4017.95
800.3687	241.3582	4651.35	4003.15
800.5111	243.582	4681.05	3999.45
800.6536	245.8053	4668.4	4003.35
800.7961	248.0281	4652.7	3990.95
800.9387	250.2503	4663.45	3997.05
801.0812	252.472	4693.4	4020.8
801.2238	254.6932	4689.95	4015.35
801.3664	256.9139	4673.65	3998.25
801.509	259.134	4674	3995.8
801.6516	261.3536	4689.45	4013.25
801.7942	263.5727	4704.6	4025.75
801.9369	265.7912	4733	4054
802.0795	268.0092	4781	4101.75
802.2222	270.2267	4833.8	4151.45
802.3649	272.4436	4850.75	4166.1
802.5076	274.6601	4882.25	4191.9
802.6504	276.8759	4884.4	4198.95
802.7931	279.0913	4912.4	4224.85
802.9359	281.3061	4929.2	4239.6
803.0787	283.5204	4948.1	4254.75
803.2215	285.7341	4957.1	4261.75
803.3643	287.9473	4986.5	4281.45
803.5071	290.16	4997	4294.2
803.6499	292.3721	4956.5	4261.15
803.7928	294.5837	4903.95	4205.3
803.9357	296.7947	4861.85	4164.95
804.0786	299.0052	4841.95	4142.8
804.2215	301.2152	4839.95	4140.25
804.3644	303.4246	4831.45	4133.45
804.5074	305.6334	4807.9	4108.55
804.6503	307.8418	4803.9	4100
804.7933	310.0495	4788.4	4084.95
804.9363	312.2568	4774.9	4073.15
805.0793	314.4635	4729.6	4024.45
805.2223	316.6696	4685.6	3977.15
805.3653	318.8752	4644.05	3929.25
805.5084	321.0802	4614.1	3905.3
805.6514	323.2847	4597.1	3887.1
805.7945	325.4887	4599.15	3890.1
805.9376	327.692	4607.05	3895.85
806.0807	329.8949	4635.5	3922.85
806.2238	332.0972	4672.65	3960.8
806.367	334.2989	4703.65	3985.9
806.5101	336.5001	4715.7	3998.9
806.6533	338.7007	4692.75	3974.7
806.7965	340.9008	4685.85	3967
806.9397	343.1003	4618.25	3894.85
807.0829	345.2992	4578.25	3854.25
807.2261	347.4976	4535.9	3811.55
807.3693	349.6955	4494.6	3766.2
807.5126	351.8927	4497.6	3767.7
807.6559	354.0895	4487.2	3746.65
807.7991	356.2856	4473.45	3742.4
807.9424	358.4812	4457.5	3728.9
808.0857	360.6763	4441.2	3708.25
808.2291	362.8707	4445.8	3712.8
808.3724	365.0646	4449.8	3712.2
808.5158	367.258	4430	3692.65
808.6591	369.4508	4445.2	3702.3
808.8025	371.643	4487.2	3744.85
808.9459	373.8346	4486.15	3740.9
809.0893	376.0257	4526.85	3777.2
809.2327	378.2162	4556	3807.7
809.3762	380.4062	4594.55	3843.95
809.5196	382.5956	4552.6	3799.9
809.6631	384.7844	4513.7	3763.25
809.8066	386.9726	4435.15	3681.85
809.9501	389.1603	4420.5	3669.65
810.0936	391.3474	4424.4	3631
810.2371	393.5339	4384.9	3633.3
810.3806	395.7199	4382.55	3635.25
810.5241	397.9052	4411.85	3667.45
810.6677	400.09	4419.15	3671.85
810.8113	402.2743	4472.7	3728.45
810.9548	404.4579	4491.25	3745.6
811.0984	406.641	4528.4	3781.55
811.2421	408.8235	4572.55	3825.45
811.3857	411.0054	4616.45	3867.1
811.5293	413.1868	4716.85	3966.85
811.673	415.3675	4839.1	4085.15
811.8166	417.5477	4870.7	4114.55
811.9603	419.7273	4821.6	4064.85
812.104	421.9064	4665.6	3900.55
812.2477	424.0848	4568.6	3805.7
812.3914	426.2627	4507.6	3743.45
812.5351	428.4399	4453.1	3687.2
812.6788	430.6166	4408.55	3639.2
812.8226	432.7928	4358.4	3585.1
812.9663	434.9683	4307.25	3538.55
813.1101	437.1432	4287.95	3516.35
813.2539	439.3176	4271.25	3497.75
813.3977	441.4914	4256.5	3484.35
813.5415	443.6645	4246.95	3471.5
813.6853	445.8371	4258.8	3483.65
813.8291	448.0091	4237.35	3464
813.973	450.1806	4242.45	3465.45
814.1168	452.3514	4222.05	3442.2
814.2607	454.5216	4220.1	3432.5
814.4046	456.6913	4189.45	3410.15
814.5485	458.8603	4211.85	3431.3
814.6924	461.0288	4205.4	3426.5
814.8363	463.1967	4211.9	3434.1
814.9802	465.3639	4215	3435.25
815.1241	467.5306	4197.4	3417.6
815.2681	469.6967	4205.8	3426.3
815.412	471.8622	4180.25	3395.65
815.556	474.0271	4168.65	3384.9
815.7	476.1914	4180.4	3393.95
815.844	478.3551	4165.15	3380.5
815.988	480.5182	4164.3	3379.55
816.132	482.6807	4166.6	3382.15
816.276	484.8426	4192.6	3409.55
816.4201	487.0039	4236.15	3449.9
816.5641	489.1647	4246.7	3458.5
816.7082	491.3248	4308.8	3522.4
816.8522	493.4843	4312.9	3525.55
816.9963	495.6432	4306.35	3519.5
817.1404	497.8015	4281.4	3489.25
817.2845	499.9592	4253.85	3462.85
817.4286	502.1163	4210.25	3418.6
817.5727	504.2728	4183.05	3388.75
817.7168	506.4287	4149.85	3358.35
817.861	508.5839	4141.75	3351.05
818.0051	510.7386	4124.2	3332.1
818.1493	512.8927	4149.95	3349.8
818.2935	515.0461	4159	3363.5
818.4377	517.199	4147.05	3351.85
818.5818	519.3512	4176	3382.45
818.726	521.5029	4236.65	3435.15
818.8703	523.6539	4272.7	3474.9
819.0145	525.8043	4305.2	3506.85
819.1587	527.9541	4271.75	3471.75
819.303	530.1033	4206.05	3407.2
819.4472	532.2519	4162.15	3360.75
819.5915	534.3999	4147.3	3346.6
819.7357	536.5472	4129.95	3330.95
819.88	538.694	4133.65	3333.7
820.0243	540.8401	4150.25	3347.75
820.1686	542.9856	4165.25	3360.85
820.3129	545.1305	4161.55	3356.05
820.4572	547.2748	4177.6	3373.7
820.6016	549.4185	4185.1	3378.35
820.7459	551.5615	4183.9	3379.9
820.8902	553.704	4193.8	3387.05
821.0346	555.8458	4210.5	3405.05
821.1789	557.987	4232.05	3427.8
821.3233	560.1276	4262.15	3454.75
821.4677	562.2675	4314.5	3508.55
821.6121	564.4069	4356.55	3550.7
821.7565	566.5456	4402.6	3597.95
821.9009	568.6837	4397.05	3589.95
822.0453	570.8212	4317.3	3509.75
822.1897	572.958	4267.85	3455.55
822.3342	575.0942	4227.45	3417.35
822.4786	577.2299	4210.05	3398.7
822.6231	579.3648	4149.85	3340.4
822.7675	581.4992	4115.75	3305.5
822.912	583.6329	4116.35	3304.85
823.0565	585.766	4124.85	3314.45
823.201	587.8985	4144.45	3334.45
823.3454	590.0304	4192.75	3368
823.4899	592.1616	4232.6	3417
823.6345	594.2922	4223.5	3409.35
823.779	596.4222	4203.85	3388.35
823.9235	598.5515	4146.45	3328.65
824.068	600.6802	4109.4	3293.6
824.2126	602.8083	4053.95	3238
824.3571	604.9358	4034.25	3219.05
824.5017	607.0626	4042.15	3226.15
824.6462	609.1888	4038.3	3218.65
824.7908	611.3144	4047.7	3228.45
824.9354	613.4393	4076.15	3260.8
825.08	615.5636	4115.75	3295.6
825.2246	617.6873	4141.65	3321.75
825.3692	619.8103	4202.4	3381.7
825.5138	621.9327	4169.15	3346.85
825.6584	624.0544	4186.75	3366.95
825.803	626.1756	4127.5	3306.3
825.9477	628.2961	4078.1	3255.55
826.0923	630.4159	4045.35	3222.9
826.237	632.5351	4051.55	3230.5
826.3816	634.6537	4038.35	3216.45
826.5263	636.7716	4046.95	3224.05
826.6709	638.8889	4040.6	3217.05
826.8156	641.0056	4035.85	3211.15
826.9603	643.1216	4045.55	3221.25
827.105	645.237	4075.1	3247.1
827.2497	647.3518	4034.9	3209.75
827.3944	649.4659	4023.05	3197.6
827.5391	651.5793	3998.8	3173.45
827.6838	653.6922	3979.1	3152.75
827.8285	655.8043	3983.85	3157.1
827.9733	657.9159	3970.55	3143.45
828.118	660.0268	3945.3	3115.4
828.2627	662.137	3943.2	3114.7
828.4075	664.2466	3937.85	3105.85
828.5522	666.3556	3943.35	3114.25
828.697	668.4639	3924.35	3091.25
828.8418	670.5716	3930	3099.6
828.9865	672.6786	3938.65	3106.1
829.1313	674.785	3924.9	3090.65
829.2761	676.8907	3903.25	3072.6
829.4209	678.9958	3907.9	3077.6
829.5657	681.1002	3909.2	3076.25
829.7105	683.204	3897.9	3060.9
829.8553	685.3072	3903.9	3070.65
830.0001	687.4097	3903.7	3070.95
830.1449	689.5115	3905.8	3069.8
830.2898	691.6127	3901.05	3065.3
830.4346	693.7132	3889.35	3054.4
830.5794	695.8131	3906	3060.5
830.7243	697.9123	3901.85	3065.6
830.8691	700.0109	3900.1	3064
831.014	702.1089	3895.25	3058.8
831.1588	704.2061	3908.45	3071.6
831.3037	706.3028	3925.6	3085.85
831.4486	708.3987	3966.25	3130.6
831.5935	710.4941	3937.8	3100.1
831.7383	712.5887	3947.95	3109.65
831.8832	714.6827	3975.7	3133.3
832.0281	716.7761	3948.25	3112.7
832.173	718.8688	3933.9	3097.2
832.3179	720.9608	3937.85	3095.2
832.4628	723.0522	3941.15	3100.5
832.6077	725.1429	3954.9	3116.1
832.7527	727.233	3983.7	3143.65
832.8976	729.3224	4037.7	3196.8
833.0425	731.4112	4069.45	3227.55
833.1874	733.4993	4101.05	3258.05
833.3324	735.5867	4078.2	3232.75
833.4773	737.6735	4017.2	3172.15
833.6222	739.7596	3963.5	3119.05
833.7672	741.845	3925.7	3082.1
833.9122	743.9298	3938.15	3093.1
834.0571	746.014	3938.25	3094.75
834.2021	748.0974	3966.5	3119.35
834.347	750.1802	3968.15	3122.55
834.492	752.2624	3935.1	3090.35
834.637	754.3439	3908.55	3062.6
834.782	756.4247	3896.25	3041.5
834.9269	758.5048	3879.35	3033.8
835.0719	760.5843	3872.5	3025.4
835.2169	762.6631	3887.8	3041.05
835.3619	764.7413	3916.85	3073.45
835.5069	766.8188	3977.65	3131.35
835.6519	768.8956	4036.75	3185.55
835.7969	770.9718	4084.15	3236.15
835.9419	773.0473	4067.75	3221.45
836.0869	775.1221	4050.5	3202
836.232	777.1962	4010.15	3161.1
836.377	779.2697	4056.1	3207.55
836.522	781.3426	4158.4	3290.8
836.667	783.4147	4207.4	3357.35
836.8121	785.4862	4230	3382.45
836.9571	787.557	4157.7	3309.3
837.1021	789.6271	4051.55	3204.45
837.2472	791.6966	3920.5	3069.45
837.3922	793.7654	3819.95	2968.85
837.5373	795.8335	3770.65	2919
837.6823	797.901	3740.45	2892.35
837.8274	799.9678	3718.15	2864.15
837.9724	802.0339	3724.85	2874.5
838.1175	804.0993	3739.5	2878.35
838.2626	806.1641	3710.65	2858.25
838.4076	808.2282	3707.25	2854.8
838.5527	810.2916	3695.7	2842
838.6978	812.3544	3661.6	2810.8
838.8428	814.4164	3655.05	2804.55
838.9879	816.4778	3666.35	2815.75
839.133	818.5385	3661	2809.5
839.2781	820.5986	3679.7	2828.35
839.4232	822.658	3734.75	2880.7
839.5682	824.7166	3773.15	2918.8
839.7133	826.7747	3846.05	2992.65
839.8584	828.832	3885.95	3030.4
840.0035	830.8886	3942.1	3087.7
840.1486	832.9446	3973.45	3119.2
840.2937	834.9999	3950.15	3097.15
840.4388	837.0545	3901.2	3044.45
840.5839	839.1085	3821.2	2965.25
840.729	841.1618	3762.2	2902.95
840.8741	843.2143	3701.35	2844.45
841.0192	845.2662	3652.55	2799.3
841.1643	847.3175	3634.7	2779.85
841.3095	849.368	3626.7	2770.3
841.4546	851.4179	3617.5	2763.75
841.5997	853.467	3603.5	2747.95
841.7448	855.5155	3607.6	2751.15
841.8899	857.5633	3615.95	2761.75
842.0351	859.6105	3601	2745.7
842.1802	861.6569	3598.55	2742.6
842.3253	863.7027	3573.85	2716.2
842.4704	865.7478	3569.8	2712.55
842.6156	867.7922	3547.25	2690.2
842.7607	869.8359	3536.4	2677.35
842.9058	871.8789	3531.1	2672.5
843.0509	873.9212	3568.95	2679.6
843.1961	875.9629	3521.1	2666.35
843.3412	878.0039	3529.6	2669.85
843.4863	880.0441	3534.15	2676.05
843.6315	882.0837	3558	2699.8
843.7766	884.1226	3562.7	2701.35
843.9218	886.1609	3580	2723.65
844.0669	888.1984	3622.25	2766
844.212	890.2352	3664.9	2806.3
844.3572	892.2714	3682.55	2819.2
844.5023	894.3069	3678.5	2818.25
844.6475	896.3416	3619.45	2757.35
844.7926	898.3757	3564.35	2704.1
844.9377	900.4091	3533.3	2673.7
845.0829	902.4418	3530.65	2665.4
845.228	904.4739	3539.9	2675.05
845.3732	906.5052	3555.85	2692.55
845.5183	908.5358	3567.25	2704.75
845.6635	910.5658	3546.65	2684.4
845.8086	912.595	3508.1	2646.15
845.9538	914.6236	3470.45	2610.6
846.0989	916.6515	3449.9	2589.45
846.2441	918.6786	3423	2560.1
846.3892	920.7051	3414.5	2551.2
846.5344	922.7309	3413.65	2550.25
846.6795	924.756	3392.85	2528.35
846.8246	926.7804	3396.25	2531.1
846.9698	928.8041	3394.9	2530.05
847.1149	930.8272	3415.35	2552.45
847.2601	932.8495	3400.25	2535.85
847.4052	934.8711	3409.5	2545.95
847.5504	936.892	3409.8	2547
847.6955	938.9123	3410.4	2546.6
847.8407	940.9318	3439.6	2578.05
847.9858	942.9506	3442.9	2577.3
848.131	944.9688	3432.55	2567.2
848.2761	946.9862	3419.65	2555.9
848.4213	949.003	3396.75	2529.9
848.5664	951.019	3359.5	2493.25
848.7115	953.0344	3326.75	2461.6
848.8567	955.0491	3298.75	2431.9
849.0018	957.063	3288	2421.75
849.147	959.0763	3299.6	2428.95
849.2921	961.0888	3281.9	2414.85
849.4373	963.1007	3283.3	2418.7
849.5824	965.1119	3276.95	2411.8
849.7275	967.1223	3260.8	2393.85
849.8727	969.1321	3261.5	2394.85
850.0178	971.1412	3254.75	2387.5
850.1629	973.1495	3235.8	2369.6
850.3081	975.1572	3273.1	2360.9
850.4532	977.1641	3245.25	2379.2
850.5983	979.1704	3228.1	2361.45
850.7435	981.1759	3223.2	2353.35
850.8886	983.1808	3213.1	2344.75
851.0337	985.1849	3210.4	2333.5
851.1788	987.1884	3194.65	2324.85
851.324	989.1911	3188.2	2317.05
851.4691	991.1932	3199.9	2329.55
851.6142	993.1945	3182.5	2315.05
851.7593	995.1951	3176.95	2309.85
851.9045	997.1951	3184.05	2309.75
852.0496	999.1943	3149.85	2281.45
852.1947	1001.1928	3152.25	2281.55
852.3398	1003.1906	3138.6	2271.45
852.4849	1005.1877	3168.35	2297.65
852.63	1007.1841	3172.6	2305
852.7751	1009.1798	3175.8	2307.65
852.9202	1011.1748	3176.75	2311.8
853.0653	1013.1691	3157.7	2287.8
853.2104	1015.1627	3119.3	2248.75
853.3555	1017.1556	3080.2	2211.8
853.5006	1019.1477	3059.55	2188.85
853.6457	1021.1392	3033.4	2163.85
853.7908	1023.1299	3023.05	2155.95
853.9359	1025.12	3012.25	2140.8
854.081	1027.1093	3003.55	2135.1
854.2261	1029.0979	3002.55	2135.2
854.3712	1031.0859	3028.1	2160.1
854.5163	1033.0731	3046.95	2177.4
854.6613	1035.0596	3023.4	2152.9
854.8064	1037.0454	3019.2	2149.15
854.9515	1039.0304	3000.3	2129.85
855.0965	1041.0148	2992.35	2121.15
855.2416	1042.9985	2952.85	2082.5
855.3867	1044.9814	2927.45	2057.7
855.5317	1046.9636	2929.9	2056.85
855.6768	1048.9452	2930.05	2061.3
855.8219	1050.926	2918.8	2048.8
855.9669	1052.9061	2926.2	2056.5
856.112	1054.8855	2936.65	2066.2
856.257	1056.8642	2953.45	2083.85
856.4021	1058.8421	2951.15	2076.05
856.5471	1060.8194	2928.5	2055.35
856.6921	1062.7959	2921.2	2050.1
856.8372	1064.7717	2922.15	2046.7
856.9822	1066.7469	2913.2	2040.4
857.1272	1068.7213	2910.5	2038.75
857.2723	1070.695	2923.15	2050.6
857.4173	1072.6679	2926.9	2052.6
857.5623	1074.6402	2938.15	2065.1
857.7073	1076.6117	2962.8	2082.95
857.8523	1078.5826	2939.75	2067.25
857.9973	1080.5527	2891.25	2016.4
858.1423	1082.5221	2876.3	2004.7
858.2873	1084.4908	2843.4	1970.3
858.4323	1086.4587	2819.3	1942.55
858.5773	1088.426	2806.1	1935.1
858.7223	1090.3925	2804	1923.25
858.8673	1092.3584	2803.6	1930.55
859.0123	1094.3235	2786.45	1913.95
859.1573	1096.2879	2802.8	1929.1
859.3022	1098.2515	2815.75	1942.55
859.4472	1100.2145	2843.4	1969.85
859.5922	1102.1767	2853.75	1978.9
859.7371	1104.1382	2885.4	2012.25
859.8821	1106.099	2931.1	2056.35
860.027	1108.0591	2961.1	2088.1
860.172	1110.0185	2988.95	2111.1
860.3169	1111.9771	3029	2153.9
860.4619	1113.9351	3044.2	2171.35
860.6068	1115.8923	3093.5	2217.05
860.7517	1117.8488	3136.35	2261.9
860.8967	1119.8045	3109.3	2236.1
861.0416	1121.7596	3036.95	2161.55
861.1865	1123.7139	2937	2065.15
861.3314	1125.6675	2883.35	2008.85
861.4763	1127.6204	2859.5	1985.95
861.6212	1129.5726	2865.85	1986.7
861.7661	1131.524	2878.4	2004.1
861.911	1133.4748	2842.45	1968.3
862.0559	1135.4248	2793.7	1915.15
862.2008	1137.3741	2733.25	1857.25
862.3457	1139.3226	2711.35	1832.75
862.4905	1141.2705	2698.75	1823.05
862.6354	1143.2176	2704.2	1822.65
862.7803	1145.164	2698.45	1820.7
862.9251	1147.1097	2708.95	1832.5
863.07	1149.0546	2699.55	1823.65
863.2148	1150.9989	2667.05	1789.3
863.3597	1152.9424	2643.4	1766.65
863.5045	1154.8852	2633.8	1756.4
863.6493	1156.8272	2626.75	1751.65
863.7942	1158.7686	2629.65	1745.75
863.939	1160.7092	2620	1742.3
864.0838	1162.6491	2607.75	1730.55
864.2286	1164.5883	2611.95	1735.5
864.3734	1166.5267	2621.85	1742.55
864.5182	1168.4644	2632.2	1754.5
864.663	1170.4014	2661.05	1780.8
864.8078	1172.3377	2695.6	1820.35
864.9526	1174.2732	2720.9	1844.1
865.0974	1176.2081	2788.45	1910.4
865.2421	1178.1421	2858.2	1976.7
865.3869	1180.0755	2981.8	2105.1
865.5317	1182.0082	3053.75	2177.05
865.6764	1183.9401	3069.7	2188.55
865.8212	1185.8713	3006.95	2131.2
865.9659	1187.8017	2874.75	1998.55
866.1106	1189.7315	2779.8	1905.65
866.2554	1191.6605	2703.45	1825.9
866.4001	1193.5888	2642.55	1766.6
866.5448	1195.5163	2627.95	1750.3
866.6895	1197.4432	2583.35	1706.5
866.8342	1199.3693	2560.6	1685.3
866.9789	1201.2947	2545.65	1660.55
867.1236	1203.2193	2537.6	1661.05
867.2683	1205.1432	2528.4	1649.9
867.413	1207.0664	2513.8	1635.9
867.5576	1208.9889	2504.35	1622.65
867.7023	1210.9106	2512	1634.4
867.847	1212.8316	2498.25	1621
867.9916	1214.7519	2514.2	1627
868.1363	1216.6715	2513.35	1635.85
868.2809	1218.5903	2531.45	1653.2
868.4255	1220.5084	2529.45	1652.5
868.5701	1222.4257	2541.95	1663.3
868.7148	1224.3424	2537.3	1661.65
868.8594	1226.2583	2549.2	1665.9
869.004	1228.1735	2571.9	1691.7
869.1486	1230.0879	2585.4	1706.55
869.2932	1232.0016	2607.8	1728.5
869.4377	1233.9146	2644.8	1764.3
869.5823	1235.8269	2648.75	1770.25
869.7269	1237.7384	2669.1	1791.05
869.8715	1239.6492	2640.55	1761.45
870.016	1241.5592	2656.3	1778.45
870.1606	1243.4686	2674	1793.2
870.3051	1245.3772	2730.5	1853.6
870.4496	1247.285	2785.25	1906.4
870.5941	1249.1922	2870.95	1989.5
870.7387	1251.0986	2924.7	2047.65
870.8832	1253.0042	2959.45	2079.05
871.0277	1254.9092	3035.75	2158.4
871.1722	1256.8134	3117.7	2238.4
871.3167	1258.7169	3205.5	2325.65
871.4611	1260.6196	3274	2396.15
871.6056	1262.5216	3323	2439.75
871.7501	1264.4229	3311.25	2432.35
871.8945	1266.3234	3296	2414.35
872.039	1268.2232	3249.65	2369.05
872.1834	1270.1223	3176.45	2294.7
872.3278	1272.0207	3143.75	2263.85
872.4723	1273.9183	3120.95	2235.35
872.6167	1275.8151	3107.25	2229.5
872.7611	1277.7113	3138.65	2256.6
872.9055	1279.6067	3185.75	2307.1
873.0499	1281.5014	3294.55	2412.1
873.1943	1283.3953	3441.4	2559.1
873.3386	1285.2885	3638.05	2758.05
873.483	1287.181	3795.5	2912.1
873.6274	1289.0727	3888.9	3007.4
873.7717	1290.9637	3840.1	2958.1
873.9161	1292.854	3736.65	2855.2
874.0604	1294.7435	3598.6	2719
874.2047	1296.6323	3476.95	2594.05
874.349	1298.5204	3367.85	2482.8
874.4933	1300.4077	3275.35	2392.15
874.6376	1302.2943	3230.75	2348.9
874.7819	1304.1802	3185.2	2306.75
874.9262	1306.0653	3146.5	2264.25
875.0705	1307.9497	3121.55	2239.3
875.2147	1309.8333	3102.55	2220.85
875.359	1311.7162	3074.3	2192.5
875.5032	1313.5984	3056.45	2174.75
875.6475	1315.4798	3059.9	2161.3
875.7917	1317.3605	3044.45	2154.75
875.9359	1319.2405	3061.1	2176.55
876.0801	1321.1197	3061.9	2179.4
876.2243	1322.9982	3047.75	2163.1
876.3685	1324.876	2999.95	2118.45
876.5127	1326.753	2922.25	2040.5
876.6569	1328.6293	2849.7	1967.55
876.801	1330.5048	2759.45	1875.3
876.9452	1332.3796	2681.25	1799.5
877.0893	1334.2537	2632.25	1728.6
877.2335	1336.127	2572.8	1690.6
877.3776	1337.9996	2539.85	1657.45
877.5217	1339.8714	2496.85	1615
877.6658	1341.7426	2522.65	1596.95
877.8099	1343.6129	2471.1	1589.6
877.954	1345.4826	2453.8	1574.1
878.0981	1347.3515	2438.3	1554.55
878.2422	1349.2196	2432.25	1549.55
878.3862	1351.087	2415.4	1532.35
878.5303	1352.9537	2412.6	1532.6
878.6743	1354.8197	2407.15	1525.1
878.8184	1356.6849	2416.1	1533.25
878.9624	1358.5493	2422.8	1540.6
879.1064	1360.4131	2433.1	1553.85
879.2504	1362.276	2458.6	1577.4
879.3944	1364.1383	2492.45	1609.35
879.5384	1365.9998	2519.05	1631.8
879.6823	1367.8606	2504.85	1621.55
879.8263	1369.7206	2483.55	1602.75
879.9702	1371.5799	2492.35	1609.65
880.1142	1373.4384	2480	1596.1
880.2581	1375.2962	2474.9	1593.45
880.402	1377.1533	2421.25	1539.4
880.5459	1379.0096	2384.05	1501.3
880.6898	1380.8652	2352.35	1471.35
880.8337	1382.7201	2316.05	1433.5
880.9776	1384.5742	2293.15	1409.65
881.1215	1386.4275	2257.1	1375.4
881.2653	1388.2802	2245.75	1365.15
881.4092	1390.132	2224.55	1341.6
881.553	1391.9832	2228.3	1343.7
881.6968	1393.8336	2207.75	1326.55
881.8406	1395.6832	2207.8	1322.1
881.9844	1397.5322	2187.45	1305.1
882.1282	1399.3803	2199.55	1311.4
882.272	1401.2278	2174.75	1292.75
882.4158	1403.0745	2164.3	1279.75
882.5595	1404.9204	2153.65	1271.2
882.7033	1406.7656	2140.8	1257.8
882.847	1408.6101	2141.25	1256.95
882.9908	1410.4538	2128.8	1245.45
883.1345	1412.2968	2133.05	1248.2
883.2782	1414.139	2126.9	1243.9
883.4219	1415.9805	2138.95	1256.75
883.5656	1417.8213	2155.35	1249.55
883.7092	1419.6613	2143.3	1260.45
883.8529	1421.5006	2170.65	1286.55
883.9965	1423.3391	2195	1311.35
884.1402	1425.1769	2228.35	1347.3
884.2838	1427.0139	2301.2	1418.55
884.4274	1428.8502	2376.7	1492.9
884.571	1430.6858	2439.05	1555.6
884.7146	1432.5206	2451.05	1567.95
884.8582	1434.3547	2456.05	1572.7
885.0018	1436.188	2427.5	1543.55
885.1453	1438.0206	2420.3	1537.15
885.2889	1439.8524	2409.9	1525.95
885.4324	1441.6835	2399.55	1515.8
885.5759	1443.5139	2402.7	1517.1
885.7194	1445.3435	2391.9	1509.65
885.8629	1447.1724	2390.25	1508.4
886.0064	1449.0005	2399.75	1515.7
886.1499	1450.8279	2385.45	1498.15
886.2933	1452.6545	2378.7	1494.7
886.4368	1454.4804	2378.6	1497.5
886.5802	1456.3056	2382.2	1490.45
886.7237	1458.13	2354.85	1471.4
886.8671	1459.9536	2322.65	1438.6
887.0105	1461.7766	2313	1429.9
887.1539	1463.5987	2273.8	1388.4
887.2972	1465.4202	2227.8	1343.15
887.4406	1467.2409	2198.45	1314.3
887.584	1469.0608	2172.7	1288.15
887.7273	1470.88	2147.25	1264.3
887.8706	1472.6984	2122.6	1241
888.0139	1474.5161	2101.95	1214.35
888.1572	1476.3331	2078.95	1195.7
888.3005	1478.1493	2060.05	1175.55
888.4438	1479.9648	2061.55	1177
888.5871	1481.7795	2062.4	1177
888.7303	1483.5935	2054.2	1171.65
888.8736	1485.4067	2053	1169.4
889.0168	1487.2192	2062.35	1177.8
889.16	1489.031	2052	1166.55
889.3032	1490.842	2061.75	1179.15
889.4464	1492.6522	2060.3	1174.8
889.5896	1494.4618	2049.3	1164.7
889.7327	1496.2705	2050.6	1166.4
889.8759	1498.0785	2052.65	1166.3
890.019	1499.8858	2034.65	1150.65
890.1622	1501.6924	2019	1136.6
890.3053	1503.4981	2027.95	1144.95
890.4484	1505.3032	2016.25	1131.65
890.5914	1507.1075	2012	1130.55
890.7345	1508.911	1992.65	1109.8
890.8776	1510.7138	1998.4	1113.5
891.0206	1512.5159	1988.15	1104
891.1637	1514.3172	1990.1	1107.2
891.3067	1516.1178	1972.35	1087.05
891.4497	1517.9176	1972.7	1086.7
891.5927	1519.7166	1951.1	1067.45
891.7357	1521.515	1949.4	1056.6
891.8786	1523.3126	1949.55	1063.65
892.0216	1525.1094	1947.1	1060.25
892.1645	1526.9055	1934.65	1052.75
892.3074	1528.7008	1932.7	1047
892.4503	1530.4954	1921.75	1030.4
892.5932	1532.2893	1921.3	1038.75
892.7361	1534.0824	1918.95	1028.75
892.879	1535.8747	1919.5	1035.35
893.0218	1537.6663	1911.3	1028.25
893.1647	1539.4572	1907.55	1021
893.3075	1541.2473	1907.8	1024.05
893.4503	1543.0367	1896.75	1011.6
893.5931	1544.8253	1896.4	1009.05
893.7359	1546.6132	1903.9	1016.05
893.8787	1548.4003	1916.45	1021.85
894.0214	1550.1867	1908.75	1017.75
894.1642	1551.9723	1906.95	1016.85
894.3069	1553.7572	1919.5	1034.7
894.4496	1555.5414	1930.45	1044.55
894.5923	1557.3247	1945.35	1059.7
894.735	1559.1074	1976.4	1094.65
894.8777	1560.8893	2009.8	1124.95
895.0204	1562.6705	2041.2	1158.4
895.163	1564.4509	2055.25	1171.55
895.3056	1566.2305	2086.8	1203.95
895.4482	1568.0094	2088.15	1206.1
895.5908	1569.7876	2083.75	1200.7
895.7334	1571.565	2071.35	1185.7
895.876	1573.3417	2078.8	1196.4
896.0186	1575.1176	2081.15	1198.5
896.1611	1576.8928	2100.35	1214.4
896.3036	1578.6672	2113.8	1230
896.4461	1580.4409	2122.5	1238.75
896.5886	1582.2138	2153.65	1267.3
896.7311	1583.986	2208.25	1323.35
896.8736	1585.7575	2236.05	1353.25
897.0161	1587.5282	2273.6	1391
897.1585	1589.2981	2291.55	1408.5
897.3009	1591.0673	2303.65	1419.85
897.4433	1592.8358	2316.5	1432
897.5857	1594.6035	2320.9	1434.6
897.7281	1596.3704	2302.85	1418.75
897.8705	1598.1366	2261.25	1376.65
898.0128	1599.9021	2246.05	1362.9
898.1551	1601.6668	2211.05	1324.7
898.2975	1603.4308	2195.4	1309.95
898.4398	1605.194	2183.45	1296.05
898.5821	1606.9564	2201.4	1318.4
898.7243	1608.7182	2236.85	1348.45
898.8666	1610.4791	2303.8	1419.7
899.0088	1612.2394	2396.85	1512.55
899.1511	1613.9988	2495.65	1610.55
899.2933	1615.7576	2601.1	1715.35
899.4355	1617.5156	2651.15	1762.25
899.5776	1619.2728	2639.9	1756.05
899.7198	1621.0293	2566.1	1684.85
899.862	1622.785	2464.95	1579.65
900.0041	1624.54	2352.35	1466.05
900.1462	1626.2942	2233.7	1349.25
900.2883	1628.0477	2120.75	1233.95
900.4304	1629.8005	2054.95	1167.45
900.5725	1631.5525	1969.5	1085.35
900.7145	1633.3037	1914.8	1030.15
900.8566	1635.0542	1872.5	988.15
900.9986	1636.804	1845.75	960.75
901.1406	1638.553	1858.6	925.45
901.2826	1640.3013	1797.75	914.1
901.4245	1642.0488	1780.05	895.7
901.5665	1643.7955	1761.4	877.2
901.7085	1645.5416	1752.8	869.15
901.8504	1647.2868	1733.1	849.85
901.9923	1649.0313	1723.05	839.1
902.1342	1650.7751	1721.65	832.35
902.2761	1652.5181	1726.35	841.85
902.4179	1654.2604	1711	827.85
902.5598	1656.0019	1710.15	826.55
902.7016	1657.7427	1728.45	844.85
902.8434	1659.4828	1736	851.15
902.9852	1661.222	1761.1	875.85
903.127	1662.9606	1794	910.4
903.2687	1664.6984	1828.35	943.45
903.4105	1666.4354	1847	962.7
903.5522	1668.1717	1843.4	958.1
903.6939	1669.9072	1810.55	926
903.8356	1671.642	1765.3	879
903.9773	1673.3761	1712.8	828.45
904.119	1675.1094	1680.9	794.65
904.2606	1676.8419	1651.6	766.85
904.4022	1678.5737	1642.2	760.1
904.5439	1680.3048	1624.65	739.3
904.6855	1682.0351	1621.6	735.3
904.827	1683.7646	1619.75	731.5
904.9686	1685.4934	1611.05	726.65
905.1101	1687.2215	1597.95	713.3
905.2517	1688.9488	1596.05	711.85
905.3932	1690.6754	1586.15	702.45
905.5347	1692.4012	1586.85	701.5
905.6761	1694.1263	1580.15	693.95
905.8176	1695.8506	1581.25	695.65
905.9591	1697.5742	1579.35	695.8
906.1005	1699.297	1565.5	681.55
906.2419	1701.0191	1567.6	683.65
906.3833	1702.7404	1566.9	682.25
906.5246	1704.461	1559.9	675.1
906.666	1706.1808	1552.4	666.5
906.8073	1707.8999	1545	656.45
906.9487	1709.6182	1543.15	660.05
907.09	1711.3358	1543.75	657.9
907.2313	1713.0527	1537.4	655.7
907.3725	1714.7688	1539.55	651.45
907.5138	1716.4841	1534.55	646.85
907.655	1718.1987	1535.95	647.25
907.7962	1719.9126	1531.75	649.8
907.9374	1721.6257	1536.2	649.9
908.0786	1723.338	1522.25	636.75
908.2198	1725.0496	1529.4	645.4
908.3609	1726.7605	1528.7	642.6
908.502	1728.4706	1524.7	638.45
908.6431	1730.18	1527.4	639.35
908.7842	1731.8886	1521.5	639.65
908.9253	1733.5964	1522.95	630.9
909.0664	1735.3036	1518.95	630.25
909.2074	1737.0099	1521.55	637.85
909.3484	1738.7156	1512.85	629.25
909.4894	1740.4204	1515.75	629.3
909.6304	1742.1246	1505	618.6
909.7714	1743.8279	1513.3	628.5
909.9123	1745.5306	1511.8	626.25
910.0532	1747.2325	1504.75	620.1
910.1941	1748.9336	1492.85	607.9
910.335	1750.634	1499.6	614.4
910.4759	1752.3336	1497.95	614
910.6168	1754.0325	1496.85	614.25
910.7576	1755.7307	1497.2	613.2
910.8984	1757.4281	1491.45	606.8
911.0392	1759.1247	1493.45	598.9
911.18	1760.8206	1494.15	603.55
911.3208	1762.5158	1496.35	608.8
911.4615	1764.2102	1486.05	602.15
911.6022	1765.9039	1483.8	598.6
911.7429	1767.5968	1479.15	593.7
911.8836	1769.289	1485.6	601.15
912.0243	1770.9804	1481.65	596.3
912.1649	1772.6711	1483.45	597.9
912.3056	1774.361	1474.1	587.5
912.4462	1776.0502	1477.8	593.6
912.5868	1777.7386	1480.75	592.75
912.7274	1779.4263	1480.55	595.95
912.8679	1781.1132	1470.85	585.85
913.0084	1782.7994	1466.35	579.7
913.149	1784.4849	1465.1	580.1
913.2895	1786.1696	1471	577.8
913.4299	1787.8535	1472.7	587.85
913.5704	1789.5367	1461.35	576.35
913.7108	1791.2192	1464.45	580.15
913.8513	1792.9009	1481.15	568.6
913.9917	1794.5818	1463.5	575.35
914.132	1796.2621	1459.05	575.1
914.2724	1797.9415	1462	575.9
914.4128	1799.6202	1458.3	573.25
914.5531	1801.2982	1448.5	562.85
914.6934	1802.9755	1457.8	571.3
914.8337	1804.6519	1449.8	565.9
914.9739	1806.3277	1448.9	564.05
915.1142	1808.0027	1438.65	555.25
915.2544	1809.6769	1444.65	559.75
915.3946	1811.3504	1443.5	556.85
915.5348	1813.0231	1442.3	556.3
915.675	1814.6951	1436.35	551.3
915.8151	1816.3664	1443.45	555.8
915.9553	1818.0369	1439.4	553.95
916.0954	1819.7067	1431.35	546.6
916.2355	1821.3757	1435.85	549.3
916.3755	1823.044	1430.5	545.5
916.5156	1824.7115	1428	543.05
916.6556	1826.3783	1420.6	538.7
916.7956	1828.0443	1420.25	537.2
916.9356	1829.7096	1431.4	544.35
917.0756	1831.3741	1435.5	547.7
917.2155	1833.0379	1429.25	545.65
917.3555	1834.701	1423.1	534.85
917.4954	1836.3633	1416.95	530.6
917.6353	1838.0248	1422.15	534.25
917.7751	1839.6856	1420.1	533.55
917.915	1841.3457	1418.3	534.5
918.0548	1843.005	1419.2	534.45
918.1946	1844.6636	1413.75	529.45
918.3344	1846.3214	1413.1	528.8
918.4742	1847.9785	1418.6	534.9
918.6139	1849.6349	1418.55	533.9
918.7537	1851.2904	1418.95	526.7
918.8934	1852.9453	1415.75	528.6
919.0331	1854.5994	1409.85	522.05
919.1727	1856.2528	1418.3	528.25
919.3124	1857.9054	1407.7	522.15
919.452	1859.5572	1402.95	519.65
919.5916	1861.2083	1408.8	523.05
919.7312	1862.8587	1400.65	517.2
919.8708	1864.5084	1396.4	510.2
920.0103	1866.1572	1399.35	515.35
920.1498	1867.8054	1397.6	513.3
920.2893	1869.4528	1400.9	515.55
920.4288	1871.0994	1398.25	514.25
920.5683	1872.7453	1391	504.5
920.7077	1874.3905	1396.45	503.25
920.8471	1876.0349	1393.2	508.1
920.9865	1877.6786	1399.1	511.45
921.1259	1879.3215	1394.85	509.25
921.2653	1880.9637	1396.3	510.4
921.4046	1882.6051	1386	503.7
921.5439	1884.2458	1383.7	498.35
921.6832	1885.8858	1387.1	501.8
921.8225	1887.525	1380.9	494.55
921.9617	1889.1634	1390.4	505.05
922.101	1890.8011	1381.05	494.6
922.2402	1892.4381	1382.4	499.1
922.3794	1894.0743	1372.55	488.6
922.5185	1895.7098	1385.65	502.75
922.6577	1897.3446	1378.35	492.9
922.7968	1898.9786	1379.15	489.8
922.9359	1900.6118	1376.25	493.15
923.075	1902.2443	1374.85	490.1
923.214	1903.8761	1374.1	488.9
923.3531	1905.5071	1375.6	488.75
923.4921	1907.1374	1372.55	486.45
923.6311	1908.7669	1366.75	481.55
923.77	1910.3957	1369.3	482.55
923.909	1912.0237	1358.55	475.25
924.0479	1913.651	1357.4	470.55
924.1868	1915.2776	1356.95	474.05
924.3257	1916.9034	1359.5	476.6
924.4646	1918.5285	1356.55	472.7
924.6034	1920.1528	1352.6	467.2
924.7422	1921.7764	1352.2	467.25
924.881	1923.3992	1352.7	467.3
925.0198	1925.0213	1349.95	465.15
925.1586	1926.6427	1347	462.1
925.2973	1928.2633	1411.75	458.55
925.436	1929.8832	1353.7	466.95
925.5747	1931.5023	1350.3	465.05
925.7134	1933.1207	1345.65	460.45
925.852	1934.7383	1344.2	458.6
925.9906	1936.3552	1339.5	454.85
926.1292	1937.9714	1346.7	461.75
926.2678	1939.5868	1347.35	460.75
926.4064	1941.2015	1339.75	455.6
926.5449	1942.8154	1340.6	454.8
926.6834	1944.4286	1339.4	454.75
926.8219	1946.041	1356.25	448.35
926.9604	1947.6528	1329.9	437.3
927.0988	1949.2637	1325.5	440.55
927.2372	1950.8739	1327.1	441.15
927.3756	1952.4834	1326.1	439.4
927.514	1954.0921	1330.5	444
927.6523	1955.7001	1323.2	434.8
927.7907	1957.3074	1325.25	441.4
927.929	1958.9139	1318.95	435.1
928.0673	1960.5197	1325.95	438.1
928.2055	1962.1247	1317.3	433.5
928.3438	1963.729	1316.7	432.3
928.482	1965.3325	1333.1	425.65
928.6202	1966.9353	1317.75	432.8
928.7584	1968.5374	1316.3	429.7
928.8965	1970.1387	1316.25	432.5
929.0346	1971.7393	1314.7	427.15
929.1727	1973.3392	1304.9	420.3
929.3108	1974.9383	1304.75	420.4
929.4489	1976.5366	1305.6	418.6
929.5869	1978.1342	1308.7	423.55
929.7249	1979.7311	1308	421.2
929.8629	1981.3273	1299.8	416.6
930.0009	1982.9227	1307	420
930.1388	1984.5173	1303	419.6
930.2767	1986.1112	1300.6	416.1
930.4146	1987.7044	1296.55	412.2
930.5525	1989.2968	1297.95	413.15
930.6904	1990.8885	1298.85	411.55
930.8282	1992.4795	1293.5	405.65
930.966	1994.0697	1288.9	404.1
931.1038	1995.6592	1291.3	407.6
931.2415	1997.2479	1288.05	403.25
931.3793	1998.8359	1290.75	405.5
931.517	2000.4232	1289.05	405.45
931.6547	2002.0097	1288.7	405.9
931.7923	2003.5955	1284.85	400.4
931.93	2005.1805	1287.55	403.35
932.0676	2006.7648	1283.55	398.75
932.2052	2008.3484	1282.25	395.75
932.3427	2009.9312	1284.9	398.85
932.4803	2011.5133	1288.3	403.9
932.6178	2013.0946	1284.45	399.5
932.7553	2014.6752	1275.35	390.95
932.8928	2016.2551	1281.4	395.2
933.0302	2017.8342	1279.65	394.2
933.1676	2019.4126	1272.8	388.1
933.305	2020.9902	1269.3	386.05
933.4424	2022.5672	1272.6	387.55
933.5798	2024.1433	1280.65	390.75
933.7171	2025.7188	1269	387.45
933.8544	2027.2935	1271	388.3
933.9917	2028.8674	1273.75	388.85
934.129	2030.4406	1270.25	387.4
934.2662	2032.0131	1264.7	382.5
934.4034	2033.5849	1268.7	381.55
934.5406	2035.1559	1271.9	388
934.6778	2036.7261	1270.85	388.15
934.8149	2038.2957	1266.6	382.9
934.952	2039.8645	1267.8	383.4
935.0891	2041.4325	1273.9	387.25
935.2262	2042.9998	1261.45	377.85
935.3632	2044.5664	1265.55	378.3
935.5002	2046.1323	1260.75	377
935.6372	2047.6974	1261.3	376.55
935.7742	2049.2617	1264.45	380.75
935.9111	2050.8254	1281.35	376.6
936.048	2052.3883	1264.15	378.05
936.1849	2053.9504	1259.85	375.7
936.3218	2055.5118	1258.15	373.3
936.4586	2057.0725	1258.95	370.1
936.5955	2058.6325	1256.85	372.65
936.7323	2060.1917	1250.95	368.2
936.869	2061.7502	1263.6	377.25
937.0058	2063.3079	1248.95	366.05
937.1425	2064.8649	1252.8	364.15
937.2792	2066.4212	1255.15	369.6
937.4159	2067.9767	1252.05	369.4
937.5525	2069.5315	1250.95	368.2
937.6891	2071.0856	1253.75	370.5
937.8257	2072.6389	1249.6	365.3
937.9623	2074.1915	1246.9	365.3
938.0989	2075.7433	1246.75	360.9
938.2354	2077.2945	1244.6	362.7
938.3719	2078.8448	1240.1	355.75
938.5084	2080.3945	1241.95	358.95
938.6448	2081.9434	1244.8	360.8
938.7812	2083.4916	1239.25	354.05
938.9176	2085.039	1236.55	351.65
939.054	2086.5857	1237.9	352.8
939.1903	2088.1317	1240.25	356.2
939.3267	2089.677	1238.55	352.3
939.463	2091.2215	1237.2	352.2
939.5992	2092.7652	1241.2	356
939.7355	2094.3083	1238.45	352.55
939.8717	2095.8506	1234.25	349.85
940.0079	2097.3921	1230.85	348.2
940.1441	2098.933	1234.7	350.35
940.2802	2100.4731	1234	348.8
940.4163	2102.0124	1254.4	352.6
940.5524	2103.5511	1236.8	352.95
940.6885	2105.089	1236.5	352.15
940.8245	2106.6261	1235.2	349.65
940.9606	2108.1626	1229.45	345.3
941.0965	2109.6983	1259.45	344.75
941.2325	2111.2332	1228.2	343.45
941.3684	2112.7675	1230.25	345.95
941.5044	2114.301	1224.55	337.85
941.6403	2115.8337	1227.7	343.05
941.7761	2117.3657	1229.35	346.95
941.912	2118.897	1229.15	343.85
942.0478	2120.4276	1238.55	348.05
942.1835	2121.9575	1228.5	343.15
942.3193	2123.4866	1244.5	345.35
942.455	2125.0149	1225.05	336.75
942.5907	2126.5426	1227.05	343.05
942.7264	2128.0695	1221.85	332.15
942.8621	2129.5956	1219.2	336.7
942.9977	2131.1211	1225.6	336.35
943.1333	2132.6458	1226.3	343.45
943.2689	2134.1698	1222.5	339.55
943.4044	2135.693	1223.6	338.45
943.54	2137.2155	1225.55	340.65
943.6755	2138.7373	1218.15	332.65
943.8109	2140.2584	1222.55	338.25
943.9464	2141.7787	1223.45	332.8
944.0818	2143.2983	1211.35	326.65
944.2172	2144.8171	1204.45	322.05
944.3526	2146.3353	1212.75	326.75
944.4879	2147.8527	1214.2	330.1
944.6232	2149.3693	1216.05	332.75
944.7585	2150.8853	1218.75	333.7
944.8938	2152.4005	1210.3	328.5
945.029	2153.9149	1209.55	324.15
945.1642	2155.4287	1313.9	325.7
945.2994	2156.9417	1216.15	329.6
945.4346	2158.454	1209.6	323.85
945.5697	2159.9655	1208.7	324.85
945.7048	2161.4764	1216.65	331.65
945.8399	2162.9865	1201.45	317.05
945.9749	2164.4958	1202.3	316.9
946.1099	2166.0045	1207.5	320.8
946.2449	2167.5124	1203.5	321.65
946.3799	2169.0195	1202.9	319.15
946.5148	2170.526	1202.7	318.7
946.6498	2172.0317	1203.1	319.2
946.7846	2173.5367	1203.65	319.45
946.9195	2175.0409	1197.85	313.35
947.0543	2176.5445	1202.6	318.5
947.1891	2178.0473	1203.45	318.85
947.3239	2179.5494	1198.95	309.35
947.4587	2181.0507	1200.55	316.1
947.5934	2182.5513	1189.8	305.6
947.7281	2184.0512	1199.95	316
947.8628	2185.5504	1198.65	315.7
947.9974	2187.0488	1194.65	310.8
948.132	2188.5465	1190.95	304.25
948.2666	2190.0435	1194.8	309.8
948.4012	2191.5397	1190.65	305.55
948.5357	2193.0353	1191.25	308.5
948.6702	2194.5301	1186.05	299.7
948.8047	2196.0241	1192.45	306.85
948.9392	2197.5175	1191.7	308.85
949.0736	2199.0101	1188.85	300.3
949.208	2200.502	1181.9	299.75
949.3424	2201.9931	1185.05	300.45
949.4767	2203.4835	1177.45	291.4
949.611	2204.9733	1198.65	298
949.7453	2206.4622	1182.1	297.9
949.8796	2207.9505	1179.85	292.75
950.0138	2209.438	1182.25	300.65
950.148	2210.9248	1177.1	290.9
950.2822	2212.4109	1182.35	299.3
950.4164	2213.8962	1178.3	293.2
950.5505	2215.3809	1178.6	292.85
950.6846	2216.8648	1173.65	288.8
950.8186	2218.3479	1178.7	288.8
950.9527	2219.8304	1181.15	293.1
951.0867	2221.3121	1172.45	285.6
951.2207	2222.7931	1170.3	285.95
951.3546	2224.2733	1170.4	286.85
951.4886	2225.7529	1164.8	279.1
951.6225	2227.2317	1176.9	289.7
951.7563	2228.7098	1170.5	285.4
951.8902	2230.1872	1165.95	282.8
952.024	2231.6638	1172.55	287.9
952.1578	2233.1397	1165.85	276.85
952.2916	2234.6149	1166.1	282.4
952.4253	2236.0894	1162.8	277.4
952.559	2237.5632	1164.85	278
952.6927	2239.0362	1165	282.2
952.8263	2240.5085	1160.6	275.15
952.9599	2241.9801	1159.95	274.2
953.0935	2243.4509	1161.3	277.6
953.2271	2244.921	1162.4	278.25
953.3606	2246.3904	1157.75	271.1
953.4941	2247.8591	1156.4	272.05
953.6276	2249.3271	1155.35	272.15
953.7611	2250.7943	1152.55	266.35
953.8945	2252.2608	1153.15	269.45
954.0279	2253.7266	1152.4	268.45
954.1612	2255.1917	1155.25	270.6
954.2946	2256.656	1149.6	262.85
954.4279	2258.1197	1147.55	263.35
954.5612	2259.5826	1151.6	265.6
954.6944	2261.0447	1147.8	264.5
954.8276	2262.5062	1153.75	268.55
954.9608	2263.9669	1147.35	262
955.094	2265.4269	1151.8	267.5
955.2271	2266.8862	1148.7	263.95
955.3602	2268.3448	1152.2	268.45
955.4933	2269.8026	1143.85	260.25
955.6264	2271.2598	1144.5	260.35
955.7594	2272.7162	1143.95	261.75
955.8924	2274.1719	1140.6	255.95
956.0253	2275.6268	1144.25	261.65
956.1583	2277.0811	1141.3	255.25
956.2912	2278.5346	1141.65	256.65
956.4241	2279.9874	1143.2	259.1
956.5569	2281.4395	1138.8	254.5
956.6897	2282.8908	1141	252.1
956.8225	2284.3414	1144.15	258.5
956.9553	2285.7914	1136.7	253.75
957.088	2287.2406	1141.15	255.8
957.2207	2288.689	1133.55	250.1
957.3534	2290.1368	1145.15	259.55
957.486	2291.5838	1134.6	248.75
957.6186	2293.0302	1133.9	248.4
957.7512	2294.4758	1134.45	250.95
957.8838	2295.9206	1136.75	249.35
958.0163	2297.3648	1132.1	247.7
958.1488	2298.8082	1134.1	250.6
958.2813	2300.251	1133.9	248.45
958.4137	2301.693	1133.3	245.65
958.5461	2303.1343	1133.6	248.5
958.6785	2304.5748	1134.95	252
958.8108	2306.0147	1128.1	242.4
958.9432	2307.4538	1127.9	239.35
959.0754	2308.8922	1129.4	245.55
959.2077	2310.3299	1127.9	243.6
959.3399	2311.7669	1127.5	244.35
959.4721	2313.2031	1126.15	241
959.6043	2314.6387	1122.85	236.2
959.7365	2316.0735	1124.7	240.55
959.8686	2317.5076	1124.95	239.5
960.0006	2318.941	1120.25	236.05
960.1327	2320.3737	1123.75	238.95
960.2647	2321.8056	1126.2	241.7
960.3967	2323.2369	1120.85	234.85
960.5287	2324.6674	1125.25	237.25
960.6606	2326.0972	1129.6	241.8
960.7925	2327.5263	1123.7	238.95
960.9244	2328.9547	1122.6	236.95
961.0562	2330.3823	1123.65	239.25
961.1881	2331.8092	1126	239.05
961.3198	2333.2355	1115.9	230.6
961.4516	2334.661	1113.9	229.75
961.5833	2336.0858	1118.85	230.45
961.715	2337.5098	1114.95	230.55
961.8467	2338.9332	1115.6	230.45
961.9783	2340.3558	1116.15	228.8
962.1099	2341.7778	1110.05	226.9
962.2415	2343.199	1114.45	226.3
962.373	2344.6195	1115.5	230.75
962.5045	2346.0393	1108.7	225
962.636	2347.4583	1108.95	224.4
962.7675	2348.8767	1113.55	227.25
962.8989	2350.2943	1109.55	223.15
963.0303	2351.7113	1112.35	226.05
963.1617	2353.1275	1106.35	221.25
963.293	2354.543	1129.15	220.55
963.4243	2355.9578	1106.5	220.2
963.5556	2357.3718	1103.95	219.45
963.6868	2358.7852	1109.25	224.4
963.818	2360.1978	1106.65	221.5
963.9492	2361.6098	1103.5	219.65
964.0803	2363.021	1107.7	218.4
964.2114	2364.4315	1102.95	217.7
964.3425	2365.8413	1104.85	217.75
964.4736	2367.2504	1100.55	215.65
964.6046	2368.6587	1104.25	218.35
964.7356	2370.0664	1099	215.1
964.8666	2371.4733	1101.55	215.6
964.9975	2372.8795	1097.25	214.15
965.1284	2374.285	1103.2	217
965.2593	2375.6899	1097.05	212.95
965.3901	2377.0939	1098.9	213.05
965.5209	2378.4973	1097.4	213
965.6517	2379.9	1096.95	210.8
965.7825	2381.3019	1098.15	212.5
965.9132	2382.7032	1091.65	207.2
966.0439	2384.1037	1090.8	209.3
966.1745	2385.5035	1092.25	207.35
966.3051	2386.9027	1092.4	209.1
966.4357	2388.3011	1094.5	207.1
966.5663	2389.6987	1091.75	205.85
966.6968	2391.0957	1088.95	203.9
966.8273	2392.492	1091.65	206.15
966.9578	2393.8876	1092.6	207.05
967.0882	2395.2824	1088.35	205.15
967.2186	2396.6765	1086.85	201.7
967.349	2398.07	1089.45	205.4
967.4793	2399.4627	1086.45	199.2
967.6097	2400.8547	1083.65	197.55
967.7399	2402.246	1091.5	200.7
967.8702	2403.6366	1086.45	199.7
968.0004	2405.0265	1085.95	202
968.1306	2406.4156	1085.2	195.7
968.2607	2407.8041	1080.85	192.05
968.3909	2409.1918	1084.25	196.75
968.521	2410.5789	1082.3	197.1
968.651	2411.9652	1080	190
968.781	2413.3508	1075.55	188.8
968.911	2414.7358	1075.9	188.9
969.041	2416.12	1077.9	194.35
969.1709	2417.5035	1072.9	186.9
969.3008	2418.8863	1080.5	193.8
969.4307	2420.2684	1075.35	192.55
969.5606	2421.6497	1075.25	190.5
969.6904	2423.0304	1073.45	189.6
969.8201	2424.4104	1074.85	190.35
969.9499	2425.7896	1075.5	188.1
970.0796	2427.1682	1070.85	187.1
970.2093	2428.546	1071.35	185.5
970.3389	2429.9232	1070.45	182.75
970.4685	2431.2996	1071.15	186.55
970.5981	2432.6753	1071.8	185.55
970.7277	2434.0503	1067.05	180.9
970.8572	2435.4246	1068.8	181.65
970.9867	2436.7982	1068.65	182.45
971.1161	2438.1711	1063.75	179.4
971.2456	2439.5433	1067.1	179.55
971.375	2440.9148	1076.05	186.3
971.5043	2442.2856	1063.7	179.3
971.6336	2443.6557	1069.05	183.35
971.7629	2445.025	1066.55	182.8
971.8922	2446.3937	1067.7	181.65
972.0214	2447.7617	1063.7	177.95
972.1506	2449.1289	1063.75	179
972.2798	2450.4955	1063.85	175.5
972.4089	2451.8613	1061.35	175.75
972.538	2453.2265	1059.95	175.65
972.6671	2454.5909	1059.4	172.7
972.7961	2455.9546	1062.2	176.55
972.9251	2457.3177	1060.15	175
973.0541	2458.68	1063	176.1
973.1831	2460.0416	1059.15	175.25
973.312	2461.4025	1061.8	174.85
973.4408	2462.7627	1068.65	172.2
973.5697	2464.1222	1055.35	170.1
973.6985	2465.4811	1057.6	173
973.8273	2466.8392	1059.4	174.6
973.956	2468.1966	1056.85	169.9
974.0847	2469.5533	1056.85	168.3
974.2134	2470.9093	1054.75	169.35
974.3421	2472.2645	1056.6	170.8
974.4707	2473.6191	1058.7	172.6
974.5993	2474.973	1051.35	166.35
974.7278	2476.3262	1053.75	167.45
974.8563	2477.6787	1051.3	166.05
974.9848	2479.0305	1051.6	166.55
975.1132	2480.3816	1055.25	169.2
975.2417	2481.7319	1049.9	164.65
975.37	2483.0816	1051.15	163.55
975.4984	2484.4306	1049.55	161.95
975.6267	2485.7789	1047.9	164
975.755	2487.1264	1050.75	164
975.8833	2488.4733	1048.85	164.65
976.0115	2489.8195	1055.65	162.7
976.1397	2491.165	1049.75	159.65
976.2678	2492.5097	1050.6	163.8
976.3959	2493.8538	1044.65	158.75
976.524	2495.1972	1044.6	160.05
976.6521	2496.5398	1048.8	163.55
976.7801	2497.8818	1051.05	164.9
976.9081	2499.2231	1045.4	160.75
977.036	2500.5637	1042.15	156.95
977.164	2501.9035	1042.55	156.1
977.2918	2503.2427	1043.35	155.95
977.4197	2504.5812	1042.45	155.05
977.5475	2505.919	1043.95	156.25
977.6753	2507.256	1040.5	155.4
977.8031	2508.5924	1039.65	153.5
977.9308	2509.9281	1046.85	157.05
978.0585	2511.2631	1040.45	155.55
978.1861	2512.5974	1035.1	149.55
978.3137	2513.9309	1037.1	151.9
978.4413	2515.2638	1063.2	154.4
978.5689	2516.596	1039.85	156.6
978.6964	2517.9275	1035.8	149.75
978.8239	2519.2583	1039.5	155.85
978.9513	2520.5884	1042.15	155.4
979.0788	2521.9178	1040.15	154.15
979.2062	2523.2465	1032.2	148.75
979.3335	2524.5745	1037.2	151.4
979.4608	2525.9018	1034.25	149.1
979.5881	2527.2284	1035.8	150.2
979.7154	2528.5543	1030.15	144.45
979.8426	2529.8796	1032.4	148.3
979.9698	2531.2041	1031.95	146.2
980.0969	2532.5279	1032.4	148.7
980.224	2533.851	1033.45	149.05
980.3511	2535.1735	1030.95	146.4
980.4781	2536.4952	1029.65	145.15
980.6052	2537.8163	1029.6	144
980.7321	2539.1366	1031.55	147.2
980.8591	2540.4562	1032.35	145.85
980.986	2541.7752	1032.1	146.05
981.1129	2543.0935	1030.5	145.25
981.2397	2544.411	1030.05	143.35
981.3665	2545.7279	1028.45	144.2
981.4933	2547.0441	1026.5	142.05
981.62	2548.3596	1028.65	140.3
981.7467	2549.6744	1025.45	141.7
981.8734	2550.9885	1036.4	144.5
982.0001	2552.3019	1026.9	143.9
982.1267	2553.6146	1022.05	137.05
982.2532	2554.9266	1024.65	138.9
982.3798	2556.2379	1024.45	138.9
982.5063	2557.5485	1024.65	139.9
982.6327	2558.8585	1031.7	140.1
982.7592	2560.1677	1031.7	142.85
982.8856	2561.4762	1023.95	139.2
983.0119	2562.7841	1028.8	140.35
983.1383	2564.0913	1023.05	138.75
983.2646	2565.3977	1020.2	135.7
983.3908	2566.7035	1021.85	138.65
983.517	2568.0086	1023.85	136.65
983.6432	2569.313	1023.8	137.35
983.7694	2570.6167	1022.1	134.4
983.8955	2571.9197	1017.6	133.95
984.0216	2573.222	1021.35	134.45
984.1476	2574.5236	1018.3	132.85
984.2737	2575.8246	1018.45	129.35
984.3996	2577.1248	1021.95	134.4
984.5256	2578.4244	1018.7	133.25
984.6515	2579.7232	1022.15	136.95
984.7774	2581.0214	1052.1	133.05
984.9032	2582.3189	1018.55	133.75
985.029	2583.6157	1021.45	131.85
985.1548	2584.9118	1021.75	137
985.2806	2586.2072	1014.15	130.3
985.4063	2587.5019	1017.6	132.65
985.5319	2588.7959	1018	132.3
985.6576	2590.0893	1020.1	134.85
985.7832	2591.3819	1018.4	133.2
985.9087	2592.6739	1020.5	137.8
986.0343	2593.9652	1020.1	132.55
986.1597	2595.2557	1016.4	131.75
986.2852	2596.5456	1019.9	133.05
986.4106	2597.8348	1014.5	130.95
986.536	2599.1234	1013.75	130.6
986.6614	2600.4112	1016.75	130.15
986.7867	2601.6983	1019.7	132.85
986.912	2602.9848	1016.2	131.35
987.0372	2604.2705	1023.7	131.35
987.1624	2605.5556	1017.05	134.25
987.2876	2606.84	1016.45	130.6
987.4128	2608.1237	1017.3	130.95
987.5379	2609.4067	1015.6	128.55
987.6629	2610.689	1018.3	125
987.788	2611.9707	1014.9	126.85
987.913	2613.2516	1016.45	127.45
988.0379	2614.5319	1006.65	123.1
988.1629	2615.8115	1011.05	125.15
988.2878	2617.0903	1010.95	126.15
988.4126	2618.3685	1008.7	124.7
988.5375	2619.6461	1009.6	123.45
988.6622	2620.9229	1008.2	124.2
988.787	2622.199	1012.2	126.65
988.9117	2623.4745	1004.5	118.75
989.0364	2624.7493	1008.55	124.35
989.161	2626.0234	1002.9	119.6
989.2857	2627.2968	1007.4	123.15
989.4102	2628.5695	1007.6	121.1
989.5348	2629.8415	1004.5	119.45
989.6593	2631.1128	1004.95	119.05
989.7837	2632.3835	1009.05	122.7
989.9082	2633.6535	1003.65	119.1
990.0326	2634.9228	1003.75	120.95
990.1569	2636.1914	1003.1	117
990.2812	2637.4593	1010.45	118.85
990.4055	2638.7265	1004.15	119.5
990.5298	2639.9931	1002.55	116.4
990.654	2641.259	1000.2	116.85
990.7782	2642.5242	1001.45	116.35
990.9023	2643.7887	999.75	113.8
991.0264	2645.0525	997.8	112.55
991.1505	2646.3156	1013.95	112.25
991.2745	2647.5781	999.1	114.85
991.3985	2648.8398	996.6	112.45
991.5225	2650.1009	1000.85	108.65
991.6464	2651.3613	997.6	110.65
991.7703	2652.6211	994.7	111.15
991.8942	2653.8801	994.5	110.45
992.018	2655.1385	998.55	111.65
992.1418	2656.3961	994.25	108.95
992.2655	2657.6531	995	110.15
992.3892	2658.9094	997.1	112
992.5129	2660.1651	996.3	114.45
992.6366	2661.42	995.15	111.2
992.7602	2662.6743	996.9	109.25
992.8837	2663.9279	991.15	105.9
993.0073	2665.1808	995.1	109.05
993.1307	2666.433	992.95	106.7
993.2542	2667.6846	993.1	109.7
993.3776	2668.9354	999.1	111.9
993.501	2670.1856	996.45	110.9
993.6244	2671.4351	990.65	106.85
993.7477	2672.6839	999.15	114.1
993.8709	2673.9321	991.75	108.1
993.9942	2675.1795	994.05	109.6
994.1174	2676.4263	996.3	112.35
994.2405	2677.6724	992.6	107
994.3637	2678.9179	993.1	107.05
994.4868	2680.1626	993.3	108.3
994.6098	2681.4067	991.1	105
994.7328	2682.6501	992.75	106.9
994.8558	2683.8928	991.8	107.1
994.9788	2685.1348	992.7	109.2
995.1017	2686.3761	992.4	108.25
995.2245	2687.6168	988.15	103
995.3474	2688.8568	986.7	103.45
995.4702	2690.0961	988.65	107.35
995.5929	2691.3348	989.2	104.65
995.7156	2692.5727	984.1	100.4
995.8383	2693.81	986.1	100.4
995.961	2695.0466	985.95	102.1
996.0836	2696.2826	985.65	101.15
996.2062	2697.5178	988.7	101.1
996.3287	2698.7524	980.55	96.55
996.4512	2699.9863	991.6	104.45
996.5737	2701.2195	984.35	100.45
996.6961	2702.452	988.05	101.55
996.8185	2703.6839	987.85	103.15
996.9408	2704.9151	985.8	104.2
997.0631	2706.1456	986.95	99.55
997.1854	2707.3755	985.55	100.9
997.3077	2708.6046	987.25	101.05
997.4299	2709.8331	988.3	102.25
997.552	2711.0609	986.85	101.55
997.6742	2712.2881	985.45	98.4
997.7963	2713.5145	988.15	100.95
997.9183	2714.7403	985.75	101.3
998.0403	2715.9654	985.3	98.8
998.1623	2717.1899	1003.15	102.65
998.2842	2718.4136	990.65	103.85
998.4062	2719.6367	988.85	103.65
998.528	2720.8591	995.85	103.7
998.6498	2722.0809	988.7	103.65
998.7716	2723.3019	992.35	107
998.8934	2724.5223	993.35	107.9
999.0151	2725.7421	995.75	110.45
999.1368	2726.9611	992.55	105.8
999.2584	2728.1795	993.95	103.75
999.38	2729.3972	987.9	102.8
999.5016	2730.6142	997.3	99.05
999.6231	2731.8306	985.95	99.2
999.7446	2733.0462	983.75	97.1
999.8661	2734.2612	987.55	97.25
999.9875	2735.4756	983	94.65
1000.1089	2736.6892	981.3	92.9
1000.2302	2737.9022	975.65	95.05
1000.3515	2739.1145	979.8	94.9
1000.4728	2740.3262	985.5	91.65
1000.594	2741.5372	980.15	97.55
1000.7152	2742.7475	975.7	88.3
1000.8363	2743.9571	975.8	90.9
1000.9575	2745.1661	980.5	90.2
1001.0785	2746.3744	977.4	91.3
1001.1996	2747.582	973.95	90.2
1001.3206	2748.7889	975.05	88.75
1001.4415	2749.9952	970.15	85.7
1001.5625	2751.2008	976.65	91.2
1001.6833	2752.4057	971.2	85.2
1001.8042	2753.61	972.8	86.1
1001.925	2754.8136	970.6	82.75
1002.0458	2756.0165	969.55	87.55
1002.1665	2757.2188	970.85	86.65
1002.2872	2758.4204	967.15	83.2
1002.4078	2759.6213	969.6	83.3
1002.5285	2760.8215	973.5	84.2
1002.649	2762.0211	971.75	82.7
1002.7696	2763.22	970.8	82.8
1002.8901	2764.4182	969.9	84.3
1003.0106	2765.6158	966.85	81.65
1003.131	2766.8127	966.4	79.75
1003.2514	2768.009	967.35	83.05
1003.3717	2769.2045	969.85	82.85
1003.492	2770.3994	969.75	85.55
1003.6123	2771.5936	964.65	77.35
1003.7325	2772.7872	962.5	78.05
1003.8527	2773.9801	962.3	76.75
1003.9729	2775.1723	979.25	77.5
1004.093	2776.3639	965.65	81.4
1004.2131	2777.5548	966.3	80.9
1004.3331	2778.745	964.05	77.95
1004.4531	2779.9346	962.55	76.5
1004.5731	2781.1235	964.95	77.95
1004.693	2782.3117	962.15	79.1
1004.8129	2783.4992	961.15	75.4
1004.9328	2784.6861	964.5	80.35
1005.0526	2785.8723	961.55	76
1005.1723	2787.0579	962.45	78.3
1005.2921	2788.2428	964.6	80.3
1005.4118	2789.427	959.05	75.6
1005.5314	2790.6106	961	78.15
1005.651	2791.7935	963.8	78.35
1005.7706	2792.9757	963.15	80.65
1005.8902	2794.1573	963.55	78.6
1006.0097	2795.3382	960.1	75.9
1006.1291	2796.5184	960	75.8
1006.2485	2797.698	964.8	76.85
1006.3679	2798.8769	961.85	77.4
1006.4873	2800.0551	960.85	76.45
1006.6066	2801.2327	963.15	74.9
1006.7258	2802.4096	963.8	81.05
1006.8451	2803.5859	961.95	76.35
1006.9642	2804.7615	968.3	84.3
1007.0834	2805.9364	961.15	77.75
1007.2025	2807.1106	965.85	82.75
1007.3216	2808.2842	967.7	83.4
1007.4406	2809.4572	963.05	77.75
1007.5596	2810.6294	966.7	80.5
1007.6785	2811.801	969	84.25
1007.7975	2812.972	967.7	83.6
1007.9163	2814.1423	973.9	90.6
1008.0352	2815.3119	971.5	86.3
1008.154	2816.4808	971.95	89.65
1008.2727	2817.6491	975.2	89.5
1008.3914	2818.8167	975.65	92.4
1008.5101	2819.9837	987.7	99
1008.6288	2821.15	988.05	103.1
1008.7474	2822.3157	989.3	104.7
1008.8659	2823.4807	1001.8	116.8
1008.9844	2824.645	1005.65	119.1
1009.1029	2825.8086	1011.85	128.35
1009.2214	2826.9716	1022.05	137.05
1009.3398	2828.134	1023.25	138.9
1009.4581	2829.2957	1031.05	146.95
1009.5764	2830.4567	1034.85	150.4
1009.6947	2831.617	1043.1	157.55
1009.813	2832.7767	1040.15	155.45
1009.9312	2833.9358	1043.75	157.4
1010.0493	2835.0941	1042.7	155.8
1010.1675	2836.2519	1038.25	154.7
1010.2855	2837.4089	1034.55	148.9
1010.4036	2838.5653	1029.65	144.65
1010.5216	2839.7211	1024.45	140.65
1010.6396	2840.8761	1029.75	142.95
1010.7575	2842.0306	1025.4	142.35
1010.8754	2843.1843	1027.55	142.8
1010.9932	2844.3374	1029.85	145.05
1011.111	2845.4899	1027.75	143.1
1011.2288	2846.6417	1031	145.9
1011.3465	2847.7928	1027.55	143.65
1011.4642	2848.9433	1035.45	151
1011.5818	2850.0931	1030.8	145.2
1011.6995	2851.2422	1034.3	148.45
1011.817	2852.3907	1034.95	150.75
1011.9345	2853.5385	1036.35	150.75
1012.052	2854.6857	1042.35	149.2
1012.1695	2855.8323	1034.85	150.5
1012.2869	2856.9781	1036.75	152.55
1012.4042	2858.1233	1041.1	158.3
1012.5216	2859.2679	1042.8	159.05
1012.6389	2860.4118	1045.35	161.2
1012.7561	2861.555	1054.9	165.6
1012.8733	2862.6976	1054.15	168.5
1012.9905	2863.8395	1055.2	171.55
1013.1076	2864.9808	1054.1	171.3
1013.2247	2866.1214	1058.95	177.1
1013.3417	2867.2614	1061.5	177.4
1013.4587	2868.4007	1065.55	178.8
1013.5757	2869.5393	1066.25	178.25
1013.6926	2870.6773	1067.65	180.6
1013.8095	2871.8146	1061.95	174.95
1013.9263	2872.9513	1073.35	186
1014.0431	2874.0874	1071.05	187.25
1014.1599	2875.2227	1075.1	190.15
1014.2766	2876.3574	1072.55	190.3
1014.3933	2877.4915	1075.75	190.2
1014.51	2878.6249	1076.35	193.05
1014.6266	2879.7577	1079.7	192.95
1014.7431	2880.8898	1091.55	196.5
1014.8596	2882.0212	1087.1	201.45
1014.9761	2883.152	1088.1	201.85
1015.0925	2884.2821	1084.25	201.65
1015.2089	2885.4116	1088.15	203.05
1015.3253	2886.5405	1089	204.05
1015.4416	2887.6686	1096.2	209.05
1015.5579	2888.7962	1093.3	212.25
1015.6741	2889.923	1093.45	210
1015.7903	2891.0493	1090.55	205.7
1015.9065	2892.1748	1089.55	204.55
1016.0226	2893.2997	1092.7	206.55
1016.1387	2894.424	1088.05	205.4
1016.2547	2895.5476	1090.5	205.75
1016.3707	2896.6706	1092.8	210.95
1016.4866	2897.7929	1090.15	204.55
1016.6025	2898.9145	1092.05	206.55
1016.7184	2900.0355	1088.7	202.6
1016.8342	2901.1559	1089.45	205.05
1016.95	2902.2756	1089.35	202.4
1017.0658	2903.3946	1083.1	197.9
1017.1815	2904.513	1087.9	199.85
1017.2971	2905.6308	1084.65	201.75
1017.4127	2906.7479	1086.8	200.75
1017.5283	2907.8643	1087.15	201.25
1017.6439	2908.9801	1078.95	194.8
1017.7594	2910.0953	1083.35	197.9
1017.8748	2911.2098	1084.15	197.25
1017.9902	2912.3236	1090.45	198.55
1018.1056	2913.4368	1087.3	199.05
1018.2209	2914.5494	1080.65	193.65
1018.3362	2915.6613	1093.25	203.9
1018.4515	2916.7725	1078.05	191.8
1018.5667	2917.8831	1076.75	191
1018.6819	2918.9931	1071.45	184.9
1018.797	2920.1024	1070.55	185.3
1018.9121	2921.211	1071.45	188.6
1019.0271	2922.319	1068.1	182.7
1019.1421	2923.4264	1063.8	180.45
1019.2571	2924.5331	1061.55	178.3
1019.372	2925.6391	1063.05	177.9
1019.4869	2926.7445	1062.75	179.3
1019.6017	2927.8493	1061.8	178.2
1019.7165	2928.9534	1060.45	176
1019.8313	2930.0569	1062.7	173.95
1019.946	2931.1597	1066.45	180.4
1020.0606	2932.2619	1064.35	180.75
1020.1753	2933.3634	1065	182.15
1020.2899	2934.4643	1074.15	183.8
1020.4044	2935.5645	1078.65	186.6
1020.5189	2936.6641	1079.15	191.4
1020.6334	2937.763	1069	186.2
1020.7478	2938.8613	1069	184.45
1020.8622	2939.959	1074.75	185.95
1020.9765	2941.056	1067.05	182.9
1021.0908	2942.1523	1062.3	176.45
1021.2051	2943.248	1055.7	169.2
1021.3193	2944.3431	1049.25	164.7
1021.4334	2945.4375	1036.15	151.5
1021.5476	2946.5313	1033.05	148.65
1021.6617	2947.6244	1024.9	141.55
1021.7757	2948.7169	1025.7	142
1021.8897	2949.8087	1010.75	124.45
1022.0037	2950.8999	1007.9	124.9
1022.1176	2951.9904	1004.55	119.7
1022.2315	2953.0803	1001.75	117.25
1022.3453	2954.1696	995.25	108.95
1022.4591	2955.2582	990.9	107.3
1022.5728	2956.3462	985.9	103.75
1022.6865	2957.4335	989	104.65
1022.8002	2958.5202	987.65	102.6
1022.9138	2959.6062	985.9	102.25
1023.0274	2960.6916	985	101.5
1023.141	2961.7764	986.3	100.75
1023.2545	2962.8605	982.45	97.3
1023.3679	2963.9439	987.25	102.1
1023.4813	2965.0267	985.15	98.05
1023.5947	2966.1089	1005.55	98.35
1023.708	2967.1905	984.25	96.8
1023.8213	2968.2714	982	98.1
1023.9346	2969.3516	981.95	96.3
1024.0478	2970.4312	990.9	99.95
1024.1609	2971.5102	981.15	96.55
1024.274	2972.5885	977.05	95.05
1024.3871	2973.6662	984.8	94.85
1024.5002	2974.7432	981.9	98.15
1024.6132	2975.8196	983.35	98.95
1024.7261	2976.8954	980.35	97.1
1024.839	2977.9705	979.5	94.65
1024.9519	2979.045	977.3	94.1
1025.0647	2980.1188	981.9	96.5
1025.1775	2981.192	977.9	94.15
1025.2902	2982.2645	980.9	93.8
1025.4029	2983.3364	976.8	92.7
1025.5156	2984.4077	973.85	89.6
1025.6282	2985.4783	976.1	85.8
1025.7407	2986.5483	969.15	87.45
1025.8532	2987.6177	971.05	87.05
1025.9657	2988.6864	964.65	79.6
1026.0782	2989.7545	965.05	81.25
1026.1906	2990.8219	964.75	80.35
1026.3029	2991.8887	962.6	75.1
1026.4152	2992.9548	956.65	72.6
1026.5275	2994.0204	951.75	66.65
1026.6397	2995.0852	952.65	71.85
1026.7519	2996.1495	950.65	65.35
1026.864	2997.2131	943.15	58.35
1026.9761	2998.276	945.7	61.3
1027.0882	2999.3383	946.25	61.05
1027.2002	3000.4	940.85	54.75
1027.3122	3001.4611	938.25	54.35
1027.4241	3002.5215	939.7	56.65
1027.536	3003.5812	936.45	52.25
1027.6478	3004.6404	934.25	49.55
1027.7596	3005.6989	935.7	48.7
1027.8714	3006.7567	934.1	50.9
1027.9831	3007.8139	954	48.35
1028.0947	3008.8705	934.4	50.4
1028.2064	3009.9264	934.15	47.4
1028.3179	3010.9818	930.65	46.05
1028.4295	3012.0364	931.75	44.1
1028.541	3013.0905	927.7	43.5
1028.6524	3014.1439	929.9	45.8
1028.7638	3015.1966	926.5	44.05
1028.8752	3016.2487	925	41.3
1028.9865	3017.3002	930.95	44.35
1029.0978	3018.3511	925.05	42.65
1029.209	3019.4013	926.2	40.45
1029.3202	3020.4509	924.25	41.15
1029.4314	3021.4998	926.05	40.85
1029.5425	3022.5481	924.65	40.25
1029.6535	3023.5958	924.7	39.9
1029.7645	3024.6428	925.6	41.4
1029.8755	3025.6892	922.85	38.55
1029.9864	3026.735	924.75	41.1
1030.0973	3027.7802	923.2	38.45
1030.2082	3028.8247	925.05	41.1
1030.319	3029.8685	923.95	38.7
1030.4297	3030.9118	924.05	39.35
1030.5404	3031.9544	923.15	39.7
1030.6511	3032.9963	925.15	41.05
1030.7617	3034.0376	922.6	39.85
1030.8723	3035.0783	927.25	41.45
1030.9829	3036.1184	923.85	39.35
1031.0934	3037.1578	923.45	38.95
1031.2038	3038.1966	925.55	41.75
1031.3142	3039.2348	922.2	39
1031.4246	3040.2723	931.2	41.2
1031.5349	3041.3092	922.85	38.3
1031.6452	3042.3455	925.5	41.95
1031.7554	3043.3811	926.6	40.2
1031.8656	3044.4161	923.5	37.05
1031.9758	3045.4505	926.25	42.55
1032.0859	3046.4842	924.95	40.3
1032.1959	3047.5173	920.9	37.7
1032.3059	3048.5498	923.95	39.45
1032.4159	3049.5816	923.25	39.35
1032.5258	3050.6128	924.95	39.45
1032.6357	3051.6434	923.75	39.75
1032.7455	3052.6734	924.7	40.5
1032.8553	3053.7027	924.25	39.65
1032.9651	3054.7314	923	39
1033.0748	3055.7594	922.65	37.85
1033.1845	3056.7868	925.7	41.25
1033.2941	3057.8136	924.45	40
1033.4037	3058.8398	921.85	38.8
1033.5132	3059.8653	923.25	39.55
1033.6227	3060.8902	923.7	40.25
1033.7321	3061.9145	924.25	40.9
1033.8415	3062.9381	923.05	38.85
1033.9509	3063.9612	940.35	41.35
1034.0602	3064.9835	925.4	39.85
1034.1694	3066.0053	926	39.95
1034.2787	3067.0264	922.55	38.95
1034.3878	3068.0469	926	40.9
1034.497	3069.0668	929.4	43.45
1034.6061	3070.086	923.85	39.3
1034.7151	3071.1046	925.9	41.9
1034.8241	3072.1226	926	40.4
1034.9331	3073.1399	919.7	36.25
1035.042	3074.1567	922.35	37.7
1035.1508	3075.1727	925.35	38.25
1035.2597	3076.1882	921.8	37.95
1035.3684	3077.203	922.9	39.7
1035.4772	3078.2173	921.1	35.05
1035.5859	3079.2308	922.85	32.85
1035.6945	3080.2438	920.4	33.15
1035.8031	3081.2561	919.15	34.95
1035.9117	3082.2678	916.4	33.1
1036.0202	3083.2789	916.55	30.4
1036.1286	3084.2893	918.2	33.5
1036.2371	3085.2991	917.5	34.45
1036.3454	3086.3083	921.15	35.1
1036.4538	3087.3169	920.1	35.15
1036.562	3088.3248	917.5	31.9
1036.6703	3089.3321	917.8	33.55
1036.7785	3090.3388	914.35	29.8
1036.8866	3091.3449	916.3	31.55
1036.9948	3092.3503	918.45	32.65
1037.1028	3093.3551	914.15	29.75
1037.2108	3094.3593	914.5	32.4
1037.3188	3095.3629	911.95	28.05
1037.4267	3096.3658	913.9	27.4
1037.5346	3097.3681	913.75	29.8
1037.6425	3098.3698	916.1	29.6
1037.7503	3099.3708	918.05	24.95
1037.858	3100.3713	912.85	28.75
1037.9657	3101.3711	912.95	28.8
1038.0734	3102.3702	1049.9	26.9
1038.181	3103.3688	915.05	30.55
1038.2886	3104.3667	914.2	32.25
1038.3961	3105.364	911.1	27.2
1038.5036	3106.3607	910.8	24.2
1038.611	3107.3568	911.85	25.4
1038.7184	3108.3522	908	22.45
1038.8257	3109.347	910.6	24.3
1038.933	3110.3412	915.1	29.15
1039.0403	3111.3348	908.25	23.1
1039.1475	3112.3277	909.9	27.7
1039.2547	3113.32	907.6	23.55
1039.3618	3114.3117	910.65	26.3
1039.4689	3115.3028	910.85	26.6
1039.5759	3116.2932	909.7	19.75
1039.6829	3117.2831	917.55	28
1039.7898	3118.2723	907.6	23.8
1039.8967	3119.2608	909.4	25.05
1040.0035	3120.2488	909.85	25.4
1040.1103	3121.2361	908.35	22.25
1040.2171	3122.2229	908.1	25.45
1040.3238	3123.209	909.6	25.95
1040.4305	3124.1944	903.1	20.2
1040.5371	3125.1793	910.65	24.35
1040.6437	3126.1635	906.5	22.7
1040.7502	3127.1471	906.45	21
1040.8567	3128.1301	908.75	26.8
1040.9631	3129.1125	907.3	23
1041.0695	3130.0942	904.75	20.8
1041.1759	3131.0753	913.7	20.75
1041.2822	3132.0558	908.1	20.05
1041.3884	3133.0357	906.05	20.8
1041.4946	3134.015	906.85	21.2
1041.6008	3134.9936	908	21.15
1041.7069	3135.9716	924.65	21.55
1041.813	3136.949	906.85	23.15
1041.919	3137.9258	924.1	21.45
1042.025	3138.902	913.15	22.85
1042.1309	3139.8775	905.4	21.4
1042.2368	3140.8524	904.1	20.6
1042.3427	3141.8267	906.35	20.7
1042.4485	3142.8004	903.65	19.05
1042.5542	3143.7735	910.3	19.7
1042.6599	3144.7459	908	20.85
1042.7656	3145.7178	906.65	22.6
1042.8712	3146.689	903.75	19.85
1042.9768	3147.6596	906.65	20.85
1043.0823	3148.6295	902.6	16.4
1043.1878	3149.5989	903.6	19.85
1043.2932	3150.5676	903.75	20.95
1043.3986	3151.5357	903.3	19.45
1043.5039	3152.5032	903.5	20.8
1043.6092	3153.4701	902	18.55
1043.7145	3154.4364	906.25	19.35
1043.8197	3155.402	901.2	19.1
1043.9248	3156.367	904.55	18.4
1044.03	3157.3315	940	18.3
1044.135	3158.2952	904.05	18.7
1044.24	3159.2584	901.45	17
1044.345	3160.221	902.8	18.2
1044.4499	3161.1829	900.95	15.1
1044.5548	3162.1442	901.7	17.9
1044.6596	3163.105	903	19.85
1044.7644	3164.065	902.8	18.95
1044.8692	3165.0245	905.7	19.6
1044.9739	3165.9834	899.75	16.2
1045.0785	3166.9416	900.8	18.35
1045.1831	3167.8993	900.95	15.35
1045.2877	3168.8563	901.95	16.7
1045.3922	3169.8127	899.1	12.15
1045.4966	3170.7684	902.65	20
1045.6011	3171.7236	903.8	18.25
1045.7054	3172.6782	900.55	15.85
1045.8098	3173.6321	902.65	17.25
1045.914	3174.5854	905.4	16.5
1046.0183	3175.5381	899.7	15.65
1046.1224	3176.4902	899.6	15.25
1046.2266	3177.4417	900	16.1
1046.3307	3178.3926	898.8	15.45
1046.4347	3179.3428	899.2	16.65
1046.5387	3180.2924	900.6	17.55
1046.6427	3181.2415	902.1	17.1
1046.7466	3182.1899	902.4	15.95
1046.8504	3183.1377	900.9	18.8
1046.9542	3184.0848	903.8	15.4
1047.058	3185.0314	899.55	16.5
1047.1617	3185.9773	900.3	16.85
1047.2654	3186.9227	901.45	15.1
1047.369	3187.8674	898.4	11.9
1047.4726	3188.8115	903.35	15.9
1047.5761	3189.755	899.7	16.15
1047.6796	3190.6979	901.8	16.35
1047.783	3191.6402	898.55	14.85
1047.8864	3192.5818	898.65	15.35
1047.9898	3193.5229	905.7	14.6
1048.0931	3194.4633	900.55	14.5
1048.1963	3195.4031	900.2	14.55
1048.2995	3196.3423	897.35	12.85
1048.4027	3197.2809	899.3	15.65
1048.5058	3198.2189	900.2	13.3
1048.6089	3199.1563	916.95	14.75
1048.7119	3200.0931	897.8	12.8
1048.8148	3201.0292	898.55	14.55
1048.9178	3201.9648	897.15	13.45
1049.0206	3202.8997	900.55	13.35
1049.1235	3203.834	896.9	11.9
1049.2262	3204.7677	898.3	14.9
1049.329	3205.7008	900.45	13.85
1049.4317	3206.6333	896.55	12.5
1049.5343	3207.5652	900	12.2
1049.6369	3208.4964	897.45	12.7
1049.7394	3209.4271	898	14.2
1049.8419	3210.3571	898.35	14
1049.9444	3211.2865	898.8	13.45
1050.0468	3212.2154	897.25	12.95
1050.1491	3213.1436	901.5	13.15
1050.2514	3214.0712	903.95	15.3
1050.3537	3214.9982	896.9	12.9
1050.4559	3215.9246	898.85	13.65
1050.5581	3216.8503	894.2	9.6
1050.6602	3217.7755	898.35	13.75
1050.7623	3218.7001	896.7	14.1
1050.8643	3219.624	898.95	13.95
1050.9663	3220.5473	898.1	14.7
1051.0682	3221.4701	898.75	11.7
1051.1701	3222.3922	898.5	11.95
1051.2719	3223.3137	897.35	15.5
1051.3737	3224.2346	897.85	14.4
1051.4754	3225.1549	897.2	12.5
1051.5771	3226.0746	895.2	10.85
1051.6788	3226.9937	898.45	12.1
1051.7804	3227.9121	896.55	14.65
1051.8819	3228.83	897.1	12.35
1051.9834	3229.7473	895.15	10.8
1052.0849	3230.6639	896.75	12.55
1052.1863	3231.5799	894.9	10.45
1052.2876	3232.4954	895.85	9.55
1052.3889	3233.4102	896.75	12.65
1052.4902	3234.3244	897.05	11.5
1052.5914	3235.238	895.65	12.95
1052.6926	3236.151	910.2	11.05
1052.7937	3237.0634	896.5	12.95
1052.8948	3237.9752	897.05	11.7
1052.9958	3238.8864	895.45	11.3
1053.0968	3239.797	894.85	10.05
1053.1977	3240.7069	897.25	11.4
1053.2986	3241.6163	896.55	12.05
1053.3994	3242.5251	894.25	10.4
1053.5002	3243.4332	893.35	9.7
1053.6009	3244.3408	895.3	11.5
1053.7016	3245.2477	894.5	10.5
1053.8022	3246.154	895.55	10.15
1053.9028	3247.0598	896.9	13.05
1054.0034	3247.9649	895.65	12.3
1054.1039	3248.8694	894.05	10.75
1054.2043	3249.7733	896.1	12.55
1054.3047	3250.6766	896.95	14.95
1054.4051	3251.5793	897.2	11.4
1054.5054	3252.4814	894.55	11.9
1054.6056	3253.3829	894.7	11.95
1054.7058	3254.2838	893.55	9.75
1054.806	3255.1841	895	12.05
1054.9061	3256.0838	893.6	8.05
1055.0061	3256.9829	893.15	10.45
1055.1062	3257.8814	896.5	10.25
1055.2061	3258.7792	897.2	12.05
1055.306	3259.6765	896.2	11.7
1055.4059	3260.5731	893.05	8.15
1055.5057	3261.4692	894.35	9.35
1055.6055	3262.3647	895.05	12
1055.7052	3263.2595	893.35	7.15
1055.8049	3264.1538	893.85	8.2
1055.9045	3265.0474	894.05	9.45
1056.0041	3265.9404	893.55	8.95
1056.1036	3266.8329	890.35	7.95
1056.2031	3267.7247	901.7	7.05
1056.3025	3268.616	890.8	8.85
1056.4019	3269.5066	893.9	9.2
1056.5013	3270.3966	894.35	7.55
1056.6005	3271.286	891.1	9.7
