Software Version:	3.9.2.0
Unit SN:	10000200
Spectrometer SN:	6960
Date:	3/26/2024 1:14:52 PM
Data Line Index:	25
Spectral Points:	2048
Integration time (ms):	125
Averages:	20
Delay (ms):	30000
Sequence Number:	1
Processing:	dark subtract
Laser Power (mW):	305
Laser Current (mA):	818
Laser Diode Temp (C):	25
Laser Case Temp (C):	26.4
System Temp (C):	26.3
Spectrometer Temp (C):	24
CCD Temp (C):	0.004
Secondary Temp (C):	20.01
Heatsink Temp (C):	21.912
CCDPCB Temp (C):	36.351
SecondaryPCB Temp (C):	32.072

Wavelength	RamanShift	Raw Counts	Dark Subtracted
787.061	30.1047	426.6	15.5
787.2016	32.3739	426	15.7
787.3422	34.6426	427	15.1
787.4828	36.9109	431.1	19.5
787.6235	39.1787	434.75	16.15
787.7642	41.4461	440.6	16.55
787.9049	43.7131	445.95	20.15
788.0456	45.9796	449.4	21.45
788.1863	48.2456	455.45	23.6
788.3271	50.5112	462.2	25.45
788.4679	52.7764	463.45	25.45
788.6087	55.0411	470.85	29.55
788.7496	57.3054	475.95	28.8
788.8904	59.5692	480.15	32
789.0313	61.8326	487.5	34.8
789.1722	64.0955	491.25	35.95
789.3132	66.3579	504.15	42.75
789.4541	68.6199	507.45	44.05
789.5951	70.8815	520.45	54.4
789.7361	73.1426	546.5	78.65
789.8771	75.4032	599.6	125.85
790.0181	77.6634	726.05	247.25
790.1592	79.9231	1027.5	544.95
790.3003	82.1824	1664.2	1178.65
790.4414	84.4412	2734.2	2242.2
790.5825	86.6995	4219.15	3722.5
790.7237	88.9574	5701.1	5198.5
790.8648	91.2148	6811.1	6305.5
791.006	93.4717	7398.8	6889.85
791.1472	95.7282	7674.5	7160.45
791.2885	97.9842	7754.4	7240.05
791.4297	100.2398	7776.75	7259.15
791.571	102.4949	7743.2	7221.7
791.7123	104.7495	7722.15	7195.9
791.8536	107.0036	7698.3	7169
791.9949	109.2573	7648.45	7123.9
792.1363	111.5105	7609.2	7081.8
792.2777	113.7632	7520.6	6990.85
792.4191	116.0154	7491.3	6950.65
792.5605	118.2672	7433.9	6900.1
792.7019	120.5185	7368	6834.2
792.8434	122.7693	7333.5	6796.45
792.9849	125.0197	7290	6748.8
793.1264	127.2696	7237.2	6695.55
793.2679	129.519	7208.6	6662.8
793.4094	131.7679	7222.75	6673.85
793.551	134.0163	7197.8	6647
793.6926	136.2642	7195.65	6639.65
793.8342	138.5117	7198.05	6633.5
793.9758	140.7587	7170.2	6608.05
794.1175	143.0052	7136.35	6571.3
794.2591	145.2512	7088.15	6523.8
794.4008	147.4967	7049.4	6483.2
794.5425	149.7417	7023.95	6458.35
794.6842	151.9863	7009.5	6438.05
794.826	154.2304	6981.95	6408.65
794.9677	156.4739	6948.8	6369.1
795.1095	158.717	6967.9	6387.6
795.2513	160.9596	6971.6	6384.85
795.3931	163.2017	6961.65	6373.25
795.535	165.4433	6968.4	6380.6
795.6768	167.6844	6943.3	6351.05
795.8187	169.925	6936.4	6341.95
795.9606	172.1651	6863.65	6264.4
796.1025	174.4047	6830.65	6230.9
796.2445	176.6439	6805.15	6200.7
796.3864	178.8825	6787.15	6181.85
796.5284	181.1206	6784.65	6174.45
796.6704	183.3582	6744.7	6130.05
796.8124	185.5954	6744.65	6130.35
796.9544	187.832	6738	6119.4
797.0965	190.0681	6744.45	6123.85
797.2386	192.3037	6743.35	6119.45
797.3806	194.5388	6745.35	6117.75
797.5228	196.7734	6749.65	6120.75
797.6649	199.0075	6769.65	6135.8
797.807	201.2411	6789.7	6154
797.9492	203.4742	6804.1	6167.65
798.0914	205.7068	6820	6183.45
798.2336	207.9389	6816.95	6179.45
798.3758	210.1704	6825.65	6184.25
798.518	212.4015	6825	6179.45
798.6603	214.632	6824.9	6181.65
798.8025	216.862	6815.1	6181.5
798.9448	219.0915	6791.15	6164
799.0871	221.3205	6798.7	6173.6
799.2294	223.549	6805.05	6181.7
799.3718	225.777	6814.95	6190.95
799.5141	228.0044	6795.3	6169.2
799.6565	230.2314	6787.9	6163.45
799.7989	232.4578	6771.7	6144.65
799.9413	234.6837	6761.25	6125.55
800.0837	236.909	6758.85	6123.3
800.2262	239.1339	6743.85	6084.15
800.3687	241.3582	6743.1	6096.5
800.5111	243.582	6747	6069.55
800.6536	245.8053	6750.45	6086.05
800.7961	248.0281	6737	6076.05
800.9387	250.2503	6731.75	6067.65
801.0812	252.472	6720.3	6048.6
801.2238	254.6932	6739.1	6066.9
801.3664	256.9139	6721.4	6045.35
801.509	259.134	6724.35	6048.1
801.6516	261.3536	6708.5	6032.6
801.7942	263.5727	6748.8	6068
801.9369	265.7912	6757.15	6080.85
802.0795	268.0092	6790.45	6114.45
802.2222	270.2267	6805.5	6126.85
802.3649	272.4436	6845.25	6162.5
802.5076	274.6601	6867.7	6178.65
802.6504	276.8759	6870.15	6188.15
802.7931	279.0913	6883.9	6198.7
802.9359	281.3061	6896.7	6206.4
803.0787	283.5204	6919.85	6227.1
803.2215	285.7341	6911.35	6220.5
803.3643	287.9473	6940.6	6236.8
803.5071	290.16	6919.1	6219.85
803.6499	292.3721	6888	6193.95
803.7928	294.5837	6863.1	6166.95
803.9357	296.7947	6797.8	6101.5
804.0786	299.0052	6814.95	6117.75
804.2215	301.2152	6772.05	6069.85
804.3644	303.4246	6785.15	6087.4
804.5074	305.6334	6735.6	6037.35
804.6503	307.8418	6713.25	6012.9
804.7933	310.0495	6706.7	6005.2
804.9363	312.2568	6669.4	5969.2
805.0793	314.4635	6598.55	5894.45
805.2223	316.6696	6581.85	5877.25
805.3653	318.8752	6540.7	5827.4
805.5084	321.0802	6506.95	5802.6
805.6514	323.2847	6508.1	5800.25
805.7945	325.4887	6479.65	5771.4
805.9376	327.692	6482.05	5773.5
806.0807	329.8949	6502.6	5791.15
806.2238	332.0972	6516.5	5804.15
806.367	334.2989	6545.15	5830.6
806.5101	336.5001	6519.4	5801.65
806.6533	338.7007	6514.55	5798
806.7965	340.9008	6488.6	5768.05
806.9397	343.1003	6433.95	5714.5
807.0829	345.2992	6412.4	5690.8
807.2261	347.4976	6371.5	5647.3
807.3693	349.6955	6338.55	5611.75
807.5126	351.8927	6342.1	5611.8
807.6559	354.0895	6316.05	5574.95
807.7991	356.2856	6302.15	5574.25
807.9424	358.4812	6261.7	5531.4
808.0857	360.6763	6283.65	5550.55
808.2291	362.8707	6241.65	5508.7
808.3724	365.0646	6254.95	5517.3
808.5158	367.258	6262.55	5527
808.6591	369.4508	6241.95	5502.4
808.8025	371.643	6266.6	5527.15
808.9459	373.8346	6291.65	5548.85
809.0893	376.0257	6312.05	5563.85
809.2327	378.2162	6320.3	5573.15
809.3762	380.4062	6322.2	5573.1
809.5196	382.5956	6295.5	5544.7
809.6631	384.7844	6242.1	5492.1
809.8066	386.9726	6189.15	5435.65
809.9501	389.1603	6155.2	5404.4
810.0936	391.3474	6156.3	5374.35
810.2371	393.5339	6155.8	5403
810.3806	395.7199	6121.95	5376.25
810.5241	397.9052	6133.05	5389.65
810.6677	400.09	6121	5378.25
810.8113	402.2743	6165.3	5421.4
810.9548	404.4579	6171.95	5428.3
811.0984	406.641	6184.55	5441.55
811.2421	408.8235	6243.6	5497.25
811.3857	411.0054	6284.85	5538.5
811.5293	413.1868	6379.2	5627.1
811.673	415.3675	6460.95	5706.35
811.8166	417.5477	6489	5734.4
811.9603	419.7273	6409.85	5652.65
812.104	421.9064	6293.45	5530.95
812.2477	424.0848	6216.25	5456.65
812.3914	426.2627	6133.1	5372.05
812.5351	428.4399	6093.15	5331.1
812.6788	430.6166	6056.4	5288.45
812.8226	432.7928	5989.55	5218.9
812.9663	434.9683	5946.75	5179.1
813.1101	437.1432	5905.1	5134.45
813.2539	439.3176	5891.2	5120.7
813.3977	441.4914	5864.55	5093.8
813.5415	443.6645	5878.85	5105.75
813.6853	445.8371	5837.15	5062.9
813.8291	448.0091	5831.35	5058.75
813.973	450.1806	5814.95	5040.15
814.1168	452.3514	5799.05	5021.45
814.2607	454.5216	5796.6	5012.95
814.4046	456.6913	5764.05	4986.75
814.5485	458.8603	5772.15	4996.35
814.6924	461.0288	5787.75	5012.75
814.8363	463.1967	5770.2	4991.55
814.9802	465.3639	5787.6	5007.95
815.1241	467.5306	5761.15	4979.15
815.2681	469.6967	5742.95	4961.5
815.412	471.8622	5714.15	4934.95
815.556	474.0271	5716.95	4937.6
815.7	476.1914	5712.1	4926.75
815.844	478.3551	5697.25	4913.75
815.988	480.5182	5699.85	4915.6
816.132	482.6807	5702.6	4920.55
816.276	484.8426	5734.45	4949.85
816.4201	487.0039	5755.75	4971.1
816.5641	489.1647	5783.2	4996.65
816.7082	491.3248	5807.55	5022.05
816.8522	493.4843	5813.6	5027.95
816.9963	495.6432	5812.9	5026.85
817.1404	497.8015	5775.45	4983.05
817.2845	499.9592	5751.35	4962.65
817.4286	502.1163	5729.75	4938.95
817.5727	504.2728	5689.45	4896.4
817.7168	506.4287	5677	4887.45
817.861	508.5839	5645.05	4853.35
818.0051	510.7386	5641.05	4851.45
818.1493	512.8927	5640.55	4841.8
818.2935	515.0461	5634.15	4841.65
818.4377	517.199	5633.8	4841.8
818.5818	519.3512	5666.75	4872.35
818.726	521.5029	5708.1	4908.8
818.8703	523.6539	5753.4	4957
819.0145	525.8043	5747.4	4948.4
819.1587	527.9541	5728.75	4928.25
819.303	530.1033	5671.75	4873.55
819.4472	532.2519	5635.65	4836.85
819.5915	534.3999	5626.9	4826.3
819.7357	536.5472	5606.65	4805.95
819.88	538.694	5595.5	4793.7
820.0243	540.8401	5620.05	4817.55
820.1686	542.9856	5639.9	4837.8
820.3129	545.1305	5627.95	4825.85
820.4572	547.2748	5645.1	4842.8
820.6016	549.4185	5644.55	4837.6
820.7459	551.5615	5648.3	4843.35
820.8902	553.704	5642.9	4837.75
821.0346	555.8458	5643.15	4839.1
821.1789	557.987	5649.75	4843.95
821.3233	560.1276	5664.7	4856.5
821.4677	562.2675	5711.1	4905
821.6121	564.4069	5760.55	4954.7
821.7565	566.5456	5776.45	4968.2
821.9009	568.6837	5781.6	4975.3
822.0453	570.8212	5735	4929.7
822.1897	572.958	5680.5	4871.35
822.3342	575.0942	5633.25	4828.75
822.4786	577.2299	5600	4791.7
822.6231	579.3648	5575.4	4767.75
822.7675	581.4992	5529.3	4723.85
822.912	583.6329	5494.6	4686.45
823.0565	585.766	5535.75	4727.55
823.201	587.8985	5551.7	4742.5
823.3454	590.0304	5568.9	4746.5
823.4899	592.1616	5591.8	4778.1
823.6345	594.2922	5587.2	4775.45
823.779	596.4222	5563.55	4750.45
823.9235	598.5515	5510.4	4696.65
824.068	600.6802	5450.05	4635.95
824.2126	602.8083	5406.25	4591.55
824.3571	604.9358	5420	4604.35
824.5017	607.0626	5393.7	4575.65
824.6462	609.1888	5367.45	4551.05
824.7908	611.3144	5412.4	4594.2
824.9354	613.4393	5423.95	4607.5
825.08	615.5636	5460.25	4643.05
825.2246	617.6873	5474.8	4657.5
825.3692	619.8103	5504.7	4685.6
825.5138	621.9327	5506	4681.85
825.6584	624.0544	5497.85	4680.05
825.803	626.1756	5443.2	4624.7
825.9477	628.2961	5399.35	4577.85
826.0923	630.4159	5385.6	4564.75
826.237	632.5351	5382.55	4561.35
826.3816	634.6537	5380.6	4558.85
826.5263	636.7716	5347.45	4523.1
826.6709	638.8889	5357.65	4535
826.8156	641.0056	5367.75	4544.6
826.9603	643.1216	5370.55	4546.6
827.105	645.237	5365.6	4540
827.2497	647.3518	5349.95	4525.4
827.3944	649.4659	5344.95	4521.55
827.5391	651.5793	5311.2	4486.7
827.6838	653.6922	5293	4468.1
827.8285	655.8043	5291.85	4465.55
827.9733	657.9159	5283.5	4456.6
828.118	660.0268	5258.25	4429.3
828.2627	662.137	5264.65	4436.7
828.4075	664.2466	5258.1	4428.65
828.5522	666.3556	5251.3	4424.95
828.697	668.4639	5233.1	4400.95
828.8418	670.5716	5249.5	4422.1
828.9865	672.6786	5243.35	4412.85
829.1313	674.785	5238.4	4407.15
829.2761	676.8907	5200.45	4367.3
829.4209	678.9958	5198.55	4369.75
829.5657	681.1002	5198	4365.75
829.7105	683.204	5200.15	4364.55
829.8553	685.3072	5181.35	4349.75
830.0001	687.4097	5185.25	4353.1
830.1449	689.5115	5175.1	4338.85
830.2898	691.6127	5175.95	4345.35
830.4346	693.7132	5172.45	4338.85
830.5794	695.8131	5181.35	4339.1
830.7243	697.9123	5178.65	4341.7
830.8691	700.0109	5179.8	4343.85
831.014	702.1089	5172.15	4337.75
831.1588	704.2061	5176.55	4343.4
831.3037	706.3028	5199	4360.7
831.4486	708.3987	5208.8	4372.85
831.5935	710.4941	5186.35	4351.6
831.7383	712.5887	5212.75	4375.5
831.8832	714.6827	5231.05	4392.3
832.0281	716.7761	5179.55	4341.8
832.173	718.8688	5199.3	4362.6
832.3179	720.9608	5191.4	4349.8
832.4628	723.0522	5205.2	4363.85
832.6077	725.1429	5209.5	4371.35
832.7527	727.233	5223.3	4385.35
832.8976	729.3224	5268.65	4430.55
833.0425	731.4112	5299.5	4455.55
833.1874	733.4993	5296.65	4456
833.3324	735.5867	5276.1	4435.5
833.4773	737.6735	5229.6	4387.6
833.6222	739.7596	5185.8	4343.55
833.7672	741.845	5148.2	4305.55
833.9122	743.9298	5157.15	4314.25
834.0571	746.014	5148.3	4305.85
834.2021	748.0974	5170.7	4327.4
834.347	750.1802	5153.35	4308.25
834.492	752.2624	5150.8	4308.4
834.637	754.3439	5121.4	4276.1
834.782	756.4247	5079.65	4228.65
834.9269	758.5048	5078.35	4235.75
835.0719	760.5843	5072.2	4225.6
835.2169	762.6631	5080.65	4236.1
835.3619	764.7413	5098.6	4253.75
835.5069	766.8188	5147.15	4300.7
835.6519	768.8956	5172.25	4324.4
835.7969	770.9718	5236.4	4391.1
835.9419	773.0473	5199.7	4354.2
836.0869	775.1221	5181.55	4335.85
836.232	777.1962	5163.9	4317.85
836.377	779.2697	5189.6	4340.95
836.522	781.3426	5252.15	4385.6
836.667	783.4147	5277.85	4429.85
836.8121	785.4862	5274.85	4430.3
836.9571	787.557	5221.25	4373.75
837.1021	789.6271	5140.35	4291.45
837.2472	791.6966	5053.45	4204.2
837.3922	793.7654	4954.5	4105.9
837.5373	795.8335	4917.7	4070.55
837.6823	797.901	4881	4031.35
837.8274	799.9678	4860.5	4009.15
837.9724	802.0339	4861.7	4013.2
838.1175	804.0993	4856.3	3996.4
838.2626	806.1641	4849.35	3999.4
838.4076	808.2282	4820.25	3970.3
838.5527	810.2916	4825.25	3971.8
838.6978	812.3544	4799.9	3950.15
838.8428	814.4164	4789.05	3939.15
838.9879	816.4778	4796.95	3945.9
839.133	818.5385	4779.75	3927.4
839.2781	820.5986	4802.9	3951.4
839.4232	822.658	4835.6	3983
839.5682	824.7166	4856.55	4007.6
839.7133	826.7747	4923.5	4074.35
839.8584	828.832	4955	4102.95
840.0035	830.8886	5005.1	4151.2
840.1486	832.9446	5003.9	4151.4
840.2937	834.9999	4986.65	4132.05
840.4388	837.0545	4931.8	4074.8
840.5839	839.1085	4885.7	4031.55
840.729	841.1618	4810.55	3954.3
840.8741	843.2143	4769.5	3915.45
841.0192	845.2662	4725.8	3873.9
841.1643	847.3175	4707.4	3854.6
841.3095	849.368	4690.45	3835.05
841.4546	851.4179	4695.45	3842.2
841.5997	853.467	4666.85	3812.3
841.7448	855.5155	4683.2	3827.1
841.8899	857.5633	4688.2	3833.7
842.0351	859.6105	4647	3792.65
842.1802	861.6569	4650.1	3794.7
842.3253	863.7027	4628.95	3773.9
842.4704	865.7478	4612.7	3756.95
842.6156	867.7922	4593.35	3738.55
842.7607	869.8359	4596.7	3740.7
842.9058	871.8789	4597	3738.85
843.0509	873.9212	4608.65	3720.65
843.1961	875.9629	4565.55	3709
843.3412	878.0039	4581.4	3722.5
843.4863	880.0441	4577.45	3720.45
843.6315	882.0837	4590.2	3730.75
843.7766	884.1226	4575.75	3716.15
843.9218	886.1609	4603.75	3746.35
844.0669	888.1984	4646.85	3791.3
844.212	890.2352	4677.2	3818.95
844.3572	892.2714	4668.8	3808.95
844.5023	894.3069	4657.5	3799.35
844.6475	896.3416	4601.45	3743.25
844.7926	898.3757	4564.85	3705.85
844.9377	900.4091	4552.65	3692.7
845.0829	902.4418	4544.85	3679.85
845.228	904.4739	4535.75	3675.7
845.3732	906.5052	4534.95	3672.85
845.5183	908.5358	4528.75	3670.05
845.6635	910.5658	4519.75	3656.5
845.8086	912.595	4474.15	3611.25
845.9538	914.6236	4446.05	3586.65
846.0989	916.6515	4430.5	3569.95
846.2441	918.6786	4402.25	3540.25
846.3892	920.7051	4386.6	3523.6
846.5344	922.7309	4369.4	3509.3
846.6795	924.756	4357.4	3497.95
846.8246	926.7804	4356.8	3492.15
846.9698	928.8041	4345.7	3480.5
847.1149	930.8272	4361.85	3499.55
847.2601	932.8495	4347.85	3485.6
847.4052	934.8711	4339.8	3476.75
847.5504	936.892	4336.7	3475.3
847.6955	938.9123	4345.1	3482.15
847.8407	940.9318	4363.6	3501.15
847.9858	942.9506	4355.25	3490.1
848.131	944.9688	4344.15	3480.1
848.2761	946.9862	4318.75	3454.05
848.4213	949.003	4292.3	3428.45
848.5664	951.019	4271.7	3407.5
848.7115	953.0344	4243.85	3379.95
848.8567	955.0491	4212.1	3345.85
849.0018	957.063	4201.05	3337.3
849.147	959.0763	4210.25	3338.1
849.2921	961.0888	4193.3	3326.25
849.4373	963.1007	4198.15	3332.7
849.5824	965.1119	4194	3329.75
849.7275	967.1223	4160.2	3295.95
849.8727	969.1321	4139.25	3276.45
850.0178	971.1412	4129.65	3264.95
850.1629	973.1495	4118.75	3254.45
850.3081	975.1572	4140.5	3241.5
850.4532	977.1641	4117.7	3254.35
850.5983	979.1704	4090.8	3224.15
850.7435	981.1759	4076.6	3208.2
850.8886	983.1808	4083.75	3215.95
851.0337	985.1849	4068.5	3192.1
851.1788	987.1884	4053.4	3185.6
851.324	989.1911	4049.1	3180.1
851.4691	991.1932	4045.05	3178.7
851.6142	993.1945	4022.85	3156.75
851.7593	995.1951	4000.45	3134.05
851.9045	997.1951	4015.85	3141.2
852.0496	999.1943	3996.2	3131
852.1947	1001.1928	3987.8	3120.9
852.3398	1003.1906	3983.15	3115.95
852.4849	1005.1877	3965.55	3096.45
852.63	1007.1841	3974.2	3106.8
852.7751	1009.1798	3980.35	3111.45
852.9202	1011.1748	3979.85	3113.9
853.0653	1013.1691	3940.05	3071.15
853.2104	1015.1627	3914.5	3046.6
853.3555	1017.1556	3851.3	2984.2
853.5006	1019.1477	3848.8	2979.65
853.6457	1021.1392	3822.1	2954.8
853.7908	1023.1299	3803.95	2936.5
853.9359	1025.12	3786.45	2917.05
854.081	1027.1093	3777.35	2910.15
854.2261	1029.0979	3793.15	2926.25
854.3712	1031.0859	3786.75	2919.2
854.5163	1033.0731	3793.7	2926.85
854.6613	1035.0596	3782.3	2912.55
854.8064	1037.0454	3759.5	2890.7
854.9515	1039.0304	3738.35	2868.85
855.0965	1041.0148	3719.6	2851.35
855.2416	1042.9985	3684.35	2813.05
855.3867	1044.9814	3667.1	2798.5
855.5317	1046.9636	3653.95	2783.65
855.6768	1048.9452	3643	2773.8
855.8219	1050.926	3660.65	2791.1
855.9669	1052.9061	3635.25	2766.55
856.112	1054.8855	3672.45	2803.65
856.257	1056.8642	3643.4	2775.35
856.4021	1058.8421	3645.05	2770.85
856.5471	1060.8194	3624.3	2754.55
856.6921	1062.7959	3596.35	2725.7
856.8372	1064.7717	3581.3	2709.6
856.9822	1066.7469	3592.3	2721.6
857.1272	1068.7213	3584.95	2713.3
857.2723	1070.695	3601.9	2730.5
857.4173	1072.6679	3611.3	2739.6
857.5623	1074.6402	3608.55	2735.6
857.7073	1076.6117	3598.95	2722.8
857.8523	1078.5826	3591.7	2719.5
857.9973	1080.5527	3556.65	2682.15
858.1423	1082.5221	3539	2666.05
858.2873	1084.4908	3488.95	2619.35
858.4323	1086.4587	3482.7	2608.9
858.5773	1088.426	3451	2580.55
858.7223	1090.3925	3441.35	2562.9
858.8673	1092.3584	3444.15	2572.75
859.0123	1094.3235	3429.75	2560.45
859.1573	1096.2879	3439.35	2566.1
859.3022	1098.2515	3445.6	2574.1
859.4472	1100.2145	3462.3	2589.25
859.5922	1102.1767	3473.7	2601.55
859.7371	1104.1382	3484.55	2611.8
859.8821	1106.099	3519.85	2646.4
860.027	1108.0591	3537.55	2667.2
860.172	1110.0185	3558.8	2684.5
860.3169	1111.9771	3593.25	2721
860.4619	1113.9351	3605.95	2731.7
860.6068	1115.8923	3635.25	2762.7
860.7517	1117.8488	3670.35	2795.4
860.8967	1119.8045	3626.25	2753.65
861.0416	1121.7596	3559.8	2687.1
861.1865	1123.7139	3481.55	2608.05
861.3314	1125.6675	3427.25	2554.1
861.4763	1127.6204	3405	2530.95
861.6212	1129.5726	3410.45	2532.65
861.7661	1131.524	3409.5	2535.75
861.911	1133.4748	3402.7	2527.35
862.0559	1135.4248	3345.8	2470
862.2008	1137.3741	3298.8	2425.35
862.3457	1139.3226	3263	2387
862.4905	1141.2705	3263.8	2388.15
862.6354	1143.2176	3240.4	2359.5
862.7803	1145.164	3252.4	2375.7
862.9251	1147.1097	3238.6	2360.7
863.07	1149.0546	3240.25	2362.35
863.2148	1150.9989	3212.25	2338.6
863.3597	1152.9424	3189.25	2313.9
863.5045	1154.8852	3177.85	2302.9
863.6493	1156.8272	3161.9	2287.95
863.7942	1158.7686	3153.8	2272.5
863.939	1160.7092	3167.3	2292.15
864.0838	1162.6491	3145.15	2268.45
864.2286	1164.5883	3132.3	2255.9
864.3734	1166.5267	3146.3	2269.15
864.5182	1168.4644	3158.55	2282.35
864.663	1170.4014	3190.75	2310.2
864.8078	1172.3377	3180.4	2307.35
864.9526	1174.2732	3220	2345.6
865.0974	1176.2081	3280.35	2406.3
865.2421	1178.1421	3349.05	2469.85
865.3869	1180.0755	3436	2561.35
865.5317	1182.0082	3482.5	2606.25
865.6764	1183.9401	3485.9	2609.2
865.8212	1185.8713	3395.3	2522.6
865.9659	1187.8017	3322	2446.3
866.1106	1189.7315	3233.25	2357.85
866.2554	1191.6605	3159.5	2284.2
866.4001	1193.5888	3104.45	2227.75
866.5448	1195.5163	3089.95	2214.2
866.6895	1197.4432	3052.05	2174.7
866.8342	1199.3693	3026.15	2151.8
866.9789	1201.2947	3016.75	2135.85
867.1236	1203.2193	3006	2129.25
867.2683	1205.1432	2997.35	2121.6
867.413	1207.0664	2972.6	2095
867.5576	1208.9889	2972.6	2092.2
867.7023	1210.9106	2972.7	2095.5
867.847	1212.8316	2968.5	2092.6
867.9916	1214.7519	2956.7	2071.55
868.1363	1216.6715	2946.95	2072.1
868.2809	1218.5903	2959.95	2082.75
868.4255	1220.5084	2959.05	2081.75
868.5701	1222.4257	2971.2	2091.55
868.7148	1224.3424	2958.85	2084.6
868.8594	1226.2583	2984	2100.7
869.004	1228.1735	2990.15	2112.95
869.1486	1230.0879	2995.7	2117.9
869.2932	1232.0016	3029.6	2153.7
869.4377	1233.9146	3046.1	2168.25
869.5823	1235.8269	3059.35	2182.5
869.7269	1237.7384	3051.4	2173.9
869.8715	1239.6492	3028.3	2149.95
870.016	1241.5592	3038.35	2160.55
870.1606	1243.4686	3052.5	2175.3
870.3051	1245.3772	3099.75	2222.35
870.4496	1247.285	3166.55	2288.5
870.5941	1249.1922	3213.65	2333.95
870.7387	1251.0986	3267.6	2389.15
870.8832	1253.0042	3301.3	2422.65
871.0277	1254.9092	3373.3	2493.35
871.1722	1256.8134	3417.85	2539.95
871.3167	1258.7169	3483.15	2603.85
871.4611	1260.6196	3520.6	2645
871.6056	1262.5216	3534.55	2656.55
871.7501	1264.4229	3523.1	2644.9
871.8945	1266.3234	3512.45	2633.55
872.039	1268.2232	3464.8	2584.3
872.1834	1270.1223	3416.1	2536.2
872.3278	1272.0207	3381.3	2501.5
872.4723	1273.9183	3368.85	2486.25
872.6167	1275.8151	3350.15	2470.05
872.7611	1277.7113	3374.65	2495.9
872.9055	1279.6067	3433.5	2553.8
873.0499	1281.5014	3507.25	2626.5
873.1943	1283.3953	3644	2763.3
873.3386	1285.2885	3789.15	2910.65
873.483	1287.181	3895.55	3015.75
873.6274	1289.0727	3956.85	3078.15
873.7717	1290.9637	3931.5	3051.9
873.9161	1292.854	3847.7	2970
874.0604	1294.7435	3734.9	2853.6
874.2047	1296.6323	3651.1	2770.8
874.349	1298.5204	3571.35	2687.95
874.4933	1300.4077	3503.4	2624.3
874.6376	1302.2943	3460.25	2581.75
874.7819	1304.1802	3440.8	2561.85
874.9262	1306.0653	3402.25	2519.5
875.0705	1307.9497	3373.4	2495.55
875.2147	1309.8333	3348.05	2469.25
875.359	1311.7162	3317.4	2439.75
875.5032	1313.5984	3299.7	2417.45
875.6475	1315.4798	3280.7	2399
875.7917	1317.3605	3283.85	2397.7
875.9359	1319.2405	3274.6	2393.9
876.0801	1321.1197	3268.65	2387.75
876.2243	1322.9982	3246.3	2358.75
876.3685	1324.876	3204.25	2324.45
876.5127	1326.753	3119.9	2238.8
876.6569	1328.6293	3056.05	2176.15
876.801	1330.5048	2985.2	2104.35
876.9452	1332.3796	2917.7	2038.4
877.0893	1334.2537	2900.1	1997.7
877.2335	1336.127	2840.75	1960.35
877.3776	1337.9996	2810.5	1928.45
877.5217	1339.8714	2796.1	1915.35
877.6658	1341.7426	2802.05	1878.65
877.8099	1343.6129	2759.4	1880.2
877.954	1345.4826	2728.1	1847.6
878.0981	1347.3515	2738.1	1855.85
878.2422	1349.2196	2702.5	1820.65
878.3862	1351.087	2706.05	1826
878.5303	1352.9537	2700.25	1818.65
878.6743	1354.8197	2705.2	1823.95
878.8184	1356.6849	2714.15	1834.35
878.9624	1358.5493	2704	1824.65
879.1064	1360.4131	2715.9	1833.5
879.2504	1362.276	2742.3	1863.7
879.3944	1364.1383	2750.3	1870.95
879.5384	1365.9998	2780	1895.9
879.6823	1367.8606	2769.1	1887.1
879.8263	1369.7206	2756.85	1874.5
879.9702	1371.5799	2740.65	1856.65
880.1142	1373.4384	2739.4	1857.7
880.2581	1375.2962	2709.75	1828
880.402	1377.1533	2676.4	1797.6
880.5459	1379.0096	2637.9	1756.25
880.6898	1380.8652	2607.65	1728.15
880.8337	1382.7201	2569.8	1689.6
880.9776	1384.5742	2555.2	1673.2
881.1215	1386.4275	2532.15	1649
881.2653	1388.2802	2513.65	1634.25
881.4092	1390.132	2498.3	1618.3
881.553	1391.9832	2488.4	1606
881.6968	1393.8336	2478.7	1596.5
881.8406	1395.6832	2459.75	1579.8
881.9844	1397.5322	2453.35	1573.5
882.1282	1399.3803	2455.35	1570.65
882.272	1401.2278	2421	1539.6
882.4158	1403.0745	2420.8	1539.35
882.5595	1404.9204	2411.8	1531.15
882.7033	1406.7656	2400.55	1517.4
882.847	1408.6101	2394.45	1512.45
882.9908	1410.4538	2385.25	1502.45
883.1345	1412.2968	2371.75	1491.4
883.2782	1414.139	2359.15	1477.05
883.4219	1415.9805	2376.8	1495.35
883.5656	1417.8213	2395.45	1493.35
883.7092	1419.6613	2382.85	1503.1
883.8529	1421.5006	2404.1	1521.95
883.9965	1423.3391	2420.4	1537.65
884.1402	1425.1769	2454.85	1573.65
884.2838	1427.0139	2512.6	1628.9
884.4274	1428.8502	2563.6	1682.7
884.571	1430.6858	2602.35	1719.3
884.7146	1432.5206	2633	1751.35
884.8582	1434.3547	2615.7	1731.1
885.0018	1436.188	2603.8	1721.95
885.1453	1438.0206	2598.6	1716.05
885.2889	1439.8524	2582.15	1698.7
885.4324	1441.6835	2566.85	1685.15
885.5759	1443.5139	2575.2	1690.65
885.7194	1445.3435	2576.05	1692.55
885.8629	1447.1724	2564.95	1684
886.0064	1449.0005	2559.65	1677.9
886.1499	1450.8279	2557.6	1674.6
886.2933	1452.6545	2543.9	1660.7
886.4368	1454.4804	2540.5	1659.2
886.5802	1456.3056	2541	1650.7
886.7237	1458.13	2513.1	1631.75
886.8671	1459.9536	2505	1622.3
887.0105	1461.7766	2477.45	1596.35
887.1539	1463.5987	2431.8	1548.95
887.2972	1465.4202	2414.05	1531.85
887.4406	1467.2409	2382.4	1500.6
887.584	1469.0608	2361.5	1478
887.7273	1470.88	2337.45	1454.8
887.8706	1472.6984	2310.25	1427.1
888.0139	1474.5161	2289.55	1402.4
888.1572	1476.3331	2265.4	1383.5
888.3005	1478.1493	2270.9	1388.05
888.4438	1479.9648	2255.4	1373.95
888.5871	1481.7795	2251.65	1368.75
888.7303	1483.5935	2246.75	1364.1
888.8736	1485.4067	2241.95	1357.7
889.0168	1487.2192	2250.05	1366.8
889.16	1489.031	2242.45	1357.55
889.3032	1490.842	2243.95	1362.25
889.4464	1492.6522	2234.3	1351.35
889.5896	1494.4618	2224.85	1341.35
889.7327	1496.2705	2220.85	1336.4
889.8759	1498.0785	2223.15	1339.7
890.019	1499.8858	2210.1	1324.4
890.1622	1501.6924	2201.85	1320.1
890.3053	1503.4981	2190.15	1308.2
890.4484	1505.3032	2190.9	1306.95
890.5914	1507.1075	2178.2	1296
890.7345	1508.911	2170.2	1287.3
890.8776	1510.7138	2154.8	1273.2
891.0206	1512.5159	2150.95	1266.6
891.1637	1514.3172	2152.25	1270.15
891.3067	1516.1178	2129.5	1248.7
891.4497	1517.9176	2134.7	1247.65
891.5927	1519.7166	2121.55	1238.75
891.7357	1521.515	2121.9	1232.4
891.8786	1523.3126	2111.8	1227.5
892.0216	1525.1094	2094.7	1209.2
892.1645	1526.9055	2095.55	1213.6
892.3074	1528.7008	2075.3	1192.45
892.4503	1530.4954	2068.75	1185
892.5932	1532.2893	2079.25	1197.1
892.7361	1534.0824	2069.65	1183.5
892.879	1535.8747	2059.25	1176.6
893.0218	1537.6663	2050.75	1167.45
893.1647	1539.4572	2049.7	1166.55
893.3075	1541.2473	2051.9	1166.6
893.4503	1543.0367	2041.05	1158.4
893.5931	1544.8253	2042.35	1152.95
893.7359	1546.6132	2043.75	1158.7
893.8787	1548.4003	2041.35	1148.2
894.0214	1550.1867	2046.1	1152.85
894.1642	1551.9723	2049.15	1162.85
894.3069	1553.7572	2054.9	1172.15
894.4496	1555.5414	2055.4	1169.4
894.5923	1557.3247	2075.7	1192.4
894.735	1559.1074	2099.45	1216.35
894.8777	1560.8893	2110.3	1227.5
895.0204	1562.6705	2142.75	1257.95
895.163	1564.4509	2156.4	1274.9
895.3056	1566.2305	2159.3	1277.1
895.4482	1568.0094	2165.55	1283.25
895.5908	1569.7876	2164.85	1282.45
895.7334	1571.565	2157.7	1273.4
895.876	1573.3417	2155.75	1273.1
896.0186	1575.1176	2156	1273.8
896.1611	1576.8928	2168.25	1285.45
896.3036	1578.6672	2186.35	1303.65
896.4461	1580.4409	2188	1306.4
896.5886	1582.2138	2208.8	1323.55
896.7311	1583.986	2248.9	1365.35
896.8736	1585.7575	2264.55	1381.9
897.0161	1587.5282	2293.6	1412.45
897.1585	1589.2981	2308.4	1425.65
897.3009	1591.0673	2313.9	1430.85
897.4433	1592.8358	2323.95	1443.55
897.5857	1594.6035	2325.2	1439.1
897.7281	1596.3704	2301.9	1420.45
897.8705	1598.1366	2286.15	1405
898.0128	1599.9021	2277.95	1396.05
898.1551	1601.6668	2247.05	1361.2
898.2975	1603.4308	2227.15	1343.75
898.4398	1605.194	2220.5	1334.4
898.5821	1606.9564	2228.1	1345
898.7243	1608.7182	2272.65	1385.85
898.8666	1610.4791	2312.35	1429.3
899.0088	1612.2394	2407.75	1525.35
899.1511	1613.9988	2476.9	1593.65
899.2933	1615.7576	2544.45	1664.5
899.4355	1617.5156	2577.3	1688.85
899.5776	1619.2728	2560.55	1678.55
899.7198	1621.0293	2493.8	1613.7
899.862	1622.785	2413.55	1531.15
900.0041	1624.54	2315.9	1432.9
900.1462	1626.2942	2212.15	1326.65
900.2883	1628.0477	2135	1249.4
900.4304	1629.8005	2069.85	1182.6
900.5725	1631.5525	1995.55	1111.95
900.7145	1633.3037	1954.3	1069.85
900.8566	1635.0542	1922.6	1040
900.9986	1636.804	1890.6	1007.8
901.1406	1638.553	1923.25	991.45
901.2826	1640.3013	1859.9	976.75
901.4245	1642.0488	1834.3	949.1
901.5665	1643.7955	1815.75	933.35
901.7085	1645.5416	1814.55	931.8
901.8504	1647.2868	1803.35	920.05
901.9923	1649.0313	1782.2	898.15
902.1342	1650.7751	1779.5	892.1
902.2761	1652.5181	1770.5	886.75
902.4179	1654.2604	1770.05	885.75
902.5598	1656.0019	1776.25	893.15
902.7016	1657.7427	1777.15	894.9
902.8434	1659.4828	1782.35	900.45
902.9852	1661.222	1810.45	927.5
903.127	1662.9606	1831.1	949.3
903.2687	1664.6984	1858.8	976.2
903.4105	1666.4354	1871.35	990.4
903.5522	1668.1717	1857.5	973.95
903.6939	1669.9072	1818.8	935.55
903.8356	1671.642	1791.55	907.4
903.9773	1673.3761	1751.6	867.95
904.119	1675.1094	1718.65	835.45
904.2606	1676.8419	1700.85	818.15
904.4022	1678.5737	1685.75	803.75
904.5439	1680.3048	1673.5	788.8
904.6855	1682.0351	1667.9	785.4
904.827	1683.7646	1662.65	774.8
904.9686	1685.4934	1653	771.5
905.1101	1687.2215	1642.8	758.9
905.2517	1688.9488	1635.55	752.15
905.3932	1690.6754	1633.9	751.65
905.5347	1692.4012	1629.8	745.45
905.6761	1694.1263	1625.9	743.2
905.8176	1695.8506	1611.15	729.4
905.9591	1697.5742	1615.25	731
906.1005	1699.297	1607.6	724.2
906.2419	1701.0191	1601.6	718.45
906.3833	1702.7404	1600.65	719.05
906.5246	1704.461	1597.7	712.7
906.666	1706.1808	1587.9	702.65
906.8073	1707.8999	1593.3	712
906.9487	1709.6182	1590.6	707.2
907.09	1711.3358	1587.35	705.15
907.2313	1713.0527	1574.25	692.45
907.3725	1714.7688	1583.25	693.85
907.5138	1716.4841	1567.9	682.55
907.655	1718.1987	1581.2	692.5
907.7962	1719.9126	1564.5	683.55
907.9374	1721.6257	1559.45	673.2
908.0786	1723.338	1561.4	676.25
908.2198	1725.0496	1559.6	674.25
908.3609	1726.7605	1553.35	668.85
908.502	1728.4706	1547.8	664.95
908.6431	1730.18	1547.5	660.7
908.7842	1731.8886	1550.95	667.1
908.9253	1733.5964	1542.4	653.45
909.0664	1735.3036	1544.65	659.15
909.2074	1737.0099	1540.4	657.35
909.3484	1738.7156	1547.15	664.95
909.4894	1740.4204	1539.95	650.65
909.6304	1742.1246	1534	649.45
909.7714	1743.8279	1529.05	646.65
909.9123	1745.5306	1542.05	657.95
910.0532	1747.2325	1530.8	646.05
910.1941	1748.9336	1537.95	656
910.335	1750.634	1529.15	643.8
910.4759	1752.3336	1521.85	638.1
910.6168	1754.0325	1534.95	652.6
910.7576	1755.7307	1520.15	636.2
910.8984	1757.4281	1523	637.8
911.0392	1759.1247	1534.3	644.35
911.18	1760.8206	1524.4	637.4
911.3208	1762.5158	1522.1	637.1
911.4615	1764.2102	1515.55	632.8
911.6022	1765.9039	1517.15	632.1
911.7429	1767.5968	1510.2	628.6
911.8836	1769.289	1518.1	632.85
912.0243	1770.9804	1510.85	627.05
912.1649	1772.6711	1509.75	625.85
912.3056	1774.361	1506.8	622.95
912.4462	1776.0502	1505.25	620.45
912.5868	1777.7386	1508.05	620.9
912.7274	1779.4263	1506.65	622.15
912.8679	1781.1132	1508.7	627.3
913.0084	1782.7994	1493.85	610.4
913.149	1784.4849	1496.05	612.3
913.2895	1786.1696	1501.9	612.2
913.4299	1787.8535	1488.45	606.95
913.5704	1789.5367	1481.75	598.7
913.7108	1791.2192	1493.2	609.25
913.8513	1792.9009	1514.55	603.6
913.9917	1794.5818	1488.65	603.05
914.132	1796.2621	1483.85	602.15
914.2724	1797.9415	1483.15	598.5
914.4128	1799.6202	1484.8	602.55
914.5531	1801.2982	1481.4	599.65
914.6934	1802.9755	1482.2	598.8
914.8337	1804.6519	1480	597.5
914.9739	1806.3277	1473.8	589.5
915.1142	1808.0027	1460.95	578.8
915.2544	1809.6769	1473	589
915.3946	1811.3504	1466.4	579.9
915.5348	1813.0231	1467.7	583.9
915.675	1814.6951	1461.3	579.2
915.8151	1816.3664	1464.2	578.65
915.9553	1818.0369	1456.9	572.95
916.0954	1819.7067	1453.7	569.9
916.2355	1821.3757	1459.25	574.5
916.3755	1823.044	1457.9	575.6
916.5156	1824.7115	1453.65	570.8
916.6556	1826.3783	1451.05	568.1
916.7956	1828.0443	1450.15	570.25
916.9356	1829.7096	1451.9	567.65
917.0756	1831.3741	1454.05	568.1
917.2155	1833.0379	1451.15	569.05
917.3555	1834.701	1449.05	562.85
917.4954	1836.3633	1440.2	554.7
917.6353	1838.0248	1447.4	562.2
917.7751	1839.6856	1440.75	557.4
917.915	1841.3457	1437.55	556.5
918.0548	1843.005	1441.65	558.15
918.1946	1844.6636	1439.55	557.65
918.3344	1846.3214	1433.85	549.1
918.4742	1847.9785	1435.85	554.55
918.6139	1849.6349	1438.35	553.15
918.7537	1851.2904	1445.2	552.2
918.8934	1852.9453	1432.65	548.95
919.0331	1854.5994	1431	545.6
919.1727	1856.2528	1434	544.95
919.3124	1857.9054	1424.8	539.85
919.452	1859.5572	1430	547.6
919.5916	1861.2083	1426.2	542.35
919.7312	1862.8587	1415.7	530.4
919.8708	1864.5084	1424.65	539.55
920.0103	1866.1572	1414.7	530.45
920.1498	1867.8054	1405.15	521.85
920.2893	1869.4528	1416.8	534.4
920.4288	1871.0994	1420.8	537.25
920.5683	1872.7453	1410.8	525.35
920.7077	1874.3905	1421.2	531.6
920.8471	1876.0349	1415.45	530.35
920.9865	1877.6786	1411.8	527.15
921.1259	1879.3215	1413.95	528.55
921.2653	1880.9637	1407.45	522
921.4046	1882.6051	1407.6	524
921.5439	1884.2458	1408.15	521.95
921.6832	1885.8858	1401.7	518
921.8225	1887.525	1399.95	515.25
921.9617	1889.1634	1398.05	515
922.101	1890.8011	1392.75	509.8
922.2402	1892.4381	1401.95	518.55
922.3794	1894.0743	1394.85	512.8
922.5185	1895.7098	1394.6	510
922.6577	1897.3446	1391.3	509.4
922.7968	1898.9786	1394.5	507.3
922.9359	1900.6118	1389.45	504.55
923.075	1902.2443	1386.2	503
923.214	1903.8761	1387.6	503.25
923.3531	1905.5071	1386.4	499.1
923.4921	1907.1374	1383.65	500.4
923.6311	1908.7669	1383.6	497.3
923.77	1910.3957	1380.65	497.3
923.909	1912.0237	1380.15	496.65
924.0479	1913.651	1376.2	490.9
924.1868	1915.2776	1371.95	490.6
924.3257	1916.9034	1372.1	489.65
924.4646	1918.5285	1374	491.9
924.6034	1920.1528	1368.5	483.8
924.7422	1921.7764	1371.95	488.55
924.881	1923.3992	1361.4	477.65
925.0198	1925.0213	1363.9	480.6
925.1586	1926.6427	1356.35	472.2
925.2973	1928.2633	1425.85	475.2
925.436	1929.8832	1360.95	474.95
925.5747	1931.5023	1356.45	473.65
925.7134	1933.1207	1361.75	476.45
925.852	1934.7383	1361.05	477.5
925.9906	1936.3552	1353.45	470.35
926.1292	1937.9714	1354.05	468.9
926.2678	1939.5868	1350.35	467.55
926.4064	1941.2015	1355.55	472.35
926.5449	1942.8154	1348.15	463.15
926.6834	1944.4286	1339.6	454.4
926.8219	1946.041	1363.2	454.2
926.9604	1947.6528	1351.9	461.55
927.0988	1949.2637	1338.1	456.1
927.2372	1950.8739	1339.55	455.15
927.3756	1952.4834	1341.55	458.95
927.514	1954.0921	1340	454.95
927.6523	1955.7001	1343.4	455
927.7907	1957.3074	1334.1	451
927.929	1958.9139	1338.05	455.65
928.0673	1960.5197	1338.4	453.75
928.2055	1962.1247	1330.45	445.5
928.3438	1963.729	1322.85	441.15
928.482	1965.3325	1351.5	444.05
928.6202	1966.9353	1328.4	445.4
928.7584	1968.5374	1318.35	434.2
928.8965	1970.1387	1324.65	441.65
929.0346	1971.7393	1323.9	439.55
929.1727	1973.3392	1323.95	440.4
929.3108	1974.9383	1324.25	443.15
929.4489	1976.5366	1319.1	436.45
929.5869	1978.1342	1319.9	436.6
929.7249	1979.7311	1318.8	433.5
929.8629	1981.3273	1315.3	431.65
930.0009	1982.9227	1314.75	428.6
930.1388	1984.5173	1311.95	429.95
930.2767	1986.1112	1311.4	428.65
930.4146	1987.7044	1313.55	431
930.5525	1989.2968	1309.4	424.95
930.6904	1990.8885	1316.1	430.1
930.8282	1992.4795	1306.7	420.75
930.966	1994.0697	1304.25	421.6
931.1038	1995.6592	1308.4	425.2
931.2415	1997.2479	1297.9	415.65
931.3793	1998.8359	1308.2	423.85
931.517	2000.4232	1305.95	424.9
931.6547	2002.0097	1300.6	419.55
931.7923	2003.5955	1300.45	416.2
931.93	2005.1805	1301.6	417.7
932.0676	2006.7648	1296.9	414.1
932.2052	2008.3484	1296.05	411.6
932.3427	2009.9312	1300.7	416.95
932.4803	2011.5133	1292.95	409.7
932.6178	2013.0946	1299.35	416.95
932.7553	2014.6752	1292.45	409.2
932.8928	2016.2551	1298.85	415.25
933.0302	2017.8342	1289.05	408.15
933.1676	2019.4126	1291.4	408.65
933.305	2020.9902	1286.15	404.65
933.4424	2022.5672	1293.85	408.15
933.5798	2024.1433	1291.5	402.2
933.7171	2025.7188	1291.1	409.4
933.8544	2027.2935	1292.95	410.25
933.9917	2028.8674	1277.55	395.7
934.129	2030.4406	1288.95	405.45
934.2662	2032.0131	1282.5	401
934.4034	2033.5849	1283.8	394.05
934.5406	2035.1559	1283.35	401.6
934.6778	2036.7261	1282.1	399.5
934.8149	2038.2957	1278.95	395
934.952	2039.8645	1281.1	398.2
935.0891	2041.4325	1283.05	396.6
935.2262	2042.9998	1279.45	396.15
935.3632	2044.5664	1284.75	398.95
935.5002	2046.1323	1276.4	396
935.6372	2047.6974	1275.65	392.7
935.7742	2049.2617	1277.85	395.7
935.9111	2050.8254	1284.05	394.45
936.048	2052.3883	1270.45	384.95
936.1849	2053.9504	1274.55	392
936.3218	2055.5118	1272.4	388.05
936.4586	2057.0725	1275.2	387.4
936.5955	2058.6325	1272.25	389.1
936.7323	2060.1917	1271.35	389.95
936.869	2061.7502	1278.45	393.9
937.0058	2063.3079	1267.25	383.55
937.1425	2064.8649	1276.4	389.65
937.2792	2066.4212	1276.45	394.65
937.4159	2067.9767	1262	380.35
937.5525	2069.5315	1269.6	386.5
937.6891	2071.0856	1265.8	380.85
937.8257	2072.6389	1265.75	381.25
937.9623	2074.1915	1258.55	376.25
938.0989	2075.7433	1268.05	382.95
938.2354	2077.2945	1253.7	370.1
938.3719	2078.8448	1263.25	381
938.5084	2080.3945	1262.4	381.35
938.6448	2081.9434	1260.6	377.7
938.7812	2083.4916	1258.4	373.55
938.9176	2085.039	1269.05	384.65
939.054	2086.5857	1263.95	379.3
939.1903	2088.1317	1260.75	376.15
939.3267	2089.677	1259.45	375.4
939.463	2091.2215	1255.25	373
939.5992	2092.7652	1257.55	372.3
939.7355	2094.3083	1260.05	377.1
939.8717	2095.8506	1256.65	375.3
940.0079	2097.3921	1254.55	373.2
940.1441	2098.933	1250.75	367.65
940.2802	2100.4731	1256.1	373.8
940.4163	2102.0124	1268.15	377.5
940.5524	2103.5511	1256.55	372.75
940.6885	2105.089	1252.65	371.4
940.8245	2106.6261	1253.35	369.85
940.9606	2108.1626	1250.5	365.85
941.0965	2109.6983	1284.7	372.6
941.2325	2111.2332	1246.25	361.6
941.3684	2112.7675	1249.95	368.3
941.5044	2114.301	1254.7	369.75
941.6403	2115.8337	1250.3	367
941.7761	2117.3657	1247.9	363.5
941.912	2118.897	1241.55	356.1
942.0478	2120.4276	1254.35	365.5
942.1835	2121.9575	1247.5	362.3
942.3193	2123.4866	1261.15	363.3
942.455	2125.0149	1244.2	358.95
942.5907	2126.5426	1239.5	356.2
942.7264	2128.0695	1250.2	364.15
942.8621	2129.5956	1244.7	364.3
942.9977	2131.1211	1247.65	362.7
943.1333	2132.6458	1243.8	360.65
943.2689	2134.1698	1243.6	360.7
943.4044	2135.693	1246.85	362.9
943.54	2137.2155	1243.7	358.6
943.6755	2138.7373	1242.1	357.25
943.8109	2140.2584	1239.8	357.05
943.9464	2141.7787	1238.95	350.7
944.0818	2143.2983	1232.95	351.3
944.2172	2144.8171	1239.1	358.4
944.3526	2146.3353	1237.6	354.3
944.4879	2147.8527	1235.6	352.9
944.6232	2149.3693	1234.7	352.45
944.7585	2150.8853	1235.85	350.55
944.8938	2152.4005	1235	351.35
945.029	2153.9149	1226.25	341
945.1642	2155.4287	1325.5	341.45
945.2994	2156.9417	1242.75	358.6
945.4346	2158.454	1226.45	341.3
945.5697	2159.9655	1228.8	345.25
945.7048	2161.4764	1231.65	349.35
945.8399	2162.9865	1229.65	344.65
945.9749	2164.4958	1231.75	347.3
946.1099	2166.0045	1226.8	342.15
946.2449	2167.5124	1229.45	345.2
946.3799	2169.0195	1223.75	341.3
946.5148	2170.526	1222.8	339.45
946.6498	2172.0317	1218.9	336
946.7846	2173.5367	1222.25	338.45
946.9195	2175.0409	1225.4	341.7
947.0543	2176.5445	1222.8	341.45
947.1891	2178.0473	1221.65	337.2
947.3239	2179.5494	1224.05	335.8
947.4587	2181.0507	1219.2	335.55
947.5934	2182.5513	1214.8	330.6
947.7281	2184.0512	1218.6	335.6
947.8628	2185.5504	1214.05	330.5
947.9974	2187.0488	1213.25	331.2
948.132	2188.5465	1216.3	333.5
948.2666	2190.0435	1209.75	324.9
948.4012	2191.5397	1211.6	328.85
948.5357	2193.0353	1212.85	331.6
948.6702	2194.5301	1205.45	323.1
948.8047	2196.0241	1211.4	326.55
948.9392	2197.5175	1212.2	329.75
949.0736	2199.0101	1210.75	323.6
949.208	2200.502	1205.65	324.05
949.3424	2201.9931	1205.35	322.2
949.4767	2203.4835	1204.2	319.05
949.611	2204.9733	1219.35	319.5
949.7453	2206.4622	1204.9	322.8
949.8796	2207.9505	1202.2	317.8
950.0138	2209.438	1196	314.85
950.148	2210.9248	1200.8	315.85
950.2822	2212.4109	1196.7	313.35
950.4164	2213.8962	1204.3	320.1
950.5505	2215.3809	1201.3	316.45
950.6846	2216.8648	1199.95	316.15
950.8186	2218.3479	1199.55	313
950.9527	2219.8304	1200.9	314.85
951.0867	2221.3121	1192.4	308.6
951.2207	2222.7931	1189.1	306.55
951.3546	2224.2733	1189.65	304.35
951.4886	2225.7529	1194.1	310.6
951.6225	2227.2317	1189.55	302.8
951.7563	2228.7098	1190.9	308.2
951.8902	2230.1872	1180.2	297.45
952.024	2231.6638	1184.2	303
952.1578	2233.1397	1189.05	302.4
952.2916	2234.6149	1182.6	299.8
952.4253	2236.0894	1182.4	297.1
952.559	2237.5632	1186.35	301.45
952.6927	2239.0362	1181.75	298.85
952.8263	2240.5085	1186.8	303.65
952.9599	2241.9801	1182.6	298.45
953.0935	2243.4509	1179.8	300.05
953.2271	2244.921	1178.35	294.95
953.3606	2246.3904	1177	290.6
953.4941	2247.8591	1176.6	294.6
953.6276	2249.3271	1179.25	296.2
953.7611	2250.7943	1174.15	288.3
953.8945	2252.2608	1167.25	283.7
954.0279	2253.7266	1169.95	287.4
954.1612	2255.1917	1169.4	286.2
954.2946	2256.656	1169.15	285.9
954.4279	2258.1197	1171.25	286.6
954.5612	2259.5826	1169.2	283.75
954.6944	2261.0447	1172.55	288.9
954.8276	2262.5062	1169.85	284.35
954.9608	2263.9669	1165.9	278.85
955.094	2265.4269	1162.9	280.9
955.2271	2266.8862	1167	282.45
955.3602	2268.3448	1164.9	282.2
955.4933	2269.8026	1165.45	281.85
955.6264	2271.2598	1163.1	281.85
955.7594	2272.7162	1160.55	277.6
955.8924	2274.1719	1167.2	282.8
956.0253	2275.6268	1158	271.6
956.1583	2277.0811	1161.85	279.2
956.2912	2278.5346	1161.1	277.25
956.4241	2279.9874	1158.45	275.1
956.5569	2281.4395	1165.55	282.75
956.6897	2282.8908	1160.35	273.05
956.8225	2284.3414	1159.1	274.8
956.9553	2285.7914	1154.45	272.25
957.088	2287.2406	1156.25	269.9
957.2207	2288.689	1157.2	274.3
957.3534	2290.1368	1157.4	273.35
957.486	2291.5838	1153.05	266
957.6186	2293.0302	1153	270.6
957.7512	2294.4758	1152.8	269.65
957.8838	2295.9206	1152.05	266.65
958.0163	2297.3648	1150.7	268.5
958.1488	2298.8082	1153.05	270.2
958.2813	2300.251	1146.35	261.9
958.4137	2301.693	1154.6	267.75
958.5461	2303.1343	1154.6	271.3
958.6785	2304.5748	1147.1	262.45
958.8108	2306.0147	1144.95	261.8
958.9432	2307.4538	1145.3	260.6
959.0754	2308.8922	1140.15	260.25
959.2077	2310.3299	1142.9	260.25
959.3399	2311.7669	1149	266.75
959.4721	2313.2031	1136.45	250.5
959.6043	2314.6387	1140.7	256.6
959.7365	2316.0735	1141.5	258.2
959.8686	2317.5076	1141.6	258.25
960.0006	2318.941	1137.75	254.8
960.1327	2320.3737	1141.8	260.3
960.2647	2321.8056	1140.25	254.75
960.3967	2323.2369	1142.6	259.35
960.5287	2324.6674	1142.75	257
960.6606	2326.0972	1136.8	251.25
960.7925	2327.5263	1138.8	256.6
960.9244	2328.9547	1142.2	257.15
961.0562	2330.3823	1136.45	253.05
961.1881	2331.8092	1140.7	255.1
961.3198	2333.2355	1137	253.1
961.4516	2334.661	1128.65	243.75
961.5833	2336.0858	1135.35	249.35
961.715	2337.5098	1125.9	241.55
961.8467	2338.9332	1130.3	246.7
961.9783	2340.3558	1132.15	246.15
962.1099	2341.7778	1123.3	239.7
962.2415	2343.199	1126.35	241.25
962.373	2344.6195	1122.1	239.4
962.5045	2346.0393	1133.6	249.1
962.636	2347.4583	1129.6	246.1
962.7675	2348.8767	1123.4	238.85
962.8989	2350.2943	1127.6	243.4
963.0303	2351.7113	1123.9	240.25
963.1617	2353.1275	1126.35	242.4
963.293	2354.543	1148.45	243.05
963.4243	2355.9578	1121.25	235.25
963.5556	2357.3718	1120.8	237.7
963.6868	2358.7852	1121.45	233.25
963.818	2360.1978	1115.85	231.3
963.9492	2361.6098	1118.6	236.3
964.0803	2363.021	1118	229.25
964.2114	2364.4315	1118.15	234.25
964.3425	2365.8413	1113	226.2
964.4736	2367.2504	1111.35	229.1
964.6046	2368.6587	1110.3	226.7
964.7356	2370.0664	1111.65	226.9
964.8666	2371.4733	1113.15	227.15
964.9975	2372.8795	1106.8	224.5
965.1284	2374.285	1111.2	225.95
965.2593	2375.6899	1110.15	227.2
965.3901	2377.0939	1107.15	224.1
965.5209	2378.4973	1105.8	222.55
965.6517	2379.9	1107.5	225.75
965.7825	2381.3019	1105	221.9
965.9132	2382.7032	1108.9	226.85
966.0439	2384.1037	1104.95	220.25
966.1745	2385.5035	1101.55	220.65
966.3051	2386.9027	1102.15	218.2
966.4357	2388.3011	1106	219
966.5663	2389.6987	1101.15	217.6
966.6968	2391.0957	1099.3	213.8
966.8273	2392.492	1097.65	216.15
966.9578	2393.8876	1098.8	214.35
967.0882	2395.2824	1092.65	207.85
967.2186	2396.6765	1095.15	211.55
967.349	2398.07	1096.25	215.4
967.4793	2399.4627	1092.7	209.5
967.6097	2400.8547	1092.75	209.35
967.7399	2402.246	1097.9	207.8
967.8702	2403.6366	1098.6	214.1
968.0004	2405.0265	1087.85	202.35
968.1306	2406.4156	1097.25	209.5
968.2607	2407.8041	1093.5	207.05
968.3909	2409.1918	1093.3	207.05
968.521	2410.5789	1084.55	200.05
968.651	2411.9652	1093.15	206.5
968.781	2413.3508	1088.75	205.05
968.911	2414.7358	1086.3	202.65
969.041	2416.12	1081.9	198.15
969.1709	2417.5035	1083.2	199.75
969.3008	2418.8863	1083.35	197.8
969.4307	2420.2684	1085.65	201.3
969.5606	2421.6497	1076.5	192.6
969.6904	2423.0304	1082.85	201.4
969.8201	2424.4104	1082.15	198.3
969.9499	2425.7896	1081.9	197.3
970.0796	2427.1682	1081.85	199.2
970.2093	2428.546	1076	191
970.3389	2429.9232	1079.25	193.6
970.4685	2431.2996	1079.7	196.5
970.5981	2432.6753	1076.7	193.15
970.7277	2434.0503	1079.95	196.1
970.8572	2435.4246	1075.7	193.45
970.9867	2436.7982	1076.25	190
971.1161	2438.1711	1075.1	190.8
971.2456	2439.5433	1079.5	197.05
971.375	2440.9148	1078.55	187.25
971.5043	2442.2856	1068.5	184.3
971.6336	2443.6557	1073.8	189.25
971.7629	2445.025	1075.7	190.95
971.8922	2446.3937	1070.25	183.6
972.0214	2447.7617	1073.15	188.3
972.1506	2449.1289	1072.4	187.8
972.2798	2450.4955	1075.25	188.95
972.4089	2451.8613	1066.95	184.95
972.538	2453.2265	1072.65	188.05
972.6671	2454.5909	1070	185.9
972.7961	2455.9546	1065.65	181.65
972.9251	2457.3177	1066.05	183.85
973.0541	2458.68	1070.35	184.5
973.1831	2460.0416	1066.95	184.8
973.312	2461.4025	1063	176.45
973.4408	2462.7627	1070.6	175.5
973.5697	2464.1222	1064.75	182.55
973.6985	2465.4811	1066.3	182.15
973.8273	2466.8392	1064.85	180.9
973.956	2468.1966	1066.45	180.35
974.0847	2469.5533	1062.85	176.45
974.2134	2470.9093	1066.5	184.45
974.3421	2472.2645	1060.35	174.35
974.4707	2473.6191	1062	177.45
974.5993	2474.973	1060.65	176.35
974.7278	2476.3262	1060.4	173
974.8563	2477.6787	1057.9	177.25
974.9848	2479.0305	1060.65	175.15
975.1132	2480.3816	1060.9	176.65
975.2417	2481.7319	1057.15	173.4
975.37	2483.0816	1060	174.2
975.4984	2484.4306	1056.45	171.3
975.6267	2485.7789	1056.2	171.3
975.755	2487.1264	1058.2	174.5
975.8833	2488.4733	1050.65	169.75
976.0115	2489.8195	1071.4	171.75
976.1397	2491.165	1058.35	170.95
976.2678	2492.5097	1051.7	163.7
976.3959	2493.8538	1053.7	171.2
976.524	2495.1972	1049.45	164.4
976.6521	2496.5398	1054.85	170.05
976.7801	2497.8818	1050.65	165
976.9081	2499.2231	1050.75	165.8
977.036	2500.5637	1054.25	169.1
977.164	2501.9035	1053.9	169.15
977.2918	2503.2427	1053	166.3
977.4197	2504.5812	1043.95	161.55
977.5475	2505.919	1045.75	160.05
977.6753	2507.256	1043.25	159
977.8031	2508.5924	1047.3	164.35
977.9308	2509.9281	1051	159.8
978.0585	2511.2631	1045.35	163.6
978.1861	2512.5974	1044.55	158.15
978.3137	2513.9309	1043.65	159.75
978.4413	2515.2638	1067.35	158.4
978.5689	2516.596	1044.3	160.5
978.6964	2517.9275	1042.1	157.45
978.8239	2519.2583	1040.35	155.35
978.9513	2520.5884	1038.15	154.85
979.0788	2521.9178	1037.35	153.55
979.2062	2523.2465	1039.2	155
979.3335	2524.5745	1036.85	152.6
979.4608	2525.9018	1036.2	152.05
979.5881	2527.2284	1038.5	156.85
979.7154	2528.5543	1035.1	152.5
979.8426	2529.8796	1038.2	151.45
979.9698	2531.2041	1032.2	150.05
980.0969	2532.5279	1036	153.45
980.224	2533.851	1036.75	152.5
980.3511	2535.1735	1032	150.1
980.4781	2536.4952	1035.85	150.65
980.6052	2537.8163	1030.15	146.55
980.7321	2539.1366	1034.65	149.05
980.8591	2540.4562	1032.15	147.9
980.986	2541.7752	1030.65	148.15
981.1129	2543.0935	1030.25	143.7
981.2397	2544.411	1035.75	151.45
981.3665	2545.7279	1031.2	148.1
981.4933	2547.0441	1032.85	149.45
981.62	2548.3596	1034.85	147.05
981.7467	2549.6744	1031.25	146.45
981.8734	2550.9885	1030.55	144.65
982.0001	2552.3019	1029.55	146.7
982.1267	2553.6146	1029.95	145.15
982.2532	2554.9266	1024.55	142
982.3798	2556.2379	1034.3	149
982.5063	2557.5485	1026.4	142.7
982.6327	2558.8585	1028.95	136.6
982.7592	2560.1677	1028.5	138.45
982.8856	2561.4762	1025.85	140.9
983.0119	2562.7841	1030.1	144.5
983.1383	2564.0913	1028.15	145.85
983.2646	2565.3977	1026.4	142.3
983.3908	2566.7035	1025.45	140.15
983.517	2568.0086	1029.35	143.65
983.6432	2569.313	1024.3	139.4
983.7694	2570.6167	1026.35	140.35
983.8955	2571.9197	1021.5	137.85
984.0216	2573.222	1027.15	138.95
984.1476	2574.5236	1024.2	140.4
984.2737	2575.8246	1025.05	139.45
984.3996	2577.1248	1025.2	139.85
984.5256	2578.4244	1015.55	133.4
984.6515	2579.7232	1021.55	137.5
984.7774	2581.0214	1053.25	142
984.9032	2582.3189	1019.15	135.6
985.029	2583.6157	1036	137.85
985.1548	2584.9118	1020.35	136.6
985.2806	2586.2072	1018.5	135.15
985.4063	2587.5019	1019.9	137.35
985.5319	2588.7959	1014.85	131.7
985.6576	2590.0893	1023.3	137.1
985.7832	2591.3819	1019.15	135.75
985.9087	2592.6739	1016.45	132.9
986.0343	2593.9652	1015.1	131.45
986.1597	2595.2557	1015.5	131.3
986.2852	2596.5456	1017.3	131.55
986.4106	2597.8348	1014.5	132.75
986.536	2599.1234	1013.95	131.35
986.6614	2600.4112	1016.7	133.35
986.7867	2601.6983	1018.85	132.7
986.912	2602.9848	1014.2	129
987.0372	2604.2705	1023.3	133.1
987.1624	2605.5556	1017.15	134.6
987.2876	2606.84	1014.9	132.05
987.4128	2608.1237	1014.95	130.55
987.5379	2609.4067	1011.55	127.45
987.6629	2610.689	1020.85	128.7
987.788	2611.9707	1012.4	122.9
987.913	2613.2516	1019.05	131
988.0379	2614.5319	1008.5	126.4
988.1629	2615.8115	1007.3	122.8
988.2878	2617.0903	1007	121.75
988.4126	2618.3685	1007.2	122.95
988.5375	2619.6461	1010.05	126.6
988.6622	2620.9229	1010.45	128.65
988.787	2622.199	1010.5	126.65
988.9117	2623.4745	1005.15	121.55
989.0364	2624.7493	1007	123.7
989.161	2626.0234	1001.9	117.25
989.2857	2627.2968	1007.15	123.3
989.4102	2628.5695	1005.85	118.8
989.5348	2629.8415	1000.5	118.9
989.6593	2631.1128	1004.9	118.7
989.7837	2632.3835	1005.6	121.95
989.9082	2633.6535	1001.2	118.4
990.0326	2634.9228	1001.6	119.55
990.1569	2636.1914	997.35	114.45
990.2812	2637.4593	1002.35	116.85
990.4055	2638.7265	1000.1	115.95
990.5298	2639.9931	997.65	113.45
990.654	2641.259	998.1	113.3
990.7782	2642.5242	1001	115.75
990.9023	2643.7887	995.1	111.85
991.0264	2645.0525	996.6	111.35
991.1505	2646.3156	1011.85	112.85
991.2745	2647.5781	999.8	116.95
991.3985	2648.8398	996.55	112.95
991.5225	2650.1009	1005.15	115.9
991.6464	2651.3613	993.05	108.9
991.7703	2652.6211	992.75	109.55
991.8942	2653.8801	994.5	112.65
992.018	2655.1385	997.4	111.5
992.1418	2656.3961	991.8	110.8
992.2655	2657.6531	994.7	110.7
992.3892	2658.9094	991.8	106.6
992.5129	2660.1651	992.55	108.95
992.6366	2661.42	993.95	108.85
992.7602	2662.6743	991.4	105.45
992.8837	2663.9279	989.6	108.5
993.0073	2665.1808	995.7	109.65
993.1307	2666.433	993	106.75
993.2542	2667.6846	994.35	109.85
993.3776	2668.9354	992.9	107.2
993.501	2670.1856	992.55	108.1
993.6244	2671.4351	991.95	109.2
993.7477	2672.6839	990.2	106.9
993.8709	2673.9321	991.8	108.65
993.9942	2675.1795	990.65	106.55
994.1174	2676.4263	992.05	109.25
994.2405	2677.6724	989.95	107.7
994.3637	2678.9179	990.9	107
994.4868	2680.1626	988.1	106.85
994.6098	2681.4067	987.8	104.9
994.7328	2682.6501	992.05	107.6
994.8558	2683.8928	987.5	104.95
994.9788	2685.1348	983.95	101.7
995.1017	2686.3761	988.2	104.7
995.2245	2687.6168	986.2	102.95
995.3474	2688.8568	986.5	103.7
995.4702	2690.0961	981.7	99.25
995.5929	2691.3348	987.6	103.8
995.7156	2692.5727	986.65	103.35
995.8383	2693.81	983.1	100.6
995.961	2695.0466	980.85	100.6
996.0836	2696.2826	986.6	102.35
996.2062	2697.5178	984.8	100.35
996.3287	2698.7524	981.55	98.45
996.4512	2699.9863	988.7	103.1
996.5737	2701.2195	982	100.15
996.6961	2702.452	986.2	101.55
996.8185	2703.6839	981.75	99.2
996.9408	2704.9151	982.7	101.5
997.0631	2706.1456	983.8	98.85
997.1854	2707.3755	983.25	99.65
997.3077	2708.6046	987.35	98.75
997.4299	2709.8331	982.55	99.15
997.552	2711.0609	984.55	99.4
997.6742	2712.2881	980.35	95.7
997.7963	2713.5145	987.9	101.45
997.9183	2714.7403	980.3	96.7
998.0403	2715.9654	984.8	100.3
998.1623	2717.1899	994.65	96.15
998.2842	2718.4136	982.6	99.6
998.4062	2719.6367	977.45	94.45
998.528	2720.8591	989.4	100.5
998.6498	2722.0809	984.7	100.9
998.7716	2723.3019	990.65	102.65
998.8934	2724.5223	985.4	99.8
999.0151	2725.7421	985.4	100.8
999.1368	2726.9611	987.35	102.15
999.2584	2728.1795	989.7	102.5
999.38	2729.3972	983.25	100.8
999.5016	2730.6142	984.3	94
999.6231	2731.8306	982.55	98.65
999.7446	2733.0462	980.6	95.45
999.8661	2734.2612	984.05	94.65
999.9875	2735.4756	977.85	91.25
1000.1089	2736.6892	977	93.4
1000.2302	2737.9022	974.5	93.6
1000.3515	2739.1145	975.1	91.55
1000.4728	2740.3262	980.9	88.8
1000.594	2741.5372	968.8	84.7
1000.7152	2742.7475	973.35	89.55
1000.8363	2743.9571	973.6	88.1
1000.9575	2745.1661	974.35	87.3
1001.0785	2746.3744	969.65	84.35
1001.1996	2747.582	968.15	85.95
1001.3206	2748.7889	966.35	82.7
1001.4415	2749.9952	968.9	85.6
1001.5625	2751.2008	969.95	85.3
1001.6833	2752.4057	967.9	82.25
1001.8042	2753.61	966.55	79.45
1001.925	2754.8136	968.4	83.8
1002.0458	2756.0165	963.45	79.8
1002.1665	2757.2188	968	85.35
1002.2872	2758.4204	965.4	82.3
1002.4078	2759.6213	966.8	81.1
1002.5285	2760.8215	970.45	83.35
1002.649	2762.0211	966.05	79.85
1002.7696	2763.22	965.15	80.05
1002.8901	2764.4182	963.25	79.55
1003.0106	2765.6158	962	77.7
1003.131	2766.8127	962.45	78.95
1003.2514	2768.009	963.5	78.9
1003.3717	2769.2045	964.55	80.2
1003.492	2770.3994	963.05	79.3
1003.6123	2771.5936	964.65	81.45
1003.7325	2772.7872	961.65	80.25
1003.8527	2773.9801	960.8	74.1
1003.9729	2775.1723	977.55	77.9
1004.093	2776.3639	959.3	77.75
1004.2131	2777.5548	959.15	74.8
1004.3331	2778.745	960.6	73.6
1004.4531	2779.9346	961.1	76.3
1004.5731	2781.1235	958.6	72.85
1004.693	2782.3117	957.9	74.65
1004.8129	2783.4992	956.9	74.7
1004.9328	2784.6861	957.85	75.45
1005.0526	2785.8723	961.35	76.4
1005.1723	2787.0579	958.2	73.2
1005.2921	2788.2428	957.3	74.35
1005.4118	2789.427	958.55	75.4
1005.5314	2790.6106	957.65	75.5
1005.651	2791.7935	956.45	71.35
1005.7706	2792.9757	952.45	71.2
1005.8902	2794.1573	961.65	75.55
1006.0097	2795.3382	954.9	71.05
1006.1291	2796.5184	956.1	73.05
1006.2485	2797.698	960.95	74.95
1006.3679	2798.8769	954.85	69.9
1006.4873	2800.0551	959.4	76.15
1006.6066	2801.2327	958.15	72.65
1006.7258	2802.4096	956	73
1006.8451	2803.5859	958.8	74.05
1006.9642	2804.7615	958.7	73.95
1007.0834	2805.9364	953.3	70.8
1007.2025	2807.1106	957.65	73.2
1007.3216	2808.2842	963.6	79.15
1007.4406	2809.4572	959.85	77.75
1007.5596	2810.6294	962.4	77.2
1007.6785	2811.801	960.1	77.95
1007.7975	2812.972	960.7	78.15
1007.9163	2814.1423	959.9	74.45
1008.0352	2815.3119	967.85	82.95
1008.154	2816.4808	965.45	81.55
1008.2727	2817.6491	967.35	84.5
1008.3914	2818.8167	968	85.15
1008.5101	2819.9837	977.45	87
1008.6288	2821.15	981.5	100.7
1008.7474	2822.3157	979.8	97.65
1008.8659	2823.4807	984.15	100.65
1008.9844	2824.645	993.75	109.35
1009.1029	2825.8086	996.9	113.6
1009.2214	2826.9716	1000.75	118.9
1009.3398	2828.134	1008.55	125
1009.4581	2829.2957	1015.05	132.05
1009.5764	2830.4567	1017.5	136.4
1009.6947	2831.617	1020.3	133.4
1009.813	2832.7767	1026.75	144.3
1009.9312	2833.9358	1025.3	142.8
1010.0493	2835.0941	1022.05	137.1
1010.1675	2836.2519	1020.3	137.7
1010.2855	2837.4089	1017.85	132.1
1010.4036	2838.5653	1013.55	130.45
1010.5216	2839.7211	1010.05	127.7
1010.6396	2840.8761	1011.6	127.45
1010.7575	2842.0306	1008.85	126.8
1010.8754	2843.1843	1010.45	126.55
1010.9932	2844.3374	1006.75	123.95
1011.111	2845.4899	1010.7	126.15
1011.2288	2846.6417	1011.65	128.5
1011.3465	2847.7928	1013.55	132.3
1011.4642	2848.9433	1013.1	130.5
1011.5818	2850.0931	1012.65	131.4
1011.6995	2851.2422	1013.9	129.55
1011.817	2852.3907	1019.1	135.15
1011.9345	2853.5385	1021.15	136
1012.052	2854.6857	1025.05	133.2
1012.1695	2855.8323	1020.65	137.95
1012.2869	2856.9781	1021.25	135.75
1012.4042	2858.1233	1022.75	140.15
1012.5216	2859.2679	1023.4	141.7
1012.6389	2860.4118	1027.5	142.8
1012.7561	2861.555	1035.35	148.35
1012.8733	2862.6976	1036.2	153.3
1012.9905	2863.8395	1032.75	150.3
1013.1076	2864.9808	1037.95	155.8
1013.2247	2866.1214	1035	153.55
1013.3417	2867.2614	1037.45	153.25
1013.4587	2868.4007	1044.7	161.75
1013.5757	2869.5393	1041.5	154.65
1013.6926	2870.6773	1043.45	157.25
1013.8095	2871.8146	1047.9	162.1
1013.9263	2872.9513	1046	159.15
1014.0431	2874.0874	1046.65	163.65
1014.1599	2875.2227	1044.85	160.85
1014.2766	2876.3574	1046.85	164.2
1014.3933	2877.4915	1050.25	167.85
1014.51	2878.6249	1049.05	165.9
1014.6266	2879.7577	1057.15	174.5
1014.7431	2880.8898	1067.65	173.15
1014.8596	2882.0212	1056.6	174.3
1014.9761	2883.152	1060.05	172.05
1015.0925	2884.2821	1062.05	179.4
1015.2089	2885.4116	1062	179.3
1015.3253	2886.5405	1061.45	176.75
1015.4416	2887.6686	1060.6	173.75
1015.5579	2888.7962	1062.95	182.45
1015.6741	2889.923	1061.95	179.15
1015.7903	2891.0493	1059.9	177.95
1015.9065	2892.1748	1060.3	176.95
1016.0226	2893.2997	1060.85	178.3
1016.1387	2894.424	1062.35	180.3
1016.2547	2895.5476	1061	176.05
1016.3707	2896.6706	1059.25	176.9
1016.4866	2897.7929	1060.4	175.3
1016.6025	2898.9145	1068.3	186.5
1016.7184	2900.0355	1062.9	179.4
1016.8342	2901.1559	1063.35	178.85
1016.95	2902.2756	1066.65	178.1
1017.0658	2903.3946	1057.1	175.3
1017.1815	2904.513	1065.75	178.15
1017.2971	2905.6308	1056.8	173.45
1017.4127	2906.7479	1058.35	173.6
1017.5283	2907.8643	1060	175.75
1017.6439	2908.9801	1057.1	173.1
1017.7594	2910.0953	1059.15	174.7
1017.8748	2911.2098	1056.7	168.9
1017.9902	2912.3236	1063.7	171.8
1018.1056	2913.4368	1061.65	176.45
1018.2209	2914.5494	1058.35	175.95
1018.3362	2915.6613	1058.5	168.9
1018.4515	2916.7725	1055.05	170.35
1018.5667	2917.8831	1052.35	166.05
1018.6819	2918.9931	1052.65	165.4
1018.797	2920.1024	1045.85	161.6
1018.9121	2921.211	1043.35	158.65
1019.0271	2922.319	1042	158.95
1019.1421	2923.4264	1042.85	159.6
1019.2571	2924.5331	1037.9	156.6
1019.372	2925.6391	1037.25	154.7
1019.4869	2926.7445	1039.2	157.45
1019.6017	2927.8493	1038.35	155.35
1019.7165	2928.9534	1039.7	156.85
1019.8313	2930.0569	1043	157.4
1019.946	2931.1597	1042.1	158.2
1020.0606	2932.2619	1042	158.15
1020.1753	2933.3634	1041.9	157.55
1020.2899	2934.4643	1049.65	157.8
1020.4044	2935.5645	1054.8	166.15
1020.5189	2936.6641	1051.1	160.9
1020.6334	2937.763	1044.2	160.75
1020.7478	2938.8613	1045.95	162.9
1020.8622	2939.959	1047.4	158.75
1020.9765	2941.056	1041.5	159.5
1021.0908	2942.1523	1039.2	153.3
1021.2051	2943.248	1035.55	152.7
1021.3193	2944.3431	1025.95	143.25
1021.4334	2945.4375	1016.25	134.5
1021.5476	2946.5313	1018.4	136.9
1021.6617	2947.6244	1008.6	125.95
1021.7757	2948.7169	1005.7	122.05
1021.8897	2949.8087	998.6	114.95
1022.0037	2950.8999	992.05	108.7
1022.1176	2951.9904	989.5	106.5
1022.2315	2953.0803	984	100.65
1022.3453	2954.1696	980.55	98.4
1022.4591	2955.2582	978.15	96.75
1022.5728	2956.3462	974.65	91.95
1022.6865	2957.4335	975.1	90.1
1022.8002	2958.5202	977.25	93.1
1022.9138	2959.6062	969.6	85.45
1023.0274	2960.6916	970.7	87.75
1023.141	2961.7764	969.4	85.2
1023.2545	2962.8605	973.55	89.2
1023.3679	2963.9439	970.3	86.65
1023.4813	2965.0267	976.05	91.25
1023.5947	2966.1089	993.7	86.15
1023.708	2967.1905	968.15	84.55
1023.8213	2968.2714	969.1	87.25
1023.9346	2969.3516	967.6	86.1
1024.0478	2970.4312	975.75	85.5
1024.1609	2971.5102	966.4	86
1024.274	2972.5885	971.45	89.8
1024.3871	2973.6662	972.4	85.45
1024.5002	2974.7432	966.5	85.1
1024.6132	2975.8196	967.2	83.6
1024.7261	2976.8954	965.45	82.85
1024.839	2977.9705	967.35	84.4
1024.9519	2979.045	966.6	82.75
1025.0647	2980.1188	969.55	88.6
1025.1775	2981.192	968.2	85.95
1025.2902	2982.2645	967.9	82.95
1025.4029	2983.3364	968.9	85.75
1025.5156	2984.4077	960.15	78.05
1025.6282	2985.4783	965.8	76.4
1025.7407	2986.5483	956.95	75.05
1025.8532	2987.6177	956.95	76.1
1025.9657	2988.6864	957.55	72.05
1026.0782	2989.7545	953.8	69.65
1026.1906	2990.8219	953.85	72.2
1026.3029	2991.8887	949.8	64.9
1026.4152	2992.9548	949.75	64.45
1026.5275	2994.0204	945.7	64.35
1026.6397	2995.0852	943.25	61.65
1026.7519	2996.1495	940.65	55.35
1026.864	2997.2131	939.75	57
1026.9761	2998.276	938.5	56.5
1027.0882	2999.3383	936.2	52.45
1027.2002	3000.4	938.65	55.3
1027.3122	3001.4611	933.4	49.15
1027.4241	3002.5215	931.7	48.65
1027.536	3003.5812	930.8	48.1
1027.6478	3004.6404	927.95	44.4
1027.7596	3005.6989	932	47.85
1027.8714	3006.7567	926.95	42.7
1027.9831	3007.8139	946.85	44.65
1028.0947	3008.8705	926.85	42.75
1028.2064	3009.9264	942.4	41.95
1028.3179	3010.9818	924.75	41.7
1028.4295	3012.0364	927.05	44.65
1028.541	3013.0905	921.6	39.45
1028.6524	3014.1439	924.1	39.3
1028.7638	3015.1966	921.75	41.1
1028.8752	3016.2487	920.9	38.85
1028.9865	3017.3002	924.3	37.8
1029.0978	3018.3511	918.9	39.7
1029.209	3019.4013	921.6	39
1029.3202	3020.4509	922.1	38.9
1029.4314	3021.4998	922.2	39.7
1029.5425	3022.5481	919.45	36.45
1029.6535	3023.5958	923.15	39.2
1029.7645	3024.6428	922.5	39.35
1029.8755	3025.6892	921.8	39.15
1029.9864	3026.735	919	35.95
1030.0973	3027.7802	919.25	35
1030.2082	3028.8247	921.3	37.2
1030.319	3029.8685	923.1	40.75
1030.4297	3030.9118	923	39
1030.5404	3031.9544	918.55	36.35
1030.6511	3032.9963	921.15	38.55
1030.7617	3034.0376	917.85	34.9
1030.8723	3035.0783	923.7	39.3
1030.9829	3036.1184	919.05	37
1031.0934	3037.1578	916.7	35.05
1031.2038	3038.1966	919.35	33.9
1031.3142	3039.2348	917.85	34.05
1031.4246	3040.2723	930.8	37.45
1031.5349	3041.3092	921.4	39.05
1031.6452	3042.3455	919.65	35.8
1031.7554	3043.3811	919.7	36.75
1031.8656	3044.4161	917.7	32.8
1031.9758	3045.4505	918.05	37.35
1032.0859	3046.4842	919.85	35.7
1032.1959	3047.5173	918	34.7
1032.3059	3048.5498	918.95	34.1
1032.4159	3049.5816	920.7	36.7
1032.5258	3050.6128	919.75	36
1032.6357	3051.6434	921.65	38.25
1032.7455	3052.6734	918.4	33.9
1032.8553	3053.7027	919.45	37.2
1032.9651	3054.7314	917.45	35.05
1033.0748	3055.7594	917.9	35.4
1033.1845	3056.7868	918.75	34.5
1033.2941	3057.8136	919.4	35.9
1033.4037	3058.8398	914.85	32.8
1033.5132	3059.8653	920.75	37.25
1033.6227	3060.8902	921.25	37.5
1033.7321	3061.9145	920.2	38.1
1033.8415	3062.9381	920.6	37.2
1033.9509	3063.9612	936.1	37.95
1034.0602	3064.9835	920.5	38.9
1034.1694	3066.0053	921	34
1034.2787	3067.0264	921.55	36.8
1034.3878	3068.0469	921.9	38.95
1034.497	3069.0668	921.75	36.95
1034.6061	3070.086	920.55	38.25
1034.7151	3071.1046	921.45	36.9
1034.8241	3072.1226	916.95	32.35
1034.9331	3073.1399	917.7	35.35
1035.042	3074.1567	917.9	34.85
1035.1508	3075.1727	917.9	32.6
1035.2597	3076.1882	917.4	34.85
1035.3684	3077.203	918.6	35.95
1035.4772	3078.2173	913.9	28.85
1035.5859	3079.2308	921	35.25
1035.6945	3080.2438	916.05	29.95
1035.8031	3081.2561	912.8	29.4
1035.9117	3082.2678	915.2	31.7
1036.0202	3083.2789	911.15	27.45
1036.1286	3084.2893	911.05	28.95
1036.2371	3085.2991	912.65	28.05
1036.3454	3086.3083	916.2	28.5
1036.4538	3087.3169	914.7	31.7
1036.562	3088.3248	911.15	28.45
1036.6703	3089.3321	913.05	27.65
1036.7785	3090.3388	913.05	31.35
1036.8866	3091.3449	911.55	28.25
1036.9948	3092.3503	915.85	28.6
1037.1028	3093.3551	909.5	28.9
1037.2108	3094.3593	910.1	27.45
1037.3188	3095.3629	908.05	26.35
1037.4267	3096.3658	910.4	24.85
1037.5346	3097.3681	908.45	27.05
1037.6425	3098.3698	913.25	30.4
1037.7503	3099.3708	917.9	29.1
1037.858	3100.3713	910.7	27.1
1037.9657	3101.3711	911.6	27.8
1038.0734	3102.3702	1043.65	25.15
1038.181	3103.3688	910	24.75
1038.2886	3104.3667	906.55	23.05
1038.3961	3105.364	908.95	27.65
1038.5036	3106.3607	909.05	24.05
1038.611	3107.3568	909.4	25.75
1038.7184	3108.3522	907.3	25.6
1038.8257	3109.347	910	25.75
1038.933	3110.3412	911.55	24.9
1039.0403	3111.3348	907.6	23.7
1039.1475	3112.3277	906	22.1
1039.2547	3113.32	904.55	21.4
1039.3618	3114.3117	905.5	20.2
1039.4689	3115.3028	906.6	24.85
1039.5759	3116.2932	908.7	24.75
1039.6829	3117.2831	914.25	25.5
1039.7898	3118.2723	906.7	24.7
1039.8967	3119.2608	905.65	22.05
1040.0035	3120.2488	907.2	23.45
1040.1103	3121.2361	906.35	23
1040.2171	3122.2229	902.75	17.8
1040.3238	3123.209	906.95	24
1040.4305	3124.1944	904.7	21.1
1040.5371	3125.1793	908.35	23.7
1040.6437	3126.1635	903.55	22.4
1040.7502	3127.1471	905.3	22.4
1040.8567	3128.1301	901.3	18.4
1040.9631	3129.1125	903.2	21.4
1041.0695	3130.0942	903.85	21.05
1041.1759	3131.0753	912.45	19.85
1041.2822	3132.0558	907.3	21.2
1041.3884	3133.0357	904.2	20.8
1041.4946	3134.015	903.8	18.75
1041.6008	3134.9936	905.95	21.35
1041.7069	3135.9716	922.2	17.9
1041.813	3136.949	904.5	19.75
1041.919	3137.9258	921.1	20.1
1042.025	3138.902	907	18.8
1042.1309	3139.8775	902.65	19.9
1042.2368	3140.8524	901.35	18.1
1042.3427	3141.8267	902	18.1
1042.4485	3142.8004	901.95	17.6
1042.5542	3143.7735	907.1	18.9
1042.6599	3144.7459	903.85	20.6
1042.7656	3145.7178	906.3	22.2
1042.8712	3146.689	898.75	17.85
1042.9768	3147.6596	903.8	18.1
1043.0823	3148.6295	902.3	18.6
1043.1878	3149.5989	900.8	17.8
1043.2932	3150.5676	900.55	17.25
1043.3986	3151.5357	900.3	19.25
1043.5039	3152.5032	899.3	17
1043.6092	3153.4701	901.1	18.45
1043.7145	3154.4364	901.15	15.7
1043.8197	3155.402	900.95	19.9
1043.9248	3156.367	900.85	16.3
1044.03	3157.3315	935.75	19.4
1044.135	3158.2952	898.3	15.3
1044.24	3159.2584	897.9	14.95
1044.345	3160.221	901.1	17.45
1044.4499	3161.1829	899.7	16.65
1044.5548	3162.1442	901.3	16.65
1044.6596	3163.105	899	16.9
1044.7644	3164.065	900.65	19.3
1044.8692	3165.0245	903.85	20
1044.9739	3165.9834	897.4	17.15
1045.0785	3166.9416	898.9	15.3
1045.1831	3167.8993	898.7	14.6
1045.2877	3168.8563	901.25	17.4
1045.3922	3169.8127	900.85	19.6
1045.4966	3170.7684	898.7	15.85
1045.6011	3171.7236	899.25	15.05
1045.7054	3172.6782	897.1	13.45
1045.8098	3173.6321	899.4	15
1045.914	3174.5854	901.95	13.1
1046.0183	3175.5381	897.35	13.3
1046.1224	3176.4902	900	17.75
1046.2266	3177.4417	900.35	17.5
1046.3307	3178.3926	898.45	16.95
1046.4347	3179.3428	897.45	15.45
1046.5387	3180.2924	899.15	17.7
1046.6427	3181.2415	899	15.25
1046.7466	3182.1899	896.9	10.6
1046.8504	3183.1377	898.5	14.4
1046.9542	3184.0848	899.45	12.05
1047.058	3185.0314	899.65	15.4
1047.1617	3185.9773	900.5	15.7
1047.2654	3186.9227	898.05	14.55
1047.369	3187.8674	897.85	15.65
1047.4726	3188.8115	900.55	13.3
1047.5761	3189.755	897.5	16.1
1047.6796	3190.6979	894.85	14.2
1047.783	3191.6402	897.05	15.35
1047.8864	3192.5818	897.15	13.9
1047.9898	3193.5229	903.25	14.7
1048.0931	3194.4633	896.8	13.45
1048.1963	3195.4031	897.15	15.05
1048.2995	3196.3423	896	13.25
1048.4027	3197.2809	897.3	14.55
1048.5058	3198.2189	896.8	12.2
1048.6089	3199.1563	903.3	11.85
1048.7119	3200.0931	897.45	14.65
1048.8148	3201.0292	896.25	15.45
1048.9178	3201.9648	895.6	13.1
1049.0206	3202.8997	900.4	14.6
1049.1235	3203.834	897.2	14
1049.2262	3204.7677	895.75	12.45
1049.329	3205.7008	897.6	14
1049.4317	3206.6333	895.35	14.85
1049.5343	3207.5652	897.9	11.75
1049.6369	3208.4964	897.05	13.05
1049.7394	3209.4271	895.05	11.95
1049.8419	3210.3571	895.95	14
1049.9444	3211.2865	896.9	10.9
1050.0468	3212.2154	896.55	13.2
1050.1491	3213.1436	897.85	11.15
1050.2514	3214.0712	901.6	12.3
1050.3537	3214.9982	894.9	12.3
1050.4559	3215.9246	895.25	11.05
1050.5581	3216.8503	893.4	11
1050.6602	3217.7755	894.3	10.55
1050.7623	3218.7001	894.75	11.05
1050.8643	3219.624	897.5	14.05
1050.9663	3220.5473	894.9	13.35
1051.0682	3221.4701	896.5	12.75
1051.1701	3222.3922	897.25	13.65
1051.2719	3223.3137	893.85	11.55
1051.3737	3224.2346	896.1	12.95
1051.4754	3225.1549	892.05	8.6
1051.5771	3226.0746	893.2	11.05
1051.6788	3226.9937	894.5	12.15
1051.7804	3227.9121	893.05	11.75
1051.8819	3228.83	894.5	12.8
1051.9834	3229.7473	893.7	9.7
1052.0849	3230.6639	892.75	10
1052.1863	3231.5799	894.65	10.7
1052.2876	3232.4954	895.9	12.8
1052.3889	3233.4102	893.95	9.85
1052.4902	3234.3244	895.9	11.25
1052.5914	3235.238	894.55	12.5
1052.6926	3236.151	920.3	11.9
1052.7937	3237.0634	892	10.6
1052.8948	3237.9752	893.15	11.95
1052.9958	3238.8864	895.45	13.75
1053.0968	3239.797	894.55	11.3
1053.1977	3240.7069	893.05	11.35
1053.2986	3241.6163	894.65	10.45
1053.3994	3242.5251	894.95	13.5
1053.5002	3243.4332	893.4	10
1053.6009	3244.3408	894	10.8
1053.7016	3245.2477	891.65	7.9
1053.8022	3246.154	893.35	9.25
1053.9028	3247.0598	893.7	9.45
1054.0034	3247.9649	894.25	11.15
1054.1039	3248.8694	893.3	10.5
1054.2043	3249.7733	893	9.15
1054.3047	3250.6766	893.55	10.2
1054.4051	3251.5793	894.6	10.1
1054.5054	3252.4814	893.55	11.5
1054.6056	3253.3829	892.55	11.35
1054.7058	3254.2838	893.7	9.75
1054.806	3255.1841	892.05	10.35
1054.9061	3256.0838	891.1	9.95
1055.0061	3256.9829	891.45	10.5
1055.1062	3257.8814	896.55	12.6
1055.2061	3258.7792	895.8	12.9
1055.306	3259.6765	893.7	9.3
1055.4059	3260.5731	891.8	10.45
1055.5057	3261.4692	892.95	10
1055.6055	3262.3647	892.85	11.8
1055.7052	3263.2595	889.8	6.7
1055.8049	3264.1538	890.9	8.2
1055.9045	3265.0474	892.95	8.1
1056.0041	3265.9404	890.7	10
1056.1036	3266.8329	892.4	10.05
1056.2031	3267.7247	901.75	9.25
1056.3025	3268.616	891	9.45
1056.4019	3269.5066	891.7	8.9
1056.5013	3270.3966	891.35	7.4
1056.6005	3271.286	890.4	7.55
