Software Version:	3.9.2.0
Unit SN:	10000200
Spectrometer SN:	6960
Date:	3/26/2024 2:52:15 PM
Data Line Index:	25
Spectral Points:	2048
Integration time (ms):	125
Averages:	20
Delay (ms):	30000
Sequence Number:	1
Processing:	dark subtract
Laser Power (mW):	305
Laser Current (mA):	820
Laser Diode Temp (C):	25.1
Laser Case Temp (C):	28
System Temp (C):	28.1
Spectrometer Temp (C):	25.9
CCD Temp (C):	0.007
Secondary Temp (C):	20.013
Heatsink Temp (C):	23.596
CCDPCB Temp (C):	37.385
SecondaryPCB Temp (C):	34.917

Wavelength	RamanShift	Raw Counts	Dark Subtracted
787.061	30.1047	619.55	209.5
787.2016	32.3739	627.2	218.8
787.3422	34.6426	645.35	235.5
787.4828	36.9109	663.1	254.15
787.6235	39.1787	682.9	267.95
787.7642	41.4461	708.35	288.9
787.9049	43.7131	728.25	305.65
788.0456	45.9796	750.5	323.5
788.1863	48.2456	779.8	348.8
788.3271	50.5112	805.95	371.2
788.4679	52.7764	823.4	386.4
788.6087	55.0411	849.5	409.35
788.7496	57.3054	883.75	438.7
788.8904	59.5692	912.8	465.5
789.0313	61.8326	953.35	501.9
789.1722	64.0955	985.45	529
789.3132	66.3579	1031.95	569.95
789.4541	68.6199	1083.3	619.6
789.5951	70.8815	1173.45	706.6
789.7361	73.1426	1359	886.9
789.8771	75.4032	1848.65	1372.6
790.0181	77.6634	3047.3	2562.9
790.1592	79.9231	6007.55	5513.85
790.3003	82.1824	12876.35	12364.6
790.4414	84.4412	27547.15	27005.75
790.5825	86.6995	54170.25	53579.7
790.7237	88.9574	65370.8	64737.8
790.8648	91.2148	65535	64870.4
791.006	93.4717	65535	64851.1
791.1472	95.7282	65535	64841.05
791.2885	97.9842	65535	64836.7
791.4297	100.2398	65535	64834.95
791.571	102.4949	65535	64835.8
791.7123	104.7495	65535	64831.35
791.8536	107.0036	65535	64828.8
791.9949	109.2573	65535	64829.5
792.1363	111.5105	65535	64828.6
792.2777	113.7632	65535	64828.5
792.4191	116.0154	65535	64813.4
792.5605	118.2672	65535	64819.6
792.7019	120.5185	65535	64817.75
792.8434	122.7693	65535	64818.15
792.9849	125.0197	65535	64815
793.1264	127.2696	65535	64813.45
793.2679	129.519	65535	64809.3
793.4094	131.7679	65535	64806.1
793.551	134.0163	65535	64801.05
793.6926	136.2642	65535	64797.55
793.8342	138.5117	65535	64790.3
793.9758	140.7587	65535	64793.7
794.1175	143.0052	65535	64784.25
794.2591	145.2512	65535	64790.95
794.4008	147.4967	65535	64786.55
794.5425	149.7417	65535	64790.35
794.6842	151.9863	65535	64781
794.826	154.2304	65535	64779.55
794.9677	156.4739	65535	64776.7
795.1095	158.717	65535	64778.95
795.2513	160.9596	65535	64773.45
795.3931	163.2017	65535	64767.05
795.535	165.4433	65535	64769.3
795.6768	167.6844	65535	64768.8
795.8187	169.925	65535	64765.65
795.9606	172.1651	65535	64766.4
796.1025	174.4047	65535	64766.95
796.2445	176.6439	65535	64757.3
796.3864	178.8825	65535	64754.5
796.5284	181.1206	65535	64751.25
796.6704	183.3582	65535	64744.4
796.8124	185.5954	65535	64746.35
796.9544	187.832	65535	64741.35
797.0965	190.0681	65535	64742.6
797.2386	192.3037	65535	64736.8
797.3806	194.5388	65535	64729.95
797.5228	196.7734	65535	64729.95
797.6649	199.0075	65535	64723.95
797.807	201.2411	65535	64723.05
797.9492	203.4742	65535	64722.55
798.0914	205.7068	65535	64727.35
798.2336	207.9389	65535	64722.45
798.3758	210.1704	65535	64713.45
798.518	212.4015	65535	64717.1
798.6603	214.632	65535	64719.15
798.8025	216.862	65535	64731
798.9448	219.0915	65535	64736.95
799.0871	221.3205	65535	64736.15
799.2294	223.549	65535	64740.45
799.3718	225.777	65535	64738.15
799.5141	228.0044	65535	64734.25
799.6565	230.2314	65535	64737.7
799.7989	232.4578	65535	64736.1
799.9413	234.6837	65535	64728.65
800.0837	236.909	65535	64729
800.2262	239.1339	65535	64703.8
800.3687	241.3582	65535	64712.7
800.5111	243.582	65535	64681.6
800.6536	245.8053	65535	64703.2
800.7961	248.0281	65535	64704.65
800.9387	250.2503	65535	64696.15
801.0812	252.472	65535	64695.8
801.2238	254.6932	65535	64694.9
801.3664	256.9139	65535	64692
801.509	259.134	65535	64690.65
801.6516	261.3536	65535	64685.55
801.7942	263.5727	65535	64687.5
801.9369	265.7912	65535	64691
802.0795	268.0092	65535	64688.85
802.2222	270.2267	65535	64689.45
802.3649	272.4436	65535	64688.05
802.5076	274.6601	65535	64685.5
802.6504	276.8759	65535	64685.75
802.7931	279.0913	65535	64681.45
802.9359	281.3061	65535	64676.8
803.0787	283.5204	65535	64680.75
803.2215	285.7341	65535	64674.5
803.3643	287.9473	65535	64662.1
803.5071	290.16	65535	64671.3
803.6499	292.3721	65535	64674.9
803.7928	294.5837	65535	64673.35
803.9357	296.7947	65535	64675.7
804.0786	299.0052	65535	64671.75
804.2215	301.2152	65535	64672.6
804.3644	303.4246	65535	64674.5
804.5074	305.6334	65535	64676.5
804.6503	307.8418	65535	64677.25
804.7933	310.0495	65535	64674.25
804.9363	312.2568	65535	64675.05
805.0793	314.4635	65535	64670.85
805.2223	316.6696	65535	64662.3
805.3653	318.8752	65535	64662.4
805.5084	321.0802	65535	64668.75
805.6514	323.2847	65535	64663.95
805.7945	325.4887	65535	64666.25
805.9376	327.692	65535	64662.15
806.0807	329.8949	65535	64660.7
806.2238	332.0972	65535	64660.6
806.367	334.2989	65535	64657.8
806.5101	336.5001	65535	64657.35
806.6533	338.7007	65535	64657.65
806.7965	340.9008	65535	64657.5
806.9397	343.1003	65535	64654.55
807.0829	345.2992	65535	64654.65
807.2261	347.4976	65535	64654.25
807.3693	349.6955	65535	64647.85
807.5126	351.8927	65535	64649.7
807.6559	354.0895	65535	64637.25
807.7991	356.2856	65535	64646.75
807.9424	358.4812	65535	64648.9
808.0857	360.6763	65535	64646.7
808.2291	362.8707	65535	64647.2
808.3724	365.0646	65535	64643.95
808.5158	367.258	65535	64640.4
808.6591	369.4508	65535	64641.25
808.8025	371.643	65535	64631.45
808.9459	373.8346	65535	64639.6
809.0893	376.0257	65535	64637.2
809.2327	378.2162	65535	64638.95
809.3762	380.4062	65535	64634.7
809.5196	382.5956	65535	64633.55
809.6631	384.7844	65535	64633.8
809.8066	386.9726	65535	64629.6
809.9501	389.1603	65535	64632.85
810.0936	391.3474	65535	64594.25
810.2371	393.5339	65535	64633.3
810.3806	395.7199	65535	64635.6
810.5241	397.9052	65535	64642.4
810.6677	400.09	65535	64642.1
810.8113	402.2743	65535	64645.65
810.9548	404.4579	65535	64645.25
811.0984	406.641	65535	64645.85
811.2421	408.8235	65535	64641.65
811.3857	411.0054	65535	64642.75
811.5293	413.1868	65535	64634.5
811.673	415.3675	65535	64636.9
811.8166	417.5477	65535	64635.95
811.9603	419.7273	65535	64639.4
812.104	421.9064	65535	64631.05
812.2477	424.0848	65535	64633.15
812.3914	426.2627	65535	64633.85
812.5351	428.4399	65535	64627.55
812.6788	430.6166	65535	64627.75
812.8226	432.7928	65535	64623.05
812.9663	434.9683	65535	64630.95
813.1101	437.1432	65535	64630.25
813.2539	439.3176	65535	64635.1
813.3977	441.4914	65535	64634.15
813.5415	443.6645	65535	64631.7
813.6853	445.8371	65535	64629.2
813.8291	448.0091	65535	64627
813.973	450.1806	65535	64630.8
814.1168	452.3514	65535	64634
814.2607	454.5216	65535	64622.95
814.4046	456.6913	65535	64628.5
814.5485	458.8603	65535	64629.6
814.6924	461.0288	65535	64629.85
814.8363	463.1967	65535	64636.1
814.9802	465.3639	65535	64628.7
815.1241	467.5306	65535	64629.35
815.2681	469.6967	65535	64634.45
815.412	471.8622	65535	64632.7
815.556	474.0271	65535	64630.75
815.7	476.1914	65535	64626.2
815.844	478.3551	65535	64626.95
815.988	480.5182	65535	64632
816.132	482.6807	65535	64630.6
816.276	484.8426	65535	64639.15
816.4201	487.0039	65535	64637.3
816.5641	489.1647	65535	64632.25
816.7082	491.3248	65535	64626.75
816.8522	493.4843	65535	64630.65
816.9963	495.6432	65535	64631.6
817.1404	497.8015	65535	64616.3
817.2845	499.9592	65535	64619.85
817.4286	502.1163	65535	64617
817.5727	504.2728	65535	64623.35
817.7168	506.4287	65535	64636.35
817.861	508.5839	65535	64633.65
818.0051	510.7386	65535	64629.05
818.1493	512.8927	65535	64613.2
818.2935	515.0461	65535	64618.15
818.4377	517.199	65535	64621.65
818.5818	519.3512	65535	64619.45
818.726	521.5029	65535	64618
818.8703	523.6539	65535	64622.25
819.0145	525.8043	65535	64618.95
819.1587	527.9541	65535	64619.25
819.303	530.1033	65535	64618.8
819.4472	532.2519	65535	64617.3
819.5915	534.3999	65535	64618.75
819.7357	536.5472	65535	64620.2
819.88	538.694	65535	64624.95
820.0243	540.8401	65535	64619.25
820.1686	542.9856	65535	64608.95
820.3129	545.1305	65535	64605.5
820.4572	547.2748	65535	64600
820.6016	549.4185	65535	64601.75
820.7459	551.5615	65535	64603.95
820.8902	553.704	65535	64603.2
821.0346	555.8458	65535	64607.9
821.1789	557.987	65535	64607.2
821.3233	560.1276	65535	64606.7
821.4677	562.2675	65535	64605.95
821.6121	564.4069	65535	64607.2
821.7565	566.5456	65535	64608.9
821.9009	568.6837	65535	64610.8
822.0453	570.8212	65535	64611.7
822.1897	572.958	65535	64610.8
822.3342	575.0942	65535	64614.8
822.4786	577.2299	65535	64616
822.6231	579.3648	65535	64629.2
822.7675	581.4992	65535	64635.5
822.912	583.6329	65535	64637.4
823.0565	585.766	65535	64632.3
823.201	587.8985	65535	64630.2
823.3454	590.0304	65535	64608.2
823.4899	592.1616	65535	64614.25
823.6345	594.2922	65535	64611.15
823.779	596.4222	65535	64606.6
823.9235	598.5515	65535	64607.75
824.068	600.6802	65535	64605.2
824.2126	602.8083	65535	64611.3
824.3571	604.9358	65535	64605.5
824.5017	607.0626	65535	64605.2
824.6462	609.1888	65535	64601.4
824.7908	611.3144	65535	64602.25
824.9354	613.4393	65535	64601
825.08	615.5636	65531.1	64594.95
825.2246	617.6873	65535	64604.2
825.3692	619.8103	65525.8	64593.85
825.5138	621.9327	65535	64605.25
825.6584	624.0544	65535	64610.75
825.803	626.1756	65535	64613.45
825.9477	628.2961	65535	64603.8
826.0923	630.4159	65529.65	64595.2
826.237	632.5351	65524.85	64591.25
826.3816	634.6537	65535	64603.1
826.5263	636.7716	65523.6	64588.7
826.6709	638.8889	65529.05	64588.9
826.8156	641.0056	65526.6	64588.65
826.9603	643.1216	65527.35	64590.8
827.105	645.237	65532.3	64595.15
827.2497	647.3518	65521.2	64590.5
827.3944	649.4659	65527.25	64600
827.5391	651.5793	65529.7	64601.1
827.6838	653.6922	65532.15	64603.05
827.8285	655.8043	65490.6	64562.55
827.9733	657.9159	65535	64604.65
828.118	660.0268	65418.95	64488.95
828.2627	662.137	65521.1	64587.2
828.4075	664.2466	65522.05	64584.15
828.5522	666.3556	65500.25	64560.35
828.697	668.4639	65524.7	64591.4
828.8418	670.5716	65482.45	64554.3
828.9865	672.6786	65519.6	64587.1
829.1313	674.785	65467.3	64531.3
829.2761	676.8907	65475	64541.65
829.4209	678.9958	65517.55	64588.45
829.5657	681.1002	65516.95	64583.65
829.7105	683.204	65460.75	64514.35
829.8553	685.3072	65408.65	64467.8
830.0001	687.4097	65447.8	64510.25
830.1449	689.5115	65373.4	64433.55
830.2898	691.6127	65466.55	64531.25
830.4346	693.7132	65377.05	64441.6
830.5794	695.8131	65370.5	64418.15
830.7243	697.9123	65405.95	64464.35
830.8691	700.0109	65404.35	64461.4
831.014	702.1089	65249.85	64309
831.1588	704.2061	65289.25	64350.45
831.3037	706.3028	65305.9	64362.55
831.4486	708.3987	65335.35	64396.85
831.5935	710.4941	65266.6	64327.85
831.7383	712.5887	65399.1	64463.15
831.8832	714.6827	65330.75	64391.95
832.0281	716.7761	65434	64498.6
832.173	718.8688	65473.05	64533.9
832.3179	720.9608	65408.2	64464.15
832.4628	723.0522	65400.4	64451.2
832.6077	725.1429	65268.45	64325.9
832.7527	727.233	65464.25	64524.55
832.8976	729.3224	64683.75	63743.8
833.0425	731.4112	65060.4	64117.85
833.1874	733.4993	65023	64080.35
833.3324	735.5867	65031.25	64094.95
833.4773	737.6735	64768	63825.45
833.6222	739.7596	64496.65	63549.25
833.7672	741.845	64482.05	63544.1
833.9122	743.9298	64979.3	64038.5
834.0571	746.014	64464.25	63523.8
834.2021	748.0974	64091.6	63146.9
834.347	750.1802	64833.95	63886.9
834.492	752.2624	63914.15	62968.3
834.637	754.3439	63997.45	63053.25
834.782	756.4247	64265.5	63310.75
834.9269	758.5048	63879.1	62937.05
835.0719	760.5843	64082.7	63133.35
835.2169	762.6631	64363.35	63415.55
835.3619	764.7413	64199.55	63253.1
835.5069	766.8188	64395.8	63448.65
835.6519	768.8956	64838.25	63888.2
835.7969	770.9718	64764.85	63818.05
835.9419	773.0473	64535.7	63590.75
836.0869	775.1221	63876.35	62935.2
836.232	777.1962	63802	62860.8
836.377	779.2697	63002.75	62055.3
836.522	781.3426	63617	62661.45
836.667	783.4147	63896.2	62950.45
836.8121	785.4862	63919.7	62974.2
836.9571	787.557	63201.1	62258.35
837.1021	789.6271	63781.65	62834.05
837.2472	791.6966	62874.5	61925
837.3922	793.7654	61912.7	60964.3
837.5373	795.8335	61804.15	60860.7
837.6823	797.901	62036.45	61092.4
837.8274	799.9678	61638.8	60686.8
837.9724	802.0339	61504.65	60555.3
838.1175	804.0993	61558.6	60598.55
838.2626	806.1641	61284.3	60341.4
838.4076	808.2282	61106.15	60159.85
838.5527	810.2916	60835.85	59891.4
838.6978	812.3544	61194.2	60251.1
838.8428	814.4164	60270.85	59326.75
838.9879	816.4778	60420.95	59470.4
839.133	818.5385	60448.55	59497.1
839.2781	820.5986	60287.55	59337.7
839.4232	822.658	60363.8	59411
839.5682	824.7166	60374	59423.7
839.7133	826.7747	59638.2	58693.5
839.8584	828.832	60004.6	59056.7
840.0035	830.8886	60375.15	59423.35
840.1486	832.9446	60396	59445.45
840.2937	834.9999	59282.95	58333.15
840.4388	837.0545	59985.65	59035.55
840.5839	839.1085	60267.4	59317
840.729	841.1618	60082.3	59132.2
840.8741	843.2143	59210.8	58263.85
841.0192	845.2662	59113.15	58167.7
841.1643	847.3175	59377	58428.4
841.3095	849.368	58343.45	57393.9
841.4546	851.4179	58919.85	57973
841.5997	853.467	58218	57272.65
841.7448	855.5155	58373.95	57423.9
841.8899	857.5633	57708.3	56760.25
842.0351	859.6105	57360.7	56412.6
842.1802	861.6569	57643.05	56694.9
842.3253	863.7027	56931.15	55983.5
842.4704	865.7478	57140.75	56189.9
842.6156	867.7922	56931.85	55980.45
842.7607	869.8359	57314	56363.6
842.9058	871.8789	56543.35	55592.95
843.0509	873.9212	57112.5	56130
843.1961	875.9629	57127.75	56176.8
843.3412	878.0039	57162.9	56215.4
843.4863	880.0441	56880.65	55933.1
843.6315	882.0837	56800	55850.75
843.7766	884.1226	56656.2	55706
843.9218	886.1609	56440.85	55492.15
844.0669	888.1984	56048.5	55097.4
844.212	890.2352	56392.3	55441.75
844.3572	892.2714	55608.95	54654.95
844.5023	894.3069	55799.15	54847.2
844.6475	896.3416	55473.65	54524.25
844.7926	898.3757	55392	54439.65
844.9377	900.4091	54855.25	53902.65
845.0829	902.4418	55361.45	54403.85
845.228	904.4739	54797.65	53840.75
845.3732	906.5052	54965.65	54013.75
845.5183	908.5358	54524.95	53575.55
845.6635	910.5658	54204.7	53252.2
845.8086	912.595	54029.95	53076.25
845.9538	914.6236	53472.15	52519.35
846.0989	916.6515	54083.8	53132.65
846.2441	918.6786	53215.15	52264.5
846.3892	920.7051	53432.65	52477.9
846.5344	922.7309	53418.2	52465.5
846.6795	924.756	53440.65	52488.85
846.8246	926.7804	53283	52327.55
846.9698	928.8041	52676.65	51725.4
847.1149	930.8272	52900	51949
847.2601	932.8495	52694.7	51742.2
847.4052	934.8711	52270.65	51315.6
847.5504	936.892	51924.75	50971
847.6955	938.9123	51668.3	50715.95
847.8407	940.9318	51318.6	50368.65
847.9858	942.9506	51088.3	50137.35
848.131	944.9688	50943.75	49991.2
848.2761	946.9862	50532.2	49580.85
848.4213	949.003	50403.4	49453
848.5664	951.019	50117.05	49166
848.7115	953.0344	50080.1	49127.6
848.8567	955.0491	49953.45	49002
849.0018	957.063	50061.3	49109.4
849.147	959.0763	50141.45	49186.45
849.2921	961.0888	49945.35	48993.35
849.4373	963.1007	50053.85	49105.7
849.5824	965.1119	49916.75	48974.55
849.7275	967.1223	49814.75	48878.95
849.8727	969.1321	49786.7	48848.55
850.0178	971.1412	49588.95	48644.05
850.1629	973.1495	49397.5	48448.8
850.3081	975.1572	49401.25	48420.6
850.4532	977.1641	49368.6	48418.8
850.5983	979.1704	49101.35	48150.45
850.7435	981.1759	49018.1	48063.9
850.8886	983.1808	48961.7	48012.45
851.0337	985.1849	48904.2	47943.25
851.1788	987.1884	48899	47946.8
851.324	989.1911	49099.4	48148.55
851.4691	991.1932	49010.55	48062.8
851.6142	993.1945	48965.25	48014.4
851.7593	995.1951	48663.6	47711.9
851.9045	997.1951	48526.25	47571.15
852.0496	999.1943	48299.55	47346.95
852.1947	1001.1928	48035.15	47083.7
852.3398	1003.1906	47891.05	46939.7
852.4849	1005.1877	47742.4	46789.6
852.63	1007.1841	47443.95	46495.5
852.7751	1009.1798	47167.2	46216.7
852.9202	1011.1748	46791.4	45839.75
853.0653	1013.1691	46432.85	45482
853.2104	1015.1627	46046.3	45097
853.3555	1017.1556	45588.7	44638.5
853.5006	1019.1477	45349.5	44402.65
853.6457	1021.1392	45029.1	44086.55
853.7908	1023.1299	44867.8	43926.2
853.9359	1025.12	44681.2	43743.25
854.081	1027.1093	44557.65	43632.05
854.2261	1029.0979	44511.05	43587.5
854.3712	1031.0859	44371.8	43440.35
854.5163	1033.0731	44182.35	43247.65
854.6613	1035.0596	43954.1	43012.55
854.8064	1037.0454	43648.4	42704.15
854.9515	1039.0304	43347.8	42398.45
855.0965	1041.0148	43079.65	42132.45
855.2416	1042.9985	42863.6	41914.7
855.3867	1044.9814	42778.4	41834.75
855.5317	1046.9636	42518.35	41572.05
855.6768	1048.9452	42366.55	41425.05
855.8219	1050.926	42257.1	41312.85
855.9669	1052.9061	42081.7	41133.9
856.112	1054.8855	41947.9	41001.9
856.257	1056.8642	41943.15	40992.2
856.4021	1058.8421	41911.35	40957.85
856.5471	1060.8194	41748.2	40796.5
856.6921	1062.7959	41638.4	40694.05
856.8372	1064.7717	41530.1	40578.15
856.9822	1066.7469	41460.2	40511.35
857.1272	1068.7213	41272.25	40322.15
857.2723	1070.695	41154.2	40206.65
857.4173	1072.6679	40884.8	39938.45
857.5623	1074.6402	40747.55	39802.25
857.7073	1076.6117	40606.5	39654
857.8523	1078.5826	40524.25	39579.45
857.9973	1080.5527	40472.2	39523.65
858.1423	1082.5221	40560.3	39618.9
858.2873	1084.4908	40723.25	39778.45
858.4323	1086.4587	40771	39822.25
858.5773	1088.426	40854	39906.25
858.7223	1090.3925	40675	39720.35
858.8673	1092.3584	40620.95	39672.65
859.0123	1094.3235	40161.55	39218
859.1573	1096.2879	39934.1	38989.4
859.3022	1098.2515	39769.15	38822.9
859.4472	1100.2145	39692.75	38746.85
859.5922	1102.1767	39659.8	38716.25
859.7371	1104.1382	39668.05	38724.2
859.8821	1106.099	39733.55	38787.4
860.027	1108.0591	39823	38880.3
860.172	1110.0185	39892.55	38944.65
860.3169	1111.9771	39848.05	38903.45
860.4619	1113.9351	39385.9	38440.2
860.6068	1115.8923	38869.5	37922.9
860.7517	1117.8488	38409.6	37463.15
860.8967	1119.8045	37992.4	37048.45
861.0416	1121.7596	37781.35	36836.5
861.1865	1123.7139	37565	36618.8
861.3314	1125.6675	37493.2	36546.75
861.4763	1127.6204	37524.55	36581.75
861.6212	1129.5726	37434.9	36491.25
861.7661	1131.524	37406.65	36458
861.911	1133.4748	37396.95	36450.05
862.0559	1135.4248	37217.1	36276.6
862.2008	1137.3741	37221.05	36279.65
862.3457	1139.3226	37120.3	36173.6
862.4905	1141.2705	36997.75	36053.2
862.6354	1143.2176	36774.75	35824.45
862.7803	1145.164	36720.7	35771.15
862.9251	1147.1097	36658.85	35713.45
863.07	1149.0546	36603.05	35657.2
863.2148	1150.9989	36457.3	35513.8
863.3597	1152.9424	36253.25	35305.75
863.5045	1154.8852	35984.85	35039.65
863.6493	1156.8272	35748.85	34805.05
863.7942	1158.7686	35643.55	34692.9
863.939	1160.7092	35448.55	34500.85
864.0838	1162.6491	35244.9	34298.15
864.2286	1164.5883	35264.25	34321.6
864.3734	1166.5267	35221.5	34274.95
864.5182	1168.4644	35310.95	34366.3
864.663	1170.4014	35410.45	34463.6
864.8078	1172.3377	35581.25	34638.4
864.9526	1174.2732	35693.75	34752.15
865.0974	1176.2081	35868.8	34928.4
865.2421	1178.1421	35911.4	34962.6
865.3869	1180.0755	35984.75	35041.9
865.5317	1182.0082	35823.55	34882.7
865.6764	1183.9401	35709.35	34769.95
865.8212	1185.8713	35392.85	34456.9
865.9659	1187.8017	35075.25	34143.9
866.1106	1189.7315	34749.5	33824.15
866.2554	1191.6605	34306.75	33381.75
866.4001	1193.5888	34000.55	33070.95
866.5448	1195.5163	33868.75	32933.2
866.6895	1197.4432	33610.65	32673.55
866.8342	1199.3693	33479.1	32540.8
866.9789	1201.2947	33266.6	32320.1
867.1236	1203.2193	33139.1	32196.05
867.2683	1205.1432	33100.05	32158
867.413	1207.0664	33081.4	32141.85
867.5576	1208.9889	32945.6	32003.15
867.7023	1210.9106	32962.1	32021.1
867.847	1212.8316	32898.3	31961.5
867.9916	1214.7519	32906.05	31958.6
868.1363	1216.6715	32828.15	31890.45
868.2809	1218.5903	32765	31824.9
868.4255	1220.5084	32598.4	31657.85
868.5701	1222.4257	32554.25	31614.8
868.7148	1224.3424	32250.2	31315
868.8594	1226.2583	32218.2	31277.35
869.004	1228.1735	32286.1	31345.2
869.1486	1230.0879	32264.05	31323
869.2932	1232.0016	32288.3	31350
869.4377	1233.9146	32204.1	31262.3
869.5823	1235.8269	31999.95	31063.7
869.7269	1237.7384	31877.5	30937.15
869.8715	1239.6492	31509.2	30570.75
870.016	1241.5592	31384.4	30445.45
870.1606	1243.4686	31153	30216.6
870.3051	1245.3772	31025.3	30083.95
870.4496	1247.285	30860.4	29921.55
870.5941	1249.1922	30750.9	29812.4
870.7387	1251.0986	30696.95	29761
870.8832	1253.0042	30579.05	29638.75
871.0277	1254.9092	30558.8	29621.45
871.1722	1256.8134	30572.05	29637.05
871.3167	1258.7169	30709.45	29772.9
871.4611	1260.6196	30676.2	29740.1
871.6056	1262.5216	30824.95	29888
871.7501	1264.4229	30919.8	29980.7
871.8945	1266.3234	31010.15	30073.05
872.039	1268.2232	30983.6	30046.5
872.1834	1270.1223	30878.2	29940.4
872.3278	1272.0207	30763.3	29823.5
872.4723	1273.9183	30664.3	29721.15
872.6167	1275.8151	30492.3	29554.7
872.7611	1277.7113	30338.25	29403.25
872.9055	1279.6067	30064.5	29129.35
873.0499	1281.5014	29852.95	28911.95
873.1943	1283.3953	29626.95	28686.95
873.3386	1285.2885	29490.5	28555.25
873.483	1287.181	29306.5	28371.4
873.6274	1289.0727	29345.15	28413.7
873.7717	1290.9637	29277.3	28341.4
873.9161	1292.854	29381.55	28445.75
874.0604	1294.7435	29391.4	28452.9
874.2047	1296.6323	29599.05	28664.65
874.349	1298.5204	29796.45	28854.5
874.4933	1300.4077	29977.35	29039.45
874.6376	1302.2943	30128.1	29191.95
874.7819	1304.1802	30221.2	29286.3
874.9262	1306.0653	30010.75	29074.9
875.0705	1307.9497	29849.95	28913.3
875.2147	1309.8333	29736.05	28801.5
875.359	1311.7162	29647.4	28711.5
875.5032	1313.5984	29722.9	28783.7
875.6475	1315.4798	29777	28828.4
875.7917	1317.3605	29882.3	28939.05
875.9359	1319.2405	30031.9	29096.4
876.0801	1321.1197	29999.25	29061.15
876.2243	1322.9982	29854.8	28914.75
876.3685	1324.876	29892.1	28960.15
876.5127	1326.753	29707.1	28768.4
876.6569	1328.6293	29762.8	28826.15
876.801	1330.5048	29781.05	28839.8
876.9452	1332.3796	29632.05	28696.35
877.0893	1334.2537	29622.1	28659.15
877.2335	1336.127	29468.95	28532.35
877.3776	1337.9996	29370.65	28436.25
877.5217	1339.8714	29232.35	28295.1
877.6658	1341.7426	29133.45	28154.8
877.8099	1343.6129	28986.6	28049.7
877.954	1345.4826	28868.7	27932.5
878.0981	1347.3515	28800.1	27858.85
878.2422	1349.2196	28728.45	27792.7
878.3862	1351.087	28635.85	27700.7
878.5303	1352.9537	28634	27697.85
878.6743	1354.8197	28709.5	27774
878.8184	1356.6849	28868.7	27932.05
878.9624	1358.5493	28857.65	27922.9
879.1064	1360.4131	28835.55	27900.2
879.2504	1362.276	28648.5	27713.1
879.3944	1364.1383	28409.3	27474.1
879.5384	1365.9998	28120	27177.2
879.6823	1367.8606	27772.75	26836.7
879.8263	1369.7206	27437.95	26500.8
879.9702	1371.5799	27229.35	26291.8
880.1142	1373.4384	27023.2	26088
880.2581	1375.2962	26883.75	25948.2
880.402	1377.1533	26526.3	25593.65
880.5459	1379.0096	26144.75	25211.55
880.6898	1380.8652	25837.2	24907.05
880.8337	1382.7201	25535.8	24603.9
880.9776	1384.5742	25243	24310.55
881.1215	1386.4275	25005.15	24068.35
881.2653	1388.2802	24866.75	23933.3
881.4092	1390.132	24669.65	23734
881.553	1391.9832	24577.4	23640.75
881.6968	1393.8336	24406.45	23469.65
881.8406	1395.6832	24287.35	23351.3
881.9844	1397.5322	24132.4	23201.8
882.1282	1399.3803	24106.1	23167.6
882.272	1401.2278	23943.85	23011.9
882.4158	1403.0745	23883.3	22951.35
882.5595	1404.9204	23748.25	22818.65
882.7033	1406.7656	23752.25	22817.95
882.847	1408.6101	23657.5	22723.2
882.9908	1410.4538	23586.65	22653.3
883.1345	1412.2968	23548.7	22615.4
883.2782	1414.139	23539.05	22606.95
883.4219	1415.9805	23564.2	22631.25
883.5656	1417.8213	23574.4	22625.95
883.7092	1419.6613	23617.9	22686.95
883.8529	1421.5006	23767.5	22836.8
883.9965	1423.3391	23939.55	23005.4
884.1402	1425.1769	24261.9	23329
884.2838	1427.0139	24736.95	23804.8
884.4274	1428.8502	25281.5	24349.65
884.571	1430.6858	25844.15	24911.85
884.7146	1432.5206	26218.8	25285.65
884.8582	1434.3547	26430.95	25501.25
885.0018	1436.188	26410.4	25479.2
885.1453	1438.0206	26354.8	25423.25
885.2889	1439.8524	26098.05	25167.5
885.4324	1441.6835	26011	25078.7
885.5759	1443.5139	25912.8	24981.15
885.7194	1445.3435	25703.7	24776.3
885.8629	1447.1724	25627	24697.9
886.0064	1449.0005	25476.1	24547.5
886.1499	1450.8279	25344.05	24412.65
886.2933	1452.6545	25258.6	24328.8
886.4368	1454.4804	25334.6	24405.25
886.5802	1456.3056	25227.15	24292.05
886.7237	1458.13	25117.35	24188.15
886.8671	1459.9536	24865.95	23937.3
887.0105	1461.7766	24432.5	23504.95
887.1539	1463.5987	23970.2	23037.8
887.2972	1465.4202	23506.25	22576
887.4406	1467.2409	23100.6	22170.55
887.584	1469.0608	22818.2	21889.95
887.7273	1470.88	22511.8	21583.8
887.8706	1472.6984	22237	21307.15
888.0139	1474.5161	21966.85	21035.25
888.1572	1476.3331	21762.9	20834.5
888.3005	1478.1493	21607.15	20677.15
888.4438	1479.9648	21511.45	20583.45
888.5871	1481.7795	21326.55	20397.35
888.7303	1483.5935	21245.7	20316.9
888.8736	1485.4067	21112.7	20182.55
889.0168	1487.2192	21080.75	20154.9
889.16	1489.031	21006.05	20074.75
889.3032	1490.842	20943.8	20016
889.4464	1492.6522	20889.25	19959.45
889.5896	1494.4618	20803.7	19874.95
889.7327	1496.2705	20785.65	19857.6
889.8759	1498.0785	20706.8	19776.15
890.019	1499.8858	20611.9	19683
890.1622	1501.6924	20530.95	19606.7
890.3053	1503.4981	20508.7	19584.25
890.4484	1505.3032	20479.05	19553.05
890.5914	1507.1075	20441.9	19514.8
890.7345	1508.911	20349.4	19420.9
890.8776	1510.7138	20304.15	19377.45
891.0206	1512.5159	20154.2	19226.1
891.1637	1514.3172	20104.45	19175.7
891.3067	1516.1178	19976.95	19050.35
891.4497	1517.9176	19971.1	19040.8
891.5927	1519.7166	19853.35	18925.65
891.7357	1521.515	19789.15	18855.45
891.8786	1523.3126	19710.05	18784.35
892.0216	1525.1094	19658.5	18731.4
892.1645	1526.9055	19575.1	18650.1
892.3074	1528.7008	19514.6	18588.35
892.4503	1530.4954	19365	18432.2
892.5932	1532.2893	19358	18435.2
892.7361	1534.0824	19250.25	18323.4
892.879	1535.8747	19244.55	18324.9
893.0218	1537.6663	19192.75	18270.1
893.1647	1539.4572	19070.85	18146.05
893.3075	1541.2473	19085.7	18161.25
893.4503	1543.0367	18975.15	18054
893.5931	1544.8253	18931.85	18002.95
893.7359	1546.6132	18888.1	17960.05
893.8787	1548.4003	18767.95	17835.55
894.0214	1550.1867	18786.9	17860.55
894.1642	1551.9723	18720.65	17794.75
894.3069	1553.7572	18720.75	17798.2
894.4496	1555.5414	18672.85	17753.2
894.5923	1557.3247	18648.1	17732.55
894.735	1559.1074	18662.65	17747.75
894.8777	1560.8893	18654.15	17738.5
895.0204	1562.6705	18621.15	17700.85
895.163	1564.4509	18631.85	17716.1
895.3056	1566.2305	18632.5	17721.1
895.4482	1568.0094	18786.5	17872.15
895.5908	1569.7876	18823.65	17908.7
895.7334	1571.565	18879.65	17963.55
895.876	1573.3417	18894.4	17975.95
896.0186	1575.1176	18865.25	17950.25
896.1611	1576.8928	18785.2	17873.5
896.3036	1578.6672	18624.35	17714.7
896.4461	1580.4409	18469.3	17560.05
896.5886	1582.2138	18364.05	17449.55
896.7311	1583.986	18174	17261.6
896.8736	1585.7575	18070.1	17156.25
897.0161	1587.5282	17901.75	16994.8
897.1585	1589.2981	17836.1	16929.05
897.3009	1591.0673	17693.1	16785.85
897.4433	1592.8358	17637.2	16728.7
897.5857	1594.6035	17549.45	16636.7
897.7281	1596.3704	17501.85	16589
897.8705	1598.1366	17501.9	16587.1
898.0128	1599.9021	17499.55	16591.85
898.1551	1601.6668	17447	16534.65
898.2975	1603.4308	17441.5	16528.7
898.4398	1605.194	17519.1	16604.4
898.5821	1606.9564	17505.2	16602.15
898.7243	1608.7182	17582.4	16678.3
898.8666	1610.4791	17639.75	16740.8
899.0088	1612.2394	17722.85	16826.6
899.1511	1613.9988	17882	16980.65
899.2933	1615.7576	18078.45	17174.6
899.4355	1617.5156	18311.5	17394.5
899.5776	1619.2728	18564.45	17651.55
899.7198	1621.0293	18667.1	17753.45
899.862	1622.785	18685.8	17777.45
900.0041	1624.54	18581.5	17679
900.1462	1626.2942	18405.35	17502.85
900.2883	1628.0477	18084.25	17180.95
900.4304	1629.8005	17831.8	16922
900.5725	1631.5525	17535.45	16632.1
900.7145	1633.3037	17261.55	16355.95
900.8566	1635.0542	17055.35	16151.05
900.9986	1636.804	16908.5	16002.35
901.1406	1638.553	16869.45	15893.8
901.2826	1640.3013	16677.1	15772.65
901.4245	1642.0488	16546.15	15640.4
901.5665	1643.7955	16513.9	15611.55
901.7085	1645.5416	16474.1	15573
901.8504	1647.2868	16505.95	15602.25
901.9923	1649.0313	16498	15592.65
902.1342	1650.7751	16642.5	15732.7
902.2761	1652.5181	16790.5	15886.95
902.4179	1654.2604	16961.8	16059.5
902.5598	1656.0019	17236.85	16335.95
902.7016	1657.7427	17560.3	16658
902.8434	1659.4828	17914.2	17009.6
902.9852	1661.222	18129.05	17222.35
903.127	1662.9606	18160.15	17255.6
903.2687	1664.6984	18006.7	17101.3
903.4105	1666.4354	17653.2	16743.4
903.5522	1668.1717	17181.5	16273.4
903.6939	1669.9072	16666.6	15759.1
903.8356	1671.642	16299.85	15390.6
903.9773	1673.3761	15967.4	15062.5
904.119	1675.1094	15710.75	14806.2
904.2606	1676.8419	15501.6	14597.2
904.4022	1678.5737	15318.2	14413.75
904.5439	1680.3048	15153.85	14248.75
904.6855	1682.0351	15040.7	14137.1
904.827	1683.7646	14916.2	14007.35
904.9686	1685.4934	14840.25	13936.3
905.1101	1687.2215	14758.3	13854.75
905.2517	1688.9488	14618.2	13716
905.3932	1690.6754	14570.85	13667.75
905.5347	1692.4012	14549.1	13646.25
905.6761	1694.1263	14464.5	13559.75
905.8176	1695.8506	14437	13532.55
905.9591	1697.5742	14365.95	13464
906.1005	1699.297	14302.55	13404.1
906.2419	1701.0191	14231.8	13332.2
906.3833	1702.7404	14159.8	13262.5
906.5246	1704.461	14057.35	13152.85
906.666	1706.1808	14044.35	13140.9
906.8073	1707.8999	13961.45	13061
906.9487	1709.6182	13941.4	13042.85
907.09	1711.3358	13866.8	12970.5
907.2313	1713.0527	13835.8	12940.95
907.3725	1714.7688	13763.55	12862.85
907.5138	1716.4841	13723.6	12822.8
907.655	1718.1987	13702.4	12795.05
907.7962	1719.9126	13629.05	12731.6
907.9374	1721.6257	13546.95	12648.7
908.0786	1723.338	13525.5	12631.05
908.2198	1725.0496	13465.1	12565.35
908.3609	1726.7605	13445.15	12545.05
908.502	1728.4706	13417.95	12519.6
908.6431	1730.18	13327.45	12430.15
908.7842	1731.8886	13281.75	12386.7
908.9253	1733.5964	13267.9	12350.8
909.0664	1735.3036	13208.65	12307.4
909.2074	1737.0099	13171.95	12274.55
909.3484	1738.7156	13182.45	12287.7
909.4894	1740.4204	13085	12186.65
909.6304	1742.1246	13072.6	12172.95
909.7714	1743.8279	13028.45	12133.05
909.9123	1745.5306	12985.15	12088.6
910.0532	1747.2325	12939.7	12043.75
910.1941	1748.9336	12907.7	12012.95
910.335	1750.634	12858.1	11959.4
910.4759	1752.3336	12853.5	11957.35
910.6168	1754.0325	12805.85	11914.65
910.7576	1755.7307	12779.9	11887.1
910.8984	1757.4281	12774.6	11879.6
911.0392	1759.1247	12733.7	11827.2
911.18	1760.8206	12726.6	11821.6
911.3208	1762.5158	12711.6	11807.85
911.4615	1764.2102	12618.6	11722.1
911.6022	1765.9039	12585.6	11690.85
911.7429	1767.5968	12548	11655.7
911.8836	1769.289	12496.15	11603.95
912.0243	1770.9804	12491	11595
912.1649	1772.6711	12456.7	11557.65
912.3056	1774.361	12432.45	11533
912.4462	1776.0502	12413.2	11515.2
912.5868	1777.7386	12404.95	11507.15
912.7274	1779.4263	12334.85	11440.6
912.8679	1781.1132	12318.75	11428.1
913.0084	1782.7994	12250.9	11359.1
913.149	1784.4849	12222.1	11330.5
913.2895	1786.1696	12192.45	11292.1
913.4299	1787.8535	12156.65	11265.6
913.5704	1789.5367	12142.9	11251.6
913.7108	1791.2192	12128.05	11233.65
913.8513	1792.9009	12075.45	11156.5
913.9917	1794.5818	12023.4	11124.8
914.132	1796.2621	12001.4	11107.25
914.2724	1797.9415	11993	11099.55
914.4128	1799.6202	11956.75	11061
914.5531	1801.2982	11934.6	11040.65
914.6934	1802.9755	11884.35	10986.8
914.8337	1804.6519	11875.25	10979.55
914.9739	1806.3277	11806.1	10913.1
915.1142	1808.0027	11748.3	10858.25
915.2544	1809.6769	11763.85	10874.3
915.3946	1811.3504	11713.9	10824.15
915.5348	1813.0231	11682.3	10791
915.675	1814.6951	11641.25	10749.05
915.8151	1816.3664	11684.35	10787.7
915.9553	1818.0369	11648.25	10753.25
916.0954	1819.7067	11584.35	10691.2
916.2355	1821.3757	11576.95	10679.25
916.3755	1823.044	11540.65	10645.85
916.5156	1824.7115	11500.9	10604.35
916.6556	1826.3783	11459.45	10567.1
916.7956	1828.0443	11444.8	10553.15
916.9356	1829.7096	11433.7	10538.5
917.0756	1831.3741	11405.85	10511.15
917.2155	1833.0379	11375.3	10484.3
917.3555	1834.701	11352.4	10461.75
917.4954	1836.3633	11339.9	10448.7
917.6353	1838.0248	11271.3	10377
917.7751	1839.6856	11254.05	10361.35
917.915	1841.3457	11226.6	10332.55
918.0548	1843.005	11216.55	10319.6
918.1946	1844.6636	11176.15	10283.2
918.3344	1846.3214	11136.25	10242.2
918.4742	1847.9785	11160.25	10265
918.6139	1849.6349	11124.05	10228.45
918.7537	1851.2904	11101.55	10198.75
918.8934	1852.9453	11049.45	10153.85
919.0331	1854.5994	11021.45	10124.1
919.1727	1856.2528	11023.55	10125.85
919.3124	1857.9054	11015.6	10118.85
919.452	1859.5572	11004.6	10110.85
919.5916	1861.2083	10963.25	10069.1
919.7312	1862.8587	10952.9	10055.9
919.8708	1864.5084	10940.85	10044.05
920.0103	1866.1572	10893.25	9997.5
920.1498	1867.8054	10848	9952.75
920.2893	1869.4528	10817.65	9922.4
920.4288	1871.0994	10795.45	9897.5
920.5683	1872.7453	10762.95	9866.4
920.7077	1874.3905	10758.9	9847.4
920.8471	1876.0349	10731.3	9835.15
920.9865	1877.6786	10689.1	9794.1
921.1259	1879.3215	10698.3	9802.8
921.2653	1880.9637	10661.1	9766.25
921.4046	1882.6051	10646.45	9754.3
921.5439	1884.2458	10617.7	9724.5
921.6832	1885.8858	10544.15	9652.15
921.8225	1887.525	10547.55	9652.05
921.9617	1889.1634	10503.5	9608.15
922.101	1890.8011	10473.8	9577.1
922.2402	1892.4381	10462.75	9566.05
922.3794	1894.0743	10448.8	9556.1
922.5185	1895.7098	10419.95	9526.15
922.6577	1897.3446	10395.45	9501.9
922.7968	1898.9786	10350.9	9454.7
922.9359	1900.6118	10356.8	9465.65
923.075	1902.2443	10263.4	9370.2
923.214	1903.8761	10265.6	9371.55
923.3531	1905.5071	10183.15	9290.9
923.4921	1907.1374	10168.9	9274.7
923.6311	1908.7669	10176.05	9283.75
923.77	1910.3957	10131.1	9239.6
923.909	1912.0237	10084.4	9192.85
924.0479	1913.651	10068.65	9175.8
924.1868	1915.2776	10046.35	9156.35
924.3257	1916.9034	10005.85	9115.05
924.4646	1918.5285	9931.05	9042.9
924.6034	1920.1528	9926.1	9032.9
924.7422	1921.7764	9901.05	9010.15
924.881	1923.3992	9866	8974.7
925.0198	1925.0213	9826.95	8935.1
925.1586	1926.6427	9803	8912.9
925.2973	1928.2633	9806.55	8844.75
925.436	1929.8832	9736.65	8844.8
925.5747	1931.5023	9667.15	8773.25
925.7134	1933.1207	9685.45	8793.35
925.852	1934.7383	9655.65	8765.35
925.9906	1936.3552	9602.9	8712.65
926.1292	1937.9714	9605.1	8711.6
926.2678	1939.5868	9555.85	8661.75
926.4064	1941.2015	9491.65	8597.6
926.5449	1942.8154	9467.55	8576.3
926.6834	1944.4286	9417.1	8524
926.8219	1946.041	9413.05	8497.4
926.9604	1947.6528	9366.6	8470.25
927.0988	1949.2637	9346.95	8454.8
927.2372	1950.8739	9289.55	8399
927.3756	1952.4834	9273.85	8385.05
927.514	1954.0921	9253.1	8361.65
927.6523	1955.7001	9207.2	8312.65
927.7907	1957.3074	9193.6	8304.9
927.929	1958.9139	9157.4	8272.85
928.0673	1960.5197	9155.7	8263.3
928.2055	1962.1247	9109.35	8221
928.3438	1963.729	9060.15	8172.85
928.482	1965.3325	9035.2	8124.05
928.6202	1966.9353	8988.75	8102.55
928.7584	1968.5374	8977.4	8089.05
928.8965	1970.1387	8936.7	8047.25
929.0346	1971.7393	8903.3	8012.8
929.1727	1973.3392	8869.4	7981.05
929.3108	1974.9383	8839.2	7952.65
929.4489	1976.5366	8823.05	7935.75
929.5869	1978.1342	8806.65	7918.6
929.7249	1979.7311	8782.75	7893.75
929.8629	1981.3273	8757.55	7870.15
930.0009	1982.9227	8722.9	7836.05
930.1388	1984.5173	8695.95	7810.15
930.2767	1986.1112	8638.5	7753.4
930.4146	1987.7044	8656.25	7771.75
930.5525	1989.2968	8623	7736.35
930.6904	1990.8885	8617.35	7727.7
930.8282	1992.4795	8584.8	7696.9
930.966	1994.0697	8549.8	7663.25
931.1038	1995.6592	8525.9	7638.85
931.2415	1997.2479	8481.5	7595.5
931.3793	1998.8359	8463.1	7578.3
931.517	2000.4232	8437.45	7556.05
931.6547	2002.0097	8424.2	7542
931.7923	2003.5955	8377.9	7494.5
931.93	2005.1805	8395.7	7510.1
932.0676	2006.7648	8343.1	7457.7
932.2052	2008.3484	8305.5	7420.55
932.3427	2009.9312	8332.95	7447.45
932.4803	2011.5133	8287.75	7405.9
932.6178	2013.0946	8257.05	7374.9
932.7553	2014.6752	8239.4	7357.35
932.8928	2016.2551	8215.4	7330.25
933.0302	2017.8342	8179.2	7295.9
933.1676	2019.4126	8156.5	7275.65
933.305	2020.9902	8125.3	7240.75
933.4424	2022.5672	8109.15	7225.4
933.5798	2024.1433	8081.5	7193.35
933.7171	2025.7188	8053.8	7172.7
933.8544	2027.2935	8055.6	7172.9
933.9917	2028.8674	7997.4	7116.75
934.129	2030.4406	7976.3	7094.25
934.2662	2032.0131	7955.65	7077.1
934.4034	2033.5849	7947.55	7063
934.5406	2035.1559	7938.75	7057.75
934.6778	2036.7261	7923.95	7040.85
934.8149	2038.2957	7883.65	6998.8
934.952	2039.8645	7880.4	6994.25
935.0891	2041.4325	7871.5	6985.75
935.2262	2042.9998	7852.9	6968.8
935.3632	2044.5664	7807.2	6922.8
935.5002	2046.1323	7784.45	6903.15
935.6372	2047.6974	7784.25	6902.95
935.7742	2049.2617	7752.1	6869.15
935.9111	2050.8254	7744.1	6856.95
936.048	2052.3883	7731	6846.25
936.1849	2053.9504	7724.6	6839.1
936.3218	2055.5118	7677	6793.3
936.4586	2057.0725	7633.55	6746.15
936.5955	2058.6325	7603.5	6722.05
936.7323	2060.1917	7600	6715.5
936.869	2061.7502	7574	6689.9
937.0058	2063.3079	7557.05	6675.65
937.1425	2064.8649	7524.6	6638.65
937.2792	2066.4212	7501.85	6618.45
937.4159	2067.9767	7521.1	6638.55
937.5525	2069.5315	7450	6566.15
937.6891	2071.0856	7435.1	6551.45
937.8257	2072.6389	7409.65	6526.35
937.9623	2074.1915	7379.35	6499.95
938.0989	2075.7433	7347.25	6464.8
938.2354	2077.2945	7341.5	6459
938.3719	2078.8448	7325.25	6441.15
938.5084	2080.3945	7289.85	6404.25
938.6448	2081.9434	7302.7	6419.1
938.7812	2083.4916	7257.65	6371.6
938.9176	2085.039	7228.75	6339.1
939.054	2086.5857	7215.3	6323.25
939.1903	2088.1317	7196.55	6305.3
939.3267	2089.677	7198.75	6308.25
939.463	2091.2215	7151.95	6261.75
939.5992	2092.7652	7149.75	6259.5
939.7355	2094.3083	7140	6251.7
939.8717	2095.8506	7112.35	6225.35
940.0079	2097.3921	7119.35	6232.6
940.1441	2098.933	7098.85	6211.55
940.2802	2100.4731	7071.2	6185
940.4163	2102.0124	7052.7	6157.8
940.5524	2103.5511	7023.05	6136.05
940.6885	2105.089	7016.1	6128.9
940.8245	2106.6261	7010.75	6123.35
940.9606	2108.1626	6989.4	6105.85
941.0965	2109.6983	6973.85	6058.4
941.2325	2111.2332	6945.2	6058.15
941.3684	2112.7675	6907.65	6016.4
941.5044	2114.301	6903.6	6014
941.6403	2115.8337	6910.9	6022.95
941.7761	2117.3657	6859.4	5973.65
941.912	2118.897	6887.25	5997.3
942.0478	2120.4276	6851.3	5956.35
942.1835	2121.9575	6830.75	5942.8
942.3193	2123.4866	6830.95	5929.2
942.455	2125.0149	6798.4	5907.85
942.5907	2126.5426	6778.45	5894.4
942.7264	2128.0695	6746	5861.6
942.8621	2129.5956	6741.85	5860.95
942.9977	2131.1211	6717.4	5828.3
943.1333	2132.6458	6708.05	5820.15
943.2689	2134.1698	6689.35	5800.75
943.4044	2135.693	6667.45	5774.7
943.54	2137.2155	6655.1	5764.15
943.6755	2138.7373	6636.3	5749.35
943.8109	2140.2584	6634.7	5749.55
943.9464	2141.7787	6602.95	5713.75
944.0818	2143.2983	6584.7	5705.25
944.2172	2144.8171	6548.4	5665.5
944.3526	2146.3353	6521.55	5635.8
944.4879	2147.8527	6498.2	5616.15
944.6232	2149.3693	6495	5609.65
944.7585	2150.8853	6479.5	5591.2
944.8938	2152.4005	6464.2	5574.05
945.029	2153.9149	6457.4	5570.2
945.1642	2155.4287	6527.25	5532.45
945.2994	2156.9417	6469	5580.9
945.4346	2158.454	6404	5516.8
945.5697	2159.9655	6374.2	5489.45
945.7048	2161.4764	6373	5489.95
945.8399	2162.9865	6344.7	5458.55
945.9749	2164.4958	6337.8	5454.25
946.1099	2166.0045	6298.45	5410.15
946.2449	2167.5124	6304.85	5419.3
946.3799	2169.0195	6296.45	5413.05
946.5148	2170.526	6299.3	5411.35
946.6498	2172.0317	6286.6	5399.35
946.7846	2173.5367	6253.95	5367.4
946.9195	2175.0409	6230.35	5345.95
947.0543	2176.5445	6225.9	5339
947.1891	2178.0473	6206.65	5316.8
947.3239	2179.5494	6163.75	5272.45
947.4587	2181.0507	6139.3	5251.35
947.5934	2182.5513	6131.75	5245.8
947.7281	2184.0512	6105.6	5218.75
947.8628	2185.5504	6103.25	5218.15
947.9974	2187.0488	6059.4	5173.75
948.132	2188.5465	6073.75	5189.35
948.2666	2190.0435	6038.3	5150.9
948.4012	2191.5397	6020.2	5132.9
948.5357	2193.0353	6022.95	5135.15
948.6702	2194.5301	5985.5	5097.55
948.8047	2196.0241	5964.5	5073.65
948.9392	2197.5175	5940	5050.15
949.0736	2199.0101	5954.9	5060.95
949.208	2200.502	5926.85	5038.55
949.3424	2201.9931	5893.35	5008.1
949.4767	2203.4835	5871.05	4986.4
949.611	2204.9733	5845	4952.3
949.7453	2206.4622	5813.15	4928.8
949.8796	2207.9505	5794.3	4908.05
950.0138	2209.438	5784.9	4902.15
950.148	2210.9248	5766.55	4880.45
950.2822	2212.4109	5757.6	4872.05
950.4164	2213.8962	5744.6	4853.1
950.5505	2215.3809	5728.45	4834.3
950.6846	2216.8648	5725.2	4831.2
950.8186	2218.3479	5710.25	4816.2
950.9527	2219.8304	5703.55	4808.7
951.0867	2221.3121	5680.25	4788.9
951.2207	2222.7931	5642.9	4754.65
951.3546	2224.2733	5628.85	4740
951.4886	2225.7529	5627.9	4741.1
951.6225	2227.2317	5590	4701.5
951.7563	2228.7098	5587.15	4704.05
951.8902	2230.1872	5545.1	4659.45
952.024	2231.6638	5539.6	4652.05
952.1578	2233.1397	5535.95	4647.65
952.2916	2234.6149	5531.05	4645.05
952.4253	2236.0894	5500.55	4613.45
952.559	2237.5632	5502.4	4605.8
952.6927	2239.0362	5469.4	4582.6
952.8263	2240.5085	5462.3	4576.3
952.9599	2241.9801	5444.9	4557.5
953.0935	2243.4509	5424.3	4537.25
953.2271	2244.921	5415.7	4525.25
953.3606	2246.3904	5396.7	4504.25
953.4941	2247.8591	5383.5	4493.75
953.6276	2249.3271	5369.5	4481.8
953.7611	2250.7943	5326.7	4438.7
953.8945	2252.2608	5307.85	4419.65
954.0279	2253.7266	5304.8	4416.5
954.1612	2255.1917	5282	4392.7
954.2946	2256.656	5259.1	4372.65
954.4279	2258.1197	5239.3	4355.65
954.5612	2259.5826	5247.45	4361.25
954.6944	2261.0447	5246.4	4357.15
954.8276	2262.5062	5243.4	4351.3
954.9608	2263.9669	5229.6	4337.65
955.094	2265.4269	5206.4	4316.85
955.2271	2266.8862	5185.25	4298
955.3602	2268.3448	5180.15	4293.45
955.4933	2269.8026	5179.4	4292.15
955.6264	2271.2598	5143.45	4257
955.7594	2272.7162	5133.85	4245.75
955.8924	2274.1719	5124.5	4234.2
956.0253	2275.6268	5122.3	4232
956.1583	2277.0811	5104.05	4213.85
956.2912	2278.5346	5081.85	4193.95
956.4241	2279.9874	5075.6	4191
956.5569	2281.4395	5068.35	4184.9
956.6897	2282.8908	5053.7	4163.75
956.8225	2284.3414	5053.5	4164.25
956.9553	2285.7914	5029.6	4142.05
957.088	2287.2406	5007.25	4117.9
957.2207	2288.689	5021.65	4132.1
957.3534	2290.1368	4992.4	4100.1
957.486	2291.5838	4969.65	4076.15
957.6186	2293.0302	4979.1	4085.8
957.7512	2294.4758	4937.85	4046.75
957.8838	2295.9206	4932.5	4042.7
958.0163	2297.3648	4905.2	4019.4
958.1488	2298.8082	4896	4007.55
958.2813	2300.251	4891.95	4004.75
958.4137	2301.693	4884.15	3991.15
958.5461	2303.1343	4858.55	3966.7
958.6785	2304.5748	4867.6	3980.35
958.8108	2306.0147	4833.95	3945.85
958.9432	2307.4538	4835.25	3947.85
959.0754	2308.8922	4818.45	3933.95
959.2077	2310.3299	4802	3915.45
959.3399	2311.7669	4803.6	3918.65
959.4721	2313.2031	4765.35	3880.2
959.6043	2314.6387	4742.5	3854.6
959.7365	2316.0735	4742.8	3855.55
959.8686	2317.5076	4725.85	3835.15
960.0006	2318.941	4712.7	3820.7
960.1327	2320.3737	4721	3828.15
960.2647	2321.8056	4690.9	3796.95
960.3967	2323.2369	4660.4	3770.1
960.5287	2324.6674	4664.8	3774.9
960.6606	2326.0972	4651.55	3764.45
960.7925	2327.5263	4636.8	3748.7
960.9244	2328.9547	4628.15	3739.6
961.0562	2330.3823	4621.1	3731.65
961.1881	2331.8092	4622	3729.05
961.3198	2333.2355	4590.7	3698.4
961.4516	2334.661	4582.4	3691.65
961.5833	2336.0858	4579.4	3686.1
961.715	2337.5098	4572.45	3682.85
961.8467	2338.9332	4548.5	3659.5
961.9783	2340.3558	4550.8	3660.4
962.1099	2341.7778	4520.8	3634.4
962.2415	2343.199	4511.5	3623.7
962.373	2344.6195	4504.55	3618.6
962.5045	2346.0393	4504.85	3616.15
962.636	2347.4583	4500.7	3614.7
962.7675	2348.8767	4481.7	3592.4
962.8989	2350.2943	4469.1	3579.35
963.0303	2351.7113	4464.3	3573.75
963.1617	2353.1275	4454.35	3563.05
963.293	2354.543	4453.15	3537.25
963.4243	2355.9578	4436	3546.25
963.5556	2357.3718	4394.75	3507.65
963.6868	2358.7852	4392.85	3500.45
963.818	2360.1978	4368.2	3482.05
963.9492	2361.6098	4374.65	3486.9
964.0803	2363.021	4339.25	3445.9
964.2114	2364.4315	4324.55	3436.5
964.3425	2365.8413	4327.05	3432.35
964.4736	2367.2504	4328	3442.45
964.6046	2368.6587	4298.8	3414.1
964.7356	2370.0664	4278.15	3391.7
964.8666	2371.4733	4270.85	3383.95
964.9975	2372.8795	4270.15	3384.05
965.1284	2374.285	4244.65	3358
965.2593	2375.6899	4218.1	3332.55
965.3901	2377.0939	4200.5	3313.15
965.5209	2378.4973	4187.05	3300.45
965.6517	2379.9	4182.75	3295.8
965.7825	2381.3019	4166.45	3280.3
965.9132	2382.7032	4140.95	3255.4
966.0439	2384.1037	4153.1	3268.95
966.1745	2385.5035	4133.55	3250.75
966.3051	2386.9027	4113.75	3230.35
966.4357	2388.3011	4116	3230.9
966.5663	2389.6987	4117	3231.65
966.6968	2391.0957	4100.85	3216.05
966.8273	2392.492	4073.4	3188.6
966.9578	2393.8876	4059.25	3174
967.0882	2395.2824	4044.65	3159.95
967.2186	2396.6765	4018.45	3131.5
967.349	2398.07	4008.25	3122.2
967.4793	2399.4627	4008.1	3120.35
967.6097	2400.8547	4007.35	3119.9
967.7399	2402.246	3982.15	3086.8
967.8702	2403.6366	3954.9	3070.2
968.0004	2405.0265	3957.2	3072.25
968.1306	2406.4156	3940	3048.95
968.2607	2407.8041	3933.1	3043.35
968.3909	2409.1918	3911.35	3022.85
968.521	2410.5789	3918.75	3030.25
968.651	2411.9652	3907.7	3016.25
968.781	2413.3508	3895.75	3009.6
968.911	2414.7358	3864.55	2977.1
969.041	2416.12	3874	2987.1
969.1709	2417.5035	3852.25	2965.1
969.3008	2418.8863	3850.45	2964
969.4307	2420.2684	3849	2962.7
969.5606	2421.6497	3820.75	2933.55
969.6904	2423.0304	3803.1	2916.3
969.8201	2424.4104	3802.3	2915.75
969.9499	2425.7896	3783.65	2894.15
970.0796	2427.1682	3766.2	2881.25
970.2093	2428.546	3771.2	2882.95
970.3389	2429.9232	3764.85	2877.4
970.4685	2431.2996	3738.4	2853.2
970.5981	2432.6753	3741.1	2854.2
970.7277	2434.0503	3741.9	2852.45
970.8572	2435.4246	3730.15	2844.1
970.9867	2436.7982	3707.45	2819
971.1161	2438.1711	3697.7	2810.9
971.2456	2439.5433	3700.45	2810.5
971.375	2440.9148	3698.45	2807.25
971.5043	2442.2856	3678.95	2793.05
971.6336	2443.6557	3651.7	2762.1
971.7629	2445.025	3643.2	2756.15
971.8922	2446.3937	3646.1	2758.2
972.0214	2447.7617	3639.6	2749.55
972.1506	2449.1289	3629.3	2742
972.2798	2450.4955	3635.3	2744
972.4089	2451.8613	3612.7	2726
972.538	2453.2265	3600.95	2715.2
972.6671	2454.5909	3596.65	2707.85
972.7961	2455.9546	3582.45	2696.8
972.9251	2457.3177	3585.95	2700.1
973.0541	2458.68	3580.5	2691.95
973.1831	2460.0416	3570.35	2683.65
973.312	2461.4025	3558.5	2670.7
973.4408	2462.7627	3558.9	2662.75
973.5697	2464.1222	3543.5	2658.65
973.6985	2465.4811	3523.35	2637.3
973.8273	2466.8392	3525.95	2638.3
973.956	2468.1966	3506.25	2618.15
974.0847	2469.5533	3509.5	2621.9
974.2134	2470.9093	3508.5	2620.55
974.3421	2472.2645	3502.5	2615.95
974.4707	2473.6191	3482.5	2596.45
974.5993	2474.973	3461.55	2575.15
974.7278	2476.3262	3465.7	2576.1
974.8563	2477.6787	3459.6	2573.85
974.9848	2479.0305	3448.55	2559.8
975.1132	2480.3816	3443.9	2556.05
975.2417	2481.7319	3427.5	2541.1
975.37	2483.0816	3403.2	2516.3
975.4984	2484.4306	3394.95	2508.6
975.6267	2485.7789	3395	2510.7
975.755	2487.1264	3385.75	2499.2
975.8833	2488.4733	3361	2476.2
976.0115	2489.8195	3353.75	2459.5
976.1397	2491.165	3337.05	2448.7
976.2678	2492.5097	3335.85	2447.5
976.3959	2493.8538	3334.95	2450.85
976.524	2495.1972	3316.6	2428.35
976.6521	2496.5398	3296.85	2408.95
976.7801	2497.8818	3307.2	2417.55
976.9081	2499.2231	3290.7	2403.1
977.036	2500.5637	3279.55	2390.2
977.164	2501.9035	3282.5	2393.75
977.2918	2503.2427	3274.6	2381.35
977.4197	2504.5812	3254.95	2366.7
977.5475	2505.919	3262	2374
977.6753	2507.256	3263.55	2375.55
977.8031	2508.5924	3250.55	2362.2
977.9308	2509.9281	3240.4	2348.65
978.0585	2511.2631	3213.7	2327.25
978.1861	2512.5974	3214.05	2328.4
978.3137	2513.9309	3198.45	2314
978.4413	2515.2638	3218.25	2307.2
978.5689	2516.596	3177.95	2292
978.6964	2517.9275	3176.15	2288.9
978.8239	2519.2583	3171.95	2282.3
978.9513	2520.5884	3165.45	2276.45
979.0788	2521.9178	3164.55	2278.3
979.2062	2523.2465	3158.15	2273.95
979.3335	2524.5745	3125.75	2238.4
979.4608	2525.9018	3122.1	2234.95
979.5881	2527.2284	3112.4	2225.55
979.7154	2528.5543	3096	2210.05
979.8426	2529.8796	3102.95	2214.05
979.9698	2531.2041	3089.25	2203
980.0969	2532.5279	3101.3	2215.2
980.224	2533.851	3084.75	2198.2
980.3511	2535.1735	3076.1	2189.2
980.4781	2536.4952	3076.15	2189.65
980.6052	2537.8163	3071.75	2184.3
980.7321	2539.1366	3048.05	2159.55
980.8591	2540.4562	3043.2	2153.4
980.986	2541.7752	3049.1	2160.6
981.1129	2543.0935	3058.4	2168.75
981.2397	2544.411	3045.4	2155.9
981.3665	2545.7279	3036.75	2151.95
981.4933	2547.0441	3036.95	2151.75
981.62	2548.3596	3035.55	2143.7
981.7467	2549.6744	3019.75	2129.7
981.8734	2550.9885	3007.15	2118.15
982.0001	2552.3019	3003.4	2115.15
982.1267	2553.6146	2990.7	2103.3
982.2532	2554.9266	2995.3	2107.5
982.3798	2556.2379	2983.65	2094.05
982.5063	2557.5485	2976.1	2091.1
982.6327	2558.8585	2963.45	2068.15
982.7592	2560.1677	2974.85	2083.35
982.8856	2561.4762	2958.65	2071.35
983.0119	2562.7841	2964.95	2072.9
983.1383	2564.0913	2955.2	2066.95
983.2646	2565.3977	2953.6	2065.55
983.3908	2566.7035	2942.9	2055.3
983.517	2568.0086	2927.2	2038.75
983.6432	2569.313	2935.85	2045.95
983.7694	2570.6167	2937.05	2045.35
983.8955	2571.9197	2916.1	2028.85
984.0216	2573.222	2918.35	2026.75
984.1476	2574.5236	2908.95	2021.55
984.2737	2575.8246	2916.9	2025.1
984.3996	2577.1248	2906.25	2014
984.5256	2578.4244	2898.75	2011.1
984.6515	2579.7232	2892.5	2004.05
984.7774	2581.0214	2912.7	1993.85
984.9032	2582.3189	2890.4	2001.85
985.029	2583.6157	2884.5	1990.95
985.1548	2584.9118	2891.1	2004.45
985.2806	2586.2072	2876.3	1988.7
985.4063	2587.5019	2871.65	1983.15
985.5319	2588.7959	2870	1981.35
985.6576	2590.0893	2883.35	1992.7
985.7832	2591.3819	2863.1	1976.3
985.9087	2592.6739	2848.85	1962.1
986.0343	2593.9652	2856.2	1966.35
986.1597	2595.2557	2845.1	1957.75
986.2852	2596.5456	2832.75	1944
986.4106	2597.8348	2853.45	1966.6
986.536	2599.1234	2829.7	1941.4
986.6614	2600.4112	2833.85	1946.4
986.7867	2601.6983	2832.4	1941.85
986.912	2602.9848	2804.75	1915.4
987.0372	2604.2705	2812.55	1918.65
987.1624	2605.5556	2805.65	1917
987.2876	2606.84	2794.45	1910.3
987.4128	2608.1237	2790.05	1900.5
987.5379	2609.4067	2785.4	1895.3
987.6629	2610.689	2784.15	1889.25
987.788	2611.9707	2765.95	1873.15
987.913	2613.2516	2766.1	1874.6
988.0379	2614.5319	2746.1	1855.65
988.1629	2615.8115	2742.5	1854.15
988.2878	2617.0903	2740.45	1852.25
988.4126	2618.3685	2731.1	1842.65
988.5375	2619.6461	2719.6	1832.3
988.6622	2620.9229	2732.05	1845.2
988.787	2622.199	2714.2	1826.55
988.9117	2623.4745	2717.25	1829.85
989.0364	2624.7493	2699.7	1811.5
989.161	2626.0234	2690.6	1804.6
989.2857	2627.2968	2697.05	1807.8
989.4102	2628.5695	2691.95	1803.35
989.5348	2629.8415	2674.65	1787.5
989.6593	2631.1128	2678.75	1788.85
989.7837	2632.3835	2677.25	1790.7
989.9082	2633.6535	2657.05	1767.75
990.0326	2634.9228	2650.75	1763.5
990.1569	2636.1914	2642.9	1756.4
990.2812	2637.4593	2635.75	1747.05
990.4055	2638.7265	2635.85	1747.45
990.5298	2639.9931	2619.45	1732
990.654	2641.259	2636.85	1748.25
990.7782	2642.5242	2622.2	1734.85
990.9023	2643.7887	2618.1	1730.35
991.0264	2645.0525	2620.4	1732.45
991.1505	2646.3156	2618.6	1714.85
991.2745	2647.5781	2575.4	1689.05
991.3985	2648.8398	2585.85	1699.1
991.5225	2650.1009	2579.15	1669.55
991.6464	2651.3613	2573.35	1683.15
991.7703	2652.6211	2573.65	1684.95
991.8942	2653.8801	2570.65	1684.05
992.018	2655.1385	2572.2	1684.95
992.1418	2656.3961	2549.5	1660.65
992.2655	2657.6531	2561.25	1674.5
992.3892	2658.9094	2555.05	1669.85
992.5129	2660.1651	2538.8	1652.3
992.6366	2661.42	2550.65	1662.65
992.7602	2662.6743	2546.2	1657.9
992.8837	2663.9279	2543.45	1655.6
993.0073	2665.1808	2532.35	1645.6
993.1307	2666.433	2548.8	1662.35
993.2542	2667.6846	2537	1650.5
993.3776	2668.9354	2529.6	1637.5
993.501	2670.1856	2522.5	1633.55
993.6244	2671.4351	2532	1644.45
993.7477	2672.6839	2525.35	1635.2
993.8709	2673.9321	2519.3	1631.85
993.9942	2675.1795	2522.55	1636.25
994.1174	2676.4263	2522.1	1634.45
994.2405	2677.6724	2518.7	1633.55
994.3637	2678.9179	2516.1	1629.85
994.4868	2680.1626	2508.2	1621.65
994.6098	2681.4067	2499.95	1612.2
994.7328	2682.6501	2508.7	1623.8
994.8558	2683.8928	2503.6	1615.7
994.9788	2685.1348	2490.65	1603.25
995.1017	2686.3761	2474.85	1588.4
995.2245	2687.6168	2475.6	1589.25
995.3474	2688.8568	2462.9	1578.1
995.4702	2690.0961	2452.05	1566.35
995.5929	2691.3348	2446.55	1560.55
995.7156	2692.5727	2455.85	1568.85
995.8383	2693.81	2429.7	1541.05
995.961	2695.0466	2426.1	1542.25
996.0836	2696.2826	2423.85	1534.4
996.2062	2697.5178	2428.75	1539.8
996.3287	2698.7524	2425.2	1537.25
996.4512	2699.9863	2425.55	1537.9
996.5737	2701.2195	2419.55	1533.35
996.6961	2702.452	2414.7	1525.2
996.8185	2703.6839	2407.85	1520.25
996.9408	2704.9151	2418.35	1532.1
997.0631	2706.1456	2418	1529.75
997.1854	2707.3755	2419.45	1531.85
997.3077	2708.6046	2430.05	1540.8
997.4299	2709.8331	2421.25	1533.65
997.552	2711.0609	2419.3	1533.65
997.6742	2712.2881	2440.15	1556
997.7963	2713.5145	2439.2	1550.1
997.9183	2714.7403	2435.65	1548.95
998.0403	2715.9654	2445.65	1556.75
998.1623	2717.1899	2459.7	1560.4
998.2842	2718.4136	2467.55	1581.45
998.4062	2719.6367	2466.7	1580.05
998.528	2720.8591	2470.8	1578.35
998.6498	2722.0809	2470.8	1583.55
998.7716	2723.3019	2480.65	1591.6
998.8934	2724.5223	2490.35	1605.15
999.0151	2725.7421	2493.15	1605.75
999.1368	2726.9611	2489.55	1601.85
999.2584	2728.1795	2484.5	1594.1
999.38	2729.3972	2477.7	1589.1
999.5016	2730.6142	2459.1	1561
999.6231	2731.8306	2445.7	1557.5
999.7446	2733.0462	2429.5	1542.5
999.8661	2734.2612	2403.25	1510.8
999.9875	2735.4756	2365.45	1476.45
1000.1089	2736.6892	2358	1473.6
1000.2302	2737.9022	2333.6	1448.85
1000.3515	2739.1145	2322.85	1436.5
1000.4728	2740.3262	2307.15	1414.1
1000.594	2741.5372	2290.4	1404.35
1000.7152	2742.7475	2271.15	1386.1
1000.8363	2743.9571	2258.15	1369.5
1000.9575	2745.1661	2262.2	1370.95
1001.0785	2746.3744	2243.4	1356.85
1001.1996	2747.582	2226.55	1340.8
1001.3206	2748.7889	2214.75	1327.9
1001.4415	2749.9952	2214.05	1326.15
1001.5625	2751.2008	2191.3	1306
1001.6833	2752.4057	2192.7	1305.25
1001.8042	2753.61	2186.8	1301.45
1001.925	2754.8136	2183.45	1296
1002.0458	2756.0165	2178.1	1293.75
1002.1665	2757.2188	2171.3	1287.7
1002.2872	2758.4204	2172.85	1286.55
1002.4078	2759.6213	2166.85	1278.35
1002.5285	2760.8215	2164.35	1274.3
1002.649	2762.0211	2154.4	1267.55
1002.7696	2763.22	2155.55	1265.4
1002.8901	2764.4182	2152.6	1266.3
1003.0106	2765.6158	2142.6	1257.7
1003.131	2766.8127	2134.6	1250.9
1003.2514	2768.009	2124.65	1240.1
1003.3717	2769.2045	2121.3	1232.3
1003.492	2770.3994	2112.8	1225.85
1003.6123	2771.5936	2118	1230.3
1003.7325	2772.7872	2107.05	1222.25
1003.8527	2773.9801	2103.9	1217.45
1003.9729	2775.1723	2108.7	1206.35
1004.093	2776.3639	2094.55	1208.85
1004.2131	2777.5548	2099.85	1213.7
1004.3331	2778.745	2085.3	1198.8
1004.4531	2779.9346	2093.35	1209.05
1004.5731	2781.1235	2096.8	1211.35
1004.693	2782.3117	2090.35	1207.75
1004.8129	2783.4992	2081.1	1197.3
1004.9328	2784.6861	2097.7	1213.8
1005.0526	2785.8723	2098.1	1212
1005.1723	2787.0579	2105.4	1219.7
1005.2921	2788.2428	2104.2	1220.15
1005.4118	2789.427	2103.6	1217.7
1005.5314	2790.6106	2117.2	1232.65
1005.651	2791.7935	2129.2	1242.2
1005.7706	2792.9757	2133.5	1249.65
1005.8902	2794.1573	2151.6	1263.95
1006.0097	2795.3382	2158.4	1275.9
1006.1291	2796.5184	2156.7	1273.65
1006.2485	2797.698	2175.2	1289.35
1006.3679	2798.8769	2187.95	1303.75
1006.4873	2800.0551	2211.2	1326.05
1006.6066	2801.2327	2225.1	1338.15
1006.7258	2802.4096	2234.45	1349.75
1006.8451	2803.5859	2261.6	1377.55
1006.9642	2804.7615	2275.6	1388.95
1007.0834	2805.9364	2296.8	1415.2
1007.2025	2807.1106	2323.25	1440.45
1007.3216	2808.2842	2348.15	1462.7
1007.4406	2809.4572	2377.2	1493.4
1007.5596	2810.6294	2414.45	1529
1007.6785	2811.801	2448.65	1567.15
1007.7975	2812.972	2503.95	1619.7
1007.9163	2814.1423	2537.8	1655.15
1008.0352	2815.3119	2587.3	1703.2
1008.154	2816.4808	2634.4	1752.1
1008.2727	2817.6491	2673.3	1787.5
1008.3914	2818.8167	2719.4	1835.35
1008.5101	2819.9837	2766.95	1877.9
1008.6288	2821.15	2807	1921.8
1008.7474	2822.3157	2867.85	1984.75
1008.8659	2823.4807	2904.3	2020.25
1008.9844	2824.645	2944.3	2059.3
1009.1029	2825.8086	2970.55	2086.75
1009.2214	2826.9716	3013.4	2131.15
1009.3398	2828.134	3068.4	2186.3
1009.4581	2829.2957	3089.25	2203.95
1009.5764	2830.4567	3122.75	2240.25
1009.6947	2831.617	3137	2253.4
1009.813	2832.7767	3145.2	2262.65
1009.9312	2833.9358	3138.85	2254.3
1010.0493	2835.0941	3138	2251.1
1010.1675	2836.2519	3117.9	2233
1010.2855	2837.4089	3111.9	2226.7
1010.4036	2838.5653	3099.75	2218.55
1010.5216	2839.7211	3095.5	2213.6
1010.6396	2840.8761	3105	2218.9
1010.7575	2842.0306	3130.8	2250
1010.8754	2843.1843	3154.35	2270.95
1010.9932	2844.3374	3224.6	2341.05
1011.111	2845.4899	3283.9	2398.5
1011.2288	2846.6417	3353.1	2469.5
1011.3465	2847.7928	3426.7	2544.8
1011.4642	2848.9433	3492.1	2610.6
1011.5818	2850.0931	3576.25	2693.5
1011.6995	2851.2422	3659.95	2773.85
1011.817	2852.3907	3731.55	2846.55
1011.9345	2853.5385	3799.05	2914.95
1012.052	2854.6857	3847.85	2956.9
1012.1695	2855.8323	3895.75	3014.8
1012.2869	2856.9781	3950.5	3065.7
1012.4042	2858.1233	3996.55	3114.6
1012.5216	2859.2679	4043	3162.5
1012.6389	2860.4118	4066.55	3182.65
1012.7561	2861.555	4120.25	3230.45
1012.8733	2862.6976	4156.1	3271.3
1012.9905	2863.8395	4164	3278.9
1013.1076	2864.9808	4186.9	3305.3
1013.2247	2866.1214	4204.35	3321.65
1013.3417	2867.2614	4224.95	3340.85
1013.4587	2868.4007	4232.85	3348.9
1013.5757	2869.5393	4250.2	3364.95
1013.6926	2870.6773	4266.75	3380.55
1013.8095	2871.8146	4261.35	3373.85
1013.9263	2872.9513	4267.75	3383.1
1014.0431	2874.0874	4258.8	3375.35
1014.1599	2875.2227	4248.35	3363.75
1014.2766	2876.3574	4225.35	3342.45
1014.3933	2877.4915	4196.8	3314.9
1014.51	2878.6249	4163.5	3280
1014.6266	2879.7577	4160.55	3274.4
1014.7431	2880.8898	4113.5	3217.55
1014.8596	2882.0212	4116.1	3232.15
1014.9761	2883.152	4095.25	3211.35
1015.0925	2884.2821	4075.45	3192.95
1015.2089	2885.4116	4066.9	3185.95
1015.3253	2886.5405	4075.55	3192.4
1015.4416	2887.6686	4088.1	3205.25
1015.5579	2888.7962	4071.35	3189.8
1015.6741	2889.923	4083.2	3199.6
1015.7903	2891.0493	4082.55	3201.35
1015.9065	2892.1748	4090.8	3209.5
1016.0226	2893.2997	4114.5	3233.6
1016.1387	2894.424	4115	3234.25
1016.2547	2895.5476	4145.2	3262
1016.3707	2896.6706	4170.45	3289.75
1016.4866	2897.7929	4186.75	3303.2
1016.6025	2898.9145	4203.8	3319.8
1016.7184	2900.0355	4253.55	3370.95
1016.8342	2901.1559	4271.4	3386.9
1016.95	2902.2756	4312.4	3430.85
1017.0658	2903.3946	4335.8	3452.45
1017.1815	2904.513	4362.35	3476.95
1017.2971	2905.6308	4378	3496.1
1017.4127	2906.7479	4398.15	3517.25
1017.5283	2907.8643	4424.7	3541.65
1017.6439	2908.9801	4428.55	3546.8
1017.7594	2910.0953	4451.85	3570.2
1017.8748	2911.2098	4443.7	3558.5
1017.9902	2912.3236	4446.6	3557.55
1018.1056	2913.4368	4432.95	3547.8
1018.2209	2914.5494	4405.55	3522.15
1018.3362	2915.6613	4379.5	3490.85
1018.4515	2916.7725	4338.75	3452.5
1018.5667	2917.8831	4312.9	3429.15
1018.6819	2918.9931	4292.1	3409.4
1018.797	2920.1024	4245.4	3362.15
1018.9121	2921.211	4230.4	3346.95
1019.0271	2922.319	4214.2	3333.3
1019.1421	2923.4264	4200.7	3319.25
1019.2571	2924.5331	4174.5	3294.35
1019.372	2925.6391	4151.75	3268.9
1019.4869	2926.7445	4141.45	3260.5
1019.6017	2927.8493	4127.25	3245.55
1019.7165	2928.9534	4129.45	3247.35
1019.8313	2930.0569	4123.85	3239.85
1019.946	2931.1597	4099.65	3215.8
1020.0606	2932.2619	4092.8	3210.55
1020.1753	2933.3634	4082.9	3201.45
1020.2899	2934.4643	4077.05	3189.9
1020.4044	2935.5645	4038.15	3149.75
1020.5189	2936.6641	4005.9	3117.1
1020.6334	2937.763	3950.7	3069.7
1020.7478	2938.8613	3907.5	3024.5
1020.8622	2939.959	3847.35	2958.2
1020.9765	2941.056	3770.25	2890.4
1021.0908	2942.1523	3689.6	2807.35
1021.2051	2943.248	3610.4	2728.45
1021.3193	2944.3431	3500.5	2621.7
1021.4334	2945.4375	3396	2513.75
1021.5476	2946.5313	3291.8	2411.35
1021.6617	2947.6244	3187.9	2304.2
1021.7757	2948.7169	3077.45	2194.3
1021.8897	2949.8087	2982.5	2099.85
1022.0037	2950.8999	2896.8	2014.55
1022.1176	2951.9904	2799.25	1921.25
1022.2315	2953.0803	2738.35	1857.1
1022.3453	2954.1696	2679.65	1797.55
1022.4591	2955.2582	2611.2	1731.15
1022.5728	2956.3462	2567.15	1685.65
1022.6865	2957.4335	2520.45	1638.8
1022.8002	2958.5202	2482.3	1596.65
1022.9138	2959.6062	2450.55	1570.7
1023.0274	2960.6916	2439.95	1558.4
1023.141	2961.7764	2411.4	1528.75
1023.2545	2962.8605	2389.45	1505.35
1023.3679	2963.9439	2382.15	1501.55
1023.4813	2965.0267	2365.9	1483.6
1023.5947	2966.1089	2377.8	1474.6
1023.708	2967.1905	2353.45	1471.75
1023.8213	2968.2714	2349	1466.95
1023.9346	2969.3516	2351.4	1471
1024.0478	2970.4312	2355.45	1466.1
1024.1609	2971.5102	2340.3	1460.45
1024.274	2972.5885	2347.7	1464.65
1024.3871	2973.6662	2347.75	1461.7
1024.5002	2974.7432	2329.65	1447.75
1024.6132	2975.8196	2331.7	1449.05
1024.7261	2976.8954	2318.6	1436.9
1024.839	2977.9705	2310.55	1430.5
1024.9519	2979.045	2288.65	1407.35
1025.0647	2980.1188	2276.5	1395.45
1025.1775	2981.192	2252.7	1373
1025.2902	2982.2645	2225.3	1343.8
1025.4029	2983.3364	2195.3	1315.2
1025.5156	2984.4077	2163.7	1284.5
1025.6282	2985.4783	2142.9	1255.2
1025.7407	2986.5483	2095.2	1214.25
1025.8532	2987.6177	2067.15	1186.9
1025.9657	2988.6864	2020.35	1137
1026.0782	2989.7545	1997.2	1112.95
1026.1906	2990.8219	1960.7	1078.9
1026.3029	2991.8887	1936.1	1052.8
1026.4152	2992.9548	1912.5	1031.7
1026.5275	2994.0204	1874.8	993.5
1026.6397	2995.0852	1829.15	951.05
1026.7519	2996.1495	1804.5	922.2
1026.864	2997.2131	1789.15	908
1026.9761	2998.276	1766.6	887.8
1027.0882	2999.3383	1745.7	863.4
1027.2002	3000.4	1718	835.95
1027.3122	3001.4611	1700.35	818.25
1027.4241	3002.5215	1701.35	821.05
1027.536	3003.5812	1675.15	792.85
1027.6478	3004.6404	1661.65	781.3
1027.7596	3005.6989	1648.35	764.25
1027.8714	3006.7567	1649.7	767.55
1027.9831	3007.8139	1654.6	756.4
1028.0947	3008.8705	1630.7	751.2
1028.2064	3009.9264	1637.05	741.6
1028.3179	3010.9818	1621.6	739.95
1028.4295	3012.0364	1604.4	724.25
1028.541	3013.0905	1610.75	730.1
1028.6524	3014.1439	1608.45	727.45
1028.7638	3015.1966	1605.9	725
1028.8752	3016.2487	1601.45	719.7
1028.9865	3017.3002	1603	714.7
1029.0978	3018.3511	1597.75	719.8
1029.209	3019.4013	1595.9	713.15
1029.3202	3020.4509	1592.85	714.45
1029.4314	3021.4998	1599.1	717.15
1029.5425	3022.5481	1595.25	715.25
1029.6535	3023.5958	1595.1	715.9
1029.7645	3024.6428	1593.25	710.25
1029.8755	3025.6892	1598.4	719.65
1029.9864	3026.735	1596.75	715.8
1030.0973	3027.7802	1598.85	719.9
1030.2082	3028.8247	1600.45	718.15
1030.319	3029.8685	1599.15	720.55
1030.4297	3030.9118	1603.95	721.8
1030.5404	3031.9544	1605.5	724.65
1030.6511	3032.9963	1609.35	729.1
1030.7617	3034.0376	1628.35	748.65
1030.8723	3035.0783	1620.25	736.3
1030.9829	3036.1184	1624.4	742.6
1031.0934	3037.1578	1617.75	739.5
1031.2038	3038.1966	1629.45	749.2
1031.3142	3039.2348	1616.7	738.7
1031.4246	3040.2723	1633.25	744.55
1031.5349	3041.3092	1627.95	747.9
1031.6452	3042.3455	1611.15	728.3
1031.7554	3043.3811	1611.4	729.05
1031.8656	3044.4161	1600.1	718.05
1031.9758	3045.4505	1603	723.2
1032.0859	3046.4842	1597.4	715.05
1032.1959	3047.5173	1587.5	707.5
1032.3059	3048.5498	1578	697.75
1032.4159	3049.5816	1571.35	692.05
1032.5258	3050.6128	1569.95	687.75
1032.6357	3051.6434	1560	678.25
1032.7455	3052.6734	1554.9	672.15
1032.8553	3053.7027	1539.6	658.85
1032.9651	3054.7314	1533.45	652.8
1033.0748	3055.7594	1531.75	653.85
1033.1845	3056.7868	1523.6	641.45
1033.2941	3057.8136	1512.35	631.6
1033.4037	3058.8398	1512.65	634.8
1033.5132	3059.8653	1505.6	624.9
1033.6227	3060.8902	1506.45	626.2
1033.7321	3061.9145	1489.9	610.15
1033.8415	3062.9381	1482.05	602.3
1033.9509	3063.9612	1494.3	597.55
1034.0602	3064.9835	1474.1	594.6
1034.1694	3066.0053	1466.8	584.8
1034.2787	3067.0264	1451	569.35
1034.3878	3068.0469	1447.45	564.8
1034.497	3069.0668	1442.65	558.7
1034.6061	3070.086	1435.3	557.55
1034.7151	3071.1046	1424.6	539.95
1034.8241	3072.1226	1408.9	529.5
1034.9331	3073.1399	1405.8	525.8
1035.042	3074.1567	1385	504.55
1035.1508	3075.1727	1382.55	500.25
1035.2597	3076.1882	1378.85	497.7
1035.3684	3077.203	1362.35	481.2
1035.4772	3078.2173	1349.45	467.95
1035.5859	3079.2308	1342.6	459.1
1035.6945	3080.2438	1338.85	455.95
1035.8031	3081.2561	1325.55	446.35
1035.9117	3082.2678	1320.55	440.25
1036.0202	3083.2789	1310.5	430.75
1036.1286	3084.2893	1304.5	424.8
1036.2371	3085.2991	1295.95	414.4
1036.3454	3086.3083	1286.6	401.95
1036.4538	3087.3169	1283.5	403.4
1036.562	3088.3248	1276.75	394.5
1036.6703	3089.3321	1273.4	391.15
1036.7785	3090.3388	1264.45	386.7
1036.8866	3091.3449	1268	388.5
1036.9948	3092.3503	1257.75	374.65
1037.1028	3093.3551	1255.25	378.65
1037.2108	3094.3593	1246.95	365.6
1037.3188	3095.3629	1248.25	369.8
1037.4267	3096.3658	1248.15	366.15
1037.5346	3097.3681	1241.85	361.65
1037.6425	3098.3698	1241.4	360.2
1037.7503	3099.3708	1235.8	347.35
1037.858	3100.3713	1232.25	352.55
1037.9657	3101.3711	1225.35	343.9
1038.0734	3102.3702	1352.2	341
1038.181	3103.3688	1221.95	341.6
1038.2886	3104.3667	1216.15	337.9
1038.3961	3105.364	1218.7	339.9
1038.5036	3106.3607	1215.7	333.65
1038.611	3107.3568	1204.25	322.8
1038.7184	3108.3522	1204.2	325.25
1038.8257	3109.347	1203.25	322.7
1038.933	3110.3412	1201.85	317.75
1039.0403	3111.3348	1201.15	321.65
1039.1475	3112.3277	1189.55	311.1
1039.2547	3113.32	1191.05	311.5
1039.3618	3114.3117	1197	317.15
1039.4689	3115.3028	1192.65	315.5
1039.5759	3116.2932	1188.35	310.05
1039.6829	3117.2831	1194.4	308.55
1039.7898	3118.2723	1183.5	304.5
1039.8967	3119.2608	1181.35	300.8
1040.0035	3120.2488	1179.75	298.7
1040.1103	3121.2361	1174.35	295.3
1040.2171	3122.2229	1175.8	296
1040.3238	3123.209	1181.2	299.7
1040.4305	3124.1944	1177.4	297.4
1040.5371	3125.1793	1171.5	289.55
1040.6437	3126.1635	1168.95	289.75
1040.7502	3127.1471	1162.25	284.45
1040.8567	3128.1301	1164.35	285.1
1040.9631	3129.1125	1161.9	282.1
1041.0695	3130.0942	1158.5	278.65
1041.1759	3131.0753	1167.5	278.55
1041.2822	3132.0558	1158.95	277.5
1041.3884	3133.0357	1156.65	276.6
1041.4946	3134.015	1155.85	273.2
1041.6008	3134.9936	1154.05	274.1
1041.7069	3135.9716	1170.6	267.3
1041.813	3136.949	1149.55	271.65
1041.919	3137.9258	1162.8	261.8
1042.025	3138.902	1148.9	263.65
1042.1309	3139.8775	1145.05	266.7
1042.2368	3140.8524	1142.95	264.05
1042.3427	3141.8267	1142.05	261.75
1042.4485	3142.8004	1136.85	256.6
1042.5542	3143.7735	1145.45	257.9
1042.6599	3144.7459	1142.9	263.35
1042.7656	3145.7178	1133.85	252.65
1042.8712	3146.689	1129.4	251.7
1042.9768	3147.6596	1132.55	247.6
1043.0823	3148.6295	1131.55	249.9
1043.1878	3149.5989	1127.1	248.5
1043.2932	3150.5676	1123.9	245.85
1043.3986	3151.5357	1122.45	244.35
1043.5039	3152.5032	1122.45	242.05
1043.6092	3153.4701	1122	243.05
1043.7145	3154.4364	1119.75	238.95
1043.8197	3155.402	1119.35	243.3
1043.9248	3156.367	1116.9	236
1044.03	3157.3315	1147.1	243.4
1044.135	3158.2952	1115.1	234.75
1044.24	3159.2584	1110.85	230.9
1044.345	3160.221	1110.25	230.85
1044.4499	3161.1829	1110	228.9
1044.5548	3162.1442	1103.4	224.15
1044.6596	3163.105	1107.95	227
1044.7644	3164.065	1106.9	227.9
1044.8692	3165.0245	1106.6	222.1
1044.9739	3165.9834	1102	224.15
1045.0785	3166.9416	1097.65	218.45
1045.1831	3167.8993	1103.35	223.2
1045.2877	3168.8563	1094.7	213.85
1045.3922	3169.8127	1096.3	217.95
1045.4966	3170.7684	1096.85	216
1045.6011	3171.7236	1098.85	217.4
1045.7054	3172.6782	1097.55	216.65
1045.8098	3173.6321	1086.15	206.25
1045.914	3174.5854	1096.8	214.5
1046.0183	3175.5381	1086.6	208.4
1046.1224	3176.4902	1085.95	205.15
1046.2266	3177.4417	1086.5	207.9
1046.3307	3178.3926	1083.3	204.55
1046.4347	3179.3428	1081.5	204.55
1046.5387	3180.2924	1079.95	201.1
1046.6427	3181.2415	1083.4	204.55
1046.7466	3182.1899	1081.9	198.95
1046.8504	3183.1377	1081.55	202.55
1046.9542	3184.0848	1082.5	200.7
1047.058	3185.0314	1073.25	194.25
1047.1617	3185.9773	1076.25	195.55
1047.2654	3186.9227	1075.6	193.55
1047.369	3187.8674	1068.3	189.85
1047.4726	3188.8115	1073.4	191.25
1047.5761	3189.755	1068.7	189.5
1047.6796	3190.6979	1070.9	191.55
1047.783	3191.6402	1071.95	193.05
1047.8864	3192.5818	1066.95	188.6
1047.9898	3193.5229	1081.75	190.5
1048.0931	3194.4633	1064.85	183.35
1048.1963	3195.4031	1064.95	184.3
1048.2995	3196.3423	1062.3	184.65
1048.4027	3197.2809	1066.45	185.95
1048.5058	3198.2189	1066.75	186.3
1048.6089	3199.1563	1070.25	182.9
1048.7119	3200.0931	1057.8	179.95
1048.8148	3201.0292	1059.2	179.6
1048.9178	3201.9648	1060.05	178.15
1049.0206	3202.8997	1058.4	179.15
1049.1235	3203.834	1060.3	183.55
1049.2262	3204.7677	1053.55	176.15
1049.329	3205.7008	1054.75	172.95
1049.4317	3206.6333	1051.95	174.4
1049.5343	3207.5652	1055.8	174.95
1049.6369	3208.4964	1049.2	169.15
1049.7394	3209.4271	1051.4	173.45
1049.8419	3210.3571	1053.5	175.9
1049.9444	3211.2865	1053.45	173.45
1050.0468	3212.2154	1047.1	167.35
1050.1491	3213.1436	1052.3	172.4
1050.2514	3214.0712	1054.9	169.15
1050.3537	3214.9982	1046.05	167.45
1050.4559	3215.9246	1049.2	169.35
1050.5581	3216.8503	1042.4	163.2
1050.6602	3217.7755	1042.7	164.35
1050.7623	3218.7001	1044.3	166.85
1050.8643	3219.624	1042.7	164.1
1050.9663	3220.5473	1042.5	164.15
1051.0682	3221.4701	1040.85	160.35
1051.1701	3222.3922	1043.2	164.1
1051.2719	3223.3137	1036.45	158.65
1051.3737	3224.2346	1035.3	156.4
1051.4754	3225.1549	1039.95	161.8
1051.5771	3226.0746	1035.5	158
1051.6788	3226.9937	1038.65	158.35
1051.7804	3227.9121	1034	155.55
1051.8819	3228.83	1032.85	153.85
1051.9834	3229.7473	1036.7	157.45
1052.0849	3230.6639	1034.1	154.1
1052.1863	3231.5799	1029.15	151.75
1052.2876	3232.4954	1029.65	151.4
1052.3889	3233.4102	1030.4	153.25
1052.4902	3234.3244	1031.35	152.5
1052.5914	3235.238	1028.3	149.1
1052.6926	3236.151	1054.5	150.3
1052.7937	3237.0634	1027.05	149.3
1052.8948	3237.9752	1021.9	142.55
1052.9958	3238.8864	1024.65	146.45
1053.0968	3239.797	1021.8	142.7
1053.1977	3240.7069	1022.5	145.7
1053.2986	3241.6163	1022.85	142.55
1053.3994	3242.5251	1019.25	142.05
1053.5002	3243.4332	1021.4	146.2
1053.6009	3244.3408	1021.35	141.85
1053.7016	3245.2477	1018.15	141.7
1053.8022	3246.154	1017.6	138.45
1053.9028	3247.0598	1015.35	134.7
1054.0034	3247.9649	1014.05	136.7
1054.1039	3248.8694	1013.8	134.1
1054.2043	3249.7733	1016.45	137.3
1054.3047	3250.6766	1014	134.2
1054.4051	3251.5793	1008.5	128.35
1054.5054	3252.4814	1009.45	133.6
1054.6056	3253.3829	1010.45	130.7
1054.7058	3254.2838	1004.1	127
1054.806	3255.1841	1006.25	128.7
1054.9061	3256.0838	1005.65	127.85
1055.0061	3256.9829	1004.4	128.95
1055.1062	3257.8814	1004.75	123.7
1055.2061	3258.7792	1004.95	124.7
1055.306	3259.6765	1001.35	122.6
1055.4059	3260.5731	997.3	119.1
1055.5057	3261.4692	999.65	120.45
1055.6055	3262.3647	995.9	117.9
1055.7052	3263.2595	997.1	119.35
1055.8049	3264.1538	994.15	116.75
1055.9045	3265.0474	993.95	113.75
1056.0041	3265.9404	991	113.9
1056.1036	3266.8329	991	114.6
1056.2031	3267.7247	995.95	107.05
1056.3025	3268.616	983.8	105.55
1056.4019	3269.5066	981.65	102.8
1056.5013	3270.3966	982.25	103.45
1056.6005	3271.286	971.5	94.6
