Software Version:	3.9.2.0
Unit SN:	10000200
Spectrometer SN:	6960
Date:	3/26/2024 1:13:17 PM
Data Line Index:	25
Spectral Points:	2048
Integration time (ms):	125
Averages:	20
Delay (ms):	30000
Sequence Number:	1
Processing:	dark subtract
Laser Power (mW):	305
Laser Current (mA):	818
Laser Diode Temp (C):	25
Laser Case Temp (C):	26.3
System Temp (C):	26.2
Spectrometer Temp (C):	24
CCD Temp (C):	0.007
Secondary Temp (C):	20.006
Heatsink Temp (C):	21.925
CCDPCB Temp (C):	36.318
SecondaryPCB Temp (C):	32.45

Wavelength	RamanShift	Raw Counts	Dark Subtracted
787.061	30.1047	425.95	14.8
787.2016	32.3739	423.75	14
787.3422	34.6426	424.8	13.4
787.4828	36.9109	427.4	14
787.6235	39.1787	432	14.45
787.7642	41.4461	439.85	17.9
787.9049	43.7131	442.65	16.75
788.0456	45.9796	449	19.85
788.1863	48.2456	454	22.4
788.3271	50.5112	461.4	23.8
788.4679	52.7764	463.3	25.55
788.6087	55.0411	469.65	29.05
788.7496	57.3054	476.05	29.35
788.8904	59.5692	476.7	28.05
789.0313	61.8326	485.1	33.8
789.1722	64.0955	492.1	34.6
789.3132	66.3579	501.75	39.25
789.4541	68.6199	510.65	49.8
789.5951	70.8815	519.7	54.75
789.7361	73.1426	545.9	77.1
789.8771	75.4032	598.45	125.65
790.0181	77.6634	716.95	237.4
790.1592	79.9231	1003.9	521.75
790.3003	82.1824	1607.1	1120.3
790.4414	84.4412	2638.8	2147.1
790.5825	86.6995	4063.75	3565.5
790.7237	88.9574	5445.95	4940.1
790.8648	91.2148	6502.75	5996.6
791.006	93.4717	7066.75	6555.95
791.1472	95.7282	7309	6793.2
791.2885	97.9842	7379.1	6861.7
791.4297	100.2398	7401.45	6882.55
791.571	102.4949	7365.55	6841.7
791.7123	104.7495	7336.95	6811.1
791.8536	107.0036	7305.05	6777.4
791.9949	109.2573	7274.45	6747.9
792.1363	111.5105	7245.05	6717.15
792.2777	113.7632	7168.4	6637.5
792.4191	116.0154	7116.45	6575.8
792.5605	118.2672	7055.4	6522.35
792.7019	120.5185	7026.35	6492.85
792.8434	122.7693	6965.25	6428.45
792.9849	125.0197	6928.3	6386.8
793.1264	127.2696	6872.9	6326.1
793.2679	129.519	6842.3	6295.3
793.4094	131.7679	6824	6274.9
793.551	134.0163	6831	6278.6
793.6926	136.2642	6803.25	6245.5
793.8342	138.5117	6796.2	6228.25
793.9758	140.7587	6758.85	6198.45
794.1175	143.0052	6752.1	6186.65
794.2591	145.2512	6706.3	6142.45
794.4008	147.4967	6647.3	6083
794.5425	149.7417	6633.2	6064.95
794.6842	151.9863	6590.25	6015.7
794.826	154.2304	6585.9	6010.95
794.9677	156.4739	6557.3	5977.95
795.1095	158.717	6569.55	5990.25
795.2513	160.9596	6575.7	5989.4
795.3931	163.2017	6584	5997.85
795.535	165.4433	6580.45	5991.25
795.6768	167.6844	6578.65	5986.9
795.8187	169.925	6537.7	5943.35
795.9606	172.1651	6496.1	5897.65
796.1025	174.4047	6464.05	5862.2
796.2445	176.6439	6419.7	5814.55
796.3864	178.8825	6393.45	5787.15
796.5284	181.1206	6388.9	5778.35
796.6704	183.3582	6381.2	5765.8
796.8124	185.5954	6370.4	5755.35
796.9544	187.832	6359.9	5739.1
797.0965	190.0681	6371.4	5750.65
797.2386	192.3037	6367.3	5744.1
797.3806	194.5388	6367.5	5740.45
797.5228	196.7734	6370.5	5739.4
797.6649	199.0075	6358.35	5725.35
797.807	201.2411	6370	5731.4
797.9492	203.4742	6400.7	5764.4
798.0914	205.7068	6431.2	5795.45
798.2336	207.9389	6428.55	5789.35
798.3758	210.1704	6437.15	5792.45
798.518	212.4015	6433.85	5787.2
798.6603	214.632	6433.15	5786.85
798.8025	216.862	6429.1	5793.4
798.9448	219.0915	6431.25	5805.15
799.0871	221.3205	6428.3	5801.25
799.2294	223.549	6418.2	5792.55
799.3718	225.777	6430.5	5805.6
799.5141	228.0044	6420.95	5792.5
799.6565	230.2314	6435.35	5810.85
799.7989	232.4578	6387.05	5760.4
799.9413	234.6837	6395.05	5759.45
800.0837	236.909	6379.75	5744.65
800.2262	239.1339	6393.2	5734.15
800.3687	241.3582	6359.55	5712.75
800.5111	243.582	6372.05	5695.1
800.6536	245.8053	6366.05	5700.2
800.7961	248.0281	6353.3	5694.4
800.9387	250.2503	6353.55	5689.35
801.0812	252.472	6349.7	5680.1
801.2238	254.6932	6355.5	5680.65
801.3664	256.9139	6360.3	5683.95
801.509	259.134	6333.85	5654.65
801.6516	261.3536	6361.05	5687.1
801.7942	263.5727	6387.9	5710.75
801.9369	265.7912	6379.85	5703.45
802.0795	268.0092	6416.7	5740.4
802.2222	270.2267	6431.7	5751.45
802.3649	272.4436	6470.35	5788.1
802.5076	274.6601	6483	5792.6
802.6504	276.8759	6494.25	5811.6
802.7931	279.0913	6522	5833.9
802.9359	281.3061	6518.45	5828.8
803.0787	283.5204	6528.7	5838.1
803.2215	285.7341	6553.95	5860.75
803.3643	287.9473	6559.85	5851.85
803.5071	290.16	6549.55	5847.7
803.6499	292.3721	6505.4	5810.3
803.7928	294.5837	6479.25	5781.95
803.9357	296.7947	6451.35	5753.9
804.0786	299.0052	6442.6	5745.95
804.2215	301.2152	6414.55	5713.4
804.3644	303.4246	6407.6	5710.75
804.5074	305.6334	6377.7	5680.75
804.6503	307.8418	6348.4	5646.9
804.7933	310.0495	6347.1	5645.65
804.9363	312.2568	6309.5	5607.8
805.0793	314.4635	6243.45	5538
805.2223	316.6696	6223.45	5518.15
805.3653	318.8752	6185.25	5471.2
805.5084	321.0802	6135.15	5428.4
805.6514	323.2847	6121.25	5413.2
805.7945	325.4887	6124.6	5418.65
805.9376	327.692	6115.6	5405.25
806.0807	329.8949	6143.4	5431.95
806.2238	332.0972	6151.8	5439.1
806.367	334.2989	6182.55	5466.25
806.5101	336.5001	6172	5455.7
806.6533	338.7007	6140.85	5422.35
806.7965	340.9008	6114.7	5395.85
806.9397	343.1003	6070.4	5349.3
807.0829	345.2992	6044.75	5321.25
807.2261	347.4976	6009.75	5285.75
807.3693	349.6955	5967.05	5237.8
807.5126	351.8927	5980.35	5250.7
807.6559	354.0895	5941.55	5201.4
807.7991	356.2856	5930.2	5200.85
807.9424	358.4812	5910.4	5179
808.0857	360.6763	5927.05	5196.7
808.2291	362.8707	5894.9	5159.6
808.3724	365.0646	5904.95	5167.9
808.5158	367.258	5886.4	5149.05
808.6591	369.4508	5872.6	5131.15
808.8025	371.643	5917.35	5176.05
808.9459	373.8346	5909.95	5165.45
809.0893	376.0257	5946.55	5197.65
809.2327	378.2162	5958.85	5212.4
809.3762	380.4062	5970.45	5222.6
809.5196	382.5956	5944.7	5193.15
809.6631	384.7844	5922.25	5171.45
809.8066	386.9726	5843.95	5089.35
809.9501	389.1603	5811.5	5060.25
810.0936	391.3474	5808.7	5022.7
810.2371	393.5339	5785.05	5033.05
810.3806	395.7199	5770.9	5024.65
810.5241	397.9052	5787.75	5043.2
810.6677	400.09	5766.65	5022.1
810.8113	402.2743	5806.2	5062.65
810.9548	404.4579	5827.35	5082.65
811.0984	406.641	5866	5121.7
811.2421	408.8235	5891.75	5146.75
811.3857	411.0054	5934.1	5186.6
811.5293	413.1868	6036.55	5286.9
811.673	415.3675	6140.4	5387.45
811.8166	417.5477	6161.85	5407.3
811.9603	419.7273	6089.65	5332.45
812.104	421.9064	5961.65	5196.75
812.2477	424.0848	5856.15	5094.5
812.3914	426.2627	5787.05	5023.9
812.5351	428.4399	5756.95	4994.45
812.6788	430.6166	5740.6	4973.3
812.8226	432.7928	5682.15	4912.6
812.9663	434.9683	5600.7	4832.5
813.1101	437.1432	5593.3	4820.8
813.2539	439.3176	5576.7	4804.7
813.3977	441.4914	5546.3	4775.35
813.5415	443.6645	5523.5	4748.2
813.6853	445.8371	5527.7	4752.1
813.8291	448.0091	5507.85	4734.55
813.973	450.1806	5494.15	4719.95
814.1168	452.3514	5475.95	4699.55
814.2607	454.5216	5467.55	4685.3
814.4046	456.6913	5439.5	4660.9
814.5485	458.8603	5435.7	4657.65
814.6924	461.0288	5440.5	4662.7
814.8363	463.1967	5429.35	4651.4
814.9802	465.3639	5451	4672.35
815.1241	467.5306	5435.55	4653.8
815.2681	469.6967	5402.8	4621.05
815.412	471.8622	5392.6	4611.45
815.556	474.0271	5389.6	4609.9
815.7	476.1914	5388.75	4604.25
815.844	478.3551	5365.25	4582.15
815.988	480.5182	5383.8	4600.5
816.132	482.6807	5378.2	4593.45
816.276	484.8426	5391.55	4607.15
816.4201	487.0039	5429.4	4644.4
816.5641	489.1647	5447.25	4661.3
816.7082	491.3248	5493.45	4706.25
816.8522	493.4843	5495.1	4709.95
816.9963	495.6432	5495.3	4709
817.1404	497.8015	5458.8	4667.35
817.2845	499.9592	5435.4	4645.8
817.4286	502.1163	5392.65	4603.25
817.5727	504.2728	5363.05	4572.4
817.7168	506.4287	5348.95	4559
817.861	508.5839	5319.1	4527.85
818.0051	510.7386	5333.95	4545.75
818.1493	512.8927	5324.6	4525.25
818.2935	515.0461	5316.3	4523.5
818.4377	517.199	5323.4	4530.85
818.5818	519.3512	5347.2	4555.7
818.726	521.5029	5399	4599.95
818.8703	523.6539	5426.75	4631.5
819.0145	525.8043	5429.6	4633.35
819.1587	527.9541	5405.45	4606.85
819.303	530.1033	5359.05	4561.45
819.4472	532.2519	5323.05	4525.75
819.5915	534.3999	5296.2	4498.35
819.7357	536.5472	5294.8	4494.5
819.88	538.694	5287.3	4488.5
820.0243	540.8401	5323.75	4522.75
820.1686	542.9856	5328.45	4523.65
820.3129	545.1305	5321.95	4518.1
820.4572	547.2748	5340.75	4537.65
820.6016	549.4185	5320.25	4512.75
820.7459	551.5615	5335.55	4530.6
820.8902	553.704	5342.8	4535.75
821.0346	555.8458	5337.55	4529.4
821.1789	557.987	5345.2	4539.1
821.3233	560.1276	5355.75	4549.1
821.4677	562.2675	5409.2	4604.35
821.6121	564.4069	5451.3	4644.35
821.7565	566.5456	5464.8	4658.5
821.9009	568.6837	5466.25	4659.3
822.0453	570.8212	5424.55	4619.65
822.1897	572.958	5374.8	4566.75
822.3342	575.0942	5340.2	4534.6
822.4786	577.2299	5290.8	4482.65
822.6231	579.3648	5262.15	4455.25
822.7675	581.4992	5220.75	4413.45
822.912	583.6329	5201.4	4395.6
823.0565	585.766	5210.85	4401.8
823.201	587.8985	5232.9	4424.25
823.3454	590.0304	5275.4	4451.8
823.4899	592.1616	5280.65	4466.8
823.6345	594.2922	5295.05	4483.45
823.779	596.4222	5256.3	4442.6
823.9235	598.5515	5195.05	4382.25
824.068	600.6802	5175.5	4361.9
824.2126	602.8083	5125.8	4309.05
824.3571	604.9358	5114.1	4297.4
824.5017	607.0626	5092	4274.55
824.6462	609.1888	5101.25	4282.8
824.7908	611.3144	5096.95	4277.5
824.9354	613.4393	5125.75	4308.75
825.08	615.5636	5168.85	4349.5
825.2246	617.6873	5178.1	4357.9
825.3692	619.8103	5210.3	4389.8
825.5138	621.9327	5214.3	4392.15
825.6584	624.0544	5211.35	4392.5
825.803	626.1756	5146.5	4328.2
825.9477	628.2961	5117.4	4295.9
826.0923	630.4159	5084.05	4262.8
826.237	632.5351	5088.2	4266.15
826.3816	634.6537	5080.15	4257.3
826.5263	636.7716	5072	4249.25
826.6709	638.8889	5067.35	4246.3
826.8156	641.0056	5075.7	4253.8
826.9603	643.1216	5085.5	4262.6
827.105	645.237	5089.85	4262.05
827.2497	647.3518	5061.05	4236.85
827.3944	649.4659	5052	4226.75
827.5391	651.5793	5049.85	4222.65
827.6838	653.6922	5019.7	4196.3
827.8285	655.8043	4991.7	4166
827.9733	657.9159	4981.25	4155.05
828.118	660.0268	4975.05	4147.6
828.2627	662.137	4979.95	4149.85
828.4075	664.2466	4974.75	4144.35
828.5522	666.3556	4959.5	4130.75
828.697	668.4639	4962.8	4130.65
828.8418	670.5716	4949.8	4121.15
828.9865	672.6786	4948.75	4119
829.1313	674.785	4914.2	4083.45
829.2761	676.8907	4928.7	4098.2
829.4209	678.9958	4928	4098.8
829.5657	681.1002	4917.6	4085.9
829.7105	683.204	4917	4081.8
829.8553	685.3072	4916.45	4081.25
830.0001	687.4097	4904.75	4071.25
830.1449	689.5115	4907.5	4073.65
830.2898	691.6127	4890.85	4058.85
830.4346	693.7132	4887.15	4052.55
830.5794	695.8131	4908.4	4059
830.7243	697.9123	4909.7	4072.9
830.8691	700.0109	4899.85	4064.85
831.014	702.1089	4894.25	4060.9
831.1588	704.2061	4885.3	4050.25
831.3037	706.3028	4919.05	4081.45
831.4486	708.3987	4921.25	4082.45
831.5935	710.4941	4914.75	4077.1
831.7383	712.5887	4936.1	4099.9
831.8832	714.6827	4938.9	4095.55
832.0281	716.7761	4924.1	4088.9
832.173	718.8688	4905.3	4066.8
832.3179	720.9608	4916.9	4076.5
832.4628	723.0522	4926.25	4085.55
832.6077	725.1429	4922.5	4084.85
832.7527	727.233	4943.5	4103.65
832.8976	729.3224	4997.6	4157.8
833.0425	731.4112	5042.2	4199.75
833.1874	733.4993	5044.3	4201.25
833.3324	735.5867	5007.8	4165.05
833.4773	737.6735	4959.5	4116.75
833.6222	739.7596	4927.75	4085.7
833.7672	741.845	4903.15	4060
833.9122	743.9298	4891.65	4049
834.0571	746.014	4895.5	4054.3
834.2021	748.0974	4921.9	4078.25
834.347	750.1802	4906.2	4060.85
834.492	752.2624	4894.2	4050.55
834.637	754.3439	4857.5	4011.75
834.782	756.4247	4833.95	3980.15
834.9269	758.5048	4809.1	3965.05
835.0719	760.5843	4813.95	3970.25
835.2169	762.6631	4809.25	3964.5
835.3619	764.7413	4844.5	4000.15
835.5069	766.8188	4903.6	4057
835.6519	768.8956	4932.7	4084.35
835.7969	770.9718	4976.8	4132.45
835.9419	773.0473	4948.25	4102.7
836.0869	775.1221	4924.5	4078.2
836.232	777.1962	4912.9	4067.65
836.377	779.2697	4945.5	4095.5
836.522	781.3426	5006.25	4141.15
836.667	783.4147	5033.9	4187.2
836.8121	785.4862	5045.85	4200.8
836.9571	787.557	4968.35	4121.45
837.1021	789.6271	4890.75	4043.55
837.2472	791.6966	4798.55	3949.4
837.3922	793.7654	4725.9	3873.5
837.5373	795.8335	4677.05	3826.4
837.6823	797.901	4632.6	3785.45
837.8274	799.9678	4622.25	3770.05
837.9724	802.0339	4630.05	3780.35
838.1175	804.0993	4625.25	3765.5
838.2626	806.1641	4599.6	3747.95
838.4076	808.2282	4587.75	3738.4
838.5527	810.2916	4575.9	3722.85
838.6978	812.3544	4560.4	3711.4
838.8428	814.4164	4534.75	3684.55
838.9879	816.4778	4544.75	3690.7
839.133	818.5385	4553.75	3701.6
839.2781	820.5986	4556.95	3703.65
839.4232	822.658	4600.5	3746.55
839.5682	824.7166	4627.55	3777.4
839.7133	826.7747	4686.2	3834.05
839.8584	828.832	4725.45	3873.6
840.0035	830.8886	4760.65	3906.85
840.1486	832.9446	4787.25	3933.7
840.2937	834.9999	4763.55	3911.45
840.4388	837.0545	4718.9	3861.05
840.5839	839.1085	4652.75	3797.25
840.729	841.1618	4598.15	3739.8
840.8741	843.2143	4553.1	3701.6
841.0192	845.2662	4503.3	3646.6
841.1643	847.3175	4491.1	3638.9
841.3095	849.368	4468.55	3615.7
841.4546	851.4179	4464.35	3610.9
841.5997	853.467	4442.7	3588.15
841.7448	855.5155	4431.3	3575.85
841.8899	857.5633	4437.7	3581.7
842.0351	859.6105	4431.5	3576.3
842.1802	861.6569	4409.8	3553.2
842.3253	863.7027	4404.45	3549.7
842.4704	865.7478	4396	3537.6
842.6156	867.7922	4388.3	3530.65
842.7607	869.8359	4371.1	3514.2
842.9058	871.8789	4371	3512.85
843.0509	873.9212	4376.85	3485.2
843.1961	875.9629	4355.2	3498.45
843.3412	878.0039	4370.5	3511.3
843.4863	880.0441	4345.7	3488.3
843.6315	882.0837	4358.6	3498.45
843.7766	884.1226	4357.3	3498
843.9218	886.1609	4385.8	3527.7
844.0669	888.1984	4409.6	3551.75
844.212	890.2352	4455.7	3598.35
844.3572	892.2714	4467.7	3606.45
844.5023	894.3069	4442	3582.75
844.6475	896.3416	4404.35	3544.6
844.7926	898.3757	4354.95	3497.05
844.9377	900.4091	4337.2	3478.35
845.0829	902.4418	4322.3	3457.75
845.228	904.4739	4321.25	3458.95
845.3732	906.5052	4335.8	3475.25
845.5183	908.5358	4328.9	3468.9
845.6635	910.5658	4308.35	3448
845.8086	912.595	4270.1	3410.4
845.9538	914.6236	4230.5	3371.3
846.0989	916.6515	4220.95	3360.95
846.2441	918.6786	4183.8	3320.35
846.3892	920.7051	4180.05	3318.25
846.5344	922.7309	4179.25	3318.1
846.6795	924.756	4175.6	3313.8
846.8246	926.7804	4182	3319.25
846.9698	928.8041	4149.1	3284.55
847.1149	930.8272	4174.05	3313.05
847.2601	932.8495	4145	3281.75
847.4052	934.8711	4144.8	3281.75
847.5504	936.892	4147.95	3284.95
847.6955	938.9123	4164.45	3300.8
847.8407	940.9318	4166.1	3302
847.9858	942.9506	4162.6	3299.7
848.131	944.9688	4136.55	3272.75
848.2761	946.9862	4121.95	3257.9
848.4213	949.003	4079.4	3215.3
848.5664	951.019	4058.8	3195.05
848.7115	953.0344	4032.5	3168.45
848.8567	955.0491	4022.35	3156.25
849.0018	957.063	4006.25	3141.15
849.147	959.0763	4018.1	3148.25
849.2921	961.0888	3986.45	3119.1
849.4373	963.1007	3990.1	3126
849.5824	965.1119	3996.35	3132.75
849.7275	967.1223	3970.8	3106.8
849.8727	969.1321	3963.8	3099.15
850.0178	971.1412	3938.3	3076
850.1629	973.1495	3919.6	3054.5
850.3081	975.1572	3938.8	3054.2
850.4532	977.1641	3931.05	3067.65
850.5983	979.1704	3917.15	3050.75
850.7435	981.1759	3909.65	3041.4
850.8886	983.1808	3902.95	3036.95
851.0337	985.1849	3872.7	2993.9
851.1788	987.1884	3868.1	2998.85
851.324	989.1911	3868.8	2998.35
851.4691	991.1932	3866.05	2998.05
851.6142	993.1945	3848.85	2982.8
851.7593	995.1951	3817.85	2951
851.9045	997.1951	3839.7	2967.55
852.0496	999.1943	3806.1	2939.65
852.1947	1001.1928	3795	2926.85
852.3398	1003.1906	3785.35	2916.9
852.4849	1005.1877	3807.1	2937.95
852.63	1007.1841	3813.6	2945.35
852.7751	1009.1798	3803.55	2935.3
852.9202	1011.1748	3775.7	2908.7
853.0653	1013.1691	3767.55	2898.65
853.2104	1015.1627	3755.05	2889.05
853.3555	1017.1556	3698.3	2830.1
853.5006	1019.1477	3679.65	2809.6
853.6457	1021.1392	3657	2790.05
853.7908	1023.1299	3634.95	2765
853.9359	1025.12	3625.85	2754.9
854.081	1027.1093	3611	2747.15
854.2261	1029.0979	3624.7	2759.15
854.3712	1031.0859	3618.45	2752.25
854.5163	1033.0731	3623.5	2754.65
854.6613	1035.0596	3594.6	2726.4
854.8064	1037.0454	3602.1	2731.75
854.9515	1039.0304	3581.35	2713.15
855.0965	1041.0148	3539.2	2671.05
855.2416	1042.9985	3531.55	2661.8
855.3867	1044.9814	3517.95	2650.35
855.5317	1046.9636	3497.05	2627.2
855.6768	1048.9452	3476.05	2607.45
855.8219	1050.926	3476.15	2608.2
855.9669	1052.9061	3499.2	2628.6
856.112	1054.8855	3502.2	2632.15
856.257	1056.8642	3476.35	2605.25
856.4021	1058.8421	3478.65	2603.9
856.5471	1060.8194	3468.95	2597.45
856.6921	1062.7959	3457.5	2585.5
856.8372	1064.7717	3450.7	2578
856.9822	1066.7469	3439.4	2567.55
857.1272	1068.7213	3443.85	2570.5
857.2723	1070.695	3433.8	2563.25
857.4173	1072.6679	3435	2562.95
857.5623	1074.6402	3448.85	2579.15
857.7073	1076.6117	3468.2	2590.05
857.8523	1078.5826	3452.7	2582.6
857.9973	1080.5527	3400.65	2524.65
858.1423	1082.5221	3380.45	2505.25
858.2873	1084.4908	3345.2	2474
858.4323	1086.4587	3327.25	2455.45
858.5773	1088.426	3318.35	2446.95
858.7223	1090.3925	3314.3	2436.4
858.8673	1092.3584	3298.55	2429.15
859.0123	1094.3235	3288.4	2420.1
859.1573	1096.2879	3297.4	2423.3
859.3022	1098.2515	3312.5	2440
859.4472	1100.2145	3321.2	2446.65
859.5922	1102.1767	3335.5	2458.65
859.7371	1104.1382	3353.7	2481.55
859.8821	1106.099	3380.9	2505.1
860.027	1108.0591	3414.85	2542.55
860.172	1110.0185	3423.75	2548.1
860.3169	1111.9771	3459	2586.15
860.4619	1113.9351	3484.05	2611.45
860.6068	1115.8923	3526.5	2653.2
860.7517	1117.8488	3540.45	2664.45
860.8967	1119.8045	3501.35	2628.45
861.0416	1121.7596	3445.6	2569.4
861.1865	1123.7139	3347.95	2474.85
861.3314	1125.6675	3294	2422.2
861.4763	1127.6204	3285.4	2411.65
861.6212	1129.5726	3290.05	2414.55
861.7661	1131.524	3295	2419.9
861.911	1133.4748	3254.6	2379.8
862.0559	1135.4248	3216.1	2340.6
862.2008	1137.3741	3182.85	2310
862.3457	1139.3226	3146	2269.7
862.4905	1141.2705	3136.05	2262.75
862.6354	1143.2176	3123.25	2242.7
862.7803	1145.164	3137.95	2262.05
862.9251	1147.1097	3130.15	2254.5
863.07	1149.0546	3114.65	2237.3
863.2148	1150.9989	3085.15	2208.15
863.3597	1152.9424	3053.8	2178.5
863.5045	1154.8852	3049.9	2174.35
863.6493	1156.8272	3035.15	2163.45
863.7942	1158.7686	3038.15	2156.75
863.939	1160.7092	3024.55	2150.05
864.0838	1162.6491	3007.55	2127.6
864.2286	1164.5883	3013.8	2137.35
864.3734	1166.5267	3016.85	2138.6
864.5182	1168.4644	3038.15	2162.6
864.663	1170.4014	3063.2	2182.15
864.8078	1172.3377	3062.2	2187.75
864.9526	1174.2732	3097.4	2221.55
865.0974	1176.2081	3143.95	2268.35
865.2421	1178.1421	3239.8	2359.35
865.3869	1180.0755	3323.9	2450.5
865.5317	1182.0082	3379.15	2502.85
865.6764	1183.9401	3360.65	2481.8
865.8212	1185.8713	3306.95	2431
865.9659	1187.8017	3208.8	2333.2
866.1106	1189.7315	3122.55	2246.9
866.2554	1191.6605	3041.55	2164.9
866.4001	1193.5888	2998.6	2123.45
866.5448	1195.5163	2970.2	2092.3
866.6895	1197.4432	2948.05	2071.4
866.8342	1199.3693	2918.2	2039.95
866.9789	1201.2947	2900.85	2023.55
867.1236	1203.2193	2891.15	2014.85
867.2683	1205.1432	2886.75	2008.95
867.413	1207.0664	2866.85	1990.65
867.5576	1208.9889	2863.7	1982.6
867.7023	1210.9106	2843.45	1966.3
867.847	1212.8316	2852	1975.3
867.9916	1214.7519	2863.2	1973.6
868.1363	1216.6715	2851.65	1975.9
868.2809	1218.5903	2857.05	1980.4
868.4255	1220.5084	2856.4	1977.85
868.5701	1222.4257	2868.8	1992.7
868.7148	1224.3424	2860.35	1981.8
868.8594	1226.2583	2889.5	2009.85
869.004	1228.1735	2877.5	1999.8
869.1486	1230.0879	2901.35	2023.25
869.2932	1232.0016	2925.9	2049.8
869.4377	1233.9146	2949.65	2070.05
869.5823	1235.8269	2950.95	2073.6
869.7269	1237.7384	2955.25	2076.9
869.8715	1239.6492	2939.75	2062.9
870.016	1241.5592	2950.6	2072.3
870.1606	1243.4686	2977.5	2101.1
870.3051	1245.3772	3005.45	2126.95
870.4496	1247.285	3079.35	2202.05
870.5941	1249.1922	3111.75	2233.85
870.7387	1251.0986	3171.45	2293.6
870.8832	1253.0042	3210.55	2331.3
871.0277	1254.9092	3270.65	2392.75
871.1722	1256.8134	3329.1	2452.05
871.3167	1258.7169	3408.15	2529.2
871.4611	1260.6196	3427.4	2550.3
871.6056	1262.5216	3463.4	2583.75
871.7501	1264.4229	3457.9	2579.1
871.8945	1266.3234	3429.25	2551.7
872.039	1268.2232	3386.95	2506.05
872.1834	1270.1223	3342.55	2463.2
872.3278	1272.0207	3300.45	2421.95
872.4723	1273.9183	3284.1	2400.4
872.6167	1275.8151	3274.55	2396.8
872.7611	1277.7113	3304.15	2422.05
872.9055	1279.6067	3347.25	2469.2
873.0499	1281.5014	3444.15	2561.95
873.1943	1283.3953	3578.05	2696.8
873.3386	1285.2885	3712.75	2836
873.483	1287.181	3826.5	2947.65
873.6274	1289.0727	3889.4	3011
873.7717	1290.9637	3840.75	2959.2
873.9161	1292.854	3765.2	2885.1
874.0604	1294.7435	3667.25	2785.85
874.2047	1296.6323	3572.35	2692.65
874.349	1298.5204	3498.55	2614.45
874.4933	1300.4077	3431.5	2550.4
874.6376	1302.2943	3368.95	2490.85
874.7819	1304.1802	3363.3	2485.55
874.9262	1306.0653	3336.1	2454.35
875.0705	1307.9497	3291.2	2412.05
875.2147	1309.8333	3285.6	2405.45
875.359	1311.7162	3238.6	2359.95
875.5032	1313.5984	3226.75	2346.5
875.6475	1315.4798	3206.85	2325.75
875.7917	1317.3605	3186.95	2300.75
875.9359	1319.2405	3185.95	2305.4
876.0801	1321.1197	3198	2314.55
876.2243	1322.9982	3162.1	2277.5
876.3685	1324.876	3101.5	2221
876.5127	1326.753	3064.9	2183.9
876.6569	1328.6293	2974.9	2093.4
876.801	1330.5048	2917.9	2033.65
876.9452	1332.3796	2849.25	1970.7
877.0893	1334.2537	2821.4	1918.7
877.2335	1336.127	2754.85	1874.45
877.3776	1337.9996	2728.05	1847.15
877.5217	1339.8714	2708.3	1827.85
877.6658	1341.7426	2728	1805.95
877.8099	1343.6129	2682.9	1800.95
877.954	1345.4826	2658.6	1776.55
878.0981	1347.3515	2650.75	1767.2
878.2422	1349.2196	2626.5	1745
878.3862	1351.087	2627	1745.35
878.5303	1352.9537	2624.85	1743.7
878.6743	1354.8197	2617.55	1737.45
878.8184	1356.6849	2621.25	1738.3
878.9624	1358.5493	2620.5	1739.35
879.1064	1360.4131	2631.75	1749.35
879.2504	1362.276	2660.1	1781.25
879.3944	1364.1383	2675.9	1794.6
879.5384	1365.9998	2702.85	1818.2
879.6823	1367.8606	2686.15	1805.6
879.8263	1369.7206	2676.35	1795.75
879.9702	1371.5799	2659.55	1777.4
880.1142	1373.4384	2659.45	1776.9
880.2581	1375.2962	2647.25	1764
880.402	1377.1533	2610.6	1731.15
880.5459	1379.0096	2564.65	1683.3
880.6898	1380.8652	2522.9	1642.05
880.8337	1382.7201	2498.75	1618.35
880.9776	1384.5742	2481.2	1600.3
881.1215	1386.4275	2457.05	1573.15
881.2653	1388.2802	2438.1	1558.35
881.4092	1390.132	2421.45	1540.75
881.553	1391.9832	2420.35	1538.65
881.6968	1393.8336	2399	1517.35
881.8406	1395.6832	2405.4	1519.4
881.9844	1397.5322	2380.85	1498.75
882.1282	1399.3803	2378.85	1492.15
882.272	1401.2278	2352.9	1471.15
882.4158	1403.0745	2349.25	1469.1
882.5595	1404.9204	2342.5	1462
882.7033	1406.7656	2328	1446.1
882.847	1408.6101	2324.85	1440.4
882.9908	1410.4538	2312.6	1431.6
883.1345	1412.2968	2306.65	1426.55
883.2782	1414.139	2307.35	1426.4
883.4219	1415.9805	2311.05	1428.6
883.5656	1417.8213	2331.8	1430.15
883.7092	1419.6613	2306.35	1424
883.8529	1421.5006	2339.5	1457
883.9965	1423.3391	2361.8	1478.95
884.1402	1425.1769	2386.65	1503.25
884.2838	1427.0139	2432.6	1548.2
884.4274	1428.8502	2495.9	1614.35
884.571	1430.6858	2548.6	1666.8
884.7146	1432.5206	2574.6	1692.05
884.8582	1434.3547	2561.95	1677.8
885.0018	1436.188	2543.2	1662.05
885.1453	1438.0206	2537.7	1653.9
885.2889	1439.8524	2512.85	1630.4
885.4324	1441.6835	2513.95	1631.05
885.5759	1443.5139	2505.25	1619.2
885.7194	1445.3435	2501.25	1618.6
885.8629	1447.1724	2500.9	1618.5
886.0064	1449.0005	2506.75	1623.05
886.1499	1450.8279	2499.75	1615.35
886.2933	1452.6545	2488.1	1606.75
886.4368	1454.4804	2485.5	1605.75
886.5802	1456.3056	2485.5	1594.9
886.7237	1458.13	2468.9	1588
886.8671	1459.9536	2441.4	1558.8
887.0105	1461.7766	2416.55	1534.9
887.1539	1463.5987	2375.5	1491.75
887.2972	1465.4202	2344.35	1461
887.4406	1467.2409	2319.1	1438.7
887.584	1469.0608	2293.6	1412.2
887.7273	1470.88	2271.5	1387.15
887.8706	1472.6984	2252.7	1369.15
888.0139	1474.5161	2229.25	1343.35
888.1572	1476.3331	2210.3	1329.95
888.3005	1478.1493	2209.05	1324.8
888.4438	1479.9648	2198.05	1312.95
888.5871	1481.7795	2187.85	1307.6
888.7303	1483.5935	2193.4	1311.7
888.8736	1485.4067	2174.9	1292.45
889.0168	1487.2192	2189.65	1307.35
889.16	1489.031	2191.8	1305.45
889.3032	1490.842	2184.85	1304.2
889.4464	1492.6522	2190.4	1307.05
889.5896	1494.4618	2179.05	1295.4
889.7327	1496.2705	2173.45	1290.4
889.8759	1498.0785	2155.9	1271.25
890.019	1499.8858	2154.45	1273.5
890.1622	1501.6924	2149.15	1268.35
890.3053	1503.4981	2141.8	1258.05
890.4484	1505.3032	2125.55	1242.55
890.5914	1507.1075	2121.05	1236.9
890.7345	1508.911	2113.9	1231.55
890.8776	1510.7138	2114.65	1229.65
891.0206	1512.5159	2104.5	1220.65
891.1637	1514.3172	2089.35	1207.35
891.3067	1516.1178	2079.15	1195.15
891.4497	1517.9176	2088.4	1203.3
891.5927	1519.7166	2076.3	1195
891.7357	1521.515	2068.35	1179.7
891.8786	1523.3126	2065.5	1182.25
892.0216	1525.1094	2050.55	1163.65
892.1645	1526.9055	2050.35	1168
892.3074	1528.7008	2028.6	1144.95
892.4503	1530.4954	2026.1	1140.45
892.5932	1532.2893	2025.3	1143.1
892.7361	1534.0824	2025.85	1135.1
892.879	1535.8747	2008.5	1127.25
893.0218	1537.6663	2003.7	1120.5
893.1647	1539.4572	2000.25	1116.1
893.3075	1541.2473	1992.6	1108.3
893.4503	1543.0367	1996.2	1115.75
893.5931	1544.8253	1993.05	1104.9
893.7359	1546.6132	1992.95	1106.9
893.8787	1548.4003	1994.7	1100.85
894.0214	1550.1867	1994.45	1102.95
894.1642	1551.9723	1996	1106.75
894.3069	1553.7572	2003.3	1118
894.4496	1555.5414	2008.2	1124.5
894.5923	1557.3247	2027.9	1143.4
894.735	1559.1074	2049.3	1166.5
894.8777	1560.8893	2077.15	1194.85
895.0204	1562.6705	2098.2	1213.65
895.163	1564.4509	2123.25	1240.95
895.3056	1566.2305	2132.85	1251
895.4482	1568.0094	2129.9	1247.45
895.5908	1569.7876	2121.6	1238.3
895.7334	1571.565	2115.45	1231.1
895.876	1573.3417	2116.65	1233.65
896.0186	1575.1176	2112.05	1228.35
896.1611	1576.8928	2133.05	1250.7
896.3036	1578.6672	2138.25	1255.6
896.4461	1580.4409	2163.5	1283.7
896.5886	1582.2138	2173.95	1289.05
896.7311	1583.986	2202.75	1320.75
896.8736	1585.7575	2234.6	1350.35
897.0161	1587.5282	2250	1368.4
897.1585	1589.2981	2284.6	1402.05
897.3009	1591.0673	2287.9	1405.9
897.4433	1592.8358	2289.7	1407.55
897.5857	1594.6035	2282.9	1399.2
897.7281	1596.3704	2277	1392.95
897.8705	1598.1366	2257.8	1374.7
898.0128	1599.9021	2243.85	1362.95
898.1551	1601.6668	2204.35	1318.6
898.2975	1603.4308	2196.2	1313.3
898.4398	1605.194	2198.95	1311.7
898.5821	1606.9564	2195.95	1314.15
898.7243	1608.7182	2243.1	1359.15
898.8666	1610.4791	2295.3	1414.3
899.0088	1612.2394	2371.6	1491.45
899.1511	1613.9988	2447.4	1564.7
899.2933	1615.7576	2524.15	1641.45
899.4355	1617.5156	2560.05	1669.7
899.5776	1619.2728	2539.85	1655.9
899.7198	1621.0293	2475.2	1592.05
899.862	1622.785	2391.3	1505.65
900.0041	1624.54	2276.95	1392.55
900.1462	1626.2942	2186.15	1302.3
900.2883	1628.0477	2103.8	1218.25
900.4304	1629.8005	2025.05	1138.1
900.5725	1631.5525	1978.45	1096
900.7145	1633.3037	1933.55	1050.3
900.8566	1635.0542	1901.35	1019.05
900.9986	1636.804	1863.25	979.15
901.1406	1638.553	1896.5	963.85
901.2826	1640.3013	1819.8	937.8
901.4245	1642.0488	1799.1	914.35
901.5665	1643.7955	1788.6	906.3
901.7085	1645.5416	1773.55	886.95
901.8504	1647.2868	1770.55	888.8
901.9923	1649.0313	1759.5	878
902.1342	1650.7751	1751.7	864
902.2761	1652.5181	1750.6	866.85
902.4179	1654.2604	1738.6	854.1
902.5598	1656.0019	1748.9	867.5
902.7016	1657.7427	1755.35	874
902.8434	1659.4828	1762.8	881
902.9852	1661.222	1778.8	893.85
903.127	1662.9606	1804.1	920.65
903.2687	1664.6984	1827.8	944.3
903.4105	1666.4354	1844.3	959.65
903.5522	1668.1717	1820.9	935.75
903.6939	1669.9072	1791.8	908.35
903.8356	1671.642	1755.6	869.5
903.9773	1673.3761	1723.6	840.65
904.119	1675.1094	1695.85	813.9
904.2606	1676.8419	1679.1	796.05
904.4022	1678.5737	1655.6	772
904.5439	1680.3048	1643.9	761.15
904.6855	1682.0351	1640.8	755.4
904.827	1683.7646	1632.3	745.95
904.9686	1685.4934	1631.15	748.35
905.1101	1687.2215	1615.35	730.35
905.2517	1688.9488	1607.35	723.25
905.3932	1690.6754	1611.65	729.95
905.5347	1692.4012	1603.5	721.7
905.6761	1694.1263	1602.55	719.7
905.8176	1695.8506	1594.5	710.8
905.9591	1697.5742	1589.3	707.25
906.1005	1699.297	1585.2	701.4
906.2419	1701.0191	1584.6	702.4
906.3833	1702.7404	1568.25	684.5
906.5246	1704.461	1570.7	685.65
906.666	1706.1808	1571.6	687.15
906.8073	1707.8999	1570.4	685.45
906.9487	1709.6182	1559.05	676
907.09	1711.3358	1560.95	677.35
907.2313	1713.0527	1548.1	667.45
907.3725	1714.7688	1558.9	671.05
907.5138	1716.4841	1550.55	663.75
907.655	1718.1987	1555.6	666.95
907.7962	1719.9126	1542.65	660.4
907.9374	1721.6257	1545.2	657.6
908.0786	1723.338	1540.5	657.35
908.2198	1725.0496	1533.7	650.9
908.3609	1726.7605	1531.65	646.8
908.502	1728.4706	1526.55	640.95
908.6431	1730.18	1531.2	647.35
908.7842	1731.8886	1533.65	651.15
908.9253	1733.5964	1535.55	647.75
909.0664	1735.3036	1530.35	645
909.2074	1737.0099	1526.85	643.6
909.3484	1738.7156	1519.05	637.1
909.4894	1740.4204	1518.7	632.1
909.6304	1742.1246	1521.1	637.15
909.7714	1743.8279	1513.5	627.7
909.9123	1745.5306	1515.75	633.25
910.0532	1747.2325	1515	633.3
910.1941	1748.9336	1512.95	629.85
910.335	1750.634	1510.7	627.65
910.4759	1752.3336	1512.8	629.3
910.6168	1754.0325	1500.85	620
910.7576	1755.7307	1510.25	626.25
910.8984	1757.4281	1507	625.4
911.0392	1759.1247	1510.1	617.8
911.18	1760.8206	1511.85	623.65
911.3208	1762.5158	1501.65	614.9
911.4615	1764.2102	1500.95	619
911.6022	1765.9039	1498.95	616.05
911.7429	1767.5968	1499.65	615.9
911.8836	1769.289	1498.45	615.85
912.0243	1770.9804	1494	611.1
912.1649	1772.6711	1489.4	606.3
912.3056	1774.361	1486.95	601.4
912.4462	1776.0502	1483.55	600.7
912.5868	1777.7386	1488.75	603.85
912.7274	1779.4263	1485.45	601.95
912.8679	1781.1132	1478.05	593
913.0084	1782.7994	1486.75	601.4
913.149	1784.4849	1482.25	598.25
913.2895	1786.1696	1477.35	587.6
913.4299	1787.8535	1476.1	592.4
913.5704	1789.5367	1474.5	592.35
913.7108	1791.2192	1474.05	590.35
913.8513	1792.9009	1497.35	589.55
913.9917	1794.5818	1468.5	582.85
914.132	1796.2621	1463.8	580.5
914.2724	1797.9415	1460.7	577.85
914.4128	1799.6202	1457.55	575.65
914.5531	1801.2982	1461.2	578.5
914.6934	1802.9755	1462.65	577.5
914.8337	1804.6519	1455.25	571.5
914.9739	1806.3277	1450.3	565.7
915.1142	1808.0027	1447.5	565.5
915.2544	1809.6769	1449.5	564.85
915.3946	1811.3504	1449.8	564.05
915.5348	1813.0231	1449.55	567.2
915.675	1814.6951	1450.25	567.35
915.8151	1816.3664	1450.65	563.65
915.9553	1818.0369	1443.85	561.35
916.0954	1819.7067	1440.15	557
916.2355	1821.3757	1440.6	556.2
916.3755	1823.044	1432.45	548.1
916.5156	1824.7115	1431.1	547.5
916.6556	1826.3783	1428.65	546.25
916.7956	1828.0443	1431.4	549.2
916.9356	1829.7096	1430.35	545.9
917.0756	1831.3741	1436.45	547.4
917.2155	1833.0379	1430.6	548.45
917.3555	1834.701	1425.25	541
917.4954	1836.3633	1424.85	541.55
917.6353	1838.0248	1428.5	544.45
917.7751	1839.6856	1423.5	538.85
917.915	1841.3457	1418.55	536.65
918.0548	1843.005	1419.65	537.9
918.1946	1844.6636	1424.35	543.05
918.3344	1846.3214	1419.05	535.15
918.4742	1847.9785	1415.2	531.05
918.6139	1849.6349	1416.95	530.95
918.7537	1851.2904	1429.45	536.8
918.8934	1852.9453	1415	530.6
919.0331	1854.5994	1419.25	532.35
919.1727	1856.2528	1408.95	520.65
919.3124	1857.9054	1403.05	519.5
919.452	1859.5572	1400.1	518.1
919.5916	1861.2083	1403.45	518.7
919.7312	1862.8587	1401.65	518.15
919.8708	1864.5084	1404.15	520.25
920.0103	1866.1572	1404.5	520
920.1498	1867.8054	1403.75	521.9
920.2893	1869.4528	1394.6	509.9
920.4288	1871.0994	1393.45	509.5
920.5683	1872.7453	1401.7	517.1
920.7077	1874.3905	1404.4	513.15
920.8471	1876.0349	1393.9	511
920.9865	1877.6786	1398.5	510.65
921.1259	1879.3215	1389.85	506.15
921.2653	1880.9637	1392.1	507.2
921.4046	1882.6051	1389.55	505.7
921.5439	1884.2458	1392.25	506.55
921.6832	1885.8858	1383.95	500.1
921.8225	1887.525	1386.7	502.2
921.9617	1889.1634	1386.7	501.95
922.101	1890.8011	1382.9	499.85
922.2402	1892.4381	1377.8	496.2
922.3794	1894.0743	1376.35	493.6
922.5185	1895.7098	1379.2	494.65
922.6577	1897.3446	1379.05	495.6
922.7968	1898.9786	1378.7	490.55
922.9359	1900.6118	1379.1	495.4
923.075	1902.2443	1368.25	483.4
923.214	1903.8761	1367.25	483.8
923.3531	1905.5071	1370.7	486.9
923.4921	1907.1374	1369.1	483.2
923.6311	1908.7669	1368.25	485.3
923.77	1910.3957	1363.7	478.9
923.909	1912.0237	1364.65	481.85
924.0479	1913.651	1366	479.45
924.1868	1915.2776	1359.25	477.2
924.3257	1916.9034	1363.65	478.25
924.4646	1918.5285	1362.6	481.15
924.6034	1920.1528	1352.05	468.15
924.7422	1921.7764	1357.3	473.75
924.881	1923.3992	1357.55	472.9
925.0198	1925.0213	1349.4	464
925.1586	1926.6427	1344.65	463.65
925.2973	1928.2633	1414.85	462.95
925.436	1929.8832	1346.4	459.75
925.5747	1931.5023	1348.2	464.95
925.7134	1933.1207	1344.5	461.25
925.852	1934.7383	1345.05	462.45
925.9906	1936.3552	1342.9	459.05
926.1292	1937.9714	1339.35	455.4
926.2678	1939.5868	1333.85	447.7
926.4064	1941.2015	1335.7	449.6
926.5449	1942.8154	1338.55	456.6
926.6834	1944.4286	1333.75	448.05
926.8219	1946.041	1351.55	445.4
926.9604	1947.6528	1332.55	443.55
927.0988	1949.2637	1336.25	451.45
927.2372	1950.8739	1333.35	448.15
927.3756	1952.4834	1323.55	439.35
927.514	1954.0921	1321.8	437.3
927.6523	1955.7001	1329.55	441.9
927.7907	1957.3074	1318.95	436.65
927.929	1958.9139	1322.3	441.05
928.0673	1960.5197	1323.65	437.05
928.2055	1962.1247	1319.75	437.65
928.3438	1963.729	1318.2	435.5
928.482	1965.3325	1336.7	428.85
928.6202	1966.9353	1315.25	431.7
928.7584	1968.5374	1312.55	428.25
928.8965	1970.1387	1313.55	431.1
929.0346	1971.7393	1313.65	428.95
929.1727	1973.3392	1306.2	423.5
929.3108	1974.9383	1305.3	423.9
929.4489	1976.5366	1308.5	423.85
929.5869	1978.1342	1301	416.4
929.7249	1979.7311	1309.5	424
929.8629	1981.3273	1301.6	418.25
930.0009	1982.9227	1300.3	414
930.1388	1984.5173	1296.4	413.3
930.2767	1986.1112	1296.95	415.15
930.4146	1987.7044	1299.25	417.75
930.5525	1989.2968	1296.35	413.05
930.6904	1990.8885	1297.85	410.65
930.8282	1992.4795	1297.3	411.3
930.966	1994.0697	1293.05	411.55
931.1038	1995.6592	1293.25	411.2
931.2415	1997.2479	1289.05	405.6
931.3793	1998.8359	1288.2	404.8
931.517	2000.4232	1290.45	408.15
931.6547	2002.0097	1286.7	404.85
931.7923	2003.5955	1289.25	407.65
931.93	2005.1805	1286.8	402.85
932.0676	2006.7648	1285.45	403.9
932.2052	2008.3484	1284.9	400.4
932.3427	2009.9312	1277.95	392.4
932.4803	2011.5133	1277.85	395
932.6178	2013.0946	1285.6	403.95
932.7553	2014.6752	1279.2	397.75
932.8928	2016.2551	1283.85	399.5
933.0302	2017.8342	1281.15	399.25
933.1676	2019.4126	1277.35	395.05
933.305	2020.9902	1281.95	399.35
933.4424	2022.5672	1278.1	393.9
933.5798	2024.1433	1282.2	393
933.7171	2025.7188	1277.6	396.05
933.8544	2027.2935	1275.3	393.55
933.9917	2028.8674	1268.45	385.2
934.129	2030.4406	1271.85	387
934.2662	2032.0131	1266.6	382.3
934.4034	2033.5849	1273.15	383.1
934.5406	2035.1559	1271.8	388.6
934.6778	2036.7261	1274.3	391.5
934.8149	2038.2957	1270	386.95
934.952	2039.8645	1269.55	387.9
935.0891	2041.4325	1271.5	386.35
935.2262	2042.9998	1263.75	380.85
935.3632	2044.5664	1264.15	380.15
935.5002	2046.1323	1263.6	381.55
935.6372	2047.6974	1262.25	380
935.7742	2049.2617	1257.6	376.65
935.9111	2050.8254	1265.5	377.1
936.048	2052.3883	1262.45	379.2
936.1849	2053.9504	1262.8	378.9
936.3218	2055.5118	1262.7	380.05
936.4586	2057.0725	1259.95	371.5
936.5955	2058.6325	1263.55	380.35
936.7323	2060.1917	1255.85	372.45
936.869	2061.7502	1257.7	371.9
937.0058	2063.3079	1256.1	373.05
937.1425	2064.8649	1263.45	376.75
937.2792	2066.4212	1257.6	374.3
937.4159	2067.9767	1251.5	369.2
937.5525	2069.5315	1260.35	376.05
937.6891	2071.0856	1256.25	372.25
937.8257	2072.6389	1252.75	366.3
937.9623	2074.1915	1251.3	370.85
938.0989	2075.7433	1256.05	371.3
938.2354	2077.2945	1250.85	369.65
938.3719	2078.8448	1253.9	371.85
938.5084	2080.3945	1242.95	360.65
938.6448	2081.9434	1247.8	366.1
938.7812	2083.4916	1249.35	364.1
938.9176	2085.039	1247.8	363.35
939.054	2086.5857	1247.55	362.4
939.1903	2088.1317	1244.1	362.35
939.3267	2089.677	1248.4	365.55
939.463	2091.2215	1241.9	356.85
939.5992	2092.7652	1240.9	356.75
939.7355	2094.3083	1240.05	357.45
939.8717	2095.8506	1241.8	359.7
940.0079	2097.3921	1240.5	358.15
940.1441	2098.933	1240.3	358.55
940.2802	2100.4731	1243.6	361
940.4163	2102.0124	1260	359.45
940.5524	2103.5511	1236.6	354.75
940.6885	2105.089	1242.85	359.85
940.8245	2106.6261	1236.35	351.85
940.9606	2108.1626	1239.85	355.15
941.0965	2109.6983	1266.05	354
941.2325	2111.2332	1239	354.5
941.3684	2112.7675	1238.05	352.8
941.5044	2114.301	1234.7	349.3
941.6403	2115.8337	1237.05	354.6
941.7761	2117.3657	1240.55	357.55
941.912	2118.897	1238.35	353.95
942.0478	2120.4276	1242.05	353.9
942.1835	2121.9575	1237.6	353.2
942.3193	2123.4866	1251.55	354.55
942.455	2125.0149	1234.05	347.2
942.5907	2126.5426	1226.5	342.65
942.7264	2128.0695	1235.9	349.15
942.8621	2129.5956	1228.7	348.95
942.9977	2131.1211	1235.9	348
943.1333	2132.6458	1226.6	344.7
943.2689	2134.1698	1227.9	345
943.4044	2135.693	1230.25	344.9
943.54	2137.2155	1228.85	344.55
943.6755	2138.7373	1225.8	341.1
943.8109	2140.2584	1227.05	342.5
943.9464	2141.7787	1230.15	341.15
944.0818	2143.2983	1221.4	338.8
944.2172	2144.8171	1220.2	340
944.3526	2146.3353	1229.7	344.7
944.4879	2147.8527	1220	337.4
944.6232	2149.3693	1220.4	337.15
944.7585	2150.8853	1219.85	336.85
944.8938	2152.4005	1215.85	333.1
945.029	2153.9149	1223.5	339.25
945.1642	2155.4287	1319.45	334.35
945.2994	2156.9417	1221.3	334.75
945.4346	2158.454	1214.6	327.25
945.5697	2159.9655	1217.5	334.8
945.7048	2161.4764	1221.9	339.25
945.8399	2162.9865	1217.35	333.35
945.9749	2164.4958	1218.05	332.75
946.1099	2166.0045	1217.75	333.3
946.2449	2167.5124	1217.3	332.95
946.3799	2169.0195	1210.5	329.15
946.5148	2170.526	1211.5	326.8
946.6498	2172.0317	1212.25	328.35
946.7846	2173.5367	1207.05	320.55
946.9195	2175.0409	1207.2	324.5
947.0543	2176.5445	1204.4	322.35
947.1891	2178.0473	1206.5	321.85
947.3239	2179.5494	1210.2	321.65
947.4587	2181.0507	1204	322.85
947.5934	2182.5513	1203.15	319.2
947.7281	2184.0512	1203.4	322
947.8628	2185.5504	1203.9	319.9
947.9974	2187.0488	1203.35	321.2
948.132	2188.5465	1194.2	309.35
948.2666	2190.0435	1197.85	313.95
948.4012	2191.5397	1198.7	314.85
948.5357	2193.0353	1198.95	316.1
948.6702	2194.5301	1194.05	309.65
948.8047	2196.0241	1198.7	315.75
948.9392	2197.5175	1194.95	311.95
949.0736	2199.0101	1196.05	310.45
949.208	2200.502	1194.3	311.6
949.3424	2201.9931	1194.55	312.15
949.4767	2203.4835	1194.35	308.8
949.611	2204.9733	1207.75	306.8
949.7453	2206.4622	1184.45	301.8
949.8796	2207.9505	1193	306.85
950.0138	2209.438	1180.2	298.3
950.148	2210.9248	1185.95	300.45
950.2822	2212.4109	1186.9	305.45
950.4164	2213.8962	1196.75	309.95
950.5505	2215.3809	1184.5	300.15
950.6846	2216.8648	1184.55	301.6
950.8186	2218.3479	1185.25	297.4
950.9527	2219.8304	1181.45	295.15
951.0867	2221.3121	1187.3	300.8
951.2207	2222.7931	1184.35	301.05
951.3546	2224.2733	1177.95	293.75
951.4886	2225.7529	1180.65	297.1
951.6225	2227.2317	1178.4	291.3
951.7563	2228.7098	1172.05	289.3
951.8902	2230.1872	1171.7	289.4
952.024	2231.6638	1174.9	291.75
952.1578	2233.1397	1181.65	295.3
952.2916	2234.6149	1174.4	291.95
952.4253	2236.0894	1175.75	293.4
952.559	2237.5632	1172.7	287.9
952.6927	2239.0362	1171.4	288.85
952.8263	2240.5085	1177.75	295.8
952.9599	2241.9801	1168.25	284.7
953.0935	2243.4509	1163.95	280.15
953.2271	2244.921	1166.85	285.2
953.3606	2246.3904	1169.15	283.15
953.4941	2247.8591	1163.6	282.1
953.6276	2249.3271	1162.05	278.6
953.7611	2250.7943	1168.2	285.8
953.8945	2252.2608	1161.3	278.05
954.0279	2253.7266	1162.25	278.85
954.1612	2255.1917	1157.35	274.7
954.2946	2256.656	1163.1	279.35
954.4279	2258.1197	1158.65	276.05
954.5612	2259.5826	1159.5	274.55
954.6944	2261.0447	1155.2	271.55
954.8276	2262.5062	1157.05	271.25
954.9608	2263.9669	1160.8	275.6
955.094	2265.4269	1152.95	272.4
955.2271	2266.8862	1152.55	268.8
955.3602	2268.3448	1156.45	271.25
955.4933	2269.8026	1158.75	275.5
955.6264	2271.2598	1152.8	269.4
955.7594	2272.7162	1147.95	266.25
955.8924	2274.1719	1151.05	269.6
956.0253	2275.6268	1153.2	268.5
956.1583	2277.0811	1150.35	268.7
956.2912	2278.5346	1152.6	270.55
956.4241	2279.9874	1149.65	266.75
956.5569	2281.4395	1149.1	267.1
956.6897	2282.8908	1159	270.5
956.8225	2284.3414	1147.65	263.35
956.9553	2285.7914	1147.75	267.2
957.088	2287.2406	1149	264.65
957.2207	2288.689	1149.7	267
957.3534	2290.1368	1145.9	260.8
957.486	2291.5838	1147.3	265.65
957.6186	2293.0302	1150.25	265.5
957.7512	2294.4758	1138.4	255.85
957.8838	2295.9206	1139.9	255.45
958.0163	2297.3648	1136.2	254.25
958.1488	2298.8082	1142.3	258.2
958.2813	2300.251	1139.55	257
958.4137	2301.693	1147.1	260.1
958.5461	2303.1343	1143.85	261.6
958.6785	2304.5748	1136.1	251.95
958.8108	2306.0147	1141.45	259.4
958.9432	2307.4538	1137.3	251.2
959.0754	2308.8922	1135.65	253.3
959.2077	2310.3299	1133.15	251.1
959.3399	2311.7669	1129.5	246.1
959.4721	2313.2031	1135.25	252.45
959.6043	2314.6387	1133.65	249.75
959.7365	2316.0735	1131.8	248.75
959.8686	2317.5076	1132.65	248.75
960.0006	2318.941	1127.35	243.95
960.1327	2320.3737	1125.75	243.05
960.2647	2321.8056	1129.65	242.55
960.3967	2323.2369	1127.6	243.5
960.5287	2324.6674	1132	248.05
960.6606	2326.0972	1133.85	249.2
960.7925	2327.5263	1129.3	246.7
960.9244	2328.9547	1127.7	242.9
961.0562	2330.3823	1129.55	245.35
961.1881	2331.8092	1130.65	245.05
961.3198	2333.2355	1125.5	242.8
961.4516	2334.661	1124.65	238.9
961.5833	2336.0858	1121.75	237.2
961.715	2337.5098	1126.2	243
961.8467	2338.9332	1114.2	230.55
961.9783	2340.3558	1125.75	238.65
962.1099	2341.7778	1120.35	237.7
962.2415	2343.199	1115.3	230.2
962.373	2344.6195	1116.45	234.2
962.5045	2346.0393	1115.3	231.75
962.636	2347.4583	1114.6	230.6
962.7675	2348.8767	1114.65	229.7
962.8989	2350.2943	1111.9	227.8
963.0303	2351.7113	1114.2	228.5
963.1617	2353.1275	1113.2	231.65
963.293	2354.543	1135.35	225.8
963.4243	2355.9578	1112.85	229.35
963.5556	2357.3718	1104.35	220.4
963.6868	2358.7852	1110.9	224.4
963.818	2360.1978	1111.65	227.3
963.9492	2361.6098	1109.1	226.2
964.0803	2363.021	1114.25	225.85
964.2114	2364.4315	1105.95	222.35
964.3425	2365.8413	1114.5	225
964.4736	2367.2504	1107.05	223.85
964.6046	2368.6587	1107.55	223.95
964.7356	2370.0664	1105.55	220.7
964.8666	2371.4733	1104.5	222.4
964.9975	2372.8795	1102.6	218.6
965.1284	2374.285	1100.15	216.8
965.2593	2375.6899	1099.45	217.65
965.3901	2377.0939	1098.55	215.15
965.5209	2378.4973	1098.55	213.15
965.6517	2379.9	1099.45	214.7
965.7825	2381.3019	1097.1	212.7
965.9132	2382.7032	1101	218.05
966.0439	2384.1037	1095	213.45
966.1745	2385.5035	1096.75	212.6
966.3051	2386.9027	1092.9	208.9
966.4357	2388.3011	1100.35	214.05
966.5663	2389.6987	1094.7	212.65
966.6968	2391.0957	1089.95	206.75
966.8273	2392.492	1090	206.2
966.9578	2393.8876	1092.05	208.25
967.0882	2395.2824	1090.75	209.2
967.2186	2396.6765	1093.1	209.8
967.349	2398.07	1088	203.7
967.4793	2399.4627	1090.95	204.8
967.6097	2400.8547	1087.55	203.55
967.7399	2402.246	1093.5	204.3
967.8702	2403.6366	1088.35	203.6
968.0004	2405.0265	1085.45	200.9
968.1306	2406.4156	1092.6	203.55
968.2607	2407.8041	1086.9	199.75
968.3909	2409.1918	1083.4	197.55
968.521	2410.5789	1082.1	198.55
968.651	2411.9652	1086.15	198.5
968.781	2413.3508	1078.95	194.5
968.911	2414.7358	1077.25	192.7
969.041	2416.12	1081.75	199.4
969.1709	2417.5035	1076.15	191
969.3008	2418.8863	1079.15	194.5
969.4307	2420.2684	1074.5	190.85
969.5606	2421.6497	1079.95	195.7
969.6904	2423.0304	1075.55	190.15
969.8201	2424.4104	1079.35	195.5
969.9499	2425.7896	1073.5	186.35
970.0796	2427.1682	1075.7	193.1
970.2093	2428.546	1075.95	192.45
970.3389	2429.9232	1068.15	183.05
970.4685	2431.2996	1068.8	184.9
970.5981	2432.6753	1069.75	185.6
970.7277	2434.0503	1071.25	187.8
970.8572	2435.4246	1068.55	183.45
970.9867	2436.7982	1068.4	180
971.1161	2438.1711	1067.3	184.75
971.2456	2439.5433	1067.95	182.1
971.375	2440.9148	1070.85	180.75
971.5043	2442.2856	1069.1	185.4
971.6336	2443.6557	1068.9	183.15
971.7629	2445.025	1065.3	180.7
971.8922	2446.3937	1063.85	179.45
972.0214	2447.7617	1062.05	177.9
972.1506	2449.1289	1063.7	180.4
972.2798	2450.4955	1064.2	175.4
972.4089	2451.8613	1063.2	179.65
972.538	2453.2265	1056.6	173.2
972.6671	2454.5909	1062.15	178.05
972.7961	2455.9546	1060.45	176.75
972.9251	2457.3177	1056.75	174.15
973.0541	2458.68	1060.65	174.9
973.1831	2460.0416	1057.95	174.3
973.312	2461.4025	1062.85	177.35
973.4408	2462.7627	1072.7	177.1
973.5697	2464.1222	1056.1	174.9
973.6985	2465.4811	1057.3	172.25
973.8273	2466.8392	1057.95	174.1
973.956	2468.1966	1063.1	176.75
974.0847	2469.5533	1058.1	173.15
974.2134	2470.9093	1058.65	175.45
974.3421	2472.2645	1054.95	170.55
974.4707	2473.6191	1056.55	173.3
974.5993	2474.973	1053.6	170
974.7278	2476.3262	1054.45	168.4
974.8563	2477.6787	1050.25	166.55
974.9848	2479.0305	1051.25	166.85
975.1132	2480.3816	1052.1	168.9
975.2417	2481.7319	1051.95	167.5
975.37	2483.0816	1054.6	169.35
975.4984	2484.4306	1057	171.55
975.6267	2485.7789	1047.75	163.25
975.755	2487.1264	1053	167.65
975.8833	2488.4733	1049.45	166.7
976.0115	2489.8195	1064.9	165.15
976.1397	2491.165	1048.2	162.75
976.2678	2492.5097	1049.35	165.25
976.3959	2493.8538	1046.3	162.4
976.524	2495.1972	1046.15	162.75
976.6521	2496.5398	1045.15	159.95
976.7801	2497.8818	1050.1	161.65
976.9081	2499.2231	1044	158.7
977.036	2500.5637	1048.65	160.9
977.164	2501.9035	1047.5	162.8
977.2918	2503.2427	1045	156.4
977.4197	2504.5812	1038.2	153
977.5475	2505.919	1043.7	157.2
977.6753	2507.256	1044.1	161.9
977.8031	2508.5924	1039.75	156.7
977.9308	2509.9281	1045.8	155.2
978.0585	2511.2631	1039.8	157.45
978.1861	2512.5974	1037.75	155.5
978.3137	2513.9309	1037.6	153.5
978.4413	2515.2638	1062	151.25
978.5689	2516.596	1039.9	155.85
978.6964	2517.9275	1040.35	153.5
978.8239	2519.2583	1035.15	151.05
978.9513	2520.5884	1036.05	152.85
979.0788	2521.9178	1033.6	147.85
979.2062	2523.2465	1030.5	146.9
979.3335	2524.5745	1030.8	146.85
979.4608	2525.9018	1031.35	145.55
979.5881	2527.2284	1033.85	152.25
979.7154	2528.5543	1027.9	144
979.8426	2529.8796	1031.3	148.05
979.9698	2531.2041	1033.2	150.55
980.0969	2532.5279	1031.45	150
980.224	2533.851	1029.5	145.4
980.3511	2535.1735	1028.45	143.65
980.4781	2536.4952	1031.1	147.3
980.6052	2537.8163	1031	145.3
980.7321	2539.1366	1025.65	144.15
980.8591	2540.4562	1028.65	142.95
980.986	2541.7752	1024.4	140.75
981.1129	2543.0935	1026.2	141.95
981.2397	2544.411	1030.9	145.95
981.3665	2545.7279	1024.85	139.9
981.4933	2547.0441	1026.5	143.85
981.62	2548.3596	1029.25	141.35
981.7467	2549.6744	1024.3	141.3
981.8734	2550.9885	1024.9	133.55
982.0001	2552.3019	1026.5	142.85
982.1267	2553.6146	1024.25	139.5
982.2532	2554.9266	1021.4	135.85
982.3798	2556.2379	1024.25	138.15
982.5063	2557.5485	1024.8	143.1
982.6327	2558.8585	1028.2	135.3
982.7592	2560.1677	1027.2	139.2
982.8856	2561.4762	1024.6	140.95
983.0119	2562.7841	1025.9	140.05
983.1383	2564.0913	1020.9	138.45
983.2646	2565.3977	1019.55	135.45
983.3908	2566.7035	1020.3	135.15
983.517	2568.0086	1023	135.75
983.6432	2569.313	1017.05	132.95
983.7694	2570.6167	1025.4	137.6
983.8955	2571.9197	1019.25	135
984.0216	2573.222	1020.05	134
984.1476	2574.5236	1016.7	131.25
984.2737	2575.8246	1020.7	134.5
984.3996	2577.1248	1019.7	132.75
984.5256	2578.4244	1016.55	134
984.6515	2579.7232	1018.2	134.45
984.7774	2581.0214	1046.05	129.65
984.9032	2582.3189	1017.7	134.85
985.029	2583.6157	1030.75	132.8
985.1548	2584.9118	1017.2	133.55
985.2806	2586.2072	1010.25	127.35
985.4063	2587.5019	1015	131.95
985.5319	2588.7959	1014.55	131.15
985.6576	2590.0893	1015.1	130.45
985.7832	2591.3819	1012.85	129.65
985.9087	2592.6739	1011.2	128.55
986.0343	2593.9652	1013.25	128.25
986.1597	2595.2557	1012.65	130.1
986.2852	2596.5456	1010.6	123.75
986.4106	2597.8348	1011.4	128.3
986.536	2599.1234	1009.2	126.95
986.6614	2600.4112	1011.15	127.15
986.7867	2601.6983	1013.65	128.15
986.912	2602.9848	1010.85	125.2
987.0372	2604.2705	1018.3	129.05
987.1624	2605.5556	1007.6	123.5
987.2876	2606.84	1012.2	127.7
987.4128	2608.1237	1012.45	125.75
987.5379	2609.4067	1010.65	125.2
987.6629	2610.689	1019.05	125.75
987.788	2611.9707	1011.7	124.05
987.913	2613.2516	1010.35	121.8
988.0379	2614.5319	1005.6	123.25
988.1629	2615.8115	1007.2	122.25
988.2878	2617.0903	1007.9	124.55
988.4126	2618.3685	1004.1	118.5
988.5375	2619.6461	1004.3	119.2
988.6622	2620.9229	1005.5	121.3
988.787	2622.199	1007.6	123.4
988.9117	2623.4745	1001.3	116.3
989.0364	2624.7493	1004.85	121.85
989.161	2626.0234	1002.85	119.6
989.2857	2627.2968	1001.85	118.4
989.4102	2628.5695	1003.25	119.65
989.5348	2629.8415	1000.6	117.5
989.6593	2631.1128	1001.15	115.85
989.7837	2632.3835	994.5	110.5
989.9082	2633.6535	999.55	114.6
990.0326	2634.9228	998.4	116.5
990.1569	2636.1914	1002	116.4
990.2812	2637.4593	1000.1	114.1
990.4055	2638.7265	996.95	112.15
990.5298	2639.9931	995.6	113.15
990.654	2641.259	994.8	109.1
990.7782	2642.5242	996.2	112.7
990.9023	2643.7887	992.7	108.25
991.0264	2645.0525	993.35	111.7
991.1505	2646.3156	1009.05	109.4
991.2745	2647.5781	991.8	109.45
991.3985	2648.8398	992	110.05
991.5225	2650.1009	999.45	110.3
991.6464	2651.3613	992.95	109.45
991.7703	2652.6211	994.05	109.6
991.8942	2653.8801	991.75	109.75
992.018	2655.1385	991.6	105.65
992.1418	2656.3961	989.35	106.45
992.2655	2657.6531	988.55	104.95
992.3892	2658.9094	992.3	107.85
992.5129	2660.1651	988.75	105.75
992.6366	2661.42	989.15	105.9
992.7602	2662.6743	989.45	104.15
992.8837	2663.9279	990.25	107.1
993.0073	2665.1808	989.25	104.9
993.1307	2666.433	994.55	109.75
993.2542	2667.6846	986.6	103.35
993.3776	2668.9354	993.15	108.15
993.501	2670.1856	990.1	104.55
993.6244	2671.4351	985.2	101.4
993.7477	2672.6839	990.95	105.9
993.8709	2673.9321	988.7	105.85
993.9942	2675.1795	989.5	104.45
994.1174	2676.4263	988.05	105.75
994.2405	2677.6724	986.75	103.2
994.3637	2678.9179	989.7	105.55
994.4868	2680.1626	988.85	106.35
994.6098	2681.4067	986.15	101.9
994.7328	2682.6501	985.4	101.65
994.8558	2683.8928	988.1	103.8
994.9788	2685.1348	983.1	100.85
995.1017	2686.3761	983.2	99.7
995.2245	2687.6168	982.4	98.65
995.3474	2688.8568	982.65	98.95
995.4702	2690.0961	984.35	102.75
995.5929	2691.3348	981.6	98.7
995.7156	2692.5727	985.15	102.15
995.8383	2693.81	979.95	97.45
995.961	2695.0466	980.05	99.7
996.0836	2696.2826	979.55	94.15
996.2062	2697.5178	983.25	98.5
996.3287	2698.7524	977.15	93.35
996.4512	2699.9863	982.5	95.15
996.5737	2701.2195	980.5	100.25
996.6961	2702.452	983.1	96.2
996.8185	2703.6839	982.4	97.85
996.9408	2704.9151	979.5	96.85
997.0631	2706.1456	980.2	96.2
997.1854	2707.3755	976.45	92.55
997.3077	2708.6046	982.65	97.2
997.4299	2709.8331	983.7	99.15
997.552	2711.0609	981.2	96.7
997.6742	2712.2881	977.6	92.95
997.7963	2713.5145	983.6	98.8
997.9183	2714.7403	976.7	95.45
998.0403	2715.9654	980.75	96.95
998.1623	2717.1899	995.25	96
998.2842	2718.4136	981.15	97.2
998.4062	2719.6367	980.55	97.1
998.528	2720.8591	987.7	98.6
998.6498	2722.0809	982.55	99.5
998.7716	2723.3019	985.75	98.15
998.8934	2724.5223	982.35	96.95
999.0151	2725.7421	986.15	101.25
999.1368	2726.9611	987.3	100.3
999.2584	2728.1795	985.55	98.35
999.38	2729.3972	980.7	97.15
999.5016	2730.6142	987.5	96.35
999.6231	2731.8306	980.7	95.05
999.7446	2733.0462	976.55	90.85
999.8661	2734.2612	981.7	92.15
999.9875	2735.4756	976.2	90.4
1000.1089	2736.6892	971.55	89.5
1000.2302	2737.9022	971.35	88.8
1000.3515	2739.1145	969.65	85.15
1000.4728	2740.3262	978.95	86.1
1000.594	2741.5372	970.7	88.05
1000.7152	2742.7475	968.55	84.1
1000.8363	2743.9571	969	83.2
1000.9575	2745.1661	974.45	84.4
1001.0785	2746.3744	968.85	84.3
1001.1996	2747.582	966.9	83.6
1001.3206	2748.7889	965.75	79.25
1001.4415	2749.9952	965.7	83.1
1001.5625	2751.2008	967.6	82.95
1001.6833	2752.4057	969.8	82.5
1001.8042	2753.61	966.2	82.15
1001.925	2754.8136	969.55	84.1
1002.0458	2756.0165	961.15	77.4
1002.1665	2757.2188	963.25	80
1002.2872	2758.4204	962.65	77.4
1002.4078	2759.6213	965.35	80.3
1002.5285	2760.8215	967	78.7
1002.649	2762.0211	966.7	82.1
1002.7696	2763.22	963.2	79.5
1002.8901	2764.4182	962.85	77.4
1003.0106	2765.6158	960.5	76.3
1003.131	2766.8127	958.6	75.85
1003.2514	2768.009	960.8	79.15
1003.3717	2769.2045	958.45	74.15
1003.492	2770.3994	964.65	76.95
1003.6123	2771.5936	960.7	76.45
1003.7325	2772.7872	958.1	75.4
1003.8527	2773.9801	959	73.15
1003.9729	2775.1723	977	75.65
1004.093	2776.3639	955.35	72.65
1004.2131	2777.5548	960.35	73.65
1004.3331	2778.745	959.7	76
1004.4531	2779.9346	958.4	75
1004.5731	2781.1235	956.75	71
1004.693	2782.3117	958.45	74.4
1004.8129	2783.4992	956	72
1004.9328	2784.6861	959.35	73.25
1005.0526	2785.8723	957.05	73.75
1005.1723	2787.0579	957.15	73.4
1005.2921	2788.2428	955.5	72.4
1005.4118	2789.427	953.2	69.7
1005.5314	2790.6106	953.8	72.25
1005.651	2791.7935	959.3	76
1005.7706	2792.9757	953.8	70.35
1005.8902	2794.1573	957.9	73.15
1006.0097	2795.3382	955.45	70.9
1006.1291	2796.5184	953.75	70.4
1006.2485	2797.698	959	75.6
1006.3679	2798.8769	956.15	72.05
1006.4873	2800.0551	957.4	73.65
1006.6066	2801.2327	958.45	72.5
1006.7258	2802.4096	955.4	72.95
1006.8451	2803.5859	957	71.9
1006.9642	2804.7615	955.85	71.75
1007.0834	2805.9364	954.95	71.3
1007.2025	2807.1106	955.15	73
1007.3216	2808.2842	958.4	71.35
1007.4406	2809.4572	957.25	74
1007.5596	2810.6294	958.35	73.25
1007.6785	2811.801	958.55	75.65
1007.7975	2812.972	956.35	74.75
1007.9163	2814.1423	959.95	75.2
1008.0352	2815.3119	968.75	86.35
1008.154	2816.4808	967.3	86.4
1008.2727	2817.6491	965.9	82.35
1008.3914	2818.8167	965.75	84.4
1008.5101	2819.9837	977.3	89.2
1008.6288	2821.15	976.65	92.5
1008.7474	2822.3157	980.1	97.35
1008.8659	2823.4807	983.5	99.95
1008.9844	2824.645	994.25	110.65
1009.1029	2825.8086	1001.2	118.4
1009.2214	2826.9716	1001.15	117.9
1009.3398	2828.134	1006.8	123.6
1009.4581	2829.2957	1014.8	131.8
1009.5764	2830.4567	1014.2	131
1009.6947	2831.617	1020.65	136.95
1009.813	2832.7767	1020.4	137.3
1009.9312	2833.9358	1024.85	142.5
1010.0493	2835.0941	1026.9	140.1
1010.1675	2836.2519	1024.2	141
1010.2855	2837.4089	1016.4	132.3
1010.4036	2838.5653	1015.75	131.6
1010.5216	2839.7211	1009.25	126.65
1010.6396	2840.8761	1012.1	126.5
1010.7575	2842.0306	1008.05	127.2
1010.8754	2843.1843	1007.95	125
1010.9932	2844.3374	1008.45	125.3
1011.111	2845.4899	1008.45	122.5
1011.2288	2846.6417	1012.7	129.5
1011.3465	2847.7928	1012.05	130.2
1011.4642	2848.9433	1012.6	130.35
1011.5818	2850.0931	1014.1	130.2
1011.6995	2851.2422	1019.8	134.65
1011.817	2852.3907	1017.9	134.55
1011.9345	2853.5385	1017.4	132.4
1012.052	2854.6857	1024.2	133
1012.1695	2855.8323	1016.2	133.9
1012.2869	2856.9781	1019.25	138.1
1012.4042	2858.1233	1018.55	135.75
1012.5216	2859.2679	1022.85	140
1012.6389	2860.4118	1028.65	146.55
1012.7561	2861.555	1036	148.3
1012.8733	2862.6976	1032.25	148
1012.9905	2863.8395	1039.1	158.45
1013.1076	2864.9808	1034.3	150.45
1013.2247	2866.1214	1031.3	147.7
1013.3417	2867.2614	1040.3	155.2
1013.4587	2868.4007	1037.15	153.2
1013.5757	2869.5393	1040.75	157.5
1013.6926	2870.6773	1040.3	153.5
1013.8095	2871.8146	1048.45	162.65
1013.9263	2872.9513	1047.2	163.05
1014.0431	2874.0874	1044.85	163.9
1014.1599	2875.2227	1044.9	163.3
1014.2766	2876.3574	1050.95	166.4
1014.3933	2877.4915	1051.1	167.7
1014.51	2878.6249	1048.15	165.15
1014.6266	2879.7577	1054.35	170.3
1014.7431	2880.8898	1070.2	174.35
1014.8596	2882.0212	1054.35	171.35
1014.9761	2883.152	1057.5	172.9
1015.0925	2884.2821	1058.9	177.25
1015.2089	2885.4116	1058	176.4
1015.3253	2886.5405	1063.3	181.1
1015.4416	2887.6686	1068.65	181.85
1015.5579	2888.7962	1060.4	178.5
1015.6741	2889.923	1062.3	180.45
1015.7903	2891.0493	1064.75	183
1015.9065	2892.1748	1060.6	177.15
1016.0226	2893.2997	1065	180.75
1016.1387	2894.424	1061.45	177.75
1016.2547	2895.5476	1060.6	179.1
1016.3707	2896.6706	1064.7	182.15
1016.4866	2897.7929	1067.25	183.2
1016.6025	2898.9145	1064.2	180.8
1016.7184	2900.0355	1064.15	180.1
1016.8342	2901.1559	1060.65	176.35
1016.95	2902.2756	1062.6	174.65
1017.0658	2903.3946	1058.55	175.25
1017.1815	2904.513	1062	176.1
1017.2971	2905.6308	1055.95	173.65
1017.4127	2906.7479	1057.95	172.75
1017.5283	2907.8643	1062.4	176.7
1017.6439	2908.9801	1057.95	173.95
1017.7594	2910.0953	1058.1	174.7
1017.8748	2911.2098	1060.9	175.95
1017.9902	2912.3236	1064.55	172.3
1018.1056	2913.4368	1062.95	176.2
1018.2209	2914.5494	1057.8	175.3
1018.3362	2915.6613	1060.65	171.3
1018.4515	2916.7725	1052.7	166.35
1018.5667	2917.8831	1050.9	168.25
1018.6819	2918.9931	1051.55	164.85
1018.797	2920.1024	1045.9	160
1018.9121	2921.211	1044.7	161.3
1019.0271	2922.319	1044.55	161.1
1019.1421	2923.4264	1039	154.05
1019.2571	2924.5331	1037.1	153.8
1019.372	2925.6391	1036.8	152.75
1019.4869	2926.7445	1036.05	152.35
1019.6017	2927.8493	1042.35	157.45
1019.7165	2928.9534	1041.8	157.85
1019.8313	2930.0569	1045.9	159
1019.946	2931.1597	1045.65	162.45
1020.0606	2932.2619	1041.45	158.85
1020.1753	2933.3634	1043.5	160.2
1020.2899	2934.4643	1055.7	166
1020.4044	2935.5645	1050.8	160.45
1020.5189	2936.6641	1052.45	167.25
1020.6334	2937.763	1042.25	159.6
1020.7478	2938.8613	1047.55	163.4
1020.8622	2939.959	1050.1	161.9
1020.9765	2941.056	1040.05	158.05
1021.0908	2942.1523	1034.75	149.8
1021.2051	2943.248	1030	146.05
1021.3193	2944.3431	1028.3	145.65
1021.4334	2945.4375	1022.55	138.45
1021.5476	2946.5313	1013.7	133.2
1021.6617	2947.6244	1007.45	122.05
1021.7757	2948.7169	1004.2	120.55
1021.8897	2949.8087	1001.05	116.1
1022.0037	2950.8999	990.7	107.85
1022.1176	2951.9904	988.25	103.15
1022.2315	2953.0803	983.05	98.1
1022.3453	2954.1696	978.25	95.75
1022.4591	2955.2582	976.8	93.85
1022.5728	2956.3462	974.95	92.3
1022.6865	2957.4335	972.1	88.65
1022.8002	2958.5202	979.75	95.45
1022.9138	2959.6062	974.2	90.65
1023.0274	2960.6916	973.2	91.15
1023.141	2961.7764	975.3	91.6
1023.2545	2962.8605	974.75	90.25
1023.3679	2963.9439	972.15	89.2
1023.4813	2965.0267	975.15	89.65
1023.5947	2966.1089	995.35	90.25
1023.708	2967.1905	969.6	86.3
1023.8213	2968.2714	970.05	88.5
1023.9346	2969.3516	969.5	85
1024.0478	2970.4312	976.4	87.25
1024.1609	2971.5102	964.5	81.45
1024.274	2972.5885	967.5	82.35
1024.3871	2973.6662	977.15	89.4
1024.5002	2974.7432	969.25	86.25
1024.6132	2975.8196	967.3	84.4
1024.7261	2976.8954	967.55	85.6
1024.839	2977.9705	968.4	85.8
1024.9519	2979.045	968.4	86.05
1025.0647	2980.1188	967.75	84.3
1025.1775	2981.192	965.65	85
1025.2902	2982.2645	965	80.45
1025.4029	2983.3364	966.8	82.8
1025.5156	2984.4077	966.9	83.8
1025.6282	2985.4783	967.75	80
1025.7407	2986.5483	959.55	78.3
1025.8532	2987.6177	955.35	73.1
1025.9657	2988.6864	954.85	71.15
1026.0782	2989.7545	954.1	71.25
1026.1906	2990.8219	953.55	71.85
1026.3029	2991.8887	951.25	65.35
1026.4152	2992.9548	948.65	64.15
1026.5275	2994.0204	943.4	60.9
1026.6397	2995.0852	941.5	59.05
1026.7519	2996.1495	943.75	59.65
1026.864	2997.2131	941.15	57.25
1026.9761	2998.276	937.45	55.1
1027.0882	2999.3383	937.35	54.35
1027.2002	3000.4	936.55	52.55
1027.3122	3001.4611	934.45	50.5
1027.4241	3002.5215	932.75	48.85
1027.536	3003.5812	929.75	46.7
1027.6478	3004.6404	927.4	42.8
1027.7596	3005.6989	928.95	43.65
1027.8714	3006.7567	928.6	42.8
1027.9831	3007.8139	946.1	43.5
1028.0947	3008.8705	926.5	42.75
1028.2064	3009.9264	945.05	45.35
1028.3179	3010.9818	925.8	43.85
1028.4295	3012.0364	924.25	40.1
1028.541	3013.0905	922.95	39.65
1028.6524	3014.1439	923.4	41.65
1028.7638	3015.1966	925.95	41.8
1028.8752	3016.2487	922.6	40.9
1028.9865	3017.3002	925.55	37.95
1029.0978	3018.3511	918.7	36.45
1029.209	3019.4013	921.45	39.05
1029.3202	3020.4509	919.85	36.6
1029.4314	3021.4998	921.95	38.4
1029.5425	3022.5481	919.1	35.75
1029.6535	3023.5958	921.05	39.5
1029.7645	3024.6428	920.1	36.7
1029.8755	3025.6892	919.9	37.55
1029.9864	3026.735	919.9	36.4
1030.0973	3027.7802	918.9	36.55
1030.2082	3028.8247	919.6	36.85
1030.319	3029.8685	919.75	35.85
1030.4297	3030.9118	919.25	35.65
1030.5404	3031.9544	919.7	37.7
1030.6511	3032.9963	917.6	32
1030.7617	3034.0376	920.95	38.55
1030.8723	3035.0783	922.5	38.15
1030.9829	3036.1184	919.9	34.9
1031.0934	3037.1578	919.4	37.25
1031.2038	3038.1966	920.25	35.8
1031.3142	3039.2348	914.2	30.75
1031.4246	3040.2723	926.05	33.4
1031.5349	3041.3092	915.45	32.6
1031.6452	3042.3455	919.2	36.35
1031.7554	3043.3811	921.15	38.7
1031.8656	3044.4161	919.8	37
1031.9758	3045.4505	921.5	38.55
1032.0859	3046.4842	919.3	36.1
1032.1959	3047.5173	915.6	32.85
1032.3059	3048.5498	920.6	35.15
1032.4159	3049.5816	917.8	32.1
1032.5258	3050.6128	920.3	35.65
1032.6357	3051.6434	919.5	34.55
1032.7455	3052.6734	919.8	36.45
1032.8553	3053.7027	919.65	35.75
1032.9651	3054.7314	918.05	34.1
1033.0748	3055.7594	917.75	37.05
1033.1845	3056.7868	919.5	36
1033.2941	3057.8136	919.25	37.85
1033.4037	3058.8398	914.85	31.5
1033.5132	3059.8653	917.85	31.9
1033.6227	3060.8902	914.85	31.7
1033.7321	3061.9145	919.95	37.05
1033.8415	3062.9381	919.35	36.95
1033.9509	3063.9612	934.35	33.65
1034.0602	3064.9835	918.8	36.15
1034.1694	3066.0053	922.4	38.65
1034.2787	3067.0264	917.35	35.55
1034.3878	3068.0469	920.25	35.35
1034.497	3069.0668	923.2	38.2
1034.6061	3070.086	919.45	37.15
1034.7151	3071.1046	923	37.15
1034.8241	3072.1226	919.75	35.45
1034.9331	3073.1399	916.15	31.75
1035.042	3074.1567	918.65	36.45
1035.1508	3075.1727	918.2	34.95
1035.2597	3076.1882	916.25	34.2
1035.3684	3077.203	915.8	31.45
1035.4772	3078.2173	914.65	29.45
1035.5859	3079.2308	917.4	30.65
1035.6945	3080.2438	917.7	33.7
1035.8031	3081.2561	913.9	30.85
1035.9117	3082.2678	913.9	31.1
1036.0202	3083.2789	914.6	30.8
1036.1286	3084.2893	913.05	33.45
1036.2371	3085.2991	913.2	28.45
1036.3454	3086.3083	917.8	29.35
1036.4538	3087.3169	913.8	29.2
1036.562	3088.3248	912.9	29.7
1036.6703	3089.3321	912.5	28.65
1036.7785	3090.3388	910.55	27.7
1036.8866	3091.3449	913.35	30.4
1036.9948	3092.3503	914.75	30.7
1037.1028	3093.3551	905.1	22.55
1037.2108	3094.3593	908.75	26.75
1037.3188	3095.3629	911.45	29.6
1037.4267	3096.3658	912.2	28.35
1037.5346	3097.3681	909.1	25.75
1037.6425	3098.3698	911.75	26.25
1037.7503	3099.3708	916.35	26.75
1037.858	3100.3713	905.55	23.45
1037.9657	3101.3711	907.9	21.85
1038.0734	3102.3702	1042.45	23.3
1038.181	3103.3688	911.5	26.85
1038.2886	3104.3667	907.9	26.85
1038.3961	3105.364	907.45	25.7
1038.5036	3106.3607	909.1	23.05
1038.611	3107.3568	907.9	24.05
1038.7184	3108.3522	906.95	22.95
1038.8257	3109.347	907.8	24.1
1038.933	3110.3412	910.5	23.65
1039.0403	3111.3348	905.3	23.45
1039.1475	3112.3277	905.6	23
1039.2547	3113.32	906.2	25.15
1039.3618	3114.3117	908.65	24.9
1039.4689	3115.3028	905.65	24.15
1039.5759	3116.2932	905.25	20.35
1039.6829	3117.2831	909.6	20.9
1039.7898	3118.2723	904.15	21.3
1039.8967	3119.2608	904.65	20.2
1040.0035	3120.2488	905.5	22.9
1040.1103	3121.2361	903.6	20.25
1040.2171	3122.2229	904.75	23.7
1040.3238	3123.209	908.1	24.45
1040.4305	3124.1944	906.05	23.7
1040.5371	3125.1793	906.65	23.75
1040.6437	3126.1635	902.15	19.3
1040.7502	3127.1471	903.4	21.4
1040.8567	3128.1301	904.5	21.45
1040.9631	3129.1125	901.15	19.35
1041.0695	3130.0942	902.05	18
1041.1759	3131.0753	911.5	18.8
1041.2822	3132.0558	904.3	17
1041.3884	3133.0357	902.5	18.75
1041.4946	3134.015	902.45	19.5
1041.6008	3134.9936	904.25	20.2
1041.7069	3135.9716	923.55	17.95
1041.813	3136.949	903.25	20.65
1041.919	3137.9258	920.25	18.5
1042.025	3138.902	908.3	18.25
1042.1309	3139.8775	902.4	19.4
1042.2368	3140.8524	902.6	19.8
1042.3427	3141.8267	902.1	16.9
1042.4485	3142.8004	902.6	20.6
1042.5542	3143.7735	907.95	19.6
1042.6599	3144.7459	904.65	21.8
1042.7656	3145.7178	903.2	19
1042.8712	3146.689	899.8	17.7
1042.9768	3147.6596	904.4	18.7
1043.0823	3148.6295	902.3	19.25
1043.1878	3149.5989	900.7	20.2
1043.2932	3150.5676	899.95	18.45
1043.3986	3151.5357	899.85	19.15
1043.5039	3152.5032	898.65	15.9
1043.6092	3153.4701	900.2	19.3
1043.7145	3154.4364	902.75	17.85
1043.8197	3155.402	898.7	15.15
1043.9248	3156.367	901.5	16.8
1044.03	3157.3315	935.5	16.35
1044.135	3158.2952	899.25	17.3
1044.24	3159.2584	897.25	15
1044.345	3160.221	900.55	17.25
1044.4499	3161.1829	899.5	15.95
1044.5548	3162.1442	899	14.7
1044.6596	3163.105	899.7	16.95
1044.7644	3164.065	898.5	17.85
1044.8692	3165.0245	903.6	17.55
1044.9739	3165.9834	896.25	15.5
1045.0785	3166.9416	899.65	15.4
1045.1831	3167.8993	900.8	17.5
1045.2877	3168.8563	898.3	14.7
1045.3922	3169.8127	900.05	19.8
1045.4966	3170.7684	897.15	13.5
1045.6011	3171.7236	898.3	13.5
1045.7054	3172.6782	899.25	17.6
1045.8098	3173.6321	899.05	16.6
1045.914	3174.5854	903.65	17.5
1046.0183	3175.5381	898.05	14.05
1046.1224	3176.4902	898.1	16.9
1046.2266	3177.4417	897.3	13.1
1046.3307	3178.3926	897.25	14.75
1046.4347	3179.3428	897.35	14.25
1046.5387	3180.2924	896.95	15.1
1046.6427	3181.2415	898.5	15.6
1046.7466	3182.1899	900	15.35
1046.8504	3183.1377	897.35	14.35
1046.9542	3184.0848	901.45	15.1
1047.058	3185.0314	899.8	17.5
1047.1617	3185.9773	897.15	13.7
1047.2654	3186.9227	896.85	11.05
1047.369	3187.8674	897.9	17.2
1047.4726	3188.8115	900.75	14.15
1047.5761	3189.755	896.5	14.1
1047.6796	3190.6979	897.35	13.8
1047.783	3191.6402	896.7	13.15
1047.8864	3192.5818	896.75	15.25
1047.9898	3193.5229	903.8	15.1
1048.0931	3194.4633	897.4	15.15
1048.1963	3195.4031	896.65	11.9
1048.2995	3196.3423	896.7	12.3
1048.4027	3197.2809	895.3	12.4
1048.5058	3198.2189	898.05	14.55
1048.6089	3199.1563	902.85	12.6
1048.7119	3200.0931	897.25	16.05
1048.8148	3201.0292	896.8	16.05
1048.9178	3201.9648	895.8	13.1
1049.0206	3202.8997	897.4	12.85
1049.1235	3203.834	898.35	14.85
1049.2262	3204.7677	895.5	12.4
1049.329	3205.7008	896.2	9.6
1049.4317	3206.6333	894.9	11
1049.5343	3207.5652	898.3	12.65
1049.6369	3208.4964	895.95	12.65
1049.7394	3209.4271	894.5	14.5
1049.8419	3210.3571	894.95	11.8
1049.9444	3211.2865	896.7	13.75
1050.0468	3212.2154	895.7	11.75
1050.1491	3213.1436	898.05	11.8
1050.2514	3214.0712	901.25	15.5
1050.3537	3214.9982	895.6	13.65
1050.4559	3215.9246	895.45	10.45
1050.5581	3216.8503	893.2	9.65
1050.6602	3217.7755	893.05	9.35
1050.7623	3218.7001	895.45	12.35
1050.8643	3219.624	896.3	11.7
1050.9663	3220.5473	894.2	10.35
1051.0682	3221.4701	894.9	11.7
1051.1701	3222.3922	896.05	12.1
1051.2719	3223.3137	894.85	15.2
1051.3737	3224.2346	893.75	10.25
1051.4754	3225.1549	894.95	10.8
1051.5771	3226.0746	894.3	13.9
1051.6788	3226.9937	895.45	10.95
1051.7804	3227.9121	893.9	10.75
1051.8819	3228.83	896.6	13.65
1051.9834	3229.7473	893.95	10.75
1052.0849	3230.6639	895	12.5
1052.1863	3231.5799	895.1	13.1
1052.2876	3232.4954	893.3	9.2
1052.3889	3233.4102	893.9	11.7
1052.4902	3234.3244	895.25	12.4
1052.5914	3235.238	892.45	9.95
1052.6926	3236.151	917.4	8.75
1052.7937	3237.0634	893.05	11.05
1052.8948	3237.9752	894.3	11.8
1052.9958	3238.8864	893.15	9.85
1053.0968	3239.797	893.45	13.15
1053.1977	3240.7069	895.6	9.4
1053.2986	3241.6163	896.9	11.9
1053.3994	3242.5251	892.8	11.3
1053.5002	3243.4332	894.05	11.2
1053.6009	3244.3408	895.2	11.4
1053.7016	3245.2477	894.75	11.8
1053.8022	3246.154	893.65	9.25
1053.9028	3247.0598	895.1	11.35
1054.0034	3247.9649	892.45	8.8
1054.1039	3248.8694	893.25	10.95
1054.2043	3249.7733	894	12.5
1054.3047	3250.6766	892.55	8.85
1054.4051	3251.5793	894.6	13.55
1054.5054	3252.4814	893.35	12.1
1054.6056	3253.3829	891.95	8.6
1054.7058	3254.2838	892.05	9.3
1054.806	3255.1841	892.8	9.8
1054.9061	3256.0838	891.45	11.4
1055.0061	3256.9829	891.5	9.1
1055.1062	3257.8814	894.35	8.15
1055.2061	3258.7792	895.15	11
1055.306	3259.6765	893.25	8.6
1055.4059	3260.5731	891.55	10.25
1055.5057	3261.4692	891.9	8.3
1055.6055	3262.3647	892.55	9.5
1055.7052	3263.2595	891.15	9.75
1055.8049	3264.1538	892.3	8.85
1055.9045	3265.0474	892.7	7.9
1056.0041	3265.9404	891.15	7.2
1056.1036	3266.8329	890.4	8.35
1056.2031	3267.7247	901.35	7.75
1056.3025	3268.616	888.6	6.25
1056.4019	3269.5066	890.45	7.5
1056.5013	3270.3966	891.6	7.9
1056.6005	3271.286	890.05	8.65
