Software Version:	3.9.2.0
Unit SN:	10000200
Spectrometer SN:	6960
Date:	3/26/2024 1:02:07 PM
Data Line Index:	25
Spectral Points:	2048
Integration time (ms):	125
Averages:	20
Delay (ms):	30000
Sequence Number:	1
Processing:	dark subtract
Laser Power (mW):	300
Laser Current (mA):	818
Laser Diode Temp (C):	25.1
Laser Case Temp (C):	25.7
System Temp (C):	25.6
Spectrometer Temp (C):	23.4
CCD Temp (C):	0.002
Secondary Temp (C):	20.008
Heatsink Temp (C):	21.383
CCDPCB Temp (C):	36.062
SecondaryPCB Temp (C):	30.015

Wavelength	RamanShift	Raw Counts	Dark Subtracted
787.061	30.1047	425.4	13.05
787.2016	32.3739	424.5	14.7
787.3422	34.6426	427.05	13.55
787.4828	36.9109	428.7	17.85
787.6235	39.1787	433.3	17.35
787.7642	41.4461	440.15	19.5
787.9049	43.7131	444.9	20.15
788.0456	45.9796	449.3	22.4
788.1863	48.2456	453.05	21.95
788.3271	50.5112	457.95	20.75
788.4679	52.7764	459.3	21.95
788.6087	55.0411	466.35	26.1
788.7496	57.3054	472.85	26.9
788.8904	59.5692	478	29.7
789.0313	61.8326	481.25	30.35
789.1722	64.0955	486.85	31.65
789.3132	66.3579	495.6	35.85
789.4541	68.6199	504.4	41.95
789.5951	70.8815	515.8	49.5
789.7361	73.1426	539.1	69.6
789.8771	75.4032	585.6	110.55
790.0181	77.6634	702.2	223.1
790.1592	79.9231	961.55	477.15
790.3003	82.1824	1536.25	1049.2
790.4414	84.4412	2486.65	1994.4
790.5825	86.6995	3758.35	3258
790.7237	88.9574	5021.55	4515.4
790.8648	91.2148	5953.1	5442.3
791.006	93.4717	6442.2	5927.35
791.1472	95.7282	6601.15	6083.4
791.2885	97.9842	6668.5	6146.95
791.4297	100.2398	6675.65	6152.1
791.571	102.4949	6662.95	6136.75
791.7123	104.7495	6640.1	6108.7
791.8536	107.0036	6595.5	6065.15
791.9949	109.2573	6536.5	6007.35
792.1363	111.5105	6477.05	5946.55
792.2777	113.7632	6418.7	5883.85
792.4191	116.0154	6364.75	5820.3
792.5605	118.2672	6309.15	5771.35
792.7019	120.5185	6236.7	5697.95
792.8434	122.7693	6164.15	5624.65
792.9849	125.0197	6102.65	5555.55
793.1264	127.2696	6050.65	5504.1
793.2679	129.519	6019.9	5471.75
793.4094	131.7679	5974.1	5419.8
793.551	134.0163	5973.1	5415.75
793.6926	136.2642	5956.9	5394.55
793.8342	138.5117	5957.7	5387.6
793.9758	140.7587	5932.3	5368.4
794.1175	143.0052	5913.4	5345.8
794.2591	145.2512	5880.65	5313.05
794.4008	147.4967	5820.3	5252.25
794.5425	149.7417	5788.2	5215.2
794.6842	151.9863	5767.5	5193.85
794.826	154.2304	5726.85	5147.95
794.9677	156.4739	5699.45	5115.4
795.1095	158.717	5706.1	5121.75
795.2513	160.9596	5721.85	5132.05
795.3931	163.2017	5723.25	5132.8
795.535	165.4433	5742.35	5149.05
795.6768	167.6844	5727.85	5132.95
795.8187	169.925	5707.95	5108.6
795.9606	172.1651	5653.5	5051.15
796.1025	174.4047	5616	5009.1
796.2445	176.6439	5593.05	4986.6
796.3864	178.8825	5561.9	4951.5
796.5284	181.1206	5546.7	4933
796.6704	183.3582	5526.7	4907.5
796.8124	185.5954	5511.35	4892.9
796.9544	187.832	5513.65	4890.05
797.0965	190.0681	5513.05	4887
797.2386	192.3037	5519.1	4888.8
797.3806	194.5388	5516.15	4883.55
797.5228	196.7734	5508.5	4876
797.6649	199.0075	5540.2	4901.1
797.807	201.2411	5572.65	4931.2
797.9492	203.4742	5571.5	4932.05
798.0914	205.7068	5601.15	4958.7
798.2336	207.9389	5598.8	4957.95
798.3758	210.1704	5632.65	4987.15
798.518	212.4015	5612	4963.05
798.6603	214.632	5612.9	4964.75
798.8025	216.862	5595.15	4958.4
798.9448	219.0915	5598	4964.65
799.0871	221.3205	5596.15	4965.15
799.2294	223.549	5598.25	4972.55
799.3718	225.777	5593	4968.15
799.5141	228.0044	5615.6	4981.7
799.6565	230.2314	5606.45	4978.3
799.7989	232.4578	5571.7	4942.5
799.9413	234.6837	5559.75	4919.05
800.0837	236.909	5562.15	4920.7
800.2262	239.1339	5562	4896.6
800.3687	241.3582	5549.95	4901.2
800.5111	243.582	5560.3	4879.25
800.6536	245.8053	5560.2	4890.7
800.7961	248.0281	5546.95	4886.25
800.9387	250.2503	5553.35	4887.15
801.0812	252.472	5552.1	4880.7
801.2238	254.6932	5561.85	4884.8
801.3664	256.9139	5562.45	4885.05
801.509	259.134	5564.7	4885.7
801.6516	261.3536	5563	4885.15
801.7942	263.5727	5602.85	4921
801.9369	265.7912	5612.55	4933.35
802.0795	268.0092	5637.2	4956.85
802.2222	270.2267	5677.15	4994.75
802.3649	272.4436	5713.6	5029.45
802.5076	274.6601	5754.4	5061.2
802.6504	276.8759	5748.7	5062.3
802.7931	279.0913	5776.2	5086.1
802.9359	281.3061	5776.3	5086.35
803.0787	283.5204	5791.75	5098.75
803.2215	285.7341	5830.95	5133.25
803.3643	287.9473	5855.1	5145.95
803.5071	290.16	5853.5	5149.2
803.6499	292.3721	5799.65	5101.45
803.7928	294.5837	5757.4	5056.95
803.9357	296.7947	5714.85	5016.45
804.0786	299.0052	5705.75	5007.8
804.2215	301.2152	5676.8	4974.45
804.3644	303.4246	5689.55	4989.05
804.5074	305.6334	5663.3	4963.3
804.6503	307.8418	5671.4	4966.9
804.7933	310.0495	5645.15	4940.35
804.9363	312.2568	5609.1	4903.45
805.0793	314.4635	5559	4853
805.2223	316.6696	5527.8	4818.45
805.3653	318.8752	5478.05	4760.75
805.5084	321.0802	5435.45	4726.1
805.6514	323.2847	5421.5	4711.1
805.7945	325.4887	5398.35	4687.55
805.9376	327.692	5413.5	4700.15
806.0807	329.8949	5435.4	4719.6
806.2238	332.0972	5471.65	4755.2
806.367	334.2989	5517.3	4795.75
806.5101	336.5001	5509.2	4787.8
806.6533	338.7007	5511.9	4793.35
806.7965	340.9008	5483.05	4759.05
806.9397	343.1003	5420.55	4696.1
807.0829	345.2992	5383.05	4657.8
807.2261	347.4976	5337.5	4607.8
807.3693	349.6955	5304.9	4573.3
807.5126	351.8927	5298.95	4565.9
807.6559	354.0895	5277.4	4535.35
807.7991	356.2856	5255	4522.4
807.9424	358.4812	5268.15	4532.25
808.0857	360.6763	5243.4	4509.5
808.2291	362.8707	5219.55	4483.75
808.3724	365.0646	5246.5	4508.5
808.5158	367.258	5246.2	4506.35
808.6591	369.4508	5221.55	4478.45
808.8025	371.643	5263.6	4520.15
808.9459	373.8346	5277.75	4529.3
809.0893	376.0257	5304.25	4554.3
809.2327	378.2162	5347.7	4596.55
809.3762	380.4062	5354.65	4600.4
809.5196	382.5956	5324.9	4570.75
809.6631	384.7844	5275.85	4520.1
809.8066	386.9726	5233.55	4476.95
809.9501	389.1603	5189.05	4434.2
810.0936	391.3474	5197.95	4404.35
810.2371	393.5339	5168.2	4416.55
810.3806	395.7199	5159.75	4410.75
810.5241	397.9052	5163.75	4418.55
810.6677	400.09	5204.35	4458.55
810.8113	402.2743	5222.65	4476.15
810.9548	404.4579	5242.5	4498
811.0984	406.641	5293.55	4546.65
811.2421	408.8235	5301.4	4553.7
811.3857	411.0054	5351.15	4602.5
811.5293	413.1868	5463.65	4708.25
811.673	415.3675	5590.15	4834.8
811.8166	417.5477	5627.65	4870.9
811.9603	419.7273	5558.85	4798.1
812.104	421.9064	5414.1	4644.85
812.2477	424.0848	5322.15	4555.85
812.3914	426.2627	5242.65	4475.05
812.5351	428.4399	5211.45	4442.8
812.6788	430.6166	5162.85	4391
812.8226	432.7928	5104.7	4332.6
812.9663	434.9683	5057.6	4286.55
813.1101	437.1432	5029.05	4255.35
813.2539	439.3176	5007.25	4233.3
813.3977	441.4914	4981.55	4207.05
813.5415	443.6645	4961.25	4184.8
813.6853	445.8371	4958.95	4180.1
813.8291	448.0091	4957.2	4182.15
813.973	450.1806	4941.5	4165.2
814.1168	452.3514	4919	4138.05
814.2607	454.5216	4939.25	4150.9
814.4046	456.6913	4920.25	4139.75
814.5485	458.8603	4920.35	4139.4
814.6924	461.0288	4918.8	4138.4
814.8363	463.1967	4909.9	4130.4
814.9802	465.3639	4917.2	4134.25
815.1241	467.5306	4912.2	4127.6
815.2681	469.6967	4888.8	4105.9
815.412	471.8622	4882.4	4098.65
815.556	474.0271	4884	4100.55
815.7	476.1914	4874.85	4088.1
815.844	478.3551	4874.05	4087.6
815.988	480.5182	4864.2	4076.2
816.132	482.6807	4882.05	4095.5
816.276	484.8426	4883.15	4097
816.4201	487.0039	4921.35	4133.9
816.5641	489.1647	4978.3	4187.8
816.7082	491.3248	5010.7	4221.85
816.8522	493.4843	5021.1	4233.05
816.9963	495.6432	5031.2	4243.85
817.1404	497.8015	4974.25	4179.55
817.2845	499.9592	4950.85	4158.5
817.4286	502.1163	4910.05	4118.6
817.5727	504.2728	4865.2	4069.55
817.7168	506.4287	4859.9	4067.35
817.861	508.5839	4835.45	4043.6
818.0051	510.7386	4847.4	4053.4
818.1493	512.8927	4849.05	4044.7
818.2935	515.0461	4849.6	4052.6
818.4377	517.199	4854.95	4058.75
818.5818	519.3512	4864.25	4067.9
818.726	521.5029	4915.75	4113.8
818.8703	523.6539	4975.25	4178.8
819.0145	525.8043	4991.65	4192.4
819.1587	527.9541	4955.55	4152.75
819.303	530.1033	4901.1	4100.25
819.4472	532.2519	4837.35	4035.2
819.5915	534.3999	4817.9	4015
819.7357	536.5472	4795	3991
819.88	538.694	4811.65	4007.55
820.0243	540.8401	4819.4	4016.6
820.1686	542.9856	4847.25	4040.95
820.3129	545.1305	4844	4037.3
820.4572	547.2748	4877.25	4069.7
820.6016	549.4185	4890.5	4080.9
820.7459	551.5615	4886.35	4080
820.8902	553.704	4888.1	4082.35
821.0346	555.8458	4902.9	4094.95
821.1789	557.987	4894.05	4084.6
821.3233	560.1276	4923.25	4112.35
821.4677	562.2675	4984.9	4175.55
821.6121	564.4069	5031.55	4219.85
821.7565	566.5456	5078.45	4266.05
821.9009	568.6837	5056.75	4245.45
822.0453	570.8212	4981.5	4172.4
822.1897	572.958	4931.85	4118.1
822.3342	575.0942	4889.95	4079.8
822.4786	577.2299	4866.9	4054.5
822.6231	579.3648	4844.1	4033.15
822.7675	581.4992	4804.9	3993.7
822.912	583.6329	4770.85	3959.8
823.0565	585.766	4803.4	3993.25
823.201	587.8985	4790	3978
823.3454	590.0304	4855.7	4033
823.4899	592.1616	4884.6	4068.95
823.6345	594.2922	4887	4073.75
823.779	596.4222	4864.55	4048.9
823.9235	598.5515	4815	3997.35
824.068	600.6802	4756.9	3940.8
824.2126	602.8083	4705.15	3886.55
824.3571	604.9358	4684.6	3867.35
824.5017	607.0626	4682.05	3863.6
824.6462	609.1888	4700.35	3879
824.7908	611.3144	4702.7	3880.7
824.9354	613.4393	4715	3893.85
825.08	615.5636	4750.5	3930.2
825.2246	617.6873	4794.95	3976.6
825.3692	619.8103	4827.95	4005.8
825.5138	621.9327	4838.05	4016.95
825.6584	624.0544	4830.05	4009.85
825.803	626.1756	4789.25	3967.1
825.9477	628.2961	4732.2	3908.3
826.0923	630.4159	4718.35	3893.35
826.237	632.5351	4705.6	3882.95
826.3816	634.6537	4684.85	3860.45
826.5263	636.7716	4678.4	3851.4
826.6709	638.8889	4661.7	3835.4
826.8156	641.0056	4688.05	3860.75
826.9603	643.1216	4682.35	3853.95
827.105	645.237	4691.6	3860.7
827.2497	647.3518	4673.9	3847.3
827.3944	649.4659	4673.65	3844.5
827.5391	651.5793	4641.1	3813.2
827.6838	653.6922	4623.85	3795.15
827.8285	655.8043	4605.25	3778.6
827.9733	657.9159	4584.05	3752.4
828.118	660.0268	4594.15	3761.5
828.2627	662.137	4568.25	3736.15
828.4075	664.2466	4581.2	3748.35
828.5522	666.3556	4579.5	3751
828.697	668.4639	4569.4	3735.55
828.8418	670.5716	4556.05	3724.75
828.9865	672.6786	4551.8	3719.45
829.1313	674.785	4549.4	3717.65
829.2761	676.8907	4543.95	3711.2
829.4209	678.9958	4532.55	3700.4
829.5657	681.1002	4542.95	3709.55
829.7105	683.204	4538.05	3701.5
829.8553	685.3072	4525.35	3689.05
830.0001	687.4097	4523.9	3689.3
830.1449	689.5115	4529.05	3691.8
830.2898	691.6127	4533.1	3697.85
830.4346	693.7132	4514.7	3678
830.5794	695.8131	4537.85	3685.55
830.7243	697.9123	4520.75	3681.25
830.8691	700.0109	4505.9	3669.2
831.014	702.1089	4520.05	3682.2
831.1588	704.2061	4535.6	3697.9
831.3037	706.3028	4536.35	3696.5
831.4486	708.3987	4567.9	3729.75
831.5935	710.4941	4573.55	3735.15
831.7383	712.5887	4591.45	3751.15
831.8832	714.6827	4566.3	3723.25
832.0281	716.7761	4562.75	3724.05
832.173	718.8688	4562	3720.1
832.3179	720.9608	4569.2	3724.1
832.4628	723.0522	4553.85	3709.9
832.6077	725.1429	4564.3	3724.95
832.7527	727.233	4593.75	3752.85
832.8976	729.3224	4660.8	3819.1
833.0425	731.4112	4674.25	3832.05
833.1874	733.4993	4703.9	3859
833.3324	735.5867	4677.85	3834.8
833.4773	737.6735	4628.65	3784.05
833.6222	739.7596	4562.4	3718.2
833.7672	741.845	4545.5	3699.85
833.9122	743.9298	4540.6	3692.2
834.0571	746.014	4546.2	3704.1
834.2021	748.0974	4574.1	3726.2
834.347	750.1802	4567.6	3721.95
834.492	752.2624	4550.55	3704.1
834.637	754.3439	4526.75	3677.45
834.782	756.4247	4502.1	3646.2
834.9269	758.5048	4466	3619.7
835.0719	760.5843	4474.85	3627.9
835.2169	762.6631	4477.85	3630.55
835.3619	764.7413	4505.95	3658.85
835.5069	766.8188	4561.85	3713.7
835.6519	768.8956	4614.65	3763.5
835.7969	770.9718	4684.95	3838.65
835.9419	773.0473	4660.2	3813
836.0869	775.1221	4622.55	3775.7
836.232	777.1962	4593.65	3746.25
836.377	779.2697	4628.3	3776.45
836.522	781.3426	4737.15	3869.35
836.667	783.4147	4775	3924.75
836.8121	785.4862	4779.6	3931.75
836.9571	787.557	4719.55	3870.9
837.1021	789.6271	4607.6	3757.8
837.2472	791.6966	4517.4	3666.2
837.3922	793.7654	4405.6	3554.05
837.5373	795.8335	4335.1	3483.3
837.6823	797.901	4301.8	3450.15
837.8274	799.9678	4307.55	3453.65
837.9724	802.0339	4292	3439.7
838.1175	804.0993	4296.1	3435.6
838.2626	806.1641	4282.75	3427.6
838.4076	808.2282	4265.85	3414.75
838.5527	810.2916	4249.2	3392.85
838.6978	812.3544	4230.65	3380.1
838.8428	814.4164	4219.1	3369.75
838.9879	816.4778	4226.65	3371.45
839.133	818.5385	4212.5	3357.7
839.2781	820.5986	4229.6	3376.5
839.4232	822.658	4274.55	3420.3
839.5682	824.7166	4313.6	3459.35
839.7133	826.7747	4388.35	3535
839.8584	828.832	4437.55	3583.35
840.0035	830.8886	4491	3635.8
840.1486	832.9446	4515.9	3661.05
840.2937	834.9999	4489.2	3636
840.4388	837.0545	4442.45	3584.35
840.5839	839.1085	4370.55	3512.5
840.729	841.1618	4299.5	3437.85
840.8741	843.2143	4240.8	3385.55
841.0192	845.2662	4213.7	3360.1
841.1643	847.3175	4194.7	3339.5
841.3095	849.368	4174.65	3320.4
841.4546	851.4179	4161.2	3303.85
841.5997	853.467	4146.7	3289.6
841.7448	855.5155	4143.3	3286.6
841.8899	857.5633	4145.7	3289.55
842.0351	859.6105	4144.65	3288.25
842.1802	861.6569	4136.65	3278.85
842.3253	863.7027	4112	3253.9
842.4704	865.7478	4112	3253.25
842.6156	867.7922	4074.65	3216.8
842.7607	869.8359	4058.55	3199.7
842.9058	871.8789	4050.65	3192.2
843.0509	873.9212	4075.5	3184.4
843.1961	875.9629	4061.7	3204.9
843.3412	878.0039	4053.9	3193.6
843.4863	880.0441	4045.1	3185.05
843.6315	882.0837	4070.25	3210.35
843.7766	884.1226	4083.75	3221.25
843.9218	886.1609	4111	3250.35
844.0669	888.1984	4139.7	3281.9
844.212	890.2352	4180.95	3322.8
844.3572	892.2714	4186.4	3321.9
844.5023	894.3069	4173.55	3311.5
844.6475	896.3416	4118.7	3255.95
844.7926	898.3757	4086.15	3226.1
844.9377	900.4091	4049.65	3189.25
845.0829	902.4418	4053.1	3184.95
845.228	904.4739	4058.5	3194.4
845.3732	906.5052	4067.5	3206.25
845.5183	908.5358	4063.15	3202.95
845.6635	910.5658	4037.8	3173.95
845.8086	912.595	4003.25	3140.5
845.9538	914.6236	3970.8	3109.8
846.0989	916.6515	3935.75	3074.35
846.2441	918.6786	3918.55	3053.5
846.3892	920.7051	3899.8	3033.9
846.5344	922.7309	3898	3033.75
846.6795	924.756	3888.7	3022.65
846.8246	926.7804	3880.7	3016.9
846.9698	928.8041	3872.9	3006.6
847.1149	930.8272	3883.9	3019.1
847.2601	932.8495	3882.8	3017.3
847.4052	934.8711	3881.05	3016.2
847.5504	936.892	3880.8	3017.55
847.6955	938.9123	3903.75	3037.4
847.8407	940.9318	3898.25	3034.2
847.9858	942.9506	3925.85	3060
848.131	944.9688	3910.7	3044.65
848.2761	946.9862	3875.6	3009
848.4213	949.003	3856.45	2991.35
848.5664	951.019	3818.45	2950.9
848.7115	953.0344	3801.6	2936.7
848.8567	955.0491	3795.5	2927.25
849.0018	957.063	3761.55	2896.1
849.147	959.0763	3759.85	2887.15
849.2921	961.0888	3750.9	2882.5
849.4373	963.1007	3742.1	2875.15
849.5824	965.1119	3753.4	2887.2
849.7275	967.1223	3740.85	2874.3
849.8727	969.1321	3710.2	2845.9
850.0178	971.1412	3697	2831.9
850.1629	973.1495	3685.6	2820.55
850.3081	975.1572	3715.25	2814.65
850.4532	977.1641	3689.8	2823.4
850.5983	979.1704	3675.4	2807.2
850.7435	981.1759	3664.3	2793.3
850.8886	983.1808	3664.7	2794.5
851.0337	985.1849	3660.65	2782.1
851.1788	987.1884	3638.25	2769.9
851.324	989.1911	3634.75	2764.35
851.4691	991.1932	3628.55	2758.3
851.6142	993.1945	3622	2753.6
851.7593	995.1951	3605.45	2736
851.9045	997.1951	3613.9	2741.2
852.0496	999.1943	3596.4	2727.75
852.1947	1001.1928	3584.35	2714.15
852.3398	1003.1906	3572.2	2702
852.4849	1005.1877	3586.8	2716.4
852.63	1007.1841	3604.35	2735.6
852.7751	1009.1798	3615.3	2745.6
852.9202	1011.1748	3593.25	2723.9
853.0653	1013.1691	3577.95	2708.55
853.2104	1015.1627	3547.1	2677.5
853.3555	1017.1556	3476.3	2606.1
853.5006	1019.1477	3461.6	2588.6
853.6457	1021.1392	3440.65	2570.8
853.7908	1023.1299	3425.3	2555.05
853.9359	1025.12	3421.8	2551.5
854.081	1027.1093	3406.6	2537.85
854.2261	1029.0979	3407.9	2540.45
854.3712	1031.0859	3427.1	2556.7
854.5163	1033.0731	3414.2	2544.05
854.6613	1035.0596	3412.85	2545
854.8064	1037.0454	3395.05	2523.55
854.9515	1039.0304	3392.55	2520.45
855.0965	1041.0148	3353.4	2480.65
855.2416	1042.9985	3329.05	2457.6
855.3867	1044.9814	3327.05	2458.9
855.5317	1046.9636	3316.15	2445.4
855.6768	1048.9452	3300.3	2429.4
855.8219	1050.926	3307.75	2436.15
855.9669	1052.9061	3312.7	2439.35
856.112	1054.8855	3330.9	2458.9
856.257	1056.8642	3317.8	2444.9
856.4021	1058.8421	3318.75	2444.7
856.5471	1060.8194	3299.3	2425.6
856.6921	1062.7959	3285.75	2412.7
856.8372	1064.7717	3278.2	2403.95
856.9822	1066.7469	3277.7	2405.65
857.1272	1068.7213	3273.5	2397.1
857.2723	1070.695	3287.55	2415.4
857.4173	1072.6679	3269.5	2395.4
857.5623	1074.6402	3303.05	2430.85
857.7073	1076.6117	3321.85	2442.35
857.8523	1078.5826	3306.35	2433.85
857.9973	1080.5527	3267.25	2389.05
858.1423	1082.5221	3215.05	2340.1
858.2873	1084.4908	3186.7	2312.6
858.4323	1086.4587	3172.25	2298.35
858.5773	1088.426	3157.8	2283.1
858.7223	1090.3925	3144.8	2266.75
858.8673	1092.3584	3132.1	2259.65
859.0123	1094.3235	3138.85	2265.4
859.1573	1096.2879	3159.5	2284.65
859.3022	1098.2515	3160.05	2285.4
859.4472	1100.2145	3167	2291.6
859.5922	1102.1767	3195	2318.05
859.7371	1104.1382	3228.1	2353
859.8821	1106.099	3265.25	2389.25
860.027	1108.0591	3291.85	2416.5
860.172	1110.0185	3332.4	2456.4
860.3169	1111.9771	3343.8	2468.5
860.4619	1113.9351	3385.75	2508.05
860.6068	1115.8923	3438	2562.25
860.7517	1117.8488	3460.7	2582.2
860.8967	1119.8045	3440.8	2566.95
861.0416	1121.7596	3366.45	2488.95
861.1865	1123.7139	3261.55	2388.5
861.3314	1125.6675	3191.4	2316.5
861.4763	1127.6204	3183.6	2307.4
861.6212	1129.5726	3181.35	2302.85
861.7661	1131.524	3192.2	2316.4
861.911	1133.4748	3156.6	2279.95
862.0559	1135.4248	3105.05	2226.75
862.2008	1137.3741	3055.7	2179.65
862.3457	1139.3226	3018.3	2137.7
862.4905	1141.2705	3006.95	2131.75
862.6354	1143.2176	3010.85	2129.05
862.7803	1145.164	3027	2152.15
862.9251	1147.1097	3015.95	2139.4
863.07	1149.0546	3008.75	2132.1
863.2148	1150.9989	2976.6	2099.1
863.3597	1152.9424	2958.9	2082.3
863.5045	1154.8852	2928.8	2052.25
863.6493	1156.8272	2931.5	2056.05
863.7942	1158.7686	2941.05	2054.7
863.939	1160.7092	2918.8	2041.95
864.0838	1162.6491	2913.9	2035.6
864.2286	1164.5883	2916.85	2041.45
864.3734	1166.5267	2907.8	2028.35
864.5182	1168.4644	2933.45	2055.85
864.663	1170.4014	2960.1	2077.55
864.8078	1172.3377	2977.5	2102.7
864.9526	1174.2732	3013.15	2135.25
865.0974	1176.2081	3073.7	2195.6
865.2421	1178.1421	3169.35	2289.4
865.3869	1180.0755	3273.25	2395.05
865.5317	1182.0082	3340.4	2463.85
865.6764	1183.9401	3354.25	2474.4
865.8212	1185.8713	3279.4	2401.05
865.9659	1187.8017	3154.5	2277.2
866.1106	1189.7315	3063.15	2187.55
866.2554	1191.6605	2970.55	2095.7
866.4001	1193.5888	2934.3	2058
866.5448	1195.5163	2898.05	2020.4
866.6895	1197.4432	2872.55	1994.55
866.8342	1199.3693	2825.75	1948.7
866.9789	1201.2947	2830.7	1944.6
867.1236	1203.2193	2808.6	1930.35
867.2683	1205.1432	2794.3	1915.45
867.413	1207.0664	2792.1	1912.15
867.5576	1208.9889	2794.45	1912.85
867.7023	1210.9106	2771.7	1893.5
867.847	1212.8316	2775.45	1898.95
867.9916	1214.7519	2786.65	1900.3
868.1363	1216.6715	2766	1887.9
868.2809	1218.5903	2780.45	1901.3
868.4255	1220.5084	2793.65	1914.3
868.5701	1222.4257	2795.85	1915.75
868.7148	1224.3424	2797	1921.35
868.8594	1226.2583	2809.65	1924.75
869.004	1228.1735	2825.3	1944.45
869.1486	1230.0879	2844.05	1962.2
869.2932	1232.0016	2868.3	1992.5
869.4377	1233.9146	2907.2	2023.65
869.5823	1235.8269	2898.2	2018.1
869.7269	1237.7384	2915.1	2035.5
869.8715	1239.6492	2903.35	2023
870.016	1241.5592	2897.15	2020.55
870.1606	1243.4686	2917.85	2037.3
870.3051	1245.3772	2969.45	2088.7
870.4496	1247.285	3041.55	2159.4
870.5941	1249.1922	3110.25	2229.6
870.7387	1251.0986	3174.3	2295.8
870.8832	1253.0042	3224.1	2343.95
871.0277	1254.9092	3285.65	2406.45
871.1722	1256.8134	3362.65	2484.25
871.3167	1258.7169	3447.4	2566.05
871.4611	1260.6196	3511.3	2630.35
871.6056	1262.5216	3539.15	2657.6
871.7501	1264.4229	3553.8	2674.4
871.8945	1266.3234	3532.7	2652.9
872.039	1268.2232	3474.15	2592.2
872.1834	1270.1223	3416.15	2534.9
872.3278	1272.0207	3370.6	2490.25
872.4723	1273.9183	3360.15	2474.65
872.6167	1275.8151	3346.1	2465.3
872.7611	1277.7113	3357.45	2475.2
872.9055	1279.6067	3402.8	2524.75
873.0499	1281.5014	3510.05	2629.05
873.1943	1283.3953	3682	2798.3
873.3386	1285.2885	3857.6	2977.1
873.483	1287.181	4005.4	3121.55
873.6274	1289.0727	4096.75	3217.85
873.7717	1290.9637	4055.6	3173.15
873.9161	1292.854	3962.15	3081.2
874.0604	1294.7435	3832.3	2949.95
874.2047	1296.6323	3692.55	2811.45
874.349	1298.5204	3579.2	2691.65
874.4933	1300.4077	3524.35	2643.85
874.6376	1302.2943	3452.6	2571.75
874.7819	1304.1802	3423.4	2542.25
874.9262	1306.0653	3379.2	2496.95
875.0705	1307.9497	3360.35	2478.55
875.2147	1309.8333	3333.15	2452.45
875.359	1311.7162	3304	2422.6
875.5032	1313.5984	3293.1	2405.8
875.6475	1315.4798	3279.1	2379.9
875.7917	1317.3605	3258.75	2370.45
875.9359	1319.2405	3283.7	2401.05
876.0801	1321.1197	3274.55	2391.75
876.2243	1322.9982	3258.95	2373.65
876.3685	1324.876	3216.95	2335.6
876.5127	1326.753	3133.55	2251.05
876.6569	1328.6293	3055.25	2171.1
876.801	1330.5048	2973.55	2089.8
876.9452	1332.3796	2878.25	1996.95
877.0893	1334.2537	2844.2	1938.25
877.2335	1336.127	2776.4	1894
877.3776	1337.9996	2738.35	1856.45
877.5217	1339.8714	2707.9	1827.35
877.6658	1341.7426	2734.7	1810.05
877.8099	1343.6129	2686.5	1805.3
877.954	1345.4826	2658.6	1775.85
878.0981	1347.3515	2652.8	1766.45
878.2422	1349.2196	2639	1757.1
878.3862	1351.087	2616.7	1733.65
878.5303	1352.9537	2619.15	1736.35
878.6743	1354.8197	2610.3	1728.3
878.8184	1356.6849	2612.75	1730.7
878.9624	1358.5493	2623.35	1741.4
879.1064	1360.4131	2644.05	1760.95
879.2504	1362.276	2670.8	1788.85
879.3944	1364.1383	2705.95	1824.8
879.5384	1365.9998	2711.65	1821.65
879.6823	1367.8606	2706.35	1823.4
879.8263	1369.7206	2675.75	1793.7
879.9702	1371.5799	2686.85	1803.3
880.1142	1373.4384	2674.2	1790.1
880.2581	1375.2962	2671.9	1785.65
880.402	1377.1533	2616.75	1735.1
880.5459	1379.0096	2563.9	1678.45
880.6898	1380.8652	2552.4	1668.6
880.8337	1382.7201	2513	1629.9
880.9776	1384.5742	2479.8	1597.45
881.1215	1386.4275	2457.55	1572.5
881.2653	1388.2802	2430.55	1548.6
881.4092	1390.132	2419.5	1535.8
881.553	1391.9832	2414.45	1532.7
881.6968	1393.8336	2401.95	1518.1
881.8406	1395.6832	2391.35	1505.2
881.9844	1397.5322	2378	1494.8
882.1282	1399.3803	2371.55	1486.55
882.272	1401.2278	2352.55	1469.25
882.4158	1403.0745	2337.9	1454.65
882.5595	1404.9204	2327.3	1443.7
882.7033	1406.7656	2322.35	1438.1
882.847	1408.6101	2318.45	1433.7
882.9908	1410.4538	2308.5	1425.45
883.1345	1412.2968	2316.05	1432.8
883.2782	1414.139	2310.65	1426.65
883.4219	1415.9805	2300.65	1416.75
883.5656	1417.8213	2315.35	1413.75
883.7092	1419.6613	2319.75	1437.8
883.8529	1421.5006	2339.6	1454.7
883.9965	1423.3391	2361.8	1477.6
884.1402	1425.1769	2406.3	1520.75
884.2838	1427.0139	2465.5	1581.55
884.4274	1428.8502	2534.75	1650.55
884.571	1430.6858	2593.4	1711.1
884.7146	1432.5206	2624.1	1740.65
884.8582	1434.3547	2625.7	1741.55
885.0018	1436.188	2599.9	1717.05
885.1453	1438.0206	2578.25	1694.3
885.2889	1439.8524	2570.05	1685.95
885.4324	1441.6835	2573.05	1687.8
885.5759	1443.5139	2567.5	1680.6
885.7194	1445.3435	2560.85	1676.65
885.8629	1447.1724	2567.2	1682.8
886.0064	1449.0005	2564.55	1679.3
886.1499	1450.8279	2549.2	1663.85
886.2933	1452.6545	2547.1	1662.8
886.4368	1454.4804	2539.3	1656.6
886.5802	1456.3056	2538.75	1648.35
886.7237	1458.13	2514.35	1633.7
886.8671	1459.9536	2498.65	1613.05
887.0105	1461.7766	2472.35	1589.7
887.1539	1463.5987	2443.65	1558.75
887.2972	1465.4202	2401.65	1516.8
887.4406	1467.2409	2367.6	1481.7
887.584	1469.0608	2341	1456.8
887.7273	1470.88	2300.4	1415.4
887.8706	1472.6984	2272	1387.2
888.0139	1474.5161	2250	1363.2
888.1572	1476.3331	2231.7	1348.45
888.3005	1478.1493	2221.5	1336.75
888.4438	1479.9648	2215.1	1333.6
888.5871	1481.7795	2208.95	1325.6
888.7303	1483.5935	2227.8	1344.05
888.8736	1485.4067	2208.55	1324.85
889.0168	1487.2192	2206.55	1321.7
889.16	1489.031	2219.8	1334.35
889.3032	1490.842	2217.15	1332.95
889.4464	1492.6522	2215.85	1332.05
889.5896	1494.4618	2205.4	1317.75
889.7327	1496.2705	2204.65	1321.25
889.8759	1498.0785	2194.5	1310.15
890.019	1499.8858	2186.4	1301.25
890.1622	1501.6924	2168.05	1285.25
890.3053	1503.4981	2167.35	1282.35
890.4484	1505.3032	2169.6	1284.95
890.5914	1507.1075	2151.8	1265.4
890.7345	1508.911	2154.5	1269.15
890.8776	1510.7138	2145.7	1261.3
891.0206	1512.5159	2134.85	1247.95
891.1637	1514.3172	2124.85	1242.8
891.3067	1516.1178	2115.5	1231.65
891.4497	1517.9176	2113.8	1225.1
891.5927	1519.7166	2108.4	1226.8
891.7357	1521.515	2111.15	1220.85
891.8786	1523.3126	2093.8	1209.25
892.0216	1525.1094	2083.1	1196.4
892.1645	1526.9055	2064.4	1179.95
892.3074	1528.7008	2068.3	1183.65
892.4503	1530.4954	2065.05	1178.9
892.5932	1532.2893	2059.3	1175.7
892.7361	1534.0824	2051.65	1162.65
892.879	1535.8747	2042.95	1156.5
893.0218	1537.6663	2041.15	1155.8
893.1647	1539.4572	2045.25	1161.4
893.3075	1541.2473	2023.7	1137.95
893.4503	1543.0367	2020.05	1135.1
893.5931	1544.8253	2019.15	1130.8
893.7359	1546.6132	2027.7	1138.9
893.8787	1548.4003	2044.35	1151.85
894.0214	1550.1867	2041.1	1147.4
894.1642	1551.9723	2041.05	1151.15
894.3069	1553.7572	2050.6	1164.95
894.4496	1555.5414	2057.2	1172.65
894.5923	1557.3247	2065	1180.25
894.735	1559.1074	2097.35	1215.8
894.8777	1560.8893	2116.5	1233
895.0204	1562.6705	2164.8	1280
895.163	1564.4509	2190.15	1305.65
895.3056	1566.2305	2204.4	1319.25
895.4482	1568.0094	2201	1318.1
895.5908	1569.7876	2202.6	1319.05
895.7334	1571.565	2200.25	1315.75
895.876	1573.3417	2198.55	1314.8
896.0186	1575.1176	2201.1	1316.95
896.1611	1576.8928	2214.85	1330.75
896.3036	1578.6672	2212.5	1330.85
896.4461	1580.4409	2238.5	1353.5
896.5886	1582.2138	2279.9	1393.75
896.7311	1583.986	2320.7	1433.8
896.8736	1585.7575	2344	1460.85
897.0161	1587.5282	2379.35	1497.2
897.1585	1589.2981	2398.65	1514.5
897.3009	1591.0673	2420.6	1536.65
897.4433	1592.8358	2423.15	1539.15
897.5857	1594.6035	2418.9	1533.15
897.7281	1596.3704	2401.75	1516.2
897.8705	1598.1366	2381.5	1497.85
898.0128	1599.9021	2352.15	1467.65
898.1551	1601.6668	2320.05	1434.3
898.2975	1603.4308	2296.7	1412.8
898.4398	1605.194	2299.25	1411.2
898.5821	1606.9564	2308.15	1425.15
898.7243	1608.7182	2347.65	1459.35
898.8666	1610.4791	2416.8	1532.55
899.0088	1612.2394	2505.85	1623.85
899.1511	1613.9988	2594.75	1711.25
899.2933	1615.7576	2703.4	1818.9
899.4355	1617.5156	2766.85	1876.75
899.5776	1619.2728	2745.9	1860.1
899.7198	1621.0293	2666.4	1783.15
899.862	1622.785	2575.05	1687.4
900.0041	1624.54	2457.1	1572.25
900.1462	1626.2942	2330.15	1445.2
900.2883	1628.0477	2227.9	1341.2
900.4304	1629.8005	2147.7	1259.85
900.5725	1631.5525	2089.2	1206.25
900.7145	1633.3037	2024.25	1140.6
900.8566	1635.0542	1970.05	1084.95
900.9986	1636.804	1946.9	1062.55
901.1406	1638.553	1957.65	1023.35
901.2826	1640.3013	1897.55	1013.3
901.4245	1642.0488	1866	980.25
901.5665	1643.7955	1870.8	987.75
901.7085	1645.5416	1837.35	951.7
901.8504	1647.2868	1833.05	948.9
901.9923	1649.0313	1818.65	934.8
902.1342	1650.7751	1822.6	933.95
902.2761	1652.5181	1807.2	924
902.4179	1654.2604	1810.95	924.7
902.5598	1656.0019	1812.65	929.9
902.7016	1657.7427	1809.85	925.85
902.8434	1659.4828	1822.5	939.15
902.9852	1661.222	1846.95	959.85
903.127	1662.9606	1877.5	994.1
903.2687	1664.6984	1900.65	1014.2
903.4105	1666.4354	1933.6	1048.05
903.5522	1668.1717	1926.75	1043.25
903.6939	1669.9072	1888.15	1003.2
903.8356	1671.642	1852.5	964.5
903.9773	1673.3761	1811.6	927
904.119	1675.1094	1771.35	888.15
904.2606	1676.8419	1734.85	849.65
904.4022	1678.5737	1727.4	841.25
904.5439	1680.3048	1710.9	828.6
904.6855	1682.0351	1706.5	822.45
904.827	1683.7646	1697	807.7
904.9686	1685.4934	1689.75	805.05
905.1101	1687.2215	1678.05	792.15
905.2517	1688.9488	1674.25	789.4
905.3932	1690.6754	1669.4	786.05
905.5347	1692.4012	1666.75	782.7
905.6761	1694.1263	1663.3	778.1
905.8176	1695.8506	1654.5	769.7
905.9591	1697.5742	1658.2	775
906.1005	1699.297	1647.1	762.35
906.2419	1701.0191	1645.1	759.75
906.3833	1702.7404	1633.3	748.75
906.5246	1704.461	1638.35	752.05
906.666	1706.1808	1634	747.5
906.8073	1707.8999	1636.2	750.05
906.9487	1709.6182	1617.25	730.85
907.09	1711.3358	1621.5	737.7
907.2313	1713.0527	1622.9	739.3
907.3725	1714.7688	1619.15	730.3
907.5138	1716.4841	1610.35	724.15
907.655	1718.1987	1617	728.15
907.7962	1719.9126	1603.3	721.2
907.9374	1721.6257	1603	715.3
908.0786	1723.338	1592.9	707
908.2198	1725.0496	1595.75	710.55
908.3609	1726.7605	1597.7	712.35
908.502	1728.4706	1593.5	707.75
908.6431	1730.18	1582.35	694.8
908.7842	1731.8886	1576.7	693.05
908.9253	1733.5964	1595.3	706.15
909.0664	1735.3036	1592.25	706.25
909.2074	1737.0099	1586.6	703.4
909.3484	1738.7156	1582.65	699.25
909.4894	1740.4204	1580.15	693.35
909.6304	1742.1246	1584.15	697.7
909.7714	1743.8279	1573.55	689.45
909.9123	1745.5306	1575.85	689.8
910.0532	1747.2325	1575.15	691.85
910.1941	1748.9336	1567.05	682.45
910.335	1750.634	1567	681.85
910.4759	1752.3336	1565.55	679.95
910.6168	1754.0325	1563.35	680.45
910.7576	1755.7307	1559.15	673.7
910.8984	1757.4281	1562.05	677.15
911.0392	1759.1247	1566.2	670.95
911.18	1760.8206	1568.85	678.8
911.3208	1762.5158	1561.3	672.95
911.4615	1764.2102	1561.9	680.1
911.6022	1765.9039	1568.15	683.75
911.7429	1767.5968	1559.65	676.8
911.8836	1769.289	1548.9	663.7
912.0243	1770.9804	1543.85	656.4
912.1649	1772.6711	1546.85	662.6
912.3056	1774.361	1546.15	659.95
912.4462	1776.0502	1538.75	651.75
912.5868	1777.7386	1551.45	662.8
912.7274	1779.4263	1545.8	661.2
912.8679	1781.1132	1540.1	656.8
913.0084	1782.7994	1537.05	650.65
913.149	1784.4849	1535.75	651.35
913.2895	1786.1696	1537.2	646.15
913.4299	1787.8535	1534.4	650.35
913.5704	1789.5367	1530	646.15
913.7108	1791.2192	1530	645.4
913.8513	1792.9009	1550.7	638.9
913.9917	1794.5818	1525.95	639.95
914.132	1796.2621	1521.8	638.8
914.2724	1797.9415	1525.75	641.9
914.4128	1799.6202	1524.5	639.05
914.5531	1801.2982	1516.1	630.25
914.6934	1802.9755	1510.4	625.05
914.8337	1804.6519	1509.9	625.25
914.9739	1806.3277	1508.55	624.75
915.1142	1808.0027	1503.85	617.9
915.2544	1809.6769	1506	621.6
915.3946	1811.3504	1509.25	623.05
915.5348	1813.0231	1495.65	610.3
915.675	1814.6951	1509.65	626.8
915.8151	1816.3664	1507.35	619.35
915.9553	1818.0369	1495.9	611.8
916.0954	1819.7067	1493.6	609.2
916.2355	1821.3757	1497.45	612
916.3755	1823.044	1497.9	613.6
916.5156	1824.7115	1496.3	611.2
916.6556	1826.3783	1483.45	598.75
916.7956	1828.0443	1493.35	610.05
916.9356	1829.7096	1489.6	603.1
917.0756	1831.3741	1491.8	604.1
917.2155	1833.0379	1484.9	600
917.3555	1834.701	1493.6	606.35
917.4954	1836.3633	1489	602.8
917.6353	1838.0248	1480.1	594.3
917.7751	1839.6856	1480.45	594.6
917.915	1841.3457	1478.7	596
918.0548	1843.005	1476.45	593.2
918.1946	1844.6636	1476.35	593.05
918.3344	1846.3214	1472.35	587.25
918.4742	1847.9785	1471.8	588.65
918.6139	1849.6349	1471.6	585.9
918.7537	1851.2904	1477.55	584.8
918.8934	1852.9453	1465.9	579.65
919.0331	1854.5994	1464.7	578.5
919.1727	1856.2528	1473.9	583.7
919.3124	1857.9054	1475.45	590.9
919.452	1859.5572	1463.6	581.5
919.5916	1861.2083	1468.25	583.55
919.7312	1862.8587	1460.85	576.55
919.8708	1864.5084	1467.35	581.45
920.0103	1866.1572	1458.1	573.95
920.1498	1867.8054	1454.25	569.6
920.2893	1869.4528	1450.5	565.7
920.4288	1871.0994	1442.15	557.15
920.5683	1872.7453	1451.9	565.45
920.7077	1874.3905	1463.85	572.75
920.8471	1876.0349	1452.7	565.9
920.9865	1877.6786	1448.95	562.1
921.1259	1879.3215	1448.3	563
921.2653	1880.9637	1448.85	560.3
921.4046	1882.6051	1442.25	556.8
921.5439	1884.2458	1447.25	559.95
921.6832	1885.8858	1438.75	552.2
921.8225	1887.525	1440.5	555.4
921.9617	1889.1634	1441.15	556.85
922.101	1890.8011	1427.8	543.65
922.2402	1892.4381	1430.05	546.35
922.3794	1894.0743	1436.85	552.9
922.5185	1895.7098	1430.4	543.7
922.6577	1897.3446	1433.25	546.3
922.7968	1898.9786	1435.5	544.05
922.9359	1900.6118	1427.5	541.7
923.075	1902.2443	1428.6	541.4
923.214	1903.8761	1424.2	539.85
923.3531	1905.5071	1427.05	541
923.4921	1907.1374	1423.05	537.65
923.6311	1908.7669	1420.65	535.85
923.77	1910.3957	1424.9	539.7
923.909	1912.0237	1416.55	531.35
924.0479	1913.651	1418.65	532.7
924.1868	1915.2776	1416.05	533.35
924.3257	1916.9034	1411.5	524.35
924.4646	1918.5285	1402.1	517.2
924.6034	1920.1528	1408.15	522.15
924.7422	1921.7764	1404.8	519.9
924.881	1923.3992	1400.45	514.45
925.0198	1925.0213	1403.6	518.2
925.1586	1926.6427	1393.35	508.05
925.2973	1928.2633	1461.1	506.15
925.436	1929.8832	1394.75	508.5
925.5747	1931.5023	1390.25	506.95
925.7134	1933.1207	1396.1	510.05
925.852	1934.7383	1390.2	504.25
925.9906	1936.3552	1394.9	511.55
926.1292	1937.9714	1392.2	505.75
926.2678	1939.5868	1397.65	510.55
926.4064	1941.2015	1382.8	497.7
926.5449	1942.8154	1383.15	496.55
926.6834	1944.4286	1384.45	499.25
926.8219	1946.041	1406.25	496.55
926.9604	1947.6528	1382.4	493.6
927.0988	1949.2637	1374.35	489.35
927.2372	1950.8739	1382.35	498.2
927.3756	1952.4834	1371.8	486.35
927.514	1954.0921	1372.95	486.35
927.6523	1955.7001	1367.75	479.25
927.7907	1957.3074	1360.5	476.5
927.929	1958.9139	1372.45	486.35
928.0673	1960.5197	1370	484.75
928.2055	1962.1247	1366.9	480.9
928.3438	1963.729	1362.8	478.7
928.482	1965.3325	1387.35	478.95
928.6202	1966.9353	1359.85	475.4
928.7584	1968.5374	1357.7	473.85
928.8965	1970.1387	1362.65	477
929.0346	1971.7393	1360.8	475.05
929.1727	1973.3392	1351.55	467
929.3108	1974.9383	1356.25	472.5
929.4489	1976.5366	1346.5	461.1
929.5869	1978.1342	1352.4	467.95
929.7249	1979.7311	1350.5	465.1
929.8629	1981.3273	1349.45	465
930.0009	1982.9227	1342.45	456.65
930.1388	1984.5173	1341.3	456.7
930.2767	1986.1112	1344.55	461.65
930.4146	1987.7044	1339	455.2
930.5525	1989.2968	1340.2	457.2
930.6904	1990.8885	1343.65	454.5
930.8282	1992.4795	1334.4	449.05
930.966	1994.0697	1338.15	454.7
931.1038	1995.6592	1335.8	450.15
931.2415	1997.2479	1341.7	457.3
931.3793	1998.8359	1332.85	447.1
931.517	2000.4232	1330.7	447.05
931.6547	2002.0097	1333.95	453
931.7923	2003.5955	1325	439.95
931.93	2005.1805	1327.6	440.15
932.0676	2006.7648	1321	437.75
932.2052	2008.3484	1333.55	448
932.3427	2009.9312	1332.15	447.7
932.4803	2011.5133	1322.5	440.9
932.6178	2013.0946	1324.65	441.25
932.7553	2014.6752	1319.55	434.05
932.8928	2016.2551	1325.3	439.95
933.0302	2017.8342	1321.1	436.2
933.1676	2019.4126	1317.55	436.8
933.305	2020.9902	1313.4	430.8
933.4424	2022.5672	1321.45	435.65
933.5798	2024.1433	1326.45	436.3
933.7171	2025.7188	1312.8	429.5
933.8544	2027.2935	1316.4	430.35
933.9917	2028.8674	1313.6	431.4
934.129	2030.4406	1311.4	427.85
934.2662	2032.0131	1310.35	426.85
934.4034	2033.5849	1310.45	419.45
934.5406	2035.1559	1312.75	429
934.6778	2036.7261	1304.55	421.95
934.8149	2038.2957	1306.4	422.95
934.952	2039.8645	1311.95	428.35
935.0891	2041.4325	1315.85	427.25
935.2262	2042.9998	1302.2	419.7
935.3632	2044.5664	1303.4	418.9
935.5002	2046.1323	1300.6	415.3
935.6372	2047.6974	1303.35	418.9
935.7742	2049.2617	1307.7	427.2
935.9111	2050.8254	1325.3	419.85
936.048	2052.3883	1300	415.9
936.1849	2053.9504	1296.05	411.3
936.3218	2055.5118	1299.2	415.25
936.4586	2057.0725	1299.95	413.5
936.5955	2058.6325	1297.15	411.75
936.7323	2060.1917	1299.3	418.05
936.869	2061.7502	1296.7	409.6
937.0058	2063.3079	1294.6	411.25
937.1425	2064.8649	1294	407.7
937.2792	2066.4212	1295.9	410.55
937.4159	2067.9767	1292.15	407.5
937.5525	2069.5315	1284.35	400.75
937.6891	2071.0856	1286.3	402.1
937.8257	2072.6389	1295.7	412.45
937.9623	2074.1915	1285.3	402.9
938.0989	2075.7433	1286.4	400.9
938.2354	2077.2945	1289.05	406.05
938.3719	2078.8448	1280.8	394.95
938.5084	2080.3945	1281.2	396
938.6448	2081.9434	1280.05	395.15
938.7812	2083.4916	1277.4	392.25
938.9176	2085.039	1281	396.05
939.054	2086.5857	1280.4	396.15
939.1903	2088.1317	1282.75	399
939.3267	2089.677	1278.25	392.4
939.463	2091.2215	1277	393.85
939.5992	2092.7652	1279.05	393.55
939.7355	2094.3083	1279.35	394.8
939.8717	2095.8506	1273.65	390.3
940.0079	2097.3921	1274.1	389.3
940.1441	2098.933	1274.6	388.9
940.2802	2100.4731	1275.15	391.2
940.4163	2102.0124	1291.35	390
940.5524	2103.5511	1271.3	387.7
940.6885	2105.089	1271.2	388.05
940.8245	2106.6261	1271.25	386.6
940.9606	2108.1626	1276.25	392.1
941.0965	2109.6983	1299.55	386.1
941.2325	2111.2332	1269.75	383.85
941.3684	2112.7675	1263.2	376.85
941.5044	2114.301	1270.35	384.95
941.6403	2115.8337	1269.4	383.85
941.7761	2117.3657	1267.95	382.9
941.912	2118.897	1270.45	385.75
942.0478	2120.4276	1270.15	377.05
942.1835	2121.9575	1262.6	375.8
942.3193	2123.4866	1282.9	382.85
942.455	2125.0149	1264.7	378.6
942.5907	2126.5426	1258.2	374
942.7264	2128.0695	1261.8	372.2
942.8621	2129.5956	1255.55	373.25
942.9977	2131.1211	1262.3	374.85
943.1333	2132.6458	1260.6	377.7
943.2689	2134.1698	1258.9	373.85
943.4044	2135.693	1258.8	373.5
943.54	2137.2155	1260.75	374.7
943.6755	2138.7373	1255.65	371.25
943.8109	2140.2584	1254.4	369.5
943.9464	2141.7787	1257.3	367.95
944.0818	2143.2983	1249.5	367.05
944.2172	2144.8171	1245.7	363.35
944.3526	2146.3353	1256.4	369.4
944.4879	2147.8527	1247.3	368.05
944.6232	2149.3693	1252.5	367.8
944.7585	2150.8853	1245.95	362.65
944.8938	2152.4005	1251.7	367
945.029	2153.9149	1240.05	353.85
945.1642	2155.4287	1349.05	355.9
945.2994	2156.9417	1251.25	365.2
945.4346	2158.454	1247.75	362.7
945.5697	2159.9655	1243.2	359.75
945.7048	2161.4764	1245.65	360.6
945.8399	2162.9865	1246.4	363.35
945.9749	2164.4958	1243.55	357.15
946.1099	2166.0045	1242.35	353.7
946.2449	2167.5124	1243.5	359
946.3799	2169.0195	1240.4	357.1
946.5148	2170.526	1238.75	354.7
946.6498	2172.0317	1238.65	355.05
946.7846	2173.5367	1233.4	348.4
946.9195	2175.0409	1228.8	346.35
947.0543	2176.5445	1233.95	351.25
947.1891	2178.0473	1233.15	349.95
947.3239	2179.5494	1236.8	347.9
947.4587	2181.0507	1227.7	341.3
947.5934	2182.5513	1237	351.6
947.7281	2184.0512	1231.05	348.3
947.8628	2185.5504	1227.7	344.65
947.9974	2187.0488	1224.65	341
948.132	2188.5465	1219.5	335.15
948.2666	2190.0435	1225.8	340.6
948.4012	2191.5397	1223.55	339.45
948.5357	2193.0353	1224.3	343
948.6702	2194.5301	1222.5	336.55
948.8047	2196.0241	1220.9	335.7
948.9392	2197.5175	1221.65	337.8
949.0736	2199.0101	1222	333
949.208	2200.502	1209.75	326.75
949.3424	2201.9931	1212.4	328.3
949.4767	2203.4835	1212.95	325.85
949.611	2204.9733	1231.75	330.95
949.7453	2206.4622	1208.85	322.9
949.8796	2207.9505	1218	332.1
950.0138	2209.438	1208.15	324.95
950.148	2210.9248	1210.15	324.95
950.2822	2212.4109	1209.85	328.5
950.4164	2213.8962	1216.15	327.6
950.5505	2215.3809	1210.05	324.75
950.6846	2216.8648	1207.25	321.95
950.8186	2218.3479	1210.6	323.35
950.9527	2219.8304	1205	318.05
951.0867	2221.3121	1202.3	315.1
951.2207	2222.7931	1202.95	320.7
951.3546	2224.2733	1198.9	316.6
951.4886	2225.7529	1196.25	311.65
951.6225	2227.2317	1204.55	319
951.7563	2228.7098	1205.1	320.3
951.8902	2230.1872	1192.7	308.6
952.024	2231.6638	1202.5	319.25
952.1578	2233.1397	1202.25	313.6
952.2916	2234.6149	1201.15	318.55
952.4253	2236.0894	1193.4	307.1
952.559	2237.5632	1205.05	319.05
952.6927	2239.0362	1192.35	308.95
952.8263	2240.5085	1191.9	308.3
952.9599	2241.9801	1191.15	306.75
953.0935	2243.4509	1189.1	304.45
953.2271	2244.921	1184.65	300.9
953.3606	2246.3904	1185.15	299.3
953.4941	2247.8591	1188.3	305.7
953.6276	2249.3271	1190.45	307.6
953.7611	2250.7943	1187.1	301.4
953.8945	2252.2608	1184.75	302.25
954.0279	2253.7266	1178.1	293.95
954.1612	2255.1917	1182.75	298.4
954.2946	2256.656	1179.65	294.3
954.4279	2258.1197	1181.2	298
954.5612	2259.5826	1182.55	296.3
954.6944	2261.0447	1184.5	298.2
954.8276	2262.5062	1180.55	294.65
954.9608	2263.9669	1179.85	295.3
955.094	2265.4269	1179.85	296.8
955.2271	2266.8862	1168.65	286.4
955.3602	2268.3448	1175.95	290.95
955.4933	2269.8026	1175.15	291.9
955.6264	2271.2598	1175	289.15
955.7594	2272.7162	1169.3	287.4
955.8924	2274.1719	1173.15	287.75
956.0253	2275.6268	1178.2	293.55
956.1583	2277.0811	1167.05	282.15
956.2912	2278.5346	1161.25	277.4
956.4241	2279.9874	1168.25	284.35
956.5569	2281.4395	1169.85	285.95
956.6897	2282.8908	1168.95	280.1
956.8225	2284.3414	1171.95	287.8
956.9553	2285.7914	1169.95	286.2
957.088	2287.2406	1174.25	289.4
957.2207	2288.689	1166.1	281.5
957.3534	2290.1368	1162.1	275.7
957.486	2291.5838	1166.35	279.25
957.6186	2293.0302	1166.55	280.65
957.7512	2294.4758	1156.6	271.7
957.8838	2295.9206	1160.8	275.9
958.0163	2297.3648	1160.85	276.4
958.1488	2298.8082	1159.65	274.55
958.2813	2300.251	1160.25	278.2
958.4137	2301.693	1161	275.45
958.5461	2303.1343	1159.2	273.7
958.6785	2304.5748	1159.3	276.3
958.8108	2306.0147	1150.85	266.4
958.9432	2307.4538	1155	268.7
959.0754	2308.8922	1152.2	268.6
959.2077	2310.3299	1156.25	271.9
959.3399	2311.7669	1147.8	263
959.4721	2313.2031	1148.7	264.05
959.6043	2314.6387	1147.35	264.95
959.7365	2316.0735	1149.85	265.35
959.8686	2317.5076	1148.6	265.25
960.0006	2318.941	1149.6	266.25
960.1327	2320.3737	1151.75	266.95
960.2647	2321.8056	1155.1	269.35
960.3967	2323.2369	1151.05	266.35
960.5287	2324.6674	1149.05	262
960.6606	2326.0972	1149.45	261.9
960.7925	2327.5263	1150.45	268.3
960.9244	2328.9547	1148.2	263.15
961.0562	2330.3823	1151.95	266.3
961.1881	2331.8092	1150.05	261.55
961.3198	2333.2355	1143.9	259.1
961.4516	2334.661	1139.9	255.35
961.5833	2336.0858	1144.9	259.8
961.715	2337.5098	1139.25	255.1
961.8467	2338.9332	1138.9	254.25
961.9783	2340.3558	1142	256.4
962.1099	2341.7778	1137.35	252.8
962.2415	2343.199	1140.85	254.3
962.373	2344.6195	1138.15	253.45
962.5045	2346.0393	1131.55	248.95
962.636	2347.4583	1139.4	256.45
962.7675	2348.8767	1134.35	249.8
962.8989	2350.2943	1137.7	253.15
963.0303	2351.7113	1135	248.6
963.1617	2353.1275	1135.3	251.85
963.293	2354.543	1151.95	241.95
963.4243	2355.9578	1129.4	244.3
963.5556	2357.3718	1126.6	243.85
963.6868	2358.7852	1135.6	247.85
963.818	2360.1978	1129.7	244.8
963.9492	2361.6098	1125.05	243.2
964.0803	2363.021	1126.2	238
964.2114	2364.4315	1127.65	244.7
964.3425	2365.8413	1125.9	241.25
964.4736	2367.2504	1124.25	239.75
964.6046	2368.6587	1123.55	240.15
964.7356	2370.0664	1120.4	235.8
964.8666	2371.4733	1123.1	239.5
964.9975	2372.8795	1116.35	232.2
965.1284	2374.285	1120.7	235.4
965.2593	2375.6899	1116.65	233.6
965.3901	2377.0939	1114.8	229.05
965.5209	2378.4973	1116.9	235.05
965.6517	2379.9	1121.4	236.75
965.7825	2381.3019	1117.2	230.7
965.9132	2382.7032	1114.15	230.75
966.0439	2384.1037	1111.05	228.85
966.1745	2385.5035	1112.15	227.7
966.3051	2386.9027	1107.85	223.65
966.4357	2388.3011	1119.7	230.85
966.5663	2389.6987	1109.45	224.2
966.6968	2391.0957	1111.25	226.3
966.8273	2392.492	1106.05	221.35
966.9578	2393.8876	1108.75	224.35
967.0882	2395.2824	1114.3	230.2
967.2186	2396.6765	1107.45	222.9
967.349	2398.07	1105.85	222.6
967.4793	2399.4627	1109.3	221.35
967.6097	2400.8547	1105.5	220.25
967.7399	2402.246	1112.45	223.45
967.8702	2403.6366	1101.2	217.3
968.0004	2405.0265	1096.15	212.75
968.1306	2406.4156	1105.2	215.9
968.2607	2407.8041	1105.9	219.35
968.3909	2409.1918	1104.9	216.7
968.521	2410.5789	1100.05	214.55
968.651	2411.9652	1100.6	212.75
968.781	2413.3508	1095.25	210.25
968.911	2414.7358	1098.2	212.95
969.041	2416.12	1096.95	212.4
969.1709	2417.5035	1094.1	210.7
969.3008	2418.8863	1097.7	213.4
969.4307	2420.2684	1095.85	210.45
969.5606	2421.6497	1097.4	212.1
969.6904	2423.0304	1094.6	208.9
969.8201	2424.4104	1088	203.05
969.9499	2425.7896	1092.7	204
970.0796	2427.1682	1086	201.1
970.2093	2428.546	1089.5	203.75
970.3389	2429.9232	1090.9	204.45
970.4685	2431.2996	1092.3	208.15
970.5981	2432.6753	1088.15	203.35
970.7277	2434.0503	1086.4	199.75
970.8572	2435.4246	1084.65	201
970.9867	2436.7982	1090.75	203.5
971.1161	2438.1711	1085.15	200.9
971.2456	2439.5433	1082.95	198.5
971.375	2440.9148	1092.05	201.45
971.5043	2442.2856	1080.8	197.75
971.6336	2443.6557	1085.65	197.65
971.7629	2445.025	1080.35	195.2
971.8922	2446.3937	1079.3	195.05
972.0214	2447.7617	1086.2	199.5
972.1506	2449.1289	1085.6	201.45
972.2798	2450.4955	1082.1	193.95
972.4089	2451.8613	1076.15	191.95
972.538	2453.2265	1075.15	191.55
972.6671	2454.5909	1075.95	190.75
972.7961	2455.9546	1076.75	193.15
972.9251	2457.3177	1075.35	189.05
973.0541	2458.68	1080.45	195.2
973.1831	2460.0416	1077.8	192.1
973.312	2461.4025	1078.3	190.9
973.4408	2462.7627	1088.05	190.05
973.5697	2464.1222	1070	185.5
973.6985	2465.4811	1076.9	191.35
973.8273	2466.8392	1072.95	188.75
973.956	2468.1966	1074.4	185
974.0847	2469.5533	1072.1	183.3
974.2134	2470.9093	1070.75	184.8
974.3421	2472.2645	1073.2	187.3
974.4707	2473.6191	1070.8	185.8
974.5993	2474.973	1071.05	185
974.7278	2476.3262	1072.85	188.8
974.8563	2477.6787	1069.3	184.7
974.9848	2479.0305	1067.35	182.35
975.1132	2480.3816	1071.95	184.85
975.2417	2481.7319	1064.05	179.9
975.37	2483.0816	1068.75	180.5
975.4984	2484.4306	1066.6	181.5
975.6267	2485.7789	1063.65	179.75
975.755	2487.1264	1066.9	180.15
975.8833	2488.4733	1065.4	180.35
976.0115	2489.8195	1070.6	177.8
976.1397	2491.165	1069.35	181.25
976.2678	2492.5097	1066.75	179.35
976.3959	2493.8538	1059.1	175.25
976.524	2495.1972	1060	175.6
976.6521	2496.5398	1062.55	177.1
976.7801	2497.8818	1060.25	174.15
976.9081	2499.2231	1059	174.15
977.036	2500.5637	1062.1	176.1
977.164	2501.9035	1060.7	173.15
977.2918	2503.2427	1063.3	174.5
977.4197	2504.5812	1056.35	172.25
977.5475	2505.919	1058.35	171.05
977.6753	2507.256	1057.7	172.35
977.8031	2508.5924	1056.2	170.3
977.9308	2509.9281	1060.95	170.7
978.0585	2511.2631	1052.65	167.65
978.1861	2512.5974	1053.05	169.8
978.3137	2513.9309	1051.95	167.65
978.4413	2515.2638	1079.8	170.65
978.5689	2516.596	1052.65	166.9
978.6964	2517.9275	1053.2	167.4
978.8239	2519.2583	1051.2	166.4
978.9513	2520.5884	1052.65	164.6
979.0788	2521.9178	1049.25	163.3
979.2062	2523.2465	1049.15	164.6
979.3335	2524.5745	1047.9	165
979.4608	2525.9018	1049.4	165.15
979.5881	2527.2284	1045.6	161.3
979.7154	2528.5543	1045.1	160.6
979.8426	2529.8796	1046.05	160.8
979.9698	2531.2041	1042.55	157.25
980.0969	2532.5279	1043.45	160.5
980.224	2533.851	1046.95	163.05
980.3511	2535.1735	1046.3	162.9
980.4781	2536.4952	1045.35	161.25
980.6052	2537.8163	1047.2	161.75
980.7321	2539.1366	1042.5	159.8
980.8591	2540.4562	1044.6	157.3
980.986	2541.7752	1044.5	160.7
981.1129	2543.0935	1041.7	156.55
981.2397	2544.411	1041.25	154.85
981.3665	2545.7279	1042.6	156.65
981.4933	2547.0441	1040.7	156
981.62	2548.3596	1041.65	154.1
981.7467	2549.6744	1039.85	155.25
981.8734	2550.9885	1044.2	150.95
982.0001	2552.3019	1036.25	152.6
982.1267	2553.6146	1038	151.25
982.2532	2554.9266	1035.95	150.5
982.3798	2556.2379	1042.9	156.7
982.5063	2557.5485	1035.5	151.35
982.6327	2558.8585	1039.35	148.9
982.7592	2560.1677	1042.6	153.95
982.8856	2561.4762	1035	150
983.0119	2562.7841	1042.1	152.65
983.1383	2564.0913	1028.65	144.9
983.2646	2565.3977	1033.35	150
983.3908	2566.7035	1035.5	150.1
983.517	2568.0086	1034.75	147.65
983.6432	2569.313	1034.8	149.2
983.7694	2570.6167	1036.45	146.85
983.8955	2571.9197	1031.95	146.85
984.0216	2573.222	1038.75	149.65
984.1476	2574.5236	1033.5	149.05
984.2737	2575.8246	1033.25	144.45
984.3996	2577.1248	1035.05	148.15
984.5256	2578.4244	1032.25	145.75
984.6515	2579.7232	1030.65	144.2
984.7774	2581.0214	1064.35	150.65
984.9032	2582.3189	1034.05	151.95
985.029	2583.6157	1047.3	148.65
985.1548	2584.9118	1028.55	144.35
985.2806	2586.2072	1030.15	146.2
985.4063	2587.5019	1024.95	139.2
985.5319	2588.7959	1032.3	147.05
985.6576	2590.0893	1032.2	145.25
985.7832	2591.3819	1028.75	146.3
985.9087	2592.6739	1023.85	139.15
986.0343	2593.9652	1024.7	136.6
986.1597	2595.2557	1027.5	143.75
986.2852	2596.5456	1031.55	145.5
986.4106	2597.8348	1023.7	140.65
986.536	2599.1234	1025.75	140.9
986.6614	2600.4112	1028.95	141.65
986.7867	2601.6983	1027.5	138.8
986.912	2602.9848	1028.35	141.45
987.0372	2604.2705	1029.95	137.9
987.1624	2605.5556	1027.65	140.45
987.2876	2606.84	1026.5	141.3
987.4128	2608.1237	1023.95	138.65
987.5379	2609.4067	1024.65	137.65
987.6629	2610.689	1034.7	141.35
987.788	2611.9707	1028.8	139
987.913	2613.2516	1023.15	133.5
988.0379	2614.5319	1020.05	135.25
988.1629	2615.8115	1016.9	130.7
988.2878	2617.0903	1017.4	129.1
988.4126	2618.3685	1017.95	131.75
988.5375	2619.6461	1019	135
988.6622	2620.9229	1022.7	136.75
988.787	2622.199	1018.5	132.5
988.9117	2623.4745	1020.5	135.25
989.0364	2624.7493	1017.85	134.65
989.161	2626.0234	1014	128.8
989.2857	2627.2968	1019.2	134.8
989.4102	2628.5695	1018.1	131.55
989.5348	2629.8415	1010.7	126.1
989.6593	2631.1128	1015.4	128.35
989.7837	2632.3835	1011.45	127.25
989.9082	2633.6535	1011.65	126.1
990.0326	2634.9228	1012.4	128.35
990.1569	2636.1914	1011.95	127.3
990.2812	2637.4593	1019.4	130.5
990.4055	2638.7265	1013.6	129
990.5298	2639.9931	1015.15	130.4
990.654	2641.259	1011.15	126.6
990.7782	2642.5242	1013.45	129.15
990.9023	2643.7887	1011.8	126.25
991.0264	2645.0525	1009.15	124.5
991.1505	2646.3156	1022.25	120.9
991.2745	2647.5781	1009.6	126.35
991.3985	2648.8398	1005.2	120.6
991.5225	2650.1009	1012.65	123.7
991.6464	2651.3613	1005.4	120.2
991.7703	2652.6211	1007.15	122.1
991.8942	2653.8801	1003.2	119.25
992.018	2655.1385	1010.6	123.65
992.1418	2656.3961	1007.85	124.7
992.2655	2657.6531	1007.05	122.9
992.3892	2658.9094	1004.45	119.5
992.5129	2660.1651	1003	117.2
992.6366	2661.42	1004.4	120.2
992.7602	2662.6743	1000.4	115.35
992.8837	2663.9279	1002.8	118.35
993.0073	2665.1808	1006.5	120.4
993.1307	2666.433	1003	116.3
993.2542	2667.6846	1000	115.95
993.3776	2668.9354	1006.65	116.55
993.501	2670.1856	1005.4	119.95
993.6244	2671.4351	1006.1	120.6
993.7477	2672.6839	1003.4	119.45
993.8709	2673.9321	999.45	116.4
993.9942	2675.1795	1003.1	118.5
994.1174	2676.4263	1001.85	117.1
994.2405	2677.6724	1003.15	119.7
994.3637	2678.9179	1001.75	116.65
994.4868	2680.1626	1003.05	119.85
994.6098	2681.4067	1001.45	117.35
994.7328	2682.6501	999.55	114.65
994.8558	2683.8928	999.2	115.3
994.9788	2685.1348	997.75	113.75
995.1017	2686.3761	999.25	116.5
995.2245	2687.6168	995.55	111.4
995.3474	2688.8568	996.1	111.55
995.4702	2690.0961	997.5	114.05
995.5929	2691.3348	993.9	110.35
995.7156	2692.5727	995.55	111.6
995.8383	2693.81	994.55	111.5
995.961	2695.0466	991.85	106.4
996.0836	2696.2826	995.4	107.75
996.2062	2697.5178	993.1	104.55
996.3287	2698.7524	991.15	107.3
996.4512	2699.9863	993.15	106.8
996.5737	2701.2195	991.75	109.25
996.6961	2702.452	988.55	103.65
996.8185	2703.6839	996.85	111.3
996.9408	2704.9151	995.95	111.65
997.0631	2706.1456	992.05	108.05
997.1854	2707.3755	994.25	110.4
997.3077	2708.6046	995.35	110
997.4299	2709.8331	994.75	110.3
997.552	2711.0609	992	107.95
997.6742	2712.2881	995.1	109.05
997.7963	2713.5145	996.5	109.65
997.9183	2714.7403	994.2	111
998.0403	2715.9654	995.25	110.35
998.1623	2717.1899	1010.35	108.95
998.2842	2718.4136	993.75	108.3
998.4062	2719.6367	994.45	111
998.528	2720.8591	1004.1	112.6
998.6498	2722.0809	995.3	110.3
998.7716	2723.3019	998.6	109.55
998.8934	2724.5223	999.45	113.45
999.0151	2725.7421	997.25	111.05
999.1368	2726.9611	1000.15	111.45
999.2584	2728.1795	997.3	106.75
999.38	2729.3972	992.45	105.85
999.5016	2730.6142	1004.6	108.05
999.6231	2731.8306	992.9	106.7
999.7446	2733.0462	990.1	106.4
999.8661	2734.2612	991.25	103
999.9875	2735.4756	991.65	105.8
1000.1089	2736.6892	986	100.2
1000.2302	2737.9022	984.65	101.35
1000.3515	2739.1145	982.75	98.45
1000.4728	2740.3262	992.6	99.55
1000.594	2741.5372	984.8	100.95
1000.7152	2742.7475	983.7	97.15
1000.8363	2743.9571	984.75	99.6
1000.9575	2745.1661	985	96.8
1001.0785	2746.3744	982.15	95.95
1001.1996	2747.582	979.1	93.7
1001.3206	2748.7889	976.15	90.05
1001.4415	2749.9952	978.4	95.7
1001.5625	2751.2008	974.25	89.35
1001.6833	2752.4057	980.9	93.3
1001.8042	2753.61	977.7	93.85
1001.925	2754.8136	978.45	90.8
1002.0458	2756.0165	974.1	89.35
1002.1665	2757.2188	973.55	90.7
1002.2872	2758.4204	973.25	88.65
1002.4078	2759.6213	979.35	91.7
1002.5285	2760.8215	976.85	88.2
1002.649	2762.0211	977.35	92.1
1002.7696	2763.22	977.85	91
1002.8901	2764.4182	973.3	88.15
1003.0106	2765.6158	973.65	88.95
1003.131	2766.8127	974.1	89.2
1003.2514	2768.009	971.9	87.25
1003.3717	2769.2045	973.75	87.85
1003.492	2770.3994	974.25	86.4
1003.6123	2771.5936	972.2	86.4
1003.7325	2772.7872	968.55	83.4
1003.8527	2773.9801	971.95	85.85
1003.9729	2775.1723	984.8	83.7
1004.093	2776.3639	970.25	87.85
1004.2131	2777.5548	971.1	85.15
1004.3331	2778.745	973.2	86.9
1004.4531	2779.9346	969.95	86.6
1004.5731	2781.1235	970.1	82.75
1004.693	2782.3117	967.05	81.65
1004.8129	2783.4992	968.8	84
1004.9328	2784.6861	965.8	81.55
1005.0526	2785.8723	970.3	84.5
1005.1723	2787.0579	969.85	85.55
1005.2921	2788.2428	968.5	83.2
1005.4118	2789.427	964.5	80.75
1005.5314	2790.6106	966.85	83.9
1005.651	2791.7935	967	82.4
1005.7706	2792.9757	965.4	83.8
1005.8902	2794.1573	969.55	81.45
1006.0097	2795.3382	967.2	83.35
1006.1291	2796.5184	965.7	81.25
1006.2485	2797.698	973.2	87.75
1006.3679	2798.8769	965.15	81.15
1006.4873	2800.0551	968.9	83.25
1006.6066	2801.2327	970.95	84.7
1006.7258	2802.4096	966	81.55
1006.8451	2803.5859	968.8	85.25
1006.9642	2804.7615	965.9	78.15
1007.0834	2805.9364	966.75	84.55
1007.2025	2807.1106	965.8	81.1
1007.3216	2808.2842	968.35	82.55
1007.4406	2809.4572	968.55	83.5
1007.5596	2810.6294	968.75	85.7
1007.6785	2811.801	970.7	88.6
1007.7975	2812.972	970.3	86.65
1007.9163	2814.1423	973.2	88.05
1008.0352	2815.3119	975.15	90.6
1008.154	2816.4808	975.95	90.5
1008.2727	2817.6491	978.6	93.3
1008.3914	2818.8167	983.15	99.1
1008.5101	2819.9837	990.5	102.35
1008.6288	2821.15	993.45	108.45
1008.7474	2822.3157	993.55	109.75
1008.8659	2823.4807	1002.25	119.2
1008.9844	2824.645	1011.25	126.8
1009.1029	2825.8086	1010.75	126.75
1009.2214	2826.9716	1020.3	137
1009.3398	2828.134	1031.2	147.05
1009.4581	2829.2957	1036.85	152.25
1009.5764	2830.4567	1040.75	156.15
1009.6947	2831.617	1047.15	161
1009.813	2832.7767	1045.95	161.75
1009.9312	2833.9358	1050.65	168.45
1010.0493	2835.0941	1049.2	162.35
1010.1675	2836.2519	1039.25	155.75
1010.2855	2837.4089	1043.5	156.6
1010.4036	2838.5653	1032.85	150.5
1010.5216	2839.7211	1033.95	149.6
1010.6396	2840.8761	1033.05	146.65
1010.7575	2842.0306	1029.95	145.5
1010.8754	2843.1843	1028.15	144.15
1010.9932	2844.3374	1030.7	146.3
1011.111	2845.4899	1032.2	147
1011.2288	2846.6417	1029.85	146.4
1011.3465	2847.7928	1034.4	150.75
1011.4642	2848.9433	1030.85	147.45
1011.5818	2850.0931	1033.25	149.2
1011.6995	2851.2422	1037.25	150.6
1011.817	2852.3907	1040.3	153.6
1011.9345	2853.5385	1037.8	151.6
1012.052	2854.6857	1046.7	151.65
1012.1695	2855.8323	1038.65	154.4
1012.2869	2856.9781	1041.6	159.9
1012.4042	2858.1233	1046.35	161.55
1012.5216	2859.2679	1045.15	160.9
1012.6389	2860.4118	1049.3	166.15
1012.7561	2861.555	1060.2	170
1012.8733	2862.6976	1062.55	175.65
1012.9905	2863.8395	1060.9	178
1013.1076	2864.9808	1056.35	172.95
1013.2247	2866.1214	1059	175.4
1013.3417	2867.2614	1064.45	180.75
1013.4587	2868.4007	1063.5	177.95
1013.5757	2869.5393	1065.35	177.95
1013.6926	2870.6773	1072.65	185.45
1013.8095	2871.8146	1072.85	184.3
1013.9263	2872.9513	1071.4	185.55
1014.0431	2874.0874	1080.1	197.45
1014.1599	2875.2227	1071.7	186.05
1014.2766	2876.3574	1078.55	194.5
1014.3933	2877.4915	1077.1	193.45
1014.51	2878.6249	1079.05	194.4
1014.6266	2879.7577	1084.35	197.95
1014.7431	2880.8898	1095.1	201.15
1014.8596	2882.0212	1086.3	204.3
1014.9761	2883.152	1090.7	207.2
1015.0925	2884.2821	1089.1	207.45
1015.2089	2885.4116	1088	204.25
1015.3253	2886.5405	1095.1	211.05
1015.4416	2887.6686	1097.55	210.85
1015.5579	2888.7962	1093.85	211
1015.6741	2889.923	1091.45	206.75
1015.7903	2891.0493	1092.9	211.15
1015.9065	2892.1748	1095.25	210.85
1016.0226	2893.2997	1092.5	206.45
1016.1387	2894.424	1088.45	206.25
1016.2547	2895.5476	1095.15	209.4
1016.3707	2896.6706	1094.1	212.15
1016.4866	2897.7929	1092.9	207.2
1016.6025	2898.9145	1097	212.9
1016.7184	2900.0355	1093.25	211.2
1016.8342	2901.1559	1097.55	211.2
1016.95	2902.2756	1095.05	209.8
1017.0658	2903.3946	1087.25	201.85
1017.1815	2904.513	1087.35	201.15
1017.2971	2905.6308	1092.35	210.25
1017.4127	2906.7479	1083.15	197.75
1017.5283	2907.8643	1088.5	202.9
1017.6439	2908.9801	1084.85	201.2
1017.7594	2910.0953	1083.45	197.6
1017.8748	2911.2098	1086.5	200.3
1017.9902	2912.3236	1088.25	195.2
1018.1056	2913.4368	1087.9	202.2
1018.2209	2914.5494	1079.3	194.05
1018.3362	2915.6613	1081.65	192.4
1018.4515	2916.7725	1079.65	195.05
1018.5667	2917.8831	1077.2	191.6
1018.6819	2918.9931	1076.95	191.65
1018.797	2920.1024	1070.5	186.95
1018.9121	2921.211	1069.8	184.35
1019.0271	2922.319	1070.3	185.55
1019.1421	2923.4264	1066.5	184.4
1019.2571	2924.5331	1064.95	181.05
1019.372	2925.6391	1062.45	179.75
1019.4869	2926.7445	1062.25	179.4
1019.6017	2927.8493	1067.65	184.55
1019.7165	2928.9534	1065.8	181.15
1019.8313	2930.0569	1070.8	182.95
1019.946	2931.1597	1069.3	183.05
1020.0606	2932.2619	1062.9	179.05
1020.1753	2933.3634	1062.25	179.35
1020.2899	2934.4643	1076.2	184.7
1020.4044	2935.5645	1074.9	185.35
1020.5189	2936.6641	1076.85	189.25
1020.6334	2937.763	1073.55	190
1020.7478	2938.8613	1073	188.1
1020.8622	2939.959	1078.1	188.95
1020.9765	2941.056	1068.9	185.1
1021.0908	2942.1523	1063	178.15
1021.2051	2943.248	1058.25	173.6
1021.3193	2944.3431	1047.5	164.4
1021.4334	2945.4375	1044.25	158.35
1021.5476	2946.5313	1037.3	154.55
1021.6617	2947.6244	1028.45	143.85
1021.7757	2948.7169	1024.7	139.25
1021.8897	2949.8087	1014.35	130.3
1022.0037	2950.8999	1009.8	124.2
1022.1176	2951.9904	1001.5	118.9
1022.2315	2953.0803	997.75	111.7
1022.3453	2954.1696	996.15	111.7
1022.4591	2955.2582	993.2	109.55
1022.5728	2956.3462	988.8	105.8
1022.6865	2957.4335	988.9	103.5
1022.8002	2958.5202	989.7	103.2
1022.9138	2959.6062	985.3	99.3
1023.0274	2960.6916	989.6	106.8
1023.141	2961.7764	989.25	105.35
1023.2545	2962.8605	987.95	103.35
1023.3679	2963.9439	984.8	101.25
1023.4813	2965.0267	989.45	104.1
1023.5947	2966.1089	1009.7	103.25
1023.708	2967.1905	986.8	103.85
1023.8213	2968.2714	984.5	101.9
1023.9346	2969.3516	982.75	99.4
1024.0478	2970.4312	989.7	98.7
1024.1609	2971.5102	981.7	98.2
1024.274	2972.5885	981.8	98.2
1024.3871	2973.6662	989.7	100.25
1024.5002	2974.7432	980.65	97.65
1024.6132	2975.8196	983.55	100.7
1024.7261	2976.8954	981.55	99.3
1024.839	2977.9705	977.35	95.1
1024.9519	2979.045	977.5	92.4
1025.0647	2980.1188	981.9	99.55
1025.1775	2981.192	981.95	98.9
1025.2902	2982.2645	981.05	96.15
1025.4029	2983.3364	978.35	91.8
1025.5156	2984.4077	976.5	93.8
1025.6282	2985.4783	981	90.6
1025.7407	2986.5483	971.9	88.1
1025.8532	2987.6177	969.35	85.15
1025.9657	2988.6864	969.1	87.15
1026.0782	2989.7545	968.3	83.95
1026.1906	2990.8219	962.7	77.65
1026.3029	2991.8887	962.45	77.7
1026.4152	2992.9548	961.25	77.75
1026.5275	2994.0204	958.55	75.4
1026.6397	2995.0852	955.9	72.5
1026.7519	2996.1495	954.6	71.65
1026.864	2997.2131	946.4	62.65
1026.9761	2998.276	947.85	64.15
1027.0882	2999.3383	945.7	61.35
1027.2002	3000.4	944.1	60.1
1027.3122	3001.4611	941.1	56.55
1027.4241	3002.5215	939.05	55.8
1027.536	3003.5812	938.65	53.75
1027.6478	3004.6404	936.95	53.9
1027.7596	3005.6989	938.05	50.55
1027.8714	3006.7567	934.5	50.7
1027.9831	3007.8139	953.9	49.85
1028.0947	3008.8705	931.8	46.85
1028.2064	3009.9264	937	47.5
1028.3179	3010.9818	930.7	46.75
1028.4295	3012.0364	931.9	47.5
1028.541	3013.0905	931.05	47.45
1028.6524	3014.1439	931.5	48.85
1028.7638	3015.1966	929.3	45.5
1028.8752	3016.2487	928.35	43.75
1028.9865	3017.3002	932.8	43.45
1029.0978	3018.3511	926.85	43.5
1029.209	3019.4013	929.05	43.8
1029.3202	3020.4509	925.5	42.45
1029.4314	3021.4998	925.45	40.1
1029.5425	3022.5481	925.15	40.3
1029.6535	3023.5958	925.2	42.7
1029.7645	3024.6428	929.45	44.85
1029.8755	3025.6892	928.35	47.05
1029.9864	3026.735	926.7	41.85
1030.0973	3027.7802	926.05	42.85
1030.2082	3028.8247	925.2	40.45
1030.319	3029.8685	924.25	39.4
1030.4297	3030.9118	923.75	38.45
1030.5404	3031.9544	925.55	42.15
1030.6511	3032.9963	927.15	43.65
1030.7617	3034.0376	924.45	41.15
1030.8723	3035.0783	929.6	42.2
1030.9829	3036.1184	927.8	44.15
1031.0934	3037.1578	923.25	39.75
1031.2038	3038.1966	927.4	42.05
1031.3142	3039.2348	923.85	41.75
1031.4246	3040.2723	934.45	42.3
1031.5349	3041.3092	925.9	42.85
1031.6452	3042.3455	924.6	41.6
1031.7554	3043.3811	926.9	41.45
1031.8656	3044.4161	922.45	37.2
1031.9758	3045.4505	924.7	42.95
1032.0859	3046.4842	927.45	40.3
1032.1959	3047.5173	923.15	40.9
1032.3059	3048.5498	925.2	42.8
1032.4159	3049.5816	925.6	42.85
1032.5258	3050.6128	927.8	42.35
1032.6357	3051.6434	923.95	38.5
1032.7455	3052.6734	926.4	42
1032.8553	3053.7027	927	44.5
1032.9651	3054.7314	923.7	39.85
1033.0748	3055.7594	925.7	42.25
1033.1845	3056.7868	925.2	38.4
1033.2941	3057.8136	924.85	42.1
1033.4037	3058.8398	926.6	43.15
1033.5132	3059.8653	924.85	40.55
1033.6227	3060.8902	925.45	45.2
1033.7321	3061.9145	927.65	45.05
1033.8415	3062.9381	924.25	40.6
1033.9509	3063.9612	944.7	44.55
1034.0602	3064.9835	926.35	41.15
1034.1694	3066.0053	927.25	41.95
1034.2787	3067.0264	924.25	40.5
1034.3878	3068.0469	928.2	45.95
1034.497	3069.0668	928.8	40
1034.6061	3070.086	922.55	39
1034.7151	3071.1046	928.05	42.25
1034.8241	3072.1226	927.15	41.1
1034.9331	3073.1399	924	41.3
1035.042	3074.1567	924.55	38.6
1035.1508	3075.1727	925.6	39.6
1035.2597	3076.1882	924.65	41.9
1035.3684	3077.203	921.95	39.65
1035.4772	3078.2173	924.2	37.35
1035.5859	3079.2308	924.95	38.6
1035.6945	3080.2438	923.4	38.7
1035.8031	3081.2561	919	34.85
1035.9117	3082.2678	918.55	34.05
1036.0202	3083.2789	920.05	36.35
1036.1286	3084.2893	918.6	35.85
1036.2371	3085.2991	917.25	31.9
1036.3454	3086.3083	918.8	29.95
1036.4538	3087.3169	918	31.75
1036.562	3088.3248	919.8	34.65
1036.6703	3089.3321	917.9	33.85
1036.7785	3090.3388	915.7	32
1036.8866	3091.3449	916	31.55
1036.9948	3092.3503	918.4	30.55
1037.1028	3093.3551	913.5	31.15
1037.2108	3094.3593	913.8	32.9
1037.3188	3095.3629	913.2	29.85
1037.4267	3096.3658	916.8	30.9
1037.5346	3097.3681	913.15	28.2
1037.6425	3098.3698	913.9	28.8
1037.7503	3099.3708	918.6	28.8
1037.858	3100.3713	913.3	29.95
1037.9657	3101.3711	912.85	29.45
1038.0734	3102.3702	1053.05	31.75
1038.181	3103.3688	916.5	32.4
1038.2886	3104.3667	910.35	27.15
1038.3961	3105.364	911.75	26.65
1038.5036	3106.3607	913.6	29.75
1038.611	3107.3568	910.95	28
1038.7184	3108.3522	909.4	27.75
1038.8257	3109.347	912.95	28.65
1038.933	3110.3412	915.7	28.6
1039.0403	3111.3348	908.6	23.55
1039.1475	3112.3277	910.65	26.1
1039.2547	3113.32	909.4	26.55
1039.3618	3114.3117	912.25	28.1
1039.4689	3115.3028	911.75	25.7
1039.5759	3116.2932	911.75	26.75
1039.6829	3117.2831	914.05	25.1
1039.7898	3118.2723	911.05	28.5
1039.8967	3119.2608	907.55	24.15
1040.0035	3120.2488	908.5	23.9
1040.1103	3121.2361	909.6	24.9
1040.2171	3122.2229	908.1	24.4
1040.3238	3123.209	909.3	25.75
1040.4305	3124.1944	907.9	24.4
1040.5371	3125.1793	909.9	23.3
1040.6437	3126.1635	906.8	22.1
1040.7502	3127.1471	909.45	26
1040.8567	3128.1301	907.05	25.1
1040.9631	3129.1125	907.7	23.25
1041.0695	3130.0942	907.8	24.75
1041.1759	3131.0753	916.3	23.75
1041.2822	3132.0558	909.2	22.75
1041.3884	3133.0357	909.65	25.05
1041.4946	3134.015	904.6	19.2
1041.6008	3134.9936	908.3	21.15
1041.7069	3135.9716	926.85	24.2
1041.813	3136.949	907.8	25.2
1041.919	3137.9258	924.55	22.9
1042.025	3138.902	908.65	17.75
1042.1309	3139.8775	906.85	24.4
1042.2368	3140.8524	906.25	22.65
1042.3427	3141.8267	907.1	20.55
1042.4485	3142.8004	905.35	21.05
1042.5542	3143.7735	911.75	21.8
1042.6599	3144.7459	906.6	18.8
1042.7656	3145.7178	902.95	18.8
1042.8712	3146.689	902.05	20.3
1042.9768	3147.6596	906.8	20.7
1043.0823	3148.6295	903.65	21.05
1043.1878	3149.5989	902.9	19.2
1043.2932	3150.5676	904.7	22.75
1043.3986	3151.5357	902.25	20.6
1043.5039	3152.5032	903.85	18.75
1043.6092	3153.4701	904.45	22.2
1043.7145	3154.4364	905.45	20.05
1043.8197	3155.402	901.9	18.45
1043.9248	3156.367	904.3	16.75
1044.03	3157.3315	940.25	21.3
1044.135	3158.2952	902.75	18.65
1044.24	3159.2584	902.7	17.85
1044.345	3160.221	902.95	19.35
1044.4499	3161.1829	903.5	21.1
1044.5548	3162.1442	901.25	19.45
1044.6596	3163.105	901.25	19.05
1044.7644	3164.065	901.05	17.8
1044.8692	3165.0245	905.25	19.6
1044.9739	3165.9834	900.7	18.9
1045.0785	3166.9416	902.6	18
1045.1831	3167.8993	902.5	18.4
1045.2877	3168.8563	905	21.7
1045.3922	3169.8127	903.4	18.6
1045.4966	3170.7684	902.5	19.1
1045.6011	3171.7236	901.45	15.15
1045.7054	3172.6782	899.5	16.25
1045.8098	3173.6321	901.4	16
1045.914	3174.5854	906.55	18.55
1046.0183	3175.5381	902.15	18.85
1046.1224	3176.4902	902.25	17.35
1046.2266	3177.4417	901	17.2
1046.3307	3178.3926	900.95	17.35
1046.4347	3179.3428	898.95	15.95
1046.5387	3180.2924	900.35	17.8
1046.6427	3181.2415	900.1	16
1046.7466	3182.1899	902.65	16.4
1046.8504	3183.1377	898.25	14.9
1046.9542	3184.0848	905.55	17.9
1047.058	3185.0314	902.95	18.9
1047.1617	3185.9773	900.15	15.75
1047.2654	3186.9227	899.9	14.2
1047.369	3187.8674	900.7	17.25
1047.4726	3188.8115	904.05	14.2
1047.5761	3189.755	900.2	15.7
1047.6796	3190.6979	900.4	15.4
1047.783	3191.6402	899.9	18.6
1047.8864	3192.5818	897.7	13.4
1047.9898	3193.5229	904.55	12.7
1048.0931	3194.4633	898.95	15.25
1048.1963	3195.4031	899.85	15.5
1048.2995	3196.3423	900.65	17.2
1048.4027	3197.2809	899.55	15.6
1048.5058	3198.2189	900.4	15.05
1048.6089	3199.1563	915.8	15.15
1048.7119	3200.0931	897.15	14.7
1048.8148	3201.0292	898.7	17.05
1048.9178	3201.9648	899.25	15.6
1049.0206	3202.8997	901.45	15.05
1049.1235	3203.834	897.8	14.25
1049.2262	3204.7677	900.2	15.75
1049.329	3205.7008	901.75	15.75
1049.4317	3206.6333	896.25	12.7
1049.5343	3207.5652	898.8	13.05
1049.6369	3208.4964	895.95	11.2
1049.7394	3209.4271	897.8	15.05
1049.8419	3210.3571	895.95	10.3
1049.9444	3211.2865	899.7	15.85
1050.0468	3212.2154	898.5	13.95
1050.1491	3213.1436	902.05	15.65
1050.2514	3214.0712	905.1	15.1
1050.3537	3214.9982	898.35	13.4
1050.4559	3215.9246	897.35	14.4
1050.5581	3216.8503	894.65	11
1050.6602	3217.7755	897.55	13.9
1050.7623	3218.7001	898.1	14.85
1050.8643	3219.624	899.05	15.4
1050.9663	3220.5473	897.4	12.9
1051.0682	3221.4701	898	10.8
1051.1701	3222.3922	897.6	11.4
1051.2719	3223.3137	898.15	15.3
1051.3737	3224.2346	897.45	13.6
1051.4754	3225.1549	894.55	11.5
1051.5771	3226.0746	895.4	11.35
1051.6788	3226.9937	896.25	11.6
1051.7804	3227.9121	897.05	16.8
1051.8819	3228.83	895.7	13.15
1051.9834	3229.7473	897.6	12.4
1052.0849	3230.6639	897.15	12
1052.1863	3231.5799	897.65	12.95
1052.2876	3232.4954	896.15	12.15
1052.3889	3233.4102	895.45	11.25
1052.4902	3234.3244	895.55	10.35
1052.5914	3235.238	896.05	13.2
1052.6926	3236.151	912.35	13.8
1052.7937	3237.0634	895.2	12.9
1052.8948	3237.9752	895.9	12.65
1052.9958	3238.8864	896.6	13.2
1053.0968	3239.797	896	13
1053.1977	3240.7069	896.95	12.25
1053.2986	3241.6163	897.1	11.95
1053.3994	3242.5251	896.2	13.85
1053.5002	3243.4332	895.9	14
1053.6009	3244.3408	895.6	10.35
1053.7016	3245.2477	895.3	11.5
1053.8022	3246.154	898.45	12.85
1053.9028	3247.0598	897.05	12.75
1054.0034	3247.9649	895.6	13.7
1054.1039	3248.8694	896.6	14.4
1054.2043	3249.7733	896.65	13.55
1054.3047	3250.6766	895	9.7
1054.4051	3251.5793	896.15	9.95
1054.5054	3252.4814	895.2	13.25
1054.6056	3253.3829	892.9	10.3
1054.7058	3254.2838	893.9	10.15
1054.806	3255.1841	893.4	11.15
1054.9061	3256.0838	896.4	10.95
1055.0061	3256.9829	893.9	12.5
1055.1062	3257.8814	896.2	10.25
1055.2061	3258.7792	896.45	9.55
1055.306	3259.6765	895.8	10.05
1055.4059	3260.5731	894.35	10.85
1055.5057	3261.4692	896.35	14.4
1055.6055	3262.3647	894.3	11.25
1055.7052	3263.2595	893.85	9.1
1055.8049	3264.1538	892.9	8.4
1055.9045	3265.0474	891.35	6.85
1056.0041	3265.9404	893.7	11.35
1056.1036	3266.8329	891.65	7.5
1056.2031	3267.7247	902.55	8.4
1056.3025	3268.616	891.85	7.85
1056.4019	3269.5066	892.75	6.15
1056.5013	3270.3966	893.5	7.9
1056.6005	3271.286	891.5	10.35
