Software Version:	3.9.2.0
Unit SN:	10000200
Spectrometer SN:	6960
Date:	3/26/2024 2:32:32 PM
Data Line Index:	25
Spectral Points:	2048
Integration time (ms):	125
Averages:	20
Delay (ms):	30000
Sequence Number:	1
Processing:	dark subtract
Laser Power (mW):	300
Laser Current (mA):	819
Laser Diode Temp (C):	25
Laser Case Temp (C):	27.8
System Temp (C):	27.8
Spectrometer Temp (C):	25.7
CCD Temp (C):	0.001
Secondary Temp (C):	20.01
Heatsink Temp (C):	23.282
CCDPCB Temp (C):	37.263
SecondaryPCB Temp (C):	34.651

Wavelength	RamanShift	Raw Counts	Dark Subtracted
787.061	30.1047	653.4	245.35
787.2016	32.3739	662.8	255.55
787.3422	34.6426	683.85	273.75
787.4828	36.9109	701.7	291.25
787.6235	39.1787	724	309.1
787.7642	41.4461	750.75	330.15
787.9049	43.7131	780.2	355.05
788.0456	45.9796	801.35	374.85
788.1863	48.2456	832	401.8
788.3271	50.5112	857.3	421.8
788.4679	52.7764	887.85	451.4
788.6087	55.0411	918.65	478.45
788.7496	57.3054	946.5	500.15
788.8904	59.5692	982.95	533.7
789.0313	61.8326	1019.25	567.4
789.1722	64.0955	1056.6	600.15
789.3132	66.3579	1103.85	642.15
789.4541	68.6199	1169.25	703.6
789.5951	70.8815	1273.55	805.15
789.7361	73.1426	1489.75	1017.05
789.8771	75.4032	2013.05	1537
790.0181	77.6634	3328.35	2844.95
790.1592	79.9231	6654.7	6163.65
790.3003	82.1824	14342.9	13830.35
790.4414	84.4412	32950	32406.1
790.5825	86.6995	60883.7	60296.4
790.7237	88.9574	65535	64901.65
790.8648	91.2148	65535	64872.35
791.006	93.4717	65535	64857.2
791.1472	95.7282	65535	64846.65
791.2885	97.9842	65535	64839.85
791.4297	100.2398	65535	64838.7
791.571	102.4949	65535	64830.45
791.7123	104.7495	65535	64829.15
791.8536	107.0036	65535	64829.65
791.9949	109.2573	65535	64826.75
792.1363	111.5105	65535	64825.25
792.2777	113.7632	65535	64825.95
792.4191	116.0154	65535	64811.8
792.5605	118.2672	65535	64821.95
792.7019	120.5185	65535	64817.35
792.8434	122.7693	65535	64813.65
792.9849	125.0197	65535	64814.45
793.1264	127.2696	65535	64809.4
793.2679	129.519	65535	64804.8
793.4094	131.7679	65535	64802.9
793.551	134.0163	65535	64798.25
793.6926	136.2642	65535	64795.25
793.8342	138.5117	65535	64791.5
793.9758	140.7587	65535	64792
794.1175	143.0052	65535	64789.6
794.2591	145.2512	65535	64792.35
794.4008	147.4967	65535	64792.75
794.5425	149.7417	65535	64788.9
794.6842	151.9863	65535	64784.6
794.826	154.2304	65535	64780.7
794.9677	156.4739	65535	64778
795.1095	158.717	65535	64774.55
795.2513	160.9596	65535	64771.65
795.3931	163.2017	65535	64768.1
795.535	165.4433	65535	64768.9
795.6768	167.6844	65535	64763.55
795.8187	169.925	65535	64760.25
795.9606	172.1651	65535	64764.45
796.1025	174.4047	65535	64765.2
796.2445	176.6439	65535	64760.1
796.3864	178.8825	65535	64757.5
796.5284	181.1206	65535	64752.75
796.6704	183.3582	65535	64749.45
796.8124	185.5954	65535	64744.15
796.9544	187.832	65535	64743.1
797.0965	190.0681	65535	64737.85
797.2386	192.3037	65535	64738
797.3806	194.5388	65535	64732.9
797.5228	196.7734	65535	64725.1
797.6649	199.0075	65535	64727.65
797.807	201.2411	65535	64726.8
797.9492	203.4742	65535	64719.05
798.0914	205.7068	65535	64722.4
798.2336	207.9389	65535	64719.05
798.3758	210.1704	65535	64720.45
798.518	212.4015	65535	64719.5
798.6603	214.632	65535	64719.85
798.8025	216.862	65535	64729.8
798.9448	219.0915	65535	64737.5
799.0871	221.3205	65535	64741.45
799.2294	223.549	65535	64743.7
799.3718	225.777	65535	64740.4
799.5141	228.0044	65535	64736.9
799.6565	230.2314	65535	64742.35
799.7989	232.4578	65535	64742.75
799.9413	234.6837	65535	64735.5
800.0837	236.909	65535	64732.15
800.2262	239.1339	65535	64697.8
800.3687	241.3582	65535	64713.75
800.5111	243.582	65535	64688.25
800.6536	245.8053	65535	64699.5
800.7961	248.0281	65535	64705.25
800.9387	250.2503	65535	64702
801.0812	252.472	65535	64695.85
801.2238	254.6932	65535	64692.8
801.3664	256.9139	65535	64696.55
801.509	259.134	65535	64687.95
801.6516	261.3536	65535	64692.65
801.7942	263.5727	65535	64688.95
801.9369	265.7912	65535	64689.8
802.0795	268.0092	65535	64686.9
802.2222	270.2267	65535	64691.4
802.3649	272.4436	65535	64690
802.5076	274.6601	65535	64682.85
802.6504	276.8759	65535	64688.55
802.7931	279.0913	65535	64691.05
802.9359	281.3061	65535	64687.15
803.0787	283.5204	65535	64678.25
803.2215	285.7341	65535	64672.2
803.3643	287.9473	65535	64660.95
803.5071	290.16	65535	64670.55
803.6499	292.3721	65535	64675.1
803.7928	294.5837	65535	64674.55
803.9357	296.7947	65535	64674.35
804.0786	299.0052	65535	64680.65
804.2215	301.2152	65535	64670.85
804.3644	303.4246	65535	64678.95
804.5074	305.6334	65535	64680.75
804.6503	307.8418	65535	64670.5
804.7933	310.0495	65535	64672.55
804.9363	312.2568	65535	64673
805.0793	314.4635	65535	64668.85
805.2223	316.6696	65535	64668.4
805.3653	318.8752	65535	64661.5
805.5084	321.0802	65535	64672.6
805.6514	323.2847	65535	64660.85
805.7945	325.4887	65535	64664.05
805.9376	327.692	65535	64667.2
806.0807	329.8949	65535	64665.4
806.2238	332.0972	65535	64663.7
806.367	334.2989	65535	64660.4
806.5101	336.5001	65535	64659.95
806.6533	338.7007	65535	64661.65
806.7965	340.9008	65535	64658.45
806.9397	343.1003	65535	64653.5
807.0829	345.2992	65535	64652.4
807.2261	347.4976	65535	64651.4
807.3693	349.6955	65535	64647.15
807.5126	351.8927	65535	64648.75
807.6559	354.0895	65535	64639.1
807.7991	356.2856	65535	64644.7
807.9424	358.4812	65535	64648.2
808.0857	360.6763	65535	64649.75
808.2291	362.8707	65535	64645.9
808.3724	365.0646	65535	64641.9
808.5158	367.258	65535	64643.85
808.6591	369.4508	65535	64641.05
808.8025	371.643	65535	64636.75
808.9459	373.8346	65535	64640.95
809.0893	376.0257	65535	64633.1
809.2327	378.2162	65535	64634.8
809.3762	380.4062	65535	64636
809.5196	382.5956	65535	64631.25
809.6631	384.7844	65535	64637.45
809.8066	386.9726	65535	64633.6
809.9501	389.1603	65535	64636.75
810.0936	391.3474	65535	64593.7
810.2371	393.5339	65535	64638.85
810.3806	395.7199	65535	64640.8
810.5241	397.9052	65535	64643.9
810.6677	400.09	65535	64646.45
810.8113	402.2743	65535	64645.35
810.9548	404.4579	65535	64644.2
811.0984	406.641	65535	64646.25
811.2421	408.8235	65535	64645.8
811.3857	411.0054	65535	64638.35
811.5293	413.1868	65535	64637.85
811.673	415.3675	65535	64635.6
811.8166	417.5477	65535	64638.35
811.9603	419.7273	65535	64634.8
812.104	421.9064	65535	64634.8
812.2477	424.0848	65535	64634.35
812.3914	426.2627	65535	64627.65
812.5351	428.4399	65535	64629.35
812.6788	430.6166	65535	64626.85
812.8226	432.7928	65535	64624.8
812.9663	434.9683	65535	64631.8
813.1101	437.1432	65535	64629.45
813.2539	439.3176	65535	64632.7
813.3977	441.4914	65535	64633.55
813.5415	443.6645	65535	64627.65
813.6853	445.8371	65535	64629.05
813.8291	448.0091	65535	64629.1
813.973	450.1806	65535	64634.25
814.1168	452.3514	65535	64631.9
814.2607	454.5216	65535	64628.3
814.4046	456.6913	65535	64628
814.5485	458.8603	65535	64631.7
814.6924	461.0288	65535	64633.6
814.8363	463.1967	65535	64637.25
814.9802	465.3639	65535	64629.75
815.1241	467.5306	65535	64623
815.2681	469.6967	65535	64633.15
815.412	471.8622	65535	64633.65
815.556	474.0271	65535	64632.65
815.7	476.1914	65535	64624.25
815.844	478.3551	65535	64626.9
815.988	480.5182	65535	64633.95
816.132	482.6807	65535	64635.95
816.276	484.8426	65535	64641.35
816.4201	487.0039	65535	64635.4
816.5641	489.1647	65535	64626.5
816.7082	491.3248	65535	64626.95
816.8522	493.4843	65535	64629.25
816.9963	495.6432	65535	64634.55
817.1404	497.8015	65535	64619.75
817.2845	499.9592	65535	64617.45
817.4286	502.1163	65535	64620.2
817.5727	504.2728	65535	64627.85
817.7168	506.4287	65535	64632.25
817.861	508.5839	65535	64632.45
818.0051	510.7386	65535	64633.15
818.1493	512.8927	65535	64617.6
818.2935	515.0461	65535	64617.05
818.4377	517.199	65535	64620.15
818.5818	519.3512	65535	64614.9
818.726	521.5029	65535	64617.9
818.8703	523.6539	65535	64622
819.0145	525.8043	65535	64619.5
819.1587	527.9541	65535	64613.55
819.303	530.1033	65535	64616.6
819.4472	532.2519	65535	64620.2
819.5915	534.3999	65535	64615.8
819.7357	536.5472	65535	64620.8
819.88	538.694	65535	64624.6
820.0243	540.8401	65535	64619.05
820.1686	542.9856	65535	64610.15
820.3129	545.1305	65535	64601.6
820.4572	547.2748	65535	64601.55
820.6016	549.4185	65535	64600.9
820.7459	551.5615	65535	64603.3
820.8902	553.704	65535	64606.6
821.0346	555.8458	65535	64607.95
821.1789	557.987	65535	64610.3
821.3233	560.1276	65535	64605.3
821.4677	562.2675	65535	64607.05
821.6121	564.4069	65535	64605.05
821.7565	566.5456	65535	64609.75
821.9009	568.6837	65535	64609
822.0453	570.8212	65535	64610.55
822.1897	572.958	65535	64611.6
822.3342	575.0942	65535	64615.8
822.4786	577.2299	65535	64619.65
822.6231	579.3648	65535	64626.2
822.7675	581.4992	65535	64631.45
822.912	583.6329	65535	64636.75
823.0565	585.766	65535	64628.1
823.201	587.8985	65535	64626
823.3454	590.0304	65535	64591
823.4899	592.1616	65535	64611
823.6345	594.2922	65535	64608.85
823.779	596.4222	65535	64601.45
823.9235	598.5515	65535	64605.95
824.068	600.6802	65535	64610.9
824.2126	602.8083	65535	64615.2
824.3571	604.9358	65535	64605.85
824.5017	607.0626	65535	64605.2
824.6462	609.1888	65535	64598.6
824.7908	611.3144	65535	64599.85
824.9354	613.4393	65535	64602.65
825.08	615.5636	65535	64599.8
825.2246	617.6873	65535	64603.3
825.3692	619.8103	65535	64601
825.5138	621.9327	65535	64605.4
825.6584	624.0544	65535	64608.75
825.803	626.1756	65535	64611.9
825.9477	628.2961	65535	64604.95
826.0923	630.4159	65535	64607.05
826.237	632.5351	65535	64602.6
826.3816	634.6537	65535	64599.6
826.5263	636.7716	65535	64597.05
826.6709	638.8889	65535	64592
826.8156	641.0056	65535	64595.95
826.9603	643.1216	65535	64597.35
827.105	645.237	65535	64596.5
827.2497	647.3518	65535	64608.05
827.3944	649.4659	65535	64607.55
827.5391	651.5793	65535	64606.4
827.6838	653.6922	65535	64605.05
827.8285	655.8043	65535	64609.85
827.9733	657.9159	65535	64603.05
828.118	660.0268	65535	64600.45
828.2627	662.137	65535	64605.05
828.4075	664.2466	65535	64598.05
828.5522	666.3556	65535	64597.05
828.697	668.4639	65535	64600.05
828.8418	670.5716	65535	64609.05
828.9865	672.6786	65535	64600
829.1313	674.785	65535	64593.1
829.2761	676.8907	65535	64601.4
829.4209	678.9958	65535	64606.1
829.5657	681.1002	65535	64601.6
829.7105	683.204	65535	64591.1
829.8553	685.3072	65535	64594.25
830.0001	687.4097	65535	64597.5
830.1449	689.5115	65535	64593.45
830.2898	691.6127	65535	64598.95
830.4346	693.7132	65535	64597.55
830.5794	695.8131	65535	64577.5
830.7243	697.9123	65535	64591.05
830.8691	700.0109	65535	64591.95
831.014	702.1089	65535	64593.75
831.1588	704.2061	65535	64597.6
831.3037	706.3028	65535	64595.55
831.4486	708.3987	65535	64591.9
831.5935	710.4941	65535	64594.2
831.7383	712.5887	65535	64597.05
831.8832	714.6827	65535	64595.25
832.0281	716.7761	65535	64598.45
832.173	718.8688	65535	64600.95
832.3179	720.9608	65535	64587.95
832.4628	723.0522	65535	64586.85
832.6077	725.1429	65535	64591.5
832.7527	727.233	65535	64592.9
832.8976	729.3224	65535	64590.95
833.0425	731.4112	65535	64594
833.1874	733.4993	65535	64593.2
833.3324	735.5867	65535	64590.5
833.4773	737.6735	65535	64592.5
833.6222	739.7596	65535	64590.7
833.7672	741.845	65535	64590.45
833.9122	743.9298	65535	64589.85
834.0571	746.014	65535	64592.4
834.2021	748.0974	65535	64588.3
834.347	750.1802	65535	64586.3
834.492	752.2624	65535	64587.35
834.637	754.3439	65535	64587.95
834.782	756.4247	65535	64581
834.9269	758.5048	65535	64591.25
835.0719	760.5843	65535	64589.7
835.2169	762.6631	65535	64588.85
835.3619	764.7413	65535	64592.4
835.5069	766.8188	65535	64592.8
835.6519	768.8956	65535	64589.1
835.7969	770.9718	65535	64589.4
835.9419	773.0473	65535	64589.15
836.0869	775.1221	65535	64587
836.232	777.1962	65535	64589.85
836.377	779.2697	65535	64587.05
836.522	781.3426	65535	64569.5
836.667	783.4147	65535	64589.65
836.8121	785.4862	65535	64587.1
836.9571	787.557	65535	64585.45
837.1021	789.6271	65535	64588.6
837.2472	791.6966	65535	64587.55
837.3922	793.7654	65535	64586.75
837.5373	795.8335	65535	64587.8
837.6823	797.901	65535	64592.05
837.8274	799.9678	65535	64581.9
837.9724	802.0339	65535	64588.7
838.1175	804.0993	65535	64570.8
838.2626	806.1641	65535	64585.95
838.4076	808.2282	65535	64588.65
838.5527	810.2916	65518.25	64569.2
838.6978	812.3544	65535	64591.55
838.8428	814.4164	65502.3	64554.9
838.9879	816.4778	65493.3	64545.45
839.133	818.5385	65509.8	64559.4
839.2781	820.5986	65504.9	64556.5
839.4232	822.658	65508.2	64556.25
839.5682	824.7166	65516.8	64569.6
839.7133	826.7747	65448.95	64498.7
839.8584	828.832	65465.3	64513.9
840.0035	830.8886	65507.5	64557.65
840.1486	832.9446	65523.4	64573.9
840.2937	834.9999	65335.5	64387.2
840.4388	837.0545	65460.25	64508
840.5839	839.1085	65510.6	64559.8
840.729	841.1618	65482.45	64529.2
840.8741	843.2143	65335.15	64384.85
841.0192	845.2662	65316.9	64369.35
841.1643	847.3175	65417.5	64466.7
841.3095	849.368	65007.85	64058.75
841.4546	851.4179	65341.85	64392.75
841.5997	853.467	65059.75	64110.45
841.7448	855.5155	65210.9	64258.9
841.8899	857.5633	64961.65	64013.65
842.0351	859.6105	64840.35	63890.8
842.1802	861.6569	65006.15	64054.85
842.3253	863.7027	64657.75	63699.75
842.4704	865.7478	64785.7	63835.35
842.6156	867.7922	64700.75	63750.25
842.7607	869.8359	64845.1	63891.75
842.9058	871.8789	64480.85	63529
843.0509	873.9212	64744.1	63760.7
843.1961	875.9629	64811.1	63853.45
843.3412	878.0039	64730.5	63776.45
843.4863	880.0441	64632.7	63685.2
843.6315	882.0837	64618.05	63665.6
843.7766	884.1226	64566.8	63611
843.9218	886.1609	64490.95	63543.55
844.0669	888.1984	64249.05	63299.35
844.212	890.2352	64542.95	63591.55
844.3572	892.2714	64149.95	63193.15
844.5023	894.3069	64335.2	63380
844.6475	896.3416	64063.75	63112.1
844.7926	898.3757	64016.75	63065.9
844.9377	900.4091	63373.75	62422.8
845.0829	902.4418	64210.2	63251.4
845.228	904.4739	63762.95	62806.2
845.3732	906.5052	63783.45	62828.65
845.5183	908.5358	63520.75	62568.75
845.6635	910.5658	63269.6	62312.45
845.8086	912.595	63250.25	62297.25
845.9538	914.6236	62496.95	61543.4
846.0989	916.6515	63566.45	62614.05
846.2441	918.6786	62495.9	61542.4
846.3892	920.7051	62763.05	61809.25
846.5344	922.7309	62587.1	61634.45
846.6795	924.756	62776.35	61825.8
846.8246	926.7804	62455.95	61503.9
846.9698	928.8041	61632.95	60680.1
847.1149	930.8272	62243.3	61291
847.2601	932.8495	62280.2	61328.25
847.4052	934.8711	61551.45	60596.85
847.5504	936.892	61041.95	60085.25
847.6955	938.9123	61304.3	60350.25
847.8407	940.9318	60774.9	59822.65
847.9858	942.9506	60593.95	59640.55
848.131	944.9688	60677.5	59726
848.2761	946.9862	59668.1	58717.05
848.4213	949.003	60030	59078.35
848.5664	951.019	59201.1	58249
848.7115	953.0344	59403.25	58450.85
848.8567	955.0491	59255.8	58302.65
849.0018	957.063	59565.6	58614.3
849.147	959.0763	59630.1	58669.35
849.2921	961.0888	59018.45	58065.3
849.4373	963.1007	59510.8	58557.8
849.5824	965.1119	59402.15	58456.25
849.7275	967.1223	58959.25	58020.4
849.8727	969.1321	59473.95	58532.45
850.0178	971.1412	58742.85	57794.4
850.1629	973.1495	58477.05	57528.7
850.3081	975.1572	58714.6	57731.1
850.4532	977.1641	58471.05	57521.4
850.5983	979.1704	58302.1	57349.35
850.7435	981.1759	58302.25	57348.05
850.8886	983.1808	57941.45	56990.65
851.0337	985.1849	57998.5	57037.6
851.1788	987.1884	58154.35	57200.75
851.324	989.1911	58551.45	57601.25
851.4691	991.1932	57563.95	56613.3
851.6142	993.1945	57729.65	56781.35
851.7593	995.1951	57936.7	56986.4
851.9045	997.1951	57404.4	56445.9
852.0496	999.1943	57111.35	56162.65
852.1947	1001.1928	56858.15	55903.1
852.3398	1003.1906	56871.65	55919.5
852.4849	1005.1877	56251.2	55297.3
852.63	1007.1841	55888.95	54940.8
852.7751	1009.1798	55797	54845.45
852.9202	1011.1748	55549.7	54596.55
853.0653	1013.1691	55243.85	54293.6
853.2104	1015.1627	54188.95	53241.25
853.3555	1017.1556	54136.35	53187.3
853.5006	1019.1477	54196.85	53249.5
853.6457	1021.1392	53580.1	52633.9
853.7908	1023.1299	53108.55	52166.6
853.9359	1025.12	53226.35	52288.2
854.081	1027.1093	52850.3	51920.2
854.2261	1029.0979	52818.75	51896.3
854.3712	1031.0859	52746.95	51814.9
854.5163	1033.0731	52186.55	51249.6
854.6613	1035.0596	52211.05	51267.6
854.8064	1037.0454	51846.45	50900.65
854.9515	1039.0304	51448.85	50499.4
855.0965	1041.0148	51044.4	50096.95
855.2416	1042.9985	50860	49911.25
855.3867	1044.9814	50869.7	49926.2
855.5317	1046.9636	50482.3	49534.3
855.6768	1048.9452	50331.4	49385.65
855.8219	1050.926	50196.35	49249.7
855.9669	1052.9061	49965.6	49018.1
856.112	1054.8855	49901.95	48951.8
856.257	1056.8642	49677.75	48730.45
856.4021	1058.8421	49661.5	48709.35
856.5471	1060.8194	49542.2	48594.2
856.6921	1062.7959	49369.95	48424.8
856.8372	1064.7717	49247.55	48299.2
856.9822	1066.7469	49121.1	48173.55
857.1272	1068.7213	48974.55	48022.3
857.2723	1070.695	48770.8	47823.9
857.4173	1072.6679	48446.2	47500.6
857.5623	1074.6402	48383.95	47435.75
857.7073	1076.6117	48304.8	47351.8
857.8523	1078.5826	48149.55	47202.35
857.9973	1080.5527	48026.2	47076.65
858.1423	1082.5221	47940.25	46995.15
858.2873	1084.4908	48112	47164.3
858.4323	1086.4587	48180.85	47228.6
858.5773	1088.426	48269.1	47321.55
858.7223	1090.3925	48085.35	47131.35
858.8673	1092.3584	47914.45	46969.85
859.0123	1094.3235	47459.95	46514.65
859.1573	1096.2879	47221.85	46275.45
859.3022	1098.2515	47014.05	46069.15
859.4472	1100.2145	46978.75	46032
859.5922	1102.1767	46843.85	45896.85
859.7371	1104.1382	46809.55	45865.15
859.8821	1106.099	46928.85	45981.15
860.027	1108.0591	46874.35	45928.25
860.172	1110.0185	46762.95	45814.35
860.3169	1111.9771	46812.6	45864.7
860.4619	1113.9351	46351.15	45406.55
860.6068	1115.8923	45864.9	44916.9
860.7517	1117.8488	45375.35	44425.15
860.8967	1119.8045	44882.25	43937.05
861.0416	1121.7596	44708.45	43762.45
861.1865	1123.7139	44403.5	43459.95
861.3314	1125.6675	44348.95	43403.75
861.4763	1127.6204	44402.15	43458.25
861.6212	1129.5726	44243.25	43296.85
861.7661	1131.524	44165.3	43220.75
861.911	1133.4748	44166.4	43221.4
862.0559	1135.4248	44020.5	43076.05
862.2008	1137.3741	43928.6	42982.1
862.3457	1139.3226	43813.05	42867.05
862.4905	1141.2705	43767.55	42823.05
862.6354	1143.2176	43415.65	42465.8
862.7803	1145.164	43362.45	42415.2
862.9251	1147.1097	43281.1	42336.45
863.07	1149.0546	43194.4	42245.45
863.2148	1150.9989	43078.8	42134.5
863.3597	1152.9424	42826.1	41880.9
863.5045	1154.8852	42502.1	41558.05
863.6493	1156.8272	42316.2	41370.55
863.7942	1158.7686	42129.5	41177.8
863.939	1160.7092	41903.15	40957.85
864.0838	1162.6491	41721.95	40773.1
864.2286	1164.5883	41720.55	40776.1
864.3734	1166.5267	41645.85	40697.6
864.5182	1168.4644	41743.9	40801.4
864.663	1170.4014	41783.75	40834.05
864.8078	1172.3377	41992.7	41048.9
864.9526	1174.2732	42045.85	41104.05
865.0974	1176.2081	42198.25	41255.55
865.2421	1178.1421	42228.25	41283.05
865.3869	1180.0755	42250.05	41310.4
865.5317	1182.0082	42077.95	41135.25
865.6764	1183.9401	41906.2	40965.7
865.8212	1185.8713	41526.9	40589.85
865.9659	1187.8017	41216.2	40282.95
866.1106	1189.7315	40891.35	39963.5
866.2554	1191.6605	40416.9	39489.2
866.4001	1193.5888	40092.05	39158.1
866.5448	1195.5163	39887.15	38951.55
866.6895	1197.4432	39725.15	38781.1
866.8342	1199.3693	39525.25	38586.85
866.9789	1201.2947	39260.75	38313.75
867.1236	1203.2193	39080.2	38138.45
867.2683	1205.1432	39025.65	38086.15
867.413	1207.0664	38947.05	38003.8
867.5576	1208.9889	38872.8	37928.65
867.7023	1210.9106	38834.05	37889.1
867.847	1212.8316	38750.05	37809.05
867.9916	1214.7519	38749.7	37799
868.1363	1216.6715	38652.5	37709
868.2809	1218.5903	38545.3	37603.95
868.4255	1220.5084	38337.75	37393
868.5701	1222.4257	38290.75	37352.35
868.7148	1224.3424	37940.1	37002.85
868.8594	1226.2583	37901.15	36956.7
869.004	1228.1735	37945.4	37004.9
869.1486	1230.0879	37851.55	36912.4
869.2932	1232.0016	37899.9	36960.65
869.4377	1233.9146	37782.3	36840.25
869.5823	1235.8269	37603.05	36663.65
869.7269	1237.7384	37392.25	36450.15
869.8715	1239.6492	37000.6	36063.45
870.016	1241.5592	36901.6	35962.15
870.1606	1243.4686	36574	35632.85
870.3051	1245.3772	36439.9	35500
870.4496	1247.285	36216.25	35275.55
870.5941	1249.1922	36071.35	35132.35
870.7387	1251.0986	36020.55	35080.75
870.8832	1253.0042	35871.3	34930.15
871.0277	1254.9092	35866.65	34930.5
871.1722	1256.8134	35849	34908.7
871.3167	1258.7169	35972.55	35033.45
871.4611	1260.6196	35984.95	35045.9
871.6056	1262.5216	36150.5	35212.1
871.7501	1264.4229	36148.3	35214.65
871.8945	1266.3234	36229.25	35292.2
872.039	1268.2232	36182.9	35242.05
872.1834	1270.1223	36060.55	35121.1
872.3278	1272.0207	35899.1	34958.25
872.4723	1273.9183	35788.35	34843.3
872.6167	1275.8151	35588.45	34649.15
872.7611	1277.7113	35467.15	34530.4
872.9055	1279.6067	35182	34246.5
873.0499	1281.5014	34906.7	33966.2
873.1943	1283.3953	34672.15	33734.55
873.3386	1285.2885	34541.6	33601.35
873.483	1287.181	34368.2	33432.3
873.6274	1289.0727	34339.6	33407.8
873.7717	1290.9637	34262.55	33322.85
873.9161	1292.854	34348.85	33415.65
874.0604	1294.7435	34365.8	33426.8
874.2047	1296.6323	34544	33606.15
874.349	1298.5204	34703	33763.9
874.4933	1300.4077	34892.7	33955.7
874.6376	1302.2943	35045.4	34107.7
874.7819	1304.1802	35107.25	34168.05
874.9262	1306.0653	34864.45	33925.3
875.0705	1307.9497	34653.6	33715.95
875.2147	1309.8333	34557.6	33621.2
875.359	1311.7162	34492.75	33555.1
875.5032	1313.5984	34501.7	33562.55
875.6475	1315.4798	34596.45	33643.1
875.7917	1317.3605	34694	33740.45
875.9359	1319.2405	34795.9	33857.65
876.0801	1321.1197	34786.35	33848.55
876.2243	1322.9982	34640	33698.85
876.3685	1324.876	34611.85	33678.05
876.5127	1326.753	34453.7	33517.9
876.6569	1328.6293	34481.85	33541.6
876.801	1330.5048	34469.25	33530.6
876.9452	1332.3796	34353.65	33414.5
877.0893	1334.2537	34324.55	33362.2
877.2335	1336.127	34136.3	33199.65
877.3776	1337.9996	33979.8	33044.05
877.5217	1339.8714	33884.6	32948.7
877.6658	1341.7426	33733.95	32753.55
877.8099	1343.6129	33618.65	32682.2
877.954	1345.4826	33489.45	32552.15
878.0981	1347.3515	33386.65	32449.55
878.2422	1349.2196	33242.6	32306.9
878.3862	1351.087	33201.85	32267.25
878.5303	1352.9537	33200.15	32263.75
878.6743	1354.8197	33263.4	32324.45
878.8184	1356.6849	33392.1	32457.2
878.9624	1358.5493	33361.9	32426.3
879.1064	1360.4131	33281.75	32343.2
879.2504	1362.276	33084.25	32148.15
879.3944	1364.1383	32814.2	31875.65
879.5384	1365.9998	32511.3	31567.8
879.6823	1367.8606	32165.75	31228.35
879.8263	1369.7206	31845.9	30910.55
879.9702	1371.5799	31618.9	30679.95
880.1142	1373.4384	31389.8	30452.5
880.2581	1375.2962	31223.5	30287.55
880.402	1377.1533	30824.55	29890.65
880.5459	1379.0096	30393.4	29461.35
880.6898	1380.8652	30099.1	29167.3
880.8337	1382.7201	29836.55	28901.05
880.9776	1384.5742	29473	28537.75
881.1215	1386.4275	29240.75	28303.05
881.2653	1388.2802	29063.25	28128.5
881.4092	1390.132	28823.5	27888.7
881.553	1391.9832	28737.75	27801.1
881.6968	1393.8336	28517.05	27582.05
881.8406	1395.6832	28412.75	27478.75
881.9844	1397.5322	28265.15	27331.8
882.1282	1399.3803	28181.05	27241.65
882.272	1401.2278	28036.7	27103.4
882.4158	1403.0745	27942	27009.95
882.5595	1404.9204	27827.2	26897.5
882.7033	1406.7656	27813.75	26879.75
882.847	1408.6101	27702.5	26767.9
882.9908	1410.4538	27567.25	26633.35
883.1345	1412.2968	27510.4	26576.15
883.2782	1414.139	27462	26526.8
883.4219	1415.9805	27498.4	26562.25
883.5656	1417.8213	27449.6	26497.9
883.7092	1419.6613	27475.7	26542.9
883.8529	1421.5006	27635.45	26703.05
883.9965	1423.3391	27838.8	26905.8
884.1402	1425.1769	28110.15	27176.1
884.2838	1427.0139	28605.45	27672.5
884.4274	1428.8502	29143.25	28206.85
884.571	1430.6858	29642.45	28710.25
884.7146	1432.5206	29933.2	29000.5
884.8582	1434.3547	30151.7	29217.8
885.0018	1436.188	30187.4	29256.5
885.1453	1438.0206	30091	29159.5
885.2889	1439.8524	29789.3	28857.5
885.4324	1441.6835	29742.35	28811.05
885.5759	1443.5139	29500.65	28566.2
885.7194	1445.3435	29382.85	28456.1
885.8629	1447.1724	29293.9	28362.3
886.0064	1449.0005	29154.6	28224.5
886.1499	1450.8279	29026.2	28091.55
886.2933	1452.6545	28929.8	28001.6
886.4368	1454.4804	28961.7	28030.7
886.5802	1456.3056	28892.7	27957.45
886.7237	1458.13	28701.25	27771.4
886.8671	1459.9536	28438.9	27509.35
887.0105	1461.7766	28012	27081.2
887.1539	1463.5987	27540.2	26608.2
887.2972	1465.4202	27130.3	26200.65
887.4406	1467.2409	26676.8	25745.25
887.584	1469.0608	26355.45	25423.55
887.7273	1470.88	26034.6	25103.7
887.8706	1472.6984	25767.15	24835.6
888.0139	1474.5161	25469.45	24537.35
888.1572	1476.3331	25281.85	24351.6
888.3005	1478.1493	25151.9	24221.1
888.4438	1479.9648	25026.05	24091.55
888.5871	1481.7795	24849	23918.15
888.7303	1483.5935	24768.15	23839.05
888.8736	1485.4067	24662.25	23730.9
889.0168	1487.2192	24565.45	23635.2
889.16	1489.031	24480.6	23545.95
889.3032	1490.842	24397.35	23469.8
889.4464	1492.6522	24349.1	23419.95
889.5896	1494.4618	24187.95	23256.9
889.7327	1496.2705	24178.8	23251.3
889.8759	1498.0785	24098.85	23168.4
890.019	1499.8858	24018.45	23088.35
890.1622	1501.6924	23931.45	23002.3
890.3053	1503.4981	23885.8	22957.4
890.4484	1505.3032	23808.55	22877.45
890.5914	1507.1075	23750.3	22822.6
890.7345	1508.911	23684.15	22751.45
890.8776	1510.7138	23565.8	22636.9
891.0206	1512.5159	23498.35	22570.3
891.1637	1514.3172	23393.05	22465.45
891.3067	1516.1178	23267.65	22340.65
891.4497	1517.9176	23229.25	22298.2
891.5927	1519.7166	23149.8	22220.75
891.7357	1521.515	23059.3	22130
891.8786	1523.3126	22976.35	22049.4
892.0216	1525.1094	22887.05	21957.5
892.1645	1526.9055	22794	21867.95
892.3074	1528.7008	22696.1	21770.8
892.4503	1530.4954	22585.65	21652.85
892.5932	1532.2893	22551.7	21629.1
892.7361	1534.0824	22440.55	21513.4
892.879	1535.8747	22422.2	21501.65
893.0218	1537.6663	22307.4	21384.5
893.1647	1539.4572	22244.6	21318.6
893.3075	1541.2473	22171.5	21247.8
893.4503	1543.0367	22079.65	21157.5
893.5931	1544.8253	21983.1	21055.2
893.7359	1546.6132	21979.85	21053.45
893.8787	1548.4003	21914.4	20980.85
894.0214	1550.1867	21877.65	20946.9
894.1642	1551.9723	21818.35	20893.65
894.3069	1553.7572	21798.9	20878.7
894.4496	1555.5414	21720.55	20800.7
894.5923	1557.3247	21674	20753.4
894.735	1559.1074	21641.65	20724.65
894.8777	1560.8893	21647.5	20730.75
895.0204	1562.6705	21653.35	20734.65
895.163	1564.4509	21641.7	20722.9
895.3056	1566.2305	21646.5	20735.25
895.4482	1568.0094	21765.6	20851.85
895.5908	1569.7876	21798.7	20882.75
895.7334	1571.565	21813.65	20895.2
895.876	1573.3417	21829.05	20911.1
896.0186	1575.1176	21821.15	20906.2
896.1611	1576.8928	21760.25	20844.6
896.3036	1578.6672	21587.55	20679.4
896.4461	1580.4409	21419.65	20509.5
896.5886	1582.2138	21245.4	20333.6
896.7311	1583.986	21028.45	20113.4
896.8736	1585.7575	20933.6	20019.45
897.0161	1587.5282	20772.5	19862.05
897.1585	1589.2981	20641.65	19729.4
897.3009	1591.0673	20572.55	19663.95
897.4433	1592.8358	20501.15	19589.55
897.5857	1594.6035	20409.1	19495.85
897.7281	1596.3704	20351.15	19437.95
897.8705	1598.1366	20283.65	19371.5
898.0128	1599.9021	20249.35	19338.4
898.1551	1601.6668	20232.1	19321
898.2975	1603.4308	20192.95	19280.35
898.4398	1605.194	20220.1	19301.2
898.5821	1606.9564	20274.15	19367.75
898.7243	1608.7182	20354.2	19447.8
898.8666	1610.4791	20393.95	19493.95
899.0088	1612.2394	20503	19603.65
899.1511	1613.9988	20556.25	19653.1
899.2933	1615.7576	20750.6	19842.75
899.4355	1617.5156	21012.75	20094.65
899.5776	1619.2728	21197	20282.6
899.7198	1621.0293	21380.6	20467.9
899.862	1622.785	21401.35	20494.8
900.0041	1624.54	21255.5	20348.75
900.1462	1626.2942	21032.25	20126.4
900.2883	1628.0477	20714.3	19804.4
900.4304	1629.8005	20428.45	19518.75
900.5725	1631.5525	20160.6	19255.5
900.7145	1633.3037	19873.25	18966.6
900.8566	1635.0542	19704.35	18800.95
900.9986	1636.804	19531.1	18624.75
901.1406	1638.553	19401.55	18449.4
901.2826	1640.3013	19239.65	18334.2
901.4245	1642.0488	19148.6	18237.8
901.5665	1643.7955	19120.75	18215.9
901.7085	1645.5416	19090.35	18186.35
901.8504	1647.2868	19109.3	18203.1
901.9923	1649.0313	19086.65	18177.65
902.1342	1650.7751	19185.35	18273.3
902.2761	1652.5181	19316.05	18411.9
902.4179	1654.2604	19482.3	18578.95
902.5598	1656.0019	19769.65	18864
902.7016	1657.7427	20110.5	19206.4
902.8434	1659.4828	20411.9	19506.4
902.9852	1661.222	20635.45	19729.45
903.127	1662.9606	20615.25	19709.65
903.2687	1664.6984	20466.2	19557
903.4105	1666.4354	20123.4	19215.6
903.5522	1668.1717	19618.5	18710.05
903.6939	1669.9072	19095.55	18186.75
903.8356	1671.642	18735.65	17824.25
903.9773	1673.3761	18409	17501.6
904.119	1675.1094	18080.65	17174.1
904.2606	1676.8419	17875.55	16970.05
904.4022	1678.5737	17696.2	16788.7
904.5439	1680.3048	17564.55	16656.55
904.6855	1682.0351	17450.1	16543.6
904.827	1683.7646	17286.5	16373.3
904.9686	1685.4934	17232.8	16326.6
905.1101	1687.2215	17114.35	16207.45
905.2517	1688.9488	16993.4	16088.9
905.3932	1690.6754	16902.35	15996.95
905.5347	1692.4012	16898.1	15990.9
905.6761	1694.1263	16810.85	15904.65
905.8176	1695.8506	16730.9	15824.45
905.9591	1697.5742	16657.95	15754.65
906.1005	1699.297	16604.05	15702.15
906.2419	1701.0191	16498.4	15597.15
906.3833	1702.7404	16410.25	15511.3
906.5246	1704.461	16314.4	15410.95
906.666	1706.1808	16277.2	15374.5
906.8073	1707.8999	16227.5	15324.2
906.9487	1709.6182	16181.55	15283.7
907.09	1711.3358	16109.1	15211.95
907.2313	1713.0527	16050.15	15154
907.3725	1714.7688	15994.05	15088.85
907.5138	1716.4841	15887.25	14984.3
907.655	1718.1987	15891.5	14982.25
907.7962	1719.9126	15833.4	14934.95
907.9374	1721.6257	15755.25	14855.05
908.0786	1723.338	15683.25	14785.3
908.2198	1725.0496	15629.8	14730.5
908.3609	1726.7605	15605.75	14705.1
908.502	1728.4706	15547.75	14648.15
908.6431	1730.18	15455.65	14554.55
908.7842	1731.8886	15420.9	14522
908.9253	1733.5964	15373.1	14451.35
909.0664	1735.3036	15310.1	14409.15
909.2074	1737.0099	15296.45	14398.65
909.3484	1738.7156	15263	14366.65
909.4894	1740.4204	15204.3	14302.15
909.6304	1742.1246	15174.25	14274.2
909.7714	1743.8279	15104.55	14206.3
909.9123	1745.5306	15110.6	14214.8
910.0532	1747.2325	15038.3	14139.5
910.1941	1748.9336	14983.05	14084.4
910.335	1750.634	14904.05	14001.8
910.4759	1752.3336	14887.45	13989.4
910.6168	1754.0325	14874.25	13981.45
910.7576	1755.7307	14827.15	13928.65
910.8984	1757.4281	14819.85	13920.95
911.0392	1759.1247	14797.9	13889.45
911.18	1760.8206	14741.5	13837.35
911.3208	1762.5158	14691.7	13788.15
911.4615	1764.2102	14629.75	13730.3
911.6022	1765.9039	14589.4	13693.5
911.7429	1767.5968	14525.6	13631.35
911.8836	1769.289	14464.85	13567.5
912.0243	1770.9804	14457.5	13560.05
912.1649	1772.6711	14451.6	13550.4
912.3056	1774.361	14376.8	13475.15
912.4462	1776.0502	14383.9	13483
912.5868	1777.7386	14364.4	13462.1
912.7274	1779.4263	14277.45	13379.55
912.8679	1781.1132	14258.8	13364.9
913.0084	1782.7994	14200.65	13305.7
913.149	1784.4849	14186.65	13292.4
913.2895	1786.1696	14156.65	13240.65
913.4299	1787.8535	14095.4	13199.9
913.5704	1789.5367	14032.1	13139.1
913.7108	1791.2192	14037.85	13144.45
913.8513	1792.9009	13998.45	13073.05
913.9917	1794.5818	13934.9	13036.95
914.132	1796.2621	13896.6	13000
914.2724	1797.9415	13853.3	12955.45
914.4128	1799.6202	13829.3	12932.75
914.5531	1801.2982	13809.35	12911.9
914.6934	1802.9755	13767.45	12868.2
914.8337	1804.6519	13731.8	12836.75
914.9739	1806.3277	13664.9	12770.15
915.1142	1808.0027	13612.05	12718.05
915.2544	1809.6769	13621.25	12728.05
915.3946	1811.3504	13575.6	12679.85
915.5348	1813.0231	13539.05	12643.2
915.675	1814.6951	13513.9	12619.3
915.8151	1816.3664	13506.25	12608.55
915.9553	1818.0369	13474.6	12578.4
916.0954	1819.7067	13415.05	12519.05
916.2355	1821.3757	13397.8	12498.5
916.3755	1823.044	13355.6	12458.15
916.5156	1824.7115	13332.15	12434.8
916.6556	1826.3783	13229.8	12334
916.7956	1828.0443	13232.8	12341.3
916.9356	1829.7096	13182.2	12286
917.0756	1831.3741	13178.7	12280.9
917.2155	1833.0379	13127.1	12234.75
917.3555	1834.701	13106.25	12209.7
917.4954	1836.3633	13109.75	12216.7
917.6353	1838.0248	13024.9	12130
917.7751	1839.6856	13023.5	12128.65
917.915	1841.3457	12993.75	12098.95
918.0548	1843.005	12975.65	12078.6
918.1946	1844.6636	12915.6	12020.45
918.3344	1846.3214	12923.05	12030.2
918.4742	1847.9785	12916.25	12022.5
918.6139	1849.6349	12870.4	11974.25
918.7537	1851.2904	12848.7	11942.7
918.8934	1852.9453	12782.15	11885.15
919.0331	1854.5994	12759.05	11859.65
919.1727	1856.2528	12789.2	11888.3
919.3124	1857.9054	12711.6	11814.65
919.452	1859.5572	12708.45	11814.3
919.5916	1861.2083	12682	11785.65
919.7312	1862.8587	12668.7	11771.25
919.8708	1864.5084	12626.55	11728.55
920.0103	1866.1572	12583.75	11688.75
920.1498	1867.8054	12539.45	11643.35
920.2893	1869.4528	12512.75	11613.95
920.4288	1871.0994	12487.1	11589.95
920.5683	1872.7453	12426.55	11528.95
920.7077	1874.3905	12411.95	11498.8
920.8471	1876.0349	12386.2	11490.1
920.9865	1877.6786	12357.1	11458.1
921.1259	1879.3215	12372.55	11474.45
921.2653	1880.9637	12292.6	11394.35
921.4046	1882.6051	12256.5	11362.25
921.5439	1884.2458	12237.2	11340.7
921.6832	1885.8858	12186.25	11289.4
921.8225	1887.525	12187.1	11290.05
921.9617	1889.1634	12111.15	11215.45
922.101	1890.8011	12106.55	11208.85
922.2402	1892.4381	12068.8	11171.4
922.3794	1894.0743	12085.6	11190.55
922.5185	1895.7098	12042.05	11148.5
922.6577	1897.3446	12000.15	11102.25
922.7968	1898.9786	11980	11079.95
922.9359	1900.6118	11921.5	11024.7
923.075	1902.2443	11891.9	10994.7
923.214	1903.8761	11845.6	10949.45
923.3531	1905.5071	11771.9	10875.65
923.4921	1907.1374	11734.95	10840.4
923.6311	1908.7669	11738.3	10843.85
923.77	1910.3957	11671.45	10776.9
923.909	1912.0237	11628.85	10736.25
924.0479	1913.651	11613.7	10718.7
924.1868	1915.2776	11593.05	10698.05
924.3257	1916.9034	11529.65	10637.85
924.4646	1918.5285	11471.75	10580.95
924.6034	1920.1528	11435.55	10540.55
924.7422	1921.7764	11458.95	10566.65
924.881	1923.3992	11382.85	10487.1
925.0198	1925.0213	11300.45	10404.9
925.1586	1926.6427	11267.35	10375.05
925.2973	1928.2633	11299.25	10336.3
925.436	1929.8832	11238.1	10343.25
925.5747	1931.5023	11206.8	10312.75
925.7134	1933.1207	11163.7	10270.45
925.852	1934.7383	11137.25	10243.1
925.9906	1936.3552	11086.7	10195.45
926.1292	1937.9714	11066.15	10172.7
926.2678	1939.5868	11003.15	10106.55
926.4064	1941.2015	10937.15	10040.95
926.5449	1942.8154	10892.85	9997.45
926.6834	1944.4286	10871.45	9975.2
926.8219	1946.041	10835.5	9921.45
926.9604	1947.6528	10781.55	9882.65
927.0988	1949.2637	10741.9	9851.35
927.2372	1950.8739	10720.15	9827.25
927.3756	1952.4834	10712.4	9819.3
927.514	1954.0921	10698.45	9803.15
927.6523	1955.7001	10621.6	9724.4
927.7907	1957.3074	10568.3	9678.1
927.929	1958.9139	10531.15	9640.95
928.0673	1960.5197	10523.05	9630.9
928.2055	1962.1247	10462.7	9570.2
928.3438	1963.729	10412.2	9521.35
928.482	1965.3325	10416.75	9503.8
928.6202	1966.9353	10377.6	9488.3
928.7584	1968.5374	10342.05	9449.15
928.8965	1970.1387	10293.1	9403.2
929.0346	1971.7393	10268.6	9377.05
929.1727	1973.3392	10223.6	9332.95
929.3108	1974.9383	10183.85	9294.45
929.4489	1976.5366	10143.75	9256.25
929.5869	1978.1342	10135.6	9245.85
929.7249	1979.7311	10100.15	9210.7
929.8629	1981.3273	10081.45	9191.3
930.0009	1982.9227	10039.65	9150.85
930.1388	1984.5173	9992.8	9105.35
930.2767	1986.1112	9948.75	9061
930.4146	1987.7044	9937.4	9048.95
930.5525	1989.2968	9914.15	9023.45
930.6904	1990.8885	9886.95	8996.65
930.8282	1992.4795	9881.65	8991.15
930.966	1994.0697	9823.9	8938.3
931.1038	1995.6592	9804.1	8916.35
931.2415	1997.2479	9740.15	8852.4
931.3793	1998.8359	9737.75	8848.05
931.517	2000.4232	9703.45	8815.05
931.6547	2002.0097	9655.25	8770.75
931.7923	2003.5955	9614.55	8728.6
931.93	2005.1805	9630.2	8742.5
932.0676	2006.7648	9580.25	8694.9
932.2052	2008.3484	9552.6	8664
932.3427	2009.9312	9559.3	8670.75
932.4803	2011.5133	9527.55	8644.7
932.6178	2013.0946	9491.2	8604.6
932.7553	2014.6752	9454.3	8568.25
932.8928	2016.2551	9450.8	8563.35
933.0302	2017.8342	9412	8526.45
933.1676	2019.4126	9364.25	8478.3
933.305	2020.9902	9313.35	8430.6
933.4424	2022.5672	9295.15	8410.9
933.5798	2024.1433	9301.45	8409.9
933.7171	2025.7188	9247.8	8364.75
933.8544	2027.2935	9229.65	8344.05
933.9917	2028.8674	9187.2	8303.6
934.129	2030.4406	9177.95	8294.65
934.2662	2032.0131	9129.65	8246.55
934.4034	2033.5849	9096.9	8205.4
934.5406	2035.1559	9085.5	8201.2
934.6778	2036.7261	9095.65	8211.25
934.8149	2038.2957	9078.4	8190.4
934.952	2039.8645	9031.1	8142.05
935.0891	2041.4325	9010.45	8121.45
935.2262	2042.9998	8998.4	8113.05
935.3632	2044.5664	8972.2	8084.35
935.5002	2046.1323	8944.3	8060.45
935.6372	2047.6974	8902.9	8017.9
935.7742	2049.2617	8861.6	7979.45
935.9111	2050.8254	8888.1	7996.95
936.048	2052.3883	8850.95	7963.65
936.1849	2053.9504	8809.25	7923.25
936.3218	2055.5118	8791.05	7902.3
936.4586	2057.0725	8746.15	7853.1
936.5955	2058.6325	8736.6	7849.85
936.7323	2060.1917	8698.2	7814.85
936.869	2061.7502	8671.05	7782.65
937.0058	2063.3079	8649	7766.85
937.1425	2064.8649	8620.4	7732.6
937.2792	2066.4212	8614.35	7728.45
937.4159	2067.9767	8572.5	7685.5
937.5525	2069.5315	8562.2	7676.1
937.6891	2071.0856	8515.8	7629.4
937.8257	2072.6389	8475.95	7590.55
937.9623	2074.1915	8429.05	7545.4
938.0989	2075.7433	8412.75	7523.5
938.2354	2077.2945	8400.9	7515.2
938.3719	2078.8448	8394.2	7508.15
938.5084	2080.3945	8339	7451.2
938.6448	2081.9434	8326.35	7439.55
938.7812	2083.4916	8299.85	7411.3
938.9176	2085.039	8289.45	7397.25
939.054	2086.5857	8267.75	7375.45
939.1903	2088.1317	8269.35	7378.3
939.3267	2089.677	8223	7331.3
939.463	2091.2215	8192.45	7300.55
939.5992	2092.7652	8160.95	7268.75
939.7355	2094.3083	8148.25	7256.8
939.8717	2095.8506	8139.05	7249.3
940.0079	2097.3921	8126.15	7239.95
940.1441	2098.933	8085.7	7194.6
940.2802	2100.4731	8084.4	7195.9
940.4163	2102.0124	8072.95	7177.05
940.5524	2103.5511	8046.2	7156.3
940.6885	2105.089	8032.8	7143.5
940.8245	2106.6261	8007.15	7117.6
940.9606	2108.1626	7985.8	7095.9
941.0965	2109.6983	7969.1	7051.95
941.2325	2111.2332	7966.7	7076.55
941.3684	2112.7675	7910.35	7021.05
941.5044	2114.301	7898.45	7007.4
941.6403	2115.8337	7893	7002.95
941.7761	2117.3657	7872.05	6981.25
941.912	2118.897	7865.2	6973.9
942.0478	2120.4276	7839.65	6943.9
942.1835	2121.9575	7786.75	6893.8
942.3193	2123.4866	7778	6873.8
942.455	2125.0149	7762.4	6871.8
942.5907	2126.5426	7725.3	6837.9
942.7264	2128.0695	7708.2	6818.35
942.8621	2129.5956	7685.75	6800.1
942.9977	2131.1211	7680.5	6789.5
943.1333	2132.6458	7644.75	6756.85
943.2689	2134.1698	7624.2	6734.95
943.4044	2135.693	7608.45	6714.6
943.54	2137.2155	7619.85	6725.95
943.6755	2138.7373	7574.9	6685.8
943.8109	2140.2584	7533.55	6646.95
943.9464	2141.7787	7521.55	6629.25
944.0818	2143.2983	7484.85	6600.75
944.2172	2144.8171	7452.7	6568.05
944.3526	2146.3353	7440.5	6551.3
944.4879	2147.8527	7400.2	6515.25
944.6232	2149.3693	7425	6534.9
944.7585	2150.8853	7382.75	6492.65
944.8938	2152.4005	7344.2	6452.05
945.029	2153.9149	7355.7	6463.35
945.1642	2155.4287	7429.7	6431.25
945.2994	2156.9417	7324.3	6429.7
945.4346	2158.454	7282.3	6393.45
945.5697	2159.9655	7273.65	6388.2
945.7048	2161.4764	7244.15	6357.35
945.8399	2162.9865	7221	6334.75
945.9749	2164.4958	7214.35	6324.65
946.1099	2166.0045	7170.6	6280.9
946.2449	2167.5124	7181.7	6295.3
946.3799	2169.0195	7156.9	6268.6
946.5148	2170.526	7151.95	6261.6
946.6498	2172.0317	7134.6	6244.55
946.7846	2173.5367	7103.15	6212.7
946.9195	2175.0409	7095.1	6207.25
947.0543	2176.5445	7072.75	6184.7
947.1891	2178.0473	7049.7	6160
947.3239	2179.5494	7023.5	6130.4
947.4587	2181.0507	7002.1	6111.65
947.5934	2182.5513	6961.15	6070.6
947.7281	2184.0512	6944.7	6054.35
947.8628	2185.5504	6929.35	6041
947.9974	2187.0488	6888.45	6000.95
948.132	2188.5465	6882	5995.9
948.2666	2190.0435	6880.15	5991.7
948.4012	2191.5397	6835.85	5946.05
948.5357	2193.0353	6828.85	5939.45
948.6702	2194.5301	6807.6	5914.95
948.8047	2196.0241	6771.65	5878.1
948.9392	2197.5175	6770.25	5878.6
949.0736	2199.0101	6746.4	5850.35
949.208	2200.502	6707.35	5818.25
949.3424	2201.9931	6692.1	5803.6
949.4767	2203.4835	6678.1	5789.45
949.611	2204.9733	6652.85	5760.85
949.7453	2206.4622	6644.95	5760.2
949.8796	2207.9505	6610.75	5722.1
950.0138	2209.438	6572.1	5686.9
950.148	2210.9248	6532.75	5644.65
950.2822	2212.4109	6531.9	5643.95
950.4164	2213.8962	6507.95	5615.15
950.5505	2215.3809	6519.3	5626.3
950.6846	2216.8648	6498.15	5606
950.8186	2218.3479	6495.95	5596.95
950.9527	2219.8304	6466.65	5571.35
951.0867	2221.3121	6448.2	5551.25
951.2207	2222.7931	6427.05	5534.95
951.3546	2224.2733	6383.95	5492.55
951.4886	2225.7529	6344.5	5454.2
951.6225	2227.2317	6335.4	5443.8
951.7563	2228.7098	6350.5	5462.6
951.8902	2230.1872	6300.45	5413.7
952.024	2231.6638	6302.9	5415.1
952.1578	2233.1397	6272.1	5380.15
952.2916	2234.6149	6240.6	5353.95
952.4253	2236.0894	6235.45	5346.25
952.559	2237.5632	6215.85	5325.55
952.6927	2239.0362	6193.4	5305.9
952.8263	2240.5085	6174.05	5285.9
952.9599	2241.9801	6155.5	5266.25
953.0935	2243.4509	6146.35	5253.7
953.2271	2244.921	6126.25	5235.55
953.3606	2246.3904	6109.1	5212.55
953.4941	2247.8591	6081.45	5190.05
953.6276	2249.3271	6059.95	5169.35
953.7611	2250.7943	6048.95	5159.1
953.8945	2252.2608	6010.6	5119.95
954.0279	2253.7266	6009.55	5120.7
954.1612	2255.1917	5991.3	5101.55
954.2946	2256.656	5964.2	5074.55
954.4279	2258.1197	5950.6	5064.45
954.5612	2259.5826	5932.85	5043.25
954.6944	2261.0447	5922.3	5031
954.8276	2262.5062	5905.8	5011.35
954.9608	2263.9669	5899.65	5007.35
955.094	2265.4269	5891.95	5001.2
955.2271	2266.8862	5866	4978.2
955.3602	2268.3448	5861.6	4974.55
955.4933	2269.8026	5846.6	4959.15
955.6264	2271.2598	5824.85	4937.6
955.7594	2272.7162	5786.65	4896.9
955.8924	2274.1719	5802.05	4912.3
956.0253	2275.6268	5766.25	4873.15
956.1583	2277.0811	5771.35	4877.85
956.2912	2278.5346	5762.35	4874.65
956.4241	2279.9874	5750.85	4863.85
956.5569	2281.4395	5731.5	4847.35
956.6897	2282.8908	5728.25	4835.65
956.8225	2284.3414	5712.1	4821.7
956.9553	2285.7914	5674.05	4785.45
957.088	2287.2406	5660.7	4769.2
957.2207	2288.689	5660.95	4767.75
957.3534	2290.1368	5645.3	4750.9
957.486	2291.5838	5623.3	4725.25
957.6186	2293.0302	5616.15	4719.25
957.7512	2294.4758	5587.75	4694.9
957.8838	2295.9206	5554.4	4661.95
958.0163	2297.3648	5552.6	4661.5
958.1488	2298.8082	5536.85	4644.8
958.2813	2300.251	5523.55	4630.75
958.4137	2301.693	5506.3	4611.25
958.5461	2303.1343	5495.1	4603.05
958.6785	2304.5748	5467.65	4577.25
958.8108	2306.0147	5455.7	4567.55
958.9432	2307.4538	5444.35	4555.45
959.0754	2308.8922	5423.7	4540.45
959.2077	2310.3299	5391.45	4503.45
959.3399	2311.7669	5396.95	4508.1
959.4721	2313.2031	5360.2	4470.9
959.6043	2314.6387	5346.45	4455.25
959.7365	2316.0735	5333.85	4443.4
959.8686	2317.5076	5325.55	4435.85
960.0006	2318.941	5323.45	4431.05
960.1327	2320.3737	5311.3	4418.2
960.2647	2321.8056	5287.1	4391.6
960.3967	2323.2369	5268.55	4375.35
960.5287	2324.6674	5249.1	4356.85
960.6606	2326.0972	5238	4346.3
960.7925	2327.5263	5217.25	4325
960.9244	2328.9547	5222.2	4327.85
961.0562	2330.3823	5199.1	4307.4
961.1881	2331.8092	5190	4292.5
961.3198	2333.2355	5179.95	4288.1
961.4516	2334.661	5175.2	4283.9
961.5833	2336.0858	5159.05	4262.35
961.715	2337.5098	5136.8	4246.4
961.8467	2338.9332	5114.95	4222.2
961.9783	2340.3558	5107.75	4215
962.1099	2341.7778	5095	4206.2
962.2415	2343.199	5073.65	4183.35
962.373	2344.6195	5058.75	4170.5
962.5045	2346.0393	5042.85	4155.2
962.636	2347.4583	5042.5	4151.15
962.7675	2348.8767	5024.5	4134.8
962.8989	2350.2943	5028.6	4136.05
963.0303	2351.7113	5024.05	4130.35
963.1617	2353.1275	5001.95	4110.25
963.293	2354.543	4974.1	4072.5
963.4243	2355.9578	4975.9	4081.95
963.5556	2357.3718	4921.45	4031.05
963.6868	2358.7852	4906.6	4016.35
963.818	2360.1978	4888.95	3999.85
963.9492	2361.6098	4900.65	4012.6
964.0803	2363.021	4883.65	3989.25
964.2114	2364.4315	4867.05	3976.45
964.3425	2365.8413	4844.85	3948.15
964.4736	2367.2504	4828.8	3940.5
964.6046	2368.6587	4804.45	3916.2
964.7356	2370.0664	4794.25	3906.3
964.8666	2371.4733	4769.8	3879
964.9975	2372.8795	4767.05	3877.15
965.1284	2374.285	4761.8	3872.35
965.2593	2375.6899	4734.9	3845.2
965.3901	2377.0939	4704.35	3816.2
965.5209	2378.4973	4693.65	3805
965.6517	2379.9	4688.6	3798.3
965.7825	2381.3019	4660.5	3770.3
965.9132	2382.7032	4651.55	3762.9
966.0439	2384.1037	4621	3736.55
966.1745	2385.5035	4614.15	3728.95
966.3051	2386.9027	4600.65	3713.4
966.4357	2388.3011	4605.3	3714.5
966.5663	2389.6987	4598.8	3711.65
966.6968	2391.0957	4561.8	3674.25
966.8273	2392.492	4555.8	3668.8
966.9578	2393.8876	4540.9	3655.1
967.0882	2395.2824	4508.2	3619.2
967.2186	2396.6765	4500.35	3610.65
967.349	2398.07	4484.85	3595.8
967.4793	2399.4627	4482.65	3591.15
967.6097	2400.8547	4480.15	3592.4
967.7399	2402.246	4466.4	3570.4
967.8702	2403.6366	4431.7	3544.45
968.0004	2405.0265	4413.9	3524.8
968.1306	2406.4156	4401.8	3508.1
968.2607	2407.8041	4387.4	3494.3
968.3909	2409.1918	4376.1	3485.15
968.521	2410.5789	4380.35	3489.9
968.651	2411.9652	4363.4	3474.2
968.781	2413.3508	4350.55	3459.9
968.911	2414.7358	4330	3441.9
969.041	2416.12	4323.75	3435.5
969.1709	2417.5035	4316.6	3428.5
969.3008	2418.8863	4289.4	3400.1
969.4307	2420.2684	4272	3382.65
969.5606	2421.6497	4269.3	3379.15
969.6904	2423.0304	4246.4	3356.9
969.8201	2424.4104	4225.4	3336.85
969.9499	2425.7896	4224.45	3332
970.0796	2427.1682	4210.95	3321.85
970.2093	2428.546	4196.1	3306.4
970.3389	2429.9232	4194.75	3303.9
970.4685	2431.2996	4188.95	3299.35
970.5981	2432.6753	4184.8	3295.5
970.7277	2434.0503	4177.6	3288
970.8572	2435.4246	4144.5	3255.1
970.9867	2436.7982	4135.6	3243.15
971.1161	2438.1711	4142.75	3255.65
971.2456	2439.5433	4123.35	3230.3
971.375	2440.9148	4119.1	3223.1
971.5043	2442.2856	4078.65	3189.25
971.6336	2443.6557	4080.3	3188.5
971.7629	2445.025	4059.1	3168.65
971.8922	2446.3937	4051.7	3160.5
972.0214	2447.7617	4033.05	3144.25
972.1506	2449.1289	4038.6	3147.95
972.2798	2450.4955	4026.9	3135.35
972.4089	2451.8613	4022	3133.1
972.538	2453.2265	4005.8	3115.25
972.6671	2454.5909	4015.4	3126.25
972.7961	2455.9546	3983.6	3092.7
972.9251	2457.3177	3978.95	3089.8
973.0541	2458.68	3984.75	3093.45
973.1831	2460.0416	3960.4	3069.45
973.312	2461.4025	3957.75	3067.2
973.4408	2462.7627	3942.25	3041.7
973.5697	2464.1222	3928.8	3042.15
973.6985	2465.4811	3929.6	3040
973.8273	2466.8392	3908.15	3019.1
973.956	2468.1966	3898.05	3006.2
974.0847	2469.5533	3904.15	3013.25
974.2134	2470.9093	3885	2997.2
974.3421	2472.2645	3887.1	2997.75
974.4707	2473.6191	3864.2	2977.6
974.5993	2474.973	3855.4	2968.35
974.7278	2476.3262	3841.95	2952.2
974.8563	2477.6787	3828.3	2939.2
974.9848	2479.0305	3826	2935.35
975.1132	2480.3816	3824.2	2933.55
975.2417	2481.7319	3798.25	2910.15
975.37	2483.0816	3780.35	2891.05
975.4984	2484.4306	3762.95	2874.4
975.6267	2485.7789	3765.7	2876.05
975.755	2487.1264	3757.6	2868.65
975.8833	2488.4733	3735.55	2847.65
976.0115	2489.8195	3732.05	2823.6
976.1397	2491.165	3721.2	2830.75
976.2678	2492.5097	3701.3	2812.25
976.3959	2493.8538	3697.3	2809.95
976.524	2495.1972	3670.25	2782.25
976.6521	2496.5398	3651.6	2760.6
976.7801	2497.8818	3663.45	2771
976.9081	2499.2231	3635.4	2744.65
977.036	2500.5637	3625.45	2732.35
977.164	2501.9035	3636.95	2746.55
977.2918	2503.2427	3620.3	2725.5
977.4197	2504.5812	3604.45	2713.6
977.5475	2505.919	3607.1	2714.6
977.6753	2507.256	3590.35	2702.5
977.8031	2508.5924	3585.6	2693.95
977.9308	2509.9281	3578.4	2682.2
978.0585	2511.2631	3558.8	2669.7
978.1861	2512.5974	3544.3	2656.15
978.3137	2513.9309	3536.45	2647.35
978.4413	2515.2638	3553.6	2636.8
978.5689	2516.596	3523.2	2633.45
978.6964	2517.9275	3514.25	2622.85
978.8239	2519.2583	3514.65	2623.5
978.9513	2520.5884	3489.9	2600.35
979.0788	2521.9178	3482.7	2594.35
979.2062	2523.2465	3464.5	2575.25
979.3335	2524.5745	3446.3	2556.5
979.4608	2525.9018	3458.05	2570.4
979.5881	2527.2284	3451.75	2562.95
979.7154	2528.5543	3428.35	2541.65
979.8426	2529.8796	3425.25	2535.2
979.9698	2531.2041	3429.45	2539.65
980.0969	2532.5279	3419.4	2530.5
980.224	2533.851	3414.6	2522.7
980.3511	2535.1735	3400.6	2512.25
980.4781	2536.4952	3403.35	2513.7
980.6052	2537.8163	3389.6	2500.7
980.7321	2539.1366	3373.5	2484.85
980.8591	2540.4562	3374.45	2482.5
980.986	2541.7752	3366.8	2476.25
981.1129	2543.0935	3356	2467.55
981.2397	2544.411	3358.8	2465.3
981.3665	2545.7279	3349.35	2460.05
981.4933	2547.0441	3352.45	2461.8
981.62	2548.3596	3330.5	2437.75
981.7467	2549.6744	3327.8	2437.5
981.8734	2550.9885	3332.9	2440.7
982.0001	2552.3019	3316.75	2427.6
982.1267	2553.6146	3317.6	2426.4
982.2532	2554.9266	3302.2	2411.45
982.3798	2556.2379	3280.9	2389
982.5063	2557.5485	3291.95	2403.65
982.6327	2558.8585	3287.55	2388.8
982.7592	2560.1677	3276.8	2382.25
982.8856	2561.4762	3253.9	2363.85
983.0119	2562.7841	3251.3	2359
983.1383	2564.0913	3251.1	2362.65
983.2646	2565.3977	3254.85	2364.3
983.3908	2566.7035	3231.2	2341
983.517	2568.0086	3238.05	2345.05
983.6432	2569.313	3239	2346.35
983.7694	2570.6167	3216.4	2321.75
983.8955	2571.9197	3214.95	2325.55
984.0216	2573.222	3219.8	2325.15
984.1476	2574.5236	3201.05	2313.15
984.2737	2575.8246	3209.35	2316.55
984.3996	2577.1248	3186.65	2295.9
984.5256	2578.4244	3184.2	2293.9
984.6515	2579.7232	3193.4	2302.65
984.7774	2581.0214	3202.1	2282.65
984.9032	2582.3189	3163.35	2272.15
985.029	2583.6157	3178.55	2283.35
985.1548	2584.9118	3170.5	2279.4
985.2806	2586.2072	3163.55	2274.25
985.4063	2587.5019	3164.3	2272.95
985.5319	2588.7959	3154.35	2264.8
985.6576	2590.0893	3150.9	2257.4
985.7832	2591.3819	3141.35	2250.2
985.9087	2592.6739	3132.9	2243.4
986.0343	2593.9652	3135.45	2244.85
986.1597	2595.2557	3133.3	2241.55
986.2852	2596.5456	3123.15	2229.85
986.4106	2597.8348	3112.55	2221.55
986.536	2599.1234	3099.3	2207.95
986.6614	2600.4112	3098.4	2209.5
986.7867	2601.6983	3083.8	2191.85
986.912	2602.9848	3079.2	2188.25
987.0372	2604.2705	3084.6	2185.2
987.1624	2605.5556	3065.25	2173.95
987.2876	2606.84	3063.8	2175.5
987.4128	2608.1237	3052.95	2161
987.5379	2609.4067	3045.9	2157.65
987.6629	2610.689	3050.15	2150.3
987.788	2611.9707	3022.95	2127.7
987.913	2613.2516	3013.7	2121
988.0379	2614.5319	3011.9	2123.55
988.1629	2615.8115	2990.15	2101.05
988.2878	2617.0903	2993.15	2102.55
988.4126	2618.3685	2973.95	2085.45
988.5375	2619.6461	2978.05	2086.8
988.6622	2620.9229	2973.65	2082.8
988.787	2622.199	2967.05	2075
988.9117	2623.4745	2950.9	2060.5
989.0364	2624.7493	2948.7	2057.9
989.161	2626.0234	2943.15	2055.5
989.2857	2627.2968	2941.3	2051.3
989.4102	2628.5695	2933.65	2040.7
989.5348	2629.8415	2913.95	2024.85
989.6593	2631.1128	2909.8	2018.35
989.7837	2632.3835	2907.25	2018.6
989.9082	2633.6535	2906.4	2016.55
990.0326	2634.9228	2896.2	2007.5
990.1569	2636.1914	2891.5	2001.45
990.2812	2637.4593	2872.65	1972.95
990.4055	2638.7265	2865.45	1974.55
990.5298	2639.9931	2865.9	1978.45
990.654	2641.259	2865.75	1972.45
990.7782	2642.5242	2857.2	1967.6
990.9023	2643.7887	2853.5	1963
991.0264	2645.0525	2842.55	1952.6
991.1505	2646.3156	2833.1	1939.85
991.2745	2647.5781	2819	1929.85
991.3985	2648.8398	2819.25	1927.85
991.5225	2650.1009	2810.5	1913.05
991.6464	2651.3613	2799.15	1910
991.7703	2652.6211	2797	1907.35
991.8942	2653.8801	2798.7	1910.95
992.018	2655.1385	2784.3	1894.4
992.1418	2656.3961	2776.65	1885.6
992.2655	2657.6531	2770.3	1880
992.3892	2658.9094	2770	1881.75
992.5129	2660.1651	2755.9	1865.95
992.6366	2661.42	2770.6	1881.95
992.7602	2662.6743	2767.6	1877.05
992.8837	2663.9279	2767.3	1879.65
993.0073	2665.1808	2755.1	1866.25
993.1307	2666.433	2757.2	1864.5
993.2542	2667.6846	2752.25	1863.4
993.3776	2668.9354	2756	1863.25
993.501	2670.1856	2751.05	1862.45
993.6244	2671.4351	2745.85	1855.75
993.7477	2672.6839	2742.85	1853.5
993.8709	2673.9321	2731.55	1843.95
993.9942	2675.1795	2734.55	1845.85
994.1174	2676.4263	2718.3	1828.95
994.2405	2677.6724	2714.7	1826.85
994.3637	2678.9179	2712.95	1823.75
994.4868	2680.1626	2718.05	1828.8
994.6098	2681.4067	2722.9	1833.3
994.7328	2682.6501	2702.55	1812.6
994.8558	2683.8928	2696	1806.35
994.9788	2685.1348	2688.55	1799.65
995.1017	2686.3761	2688.85	1799.75
995.2245	2687.6168	2674.85	1783.85
995.3474	2688.8568	2661.35	1771.25
995.4702	2690.0961	2667.4	1781.55
995.5929	2691.3348	2652.05	1765.25
995.7156	2692.5727	2645	1755.05
995.8383	2693.81	2643.25	1756.25
995.961	2695.0466	2636.2	1749.35
996.0836	2696.2826	2620.15	1731.2
996.2062	2697.5178	2635	1742
996.3287	2698.7524	2614.95	1724.5
996.4512	2699.9863	2623.9	1732.5
996.5737	2701.2195	2614.4	1726.55
996.6961	2702.452	2605.5	1715.8
996.8185	2703.6839	2611.55	1721.35
996.9408	2704.9151	2607.55	1718.1
997.0631	2706.1456	2610	1722.45
997.1854	2707.3755	2619.45	1730.5
997.3077	2708.6046	2616.2	1725.65
997.4299	2709.8331	2600.75	1711.15
997.552	2711.0609	2607.65	1718.1
997.6742	2712.2881	2620.85	1733
997.7963	2713.5145	2624.55	1733.55
997.9183	2714.7403	2620.95	1731.75
998.0403	2715.9654	2632.45	1742.6
998.1623	2717.1899	2664.75	1762.3
998.2842	2718.4136	2651.1	1760.8
998.4062	2719.6367	2642.95	1754.9
998.528	2720.8591	2657.8	1762.8
998.6498	2722.0809	2658.4	1771.2
998.7716	2723.3019	2661	1770.4
998.8934	2724.5223	2675.7	1785.15
999.0151	2725.7421	2668.95	1779.3
999.1368	2726.9611	2670.5	1779
999.2584	2728.1795	2655.95	1763.2
999.38	2729.3972	2635.2	1747.55
999.5016	2730.6142	2628.15	1732.55
999.6231	2731.8306	2606.7	1716.65
999.7446	2733.0462	2590.95	1700.75
999.8661	2734.2612	2576.05	1680.8
999.9875	2735.4756	2545.8	1653.85
1000.1089	2736.6892	2521.35	1634.2
1000.2302	2737.9022	2503	1615.05
1000.3515	2739.1145	2480.35	1590.45
1000.4728	2740.3262	2480.6	1587.15
1000.594	2741.5372	2461.4	1571.4
1000.7152	2742.7475	2446.85	1560.25
1000.8363	2743.9571	2435.6	1543.45
1000.9575	2745.1661	2429.2	1536.3
1001.0785	2746.3744	2405.7	1516.15
1001.1996	2747.582	2393.95	1506.55
1001.3206	2748.7889	2373.6	1485.8
1001.4415	2749.9952	2370.4	1482.75
1001.5625	2751.2008	2349	1458.65
1001.6833	2752.4057	2349.55	1459.05
1001.8042	2753.61	2341.85	1450.7
1001.925	2754.8136	2345	1456.1
1002.0458	2756.0165	2326.95	1440.7
1002.1665	2757.2188	2320.6	1436
1002.2872	2758.4204	2330.65	1443.15
1002.4078	2759.6213	2322.75	1432.15
1002.5285	2760.8215	2321	1428
1002.649	2762.0211	2310.7	1421.35
1002.7696	2763.22	2303.65	1410.5
1002.8901	2764.4182	2303.2	1415.4
1003.0106	2765.6158	2293.15	1407.85
1003.131	2766.8127	2280.5	1392.15
1003.2514	2768.009	2290.05	1402.8
1003.3717	2769.2045	2275.8	1386.75
1003.492	2770.3994	2279.55	1387.85
1003.6123	2771.5936	2268.05	1380.3
1003.7325	2772.7872	2262.05	1374.1
1003.8527	2773.9801	2250.75	1362.15
1003.9729	2775.1723	2268.95	1364.85
1004.093	2776.3639	2236.85	1352.6
1004.2131	2777.5548	2245.55	1355.35
1004.3331	2778.745	2241.45	1352.2
1004.4531	2779.9346	2230.45	1344.1
1004.5731	2781.1235	2233.05	1345.25
1004.693	2782.3117	2234.85	1348.5
1004.8129	2783.4992	2232.3	1341.6
1004.9328	2784.6861	2250.4	1361.85
1005.0526	2785.8723	2250.9	1363.6
1005.1723	2787.0579	2241.55	1354.7
1005.2921	2788.2428	2243.25	1356.9
1005.4118	2789.427	2256.55	1368.95
1005.5314	2790.6106	2257.4	1370.8
1005.651	2791.7935	2260.6	1374.05
1005.7706	2792.9757	2265.2	1377.4
1005.8902	2794.1573	2284.4	1395.95
1006.0097	2795.3382	2289.55	1402.1
1006.1291	2796.5184	2295.55	1412.1
1006.2485	2797.698	2323.95	1433.85
1006.3679	2798.8769	2341.9	1455.9
1006.4873	2800.0551	2339.7	1451.05
1006.6066	2801.2327	2353.9	1465.4
1006.7258	2802.4096	2366.95	1480.45
1006.8451	2803.5859	2381.95	1493.7
1006.9642	2804.7615	2416.2	1528
1007.0834	2805.9364	2422.25	1537.4
1007.2025	2807.1106	2434.9	1548.1
1007.3216	2808.2842	2482.05	1594.1
1007.4406	2809.4572	2506.3	1617.95
1007.5596	2810.6294	2540.05	1652.25
1007.6785	2811.801	2577.1	1693.15
1007.7975	2812.972	2631.4	1744.9
1007.9163	2814.1423	2666.45	1778.1
1008.0352	2815.3119	2709.7	1824.05
1008.154	2816.4808	2739.9	1854.85
1008.2727	2817.6491	2811.5	1924.45
1008.3914	2818.8167	2847.1	1959.9
1008.5101	2819.9837	2897.85	2006.95
1008.6288	2821.15	2933	2045.7
1008.7474	2822.3157	2972.7	2088.8
1008.8659	2823.4807	3018.5	2133.15
1008.9844	2824.645	3062	2176.25
1009.1029	2825.8086	3105.65	2220.2
1009.2214	2826.9716	3136.1	2250.55
1009.3398	2828.134	3178.4	2293.25
1009.4581	2829.2957	3205.4	2319.4
1009.5764	2830.4567	3245.1	2359.85
1009.6947	2831.617	3243.45	2356.1
1009.813	2832.7767	3252.35	2366.8
1009.9312	2833.9358	3270.8	2384.85
1010.0493	2835.0941	3240.25	2354.45
1010.1675	2836.2519	3221.95	2337.8
1010.2855	2837.4089	3224.3	2335.45
1010.4036	2838.5653	3209.1	2323.5
1010.5216	2839.7211	3205.6	2320.65
1010.6396	2840.8761	3227.75	2340.85
1010.7575	2842.0306	3244.25	2357.45
1010.8754	2843.1843	3287.15	2402.1
1010.9932	2844.3374	3337.55	2453.95
1011.111	2845.4899	3386.4	2498.35
1011.2288	2846.6417	3463.4	2575.85
1011.3465	2847.7928	3540.65	2654.65
1011.4642	2848.9433	3615.65	2730
1011.5818	2850.0931	3699.95	2814.15
1011.6995	2851.2422	3785.6	2896.95
1011.817	2852.3907	3855.7	2971.9
1011.9345	2853.5385	3910	3023.05
1012.052	2854.6857	3959	3067.7
1012.1695	2855.8323	4010.55	3125.35
1012.2869	2856.9781	4046.85	3160.2
1012.4042	2858.1233	4089.8	3204.4
1012.5216	2859.2679	4136.45	3250.85
1012.6389	2860.4118	4190.45	3304.8
1012.7561	2861.555	4241.7	3351.35
1012.8733	2862.6976	4275.2	3385.95
1012.9905	2863.8395	4279.1	3391.7
1013.1076	2864.9808	4307.45	3421.75
1013.2247	2866.1214	4323.6	3439.2
1013.3417	2867.2614	4328.55	3442.45
1013.4587	2868.4007	4346.55	3459.1
1013.5757	2869.5393	4360.65	3472.1
1013.6926	2870.6773	4360.35	3473.3
1013.8095	2871.8146	4380.75	3491.65
1013.9263	2872.9513	4367.45	3480.95
1014.0431	2874.0874	4364.45	3478.15
1014.1599	2875.2227	4341.6	3456.85
1014.2766	2876.3574	4319.8	3434.25
1014.3933	2877.4915	4314.6	3430.85
1014.51	2878.6249	4277.8	3394.9
1014.6266	2879.7577	4254.55	3368.9
1014.7431	2880.8898	4239.1	3343.2
1014.8596	2882.0212	4206.55	3321.9
1014.9761	2883.152	4203.2	3317.45
1015.0925	2884.2821	4169.7	3286
1015.2089	2885.4116	4172.45	3287.15
1015.3253	2886.5405	4165.3	3280.15
1015.4416	2887.6686	4188.15	3298.45
1015.5579	2888.7962	4185.3	3302.45
1015.6741	2889.923	4170.65	3285.45
1015.7903	2891.0493	4190.3	3306.8
1015.9065	2892.1748	4194.6	3308.95
1016.0226	2893.2997	4201.2	3318.35
1016.1387	2894.424	4215.45	3332.15
1016.2547	2895.5476	4230.75	3345
1016.3707	2896.6706	4266.9	3383.6
1016.4866	2897.7929	4277.25	3391.75
1016.6025	2898.9145	4302.65	3418
1016.7184	2900.0355	4331.75	3445.45
1016.8342	2901.1559	4373.4	3487.95
1016.95	2902.2756	4400.5	3516.95
1017.0658	2903.3946	4412.45	3530.05
1017.1815	2904.513	4448.55	3560.95
1017.2971	2905.6308	4467.35	3581.95
1017.4127	2906.7479	4498.05	3613.65
1017.5283	2907.8643	4516	3631.45
1017.6439	2908.9801	4532.4	3647.2
1017.7594	2910.0953	4527.55	3641.8
1017.8748	2911.2098	4529	3640
1017.9902	2912.3236	4526.85	3635.65
1018.1056	2913.4368	4506.4	3618.75
1018.2209	2914.5494	4477.2	3592.05
1018.3362	2915.6613	4458	3568.15
1018.4515	2916.7725	4429.65	3541.55
1018.5667	2917.8831	4395.05	3509.05
1018.6819	2918.9931	4368.1	3480.7
1018.797	2920.1024	4346.3	3459.35
1018.9121	2921.211	4318.5	3434.3
1019.0271	2922.319	4271.7	3385.8
1019.1421	2923.4264	4257	3374.9
1019.2571	2924.5331	4253	3369.55
1019.372	2925.6391	4231.1	3347.45
1019.4869	2926.7445	4208.05	3323.7
1019.6017	2927.8493	4224	3339.15
1019.7165	2928.9534	4204.7	3321.15
1019.8313	2930.0569	4196	3309.2
1019.946	2931.1597	4187.45	3301.1
1020.0606	2932.2619	4156.8	3272.95
1020.1753	2933.3634	4167.05	3284.35
1020.2899	2934.4643	4135.95	3246.75
1020.4044	2935.5645	4136.15	3246.35
1020.5189	2936.6641	4082.35	3193.55
1020.6334	2937.763	4035.7	3151.35
1020.7478	2938.8613	3986.3	3098.75
1020.8622	2939.959	3924.1	3035.1
1020.9765	2941.056	3846.7	2961.75
1021.0908	2942.1523	3761.5	2877.55
1021.2051	2943.248	3667.8	2780.9
1021.3193	2944.3431	3582.15	2700.5
1021.4334	2945.4375	3476.7	2590.25
1021.5476	2946.5313	3369.55	2488.15
1021.6617	2947.6244	3252.55	2368.8
1021.7757	2948.7169	3151.85	2266.85
1021.8897	2949.8087	3059.6	2174.85
1022.0037	2950.8999	2955.95	2071.1
1022.1176	2951.9904	2874.6	1990.05
1022.2315	2953.0803	2806.05	1920.55
1022.3453	2954.1696	2753.55	1869.45
1022.4591	2955.2582	2675.35	1791
1022.5728	2956.3462	2635.15	1751.3
1022.6865	2957.4335	2599.25	1715.35
1022.8002	2958.5202	2560.05	1672.15
1022.9138	2959.6062	2528.9	1643.9
1023.0274	2960.6916	2509.75	1629.25
1023.141	2961.7764	2491.5	1606.05
1023.2545	2962.8605	2477.4	1592.45
1023.3679	2963.9439	2451.3	1567.75
1023.4813	2965.0267	2437.25	1551.2
1023.5947	2966.1089	2456.8	1550.05
1023.708	2967.1905	2430.4	1547.85
1023.8213	2968.2714	2409.8	1526.6
1023.9346	2969.3516	2414.8	1531.15
1024.0478	2970.4312	2434	1544.85
1024.1609	2971.5102	2420.95	1539.35
1024.274	2972.5885	2406.05	1522.9
1024.3871	2973.6662	2412.3	1522.3
1024.5002	2974.7432	2398.15	1516
1024.6132	2975.8196	2391.35	1507.75
1024.7261	2976.8954	2377.9	1495.45
1024.839	2977.9705	2368.8	1485.05
1024.9519	2979.045	2354.9	1472.4
1025.0647	2980.1188	2331.65	1448.75
1025.1775	2981.192	2314.9	1430.35
1025.2902	2982.2645	2302.3	1415.45
1025.4029	2983.3364	2266.9	1381
1025.5156	2984.4077	2224.3	1340.1
1025.6282	2985.4783	2213.3	1324.45
1025.7407	2986.5483	2164.65	1280.55
1025.8532	2987.6177	2130.85	1247.2
1025.9657	2988.6864	2095.8	1211.2
1026.0782	2989.7545	2057.8	1174.9
1026.1906	2990.8219	2022.35	1140.9
1026.3029	2991.8887	1984.95	1096
1026.4152	2992.9548	1960.6	1076.05
1026.5275	2994.0204	1921.35	1038.5
1026.6397	2995.0852	1898.8	1015.2
1026.7519	2996.1495	1873.5	990.45
1026.864	2997.2131	1839.05	957.5
1026.9761	2998.276	1826.15	942.15
1027.0882	2999.3383	1812.05	927.9
1027.2002	3000.4	1789.45	903.45
1027.3122	3001.4611	1760.75	877.7
1027.4241	3002.5215	1756.1	872.4
1027.536	3003.5812	1742.8	860.5
1027.6478	3004.6404	1728.45	845.85
1027.7596	3005.6989	1717.2	831.4
1027.8714	3006.7567	1709.4	826.25
1027.9831	3007.8139	1709.15	803.65
1028.0947	3008.8705	1688.9	803.6
1028.2064	3009.9264	1699.1	799.75
1028.3179	3010.9818	1682.1	798.5
1028.4295	3012.0364	1679.75	795.4
1028.541	3013.0905	1663.6	782.65
1028.6524	3014.1439	1667.25	786.35
1028.7638	3015.1966	1656.45	773.6
1028.8752	3016.2487	1667.6	784.1
1028.9865	3017.3002	1666.2	776.95
1029.0978	3018.3511	1655.65	772.9
1029.209	3019.4013	1658.8	776.35
1029.3202	3020.4509	1659.25	777.6
1029.4314	3021.4998	1658.55	774.05
1029.5425	3022.5481	1663.45	780.05
1029.6535	3023.5958	1653.55	771.2
1029.7645	3024.6428	1654.3	771.2
1029.8755	3025.6892	1652.1	770.9
1029.9864	3026.735	1654.25	770.6
1030.0973	3027.7802	1653.1	769.75
1030.2082	3028.8247	1660.35	778.05
1030.319	3029.8685	1660.4	775.7
1030.4297	3030.9118	1663.65	779.7
1030.5404	3031.9544	1664.85	782.05
1030.6511	3032.9963	1667.35	782.55
1030.7617	3034.0376	1671.2	789.45
1030.8723	3035.0783	1676.45	791.05
1030.9829	3036.1184	1683.45	798.25
1031.0934	3037.1578	1669.35	784.95
1031.2038	3038.1966	1676.75	791.9
1031.3142	3039.2348	1678.15	798.45
1031.4246	3040.2723	1684.15	793.45
1031.5349	3041.3092	1668.2	787.1
1031.6452	3042.3455	1665.45	783
1031.7554	3043.3811	1666.55	783.1
1031.8656	3044.4161	1652.05	769.85
1031.9758	3045.4505	1652.45	769.4
1032.0859	3046.4842	1643.6	759.4
1032.1959	3047.5173	1632.2	750.7
1032.3059	3048.5498	1627.9	746.2
1032.4159	3049.5816	1618	735.55
1032.5258	3050.6128	1624.9	741.5
1032.6357	3051.6434	1605.25	719.9
1032.7455	3052.6734	1589.95	707.75
1032.8553	3053.7027	1590	708.2
1032.9651	3054.7314	1584.3	701.95
1033.0748	3055.7594	1576.3	693.3
1033.1845	3056.7868	1568.35	684.95
1033.2941	3057.8136	1564.05	680.6
1033.4037	3058.8398	1560	678.2
1033.5132	3059.8653	1552.2	668.45
1033.6227	3060.8902	1548	665.05
1033.7321	3061.9145	1538.85	655.35
1033.8415	3062.9381	1534.3	652.5
1033.9509	3063.9612	1534.5	634.6
1034.0602	3064.9835	1511.3	625.9
1034.1694	3066.0053	1515.95	632.8
1034.2787	3067.0264	1496.95	614.95
1034.3878	3068.0469	1500.65	618.15
1034.497	3069.0668	1481.7	597.9
1034.6061	3070.086	1477.05	593.45
1034.7151	3071.1046	1467.35	583.7
1034.8241	3072.1226	1458.95	573.95
1034.9331	3073.1399	1441.15	558.55
1035.042	3074.1567	1436.6	553
1035.1508	3075.1727	1430.6	546.8
1035.2597	3076.1882	1416.35	534.6
1035.3684	3077.203	1403.75	522.85
1035.4772	3078.2173	1395.95	511.65
1035.5859	3079.2308	1388.25	503.4
1035.6945	3080.2438	1385.4	500.25
1035.8031	3081.2561	1365.45	483.95
1035.9117	3082.2678	1360.35	478.75
1036.0202	3083.2789	1362.05	479.15
1036.1286	3084.2893	1345.05	462
1036.2371	3085.2991	1343.2	461.6
1036.3454	3086.3083	1336.95	449.75
1036.4538	3087.3169	1335.15	449.85
1036.562	3088.3248	1328.15	444.7
1036.6703	3089.3321	1316.4	431.95
1036.7785	3090.3388	1308.8	427.6
1036.8866	3091.3449	1310.35	428.8
1036.9948	3092.3503	1307.85	422.35
1037.1028	3093.3551	1298.5	416.95
1037.2108	3094.3593	1290.75	411.5
1037.3188	3095.3629	1281.65	402
1037.4267	3096.3658	1283.25	399.75
1037.5346	3097.3681	1283.75	402.7
1037.6425	3098.3698	1279.8	396.65
1037.7503	3099.3708	1285.35	396.25
1037.858	3100.3713	1274.15	393.3
1037.9657	3101.3711	1267.8	384.3
1038.0734	3102.3702	1392.85	378.55
1038.181	3103.3688	1258.35	374.35
1038.2886	3104.3667	1252.4	372.1
1038.3961	3105.364	1250.45	367.9
1038.5036	3106.3607	1253.9	369.95
1038.611	3107.3568	1249.5	366.8
1038.7184	3108.3522	1244.7	362.9
1038.8257	3109.347	1244.4	360.1
1038.933	3110.3412	1242.45	356.75
1039.0403	3111.3348	1232.95	354.1
1039.1475	3112.3277	1239.65	356.65
1039.2547	3113.32	1234.55	354.05
1039.3618	3114.3117	1228.8	346.55
1039.4689	3115.3028	1228.15	346.35
1039.5759	3116.2932	1224.5	340.9
1039.6829	3117.2831	1227.05	339.6
1039.7898	3118.2723	1224.5	341.55
1039.8967	3119.2608	1216.95	334.7
1040.0035	3120.2488	1213.45	329.75
1040.1103	3121.2361	1215	332.5
1040.2171	3122.2229	1208.75	326.05
1040.3238	3123.209	1213.4	331.8
1040.4305	3124.1944	1206.25	326.05
1040.5371	3125.1793	1208.95	323.55
1040.6437	3126.1635	1205.3	324.2
1040.7502	3127.1471	1206.45	324.65
1040.8567	3128.1301	1195.75	315.15
1040.9631	3129.1125	1199.2	318.4
1041.0695	3130.0942	1201.95	319.35
1041.1759	3131.0753	1205.4	316.9
1041.2822	3132.0558	1200.35	315.45
1041.3884	3133.0357	1193.1	307.9
1041.4946	3134.015	1185.7	302.8
1041.6008	3134.9936	1190.45	306.2
1041.7069	3135.9716	1203	299
1041.813	3136.949	1182.7	300.35
1041.919	3137.9258	1195.2	295.65
1042.025	3138.902	1181.95	295.75
1042.1309	3139.8775	1176.9	294.75
1042.2368	3140.8524	1180.9	299
1042.3427	3141.8267	1176.95	293.5
1042.4485	3142.8004	1173.9	291.85
1042.5542	3143.7735	1179.5	290
1042.6599	3144.7459	1169.2	284.6
1042.7656	3145.7178	1170.75	288.8
1042.8712	3146.689	1166.1	285.95
1042.9768	3147.6596	1163.15	279.65
1043.0823	3148.6295	1162.65	280.7
1043.1878	3149.5989	1155.9	272
1043.2932	3150.5676	1162.1	281.8
1043.3986	3151.5357	1156.95	275.4
1043.5039	3152.5032	1156.55	276
1043.6092	3153.4701	1151.55	270.4
1043.7145	3154.4364	1154.45	270.2
1043.8197	3155.402	1147.85	266.55
1043.9248	3156.367	1154.4	271.6
1044.03	3157.3315	1185.1	266.25
1044.135	3158.2952	1150.85	268.7
1044.24	3159.2584	1141.45	262.2
1044.345	3160.221	1138.9	255.55
1044.4499	3161.1829	1142.9	259.55
1044.5548	3162.1442	1138.3	256.8
1044.6596	3163.105	1130.45	248.5
1044.7644	3164.065	1134.15	253.9
1044.8692	3165.0245	1138.2	254.5
1044.9739	3165.9834	1129.95	247.85
1045.0785	3166.9416	1131.1	249.8
1045.1831	3167.8993	1127.8	245.55
1045.2877	3168.8563	1126.85	245
1045.3922	3169.8127	1126.15	246.3
1045.4966	3170.7684	1121.35	239.3
1045.6011	3171.7236	1122.9	239.85
1045.7054	3172.6782	1120.15	239.85
1045.8098	3173.6321	1116.95	232.9
1045.914	3174.5854	1121.7	235.85
1046.0183	3175.5381	1113.2	231.9
1046.1224	3176.4902	1111	229.5
1046.2266	3177.4417	1112.75	231.8
1046.3307	3178.3926	1113.35	230.9
1046.4347	3179.3428	1112.65	232.05
1046.5387	3180.2924	1110.6	228.3
1046.6427	3181.2415	1106.85	224.25
1046.7466	3182.1899	1105.75	223.45
1046.8504	3183.1377	1105.75	225.3
1046.9542	3184.0848	1107.25	221.3
1047.058	3185.0314	1103.55	221.75
1047.1617	3185.9773	1101.6	221.4
1047.2654	3186.9227	1106.7	225.15
1047.369	3187.8674	1096.75	216.15
1047.4726	3188.8115	1102.45	216.1
1047.5761	3189.755	1100.1	220.3
1047.6796	3190.6979	1096.05	215.9
1047.783	3191.6402	1092.85	212.4
1047.8864	3192.5818	1094.9	211.7
1047.9898	3193.5229	1099.55	209.7
1048.0931	3194.4633	1093	210.45
1048.1963	3195.4031	1092.7	211.1
1048.2995	3196.3423	1088.75	208.7
1048.4027	3197.2809	1089.7	207.4
1048.5058	3198.2189	1085.95	205.1
1048.6089	3199.1563	1090.8	203.6
1048.7119	3200.0931	1086.85	207.4
1048.8148	3201.0292	1088.4	207.8
1048.9178	3201.9648	1082.65	203
1049.0206	3202.8997	1083.9	200
1049.1235	3203.834	1087	205.65
1049.2262	3204.7677	1079.05	198.55
1049.329	3205.7008	1080.9	198.3
1049.4317	3206.6333	1077.25	197.1
1049.5343	3207.5652	1078.75	197.25
1049.6369	3208.4964	1076.45	193.05
1049.7394	3209.4271	1080.7	200.2
1049.8419	3210.3571	1074.35	193.75
1049.9444	3211.2865	1073.05	189.15
1050.0468	3212.2154	1072.25	192.05
1050.1491	3213.1436	1071.7	187.65
1050.2514	3214.0712	1077.05	189.4
1050.3537	3214.9982	1069.7	187.45
1050.4559	3215.9246	1070.85	189.45
1050.5581	3216.8503	1064.3	184.4
1050.6602	3217.7755	1065.35	184.7
1050.7623	3218.7001	1061.4	178.85
1050.8643	3219.624	1061.2	180.2
1050.9663	3220.5473	1061.75	179.65
1051.0682	3221.4701	1067.55	183.7
1051.1701	3222.3922	1059.95	177.6
1051.2719	3223.3137	1059.8	180.9
1051.3737	3224.2346	1058.55	178.2
1051.4754	3225.1549	1060.75	180.3
1051.5771	3226.0746	1058.4	175.85
1051.6788	3226.9937	1058.3	174.75
1051.7804	3227.9121	1055.75	177.25
1051.8819	3228.83	1059.2	179.8
1051.9834	3229.7473	1050.55	169.05
1052.0849	3230.6639	1055.35	173.85
1052.1863	3231.5799	1053.5	172.35
1052.2876	3232.4954	1052.25	171.15
1052.3889	3233.4102	1049.1	170.8
1052.4902	3234.3244	1049.7	166.45
1052.5914	3235.238	1045.8	163.7
1052.6926	3236.151	1071.3	166.45
1052.7937	3237.0634	1049	167.5
1052.8948	3237.9752	1042.6	164.1
1052.9958	3238.8864	1042.9	161.9
1053.0968	3239.797	1044.8	164.3
1053.1977	3240.7069	1040.5	157.25
1053.2986	3241.6163	1042.95	160.4
1053.3994	3242.5251	1040.2	159.45
1053.5002	3243.4332	1040.15	159.65
1053.6009	3244.3408	1039.4	157.25
1053.7016	3245.2477	1035.15	154.45
1053.8022	3246.154	1039.05	159
1053.9028	3247.0598	1036.15	154.05
1054.0034	3247.9649	1036.05	154.4
1054.1039	3248.8694	1034.3	154.1
1054.2043	3249.7733	1032.9	151.8
1054.3047	3250.6766	1031.7	150.6
1054.4051	3251.5793	1032.75	151.05
1054.5054	3252.4814	1026	146.7
1054.6056	3253.3829	1027.15	146
1054.7058	3254.2838	1027.65	149.25
1054.806	3255.1841	1027.9	147.7
1054.9061	3256.0838	1024.05	145
1055.0061	3256.9829	1023.3	143.95
1055.1062	3257.8814	1024.5	142.25
1055.2061	3258.7792	1017.1	134.85
1055.306	3259.6765	1021.7	140.5
1055.4059	3260.5731	1019.55	136.8
1055.5057	3261.4692	1015.95	134.2
1055.6055	3262.3647	1016.25	134.3
1055.7052	3263.2595	1007.45	126.85
1055.8049	3264.1538	1011.5	130.3
1055.9045	3265.0474	1010.5	127.7
1056.0041	3265.9404	1004.55	126.2
1056.1036	3266.8329	1001.95	120.7
1056.2031	3267.7247	1012.2	121.15
1056.3025	3268.616	998.05	118.45
1056.4019	3269.5066	996.85	117.55
1056.5013	3270.3966	997.15	114.05
1056.6005	3271.286	992.65	113.2
