Software Version:	3.9.2.0
Unit SN:	10000200
Spectrometer SN:	6960
Date:	3/26/2024 1:33:58 PM
Data Line Index:	25
Spectral Points:	2048
Integration time (ms):	125
Averages:	20
Delay (ms):	30000
Sequence Number:	1
Processing:	dark subtract
Laser Power (mW):	300
Laser Current (mA):	820
Laser Diode Temp (C):	25
Laser Case Temp (C):	26.9
System Temp (C):	26.9
Spectrometer Temp (C):	24.7
CCD Temp (C):	0.002
Secondary Temp (C):	20.007
Heatsink Temp (C):	22.361
CCDPCB Temp (C):	36.651
SecondaryPCB Temp (C):	34.15

Wavelength	RamanShift	Raw Counts	Dark Subtracted
787.061	30.1047	553.45	144
787.2016	32.3739	559.25	149.7
787.3422	34.6426	571.55	162.2
787.4828	36.9109	584.05	171.3
787.6235	39.1787	599.15	185.25
787.7642	41.4461	617.3	198.35
787.9049	43.7131	633	209.15
788.0456	45.9796	647.95	221.05
788.1863	48.2456	668.3	237.25
788.3271	50.5112	685.15	248.45
788.4679	52.7764	702.15	262.55
788.6087	55.0411	721.7	279.95
788.7496	57.3054	740.15	294.15
788.8904	59.5692	766.9	319.25
789.0313	61.8326	790.2	338.2
789.1722	64.0955	815.1	356.75
789.3132	66.3579	855	392.1
789.4541	68.6199	888.4	425
789.5951	70.8815	953.85	486.05
789.7361	73.1426	1105.3	635.05
789.8771	75.4032	1472.85	997.65
790.0181	77.6634	2385.05	1902.45
790.1592	79.9231	4623.65	4131.35
790.3003	82.1824	9667.05	9159.5
790.4414	84.4412	19478.8	18948.15
790.5825	86.6995	35703.9	35136.75
790.7237	88.9574	47069.7	46473.05
790.8648	91.2148	52515.15	51895.85
791.006	93.4717	54175.35	53541.95
791.1472	95.7282	54873.5	54228.1
791.2885	97.9842	55119.05	54472.15
791.4297	100.2398	55073.3	54421.45
791.571	102.4949	54883.25	54226.35
791.7123	104.7495	54779.5	54124.65
791.8536	107.0036	54467.8	53809.05
791.9949	109.2573	54580.85	53925.25
792.1363	111.5105	54242.7	53580.6
792.2777	113.7632	54220.6	53558.6
792.4191	116.0154	54207.6	53536.75
792.5605	118.2672	54322.05	53652
792.7019	120.5185	54246.85	53582.75
792.8434	122.7693	54227.4	53557.7
792.9849	125.0197	53981.95	53312.15
793.1264	127.2696	54383.8	53710.6
793.2679	129.519	54255.15	53574.8
793.4094	131.7679	54435.95	53748.95
793.551	134.0163	53878.65	53192.05
793.6926	136.2642	54052.3	53359.7
793.8342	138.5117	54269.55	53568.55
793.9758	140.7587	54090.1	53394.3
794.1175	143.0052	54026.7	53331.15
794.2591	145.2512	53694.7	52998
794.4008	147.4967	53975.9	53276.05
794.5425	149.7417	53804.65	53103.75
794.6842	151.9863	53792.65	53087.55
794.826	154.2304	53556.55	52848.25
794.9677	156.4739	53690	52979.2
795.1095	158.717	53803.45	53087.9
795.2513	160.9596	53618.6	52903.2
795.3931	163.2017	53301.75	52583.6
795.535	165.4433	53537.9	52816.85
795.6768	167.6844	53316.7	52598.5
795.8187	169.925	53384.45	52659.85
795.9606	172.1651	53183.65	52457.5
796.1025	174.4047	53139.65	52412.5
796.2445	176.6439	53136.45	52407.3
796.3864	178.8825	53021.2	52284.3
796.5284	181.1206	53134.45	52395.7
796.6704	183.3582	53117.15	52371.2
796.8124	185.5954	52926.6	52178.95
796.9544	187.832	52970.45	52223.3
797.0965	190.0681	52859.1	52104.45
797.2386	192.3037	53130.05	52378.25
797.3806	194.5388	53349.05	52592.05
797.5228	196.7734	52775.7	52011.6
797.6649	199.0075	53289.55	52523.15
797.807	201.2411	53161.55	52392.4
797.9492	203.4742	53470.3	52701.95
798.0914	205.7068	53450.25	52682.25
798.2336	207.9389	53408.25	52637.55
798.3758	210.1704	53433.9	52661.95
798.518	212.4015	53647.2	52876.45
798.6603	214.632	53385.15	52608.5
798.8025	216.862	53750.7	52984.1
798.9448	219.0915	53632.1	52867.75
799.0871	221.3205	53595.2	52837.55
799.2294	223.549	53842.55	53092.3
799.3718	225.777	53816.8	53062.35
799.5141	228.0044	53942.8	53184.25
799.6565	230.2314	53908.8	53155.4
799.7989	232.4578	53900.8	53148.1
799.9413	234.6837	53938.15	53177.25
800.0837	236.909	54458.55	53692.7
800.2262	239.1339	53802.6	53016.5
800.3687	241.3582	54039.7	53265.35
800.5111	243.582	54032	53224.25
800.6536	245.8053	54032.85	53237.45
800.7961	248.0281	54054.9	53267.75
800.9387	250.2503	54142.1	53348
801.0812	252.472	53956.6	53158.3
801.2238	254.6932	54088.25	53286.1
801.3664	256.9139	53998.6	53198.65
801.509	259.134	54438.3	53631.15
801.6516	261.3536	53987.25	53180.85
801.7942	263.5727	54346.35	53536.2
801.9369	265.7912	54222.75	53417.3
802.0795	268.0092	54323.95	53520.95
802.2222	270.2267	54362	53556.3
802.3649	272.4436	54178.2	53370.95
802.5076	274.6601	54396.65	53582.6
802.6504	276.8759	54438	53628.8
802.7931	279.0913	54301.25	53490.9
802.9359	281.3061	54279.55	53468.3
803.0787	283.5204	54369.35	53552.5
803.2215	285.7341	54326.45	53502.1
803.3643	287.9473	54547.95	53720.4
803.5071	290.16	54360.45	53535.75
803.6499	292.3721	54538.75	53720.8
803.7928	294.5837	54315.55	53491.95
803.9357	296.7947	54231.8	53411.35
804.0786	299.0052	54576.45	53751.85
804.2215	301.2152	54379.05	53552.6
804.3644	303.4246	54553.9	53733.1
804.5074	305.6334	54413.75	53592.2
804.6503	307.8418	54088.45	53263.9
804.7933	310.0495	54055.4	53229.05
804.9363	312.2568	53914.8	53090.55
805.0793	314.4635	53796.9	52969.7
805.2223	316.6696	53808.45	52981.3
805.3653	318.8752	53894.65	53056
805.5084	321.0802	53439.1	52609.3
805.6514	323.2847	53617.45	52784.45
805.7945	325.4887	53602.15	52768.2
805.9376	327.692	53474.95	52639.7
806.0807	329.8949	53625.35	52794.05
806.2238	332.0972	53446	52612.3
806.367	334.2989	53497.75	52656.05
806.5101	336.5001	53557.4	52713.3
806.6533	338.7007	53242.8	52399.4
806.7965	340.9008	53342	52499.2
806.9397	343.1003	53331.7	52489.3
807.0829	345.2992	53386.8	52543.05
807.2261	347.4976	53187.85	52338.5
807.3693	349.6955	53253.3	52404.25
807.5126	351.8927	53193.65	52342.45
807.6559	354.0895	53250.1	52390
807.7991	356.2856	53220.1	52369.65
807.9424	358.4812	53273.75	52420.8
808.0857	360.6763	53102.95	52249.05
808.2291	362.8707	53185.8	52331.55
808.3724	365.0646	53108.2	52249.55
808.5158	367.258	53129.5	52275.3
808.6591	369.4508	52994.45	52134.15
808.8025	371.643	53155.5	52294.3
808.9459	373.8346	53122.45	52260.9
809.0893	376.0257	53092.95	52228.1
809.2327	378.2162	52999.45	52133.95
809.3762	380.4062	52856.65	51986.6
809.5196	382.5956	52883.2	52015.85
809.6631	384.7844	52904.3	52040.45
809.8066	386.9726	52846.6	51978.2
809.9501	389.1603	52844.85	51983.35
810.0936	391.3474	52657.2	51758.25
810.2371	393.5339	52811.8	51948.25
810.3806	395.7199	52549.05	51685.6
810.5241	397.9052	52566.2	51699.45
810.6677	400.09	52592.45	51732.4
810.8113	402.2743	52685.75	51825.9
810.9548	404.4579	52617.95	51759.75
811.0984	406.641	52599.5	51739.75
811.2421	408.8235	52732.05	51874.65
811.3857	411.0054	52804.75	51940
811.5293	413.1868	52882.9	52017.35
811.673	415.3675	52828.55	51957.1
811.8166	417.5477	52889.1	52021.9
811.9603	419.7273	52829.55	51961.25
812.104	421.9064	52741.4	51865.95
812.2477	424.0848	52750.9	51880.4
812.3914	426.2627	52747.55	51874.4
812.5351	428.4399	52494.5	51617.75
812.6788	430.6166	52336.15	51453.9
812.8226	432.7928	52363.8	51482.9
812.9663	434.9683	52108.55	51234.5
813.1101	437.1432	52058.85	51183.45
813.2539	439.3176	52082.35	51208.25
813.3977	441.4914	51845.6	50976.6
813.5415	443.6645	51889.8	51013.7
813.6853	445.8371	51800.5	50923.05
813.8291	448.0091	51635.7	50756.8
813.973	450.1806	51574.85	50696.4
814.1168	452.3514	51522.15	50646.95
814.2607	454.5216	51503.45	50622
814.4046	456.6913	51471.1	50591.65
814.5485	458.8603	51500.9	50627.35
814.6924	461.0288	51409.15	50537.85
814.8363	463.1967	51498.2	50627.6
814.9802	465.3639	51491.75	50615.35
815.1241	467.5306	51271.1	50393.45
815.2681	469.6967	51345.05	50471.05
815.412	471.8622	51349.4	50476.75
815.556	474.0271	51300.1	50423
815.7	476.1914	51299.95	50418.35
815.844	478.3551	51317.35	50437.5
815.988	480.5182	51431.65	50553.15
816.132	482.6807	51327.35	50452.1
816.276	484.8426	51385.8	50520.75
816.4201	487.0039	51573.15	50701.6
816.5641	489.1647	51628.05	50746.9
816.7082	491.3248	51645.05	50762.4
816.8522	493.4843	51794.7	50915
816.9963	495.6432	51722.35	50842.6
817.1404	497.8015	51480.65	50596.1
817.2845	499.9592	51576.9	50683.3
817.4286	502.1163	51505.05	50612.75
817.5727	504.2728	51421.5	50539.95
817.7168	506.4287	51371.15	50491.6
817.861	508.5839	51154.1	50278.8
818.0051	510.7386	51165.55	50286.1
818.1493	512.8927	51184.75	50291.4
818.2935	515.0461	51102.85	50214.1
818.4377	517.199	51170.85	50279.25
818.5818	519.3512	51157.65	50266.2
818.726	521.5029	51200.85	50308.35
818.8703	523.6539	51276.6	50389.3
819.0145	525.8043	51120.55	50231.15
819.1587	527.9541	51197.85	50301.95
819.303	530.1033	51123.55	50223.65
819.4472	532.2519	51003.05	50114.1
819.5915	534.3999	51029	50132.35
819.7357	536.5472	51152.7	50265.05
819.88	538.694	51017.4	50126
820.0243	540.8401	51199.15	50304.7
820.1686	542.9856	51280.65	50376.05
820.3129	545.1305	51273.7	50367.65
820.4572	547.2748	51232.05	50322.05
820.6016	549.4185	51150.25	50241.5
820.7459	551.5615	51136.25	50228.5
820.8902	553.704	51066.1	50161.15
821.0346	555.8458	50997.9	50095.35
821.1789	557.987	51042.75	50143.5
821.3233	560.1276	51110.9	50208.4
821.4677	562.2675	51173.5	50269.55
821.6121	564.4069	51304.25	50401.4
821.7565	566.5456	51408.15	50506
821.9009	568.6837	51330.45	50433.1
822.0453	570.8212	51181	50281.95
822.1897	572.958	50888.65	49987.1
822.3342	575.0942	50825.8	49928.25
822.4786	577.2299	50587.45	49695.7
822.6231	579.3648	50469.65	49582.6
822.7675	581.4992	50357.3	49477.45
822.912	583.6329	50348.75	49469.4
823.0565	585.766	50374.7	49492.1
823.201	587.8985	50409.65	49518.7
823.3454	590.0304	50175.65	49268
823.4899	592.1616	50274.9	49371.35
823.6345	594.2922	50122.35	49219.4
823.779	596.4222	49940.65	49030.55
823.9235	598.5515	49922.5	49009.2
824.068	600.6802	49948.3	49039.65
824.2126	602.8083	49627.45	48724.5
824.3571	604.9358	49609.85	48703.8
824.5017	607.0626	49745.65	48834.45
824.6462	609.1888	49522.85	48608.75
824.7908	611.3144	49722.1	48809.15
824.9354	613.4393	49605.85	48694.05
825.08	615.5636	49478.65	48564.95
825.2246	617.6873	49626.8	48712.65
825.3692	619.8103	49399.1	48488
825.5138	621.9327	49527	48613.85
825.6584	624.0544	49454.65	48549.45
825.803	626.1756	49282.1	48375.9
825.9477	628.2961	49206.65	48296.95
826.0923	630.4159	49038.6	48126.85
826.237	632.5351	48969.9	48055
826.3816	634.6537	49284.95	48371.95
826.5263	636.7716	48920.85	48000.6
826.6709	638.8889	49018.3	48100.6
826.8156	641.0056	49050.25	48129.1
826.9603	643.1216	49013.15	48094.8
827.105	645.237	49137.5	48220.5
827.2497	647.3518	48826.85	47914.2
827.3944	649.4659	48869.6	47962.35
827.5391	651.5793	48883.5	47977.7
827.6838	653.6922	48853.8	47941.3
827.8285	655.8043	48476.9	47565.45
827.9733	657.9159	48959.45	48044.9
828.118	660.0268	48112.65	47200.85
828.2627	662.137	48635.8	47723.05
828.4075	664.2466	48650.95	47732.6
828.5522	666.3556	48431.55	47513.45
828.697	668.4639	48502.05	47587.6
828.8418	670.5716	48258.1	47347.5
828.9865	672.6786	48460.6	47542.5
829.1313	674.785	48083.4	47162.15
829.2761	676.8907	48041.45	47124.65
829.4209	678.9958	48187.7	47277.25
829.5657	681.1002	48152.05	47232.6
829.7105	683.204	47906.1	46979.2
829.8553	685.3072	47727.35	46802.5
830.0001	687.4097	47812.45	46893.35
830.1449	689.5115	47662.8	46741
830.2898	691.6127	47946.25	47026.4
830.4346	693.7132	47645.45	46729.75
830.5794	695.8131	47678.4	46749.7
830.7243	697.9123	47747.45	46819.95
830.8691	700.0109	47805.1	46877.4
831.014	702.1089	47440.95	46516.95
831.1588	704.2061	47513.35	46590.6
831.3037	706.3028	47588.95	46662.85
831.4486	708.3987	47632.5	46709.65
831.5935	710.4941	47421.3	46500.75
831.7383	712.5887	47653.2	46733.45
831.8832	714.6827	47519	46597.25
832.0281	716.7761	47711.85	46793.6
832.173	718.8688	47823.7	46902.15
832.3179	720.9608	47574.85	46643.35
832.4628	723.0522	47657.8	46726.85
832.6077	725.1429	47388.9	46464.85
832.7527	727.233	48028.8	47103.5
832.8976	729.3224	47120.8	46196.8
833.0425	731.4112	47422.05	46497.4
833.1874	733.4993	47300.55	46376.5
833.3324	735.5867	47193.6	46268.3
833.4773	737.6735	46828.3	45902.25
833.6222	739.7596	46519.85	45591.85
833.7672	741.845	46353.25	45424.95
833.9122	743.9298	46703.3	45774.5
834.0571	746.014	46292.95	45363.5
834.2021	748.0974	46039.45	45108.55
834.347	750.1802	46472.3	45541.35
834.492	752.2624	45814.1	44885.45
834.637	754.3439	45880.95	44950.2
834.782	756.4247	46044.25	45105.7
834.9269	758.5048	45813.45	44886.4
835.0719	760.5843	45993.45	45060.2
835.2169	762.6631	46244.85	45311.95
835.3619	764.7413	46378.95	45449.35
835.5069	766.8188	46651.45	45720.15
835.6519	768.8956	46998.2	46069.5
835.7969	770.9718	47114.95	46185.25
835.9419	773.0473	46921.3	45992.15
836.0869	775.1221	46505	45576.2
836.232	777.1962	46395.15	45467.5
836.377	779.2697	46020.7	45085.65
836.522	781.3426	46208.75	45264.75
836.667	783.4147	46243.25	45310.15
836.8121	785.4862	46197.5	45267.55
836.9571	787.557	45723.3	44785.7
837.1021	789.6271	45876.35	44942.8
837.2472	791.6966	45236.4	44303.15
837.3922	793.7654	44578.25	43646.05
837.5373	795.8335	44435.7	43502.5
837.6823	797.901	44277	43341.7
837.8274	799.9678	43999.3	43063.45
837.9724	802.0339	43893.7	42958.35
838.1175	804.0993	43881.5	42937.8
838.2626	806.1641	43642.45	42707.55
838.4076	808.2282	43594.4	42660.85
838.5527	810.2916	43510.75	42575.05
838.6978	812.3544	43565.75	42634.2
838.8428	814.4164	43191.4	42259.7
838.9879	816.4778	43267.15	42330.25
839.133	818.5385	43241.85	42307.85
839.2781	820.5986	43261.7	42328.3
839.4232	822.658	43434.9	42498.2
839.5682	824.7166	43515	42580.65
839.7133	826.7747	43557.7	42624.05
839.8584	828.832	43894.5	42957.05
840.0035	830.8886	44181.25	43238.85
840.1486	832.9446	44242.05	43302.35
840.2937	834.9999	43632.75	42701.3
840.4388	837.0545	43668.5	42727.8
840.5839	839.1085	43517.5	42579.1
840.729	841.1618	43212.15	42273.4
840.8741	843.2143	42774.5	41836.85
841.0192	845.2662	42607.95	41675.45
841.1643	847.3175	42671.6	41736.35
841.3095	849.368	42228.85	41288
841.4546	851.4179	42423.5	41487.05
841.5997	853.467	42027.2	41091.25
841.7448	855.5155	42112.4	41175.8
841.8899	857.5633	41867.45	40930.05
842.0351	859.6105	41622.05	40683
842.1802	861.6569	41695.2	40759.3
842.3253	863.7027	41451.9	40511.6
842.4704	865.7478	41431.15	40493.05
842.6156	867.7922	41334.4	40397.15
842.7607	869.8359	41405.95	40468.2
842.9058	871.8789	41125.8	40187.8
843.0509	873.9212	41233.6	40261.25
843.1961	875.9629	41163.4	40224.55
843.3412	878.0039	41227.85	40286.4
843.4863	880.0441	41197.65	40262.45
843.6315	882.0837	41167.1	40230.85
843.7766	884.1226	41138.45	40198.2
843.9218	886.1609	41087.1	40154.15
844.0669	888.1984	41101.45	40163.3
844.212	890.2352	41313.2	40375
844.3572	892.2714	41007.05	40064.3
844.5023	894.3069	40990.25	40051.1
844.6475	896.3416	40719.95	39780.05
844.7926	898.3757	40647.4	39706.3
844.9377	900.4091	40359.1	39416.55
845.0829	902.4418	40485.55	39540.7
845.228	904.4739	40269.15	39326
845.3732	906.5052	40401.25	39457
845.5183	908.5358	40168.95	39228.55
845.6635	910.5658	40033.6	39089.7
845.8086	912.595	39869.95	38928.75
845.9538	914.6236	39537.7	38601.85
846.0989	916.6515	39715.2	38772.8
846.2441	918.6786	39258.3	38313.8
846.3892	920.7051	39285.25	38340.55
846.5344	922.7309	39265.6	38323.75
846.6795	924.756	39189.15	38248.4
846.8246	926.7804	39118	38177.75
846.9698	928.8041	38838.3	37897.6
847.1149	930.8272	38900.75	37959.55
847.2601	932.8495	38834.75	37895.2
847.4052	934.8711	38709.95	37767.75
847.5504	936.892	38482.1	37537.2
847.6955	938.9123	38379.8	37435.85
847.8407	940.9318	38307.5	37367.6
847.9858	942.9506	38206.6	37265.75
848.131	944.9688	38112.25	37172.3
848.2761	946.9862	37862.3	36918.45
848.4213	949.003	37701.2	36760.15
848.5664	951.019	37447.05	36503.8
848.7115	953.0344	37372	36432.9
848.8567	955.0491	37273.55	36329.3
849.0018	957.063	37285.55	36342.5
849.147	959.0763	37367.4	36420
849.2921	961.0888	37210.85	36267.45
849.4373	963.1007	37283.05	36344.75
849.5824	965.1119	37221.4	36287.15
849.7275	967.1223	37078.25	36149.1
849.8727	969.1321	37070.4	36139.95
850.0178	971.1412	37021.05	36087.95
850.1629	973.1495	36839.85	35902.05
850.3081	975.1572	36810.8	35852.25
850.4532	977.1641	36734.4	35790.5
850.5983	979.1704	36624.35	35677.5
850.7435	981.1759	36477.6	35529.85
850.8886	983.1808	36491.75	35545.5
851.0337	985.1849	36405.35	35455.3
851.1788	987.1884	36334.15	35388.4
851.324	989.1911	36373.5	35431.4
851.4691	991.1932	36316.05	35374.35
851.6142	993.1945	36185.7	35245.7
851.7593	995.1951	35999.3	35057.9
851.9045	997.1951	35921.65	34975.6
852.0496	999.1943	35734.3	34794.8
852.1947	1001.1928	35686.15	34744.1
852.3398	1003.1906	35552.05	34609.5
852.4849	1005.1877	35549.95	34609.3
852.63	1007.1841	35421.6	34479.75
852.7751	1009.1798	35348.8	34410
852.9202	1011.1748	35157.45	34217.2
853.0653	1013.1691	34953.85	34011.7
853.2104	1015.1627	34740.95	33799.15
853.3555	1017.1556	34409.25	33471.6
853.5006	1019.1477	34251.75	33314.15
853.6457	1021.1392	34007.5	33073.65
853.7908	1023.1299	33894.55	32960.35
853.9359	1025.12	33743.45	32813.15
854.081	1027.1093	33613.05	32696
854.2261	1029.0979	33597.2	32680.45
854.3712	1031.0859	33565.3	32643.5
854.5163	1033.0731	33492.3	32562.9
854.6613	1035.0596	33378.5	32444.35
854.8064	1037.0454	33174	32237.2
854.9515	1039.0304	32993.1	32055.3
855.0965	1041.0148	32832.2	31894.1
855.2416	1042.9985	32628.15	31689.25
855.3867	1044.9814	32626.75	31691.75
855.5317	1046.9636	32421.55	31481
855.6768	1048.9452	32313.7	31381.25
855.8219	1050.926	32307.6	31371
855.9669	1052.9061	32230.25	31290.65
856.112	1054.8855	32143.2	31203.6
856.257	1056.8642	32080.2	31144.5
856.4021	1058.8421	32089.15	31146
856.5471	1060.8194	31991.9	31051.15
856.6921	1062.7959	31960.5	31022.55
856.8372	1064.7717	31933	30993.1
856.9822	1066.7469	31868	30927.55
857.1272	1068.7213	31899.65	30956.25
857.2723	1070.695	31837.8	30897.5
857.4173	1072.6679	31685.6	30746.75
857.5623	1074.6402	31663.35	30723.4
857.7073	1076.6117	31615.6	30670.6
857.8523	1078.5826	31537.3	30595.5
857.9973	1080.5527	31375.8	30438.6
858.1423	1082.5221	31198.75	30261.65
858.2873	1084.4908	31092.8	30154.85
858.4323	1086.4587	31056	30115.85
858.5773	1088.426	31031.4	30091.55
858.7223	1090.3925	30928.5	29985.8
858.8673	1092.3584	30884.2	29945.55
859.0123	1094.3235	30763	29824.35
859.1573	1096.2879	30745.2	29804.8
859.3022	1098.2515	30708.5	29767.9
859.4472	1100.2145	30811.8	29876.9
859.5922	1102.1767	30836.45	29896.4
859.7371	1104.1382	30908.5	29970.45
859.8821	1106.099	30919.15	29980.8
860.027	1108.0591	30965.9	30027.9
860.172	1110.0185	31034.35	30093.55
860.3169	1111.9771	31065.2	30125.2
860.4619	1113.9351	30854.35	29917.45
860.6068	1115.8923	30693.55	29755.9
860.7517	1117.8488	30537.5	29595.1
860.8967	1119.8045	30249.55	29314.6
861.0416	1121.7596	30155.3	29216.6
861.1865	1123.7139	29953.45	29015.95
861.3314	1125.6675	29898.95	28961.55
861.4763	1127.6204	29916.2	28979.8
861.6212	1129.5726	29811.35	28873.35
861.7661	1131.524	29699.8	28762.5
861.911	1133.4748	29574.85	28636.75
862.0559	1135.4248	29336.2	28400.15
862.2008	1137.3741	29201.45	28264.85
862.3457	1139.3226	29081.85	28142.8
862.4905	1141.2705	29039.35	28100.1
862.6354	1143.2176	28813.05	27867.05
862.7803	1145.164	28794.8	27856.5
862.9251	1147.1097	28644.75	27705.6
863.07	1149.0546	28565.55	27627.25
863.2148	1150.9989	28449	27513.2
863.3597	1152.9424	28400.15	27464.35
863.5045	1154.8852	28226.3	27288.85
863.6493	1156.8272	28121.35	27183.8
863.7942	1158.7686	28132.8	27186.05
863.939	1160.7092	28058.9	27117.7
864.0838	1162.6491	27990.05	27051.05
864.2286	1164.5883	28006.75	27071.4
864.3734	1166.5267	27987.6	27049.55
864.5182	1168.4644	28061.4	27122.9
864.663	1170.4014	28137.1	27200.4
864.8078	1172.3377	28283.9	27348.2
864.9526	1174.2732	28430.7	27498.35
865.0974	1176.2081	28677.55	27741.5
865.2421	1178.1421	28888.35	27949.2
865.3869	1180.0755	29190.5	28256.5
865.5317	1182.0082	29271.15	28336.5
865.6764	1183.9401	29332.75	28399.9
865.8212	1185.8713	29182.55	28254.7
865.9659	1187.8017	28926.2	27996.85
866.1106	1189.7315	28646.6	27727.75
866.2554	1191.6605	28263.75	27344.2
866.4001	1193.5888	27946.65	27022.55
866.5448	1195.5163	27877.3	26950.95
866.6895	1197.4432	27680.3	26748.15
866.8342	1199.3693	27525.25	26591.6
866.9789	1201.2947	27440.7	26507.25
867.1236	1203.2193	27323.35	26387.5
867.2683	1205.1432	27276	26342.45
867.413	1207.0664	27224.25	26291.55
867.5576	1208.9889	27094.75	26161.25
867.7023	1210.9106	26969.65	26037.2
867.847	1212.8316	26880.7	25947.85
867.9916	1214.7519	26926.35	25982.65
868.1363	1216.6715	26816.55	25880.85
868.2809	1218.5903	26813.75	25878.4
868.4255	1220.5084	26810.7	25875.85
868.5701	1222.4257	26894.65	25963.4
868.7148	1224.3424	26740.6	25809.55
868.8594	1226.2583	26796.65	25862.05
869.004	1228.1735	26854.85	25919.75
869.1486	1230.0879	26785.85	25849.3
869.2932	1232.0016	26845.5	25911
869.4377	1233.9146	26876.7	25945
869.5823	1235.8269	26816.8	25881.95
869.7269	1237.7384	26781.4	25849.35
869.8715	1239.6492	26558.65	25628
870.016	1241.5592	26564.7	25631.35
870.1606	1243.4686	26485.85	25555.3
870.3051	1245.3772	26537.4	25608.2
870.4496	1247.285	26560.3	25626.95
870.5941	1249.1922	26596.5	25662.25
870.7387	1251.0986	26654.1	25724.4
870.8832	1253.0042	26636.3	25703.55
871.0277	1254.9092	26655.4	25723.05
871.1722	1256.8134	26701.05	25770.85
871.3167	1258.7169	26764.15	25833.1
871.4611	1260.6196	26747.9	25815.95
871.6056	1262.5216	26922.35	25991.15
871.7501	1264.4229	26913.05	25983.85
871.8945	1266.3234	27019.2	26087.9
872.039	1268.2232	27067.95	26134.15
872.1834	1270.1223	27044.85	26091.7
872.3278	1272.0207	27049.25	26114.75
872.4723	1273.9183	26984.1	26045.55
872.6167	1275.8151	26852.6	25921.15
872.7611	1277.7113	26840.6	25909.1
872.9055	1279.6067	26800.9	25869.35
873.0499	1281.5014	26894.75	25962.2
873.1943	1283.3953	27117.05	26183.7
873.3386	1285.2885	27399.2	26470.35
873.483	1287.181	27651.9	26721.95
873.6274	1289.0727	27984.45	27056.4
873.7717	1290.9637	28102.65	27172.75
873.9161	1292.854	28260.9	27330.25
874.0604	1294.7435	28151.65	27220.2
874.2047	1296.6323	28065.65	27136.15
874.349	1298.5204	27897.6	26964
874.4933	1300.4077	27754.75	26823.45
874.6376	1302.2943	27609.7	26679.75
874.7819	1304.1802	27383.9	26457.7
874.9262	1306.0653	27001.65	26072.15
875.0705	1307.9497	26663.85	25732.7
875.2147	1309.8333	26405.4	25477.15
875.359	1311.7162	26102.5	25173.2
875.5032	1313.5984	26025.5	25091.1
875.6475	1315.4798	25865.45	24921.65
875.7917	1317.3605	25727.05	24778.55
875.9359	1319.2405	25678.65	24749.5
876.0801	1321.1197	25498.25	24563.5
876.2243	1322.9982	25188.45	24255.45
876.3685	1324.876	25060.5	24130.95
876.5127	1326.753	24805.35	23873.5
876.6569	1328.6293	24668	23736.8
876.801	1330.5048	24515.35	23584.45
876.9452	1332.3796	24357.2	23427.45
877.0893	1334.2537	24307.6	23352.55
877.2335	1336.127	24158.25	23225.9
877.3776	1337.9996	24122.85	23195.05
877.5217	1339.8714	24067.85	23138.05
877.6658	1341.7426	24014.4	23037.75
877.8099	1343.6129	23960.55	23027.6
877.954	1345.4826	23905.9	22973.75
878.0981	1347.3515	23892.15	22958.4
878.2422	1349.2196	23828.55	22896.8
878.3862	1351.087	23844.5	22914.25
878.5303	1352.9537	23827.6	22894.65
878.6743	1354.8197	23911.95	22980.8
878.8184	1356.6849	23977.5	23045.45
878.9624	1358.5493	24004	23071.05
879.1064	1360.4131	24086.5	23153.85
879.2504	1362.276	24138.2	23209.45
879.3944	1364.1383	24106.7	23177.3
879.5384	1365.9998	23960.65	23024.85
879.6823	1367.8606	23661.8	22735.3
879.8263	1369.7206	23400.4	22471.55
879.9702	1371.5799	23108.4	22175.15
880.1142	1373.4384	22863.1	21932.1
880.2581	1375.2962	22694.1	21763.7
880.402	1377.1533	22378.6	21454.45
880.5459	1379.0096	22096.1	21168.4
880.6898	1380.8652	21856.5	20932.35
880.8337	1382.7201	21576.6	20650.05
880.9776	1384.5742	21379.5	20450.55
881.1215	1386.4275	21182.1	20252.3
881.2653	1388.2802	21028.65	20099.35
881.4092	1390.132	20898.95	19969.4
881.553	1391.9832	20837.1	19906.05
881.6968	1393.8336	20710.15	19780.1
881.8406	1395.6832	20614	19682.4
881.9844	1397.5322	20540.4	19613.1
882.1282	1399.3803	20451.7	19517.4
882.272	1401.2278	20341.55	19414
882.4158	1403.0745	20276.55	19352.05
882.5595	1404.9204	20190.9	19264.7
882.7033	1406.7656	20155.1	19224.15
882.847	1408.6101	20111.25	19181.75
882.9908	1410.4538	20030.65	19100.15
883.1345	1412.2968	20021.75	19092.6
883.2782	1414.139	19956.4	19031.15
883.4219	1415.9805	20000.8	19073.55
883.5656	1417.8213	19998.7	19051.6
883.7092	1419.6613	19996.95	19070.35
883.8529	1421.5006	20040.65	19112.9
883.9965	1423.3391	20141.6	19214.2
884.1402	1425.1769	20255.6	19328.25
884.2838	1427.0139	20517.95	19588
884.4274	1428.8502	20797.6	19870.05
884.571	1430.6858	21116.1	20187.8
884.7146	1432.5206	21286.5	20362.15
884.8582	1434.3547	21436.7	20510
885.0018	1436.188	21396.3	20468.1
885.1453	1438.0206	21305.8	20378.8
885.2889	1439.8524	21146	20220
885.4324	1441.6835	21067.3	20140.85
885.5759	1443.5139	20964.85	20039.3
885.7194	1445.3435	20890.7	19963.2
885.8629	1447.1724	20829.8	19908.1
886.0064	1449.0005	20732.7	19809.35
886.1499	1450.8279	20677	19751.75
886.2933	1452.6545	20673.3	19749.3
886.4368	1454.4804	20684	19760.25
886.5802	1456.3056	20632.45	19700.65
886.7237	1458.13	20531.45	19606.55
886.8671	1459.9536	20450.35	19526.5
887.0105	1461.7766	20269.95	19345.05
887.1539	1463.5987	20003.55	19079.15
887.2972	1465.4202	19737.3	18810.15
887.4406	1467.2409	19495.05	18570.95
887.584	1469.0608	19275.45	18349.55
887.7273	1470.88	19056	18129.05
887.8706	1472.6984	18911.5	17986.6
888.0139	1474.5161	18700.9	17773.25
888.1572	1476.3331	18572.6	17646.75
888.3005	1478.1493	18491.95	17567.6
888.4438	1479.9648	18396.8	17472.45
888.5871	1481.7795	18305.6	17380.6
888.7303	1483.5935	18268.7	17341.6
888.8736	1485.4067	18217.9	17292.65
889.0168	1487.2192	18181.45	17255.75
889.16	1489.031	18105.6	17177.6
889.3032	1490.842	18070.65	17144.95
889.4464	1492.6522	18029.5	17105.25
889.5896	1494.4618	17962.95	17037.35
889.7327	1496.2705	17919.15	16993.9
889.8759	1498.0785	17848.15	16926.75
890.019	1499.8858	17765.75	16842.7
890.1622	1501.6924	17682.5	16757.15
890.3053	1503.4981	17683.05	16759.75
890.4484	1505.3032	17628.55	16706.15
890.5914	1507.1075	17575.65	16653.6
890.7345	1508.911	17514.45	16592.95
890.8776	1510.7138	17447.6	16525.5
891.0206	1512.5159	17399.6	16478.1
891.1637	1514.3172	17296	16374.15
891.3067	1516.1178	17229.65	16309.45
891.4497	1517.9176	17192.55	16268.15
891.5927	1519.7166	17115.05	16193.4
891.7357	1521.515	17094.25	16165.55
891.8786	1523.3126	17066.35	16144.75
892.0216	1525.1094	16986.55	16060.95
892.1645	1526.9055	16906.15	15986.4
892.3074	1528.7008	16850.95	15932
892.4503	1530.4954	16768.9	15842.55
892.5932	1532.2893	16743.65	15828.3
892.7361	1534.0824	16624.5	15702.9
892.879	1535.8747	16625.05	15709
893.0218	1537.6663	16595.1	15677.85
893.1647	1539.4572	16529.6	15611.1
893.3075	1541.2473	16529.6	15609.4
893.4503	1543.0367	16460	15540.75
893.5931	1544.8253	16453.5	15531.9
893.7359	1546.6132	16437.75	15518.95
893.8787	1548.4003	16378.3	15451.8
894.0214	1550.1867	16380.9	15454.7
894.1642	1551.9723	16354.8	15434.9
894.3069	1553.7572	16423.35	15505.85
894.4496	1555.5414	16426.6	15510.55
894.5923	1557.3247	16449.3	15531.75
894.735	1559.1074	16555.45	15642.35
894.8777	1560.8893	16603.8	15691.45
895.0204	1562.6705	16646.25	15733.45
895.163	1564.4509	16719.05	15806.8
895.3056	1566.2305	16716	15807.1
895.4482	1568.0094	16766.2	15856.1
895.5908	1569.7876	16747.15	15835.6
895.7334	1571.565	16698.05	15786.25
895.876	1573.3417	16688.65	15773.55
896.0186	1575.1176	16661	15750.7
896.1611	1576.8928	16609.5	15699.05
896.3036	1578.6672	16518.85	15614.7
896.4461	1580.4409	16507.6	15603.1
896.5886	1582.2138	16478.25	15570.25
896.7311	1583.986	16488.95	15578.45
896.8736	1585.7575	16532.2	15622.85
897.0161	1587.5282	16511.75	15607.65
897.1585	1589.2981	16547.15	15644.7
897.3009	1591.0673	16554.55	15648.45
897.4433	1592.8358	16565.7	15661.15
897.5857	1594.6035	16623.7	15715.9
897.7281	1596.3704	16659.3	15749.95
897.8705	1598.1366	16644.15	15737.6
898.0128	1599.9021	16672	15764.2
898.1551	1601.6668	16687.8	15779.7
898.2975	1603.4308	16709.7	15799.55
898.4398	1605.194	16805.7	15893.35
898.5821	1606.9564	16896.65	15993.5
898.7243	1608.7182	17020.6	16116.6
898.8666	1610.4791	17205.85	16308.65
899.0088	1612.2394	17346.1	16450.7
899.1511	1613.9988	17543.95	16643.8
899.2933	1615.7576	17677.5	16774
899.4355	1617.5156	17824	16912.5
899.5776	1619.2728	17877.1	16968.25
899.7198	1621.0293	17829.25	16921.5
899.862	1622.785	17636.05	16733.15
900.0041	1624.54	17351.3	16449.3
900.1462	1626.2942	17125.8	16223.6
900.2883	1628.0477	16781.6	15876.7
900.4304	1629.8005	16574.2	15668.35
900.5725	1631.5525	16314.25	15414.75
900.7145	1633.3037	16069.35	15168.5
900.8566	1635.0542	15873.85	14973.75
900.9986	1636.804	15729.7	14826.75
901.1406	1638.553	15655.5	14699.25
901.2826	1640.3013	15535.25	14634.9
901.4245	1642.0488	15475.1	14571.85
901.5665	1643.7955	15505.55	14606.9
901.7085	1645.5416	15448.5	14548.05
901.8504	1647.2868	15505.8	14604.7
901.9923	1649.0313	15518.8	14615.55
902.1342	1650.7751	15586.1	14682
902.2761	1652.5181	15669.55	14768.1
902.4179	1654.2604	15685.55	14783.75
902.5598	1656.0019	15790.4	14889.8
902.7016	1657.7427	15938.75	15037.3
902.8434	1659.4828	16112.9	15211.6
902.9852	1661.222	16202.55	15300
903.127	1662.9606	16147.6	15244.15
903.2687	1664.6984	15977.05	15072.3
903.4105	1666.4354	15704	14799.9
903.5522	1668.1717	15316	14411.9
903.6939	1669.9072	14917.55	14012.45
903.8356	1671.642	14595.6	13689.35
903.9773	1673.3761	14336	13433.9
904.119	1675.1094	14111.65	13210.35
904.2606	1676.8419	13900.8	12999.25
904.4022	1678.5737	13725.3	12824.3
904.5439	1680.3048	13596.65	12693.3
904.6855	1682.0351	13487.4	12585.15
904.827	1683.7646	13350.95	12446.45
904.9686	1685.4934	13272.7	12372.05
905.1101	1687.2215	13186.9	12285.8
905.2517	1688.9488	13135.9	12234.55
905.3932	1690.6754	13041	12140.55
905.5347	1692.4012	12980.75	12078.95
905.6761	1694.1263	12938.85	12037.1
905.8176	1695.8506	12884.75	11984.3
905.9591	1697.5742	12810.1	11912.7
906.1005	1699.297	12765.35	11867.35
906.2419	1701.0191	12682.7	11785.2
906.3833	1702.7404	12635.1	11737.75
906.5246	1704.461	12550.95	11649.2
906.666	1706.1808	12508.25	11607.2
906.8073	1707.8999	12459.75	11560.35
906.9487	1709.6182	12431.7	11534.3
907.09	1711.3358	12396.05	11501.75
907.2313	1713.0527	12336.9	11444.4
907.3725	1714.7688	12267.85	11365.2
907.5138	1716.4841	12206.3	11307.85
907.655	1718.1987	12197.25	11293
907.7962	1719.9126	12152.05	11257.25
907.9374	1721.6257	12124.1	11227.7
908.0786	1723.338	12088.75	11192.2
908.2198	1725.0496	12026.95	11129.3
908.3609	1726.7605	12022.05	11123.5
908.502	1728.4706	11997.4	11099.1
908.6431	1730.18	11927.85	11032.3
908.7842	1731.8886	11893.6	10998.45
908.9253	1733.5964	11839.65	10938.8
909.0664	1735.3036	11799.55	10901.4
909.2074	1737.0099	11789.15	10893.15
909.3484	1738.7156	11766	10871.95
909.4894	1740.4204	11732.3	10834.65
909.6304	1742.1246	11688.7	10789.95
909.7714	1743.8279	11654.75	10758.7
909.9123	1745.5306	11633.95	10739.85
910.0532	1747.2325	11565.5	10670.7
910.1941	1748.9336	11530.55	10634.4
910.335	1750.634	11476	10577
910.4759	1752.3336	11464.75	10570.4
910.6168	1754.0325	11446.8	10556.05
910.7576	1755.7307	11420.3	10527.45
910.8984	1757.4281	11425.9	10532.6
911.0392	1759.1247	11394.5	10489.35
911.18	1760.8206	11365.25	10462.4
911.3208	1762.5158	11353	10451
911.4615	1764.2102	11307.65	10410.8
911.6022	1765.9039	11280.55	10386.8
911.7429	1767.5968	11231.2	10340.45
911.8836	1769.289	11198.5	10304.8
912.0243	1770.9804	11175.4	10280.5
912.1649	1772.6711	11180.25	10280.95
912.3056	1774.361	11152.35	10255.1
912.4462	1776.0502	11104.1	10206.15
912.5868	1777.7386	11066.2	10167.85
912.7274	1779.4263	11048.35	10151.7
912.8679	1781.1132	11050.95	10158.35
913.0084	1782.7994	10989.6	10096.8
913.149	1784.4849	10980.95	10090.75
913.2895	1786.1696	10973.85	10075.05
913.4299	1787.8535	10901.7	10010.1
913.5704	1789.5367	10887.1	9997.15
913.7108	1791.2192	10893.3	9998.9
913.8513	1792.9009	10848.8	9928.05
913.9917	1794.5818	10842.45	9945.85
914.132	1796.2621	10817.9	9926.2
914.2724	1797.9415	10771	9877.4
914.4128	1799.6202	10729.8	9833.65
914.5531	1801.2982	10741.65	9845.9
914.6934	1802.9755	10728.7	9832.4
914.8337	1804.6519	10696.7	9800.85
914.9739	1806.3277	10648.55	9756.7
915.1142	1808.0027	10596.7	9704.95
915.2544	1809.6769	10607.05	9715.8
915.3946	1811.3504	10555.8	9663.7
915.5348	1813.0231	10553.3	9660.4
915.675	1814.6951	10539.75	9646.4
915.8151	1816.3664	10511.75	9615.55
915.9553	1818.0369	10501.1	9606.8
916.0954	1819.7067	10477.9	9584.2
916.2355	1821.3757	10440.85	9542.65
916.3755	1823.044	10441.15	9545.1
916.5156	1824.7115	10416.6	9521.65
916.6556	1826.3783	10375.75	9480.95
916.7956	1828.0443	10344.1	9450.1
916.9356	1829.7096	10324.75	9430.85
917.0756	1831.3741	10316.8	9419.7
917.2155	1833.0379	10254.5	9360.95
917.3555	1834.701	10239.45	9343.05
917.4954	1836.3633	10230.3	9342
917.6353	1838.0248	10238.95	9345.85
917.7751	1839.6856	10207.25	9311.5
917.915	1841.3457	10188.9	9298
918.0548	1843.005	10150.4	9256.45
918.1946	1844.6636	10138.1	9244.9
918.3344	1846.3214	10113.9	9218.9
918.4742	1847.9785	10115.6	9224.15
918.6139	1849.6349	10097.8	9202.35
918.7537	1851.2904	10060.55	9157.2
918.8934	1852.9453	10021.2	9123.45
919.0331	1854.5994	10011.15	9113.35
919.1727	1856.2528	9994.05	9094.05
919.3124	1857.9054	9975.25	9079.5
919.452	1859.5572	9974.6	9080.45
919.5916	1861.2083	9934.2	9040.15
919.7312	1862.8587	9951.95	9055.45
919.8708	1864.5084	9892	8995.75
920.0103	1866.1572	9892.4	8998.9
920.1498	1867.8054	9867.6	8973.55
920.2893	1869.4528	9829.85	8933.9
920.4288	1871.0994	9823.55	8926.95
920.5683	1872.7453	9786.95	8891
920.7077	1874.3905	9765.3	8865.9
920.8471	1876.0349	9728.65	8834.15
920.9865	1877.6786	9773.35	8877.55
921.1259	1879.3215	9731.75	8836.35
921.2653	1880.9637	9725.7	8830.2
921.4046	1882.6051	9683.4	8789.95
921.5439	1884.2458	9680.8	8785.45
921.6832	1885.8858	9626.1	8732.35
921.8225	1887.525	9598.45	8702.2
921.9617	1889.1634	9550.95	8655.3
922.101	1890.8011	9559.55	8662.7
922.2402	1892.4381	9537.65	8643.35
922.3794	1894.0743	9499.45	8606.1
922.5185	1895.7098	9508.3	8611.95
922.6577	1897.3446	9483.15	8587.15
922.7968	1898.9786	9462.35	8565.1
922.9359	1900.6118	9445.05	8553.15
923.075	1902.2443	9383.4	8488.15
923.214	1903.8761	9373.3	8479.7
923.3531	1905.5071	9303.4	8406.45
923.4921	1907.1374	9302.55	8409.1
923.6311	1908.7669	9282.8	8388.2
923.77	1910.3957	9249.7	8358.2
923.909	1912.0237	9214.55	8319.55
924.0479	1913.651	9224.05	8329.5
924.1868	1915.2776	9197.1	8303.35
924.3257	1916.9034	9149.1	8254.65
924.4646	1918.5285	9106.65	8214.25
924.6034	1920.1528	9086.25	8191.9
924.7422	1921.7764	9091.85	8199.1
924.881	1923.3992	9030.9	8137.25
925.0198	1925.0213	8988.1	8093.7
925.1586	1926.6427	8937.75	8045.55
925.2973	1928.2633	9005.65	8043.7
925.436	1929.8832	8921.35	8026.6
925.5747	1931.5023	8887.25	7994.9
925.7134	1933.1207	8855.5	7962.75
925.852	1934.7383	8857.3	7964.5
925.9906	1936.3552	8815.2	7923.3
926.1292	1937.9714	8788.3	7895.5
926.2678	1939.5868	8768.05	7874.25
926.4064	1941.2015	8726.35	7833.35
926.5449	1942.8154	8702.9	7807.8
926.6834	1944.4286	8668.65	7773.85
926.8219	1946.041	8646.55	7728.05
926.9604	1947.6528	8588.45	7691.5
927.0988	1949.2637	8590.85	7700.3
927.2372	1950.8739	8547.85	7654.85
927.3756	1952.4834	8539.35	7646.25
927.514	1954.0921	8518.15	7624.15
927.6523	1955.7001	8520.6	7624.7
927.7907	1957.3074	8483.55	7592.25
927.929	1958.9139	8419.7	7532
928.0673	1960.5197	8414.7	7523.95
928.2055	1962.1247	8387	7496.9
928.3438	1963.729	8352	7462.9
928.482	1965.3325	8347.8	7433.6
928.6202	1966.9353	8301.05	7410.8
928.7584	1968.5374	8267	7375
928.8965	1970.1387	8246.15	7354.65
929.0346	1971.7393	8223.8	7331.05
929.1727	1973.3392	8190	7299.65
929.3108	1974.9383	8144.35	7256.85
929.4489	1976.5366	8131.35	7243
929.5869	1978.1342	8112	7222.35
929.7249	1979.7311	8107.65	7216.85
929.8629	1981.3273	8093.3	7204
930.0009	1982.9227	8052.75	7160.9
930.1388	1984.5173	8034.1	7146.85
930.2767	1986.1112	7993.3	7105.9
930.4146	1987.7044	7993.2	7104.35
930.5525	1989.2968	7975.85	7085.5
930.6904	1990.8885	7958.6	7065.45
930.8282	1992.4795	7932.55	7042.8
930.966	1994.0697	7884.05	6996
931.1038	1995.6592	7904.3	7017.45
931.2415	1997.2479	7866.75	6978.25
931.3793	1998.8359	7853.55	6965.7
931.517	2000.4232	7814.85	6928.2
931.6547	2002.0097	7804	6919.75
931.7923	2003.5955	7771.25	6884.75
931.93	2005.1805	7760.95	6871
932.0676	2006.7648	7733.25	6847.45
932.2052	2008.3484	7709	6821.15
932.3427	2009.9312	7719.9	6834.9
932.4803	2011.5133	7680.65	6794.9
932.6178	2013.0946	7675.55	6791.25
932.7553	2014.6752	7642.6	6757.8
932.8928	2016.2551	7632.1	6745.85
933.0302	2017.8342	7609.65	6723.05
933.1676	2019.4126	7569.65	6683.3
933.305	2020.9902	7542.1	6657.4
933.4424	2022.5672	7528.3	6641.8
933.5798	2024.1433	7515.6	6623.25
933.7171	2025.7188	7495.55	6613.75
933.8544	2027.2935	7472.55	6585.3
933.9917	2028.8674	7442.95	6561.35
934.129	2030.4406	7440.2	6557.45
934.2662	2032.0131	7413.05	6531.4
934.4034	2033.5849	7395	6509.7
934.5406	2035.1559	7370.15	6486.6
934.6778	2036.7261	7340.45	6453.45
934.8149	2038.2957	7345.75	6458.55
934.952	2039.8645	7334.25	6445.75
935.0891	2041.4325	7347.1	6455.55
935.2262	2042.9998	7260.35	6375.95
935.3632	2044.5664	7268.1	6378.7
935.5002	2046.1323	7269.5	6386
935.6372	2047.6974	7221.9	6338.9
935.7742	2049.2617	7207.3	6323.65
935.9111	2050.8254	7213.15	6325.1
936.048	2052.3883	7199.05	6311.25
936.1849	2053.9504	7158.95	6270
936.3218	2055.5118	7137.65	6249.75
936.4586	2057.0725	7119.15	6229.4
936.5955	2058.6325	7078.85	6191.55
936.7323	2060.1917	7094.85	6209.95
936.869	2061.7502	7071.6	6184.45
937.0058	2063.3079	7059.6	6175.05
937.1425	2064.8649	7026.05	6138
937.2792	2066.4212	6999.7	6112.5
937.4159	2067.9767	7006.1	6120.6
937.5525	2069.5315	6962.25	6078.2
937.6891	2071.0856	6948.7	6062.15
937.8257	2072.6389	6922.2	6037.7
937.9623	2074.1915	6897.8	6014.9
938.0989	2075.7433	6864.35	5977.65
938.2354	2077.2945	6839.45	5955.5
938.3719	2078.8448	6828.15	5942.15
938.5084	2080.3945	6811.35	5924.45
938.6448	2081.9434	6789.35	5902.4
938.7812	2083.4916	6783.3	5894.4
938.9176	2085.039	6763.35	5872.2
939.054	2086.5857	6748.15	5854.75
939.1903	2088.1317	6740.1	5847.95
939.3267	2089.677	6717.75	5827.7
939.463	2091.2215	6699.85	5807.95
939.5992	2092.7652	6683.7	5791.1
939.7355	2094.3083	6677.05	5785.8
939.8717	2095.8506	6664.65	5775.9
940.0079	2097.3921	6659.4	5772.55
940.1441	2098.933	6622.65	5734.45
940.2802	2100.4731	6627.25	5739.55
940.4163	2102.0124	6625.55	5731.15
940.5524	2103.5511	6606.7	5718.75
940.6885	2105.089	6611.4	5720.1
940.8245	2106.6261	6567.7	5677.95
940.9606	2108.1626	6554.65	5666.35
941.0965	2109.6983	6559.05	5640.8
941.2325	2111.2332	6523.8	5635.3
941.3684	2112.7675	6511.6	5624.15
941.5044	2114.301	6501.9	5610.45
941.6403	2115.8337	6496.15	5604.6
941.7761	2117.3657	6466.6	5576.95
941.912	2118.897	6453.75	5562.8
942.0478	2120.4276	6444.25	5548.45
942.1835	2121.9575	6416.55	5526
942.3193	2123.4866	6408.2	5516.35
942.455	2125.0149	6389.05	5496.5
942.5907	2126.5426	6349.5	5462.45
942.7264	2128.0695	6338.9	5448.9
942.8621	2129.5956	6339.25	5454.8
942.9977	2131.1211	6316.4	5426.25
943.1333	2132.6458	6316.4	5426.95
943.2689	2134.1698	6294.25	5404.65
943.4044	2135.693	6272.9	5377.95
943.54	2137.2155	6262	5368.6
943.6755	2138.7373	6253.75	5365.45
943.8109	2140.2584	6233.45	5346.85
943.9464	2141.7787	6208.65	5317.3
944.0818	2143.2983	6172.45	5288.8
944.2172	2144.8171	6133.45	5250.25
944.3526	2146.3353	6139.8	5252.9
944.4879	2147.8527	6135.95	5249.35
944.6232	2149.3693	6127.45	5237.45
944.7585	2150.8853	6107.1	5217.5
944.8938	2152.4005	6084.8	5193.7
945.029	2153.9149	6087	5197.15
945.1642	2155.4287	6156.05	5160.25
945.2994	2156.9417	6055.4	5161.5
945.4346	2158.454	6026.35	5136.8
945.5697	2159.9655	5999.35	5112
945.7048	2161.4764	6006.95	5119.6
945.8399	2162.9865	5994.95	5107
945.9749	2164.4958	5963.95	5076.15
946.1099	2166.0045	5952.5	5060.95
946.2449	2167.5124	5951.25	5063.35
946.3799	2169.0195	5940.75	5050.15
946.5148	2170.526	5910.3	5019.35
946.6498	2172.0317	5879.15	4991.4
946.7846	2173.5367	5874.55	4984.4
946.9195	2175.0409	5877.65	4990.5
947.0543	2176.5445	5873.75	4984.25
947.1891	2178.0473	5850.15	4960.6
947.3239	2179.5494	5836.75	4943.25
947.4587	2181.0507	5821.9	4930.55
947.5934	2182.5513	5800.85	4912.35
947.7281	2184.0512	5787.15	4897.4
947.8628	2185.5504	5768.5	4880.85
947.9974	2187.0488	5741.45	4854.95
948.132	2188.5465	5717.8	4832.05
948.2666	2190.0435	5707.3	4815.9
948.4012	2191.5397	5697.7	4809.45
948.5357	2193.0353	5673.8	4783.95
948.6702	2194.5301	5677.35	4783.65
948.8047	2196.0241	5643.45	4748.85
948.9392	2197.5175	5636.45	4742.6
949.0736	2199.0101	5607.8	4711.5
949.208	2200.502	5591.7	4701.55
949.3424	2201.9931	5564.1	4675.8
949.4767	2203.4835	5545.45	4657.5
949.611	2204.9733	5561.35	4654.8
949.7453	2206.4622	5529.8	4644.1
949.8796	2207.9505	5510.95	4621.25
950.0138	2209.438	5469.3	4583.45
950.148	2210.9248	5450.75	4561.2
950.2822	2212.4109	5438.85	4550.2
950.4164	2213.8962	5409.45	4517.35
950.5505	2215.3809	5441.15	4547.2
950.6846	2216.8648	5427.9	4536.3
950.8186	2218.3479	5419.25	4520.7
950.9527	2219.8304	5396.9	4501.95
951.0867	2221.3121	5365.5	4471.7
951.2207	2222.7931	5341.45	4451.3
951.3546	2224.2733	5339.45	4446.5
951.4886	2225.7529	5311.05	4422.45
951.6225	2227.2317	5321.95	4431
951.7563	2228.7098	5309.2	4422.95
951.8902	2230.1872	5282.6	4395.3
952.024	2231.6638	5270.4	4383.45
952.1578	2233.1397	5237.35	4347.75
952.2916	2234.6149	5223.2	4336.2
952.4253	2236.0894	5227.9	4339.75
952.559	2237.5632	5223.65	4334.75
952.6927	2239.0362	5182.4	4292.4
952.8263	2240.5085	5182.1	4291.6
952.9599	2241.9801	5162.65	4270.35
953.0935	2243.4509	5157.65	4268.35
953.2271	2244.921	5140.3	4247.2
953.3606	2246.3904	5129.75	4235.45
953.4941	2247.8591	5108.1	4216.75
953.6276	2249.3271	5073.65	4183.3
953.7611	2250.7943	5044.7	4153.1
953.8945	2252.2608	5050.75	4158.15
954.0279	2253.7266	5044.25	4155.15
954.1612	2255.1917	5030.1	4140.9
954.2946	2256.656	5006.75	4117.45
954.4279	2258.1197	5013.55	4123.95
954.5612	2259.5826	4981.2	4088.85
954.6944	2261.0447	4985.2	4092.15
954.8276	2262.5062	4975.15	4080.55
954.9608	2263.9669	4946.45	4053.35
955.094	2265.4269	4933.15	4042.1
955.2271	2266.8862	4932.9	4043.55
955.3602	2268.3448	4930.2	4042.15
955.4933	2269.8026	4927.8	4037.85
955.6264	2271.2598	4913.75	4022.9
955.7594	2272.7162	4885.5	3996.35
955.8924	2274.1719	4884.3	3994
956.0253	2275.6268	4856.05	3965
956.1583	2277.0811	4874.95	3981.3
956.2912	2278.5346	4844.75	3954.75
956.4241	2279.9874	4850.6	3961.55
956.5569	2281.4395	4822.45	3936.55
956.6897	2282.8908	4801.9	3909.55
956.8225	2284.3414	4798.2	3906.35
956.9553	2285.7914	4775.25	3886.7
957.088	2287.2406	4764.25	3871.35
957.2207	2288.689	4773.6	3879.95
957.3534	2290.1368	4767.8	3871.9
957.486	2291.5838	4735.75	3838.75
957.6186	2293.0302	4731.9	3835.2
957.7512	2294.4758	4701.4	3808.25
957.8838	2295.9206	4707.05	3815.55
958.0163	2297.3648	4685.45	3795.2
958.1488	2298.8082	4703.8	3812.95
958.2813	2300.251	4680	3789.3
958.4137	2301.693	4654.7	3758.95
958.5461	2303.1343	4647.05	3755.5
958.6785	2304.5748	4644.9	3755.6
958.8108	2306.0147	4618.1	3730.85
958.9432	2307.4538	4593.8	3703.25
959.0754	2308.8922	4601.55	3715.5
959.2077	2310.3299	4583.75	3695.9
959.3399	2311.7669	4555	3666.05
959.4721	2313.2031	4559.65	3669.3
959.6043	2314.6387	4551.2	3659.8
959.7365	2316.0735	4548.7	3659
959.8686	2317.5076	4522.65	3630.9
960.0006	2318.941	4526.7	3635.25
960.1327	2320.3737	4502.2	3608.85
960.2647	2321.8056	4499.75	3605.25
960.3967	2323.2369	4484.1	3590.05
960.5287	2324.6674	4470.4	3577.7
960.6606	2326.0972	4463	3571.95
960.7925	2327.5263	4460.45	3570.2
960.9244	2328.9547	4441.5	3550.2
961.0562	2330.3823	4434.05	3541.95
961.1881	2331.8092	4440.3	3544.15
961.3198	2333.2355	4400.9	3508.15
961.4516	2334.661	4402.8	3509.5
961.5833	2336.0858	4384.35	3491.85
961.715	2337.5098	4388.15	3497.15
961.8467	2338.9332	4371.2	3478.8
961.9783	2340.3558	4354.5	3459.65
962.1099	2341.7778	4334.8	3445.7
962.2415	2343.199	4332.75	3441.4
962.373	2344.6195	4317.8	3428.2
962.5045	2346.0393	4308.7	3419.9
962.636	2347.4583	4300.35	3408.8
962.7675	2348.8767	4292.55	3399.35
962.8989	2350.2943	4288.2	3396.45
963.0303	2351.7113	4286.5	3391.2
963.1617	2353.1275	4256.35	3359.55
963.293	2354.543	4265.5	3347
963.4243	2355.9578	4238.25	3344.05
963.5556	2357.3718	4211	3320.7
963.6868	2358.7852	4206.3	3314.2
963.818	2360.1978	4198	3307.65
963.9492	2361.6098	4173.95	3282.45
964.0803	2363.021	4188.25	3292.75
964.2114	2364.4315	4171.2	3280.9
964.3425	2365.8413	4153	3259.55
964.4736	2367.2504	4148.5	3261.35
964.6046	2368.6587	4121	3233.4
964.7356	2370.0664	4121.5	3232.15
964.8666	2371.4733	4094.25	3204.2
964.9975	2372.8795	4094.85	3204.05
965.1284	2374.285	4088.3	3196.35
965.2593	2375.6899	4060.15	3171.05
965.3901	2377.0939	4053.1	3163.7
965.5209	2378.4973	4040	3149.3
965.6517	2379.9	4013.7	3124.25
965.7825	2381.3019	4006.15	3115.4
965.9132	2382.7032	4015	3126.6
966.0439	2384.1037	3999	3111
966.1745	2385.5035	3980.6	3092.35
966.3051	2386.9027	3963.2	3076.25
966.4357	2388.3011	3971.35	3080.75
966.5663	2389.6987	3963.7	3073.25
966.6968	2391.0957	3938.65	3048.35
966.8273	2392.492	3924.2	3036.95
966.9578	2393.8876	3903.85	3016.35
967.0882	2395.2824	3905.6	3016.6
967.2186	2396.6765	3905.75	3016.15
967.349	2398.07	3876.5	2985.85
967.4793	2399.4627	3868.6	2973.15
967.6097	2400.8547	3867.2	2974.45
967.7399	2402.246	3843.25	2944.65
967.8702	2403.6366	3834.1	2942.55
968.0004	2405.0265	3829.95	2940.85
968.1306	2406.4156	3815.5	2922.15
968.2607	2407.8041	3801.2	2908.75
968.3909	2409.1918	3798.05	2905.45
968.521	2410.5789	3766.25	2875.9
968.651	2411.9652	3760.5	2866.5
968.781	2413.3508	3754.5	2862.4
968.911	2414.7358	3745.85	2855.15
969.041	2416.12	3743.65	2853.1
969.1709	2417.5035	3735.55	2845.9
969.3008	2418.8863	3720.5	2828.9
969.4307	2420.2684	3709.55	2818.85
969.5606	2421.6497	3693.95	2804.25
969.6904	2423.0304	3681.3	2791.3
969.8201	2424.4104	3663.1	2771.75
969.9499	2425.7896	3670.9	2778
970.0796	2427.1682	3659.95	2771
970.2093	2428.546	3637.5	2747.2
970.3389	2429.9232	3650.1	2757.35
970.4685	2431.2996	3621	2729.9
970.5981	2432.6753	3627.3	2734.85
970.7277	2434.0503	3608.4	2716.45
970.8572	2435.4246	3594.65	2703.75
970.9867	2436.7982	3595.4	2702.8
971.1161	2438.1711	3579.95	2688.8
971.2456	2439.5433	3583.7	2692.35
971.375	2440.9148	3569.85	2673.65
971.5043	2442.2856	3539.15	2649.65
971.6336	2443.6557	3537.25	2646.1
971.7629	2445.025	3516.15	2626.5
971.8922	2446.3937	3525.65	2634.1
972.0214	2447.7617	3521.25	2629.2
972.1506	2449.1289	3510.2	2619
972.2798	2450.4955	3507.25	2612.25
972.4089	2451.8613	3483.1	2593.55
972.538	2453.2265	3477.2	2587.4
972.6671	2454.5909	3463.85	2573.3
972.7961	2455.9546	3469.75	2577.35
972.9251	2457.3177	3448.15	2557.2
973.0541	2458.68	3446.65	2558.05
973.1831	2460.0416	3438	2544.2
973.312	2461.4025	3444.55	2552.2
973.4408	2462.7627	3438.65	2537.3
973.5697	2464.1222	3416.5	2528.4
973.6985	2465.4811	3406.05	2517.85
973.8273	2466.8392	3401.1	2510.85
973.956	2468.1966	3408.65	2518.1
974.0847	2469.5533	3397.25	2504.25
974.2134	2470.9093	3386.7	2495.3
974.3421	2472.2645	3383	2493.2
974.4707	2473.6191	3379.05	2489.75
974.5993	2474.973	3366.6	2474.3
974.7278	2476.3262	3346.1	2453.05
974.8563	2477.6787	3350.95	2462.5
974.9848	2479.0305	3332.95	2443.35
975.1132	2480.3816	3326.55	2435.25
975.2417	2481.7319	3314.75	2427.15
975.37	2483.0816	3301.6	2407.5
975.4984	2484.4306	3286.5	2396.9
975.6267	2485.7789	3296.65	2406.85
975.755	2487.1264	3280.3	2388.2
975.8833	2488.4733	3271.55	2385
976.0115	2489.8195	3274.2	2367.05
976.1397	2491.165	3241.6	2348.9
976.2678	2492.5097	3252.3	2361.15
976.3959	2493.8538	3233.75	2343.45
976.524	2495.1972	3228.6	2336.9
976.6521	2496.5398	3214.3	2321.85
976.7801	2497.8818	3212.35	2319.45
976.9081	2499.2231	3203	2312.05
977.036	2500.5637	3186.15	2291.05
977.164	2501.9035	3191.65	2297.4
977.2918	2503.2427	3168.75	2274.3
977.4197	2504.5812	3173.05	2281.4
977.5475	2505.919	3154.45	2262.35
977.6753	2507.256	3149.35	2257.75
977.8031	2508.5924	3134.15	2244.3
977.9308	2509.9281	3141.1	2246
978.0585	2511.2631	3123.65	2235.05
978.1861	2512.5974	3126.1	2238.55
978.3137	2513.9309	3112.7	2222.3
978.4413	2515.2638	3115.45	2197.15
978.5689	2516.596	3104.9	2213.4
978.6964	2517.9275	3090.7	2199.85
978.8239	2519.2583	3091.05	2198.3
978.9513	2520.5884	3051.85	2161
979.0788	2521.9178	3055.65	2165.5
979.2062	2523.2465	3062.6	2174.1
979.3335	2524.5745	3038.15	2151
979.4608	2525.9018	3037.7	2147.2
979.5881	2527.2284	3031.85	2142.5
979.7154	2528.5543	3018.5	2126.65
979.8426	2529.8796	3014.05	2123.45
979.9698	2531.2041	2999.4	2108.6
980.0969	2532.5279	3002.4	2115.65
980.224	2533.851	3003.95	2114.7
980.3511	2535.1735	2997.5	2107.7
980.4781	2536.4952	2989.5	2099.4
980.6052	2537.8163	2982.65	2090.1
980.7321	2539.1366	2987.35	2095.55
980.8591	2540.4562	2977	2086.95
980.986	2541.7752	2971.25	2079.7
981.1129	2543.0935	2956.05	2062.8
981.2397	2544.411	2950.6	2058.3
981.3665	2545.7279	2953.65	2065.2
981.4933	2547.0441	2955.85	2065.4
981.62	2548.3596	2954.2	2058.6
981.7467	2549.6744	2946.3	2057.05
981.8734	2550.9885	2936.25	2043.85
982.0001	2552.3019	2928.25	2036.25
982.1267	2553.6146	2920.65	2029.85
982.2532	2554.9266	2919.5	2030.4
982.3798	2556.2379	2904.95	2014.75
982.5063	2557.5485	2908.45	2019.55
982.6327	2558.8585	2909.95	2012.2
982.7592	2560.1677	2896.6	2001.15
982.8856	2561.4762	2894.2	2003.35
983.0119	2562.7841	2893	2000.25
983.1383	2564.0913	2888.05	1999.5
983.2646	2565.3977	2883.75	1992.35
983.3908	2566.7035	2865.8	1974.1
983.517	2568.0086	2870.8	1977.8
983.6432	2569.313	2848.35	1955.6
983.7694	2570.6167	2866	1972.3
983.8955	2571.9197	2856.7	1965.8
984.0216	2573.222	2857.3	1962.35
984.1476	2574.5236	2846.4	1955.4
984.2737	2575.8246	2846.4	1953.4
984.3996	2577.1248	2835.05	1940.4
984.5256	2578.4244	2818.65	1927.9
984.6515	2579.7232	2828.65	1938.55
984.7774	2581.0214	2849.2	1930.15
984.9032	2582.3189	2813.15	1924.05
985.029	2583.6157	2817.05	1921.45
985.1548	2584.9118	2794.6	1902.35
985.2806	2586.2072	2801.85	1912.9
985.4063	2587.5019	2787.15	1895.6
985.5319	2588.7959	2792.05	1900.3
985.6576	2590.0893	2797.1	1903.75
985.7832	2591.3819	2778.05	1886.75
985.9087	2592.6739	2778.4	1890.15
986.0343	2593.9652	2760.7	1868.8
986.1597	2595.2557	2774.5	1883.5
986.2852	2596.5456	2764.05	1872.7
986.4106	2597.8348	2748	1858.45
986.536	2599.1234	2748.7	1858.4
986.6614	2600.4112	2735.45	1844.15
986.7867	2601.6983	2730.75	1836.4
986.912	2602.9848	2733.15	1844
987.0372	2604.2705	2714.3	1817.05
987.1624	2605.5556	2701.7	1810.1
987.2876	2606.84	2699.45	1811.85
987.4128	2608.1237	2700	1806.85
987.5379	2609.4067	2689.6	1799.75
987.6629	2610.689	2685.1	1786.45
987.788	2611.9707	2687.3	1794.7
987.913	2613.2516	2676.25	1783.3
988.0379	2614.5319	2660.9	1770.95
988.1629	2615.8115	2649.75	1760.25
988.2878	2617.0903	2635.4	1744.95
988.4126	2618.3685	2632.55	1745.25
988.5375	2619.6461	2618.6	1727.95
988.6622	2620.9229	2628.8	1738.1
988.787	2622.199	2615.4	1726.15
988.9117	2623.4745	2620.9	1730.65
989.0364	2624.7493	2615.25	1727.75
989.161	2626.0234	2592.7	1703.5
989.2857	2627.2968	2616.05	1723.2
989.4102	2628.5695	2603.5	1712.55
989.5348	2629.8415	2582.55	1692.7
989.6593	2631.1128	2580.3	1688.3
989.7837	2632.3835	2571.95	1682.5
989.9082	2633.6535	2557.2	1667.65
990.0326	2634.9228	2562.2	1673.4
990.1569	2636.1914	2547.05	1656.7
990.2812	2637.4593	2546.6	1656.9
990.4055	2638.7265	2536.15	1645.85
990.5298	2639.9931	2534.55	1645.05
990.654	2641.259	2535.05	1644.05
990.7782	2642.5242	2521.9	1632.15
990.9023	2643.7887	2527.1	1637.85
991.0264	2645.0525	2517.2	1625.5
991.1505	2646.3156	2517.6	1612.9
991.2745	2647.5781	2493.95	1604
991.3985	2648.8398	2489.8	1601.55
991.5225	2650.1009	2515	1598.95
991.6464	2651.3613	2482.85	1593.4
991.7703	2652.6211	2487.1	1597.5
991.8942	2653.8801	2472.95	1585
992.018	2655.1385	2473.05	1579.7
992.1418	2656.3961	2467.15	1578.3
992.2655	2657.6531	2458.55	1571.2
992.3892	2658.9094	2458.9	1569.2
992.5129	2660.1651	2456.25	1568.55
992.6366	2661.42	2444.8	1554.65
992.7602	2662.6743	2448	1559.75
992.8837	2663.9279	2441.45	1554.3
993.0073	2665.1808	2432.55	1543.55
993.1307	2666.433	2434.85	1545.55
993.2542	2667.6846	2425.9	1539.7
993.3776	2668.9354	2443.15	1551.6
993.501	2670.1856	2425.85	1534.7
993.6244	2671.4351	2425.6	1536.65
993.7477	2672.6839	2418.55	1527.7
993.8709	2673.9321	2410.25	1523.1
993.9942	2675.1795	2411.1	1521.35
994.1174	2676.4263	2409.3	1519.75
994.2405	2677.6724	2407.15	1518.55
994.3637	2678.9179	2394.95	1506.1
994.4868	2680.1626	2397.7	1510.6
994.6098	2681.4067	2403.25	1515.3
994.7328	2682.6501	2390.4	1502.05
994.8558	2683.8928	2385.05	1496.6
994.9788	2685.1348	2387.2	1498.8
995.1017	2686.3761	2362.25	1477.2
995.2245	2687.6168	2357.75	1469.5
995.3474	2688.8568	2360.7	1471.95
995.4702	2690.0961	2346.35	1458
995.5929	2691.3348	2337.6	1448.65
995.7156	2692.5727	2348.8	1458.5
995.8383	2693.81	2337.7	1447.85
995.961	2695.0466	2338.65	1450.95
996.0836	2696.2826	2326.65	1435.5
996.2062	2697.5178	2324	1431.4
996.3287	2698.7524	2309.2	1420.3
996.4512	2699.9863	2322.65	1433.65
996.5737	2701.2195	2310.1	1423.85
996.6961	2702.452	2312.1	1422.65
996.8185	2703.6839	2316.3	1426.15
996.9408	2704.9151	2308.05	1420.4
997.0631	2706.1456	2303	1413.15
997.1854	2707.3755	2302.95	1414.65
997.3077	2708.6046	2311.3	1421.2
997.4299	2709.8331	2313.15	1424.95
997.552	2711.0609	2308.85	1420.3
997.6742	2712.2881	2307.45	1417.4
997.7963	2713.5145	2298.35	1408.95
997.9183	2714.7403	2301.5	1415.75
998.0403	2715.9654	2307.2	1419.3
998.1623	2717.1899	2315.4	1412.05
998.2842	2718.4136	2303.75	1415.6
998.4062	2719.6367	2313.95	1425.8
998.528	2720.8591	2318.6	1426.35
998.6498	2722.0809	2311.55	1422.2
998.7716	2723.3019	2319.8	1429.15
998.8934	2724.5223	2311.65	1421.3
999.0151	2725.7421	2323.5	1434.7
999.1368	2726.9611	2310.8	1420.05
999.2584	2728.1795	2302.9	1409.2
999.38	2729.3972	2296.45	1409.3
999.5016	2730.6142	2296.9	1404.9
999.6231	2731.8306	2281.35	1391.1
999.7446	2733.0462	2263.4	1374
999.8661	2734.2612	2256.4	1360.55
999.9875	2735.4756	2244.7	1355.35
1000.1089	2736.6892	2228.25	1340.9
1000.2302	2737.9022	2199.1	1312.05
1000.3515	2739.1145	2191.8	1304.9
1000.4728	2740.3262	2188.3	1292.1
1000.594	2741.5372	2183.5	1295.7
1000.7152	2742.7475	2160.75	1271.45
1000.8363	2743.9571	2156.65	1267.05
1000.9575	2745.1661	2147.75	1255.45
1001.0785	2746.3744	2143.25	1252.9
1001.1996	2747.582	2128.65	1240.25
1001.3206	2748.7889	2127.45	1237.75
1001.4415	2749.9952	2114.4	1228.35
1001.5625	2751.2008	2102.1	1212.9
1001.6833	2752.4057	2103.5	1212.15
1001.8042	2753.61	2096.8	1206.85
1001.925	2754.8136	2096.1	1208.05
1002.0458	2756.0165	2082.2	1194.85
1002.1665	2757.2188	2085.25	1198.4
1002.2872	2758.4204	2079.65	1192.4
1002.4078	2759.6213	2076.8	1186.8
1002.5285	2760.8215	2077.05	1186
1002.649	2762.0211	2073.35	1182.2
1002.7696	2763.22	2062.2	1170.8
1002.8901	2764.4182	2068.1	1178.95
1003.0106	2765.6158	2047.4	1159.85
1003.131	2766.8127	2040.5	1152.1
1003.2514	2768.009	2037.2	1148.2
1003.3717	2769.2045	2040.9	1152.1
1003.492	2770.3994	2040	1150.55
1003.6123	2771.5936	2045.05	1157.15
1003.7325	2772.7872	2017.45	1133.35
1003.8527	2773.9801	2013.45	1123.05
1003.9729	2775.1723	2035.25	1130.1
1004.093	2776.3639	2003.15	1118.1
1004.2131	2777.5548	2002.95	1115.15
1004.3331	2778.745	1998.05	1110.95
1004.4531	2779.9346	1996.45	1109.85
1004.5731	2781.1235	2005.6	1117
1004.693	2782.3117	1999.55	1112.7
1004.8129	2783.4992	1987.5	1102.15
1004.9328	2784.6861	1994.1	1109.1
1005.0526	2785.8723	1982.05	1094.5
1005.1723	2787.0579	1984.25	1095.65
1005.2921	2788.2428	1984.1	1097.75
1005.4118	2789.427	1990.2	1104.25
1005.5314	2790.6106	1983.15	1097.5
1005.651	2791.7935	1981.75	1095.5
1005.7706	2792.9757	1981.05	1093.8
1005.8902	2794.1573	1982.9	1093.85
1006.0097	2795.3382	1988.55	1101.45
1006.1291	2796.5184	1992.25	1106.4
1006.2485	2797.698	1991.7	1102.25
1006.3679	2798.8769	1998.75	1110.55
1006.4873	2800.0551	1998.4	1109.25
1006.6066	2801.2327	2011.45	1123.05
1006.7258	2802.4096	2014.7	1127.9
1006.8451	2803.5859	2015.05	1128.3
1006.9642	2804.7615	2020.35	1134.35
1007.0834	2805.9364	2029.85	1143.45
1007.2025	2807.1106	2045.2	1161.15
1007.3216	2808.2842	2051.45	1164.55
1007.4406	2809.4572	2066.7	1180.9
1007.5596	2810.6294	2078.95	1190.8
1007.6785	2811.801	2100.1	1213.25
1007.7975	2812.972	2118.35	1232.35
1007.9163	2814.1423	2146.75	1262
1008.0352	2815.3119	2169.4	1282.45
1008.154	2816.4808	2197.6	1310.2
1008.2727	2817.6491	2216.1	1331.35
1008.3914	2818.8167	2252.85	1368.95
1008.5101	2819.9837	2282.35	1391.3
1008.6288	2821.15	2313.95	1426.5
1008.7474	2822.3157	2343.7	1454.95
1008.8659	2823.4807	2384.05	1498.7
1008.9844	2824.645	2412.45	1523.8
1009.1029	2825.8086	2441.4	1556.6
1009.2214	2826.9716	2487.35	1602.75
1009.3398	2828.134	2510.85	1626.65
1009.4581	2829.2957	2548	1661.85
1009.5764	2830.4567	2564.5	1680
1009.6947	2831.617	2567.75	1681.6
1009.813	2832.7767	2566.6	1680.9
1009.9312	2833.9358	2583.1	1698.75
1010.0493	2835.0941	2570.55	1683.8
1010.1675	2836.2519	2555.25	1670.25
1010.2855	2837.4089	2539.35	1653.75
1010.4036	2838.5653	2538.35	1654.45
1010.5216	2839.7211	2525.05	1640
1010.6396	2840.8761	2527.5	1638.55
1010.7575	2842.0306	2520.35	1635.7
1010.8754	2843.1843	2532.15	1646.25
1010.9932	2844.3374	2549.1	1663.85
1011.111	2845.4899	2572.05	1686.1
1011.2288	2846.6417	2604	1720
1011.3465	2847.7928	2648.35	1762.5
1011.4642	2848.9433	2670.85	1785.95
1011.5818	2850.0931	2709.3	1822.95
1011.6995	2851.2422	2737.4	1848.55
1011.817	2852.3907	2775.05	1887.85
1011.9345	2853.5385	2821.25	1935.3
1012.052	2854.6857	2845.9	1952.55
1012.1695	2855.8323	2876.1	1988.2
1012.2869	2856.9781	2900.85	2017.2
1012.4042	2858.1233	2924.75	2039.8
1012.5216	2859.2679	2946.45	2062
1012.6389	2860.4118	2998.25	2113
1012.7561	2861.555	3023.05	2132.3
1012.8733	2862.6976	3041.55	2156.05
1012.9905	2863.8395	3063.95	2180.4
1013.1076	2864.9808	3076.85	2192.45
1013.2247	2866.1214	3094.1	2209.1
1013.3417	2867.2614	3108.95	2221.15
1013.4587	2868.4007	3105.45	2218.45
1013.5757	2869.5393	3116.7	2227.05
1013.6926	2870.6773	3116.6	2228.7
1013.8095	2871.8146	3115	2226.25
1013.9263	2872.9513	3118.9	2230.85
1014.0431	2874.0874	3114.4	2229.65
1014.1599	2875.2227	3104.2	2219.3
1014.2766	2876.3574	3085.7	2201.05
1014.3933	2877.4915	3067.85	2183.3
1014.51	2878.6249	3041.9	2156.25
1014.6266	2879.7577	3028.4	2140.2
1014.7431	2880.8898	3013.2	2118.5
1014.8596	2882.0212	3006.95	2121.45
1014.9761	2883.152	3000	2112.15
1015.0925	2884.2821	2985.45	2101.6
1015.2089	2885.4116	2982.15	2098.05
1015.3253	2886.5405	2981.3	2096.35
1015.4416	2887.6686	2970.25	2082.15
1015.5579	2888.7962	2979.1	2095.5
1015.6741	2889.923	2991.55	2105.55
1015.7903	2891.0493	2991.35	2108.35
1015.9065	2892.1748	2987	2102.85
1016.0226	2893.2997	2983.25	2097.95
1016.1387	2894.424	2999.8	2115.3
1016.2547	2895.5476	3004.3	2119.25
1016.3707	2896.6706	3019.8	2136.65
1016.4866	2897.7929	3033.95	2149.45
1016.6025	2898.9145	3052.1	2165.05
1016.7184	2900.0355	3048.9	2164.05
1016.8342	2901.1559	3079.45	2192.55
1016.95	2902.2756	3090.45	2205.95
1017.0658	2903.3946	3101.3	2215.9
1017.1815	2904.513	3124.1	2236.25
1017.2971	2905.6308	3128.05	2243.45
1017.4127	2906.7479	3138.8	2254.1
1017.5283	2907.8643	3148.65	2264.1
1017.6439	2908.9801	3165.45	2279.55
1017.7594	2910.0953	3158.15	2274.4
1017.8748	2911.2098	3156.35	2267.35
1017.9902	2912.3236	3147.95	2254.75
1018.1056	2913.4368	3136.65	2248.45
1018.2209	2914.5494	3122.45	2236.8
1018.3362	2915.6613	3121.15	2229.6
1018.4515	2916.7725	3093.25	2206.55
1018.5667	2917.8831	3072.7	2187.9
1018.6819	2918.9931	3035	2147.75
1018.797	2920.1024	3019.55	2135.4
1018.9121	2921.211	3009.5	2125.05
1019.0271	2922.319	2994.5	2108.35
1019.1421	2923.4264	2980.15	2095.6
1019.2571	2924.5331	2979.75	2096.55
1019.372	2925.6391	2966.75	2082.35
1019.4869	2926.7445	2973.35	2089.75
1019.6017	2927.8493	2966.75	2083.15
1019.7165	2928.9534	2956.15	2072.55
1019.8313	2930.0569	2968.35	2080.4
1019.946	2931.1597	2973.2	2087.4
1020.0606	2932.2619	2964.05	2080.1
1020.1753	2933.3634	2970.85	2086.65
1020.2899	2934.4643	2967.7	2075.55
1020.4044	2935.5645	2959.95	2068.6
1020.5189	2936.6641	2932.4	2044.35
1020.6334	2937.763	2925.7	2042.85
1020.7478	2938.8613	2908.2	2023.35
1020.8622	2939.959	2887.45	1998.35
1020.9765	2941.056	2835.95	1953.3
1021.0908	2942.1523	2789.7	1903.5
1021.2051	2943.248	2734.4	1849.3
1021.3193	2944.3431	2688.15	1801.85
1021.4334	2945.4375	2615.85	1732.15
1021.5476	2946.5313	2555.7	1672.15
1021.6617	2947.6244	2496.55	1612.05
1021.7757	2948.7169	2427.8	1540.85
1021.8897	2949.8087	2369.15	1486.4
1022.0037	2950.8999	2316.15	1433.65
1022.1176	2951.9904	2267.15	1382.8
1022.2315	2953.0803	2212.6	1327
1022.3453	2954.1696	2179.35	1294.25
1022.4591	2955.2582	2137.15	1252.45
1022.5728	2956.3462	2112.25	1228.25
1022.6865	2957.4335	2079.95	1195.15
1022.8002	2958.5202	2067.05	1180.55
1022.9138	2959.6062	2046.65	1163.95
1023.0274	2960.6916	2019.45	1138.25
1023.141	2961.7764	2004.15	1118.25
1023.2545	2962.8605	2003	1117.8
1023.3679	2963.9439	1992.15	1108.3
1023.4813	2965.0267	1986	1100.9
1023.5947	2966.1089	1992.35	1085.25
1023.708	2967.1905	1974.2	1090.65
1023.8213	2968.2714	1969.3	1087.7
1023.9346	2969.3516	1956.6	1072.45
1024.0478	2970.4312	1963.5	1073.15
1024.1609	2971.5102	1961.25	1076.15
1024.274	2972.5885	1963.75	1080.6
1024.3871	2973.6662	1962	1074.1
1024.5002	2974.7432	1960.45	1076.6
1024.6132	2975.8196	1954.05	1069.95
1024.7261	2976.8954	1947.5	1066
1024.839	2977.9705	1942.2	1059.05
1024.9519	2979.045	1939.2	1056.85
1025.0647	2980.1188	1923.9	1039.9
1025.1775	2981.192	1916.45	1034.3
1025.2902	2982.2645	1902.4	1016.7
1025.4029	2983.3364	1881.05	997.55
1025.5156	2984.4077	1866.8	982.9
1025.6282	2985.4783	1854.6	965.55
1025.7407	2986.5483	1824.95	942.05
1025.8532	2987.6177	1814.4	932.45
1025.9657	2988.6864	1794.65	910.8
1026.0782	2989.7545	1760.15	875.15
1026.1906	2990.8219	1740.2	856.5
1026.3029	2991.8887	1721.35	834.85
1026.4152	2992.9548	1704.6	820.25
1026.5275	2994.0204	1670.1	786.25
1026.6397	2995.0852	1658.1	776.55
1026.7519	2996.1495	1638.8	752.75
1026.864	2997.2131	1619.15	735.6
1026.9761	2998.276	1606.15	722.9
1027.0882	2999.3383	1585.15	701.85
1027.2002	3000.4	1570.75	686.6
1027.3122	3001.4611	1560.4	677
1027.4241	3002.5215	1548.45	663.3
1027.536	3003.5812	1546.85	664.55
1027.6478	3004.6404	1523.15	638.2
1027.7596	3005.6989	1508.8	623
1027.8714	3006.7567	1512.55	627.95
1027.9831	3007.8139	1512.35	606.85
1028.0947	3008.8705	1492.5	608.65
1028.2064	3009.9264	1502.8	603.15
1028.3179	3010.9818	1490	606.7
1028.4295	3012.0364	1475	590.6
1028.541	3013.0905	1475.35	592.75
1028.6524	3014.1439	1457.6	574.5
1028.7638	3015.1966	1465.75	582.55
1028.8752	3016.2487	1453.5	569.05
1028.9865	3017.3002	1457.45	571.35
1029.0978	3018.3511	1454.15	571.75
1029.209	3019.4013	1449.25	567.2
1029.3202	3020.4509	1443	558.65
1029.4314	3021.4998	1443.45	559.85
1029.5425	3022.5481	1439.55	555.55
1029.6535	3023.5958	1438.9	555.55
1029.7645	3024.6428	1435.65	552.85
1029.8755	3025.6892	1432.1	551.35
1029.9864	3026.735	1429.3	545.05
1030.0973	3027.7802	1427.1	543.95
1030.2082	3028.8247	1426.05	542.15
1030.319	3029.8685	1432.6	548.3
1030.4297	3030.9118	1420.55	537.4
1030.5404	3031.9544	1426.45	542.9
1030.6511	3032.9963	1426.05	544.2
1030.7617	3034.0376	1422.75	540.2
1030.8723	3035.0783	1429.1	542.8
1030.9829	3036.1184	1433.95	550.6
1031.0934	3037.1578	1428.1	545.35
1031.2038	3038.1966	1432.9	549.85
1031.3142	3039.2348	1425.85	544.9
1031.4246	3040.2723	1441.1	548.55
1031.5349	3041.3092	1425.6	543.5
1031.6452	3042.3455	1421.95	537.55
1031.7554	3043.3811	1408.25	524.2
1031.8656	3044.4161	1416.8	533.05
1031.9758	3045.4505	1409.65	527.5
1032.0859	3046.4842	1421.55	537.2
1032.1959	3047.5173	1410.1	528.2
1032.3059	3048.5498	1411.55	528
1032.4159	3049.5816	1402.15	516.25
1032.5258	3050.6128	1404.6	519.1
1032.6357	3051.6434	1397.65	512.8
1032.7455	3052.6734	1402.15	516.9
1032.8553	3053.7027	1393.95	509.35
1032.9651	3054.7314	1387.55	504.35
1033.0748	3055.7594	1387.15	502.95
1033.1845	3056.7868	1387.05	502
1033.2941	3057.8136	1382.55	498.7
1033.4037	3058.8398	1373.7	491.65
1033.5132	3059.8653	1378.95	494.25
1033.6227	3060.8902	1374.9	491.65
1033.7321	3061.9145	1367.85	485.95
1033.8415	3062.9381	1356.65	472.05
1033.9509	3063.9612	1380.5	481.05
1034.0602	3064.9835	1367.15	483.9
1034.1694	3066.0053	1359.9	475.15
1034.2787	3067.0264	1358.5	476.55
1034.3878	3068.0469	1354.6	469.2
1034.497	3069.0668	1346.2	461.55
1034.6061	3070.086	1349.2	465.65
1034.7151	3071.1046	1344.15	459.25
1034.8241	3072.1226	1338.9	453.8
1034.9331	3073.1399	1326.65	444.15
1035.042	3074.1567	1320.4	435.85
1035.1508	3075.1727	1317.75	431.85
1035.2597	3076.1882	1309.85	427.1
1035.3684	3077.203	1307.25	424
1035.4772	3078.2173	1307	421.9
1035.5859	3079.2308	1304.75	418.1
1035.6945	3080.2438	1295.3	409.55
1035.8031	3081.2561	1289.25	406.65
1035.9117	3082.2678	1285	402.15
1036.0202	3083.2789	1280	397.25
1036.1286	3084.2893	1272.8	390.4
1036.2371	3085.2991	1274.35	392.1
1036.3454	3086.3083	1270.1	380.65
1036.4538	3087.3169	1260.75	376.9
1036.562	3088.3248	1263.1	378.85
1036.6703	3089.3321	1260.4	374.85
1036.7785	3090.3388	1249.5	369
1036.8866	3091.3449	1247.75	365.3
1036.9948	3092.3503	1252.95	367.25
1037.1028	3093.3551	1239	358.25
1037.2108	3094.3593	1235.7	354.25
1037.3188	3095.3629	1232.1	350.6
1037.4267	3096.3658	1238.1	354.9
1037.5346	3097.3681	1231.5	348.65
1037.6425	3098.3698	1229.05	344.7
1037.7503	3099.3708	1228.7	340.7
1037.858	3100.3713	1219.3	337.3
1037.9657	3101.3711	1219.95	333.5
1038.0734	3102.3702	1355.6	330.35
1038.181	3103.3688	1217.25	332.6
1038.2886	3104.3667	1206.4	324.25
1038.3961	3105.364	1203.9	320.35
1038.5036	3106.3607	1204.3	319.85
1038.611	3107.3568	1200.6	315.45
1038.7184	3108.3522	1198	315.8
1038.8257	3109.347	1200.65	317.65
1038.933	3110.3412	1200.8	313.55
1039.0403	3111.3348	1196.85	314.25
1039.1475	3112.3277	1188.5	304.8
1039.2547	3113.32	1189.4	309.9
1039.3618	3114.3117	1188.1	304.5
1039.4689	3115.3028	1184.25	302.05
1039.5759	3116.2932	1186.7	301.85
1039.6829	3117.2831	1184.3	296.3
1039.7898	3118.2723	1181.35	298.8
1039.8967	3119.2608	1174.35	292.65
1040.0035	3120.2488	1168.5	285.25
1040.1103	3121.2361	1167.3	285.05
1040.2171	3122.2229	1164.25	279.5
1040.3238	3123.209	1170.45	286.95
1040.4305	3124.1944	1166.35	284.05
1040.5371	3125.1793	1170.5	288.2
1040.6437	3126.1635	1163.25	279.6
1040.7502	3127.1471	1160.7	277.55
1040.8567	3128.1301	1160.8	279.35
1040.9631	3129.1125	1157.7	274.4
1041.0695	3130.0942	1154.95	272
1041.1759	3131.0753	1164.6	273.65
1041.2822	3132.0558	1156.9	271.55
1041.3884	3133.0357	1149.4	266.05
1041.4946	3134.015	1154.1	269.45
1041.6008	3134.9936	1144.15	261.4
1041.7069	3135.9716	1170	266.35
1041.813	3136.949	1139.5	257.3
1041.919	3137.9258	1159.55	258.55
1042.025	3138.902	1146.2	258.3
1042.1309	3139.8775	1138.1	257.2
1042.2368	3140.8524	1135.35	253.65
1042.3427	3141.8267	1145.8	260.2
1042.4485	3142.8004	1137.6	255.45
1042.5542	3143.7735	1142.8	251.35
1042.6599	3144.7459	1137	252.4
1042.7656	3145.7178	1134.05	251.55
1042.8712	3146.689	1134	253.7
1042.9768	3147.6596	1135.15	251.8
1043.0823	3148.6295	1125.7	243.7
1043.1878	3149.5989	1124.25	241.9
1043.2932	3150.5676	1124.55	242.05
1043.3986	3151.5357	1118.05	235.45
1043.5039	3152.5032	1124.15	244.2
1043.6092	3153.4701	1120.85	238.2
1043.7145	3154.4364	1118.5	234.35
1043.8197	3155.402	1119.6	239.25
1043.9248	3156.367	1120.75	235.55
1044.03	3157.3315	1147.8	230.45
1044.135	3158.2952	1116.25	231.95
1044.24	3159.2584	1109.35	228.05
1044.345	3160.221	1108.75	225.2
1044.4499	3161.1829	1108.25	225.8
1044.5548	3162.1442	1104.6	222.15
1044.6596	3163.105	1107	224.4
1044.7644	3164.065	1103.25	219.15
1044.8692	3165.0245	1109.3	222.2
1044.9739	3165.9834	1097.4	216.85
1045.0785	3166.9416	1102.35	219.3
1045.1831	3167.8993	1102.05	220.05
1045.2877	3168.8563	1099.8	218.4
1045.3922	3169.8127	1098.8	216.85
1045.4966	3170.7684	1086.5	204.9
1045.6011	3171.7236	1095.35	212.4
1045.7054	3172.6782	1092.05	209.35
1045.8098	3173.6321	1093.4	211.5
1045.914	3174.5854	1096.35	207.35
1046.0183	3175.5381	1093.65	210.85
1046.1224	3176.4902	1090	209.9
1046.2266	3177.4417	1087.95	205.55
1046.3307	3178.3926	1086.3	206.35
1046.4347	3179.3428	1091.2	207.65
1046.5387	3180.2924	1089.6	208
1046.6427	3181.2415	1081.5	198.6
1046.7466	3182.1899	1087.75	202.05
1046.8504	3183.1377	1083.75	200.2
1046.9542	3184.0848	1082.65	197.45
1047.058	3185.0314	1073.85	189.6
1047.1617	3185.9773	1077.95	194.3
1047.2654	3186.9227	1076.75	193.8
1047.369	3187.8674	1076.75	193.75
1047.4726	3188.8115	1077.55	191.5
1047.5761	3189.755	1073.55	190.75
1047.6796	3190.6979	1073.75	190.25
1047.783	3191.6402	1065.95	185.05
1047.8864	3192.5818	1072.75	188.85
1047.9898	3193.5229	1075.9	187.6
1048.0931	3194.4633	1064.8	182.25
1048.1963	3195.4031	1070.35	186.6
1048.2995	3196.3423	1066.55	184.3
1048.4027	3197.2809	1068.4	185.75
1048.5058	3198.2189	1064.5	180.9
1048.6089	3199.1563	1071.4	180.9
1048.7119	3200.0931	1065.55	184.1
1048.8148	3201.0292	1060.05	178.55
1048.9178	3201.9648	1061.4	176.55
1049.0206	3202.8997	1058.6	174
1049.1235	3203.834	1063.6	182.75
1049.2262	3204.7677	1062.65	179.7
1049.329	3205.7008	1056.75	175.75
1049.4317	3206.6333	1056.15	174.55
1049.5343	3207.5652	1055.85	172.5
1049.6369	3208.4964	1058	175.1
1049.7394	3209.4271	1055.7	174.95
1049.8419	3210.3571	1054.15	173.4
1049.9444	3211.2865	1056.3	171.35
1050.0468	3212.2154	1048.6	165.7
1050.1491	3213.1436	1053.45	169.55
1050.2514	3214.0712	1060.1	171
1050.3537	3214.9982	1049.2	167.05
1050.4559	3215.9246	1047.25	162.3
1050.5581	3216.8503	1046.45	166.1
1050.6602	3217.7755	1047.1	163.6
1050.7623	3218.7001	1045.3	163.55
1050.8643	3219.624	1044.3	161.95
1050.9663	3220.5473	1044.65	164.05
1051.0682	3221.4701	1043.4	159.95
1051.1701	3222.3922	1043.7	160.3
1051.2719	3223.3137	1039.45	156.85
1051.3737	3224.2346	1039.2	157.55
1051.4754	3225.1549	1039.9	157.75
1051.5771	3226.0746	1036.5	155.8
1051.6788	3226.9937	1038.35	155.4
1051.7804	3227.9121	1034.15	153.35
1051.8819	3228.83	1033.65	152.45
1051.9834	3229.7473	1034.45	154.1
1052.0849	3230.6639	1033.35	150.25
1052.1863	3231.5799	1027.8	148.35
1052.2876	3232.4954	1033.8	151.4
1052.3889	3233.4102	1028.7	146.4
1052.4902	3234.3244	1030.7	149.05
1052.5914	3235.238	1031.05	150.5
1052.6926	3236.151	1053.75	146.5
1052.7937	3237.0634	1028.7	146.75
1052.8948	3237.9752	1025.1	143.25
1052.9958	3238.8864	1025.5	142.8
1053.0968	3239.797	1025.15	142.2
1053.1977	3240.7069	1024.4	142.75
1053.2986	3241.6163	1023.35	140.55
1053.3994	3242.5251	1021.8	139.9
1053.5002	3243.4332	1025.7	144.3
1053.6009	3244.3408	1023.65	140.8
1053.7016	3245.2477	1018.25	136.8
1053.8022	3246.154	1024	140.1
1053.9028	3247.0598	1021.15	138.85
1054.0034	3247.9649	1015.8	133.45
1054.1039	3248.8694	1015.8	134.65
1054.2043	3249.7733	1011.4	129.85
1054.3047	3250.6766	1014.3	130.7
1054.4051	3251.5793	1015.45	130.8
1054.5054	3252.4814	1011.05	130.1
1054.6056	3253.3829	1009.7	128
1054.7058	3254.2838	1011.15	129.7
1054.806	3255.1841	1012.3	130.6
1054.9061	3256.0838	1013.7	132.15
1055.0061	3256.9829	1008.9	127.95
1055.1062	3257.8814	1009.35	123.95
1055.2061	3258.7792	1006	123.5
1055.306	3259.6765	1003.5	120.5
1055.4059	3260.5731	1000.65	117.85
1055.5057	3261.4692	1004.85	121.7
1055.6055	3262.3647	996.5	112.3
1055.7052	3263.2595	996.45	116.35
1055.8049	3264.1538	994.3	110.6
1055.9045	3265.0474	994.25	111.9
1056.0041	3265.9404	989.85	106.9
1056.1036	3266.8329	990.4	108.7
1056.2031	3267.7247	997.55	106.6
1056.3025	3268.616	984.5	103.6
1056.4019	3269.5066	981.5	99.65
1056.5013	3270.3966	982.95	99.8
1056.6005	3271.286	979.75	99.8
