Software Version:	3.9.2.0
Unit SN:	10000200
Spectrometer SN:	6960
Date:	3/26/2024 2:46:44 PM
Data Line Index:	25
Spectral Points:	2048
Integration time (ms):	125
Averages:	20
Delay (ms):	30000
Sequence Number:	1
Processing:	dark subtract
Laser Power (mW):	305
Laser Current (mA):	821
Laser Diode Temp (C):	25
Laser Case Temp (C):	27.9
System Temp (C):	28
Spectrometer Temp (C):	25.9
CCD Temp (C):	0
Secondary Temp (C):	20.013
Heatsink Temp (C):	23.418
CCDPCB Temp (C):	37.296
SecondaryPCB Temp (C):	34.762

Wavelength	RamanShift	Raw Counts	Dark Subtracted
787.061	30.1047	628.85	220
787.2016	32.3739	639.55	231.05
787.3422	34.6426	655.6	247.3
787.4828	36.9109	673.2	262.45
787.6235	39.1787	695.8	278.85
787.7642	41.4461	720.45	297.9
787.9049	43.7131	741.2	316.05
788.0456	45.9796	768.15	342.25
788.1863	48.2456	789.55	358.05
788.3271	50.5112	822.55	386.9
788.4679	52.7764	842.75	407.05
788.6087	55.0411	869.85	429.95
788.7496	57.3054	903.55	457.7
788.8904	59.5692	927.6	478.35
789.0313	61.8326	967.7	513.05
789.1722	64.0955	1013.75	556.8
789.3132	66.3579	1055.8	593.65
789.4541	68.6199	1109.45	645.05
789.5951	70.8815	1199.75	733.6
789.7361	73.1426	1389.6	916.75
789.8771	75.4032	1887.6	1411
790.0181	77.6634	3108.2	2621.95
790.1592	79.9231	6208.25	5714.45
790.3003	82.1824	13280.5	12766.55
790.4414	84.4412	28936.05	28391.65
790.5825	86.6995	56088.2	55500.3
790.7237	88.9574	65446.15	64813
790.8648	91.2148	65535	64872.2
791.006	93.4717	65535	64852
791.1472	95.7282	65535	64842
791.2885	97.9842	65535	64838.65
791.4297	100.2398	65535	64832.5
791.571	102.4949	65535	64829.15
791.7123	104.7495	65535	64830.4
791.8536	107.0036	65535	64828.2
791.9949	109.2573	65535	64830.3
792.1363	111.5105	65535	64825.55
792.2777	113.7632	65535	64821.5
792.4191	116.0154	65535	64810.35
792.5605	118.2672	65535	64821.15
792.7019	120.5185	65535	64820.55
792.8434	122.7693	65535	64817.7
792.9849	125.0197	65535	64814.5
793.1264	127.2696	65535	64808.9
793.2679	129.519	65535	64804.6
793.4094	131.7679	65535	64806.65
793.551	134.0163	65535	64803.1
793.6926	136.2642	65535	64795.9
793.8342	138.5117	65535	64791.7
793.9758	140.7587	65535	64790.35
794.1175	143.0052	65535	64786.95
794.2591	145.2512	65535	64792.25
794.4008	147.4967	65535	64790.65
794.5425	149.7417	65535	64784.45
794.6842	151.9863	65535	64784.05
794.826	154.2304	65535	64779.55
794.9677	156.4739	65535	64775.6
795.1095	158.717	65535	64774.75
795.2513	160.9596	65535	64771.4
795.3931	163.2017	65535	64769.7
795.535	165.4433	65535	64766.65
795.6768	167.6844	65535	64766.4
795.8187	169.925	65535	64763.5
795.9606	172.1651	65535	64760.85
796.1025	174.4047	65535	64756.75
796.2445	176.6439	65535	64761.3
796.3864	178.8825	65535	64755.05
796.5284	181.1206	65535	64751.1
796.6704	183.3582	65535	64747.75
796.8124	185.5954	65535	64743.35
796.9544	187.832	65535	64744.15
797.0965	190.0681	65535	64736.55
797.2386	192.3037	65535	64734.75
797.3806	194.5388	65535	64732.15
797.5228	196.7734	65535	64729.75
797.6649	199.0075	65535	64724.8
797.807	201.2411	65535	64717.3
797.9492	203.4742	65535	64721.35
798.0914	205.7068	65535	64720.45
798.2336	207.9389	65535	64722.15
798.3758	210.1704	65535	64716.9
798.518	212.4015	65535	64715.75
798.6603	214.632	65535	64716.6
798.8025	216.862	65535	64723.15
798.9448	219.0915	65535	64729.85
799.0871	221.3205	65535	64732.15
799.2294	223.549	65535	64738.55
799.3718	225.777	65535	64738.3
799.5141	228.0044	65535	64735.3
799.6565	230.2314	65535	64740.25
799.7989	232.4578	65535	64740.5
799.9413	234.6837	65535	64733.25
800.0837	236.909	65535	64734.15
800.2262	239.1339	65535	64704.05
800.3687	241.3582	65535	64715.8
800.5111	243.582	65535	64690.55
800.6536	245.8053	65535	64704.05
800.7961	248.0281	65535	64703.9
800.9387	250.2503	65535	64701.2
801.0812	252.472	65535	64698.15
801.2238	254.6932	65535	64694.7
801.3664	256.9139	65535	64690.55
801.509	259.134	65535	64687.05
801.6516	261.3536	65535	64692.75
801.7942	263.5727	65535	64684.9
801.9369	265.7912	65535	64683.75
802.0795	268.0092	65535	64685.25
802.2222	270.2267	65535	64686.8
802.3649	272.4436	65535	64686.75
802.5076	274.6601	65535	64678
802.6504	276.8759	65535	64688.9
802.7931	279.0913	65535	64682.6
802.9359	281.3061	65535	64686.35
803.0787	283.5204	65535	64677.05
803.2215	285.7341	65535	64670.75
803.3643	287.9473	65535	64664.1
803.5071	290.16	65535	64670.4
803.6499	292.3721	65535	64674
803.7928	294.5837	65535	64671.25
803.9357	296.7947	65535	64673.75
804.0786	299.0052	65535	64674
804.2215	301.2152	65535	64673.35
804.3644	303.4246	65535	64680.3
804.5074	305.6334	65535	64675.75
804.6503	307.8418	65535	64670.55
804.7933	310.0495	65535	64675.45
804.9363	312.2568	65535	64673
805.0793	314.4635	65535	64668.35
805.2223	316.6696	65535	64667.35
805.3653	318.8752	65535	64657.7
805.5084	321.0802	65535	64667.5
805.6514	323.2847	65535	64662.55
805.7945	325.4887	65535	64661.05
805.9376	327.692	65535	64660.05
806.0807	329.8949	65535	64658.9
806.2238	332.0972	65535	64659.95
806.367	334.2989	65535	64656.55
806.5101	336.5001	65535	64657.35
806.6533	338.7007	65535	64651.9
806.7965	340.9008	65535	64655
806.9397	343.1003	65535	64651.05
807.0829	345.2992	65535	64656.3
807.2261	347.4976	65535	64651.95
807.3693	349.6955	65535	64646.95
807.5126	351.8927	65535	64645.05
807.6559	354.0895	65535	64635.1
807.7991	356.2856	65535	64644.9
807.9424	358.4812	65535	64646.25
808.0857	360.6763	65535	64648.95
808.2291	362.8707	65535	64645.2
808.3724	365.0646	65535	64639.25
808.5158	367.258	65535	64643.05
808.6591	369.4508	65535	64637.75
808.8025	371.643	65535	64639.3
808.9459	373.8346	65535	64637.85
809.0893	376.0257	65535	64633.8
809.2327	378.2162	65535	64631.9
809.3762	380.4062	65535	64633.95
809.5196	382.5956	65535	64631.8
809.6631	384.7844	65535	64637.2
809.8066	386.9726	65535	64631
809.9501	389.1603	65535	64631.9
810.0936	391.3474	65535	64597.15
810.2371	393.5339	65535	64630.45
810.3806	395.7199	65535	64643.3
810.5241	397.9052	65535	64641.85
810.6677	400.09	65535	64642.1
810.8113	402.2743	65535	64642.55
810.9548	404.4579	65535	64649.3
811.0984	406.641	65535	64646.35
811.2421	408.8235	65535	64647.05
811.3857	411.0054	65535	64644.15
811.5293	413.1868	65535	64640
811.673	415.3675	65535	64633.7
811.8166	417.5477	65535	64634.9
811.9603	419.7273	65535	64633.9
812.104	421.9064	65535	64623.4
812.2477	424.0848	65535	64634.05
812.3914	426.2627	65535	64632.45
812.5351	428.4399	65535	64631.5
812.6788	430.6166	65535	64625.95
812.8226	432.7928	65535	64622.8
812.9663	434.9683	65535	64633.6
813.1101	437.1432	65535	64630.4
813.2539	439.3176	65535	64631.15
813.3977	441.4914	65535	64634.05
813.5415	443.6645	65535	64631.5
813.6853	445.8371	65535	64626.45
813.8291	448.0091	65535	64627.85
813.973	450.1806	65535	64627.7
814.1168	452.3514	65535	64634.3
814.2607	454.5216	65535	64618.75
814.4046	456.6913	65535	64626.15
814.5485	458.8603	65535	64627.8
814.6924	461.0288	65535	64633.8
814.8363	463.1967	65535	64637
814.9802	465.3639	65535	64629.85
815.1241	467.5306	65535	64629.55
815.2681	469.6967	65535	64631.2
815.412	471.8622	65535	64632.8
815.556	474.0271	65535	64633.3
815.7	476.1914	65535	64622.25
815.844	478.3551	65535	64627.6
815.988	480.5182	65535	64627.6
816.132	482.6807	65535	64635.55
816.276	484.8426	65535	64642.2
816.4201	487.0039	65535	64636
816.5641	489.1647	65535	64627.85
816.7082	491.3248	65535	64623.9
816.8522	493.4843	65535	64628.05
816.9963	495.6432	65535	64630.55
817.1404	497.8015	65535	64619.65
817.2845	499.9592	65535	64618
817.4286	502.1163	65535	64616.95
817.5727	504.2728	65535	64625.2
817.7168	506.4287	65535	64635.25
817.861	508.5839	65535	64636.3
818.0051	510.7386	65535	64626.25
818.1493	512.8927	65535	64618.2
818.2935	515.0461	65535	64621.15
818.4377	517.199	65535	64620.5
818.5818	519.3512	65535	64617.95
818.726	521.5029	65535	64618.25
818.8703	523.6539	65535	64619.6
819.0145	525.8043	65535	64622.2
819.1587	527.9541	65535	64613.35
819.303	530.1033	65535	64619.25
819.4472	532.2519	65535	64618.65
819.5915	534.3999	65535	64618.25
819.7357	536.5472	65535	64619.25
819.88	538.694	65535	64625.6
820.0243	540.8401	65535	64620.45
820.1686	542.9856	65535	64607.9
820.3129	545.1305	65535	64605.45
820.4572	547.2748	65535	64596.2
820.6016	549.4185	65535	64601.1
820.7459	551.5615	65535	64604.65
820.8902	553.704	65535	64602.5
821.0346	555.8458	65535	64611.1
821.1789	557.987	65535	64610.75
821.3233	560.1276	65535	64609.55
821.4677	562.2675	65535	64604.55
821.6121	564.4069	65535	64603.95
821.7565	566.5456	65535	64609.15
821.9009	568.6837	65535	64610.75
822.0453	570.8212	65535	64614.4
822.1897	572.958	65535	64612.5
822.3342	575.0942	65535	64615.05
822.4786	577.2299	65535	64619.1
822.6231	579.3648	65535	64628.8
822.7675	581.4992	65535	64635.9
822.912	583.6329	65535	64639.3
823.0565	585.766	65535	64632.7
823.201	587.8985	65535	64627.1
823.3454	590.0304	65535	64609.1
823.4899	592.1616	65535	64609
823.6345	594.2922	65535	64609.55
823.779	596.4222	65535	64605.4
823.9235	598.5515	65535	64606.05
824.068	600.6802	65535	64608.95
824.2126	602.8083	65535	64611.75
824.3571	604.9358	65535	64608.8
824.5017	607.0626	65535	64607.95
824.6462	609.1888	65535	64600.95
824.7908	611.3144	65535	64596.4
824.9354	613.4393	65535	64602.55
825.08	615.5636	65535	64604.15
825.2246	617.6873	65535	64603.7
825.3692	619.8103	65534.5	64602.3
825.5138	621.9327	65535	64604.8
825.6584	624.0544	65535	64606.35
825.803	626.1756	65535	64611.2
825.9477	628.2961	65535	64602.85
826.0923	630.4159	65535	64602
826.237	632.5351	65532.5	64598.25
826.3816	634.6537	65535	64597.55
826.5263	636.7716	65529.6	64592.9
826.6709	638.8889	65535	64597.85
826.8156	641.0056	65535	64593.05
826.9603	643.1216	65535	64596.95
827.105	645.237	65535	64596.6
827.2497	647.3518	65529	64602.35
827.3944	649.4659	65535	64611.1
827.5391	651.5793	65535	64609.65
827.6838	653.6922	65535	64608.25
827.8285	655.8043	65521.4	64590.8
827.9733	657.9159	65535	64600.4
828.118	660.0268	65478.95	64548.2
828.2627	662.137	65530.7	64596.4
828.4075	664.2466	65531.65	64594.25
828.5522	666.3556	65522.6	64591.25
828.697	668.4639	65529.9	64594.85
828.8418	670.5716	65512.2	64586.2
828.9865	672.6786	65527.65	64591.2
829.1313	674.785	65517.5	64581.2
829.2761	676.8907	65519.7	64588.95
829.4209	678.9958	65527.65	64598.95
829.5657	681.1002	65524.85	64589.8
829.7105	683.204	65504.25	64560.95
829.8553	685.3072	65473.3	64535.65
830.0001	687.4097	65504.45	64565.9
830.1449	689.5115	65463.35	64523.95
830.2898	691.6127	65511.3	64580.95
830.4346	693.7132	65449.5	64515.3
830.5794	695.8131	65454.3	64496.7
830.7243	697.9123	65471.35	64528.45
830.8691	700.0109	65467.7	64527.75
831.014	702.1089	65399.35	64459.55
831.1588	704.2061	65421.7	64480.35
831.3037	706.3028	65436.65	64495.9
831.4486	708.3987	65459.05	64517.1
831.5935	710.4941	65418.8	64479.4
831.7383	712.5887	65466.1	64526.15
831.8832	714.6827	65440.95	64501.6
832.0281	716.7761	65491	64556.05
832.173	718.8688	65518.55	64579.65
832.3179	720.9608	65479.8	64536.4
832.4628	723.0522	65475.45	64528.2
832.6077	725.1429	65422.45	64479.65
832.7527	727.233	65517.4	64576.8
832.8976	729.3224	65202.2	64264.3
833.0425	731.4112	65360.6	64421.35
833.1874	733.4993	65353.8	64413.35
833.3324	735.5867	65362.95	64422
833.4773	737.6735	65237.85	64293.8
833.6222	739.7596	65115.2	64172.2
833.7672	741.845	65087.5	64142.2
833.9122	743.9298	65305.15	64359.3
834.0571	746.014	65097.9	64158.2
834.2021	748.0974	64905.55	63958.2
834.347	750.1802	65251.7	64305.65
834.492	752.2624	64832.05	63884.95
834.637	754.3439	64889	63943
834.782	756.4247	65033.35	64079.25
834.9269	758.5048	64796.4	63848.2
835.0719	760.5843	64907.2	63961.05
835.2169	762.6631	65056	64108.2
835.3619	764.7413	64973.3	64029.8
835.5069	766.8188	65071.55	64124.95
835.6519	768.8956	65268.05	64321.35
835.7969	770.9718	65245.55	64301.6
835.9419	773.0473	65153.1	64210.55
836.0869	775.1221	64814.45	63867.05
836.232	777.1962	64782.8	63839.05
836.377	779.2697	64337.4	63387.5
836.522	781.3426	64660.55	63701.6
836.667	783.4147	64829.7	63879.95
836.8121	785.4862	64839.4	63895.1
836.9571	787.557	64423.25	63472.8
837.1021	789.6271	64774.5	63825.9
837.2472	791.6966	64308.95	63365.8
837.3922	793.7654	63763.15	62818.75
837.5373	795.8335	63739.25	62797.95
837.6823	797.901	63857.6	62913.7
837.8274	799.9678	63590.4	62639.75
837.9724	802.0339	63505.6	62555.85
838.1175	804.0993	63589.65	62632.3
838.2626	806.1641	63358.55	62410.9
838.4076	808.2282	63228	62282.95
838.5527	810.2916	63064.2	62114.25
838.6978	812.3544	63334.15	62389.2
838.8428	814.4164	62712.95	61768.25
838.9879	816.4778	62749.4	61797.2
839.133	818.5385	62793.2	61842.25
839.2781	820.5986	62699.7	61750.05
839.4232	822.658	62784.5	61832.7
839.5682	824.7166	62803.35	61856
839.7133	826.7747	62139.3	61192.1
839.8584	828.832	62409.9	61460.4
840.0035	830.8886	62816.35	61864.8
840.1486	832.9446	62826.25	61870.25
840.2937	834.9999	61778.65	60831.8
840.4388	837.0545	62351.85	61399.75
840.5839	839.1085	62731.4	61782
840.729	841.1618	62534.35	61582
840.8741	843.2143	61714.1	60764.15
841.0192	845.2662	61688.3	60739.1
841.1643	847.3175	61937.05	60988.75
841.3095	849.368	60844.5	59896.65
841.4546	851.4179	61620.95	60673
841.5997	853.467	60863.2	59916.3
841.7448	855.5155	61177.5	60231.65
841.8899	857.5633	60447.95	59500.5
842.0351	859.6105	60065.4	59113.5
842.1802	861.6569	60430.75	59480.1
842.3253	863.7027	59525.55	58572.85
842.4704	865.7478	59847.45	58899.75
842.6156	867.7922	59660.2	58712.85
842.7607	869.8359	60111.8	59160.4
842.9058	871.8789	59237.8	58285.4
843.0509	873.9212	59896.75	58914.8
843.1961	875.9629	59913.9	58961.15
843.3412	878.0039	59812.8	58863
843.4863	880.0441	59562.95	58616.3
843.6315	882.0837	59458.85	58509.85
843.7766	884.1226	59368.7	58420.1
843.9218	886.1609	59140.65	58192.3
844.0669	888.1984	58648.05	57701.4
844.212	890.2352	59155.25	58205.2
844.3572	892.2714	58271.7	57314.35
844.5023	894.3069	58551.3	57601
844.6475	896.3416	58210.15	57257.35
844.7926	898.3757	58060.25	57108.5
844.9377	900.4091	57247.6	56291.65
845.0829	902.4418	58141.7	57187.05
845.228	904.4739	57474.1	56520.6
845.3732	906.5052	57608.05	56657.95
845.5183	908.5358	57181.7	56227.5
845.6635	910.5658	56822.95	55869.6
845.8086	912.595	56713.15	55761.85
845.9538	914.6236	55959.5	55006.35
846.0989	916.6515	56888.65	55938.35
846.2441	918.6786	55678.9	54725.25
846.3892	920.7051	55961.2	55003.45
846.5344	922.7309	55945.05	54992.6
846.6795	924.756	56061.3	55110.9
846.8246	926.7804	55678.75	54727.6
846.9698	928.8041	55050.45	54100.95
847.1149	930.8272	55453.45	54501.2
847.2601	932.8495	55323.15	54372.15
847.4052	934.8711	54742.85	53790.4
847.5504	936.892	54406.3	53456.15
847.6955	938.9123	54238.6	53286.25
847.8407	940.9318	53840.5	52888.8
847.9858	942.9506	53595.25	52643.05
848.131	944.9688	53465.45	52517.55
848.2761	946.9862	52858.45	51906.75
848.4213	949.003	52874.5	51921.6
848.5664	951.019	52373.75	51420.9
848.7115	953.0344	52513.75	51560.95
848.8567	955.0491	52387.15	51434.25
849.0018	957.063	52538.9	51584.9
849.147	959.0763	52585.95	51627.45
849.2921	961.0888	52315.55	51360.05
849.4373	963.1007	52459.85	51511.6
849.5824	965.1119	52361.95	51419.75
849.7275	967.1223	52173.7	51234.15
849.8727	969.1321	52296.75	51355.2
850.0178	971.1412	51960.4	51019.85
850.1629	973.1495	51796.85	50848.35
850.3081	975.1572	51884.75	50905.75
850.4532	977.1641	51735.85	50782.25
850.5983	979.1704	51536	50582.15
850.7435	981.1759	51378.7	50424.1
850.8886	983.1808	51237.25	50286.25
851.0337	985.1849	51240.6	50276.4
851.1788	987.1884	51241.2	50286.6
851.324	989.1911	51537.45	50585.35
851.4691	991.1932	51252.75	50300.95
851.6142	993.1945	51257.75	50307.25
851.7593	995.1951	51079.35	50130.75
851.9045	997.1951	50817.2	49860.9
852.0496	999.1943	50524.05	49574.3
852.1947	1001.1928	50328.15	49377.55
852.3398	1003.1906	50127.35	49176.55
852.4849	1005.1877	49866.55	48915
852.63	1007.1841	49629.75	48679.75
852.7751	1009.1798	49324	48372
852.9202	1011.1748	48919.4	47970.05
853.0653	1013.1691	48681.8	47730.45
853.2104	1015.1627	48192.35	47246.4
853.3555	1017.1556	47757.5	46807.25
853.5006	1019.1477	47613.5	46667.35
853.6457	1021.1392	47220.05	46278.45
853.7908	1023.1299	46980.25	46040.15
853.9359	1025.12	46887.95	45954.85
854.081	1027.1093	46667.35	45739.6
854.2261	1029.0979	46641.6	45719.75
854.3712	1031.0859	46462.4	45535.4
854.5163	1033.0731	46216.8	45279.45
854.6613	1035.0596	46102.65	45160.3
854.8064	1037.0454	45651.05	44707.75
854.9515	1039.0304	45457.1	44509.15
855.0965	1041.0148	45157.35	44212.15
855.2416	1042.9985	44913.7	43965.55
855.3867	1044.9814	44889.5	43942.6
855.5317	1046.9636	44593.15	43648.5
855.6768	1048.9452	44377.4	43429.9
855.8219	1050.926	44321.6	43372.7
855.9669	1052.9061	44107.7	43160.45
856.112	1054.8855	43941.9	42995.5
856.257	1056.8642	43848	42902.05
856.4021	1058.8421	43878.85	42930.5
856.5471	1060.8194	43753.4	42807.7
856.6921	1062.7959	43601.8	42652.95
856.8372	1064.7717	43533.95	42587.2
856.9822	1066.7469	43455.95	42511.25
857.1272	1068.7213	43243.15	42293.7
857.2723	1070.695	43077.85	42131.3
857.4173	1072.6679	42741.65	41795.55
857.5623	1074.6402	42691.6	41746.1
857.7073	1076.6117	42548.55	41596
857.8523	1078.5826	42552.9	41606.25
857.9973	1080.5527	42448.65	41501.85
858.1423	1082.5221	42455.95	41509.5
858.2873	1084.4908	42545.2	41597.55
858.4323	1086.4587	42675.75	41726.8
858.5773	1088.426	42761.25	41811.3
858.7223	1090.3925	42543.3	41590.4
858.8673	1092.3584	42433	41485.95
859.0123	1094.3235	41990.7	41042.5
859.1573	1096.2879	41812.75	40865.6
859.3022	1098.2515	41611	40666.55
859.4472	1100.2145	41572.45	40627.25
859.5922	1102.1767	41434.85	40485.45
859.7371	1104.1382	41477.2	40528.65
859.8821	1106.099	41575.35	40629.5
860.027	1108.0591	41608.05	40664.05
860.172	1110.0185	41598.95	40646.3
860.3169	1111.9771	41642.65	40696.35
860.4619	1113.9351	41142	40196.7
860.6068	1115.8923	40657.1	39711.85
860.7517	1117.8488	40192	39247.25
860.8967	1119.8045	39709.1	38767.25
861.0416	1121.7596	39550.9	38605.15
861.1865	1123.7139	39350	38409.1
861.3314	1125.6675	39214.65	38270.9
861.4763	1127.6204	39254.75	38310.6
861.6212	1129.5726	39108.65	38160.25
861.7661	1131.524	39090.7	38145.1
861.911	1133.4748	39113.2	38169.25
862.0559	1135.4248	39010.35	38067.5
862.2008	1137.3741	38989.85	38045.95
862.3457	1139.3226	38803.3	37854.75
862.4905	1141.2705	38715.05	37768.1
862.6354	1143.2176	38426.25	37475.6
862.7803	1145.164	38424.3	37479.15
862.9251	1147.1097	38335.1	37392.55
863.07	1149.0546	38250	37300.45
863.2148	1150.9989	38087.4	37143.05
863.3597	1152.9424	37890.15	36945.7
863.5045	1154.8852	37584.6	36637.4
863.6493	1156.8272	37381	36437.85
863.7942	1158.7686	37258.7	36307.65
863.939	1160.7092	37020.55	36074.55
864.0838	1162.6491	36862.55	35918.55
864.2286	1164.5883	36899.1	35953
864.3734	1166.5267	36813.4	35866.95
864.5182	1168.4644	36941.8	35998.8
864.663	1170.4014	37012.1	36068.45
864.8078	1172.3377	37207.75	36266.25
864.9526	1174.2732	37328.1	36388.05
865.0974	1176.2081	37439.85	36500.75
865.2421	1178.1421	37519.9	36575.4
865.3869	1180.0755	37594.15	36651.9
865.5317	1182.0082	37440.7	36499.95
865.6764	1183.9401	37238.4	36298.1
865.8212	1185.8713	36925.45	35991.85
865.9659	1187.8017	36606.65	35674.9
866.1106	1189.7315	36342	35415.95
866.2554	1191.6605	35925.05	35001.3
866.4001	1193.5888	35545.9	34618.5
866.5448	1195.5163	35378.2	34442.55
866.6895	1197.4432	35173.1	34234.85
866.8342	1199.3693	34957.5	34016.1
866.9789	1201.2947	34791.25	33844.15
867.1236	1203.2193	34601.15	33659.65
867.2683	1205.1432	34578.3	33634.7
867.413	1207.0664	34520.55	33579.8
867.5576	1208.9889	34512.85	33569.1
867.7023	1210.9106	34409.45	33473.65
867.847	1212.8316	34358	33418.45
867.9916	1214.7519	34375.55	33428.85
868.1363	1216.6715	34242.35	33303.45
868.2809	1218.5903	34214.1	33271.65
868.4255	1220.5084	34051.45	33109.7
868.5701	1222.4257	33916.3	32977
868.7148	1224.3424	33652	32716.1
868.8594	1226.2583	33618.9	32679.35
869.004	1228.1735	33677.1	32737.2
869.1486	1230.0879	33666.65	32725.7
869.2932	1232.0016	33707.8	32766.95
869.4377	1233.9146	33591.6	32648.6
869.5823	1235.8269	33422.65	32482.9
869.7269	1237.7384	33264.3	32325.65
869.8715	1239.6492	32949.65	32010.7
870.016	1241.5592	32723.75	31784.4
870.1606	1243.4686	32501.35	31565
870.3051	1245.3772	32373.55	31434.4
870.4496	1247.285	32254.7	31317.3
870.5941	1249.1922	32051.4	31113.5
870.7387	1251.0986	31982.45	31045.75
870.8832	1253.0042	31849.1	30912.1
871.0277	1254.9092	31850.6	30912.75
871.1722	1256.8134	31916.15	30978.15
871.3167	1258.7169	31986.65	31050.05
871.4611	1260.6196	32032.95	31093.7
871.6056	1262.5216	32158.2	31218.85
871.7501	1264.4229	32162.4	31226.55
871.8945	1266.3234	32315.8	31378.35
872.039	1268.2232	32296.5	31352.45
872.1834	1270.1223	32148.75	31207.6
872.3278	1272.0207	32049.7	31111.35
872.4723	1273.9183	31947.45	31003.1
872.6167	1275.8151	31743.8	30807.3
872.7611	1277.7113	31609.95	30675.75
872.9055	1279.6067	31356.3	30423.05
873.0499	1281.5014	31117.2	30177.45
873.1943	1283.3953	30894.5	29953.05
873.3386	1285.2885	30716.3	29778.7
873.483	1287.181	30565.95	29628
873.6274	1289.0727	30597.1	29661
873.7717	1290.9637	30523.85	29588.45
873.9161	1292.854	30582.7	29646.35
874.0604	1294.7435	30653.65	29718.65
874.2047	1296.6323	30789.15	29854.9
874.349	1298.5204	31004.3	30063.6
874.4933	1300.4077	31197.3	30261.1
874.6376	1302.2943	31353.3	30416.6
874.7819	1304.1802	31403.15	30465.35
874.9262	1306.0653	31248	30309.6
875.0705	1307.9497	31041.45	30104.3
875.2147	1309.8333	30914.7	29981.5
875.359	1311.7162	30841.1	29907.35
875.5032	1313.5984	30915.05	29975.85
875.6475	1315.4798	30964.75	30010.1
875.7917	1317.3605	31068.25	30116.35
875.9359	1319.2405	31179.6	30239.2
876.0801	1321.1197	31206.5	30266.3
876.2243	1322.9982	31041.05	30102
876.3685	1324.876	31026.7	30089.5
876.5127	1326.753	30881	29945.3
876.6569	1328.6293	30920.6	29981.3
876.801	1330.5048	30975.75	30040.25
876.9452	1332.3796	30796.25	29862.3
877.0893	1334.2537	30753.5	29797.65
877.2335	1336.127	30635.95	29698.95
877.3776	1337.9996	30547	29611.85
877.5217	1339.8714	30399.35	29462.95
877.6658	1341.7426	30270	29291.5
877.8099	1343.6129	30108.35	29169.9
877.954	1345.4826	30006.55	29068.2
878.0981	1347.3515	29983.25	29045.85
878.2422	1349.2196	29839.25	28905.2
878.3862	1351.087	29756.4	28821.4
878.5303	1352.9537	29727.1	28790.6
878.6743	1354.8197	29859.05	28921.7
878.8184	1356.6849	29992.5	29057.15
878.9624	1358.5493	29982.65	29046.55
879.1064	1360.4131	29928.5	28993.4
879.2504	1362.276	29760.35	28826.2
879.3944	1364.1383	29495.25	28561.7
879.5384	1365.9998	29172.95	28231.55
879.6823	1367.8606	28827.65	27889.5
879.8263	1369.7206	28499.95	27562.75
879.9702	1371.5799	28273.1	27336.1
880.1142	1373.4384	28071.65	27136.3
880.2581	1375.2962	27900.05	26966.55
880.402	1377.1533	27594.45	26665.2
880.5459	1379.0096	27245.1	26314.05
880.6898	1380.8652	26866.55	25933.35
880.8337	1382.7201	26602.3	25671.9
880.9776	1384.5742	26259.85	25326.95
881.1215	1386.4275	26052.25	25114.9
881.2653	1388.2802	25881	24948.8
881.4092	1390.132	25663.35	24729.25
881.553	1391.9832	25633.7	24697.8
881.6968	1393.8336	25451.95	24518.2
881.8406	1395.6832	25327.25	24391.15
881.9844	1397.5322	25209.95	24277.15
882.1282	1399.3803	25087.1	24149.8
882.272	1401.2278	24927.3	23993
882.4158	1403.0745	24888.1	23957.85
882.5595	1404.9204	24752.8	23819.45
882.7033	1406.7656	24686.3	23755.4
882.847	1408.6101	24618.55	23684.15
882.9908	1410.4538	24588.9	23654.35
883.1345	1412.2968	24544.6	23613.85
883.2782	1414.139	24472.95	23541.3
883.4219	1415.9805	24548.35	23618.25
883.5656	1417.8213	24517.45	23565.6
883.7092	1419.6613	24577.35	23645.8
883.8529	1421.5006	24736.45	23804.25
883.9965	1423.3391	24929.9	24001.7
884.1402	1425.1769	25173	24241.5
884.2838	1427.0139	25669.05	24736.35
884.4274	1428.8502	26231.3	25301.55
884.571	1430.6858	26757.2	25825.7
884.7146	1432.5206	27076.75	26149.25
884.8582	1434.3547	27366.6	26433.8
885.0018	1436.188	27385.5	26456.05
885.1453	1438.0206	27272.1	26344.1
885.2889	1439.8524	27023.1	26092.25
885.4324	1441.6835	26914.75	25983.45
885.5759	1443.5139	26782.45	25848.05
885.7194	1445.3435	26630.35	25702.9
885.8629	1447.1724	26519.65	25590.65
886.0064	1449.0005	26421.3	25491.65
886.1499	1450.8279	26237	25307.35
886.2933	1452.6545	26209	25280.35
886.4368	1454.4804	26193.55	25267.5
886.5802	1456.3056	26134.6	25197.3
886.7237	1458.13	25985.7	25057.95
886.8671	1459.9536	25747.4	24818.7
887.0105	1461.7766	25331.1	24400.05
887.1539	1463.5987	24822.6	23889.3
887.2972	1465.4202	24411.8	23481.65
887.4406	1467.2409	23958.75	23025.65
887.584	1469.0608	23689.85	22759.9
887.7273	1470.88	23367.45	22438.75
887.8706	1472.6984	23110.6	22181.4
888.0139	1474.5161	22801.25	21872.3
888.1572	1476.3331	22657.55	21727.45
888.3005	1478.1493	22473.2	21541.45
888.4438	1479.9648	22367.5	21438.65
888.5871	1481.7795	22189.95	21261.35
888.7303	1483.5935	22118.2	21188.15
888.8736	1485.4067	22016.6	21087.3
889.0168	1487.2192	21956.15	21024.65
889.16	1489.031	21846.85	20915.55
889.3032	1490.842	21803.35	20877.2
889.4464	1492.6522	21731.1	20801.55
889.5896	1494.4618	21647.85	20719.2
889.7327	1496.2705	21608.25	20680.25
889.8759	1498.0785	21525.8	20599.7
890.019	1499.8858	21460.35	20533.6
890.1622	1501.6924	21384.6	20455.25
890.3053	1503.4981	21358.65	20429.8
890.4484	1505.3032	21296.6	20367.2
890.5914	1507.1075	21236.05	20310.15
890.7345	1508.911	21161.05	20234.5
890.8776	1510.7138	21086.5	20156.9
891.0206	1512.5159	20996.3	20072.1
891.1637	1514.3172	20884.1	19957.6
891.3067	1516.1178	20753	19829.65
891.4497	1517.9176	20737.5	19812.5
891.5927	1519.7166	20652.35	19728
891.7357	1521.515	20607.45	19675.35
891.8786	1523.3126	20503.6	19578.05
892.0216	1525.1094	20400.35	19475.05
892.1645	1526.9055	20350.3	19426.6
892.3074	1528.7008	20246.45	19322.4
892.4503	1530.4954	20129.25	19199.45
892.5932	1532.2893	20122.25	19202.2
892.7361	1534.0824	19990.05	19065.05
892.879	1535.8747	19991.05	19069.1
893.0218	1537.6663	19902.75	18978.9
893.1647	1539.4572	19826.2	18905.35
893.3075	1541.2473	19816.45	18893.55
893.4503	1543.0367	19747.8	18827.35
893.5931	1544.8253	19676.65	18752.1
893.7359	1546.6132	19611.3	18686.6
893.8787	1548.4003	19527.4	18597.45
894.0214	1550.1867	19539	18609
894.1642	1551.9723	19470.85	18547.25
894.3069	1553.7572	19455.15	18533.65
894.4496	1555.5414	19432.55	18513.35
894.5923	1557.3247	19421.95	18505.85
894.735	1559.1074	19383.9	18469.8
894.8777	1560.8893	19363.8	18448.75
895.0204	1562.6705	19367.35	18452.45
895.163	1564.4509	19365.35	18451.65
895.3056	1566.2305	19386.9	18472
895.4482	1568.0094	19494.2	18579.95
895.5908	1569.7876	19588.2	18676.7
895.7334	1571.565	19593.65	18676.2
895.876	1573.3417	19601.65	18685.15
896.0186	1575.1176	19580.55	18663.65
896.1611	1576.8928	19513.1	18600.6
896.3036	1578.6672	19362.05	18452.25
896.4461	1580.4409	19196.8	18289.1
896.5886	1582.2138	19031.15	18119.2
896.7311	1583.986	18873.25	17960.65
896.8736	1585.7575	18748	17834.05
897.0161	1587.5282	18602.8	17693.65
897.1585	1589.2981	18486.65	17580.15
897.3009	1591.0673	18368.85	17460.55
897.4433	1592.8358	18328.2	17420.35
897.5857	1594.6035	18312.2	17398.85
897.7281	1596.3704	18234.8	17321.95
897.8705	1598.1366	18158	17246.15
898.0128	1599.9021	18140.2	17229.3
898.1551	1601.6668	18086.8	17175.95
898.2975	1603.4308	18106.25	17193.6
898.4398	1605.194	18147.55	17232.4
898.5821	1606.9564	18159.9	17252.95
898.7243	1608.7182	18224.2	17318
898.8666	1610.4791	18307.6	17410
899.0088	1612.2394	18391.9	17495
899.1511	1613.9988	18536.85	17636.25
899.2933	1615.7576	18740.4	17836.9
899.4355	1617.5156	18950.45	18033.05
899.5776	1619.2728	19183.7	18273.3
899.7198	1621.0293	19313.55	18401.95
899.862	1622.785	19344.3	18434.35
900.0041	1624.54	19247.45	18344.1
900.1462	1626.2942	19069.15	18163.95
900.2883	1628.0477	18753.45	17846.4
900.4304	1629.8005	18445	17537.95
900.5725	1631.5525	18177.35	17273.2
900.7145	1633.3037	17892.7	16990.9
900.8566	1635.0542	17703.85	16801.85
900.9986	1636.804	17504.75	16600.5
901.1406	1638.553	17455.55	16478.95
901.2826	1640.3013	17278	16372.2
901.4245	1642.0488	17179.55	16274.1
901.5665	1643.7955	17128.2	16226.95
901.7085	1645.5416	17086.75	16182.55
901.8504	1647.2868	17083.75	16180.85
901.9923	1649.0313	17145.55	16239.65
902.1342	1650.7751	17223.85	16315.55
902.2761	1652.5181	17360.05	16456.9
902.4179	1654.2604	17549.35	16646.45
902.5598	1656.0019	17820.85	16918.5
902.7016	1657.7427	18172.95	17267.95
902.8434	1659.4828	18507	17601.7
902.9852	1661.222	18748	17838.15
903.127	1662.9606	18774.85	17870.25
903.2687	1664.6984	18600.9	17692.85
903.4105	1666.4354	18289.15	17378.45
903.5522	1668.1717	17756.1	16847.5
903.6939	1669.9072	17269.3	16360.7
903.8356	1671.642	16880	15971.3
903.9773	1673.3761	16570.8	15664.9
904.119	1675.1094	16278.6	15373.45
904.2606	1676.8419	16062.8	15158.6
904.4022	1678.5737	15892.5	14985.35
904.5439	1680.3048	15750.95	14844.6
904.6855	1682.0351	15593.25	14687.25
904.827	1683.7646	15500.3	14591.75
904.9686	1685.4934	15416.4	14514.4
905.1101	1687.2215	15350.75	14444.45
905.2517	1688.9488	15249.95	14348.7
905.3932	1690.6754	15139.2	14236.65
905.5347	1692.4012	15106.5	14203.85
905.6761	1694.1263	15043	14138
905.8176	1695.8506	15001.9	14095.85
905.9591	1697.5742	14925.6	14023.2
906.1005	1699.297	14841.6	13943.3
906.2419	1701.0191	14753.1	13855
906.3833	1702.7404	14703.7	13803.75
906.5246	1704.461	14608.1	13706.45
906.666	1706.1808	14568	13666
906.8073	1707.8999	14524.3	13623.9
906.9487	1709.6182	14453.9	13554.8
907.09	1711.3358	14410.05	13512.75
907.2313	1713.0527	14355.4	13459.45
907.3725	1714.7688	14321	13418.65
907.5138	1716.4841	14242.7	13340.6
907.655	1718.1987	14245.35	13338.75
907.7962	1719.9126	14162.7	13267.2
907.9374	1721.6257	14087.75	13187.95
908.0786	1723.338	14054.7	13158.95
908.2198	1725.0496	13972.25	13073.55
908.3609	1726.7605	13943.05	13043.5
908.502	1728.4706	13891.25	12992.05
908.6431	1730.18	13810.75	12913.8
908.7842	1731.8886	13797.05	12900.55
908.9253	1733.5964	13796.35	12881.75
909.0664	1735.3036	13739.3	12838.15
909.2074	1737.0099	13696.45	12798.25
909.3484	1738.7156	13664.3	12772.25
909.4894	1740.4204	13589.55	12689.6
909.6304	1742.1246	13543.15	12644.35
909.7714	1743.8279	13496.7	12599.5
909.9123	1745.5306	13504.1	12607.75
910.0532	1747.2325	13447.1	12553.25
910.1941	1748.9336	13408.75	12510.65
910.335	1750.634	13348.6	12448.55
910.4759	1752.3336	13325.5	12430.45
910.6168	1754.0325	13316.9	12424.25
910.7576	1755.7307	13314.25	12423.05
910.8984	1757.4281	13242.7	12347.65
911.0392	1759.1247	13228.1	12324.65
911.18	1760.8206	13196.2	12292.85
911.3208	1762.5158	13182.75	12278.5
911.4615	1764.2102	13105.6	12211.5
911.6022	1765.9039	13049.25	12153.5
911.7429	1767.5968	13034.4	12142.05
911.8836	1769.289	12991.7	12099.15
912.0243	1770.9804	12950	12052.75
912.1649	1772.6711	12926.7	12027.65
912.3056	1774.361	12882.2	11984.2
912.4462	1776.0502	12873.15	11974.7
912.5868	1777.7386	12853.85	11956.75
912.7274	1779.4263	12793.85	11899.1
912.8679	1781.1132	12751.6	11859.35
913.0084	1782.7994	12702	11808.85
913.149	1784.4849	12677.1	11784.95
913.2895	1786.1696	12641.6	11741.9
913.4299	1787.8535	12612.4	11719.8
913.5704	1789.5367	12565.4	11674.75
913.7108	1791.2192	12559.95	11671.05
913.8513	1792.9009	12537.55	11614.75
913.9917	1794.5818	12490.9	11592.85
914.132	1796.2621	12448.35	11551.1
914.2724	1797.9415	12427.05	11530.75
914.4128	1799.6202	12378.95	11481.8
914.5531	1801.2982	12326	11430.5
914.6934	1802.9755	12327.5	11432.3
914.8337	1804.6519	12330.65	11436.35
914.9739	1806.3277	12285.2	11391.35
915.1142	1808.0027	12212.45	11323
915.2544	1809.6769	12191.7	11303.4
915.3946	1811.3504	12140.55	11247.65
915.5348	1813.0231	12113.9	11223.45
915.675	1814.6951	12117.05	11225.3
915.8151	1816.3664	12115.1	11217.6
915.9553	1818.0369	12060.8	11165.8
916.0954	1819.7067	12025.15	11132.35
916.2355	1821.3757	12030.7	11134.3
916.3755	1823.044	11965	11069.8
916.5156	1824.7115	11934.8	11039.85
916.6556	1826.3783	11884.75	10990.5
916.7956	1828.0443	11862.95	10971.4
916.9356	1829.7096	11844.95	10949.65
917.0756	1831.3741	11811.95	10914.95
917.2155	1833.0379	11795.05	10902.2
917.3555	1834.701	11720.85	10828.65
917.4954	1836.3633	11742.15	10853.1
917.6353	1838.0248	11706.55	10811.7
917.7751	1839.6856	11677.15	10784.4
917.915	1841.3457	11691.1	10799.3
918.0548	1843.005	11599.1	10704.55
918.1946	1844.6636	11614.6	10721.6
918.3344	1846.3214	11565.55	10672.4
918.4742	1847.9785	11560	10667
918.6139	1849.6349	11547.5	10654.45
918.7537	1851.2904	11531.35	10625.35
918.8934	1852.9453	11483.4	10587.7
919.0331	1854.5994	11466.75	10568.85
919.1727	1856.2528	11471.1	10573.7
919.3124	1857.9054	11402.65	10506
919.452	1859.5572	11399.8	10505.3
919.5916	1861.2083	11364.15	10471.05
919.7312	1862.8587	11349.1	10457.55
919.8708	1864.5084	11304.65	10406.55
920.0103	1866.1572	11270.3	10373.9
920.1498	1867.8054	11242.05	10346.1
920.2893	1869.4528	11213.4	10317.95
920.4288	1871.0994	11183.7	10289.45
920.5683	1872.7453	11153.6	10257.95
920.7077	1874.3905	11144	10231.85
920.8471	1876.0349	11109.9	10216.65
920.9865	1877.6786	11125.95	10229.35
921.1259	1879.3215	11091.1	10196.95
921.2653	1880.9637	11049.25	10153.15
921.4046	1882.6051	11011.7	10120.45
921.5439	1884.2458	10983.7	10087.8
921.6832	1885.8858	10934.8	10041.95
921.8225	1887.525	10933.7	10041.35
921.9617	1889.1634	10881.35	9986.1
922.101	1890.8011	10870.6	9975.75
922.2402	1892.4381	10826.25	9931
922.3794	1894.0743	10820.65	9927.15
922.5185	1895.7098	10796.5	9901.9
922.6577	1897.3446	10778	9881.4
922.7968	1898.9786	10728.95	9831.2
922.9359	1900.6118	10686.4	9794.7
923.075	1902.2443	10665.65	9770.85
923.214	1903.8761	10638	9744.25
923.3531	1905.5071	10589.15	9693.35
923.4921	1907.1374	10545.95	9651.95
923.6311	1908.7669	10541.5	9651.35
923.77	1910.3957	10502	9608.65
923.909	1912.0237	10463.2	9572.95
924.0479	1913.651	10420.1	9527.65
924.1868	1915.2776	10403.45	9510
924.3257	1916.9034	10343.2	9450.75
924.4646	1918.5285	10308	9418.7
924.6034	1920.1528	10268.95	9377.05
924.7422	1921.7764	10267.15	9377
924.881	1923.3992	10232.55	9339.35
925.0198	1925.0213	10185.5	9292.8
925.1586	1926.6427	10143.35	9253.15
925.2973	1928.2633	10154.4	9194.55
925.436	1929.8832	10094.9	9201.55
925.5747	1931.5023	10037.8	9145.5
925.7134	1933.1207	10035.7	9142.8
925.852	1934.7383	10022.75	9129
925.9906	1936.3552	9980.1	9091
926.1292	1937.9714	9925.7	9035.05
926.2678	1939.5868	9885.4	8992.9
926.4064	1941.2015	9847.85	8955.7
926.5449	1942.8154	9814.55	8920.1
926.6834	1944.4286	9776.3	8883.65
926.8219	1946.041	9759.65	8844.7
926.9604	1947.6528	9691.2	8793.95
927.0988	1949.2637	9672.05	8779.15
927.2372	1950.8739	9645.3	8752.25
927.3756	1952.4834	9606.6	8715.55
927.514	1954.0921	9594.75	8703
927.6523	1955.7001	9563.35	8669.05
927.7907	1957.3074	9525.65	8637.55
927.929	1958.9139	9494.85	8607.75
928.0673	1960.5197	9471.05	8580.65
928.2055	1962.1247	9402.15	8513
928.3438	1963.729	9393.05	8504.85
928.482	1965.3325	9364.8	8453.25
928.6202	1966.9353	9305.5	8415.35
928.7584	1968.5374	9283.95	8395.25
928.8965	1970.1387	9252.85	8361.8
929.0346	1971.7393	9219.35	8330.35
929.1727	1973.3392	9209.4	8320.9
929.3108	1974.9383	9163.45	8277.6
929.4489	1976.5366	9115.1	8228.7
929.5869	1978.1342	9124.85	8235.25
929.7249	1979.7311	9098	8206.6
929.8629	1981.3273	9053.35	8166.35
930.0009	1982.9227	9018.3	8128.7
930.1388	1984.5173	8987.15	8103.1
930.2767	1986.1112	8965.75	8080.65
930.4146	1987.7044	8934.8	8048.95
930.5525	1989.2968	8924.95	8037.9
930.6904	1990.8885	8906.05	8015.2
930.8282	1992.4795	8871	7986.3
930.966	1994.0697	8843.75	7960.25
931.1038	1995.6592	8826.2	7940.55
931.2415	1997.2479	8795.65	7909.65
931.3793	1998.8359	8775.05	7889.8
931.517	2000.4232	8731.25	7847.4
931.6547	2002.0097	8697.3	7815.25
931.7923	2003.5955	8651.85	7766.9
931.93	2005.1805	8666.05	7780
932.0676	2006.7648	8651.15	7765.7
932.2052	2008.3484	8598.7	7715.15
932.3427	2009.9312	8612.5	7728.55
932.4803	2011.5133	8564.7	7683.65
932.6178	2013.0946	8570.9	7686.25
932.7553	2014.6752	8510.35	7627.75
932.8928	2016.2551	8492.25	7606.55
933.0302	2017.8342	8485.2	7600.9
933.1676	2019.4126	8434.45	7551.65
933.305	2020.9902	8406.2	7524.1
933.4424	2022.5672	8400.3	7516.2
933.5798	2024.1433	8378.95	7489.15
933.7171	2025.7188	8347.35	7466.2
933.8544	2027.2935	8317.15	7433.7
933.9917	2028.8674	8296.8	7416.6
934.129	2030.4406	8287.3	7404.65
934.2662	2032.0131	8237.1	7355.55
934.4034	2033.5849	8202.55	7315.2
934.5406	2035.1559	8182.25	7300.4
934.6778	2036.7261	8193	7307.1
934.8149	2038.2957	8160.85	7277.2
934.952	2039.8645	8158.75	7271.1
935.0891	2041.4325	8144.15	7255.85
935.2262	2042.9998	8083.8	7199
935.3632	2044.5664	8072	7187.95
935.5002	2046.1323	8054.4	7173.15
935.6372	2047.6974	8016.8	7133.55
935.7742	2049.2617	8000.95	7121.65
935.9111	2050.8254	7981.4	7092.9
936.048	2052.3883	7995	7108.75
936.1849	2053.9504	7959.85	7075
936.3218	2055.5118	7940.95	7057.45
936.4586	2057.0725	7895.25	7007.85
936.5955	2058.6325	7871.95	6986.65
936.7323	2060.1917	7856.3	6975.4
936.869	2061.7502	7846.85	6961.1
937.0058	2063.3079	7815.6	6933.3
937.1425	2064.8649	7789.1	6904.85
937.2792	2066.4212	7767.7	6882.9
937.4159	2067.9767	7741.55	6858
937.5525	2069.5315	7692.75	6808.75
937.6891	2071.0856	7662.7	6780.85
937.8257	2072.6389	7651.9	6768.5
937.9623	2074.1915	7633.3	6751.9
938.0989	2075.7433	7579	6693.65
938.2354	2077.2945	7578.6	6697.7
938.3719	2078.8448	7554.9	6668.4
938.5084	2080.3945	7522.05	6638.3
938.6448	2081.9434	7533.2	6648.45
938.7812	2083.4916	7513.85	6627.55
938.9176	2085.039	7475.7	6587.3
939.054	2086.5857	7462.15	6570.75
939.1903	2088.1317	7454.55	6563.75
939.3267	2089.677	7433.6	6542.9
939.463	2091.2215	7411.4	6521.1
939.5992	2092.7652	7383.55	6493.25
939.7355	2094.3083	7349.5	6458.8
939.8717	2095.8506	7341.35	6454.25
940.0079	2097.3921	7343.9	6457.35
940.1441	2098.933	7315.9	6430.2
940.2802	2100.4731	7301.55	6416.1
940.4163	2102.0124	7270	6375.05
940.5524	2103.5511	7267.65	6379.55
940.6885	2105.089	7247.75	6359.7
940.8245	2106.6261	7262.35	6375.75
940.9606	2108.1626	7239.15	6352.5
941.0965	2109.6983	7200.85	6287.4
941.2325	2111.2332	7182.7	6297.6
941.3684	2112.7675	7158.5	6268.6
941.5044	2114.301	7127.95	6238.8
941.6403	2115.8337	7114.95	6227.7
941.7761	2117.3657	7117.1	6229.7
941.912	2118.897	7095.85	6206.8
942.0478	2120.4276	7089.3	6196.15
942.1835	2121.9575	7032.1	6142.45
942.3193	2123.4866	7034.15	6133.1
942.455	2125.0149	7025.95	6136.65
942.5907	2126.5426	6972.05	6086.6
942.7264	2128.0695	6961.65	6075.65
942.8621	2129.5956	6953.95	6073.6
942.9977	2131.1211	6944.6	6056.85
943.1333	2132.6458	6926.15	6040.4
943.2689	2134.1698	6897.85	6009.45
943.4044	2135.693	6901.7	6009.95
943.54	2137.2155	6875.9	5983.4
943.6755	2138.7373	6886.75	6000.1
943.8109	2140.2584	6853.1	5968.65
943.9464	2141.7787	6835.5	5946.15
944.0818	2143.2983	6807.9	5926.8
944.2172	2144.8171	6770.35	5888.5
944.3526	2146.3353	6737.65	5849.4
944.4879	2147.8527	6705.65	5822.15
944.6232	2149.3693	6724.15	5832.8
944.7585	2150.8853	6710.75	5821.2
944.8938	2152.4005	6663.35	5775.65
945.029	2153.9149	6647.6	5760.05
945.1642	2155.4287	6739.9	5742.95
945.2994	2156.9417	6657.85	5767.55
945.4346	2158.454	6603.55	5716.8
945.5697	2159.9655	6592.75	5706.6
945.7048	2161.4764	6588.6	5702.5
945.8399	2162.9865	6570.9	5685.2
945.9749	2164.4958	6549.5	5663.45
946.1099	2166.0045	6515.5	5627.3
946.2449	2167.5124	6515.15	5629.2
946.3799	2169.0195	6509.15	5623.45
946.5148	2170.526	6498.3	5610.85
946.6498	2172.0317	6454.65	5567.35
946.7846	2173.5367	6447.75	5560.4
946.9195	2175.0409	6418.45	5533.3
947.0543	2176.5445	6425.45	5538.1
947.1891	2178.0473	6391.1	5502.65
947.3239	2179.5494	6377.75	5485.25
947.4587	2181.0507	6351.5	5465.5
947.5934	2182.5513	6350	5462.95
947.7281	2184.0512	6322.1	5434.9
947.8628	2185.5504	6288.9	5400.85
947.9974	2187.0488	6253.6	5367.35
948.132	2188.5465	6248.3	5363.3
948.2666	2190.0435	6215.2	5329.2
948.4012	2191.5397	6218.15	5329.5
948.5357	2193.0353	6213.5	5325.05
948.6702	2194.5301	6178.4	5286.45
948.8047	2196.0241	6154.15	5264.55
948.9392	2197.5175	6137.95	5245.35
949.0736	2199.0101	6116.35	5221.8
949.208	2200.502	6092.3	5208.55
949.3424	2201.9931	6062.4	5175.35
949.4767	2203.4835	6054.95	5169.85
949.611	2204.9733	6046	5153.95
949.7453	2206.4622	6032.7	5149.1
949.8796	2207.9505	5994.65	5109.6
950.0138	2209.438	5992.55	5109.45
950.148	2210.9248	5953.3	5069.1
950.2822	2212.4109	5936.3	5048.45
950.4164	2213.8962	5914	5023.35
950.5505	2215.3809	5916.4	5024.6
950.6846	2216.8648	5886.65	4994.55
950.8186	2218.3479	5894.35	5000.7
950.9527	2219.8304	5879.4	4985.6
951.0867	2221.3121	5837.75	4943.65
951.2207	2222.7931	5816.75	4926.75
951.3546	2224.2733	5791.15	4900.1
951.4886	2225.7529	5777.7	4889.55
951.6225	2227.2317	5776.4	4886.3
951.7563	2228.7098	5767.45	4881.4
951.8902	2230.1872	5731.55	4847
952.024	2231.6638	5706.65	4822.45
952.1578	2233.1397	5683.2	4792.85
952.2916	2234.6149	5687.3	4803.45
952.4253	2236.0894	5671.4	4783.65
952.559	2237.5632	5656.65	4769.15
952.6927	2239.0362	5647.35	4759.5
952.8263	2240.5085	5630.55	4742.4
952.9599	2241.9801	5596.25	4708.5
953.0935	2243.4509	5574.25	4685.45
953.2271	2244.921	5562.05	4670.7
953.3606	2246.3904	5534.9	4642.4
953.4941	2247.8591	5548.85	4658.95
953.6276	2249.3271	5515.8	4626.25
953.7611	2250.7943	5498.8	4608.15
953.8945	2252.2608	5478.1	4587.8
954.0279	2253.7266	5479	4589.95
954.1612	2255.1917	5459	4571.8
954.2946	2256.656	5422.25	4535.05
954.4279	2258.1197	5419	4533.6
954.5612	2259.5826	5397.75	4510.3
954.6944	2261.0447	5393.75	4505.25
954.8276	2262.5062	5365.8	4473.15
954.9608	2263.9669	5361.9	4470.9
955.094	2265.4269	5355.05	4464.65
955.2271	2266.8862	5334.2	4448.05
955.3602	2268.3448	5342.25	4455.8
955.4933	2269.8026	5312.35	4426.25
955.6264	2271.2598	5290.9	4404.6
955.7594	2272.7162	5279.65	4393.95
955.8924	2274.1719	5276.3	4387.75
956.0253	2275.6268	5256.25	4366.9
956.1583	2277.0811	5247.65	4356.95
956.2912	2278.5346	5241.85	4353.25
956.4241	2279.9874	5210.35	4323.25
956.5569	2281.4395	5227.6	4341.25
956.6897	2282.8908	5199.65	4310.3
956.8225	2284.3414	5199.95	4308.45
956.9553	2285.7914	5168.05	4281.55
957.088	2287.2406	5156.1	4265.2
957.2207	2288.689	5155.65	4266.15
957.3534	2290.1368	5144.25	4252.05
957.486	2291.5838	5132.8	4238.8
957.6186	2293.0302	5106.1	4211.35
957.7512	2294.4758	5084.85	4195.8
957.8838	2295.9206	5059.5	4168.35
958.0163	2297.3648	5046.05	4157.95
958.1488	2298.8082	5057.4	4167.5
958.2813	2300.251	5045.05	4154.7
958.4137	2301.693	5008.45	4115.95
958.5461	2303.1343	5004.7	4114.05
958.6785	2304.5748	4983.05	4096.2
958.8108	2306.0147	4964.6	4077.3
958.9432	2307.4538	4967.65	4081.6
959.0754	2308.8922	4944.05	4060.3
959.2077	2310.3299	4923.95	4038.25
959.3399	2311.7669	4918.5	4032.2
959.4721	2313.2031	4904.95	4014.5
959.6043	2314.6387	4900.9	4011.7
959.7365	2316.0735	4861.15	3974.55
959.8686	2317.5076	4863.95	3976.2
960.0006	2318.941	4839.4	3950.05
960.1327	2320.3737	4837.9	3944.55
960.2647	2321.8056	4823.8	3930.6
960.3967	2323.2369	4828.95	3938.6
960.5287	2324.6674	4809.7	3920.2
960.6606	2326.0972	4783.9	3894.15
960.7925	2327.5263	4776.8	3888.75
960.9244	2328.9547	4753.6	3864
961.0562	2330.3823	4759.35	3869
961.1881	2331.8092	4743.55	3849.75
961.3198	2333.2355	4709.7	3818.6
961.4516	2334.661	4717.8	3825.75
961.5833	2336.0858	4691.7	3800.15
961.715	2337.5098	4699	3811.6
961.8467	2338.9332	4708.45	3817.45
961.9783	2340.3558	4663.85	3773.1
962.1099	2341.7778	4654.4	3767.35
962.2415	2343.199	4631.35	3744.05
962.373	2344.6195	4626.65	3737.2
962.5045	2346.0393	4608.3	3720.35
962.636	2347.4583	4603.7	3713.55
962.7675	2348.8767	4595.25	3704.9
962.8989	2350.2943	4601.15	3711.5
963.0303	2351.7113	4581.1	3689.85
963.1617	2353.1275	4580.25	3690.7
963.293	2354.543	4591.25	3674.25
963.4243	2355.9578	4540.8	3651.15
963.5556	2357.3718	4515.4	3626.05
963.6868	2358.7852	4513.75	3625.75
963.818	2360.1978	4493.3	3607.45
963.9492	2361.6098	4488.95	3600.05
964.0803	2363.021	4473.2	3581.25
964.2114	2364.4315	4449.9	3561.05
964.3425	2365.8413	4453.55	3560.2
964.4736	2367.2504	4436.2	3548.9
964.6046	2368.6587	4407.75	3520.8
964.7356	2370.0664	4403.3	3515.75
964.8666	2371.4733	4374.15	3487.55
964.9975	2372.8795	4373.05	3486.3
965.1284	2374.285	4353.45	3466.6
965.2593	2375.6899	4330.3	3444.05
965.3901	2377.0939	4314.6	3427.55
965.5209	2378.4973	4314.6	3425.9
965.6517	2379.9	4309.3	3419.95
965.7825	2381.3019	4290.25	3403.75
965.9132	2382.7032	4267	3381.35
966.0439	2384.1037	4262.15	3378.45
966.1745	2385.5035	4237.6	3352.9
966.3051	2386.9027	4233.9	3351.5
966.4357	2388.3011	4227.5	3338.8
966.5663	2389.6987	4210.2	3324.3
966.6968	2391.0957	4198.5	3313.25
966.8273	2392.492	4176.55	3290.9
966.9578	2393.8876	4163.5	3277.3
967.0882	2395.2824	4153.3	3267.95
967.2186	2396.6765	4135.6	3248.25
967.349	2398.07	4113.25	3228.7
967.4793	2399.4627	4108.25	3219.35
967.6097	2400.8547	4101.9	3213.8
967.7399	2402.246	4098.65	3204.85
967.8702	2403.6366	4084.45	3197.45
968.0004	2405.0265	4053.05	3167.4
968.1306	2406.4156	4060.3	3170.95
968.2607	2407.8041	4058.25	3169.2
968.3909	2409.1918	4022.25	3133.15
968.521	2410.5789	4010.65	3122.8
968.651	2411.9652	4013.9	3123.55
968.781	2413.3508	3994.25	3107.4
968.911	2414.7358	3976.6	3089.2
969.041	2416.12	3964.25	3077.05
969.1709	2417.5035	3978.05	3091.95
969.3008	2418.8863	3945.65	3057.55
969.4307	2420.2684	3919.85	3032.65
969.5606	2421.6497	3924.9	3037.25
969.6904	2423.0304	3898.1	3011.05
969.8201	2424.4104	3892.65	3003.15
969.9499	2425.7896	3887.35	2997.6
970.0796	2427.1682	3878.1	2988.7
970.2093	2428.546	3856.4	2968.2
970.3389	2429.9232	3850.5	2962.3
970.4685	2431.2996	3847.4	2961.05
970.5981	2432.6753	3830.35	2941.5
970.7277	2434.0503	3837.95	2949.9
970.8572	2435.4246	3806.1	2919.15
970.9867	2436.7982	3800.4	2911.55
971.1161	2438.1711	3797.35	2911.7
971.2456	2439.5433	3785.15	2894.45
971.375	2440.9148	3783.65	2889.85
971.5043	2442.2856	3764.45	2877.15
971.6336	2443.6557	3770.8	2881.7
971.7629	2445.025	3742.15	2856.15
971.8922	2446.3937	3744.15	2857.35
972.0214	2447.7617	3738.35	2848.4
972.1506	2449.1289	3724.9	2836.95
972.2798	2450.4955	3706.9	2816.85
972.4089	2451.8613	3695.2	2809.35
972.538	2453.2265	3699.2	2812.75
972.6671	2454.5909	3678.8	2787.95
972.7961	2455.9546	3666.1	2779.15
972.9251	2457.3177	3654.25	2768.15
973.0541	2458.68	3657.9	2770.6
973.1831	2460.0416	3638.9	2749.55
973.312	2461.4025	3645.35	2756.75
973.4408	2462.7627	3647.35	2748.75
973.5697	2464.1222	3622.25	2737.45
973.6985	2465.4811	3605.35	2717.5
973.8273	2466.8392	3621.65	2734.3
973.956	2468.1966	3602.3	2713.2
974.0847	2469.5533	3609.15	2719.9
974.2134	2470.9093	3594.95	2706.3
974.3421	2472.2645	3564.95	2676.35
974.4707	2473.6191	3577.95	2691.2
974.5993	2474.973	3567.25	2680.55
974.7278	2476.3262	3554.5	2665.05
974.8563	2477.6787	3546.8	2658.3
974.9848	2479.0305	3537.05	2650.15
975.1132	2480.3816	3515.5	2627.3
975.2417	2481.7319	3501.55	2614.6
975.37	2483.0816	3501.2	2611.55
975.4984	2484.4306	3479.05	2590.05
975.6267	2485.7789	3476.35	2589
975.755	2487.1264	3473.75	2586.55
975.8833	2488.4733	3462.2	2576.4
976.0115	2489.8195	3451.2	2557.65
976.1397	2491.165	3433	2543.2
976.2678	2492.5097	3418.7	2530.7
976.3959	2493.8538	3392.3	2505.35
976.524	2495.1972	3391.3	2503.05
976.6521	2496.5398	3390.5	2500.7
976.7801	2497.8818	3388.35	2499.3
976.9081	2499.2231	3369.1	2482.45
977.036	2500.5637	3365.25	2476.55
977.164	2501.9035	3354.9	2467.05
977.2918	2503.2427	3343.1	2451.6
977.4197	2504.5812	3341.9	2455.95
977.5475	2505.919	3328.35	2434.65
977.6753	2507.256	3337.8	2449.45
977.8031	2508.5924	3314.9	2427.45
977.9308	2509.9281	3312.05	2420.1
978.0585	2511.2631	3301.3	2413.6
978.1861	2512.5974	3300.1	2411.75
978.3137	2513.9309	3283.65	2396.85
978.4413	2515.2638	3283.75	2373.05
978.5689	2516.596	3276.4	2388.3
978.6964	2517.9275	3247.2	2357.2
978.8239	2519.2583	3236.7	2347.25
978.9513	2520.5884	3225.95	2337.9
979.0788	2521.9178	3221.95	2332.95
979.2062	2523.2465	3226.4	2338.15
979.3335	2524.5745	3197.95	2311.4
979.4608	2525.9018	3203.8	2315.35
979.5881	2527.2284	3196.8	2310.5
979.7154	2528.5543	3186.6	2299.8
979.8426	2529.8796	3172.5	2284.15
979.9698	2531.2041	3175.95	2287.8
980.0969	2532.5279	3168.75	2284.15
980.224	2533.851	3160	2272.45
980.3511	2535.1735	3139.85	2253.95
980.4781	2536.4952	3160.8	2273.95
980.6052	2537.8163	3144.05	2256.15
980.7321	2539.1366	3138.3	2251.8
980.8591	2540.4562	3121.55	2231.95
980.986	2541.7752	3122.6	2236.7
981.1129	2543.0935	3109.2	2220.35
981.2397	2544.411	3125	2236.75
981.3665	2545.7279	3109.65	2221.3
981.4933	2547.0441	3097.9	2209.2
981.62	2548.3596	3106.4	2214.7
981.7467	2549.6744	3102.4	2213.5
981.8734	2550.9885	3091.05	2195.15
982.0001	2552.3019	3074.45	2188.6
982.1267	2553.6146	3064.95	2175.85
982.2532	2554.9266	3058.25	2167.65
982.3798	2556.2379	3055.95	2166.7
982.5063	2557.5485	3051.6	2165.3
982.6327	2558.8585	3043.45	2150.2
982.7592	2560.1677	3046.85	2154
982.8856	2561.4762	3034.45	2147.4
983.0119	2562.7841	3025.75	2133.25
983.1383	2564.0913	3019.55	2135.15
983.2646	2565.3977	3016.1	2128.4
983.3908	2566.7035	3002.8	2114.55
983.517	2568.0086	2993.2	2102.25
983.6432	2569.313	2998.75	2109.15
983.7694	2570.6167	2984.95	2091.4
983.8955	2571.9197	2989.15	2100
984.0216	2573.222	2978.6	2085.65
984.1476	2574.5236	2977.25	2087.3
984.2737	2575.8246	2970.2	2079.55
984.3996	2577.1248	2975.75	2084.9
984.5256	2578.4244	2953.1	2068
984.6515	2579.7232	2960.8	2072.95
984.7774	2581.0214	2980.15	2060.6
984.9032	2582.3189	2941.45	2053.75
985.029	2583.6157	2951.1	2056.7
985.1548	2584.9118	2948.75	2059.5
985.2806	2586.2072	2953.8	2066
985.4063	2587.5019	2936	2047.4
985.5319	2588.7959	2915.15	2025.85
985.6576	2590.0893	2922.95	2031.3
985.7832	2591.3819	2929.2	2041.9
985.9087	2592.6739	2934.05	2043.9
986.0343	2593.9652	2918.9	2028.45
986.1597	2595.2557	2911.5	2022.05
986.2852	2596.5456	2905.55	2013.95
986.4106	2597.8348	2884.45	1996.7
986.536	2599.1234	2881.6	1995.65
986.6614	2600.4112	2895.65	2006.05
986.7867	2601.6983	2888.75	1996.6
986.912	2602.9848	2872.55	1981.35
987.0372	2604.2705	2863.5	1968.2
987.1624	2605.5556	2870.45	1980.6
987.2876	2606.84	2849.65	1963.75
987.4128	2608.1237	2841.95	1952.2
987.5379	2609.4067	2842.8	1954.05
987.6629	2610.689	2839.95	1943.4
987.788	2611.9707	2826.5	1934.3
987.913	2613.2516	2823.9	1929.9
988.0379	2614.5319	2803.65	1915
988.1629	2615.8115	2792.6	1903.7
988.2878	2617.0903	2782.8	1892.85
988.4126	2618.3685	2785	1895.4
988.5375	2619.6461	2790.9	1903.55
988.6622	2620.9229	2769.9	1883.4
988.787	2622.199	2770.75	1880.55
988.9117	2623.4745	2768.5	1881.15
989.0364	2624.7493	2754.8	1867.85
989.161	2626.0234	2736.15	1850.4
989.2857	2627.2968	2741.6	1854.2
989.4102	2628.5695	2735.75	1846.3
989.5348	2629.8415	2721.45	1834.25
989.6593	2631.1128	2713.85	1824.85
989.7837	2632.3835	2712.6	1821.95
989.9082	2633.6535	2706.8	1820.7
990.0326	2634.9228	2713.1	1824.1
990.1569	2636.1914	2692.05	1806.15
990.2812	2637.4593	2696.2	1807.5
990.4055	2638.7265	2691	1801.8
990.5298	2639.9931	2666.2	1778.7
990.654	2641.259	2680.7	1790.6
990.7782	2642.5242	2670.35	1783.05
990.9023	2643.7887	2665.6	1777.3
991.0264	2645.0525	2655.5	1767.05
991.1505	2646.3156	2661.25	1760.5
991.2745	2647.5781	2633.25	1745.2
991.3985	2648.8398	2637.6	1752.6
991.5225	2650.1009	2651.05	1738.65
991.6464	2651.3613	2636.5	1748.15
991.7703	2652.6211	2618.4	1728.85
991.8942	2653.8801	2620.4	1731.75
992.018	2655.1385	2612.75	1721.55
992.1418	2656.3961	2610.9	1724.1
992.2655	2657.6531	2609.1	1721.05
992.3892	2658.9094	2602.4	1715.2
992.5129	2660.1651	2597	1711.35
992.6366	2661.42	2594.55	1706.15
992.7602	2662.6743	2588.2	1700.5
992.8837	2663.9279	2594.95	1705.8
993.0073	2665.1808	2581.85	1694.55
993.1307	2666.433	2586.4	1699.9
993.2542	2667.6846	2581.1	1692.5
993.3776	2668.9354	2575.55	1687.2
993.501	2670.1856	2568.75	1679.5
993.6244	2671.4351	2567.85	1679.45
993.7477	2672.6839	2569.25	1680.45
993.8709	2673.9321	2571.05	1683.55
993.9942	2675.1795	2571.3	1682.15
994.1174	2676.4263	2561.65	1672.5
994.2405	2677.6724	2557.3	1670.1
994.3637	2678.9179	2562.55	1674.1
994.4868	2680.1626	2551.65	1665.8
994.6098	2681.4067	2544.4	1657.65
994.7328	2682.6501	2552.75	1665.85
994.8558	2683.8928	2529.35	1640.25
994.9788	2685.1348	2534.3	1646.8
995.1017	2686.3761	2531.1	1644.3
995.2245	2687.6168	2530.85	1643.3
995.3474	2688.8568	2518.55	1630.15
995.4702	2690.0961	2504.1	1616.85
995.5929	2691.3348	2496.35	1607.95
995.7156	2692.5727	2491.4	1605.05
995.8383	2693.81	2479.4	1591.9
995.961	2695.0466	2474.1	1588.05
996.0836	2696.2826	2479.5	1590.55
996.2062	2697.5178	2481.05	1589.3
996.3287	2698.7524	2453.9	1566.55
996.4512	2699.9863	2460.85	1570.05
996.5737	2701.2195	2448.65	1562.8
996.6961	2702.452	2471.75	1582.2
996.8185	2703.6839	2453	1564.4
996.9408	2704.9151	2466.55	1581.8
997.0631	2706.1456	2456.9	1568.85
997.1854	2707.3755	2455.65	1568.95
997.3077	2708.6046	2458.35	1568.85
997.4299	2709.8331	2463.35	1576
997.552	2711.0609	2461.1	1576.8
997.6742	2712.2881	2467	1581.1
997.7963	2713.5145	2471.15	1583.55
997.9183	2714.7403	2476.8	1589.55
998.0403	2715.9654	2475.65	1588.8
998.1623	2717.1899	2507.4	1604.15
998.2842	2718.4136	2491.95	1603.45
998.4062	2719.6367	2505.65	1619.2
998.528	2720.8591	2519.85	1627.85
998.6498	2722.0809	2519.1	1633.75
998.7716	2723.3019	2518.95	1629.55
998.8934	2724.5223	2526.2	1639.45
999.0151	2725.7421	2525.3	1639
999.1368	2726.9611	2526.35	1636.15
999.2584	2728.1795	2523.7	1632.6
999.38	2729.3972	2498.25	1612.7
999.5016	2730.6142	2507.3	1608.75
999.6231	2731.8306	2469.4	1581.65
999.7446	2733.0462	2446.25	1558.85
999.8661	2734.2612	2438.55	1548.3
999.9875	2735.4756	2415.1	1528.5
1000.1089	2736.6892	2392.15	1505.75
1000.2302	2737.9022	2371.3	1486.2
1000.3515	2739.1145	2351.25	1465.95
1000.4728	2740.3262	2340.2	1444.65
1000.594	2741.5372	2329.85	1443.25
1000.7152	2742.7475	2311.25	1424.6
1000.8363	2743.9571	2305.8	1419.4
1000.9575	2745.1661	2288.9	1396.7
1001.0785	2746.3744	2281.55	1395.15
1001.1996	2747.582	2260.6	1376.05
1001.3206	2748.7889	2264.45	1375.25
1001.4415	2749.9952	2240.75	1354.7
1001.5625	2751.2008	2242.4	1354.65
1001.6833	2752.4057	2229.05	1339.65
1001.8042	2753.61	2222.3	1336.15
1001.925	2754.8136	2214.95	1328.75
1002.0458	2756.0165	2204.9	1316.8
1002.1665	2757.2188	2207.15	1322.45
1002.2872	2758.4204	2201.6	1314.25
1002.4078	2759.6213	2204.05	1316.9
1002.5285	2760.8215	2203.1	1313.15
1002.649	2762.0211	2183.9	1293.35
1002.7696	2763.22	2186.45	1296.8
1002.8901	2764.4182	2181.3	1292.15
1003.0106	2765.6158	2183.15	1298.35
1003.131	2766.8127	2165.25	1280
1003.2514	2768.009	2164.4	1280.05
1003.3717	2769.2045	2156.2	1269.65
1003.492	2770.3994	2166.1	1277.45
1003.6123	2771.5936	2145.1	1257.95
1003.7325	2772.7872	2135.6	1249.55
1003.8527	2773.9801	2122.05	1232.45
1003.9729	2775.1723	2145.7	1244.1
1004.093	2776.3639	2129.85	1244.8
1004.2131	2777.5548	2136.4	1250.1
1004.3331	2778.745	2118.65	1231.1
1004.4531	2779.9346	2119.7	1234.9
1004.5731	2781.1235	2114.85	1227.5
1004.693	2782.3117	2120.55	1236.95
1004.8129	2783.4992	2116.9	1232.5
1004.9328	2784.6861	2120.75	1236.3
1005.0526	2785.8723	2121.35	1234.8
1005.1723	2787.0579	2133.95	1247.7
1005.2921	2788.2428	2141.35	1258.6
1005.4118	2789.427	2132.9	1246.9
1005.5314	2790.6106	2141.95	1255.75
1005.651	2791.7935	2163	1278.15
1005.7706	2792.9757	2165.05	1279.05
1005.8902	2794.1573	2162.85	1276.9
1006.0097	2795.3382	2174.25	1290.25
1006.1291	2796.5184	2189	1305.7
1006.2485	2797.698	2207.35	1321.3
1006.3679	2798.8769	2223.9	1338.55
1006.4873	2800.0551	2230.8	1345.35
1006.6066	2801.2327	2242.75	1357.6
1006.7258	2802.4096	2263.75	1377.7
1006.8451	2803.5859	2282.4	1396.8
1006.9642	2804.7615	2297.75	1411.05
1007.0834	2805.9364	2325.6	1441.65
1007.2025	2807.1106	2348	1462.5
1007.3216	2808.2842	2374.85	1488.85
1007.4406	2809.4572	2407.15	1522.8
1007.5596	2810.6294	2450.75	1564.45
1007.6785	2811.801	2471.55	1588.55
1007.7975	2812.972	2502.45	1620.5
1007.9163	2814.1423	2560.55	1674.1
1008.0352	2815.3119	2610.35	1725.8
1008.154	2816.4808	2660.9	1775.8
1008.2727	2817.6491	2704.2	1818.15
1008.3914	2818.8167	2757.05	1873.55
1008.5101	2819.9837	2805.5	1916.95
1008.6288	2821.15	2837.4	1953.15
1008.7474	2822.3157	2894.15	2010.55
1008.8659	2823.4807	2931.3	2048.25
1008.9844	2824.645	2957.75	2071.1
1009.1029	2825.8086	3010.9	2126.65
1009.2214	2826.9716	3038.1	2153.55
1009.3398	2828.134	3086.15	2201.2
1009.4581	2829.2957	3122.35	2238.6
1009.5764	2830.4567	3137.8	2254.05
1009.6947	2831.617	3178.8	2295.85
1009.813	2832.7767	3168.65	2286
1009.9312	2833.9358	3174.3	2288.25
1010.0493	2835.0941	3158.7	2274.85
1010.1675	2836.2519	3147.5	2262.8
1010.2855	2837.4089	3134.65	2249.95
1010.4036	2838.5653	3119.7	2235.3
1010.5216	2839.7211	3125.8	2241.35
1010.6396	2840.8761	3129.65	2241.6
1010.7575	2842.0306	3149.8	2267.2
1010.8754	2843.1843	3196.3	2312.4
1010.9932	2844.3374	3235.45	2352.05
1011.111	2845.4899	3281.95	2395.3
1011.2288	2846.6417	3378.6	2495.25
1011.3465	2847.7928	3444.7	2562.35
1011.4642	2848.9433	3522.25	2639
1011.5818	2850.0931	3604.45	2720.35
1011.6995	2851.2422	3682.2	2797.6
1011.817	2852.3907	3752.1	2867.2
1011.9345	2853.5385	3825.2	2941.7
1012.052	2854.6857	3893.35	3000.55
1012.1695	2855.8323	3920.05	3035.65
1012.2869	2856.9781	3968.5	3084.15
1012.4042	2858.1233	3999.9	3116.4
1012.5216	2859.2679	4069	3187.45
1012.6389	2860.4118	4112.15	3226.05
1012.7561	2861.555	4146.4	3257.15
1012.8733	2862.6976	4178.85	3292.5
1012.9905	2863.8395	4196.7	3314
1013.1076	2864.9808	4229.65	3344.55
1013.2247	2866.1214	4235.4	3351.8
1013.3417	2867.2614	4249.5	3366.3
1013.4587	2868.4007	4258.95	3373.7
1013.5757	2869.5393	4263.3	3378.55
1013.6926	2870.6773	4278.3	3392.15
1013.8095	2871.8146	4294.75	3409.25
1013.9263	2872.9513	4297.9	3413.2
1014.0431	2874.0874	4273.9	3391.65
1014.1599	2875.2227	4288.65	3403.65
1014.2766	2876.3574	4257.05	3375.05
1014.3933	2877.4915	4242.75	3358.9
1014.51	2878.6249	4186.4	3305.05
1014.6266	2879.7577	4172.85	3289.35
1014.7431	2880.8898	4170	3275.1
1014.8596	2882.0212	4124.1	3242.05
1014.9761	2883.152	4103.25	3217.65
1015.0925	2884.2821	4101.7	3219.95
1015.2089	2885.4116	4097.2	3214.05
1015.3253	2886.5405	4100.75	3217.45
1015.4416	2887.6686	4099.6	3212.6
1015.5579	2888.7962	4103.25	3222.35
1015.6741	2889.923	4104.05	3219.55
1015.7903	2891.0493	4120	3238.85
1015.9065	2892.1748	4119.25	3236.45
1016.0226	2893.2997	4127.85	3246.3
1016.1387	2894.424	4151.05	3267.75
1016.2547	2895.5476	4168.2	3283.45
1016.3707	2896.6706	4190.5	3307.55
1016.4866	2897.7929	4214.1	3329.1
1016.6025	2898.9145	4244.65	3362.4
1016.7184	2900.0355	4281.5	3396.5
1016.8342	2901.1559	4290.1	3407.45
1016.95	2902.2756	4341.3	3458.1
1017.0658	2903.3946	4344.65	3461.65
1017.1815	2904.513	4385.6	3500.95
1017.2971	2905.6308	4423.85	3540.55
1017.4127	2906.7479	4425.3	3543.55
1017.5283	2907.8643	4450.45	3566.55
1017.6439	2908.9801	4470	3586.1
1017.7594	2910.0953	4452.95	3570.1
1017.8748	2911.2098	4457.2	3572.4
1017.9902	2912.3236	4455.4	3564.35
1018.1056	2913.4368	4425.9	3540.2
1018.2209	2914.5494	4421.6	3540.65
1018.3362	2915.6613	4404.1	3514.85
1018.4515	2916.7725	4355.2	3468.85
1018.5667	2917.8831	4325.7	3441.95
1018.6819	2918.9931	4311.3	3424.35
1018.797	2920.1024	4261.6	3379.2
1018.9121	2921.211	4246.1	3363.1
1019.0271	2922.319	4213.85	3330.25
1019.1421	2923.4264	4186.65	3304.4
1019.2571	2924.5331	4193.65	3313.1
1019.372	2925.6391	4180.2	3299.45
1019.4869	2926.7445	4160.9	3277.7
1019.6017	2927.8493	4164.4	3282.25
1019.7165	2928.9534	4155.25	3272.85
1019.8313	2930.0569	4122.35	3237
1019.946	2931.1597	4130.45	3247.05
1020.0606	2932.2619	4119.45	3238.5
1020.1753	2933.3634	4107.45	3226.2
1020.2899	2934.4643	4093.4	3201.45
1020.4044	2935.5645	4078.7	3190.25
1020.5189	2936.6641	4031.9	3144.5
1020.6334	2937.763	3997.1	3114.95
1020.7478	2938.8613	3939.15	3058.55
1020.8622	2939.959	3875.2	2986.05
1020.9765	2941.056	3796	2914.2
1021.0908	2942.1523	3722.25	2840
1021.2051	2943.248	3611.4	2728.9
1021.3193	2944.3431	3522.15	2639
1021.4334	2945.4375	3420.6	2537.55
1021.5476	2946.5313	3314.75	2433.45
1021.6617	2947.6244	3207.35	2323.1
1021.7757	2948.7169	3092.3	2209.8
1021.8897	2949.8087	3001.3	2119.65
1022.0037	2950.8999	2902.3	2017.95
1022.1176	2951.9904	2828.4	1945.8
1022.2315	2953.0803	2745.45	1863.75
1022.3453	2954.1696	2678.05	1794.7
1022.4591	2955.2582	2629.3	1747.45
1022.5728	2956.3462	2582.75	1700.5
1022.6865	2957.4335	2540.15	1658
1022.8002	2958.5202	2505.05	1619.35
1022.9138	2959.6062	2471.1	1590.75
1023.0274	2960.6916	2446.9	1566.65
1023.141	2961.7764	2426.15	1542.15
1023.2545	2962.8605	2407.3	1523.55
1023.3679	2963.9439	2399	1516.65
1023.4813	2965.0267	2398.5	1515.95
1023.5947	2966.1089	2402.3	1495.75
1023.708	2967.1905	2369.35	1487.55
1023.8213	2968.2714	2371.7	1489.65
1023.9346	2969.3516	2366.9	1484.85
1024.0478	2970.4312	2372.3	1483.3
1024.1609	2971.5102	2350.35	1466.9
1024.274	2972.5885	2359.2	1479
1024.3871	2973.6662	2353.35	1464.9
1024.5002	2974.7432	2352.5	1471.4
1024.6132	2975.8196	2336.85	1454.15
1024.7261	2976.8954	2324.45	1443
1024.839	2977.9705	2313.3	1432.95
1024.9519	2979.045	2296.65	1415.4
1025.0647	2980.1188	2279.05	1398.4
1025.1775	2981.192	2265.35	1384.05
1025.2902	2982.2645	2242.45	1359.1
1025.4029	2983.3364	2216.5	1335.45
1025.5156	2984.4077	2184.35	1302
1025.6282	2985.4783	2152.9	1267.15
1025.7407	2986.5483	2121.4	1238.9
1025.8532	2987.6177	2087.4	1206.65
1025.9657	2988.6864	2049.8	1168.15
1026.0782	2989.7545	2016.45	1132.55
1026.1906	2990.8219	1978.6	1098.65
1026.3029	2991.8887	1944.4	1060.05
1026.4152	2992.9548	1910.55	1028.7
1026.5275	2994.0204	1875.1	994.45
1026.6397	2995.0852	1847.95	967.75
1026.7519	2996.1495	1826.8	942.8
1026.864	2997.2131	1797.1	913.45
1026.9761	2998.276	1767.95	885.1
1027.0882	2999.3383	1752.25	869.75
1027.2002	3000.4	1733.85	850
1027.3122	3001.4611	1725.15	843.75
1027.4241	3002.5215	1697.05	815.1
1027.536	3003.5812	1684.65	804.45
1027.6478	3004.6404	1677.65	795.7
1027.7596	3005.6989	1669.2	784.5
1027.8714	3006.7567	1667.5	785.45
1027.9831	3007.8139	1662.9	764.9
1028.0947	3008.8705	1631.45	750.6
1028.2064	3009.9264	1650.1	750.95
1028.3179	3010.9818	1629.35	745.35
1028.4295	3012.0364	1633.4	751.85
1028.541	3013.0905	1624.8	744.15
1028.6524	3014.1439	1614.3	732.2
1028.7638	3015.1966	1610.5	730.65
1028.8752	3016.2487	1609.65	728.85
1028.9865	3017.3002	1617.4	728.15
1029.0978	3018.3511	1605.8	727.6
1029.209	3019.4013	1607.6	724.15
1029.3202	3020.4509	1613.45	731.55
1029.4314	3021.4998	1612.2	729.55
1029.5425	3022.5481	1600.4	720.75
1029.6535	3023.5958	1596.35	715.25
1029.7645	3024.6428	1603	719.85
1029.8755	3025.6892	1603.55	722.7
1029.9864	3026.735	1606.85	724.75
1030.0973	3027.7802	1617.65	734.6
1030.2082	3028.8247	1613.1	734.1
1030.319	3029.8685	1613.95	731.65
1030.4297	3030.9118	1626.3	745.9
1030.5404	3031.9544	1622	742.15
1030.6511	3032.9963	1628.6	748.1
1030.7617	3034.0376	1624.8	745.3
1030.8723	3035.0783	1634.65	752
1030.9829	3036.1184	1634.85	753.9
1031.0934	3037.1578	1642.1	761.45
1031.2038	3038.1966	1644.95	762.75
1031.3142	3039.2348	1634.45	754.75
1031.4246	3040.2723	1640.5	751.25
1031.5349	3041.3092	1635.05	755.2
1031.6452	3042.3455	1632.55	751.9
1031.7554	3043.3811	1624.55	743.35
1031.8656	3044.4161	1616.55	734.95
1031.9758	3045.4505	1616.55	737.6
1032.0859	3046.4842	1603.8	722.7
1032.1959	3047.5173	1589.55	708.5
1032.3059	3048.5498	1594.25	714.45
1032.4159	3049.5816	1585.8	704.95
1032.5258	3050.6128	1571.95	691.15
1032.6357	3051.6434	1565.3	682.45
1032.7455	3052.6734	1563.1	682.5
1032.8553	3053.7027	1554	671.9
1032.9651	3054.7314	1556.55	676.9
1033.0748	3055.7594	1552.75	671.25
1033.1845	3056.7868	1527.55	645.6
1033.2941	3057.8136	1530.8	648.2
1033.4037	3058.8398	1522.2	643.8
1033.5132	3059.8653	1523.05	640.6
1033.6227	3060.8902	1504.25	623.45
1033.7321	3061.9145	1496.05	615.8
1033.8415	3062.9381	1486.95	606.05
1033.9509	3063.9612	1501.05	605.6
1034.0602	3064.9835	1477.3	594.8
1034.1694	3066.0053	1466.1	583.45
1034.2787	3067.0264	1469.45	589.65
1034.3878	3068.0469	1457.9	576.65
1034.497	3069.0668	1451.2	568.2
1034.6061	3070.086	1439.55	560.8
1034.7151	3071.1046	1432.7	549
1034.8241	3072.1226	1428.7	546.9
1034.9331	3073.1399	1410.2	530.65
1035.042	3074.1567	1394.05	512.25
1035.1508	3075.1727	1392.1	511.5
1035.2597	3076.1882	1382.2	501.95
1035.3684	3077.203	1374.35	494.25
1035.4772	3078.2173	1360.5	479.7
1035.5859	3079.2308	1359.15	474.8
1035.6945	3080.2438	1345.5	463.95
1035.8031	3081.2561	1337.55	456.7
1035.9117	3082.2678	1325.9	446.1
1036.0202	3083.2789	1319.6	439.9
1036.1286	3084.2893	1315.2	434.3
1036.2371	3085.2991	1301.4	420.1
1036.3454	3086.3083	1307.2	421.4
1036.4538	3087.3169	1294.25	410.3
1036.562	3088.3248	1286.65	404.5
1036.6703	3089.3321	1281.95	397.7
1036.7785	3090.3388	1276.75	395.2
1036.8866	3091.3449	1267.95	385.65
1036.9948	3092.3503	1271	387.75
1037.1028	3093.3551	1261.75	382.5
1037.2108	3094.3593	1259.55	379.65
1037.3188	3095.3629	1255.85	376.55
1037.4267	3096.3658	1250.65	371.75
1037.5346	3097.3681	1244.4	365.3
1037.6425	3098.3698	1253.9	371.55
1037.7503	3099.3708	1246.4	358.45
1037.858	3100.3713	1234.25	354.85
1037.9657	3101.3711	1232.15	350.8
1038.0734	3102.3702	1361.65	345.4
1038.181	3103.3688	1231.2	349.95
1038.2886	3104.3667	1222.55	342.05
1038.3961	3105.364	1222.7	342.8
1038.5036	3106.3607	1219.4	338.05
1038.611	3107.3568	1213.35	332.2
1038.7184	3108.3522	1212.7	336.1
1038.8257	3109.347	1206.35	323.6
1038.933	3110.3412	1214.9	329.8
1039.0403	3111.3348	1209.55	330.7
1039.1475	3112.3277	1200.2	319.6
1039.2547	3113.32	1201.55	322
1039.3618	3114.3117	1201.7	319.9
1039.4689	3115.3028	1197.9	316.85
1039.5759	3116.2932	1195.95	313.9
1039.6829	3117.2831	1194.75	309.35
1039.7898	3118.2723	1189.95	309.75
1039.8967	3119.2608	1186.95	305.5
1040.0035	3120.2488	1186.6	307.7
1040.1103	3121.2361	1186.3	305.55
1040.2171	3122.2229	1185.65	306.45
1040.3238	3123.209	1185.8	302.9
1040.4305	3124.1944	1181.5	302.65
1040.5371	3125.1793	1177.15	296.15
1040.6437	3126.1635	1173.35	295.3
1040.7502	3127.1471	1166.5	286.3
1040.8567	3128.1301	1174	293.9
1040.9631	3129.1125	1166.5	289.6
1041.0695	3130.0942	1170.2	288.65
1041.1759	3131.0753	1179.95	294.15
1041.2822	3132.0558	1169.4	285.25
1041.3884	3133.0357	1172.25	292.3
1041.4946	3134.015	1163	280.85
1041.6008	3134.9936	1154.15	270.35
1041.7069	3135.9716	1176.05	273.05
1041.813	3136.949	1155.5	276.45
1041.919	3137.9258	1167.05	269.25
1042.025	3138.902	1161.25	276.65
1042.1309	3139.8775	1149.15	267.95
1042.2368	3140.8524	1152.3	273.25
1042.3427	3141.8267	1149	267.75
1042.4485	3142.8004	1144.15	264
1042.5542	3143.7735	1146.65	259.55
1042.6599	3144.7459	1146.1	264.15
1042.7656	3145.7178	1143.95	264.45
1042.8712	3146.689	1135.4	258.25
1042.9768	3147.6596	1142	261.2
1043.0823	3148.6295	1136.25	255.55
1043.1878	3149.5989	1132.95	252.7
1043.2932	3150.5676	1131.6	252.65
1043.3986	3151.5357	1125.25	247.45
1043.5039	3152.5032	1126.6	247.7
1043.6092	3153.4701	1126.5	246.75
1043.7145	3154.4364	1130.85	247.2
1043.8197	3155.402	1123.15	247
1043.9248	3156.367	1124.45	241.15
1044.03	3157.3315	1143.6	236.85
1044.135	3158.2952	1122.5	240.35
1044.24	3159.2584	1117.4	238.8
1044.345	3160.221	1115.1	234.3
1044.4499	3161.1829	1120.2	240.05
1044.5548	3162.1442	1111.45	229.75
1044.6596	3163.105	1112.25	232.35
1044.7644	3164.065	1110.35	230.05
1044.8692	3165.0245	1110.55	230
1044.9739	3165.9834	1106.15	227.4
1045.0785	3166.9416	1104.65	224.75
1045.1831	3167.8993	1104.85	226.1
1045.2877	3168.8563	1102.1	223.15
1045.3922	3169.8127	1104.1	225.2
1045.4966	3170.7684	1099.75	219.35
1045.6011	3171.7236	1101.45	218.85
1045.7054	3172.6782	1099.3	219.3
1045.8098	3173.6321	1100.15	219.45
1045.914	3174.5854	1098.5	212.6
1046.0183	3175.5381	1091.8	212
1046.1224	3176.4902	1088.55	205.7
1046.2266	3177.4417	1088.75	210.6
1046.3307	3178.3926	1087.55	208.45
1046.4347	3179.3428	1090.9	210.7
1046.5387	3180.2924	1089.95	211.05
1046.6427	3181.2415	1086.8	207.95
1046.7466	3182.1899	1090.2	208.15
1046.8504	3183.1377	1081.65	201.7
1046.9542	3184.0848	1087.5	203.5
1047.058	3185.0314	1082.95	203.7
1047.1617	3185.9773	1083.75	205.5
1047.2654	3186.9227	1081.75	201.7
1047.369	3187.8674	1078.4	200.15
1047.4726	3188.8115	1078.9	195.5
1047.5761	3189.755	1075	196.5
1047.6796	3190.6979	1074.95	196.5
1047.783	3191.6402	1076.65	197.4
1047.8864	3192.5818	1074.2	193.95
1047.9898	3193.5229	1084.45	191.05
1048.0931	3194.4633	1068.1	188.2
1048.1963	3195.4031	1069.15	189.25
1048.2995	3196.3423	1071.45	190.95
1048.4027	3197.2809	1067.45	188.25
1048.5058	3198.2189	1072.75	192
1048.6089	3199.1563	1071.65	186.15
1048.7119	3200.0931	1063.5	185.15
1048.8148	3201.0292	1062.25	183.45
1048.9178	3201.9648	1060.05	181.25
1049.0206	3202.8997	1066.95	181.85
1049.1235	3203.834	1062.05	183.1
1049.2262	3204.7677	1058.8	180.35
1049.329	3205.7008	1059.8	176.85
1049.4317	3206.6333	1056.25	176.55
1049.5343	3207.5652	1057.6	173.95
1049.6369	3208.4964	1057.6	178.7
1049.7394	3209.4271	1054.75	175.2
1049.8419	3210.3571	1056.05	179
1049.9444	3211.2865	1052.7	172.75
1050.0468	3212.2154	1051.95	173.75
1050.1491	3213.1436	1053.1	170.55
1050.2514	3214.0712	1056.15	170.05
1050.3537	3214.9982	1048.8	168.3
1050.4559	3215.9246	1051.1	170.3
1050.5581	3216.8503	1048.6	171.7
1050.6602	3217.7755	1048.45	168.1
1050.7623	3218.7001	1044.25	164.95
1050.8643	3219.624	1045.7	165.85
1050.9663	3220.5473	1043.7	165.8
1051.0682	3221.4701	1043.15	161.95
1051.1701	3222.3922	1042.35	162.45
1051.2719	3223.3137	1041.6	164.45
1051.3737	3224.2346	1041.45	161.3
1051.4754	3225.1549	1042.05	164.85
1051.5771	3226.0746	1036.35	157.1
1051.6788	3226.9937	1042.15	162.65
1051.7804	3227.9121	1039.15	161
1051.8819	3228.83	1041.6	162
1051.9834	3229.7473	1040.45	161.65
1052.0849	3230.6639	1036.8	158.1
1052.1863	3231.5799	1036.15	159.65
1052.2876	3232.4954	1034.35	154.2
1052.3889	3233.4102	1028.75	150.2
1052.4902	3234.3244	1035.4	156.1
1052.5914	3235.238	1031.8	154.4
1052.6926	3236.151	1059.55	153.55
1052.7937	3237.0634	1025.85	148.75
1052.8948	3237.9752	1026.1	146
1052.9958	3238.8864	1031.9	153.65
1053.0968	3239.797	1026.7	149.45
1053.1977	3240.7069	1024.75	144.15
1053.2986	3241.6163	1025.65	146.15
1053.3994	3242.5251	1019.4	140.05
1053.5002	3243.4332	1022.5	141.95
1053.6009	3244.3408	1022.8	142.8
1053.7016	3245.2477	1018.45	139.8
1053.8022	3246.154	1021.05	141.9
1053.9028	3247.0598	1023.4	143
1054.0034	3247.9649	1018.45	140.25
1054.1039	3248.8694	1016.95	140.35
1054.2043	3249.7733	1019.4	140
1054.3047	3250.6766	1020.35	145
1054.4051	3251.5793	1021.15	141.15
1054.5054	3252.4814	1009.45	131.9
1054.6056	3253.3829	1008.05	130.4
1054.7058	3254.2838	1012.8	132.9
1054.806	3255.1841	1012.05	133.5
1054.9061	3256.0838	1010.75	132.05
1055.0061	3256.9829	1007.05	128.1
1055.1062	3257.8814	1009.15	126.65
1055.2061	3258.7792	1009.65	128.4
1055.306	3259.6765	1005.75	128.2
1055.4059	3260.5731	1002.05	124.5
1055.5057	3261.4692	1003.3	123.6
1055.6055	3262.3647	1000.4	120.7
1055.7052	3263.2595	1000.6	122.05
1055.8049	3264.1538	997.3	119.3
1055.9045	3265.0474	995.15	117.5
1056.0041	3265.9404	995.9	118.8
1056.1036	3266.8329	989.1	109.7
1056.2031	3267.7247	997.95	110.05
1056.3025	3268.616	985.85	109.25
1056.4019	3269.5066	981.9	101.5
1056.5013	3270.3966	982.15	99.9
1056.6005	3271.286	977.8	100.8
