Software Version:	3.9.2.0
Unit SN:	10000200
Spectrometer SN:	6960
Date:	3/26/2024 2:56:12 PM
Data Line Index:	25
Spectral Points:	2048
Integration time (ms):	125
Averages:	20
Delay (ms):	30000
Sequence Number:	1
Processing:	dark subtract
Laser Power (mW):	300
Laser Current (mA):	819
Laser Diode Temp (C):	25
Laser Case Temp (C):	28
System Temp (C):	28.1
Spectrometer Temp (C):	25.9
CCD Temp (C):	0.009
Secondary Temp (C):	20.013
Heatsink Temp (C):	23.415
CCDPCB Temp (C):	37.619
SecondaryPCB Temp (C):	34.951

Wavelength	RamanShift	Raw Counts	Dark Subtracted
787.061	30.1047	654.8	246.05
787.2016	32.3739	666.8	259.6
787.3422	34.6426	686.25	278.7
787.4828	36.9109	710.85	299.25
787.6235	39.1787	723.75	308.6
787.7642	41.4461	753.15	332.25
787.9049	43.7131	776.5	352.2
788.0456	45.9796	798.6	372.5
788.1863	48.2456	824.75	393.75
788.3271	50.5112	857.95	422.4
788.4679	52.7764	888.15	451.05
788.6087	55.0411	919.1	477.7
788.7496	57.3054	952.3	504.1
788.8904	59.5692	985.75	535.85
789.0313	61.8326	1025.1	572.95
789.1722	64.0955	1056.15	599.4
789.3132	66.3579	1114.3	650.85
789.4541	68.6199	1170.45	704.75
789.5951	70.8815	1277.05	809.35
789.7361	73.1426	1495	1023.2
789.8771	75.4032	2023.7	1544.3
790.0181	77.6634	3379.45	2896.45
790.1592	79.9231	6764.55	6271.55
790.3003	82.1824	14547.55	14036.95
790.4414	84.4412	33606.1	33060.95
790.5825	86.6995	60872.7	60279.25
790.7237	88.9574	65535	64898.3
790.8648	91.2148	65535	64869.1
791.006	93.4717	65535	64850.1
791.1472	95.7282	65535	64834.2
791.2885	97.9842	65535	64826.9
791.4297	100.2398	65535	64827.6
791.571	102.4949	65535	64829.9
791.7123	104.7495	65535	64823.4
791.8536	107.0036	65535	64821.65
791.9949	109.2573	65535	64821.55
792.1363	111.5105	65535	64818.15
792.2777	113.7632	65535	64818.9
792.4191	116.0154	65535	64808.2
792.5605	118.2672	65535	64809.85
792.7019	120.5185	65535	64816
792.8434	122.7693	65535	64811.1
792.9849	125.0197	65535	64806.9
793.1264	127.2696	65535	64803.55
793.2679	129.519	65535	64805.85
793.4094	131.7679	65535	64790.9
793.551	134.0163	65535	64791.25
793.6926	136.2642	65535	64785.9
793.8342	138.5117	65535	64784.6
793.9758	140.7587	65535	64778.25
794.1175	143.0052	65535	64784.55
794.2591	145.2512	65535	64784.9
794.4008	147.4967	65535	64782.1
794.5425	149.7417	65535	64781.05
794.6842	151.9863	65535	64774.95
794.826	154.2304	65535	64769.25
794.9677	156.4739	65535	64766.55
795.1095	158.717	65535	64767.9
795.2513	160.9596	65535	64760.4
795.3931	163.2017	65535	64761.95
795.535	165.4433	65535	64762.1
795.6768	167.6844	65535	64761.95
795.8187	169.925	65535	64753
795.9606	172.1651	65535	64758.4
796.1025	174.4047	65535	64755.25
796.2445	176.6439	65535	64755.6
796.3864	178.8825	65535	64748.9
796.5284	181.1206	65535	64740.1
796.6704	183.3582	65535	64740.1
796.8124	185.5954	65535	64737.4
796.9544	187.832	65535	64728
797.0965	190.0681	65535	64734.1
797.2386	192.3037	65535	64724.3
797.3806	194.5388	65535	64722.3
797.5228	196.7734	65535	64723.3
797.6649	199.0075	65535	64715.5
797.807	201.2411	65535	64709.85
797.9492	203.4742	65535	64715.15
798.0914	205.7068	65535	64716.15
798.2336	207.9389	65535	64714.95
798.3758	210.1704	65535	64712
798.518	212.4015	65535	64710.9
798.6603	214.632	65535	64713.6
798.8025	216.862	65535	64723.25
798.9448	219.0915	65535	64727.9
799.0871	221.3205	65535	64726.25
799.2294	223.549	65535	64734.95
799.3718	225.777	65535	64730.85
799.5141	228.0044	65535	64725.5
799.6565	230.2314	65535	64729.25
799.7989	232.4578	65535	64730.8
799.9413	234.6837	65535	64722.55
800.0837	236.909	65535	64721.1
800.2262	239.1339	65535	64694.4
800.3687	241.3582	65535	64704
800.5111	243.582	65535	64679.25
800.6536	245.8053	65535	64694.55
800.7961	248.0281	65535	64699.5
800.9387	250.2503	65535	64692.05
801.0812	252.472	65535	64689.8
801.2238	254.6932	65535	64685.95
801.3664	256.9139	65535	64691.6
801.509	259.134	65535	64677.65
801.6516	261.3536	65535	64681.25
801.7942	263.5727	65535	64682.3
801.9369	265.7912	65535	64682.05
802.0795	268.0092	65535	64685.85
802.2222	270.2267	65535	64680.5
802.3649	272.4436	65535	64684.65
802.5076	274.6601	65535	64676.55
802.6504	276.8759	65535	64683.6
802.7931	279.0913	65535	64674.1
802.9359	281.3061	65535	64676
803.0787	283.5204	65535	64671.75
803.2215	285.7341	65535	64669.25
803.3643	287.9473	65535	64656.8
803.5071	290.16	65535	64660.5
803.6499	292.3721	65535	64667.7
803.7928	294.5837	65535	64665.55
803.9357	296.7947	65535	64666.35
804.0786	299.0052	65535	64667.85
804.2215	301.2152	65535	64664.65
804.3644	303.4246	65535	64675.3
804.5074	305.6334	65535	64671.6
804.6503	307.8418	65535	64670.7
804.7933	310.0495	65535	64664.7
804.9363	312.2568	65535	64664.8
805.0793	314.4635	65535	64661.5
805.2223	316.6696	65535	64657.5
805.3653	318.8752	65535	64651
805.5084	321.0802	65535	64660.3
805.6514	323.2847	65535	64655.95
805.7945	325.4887	65535	64656.8
805.9376	327.692	65535	64656.4
806.0807	329.8949	65535	64652.6
806.2238	332.0972	65535	64656.95
806.367	334.2989	65535	64648.8
806.5101	336.5001	65535	64648.7
806.6533	338.7007	65535	64646.4
806.7965	340.9008	65535	64646.75
806.9397	343.1003	65535	64648.15
807.0829	345.2992	65535	64647.55
807.2261	347.4976	65535	64644.95
807.3693	349.6955	65535	64638.8
807.5126	351.8927	65535	64638.85
807.6559	354.0895	65535	64630.1
807.7991	356.2856	65535	64636.4
807.9424	358.4812	65535	64639.25
808.0857	360.6763	65535	64641.8
808.2291	362.8707	65535	64642.25
808.3724	365.0646	65535	64637.9
808.5158	367.258	65535	64636.55
808.6591	369.4508	65535	64629.55
808.8025	371.643	65535	64627.55
808.9459	373.8346	65535	64627.75
809.0893	376.0257	65535	64624.45
809.2327	378.2162	65535	64627.3
809.3762	380.4062	65535	64624.9
809.5196	382.5956	65535	64624.3
809.6631	384.7844	65535	64627.25
809.8066	386.9726	65535	64633.7
809.9501	389.1603	65535	64629.55
810.0936	391.3474	65535	64587.9
810.2371	393.5339	65535	64627.6
810.3806	395.7199	65535	64635.45
810.5241	397.9052	65535	64636.35
810.6677	400.09	65535	64636.9
810.8113	402.2743	65535	64638.75
810.9548	404.4579	65535	64635.35
811.0984	406.641	65535	64637.1
811.2421	408.8235	65535	64640.75
811.3857	411.0054	65535	64640.35
811.5293	413.1868	65535	64632.55
811.673	415.3675	65535	64627.8
811.8166	417.5477	65535	64628.3
811.9603	419.7273	65535	64631.1
812.104	421.9064	65535	64623.45
812.2477	424.0848	65535	64632.4
812.3914	426.2627	65535	64628.6
812.5351	428.4399	65535	64623.4
812.6788	430.6166	65535	64617.85
812.8226	432.7928	65535	64622.6
812.9663	434.9683	65535	64622.75
813.1101	437.1432	65535	64626.75
813.2539	439.3176	65535	64624.3
813.3977	441.4914	65535	64628.95
813.5415	443.6645	65535	64625.1
813.6853	445.8371	65535	64619.35
813.8291	448.0091	65535	64619.65
813.973	450.1806	65535	64624.05
814.1168	452.3514	65535	64628.35
814.2607	454.5216	65535	64617.6
814.4046	456.6913	65535	64621.05
814.5485	458.8603	65535	64623.95
814.6924	461.0288	65535	64628.15
814.8363	463.1967	65535	64631.65
814.9802	465.3639	65535	64626.75
815.1241	467.5306	65535	64620.75
815.2681	469.6967	65535	64625.9
815.412	471.8622	65535	64629.55
815.556	474.0271	65535	64626
815.7	476.1914	65535	64618.55
815.844	478.3551	65535	64621.75
815.988	480.5182	65535	64626.4
816.132	482.6807	65535	64635.2
816.276	484.8426	65535	64635.7
816.4201	487.0039	65535	64635.8
816.5641	489.1647	65535	64624.8
816.7082	491.3248	65535	64620.65
816.8522	493.4843	65535	64627.6
816.9963	495.6432	65535	64630.1
817.1404	497.8015	65535	64615.9
817.2845	499.9592	65535	64610.8
817.4286	502.1163	65535	64608.8
817.5727	504.2728	65535	64621.6
817.7168	506.4287	65535	64631.35
817.861	508.5839	65535	64626.05
818.0051	510.7386	65535	64625.1
818.1493	512.8927	65535	64611.65
818.2935	515.0461	65535	64611.95
818.4377	517.199	65535	64611.7
818.5818	519.3512	65535	64613.7
818.726	521.5029	65535	64611.8
818.8703	523.6539	65535	64616.4
819.0145	525.8043	65535	64615.45
819.1587	527.9541	65535	64608.9
819.303	530.1033	65535	64615.65
819.4472	532.2519	65535	64610
819.5915	534.3999	65535	64611
819.7357	536.5472	65535	64616.15
819.88	538.694	65535	64618.7
820.0243	540.8401	65535	64611.5
820.1686	542.9856	65535	64605.4
820.3129	545.1305	65535	64594.55
820.4572	547.2748	65535	64595.5
820.6016	549.4185	65535	64594.35
820.7459	551.5615	65535	64596.65
820.8902	553.704	65535	64595.85
821.0346	555.8458	65535	64604.6
821.1789	557.987	65535	64603.05
821.3233	560.1276	65535	64602.65
821.4677	562.2675	65535	64600.4
821.6121	564.4069	65535	64603.3
821.7565	566.5456	65535	64606
821.9009	568.6837	65535	64604.25
822.0453	570.8212	65535	64609.25
822.1897	572.958	65535	64606.1
822.3342	575.0942	65535	64612.25
822.4786	577.2299	65535	64614.8
822.6231	579.3648	65535	64624.45
822.7675	581.4992	65535	64633.85
822.912	583.6329	65535	64632.75
823.0565	585.766	65535	64632.45
823.201	587.8985	65535	64625.05
823.3454	590.0304	65535	64606.7
823.4899	592.1616	65535	64611.25
823.6345	594.2922	65535	64604.25
823.779	596.4222	65535	64602.2
823.9235	598.5515	65535	64599.25
824.068	600.6802	65535	64603.8
824.2126	602.8083	65535	64603.45
824.3571	604.9358	65535	64602.3
824.5017	607.0626	65535	64597.35
824.6462	609.1888	65535	64589.7
824.7908	611.3144	65535	64592.95
824.9354	613.4393	65535	64594.95
825.08	615.5636	65535	64590.4
825.2246	617.6873	65535	64598.15
825.3692	619.8103	65535	64597.1
825.5138	621.9327	65535	64599.35
825.6584	624.0544	65535	64600.25
825.803	626.1756	65535	64605.2
825.9477	628.2961	65535	64598.3
826.0923	630.4159	65535	64598.75
826.237	632.5351	65535	64595.65
826.3816	634.6537	65535	64602.35
826.5263	636.7716	65535	64591.75
826.6709	638.8889	65535	64591.5
826.8156	641.0056	65535	64589.6
826.9603	643.1216	65535	64588.4
827.105	645.237	65535	64593.55
827.2497	647.3518	65535	64599.7
827.3944	649.4659	65535	64605
827.5391	651.5793	65535	64605.9
827.6838	653.6922	65535	64599.2
827.8285	655.8043	65535	64601.45
827.9733	657.9159	65535	64597
828.118	660.0268	65535	64601.15
828.2627	662.137	65535	64594.5
828.4075	664.2466	65535	64590.35
828.5522	666.3556	65535	64593.45
828.697	668.4639	65535	64594.7
828.8418	670.5716	65535	64598.2
828.9865	672.6786	65535	64596.15
829.1313	674.785	65535	64592.05
829.2761	676.8907	65535	64596.2
829.4209	678.9958	65535	64601.55
829.5657	681.1002	65535	64594.25
829.7105	683.204	65535	64584.75
829.8553	685.3072	65535	64586
830.0001	687.4097	65535	64591.85
830.1449	689.5115	65535	64590.5
830.2898	691.6127	65535	64594.6
830.4346	693.7132	65535	64598.25
830.5794	695.8131	65535	64573.05
830.7243	697.9123	65535	64589.85
830.8691	700.0109	65535	64586.3
831.014	702.1089	65535	64589.3
831.1588	704.2061	65535	64595.2
831.3037	706.3028	65535	64588.2
831.4486	708.3987	65535	64590.6
831.5935	710.4941	65535	64589.95
831.7383	712.5887	65535	64590.95
831.8832	714.6827	65535	64592.6
832.0281	716.7761	65535	64595.75
832.173	718.8688	65535	64593.4
832.3179	720.9608	65535	64587.5
832.4628	723.0522	65535	64583.6
832.6077	725.1429	65535	64584.6
832.7527	727.233	65535	64589.7
832.8976	729.3224	65535	64586.9
833.0425	731.4112	65535	64591.95
833.1874	733.4993	65535	64588.25
833.3324	735.5867	65535	64587.15
833.4773	737.6735	65535	64583.45
833.6222	739.7596	65535	64584.35
833.7672	741.845	65535	64587.35
833.9122	743.9298	65535	64588.55
834.0571	746.014	65535	64587.75
834.2021	748.0974	65535	64580.1
834.347	750.1802	65535	64580.7
834.492	752.2624	65535	64587.9
834.637	754.3439	65535	64581.25
834.782	756.4247	65535	64578.55
834.9269	758.5048	65535	64586.6
835.0719	760.5843	65535	64579.4
835.2169	762.6631	65535	64587.25
835.3619	764.7413	65535	64588.15
835.5069	766.8188	65535	64580.9
835.6519	768.8956	65535	64586.4
835.7969	770.9718	65535	64584.4
835.9419	773.0473	65535	64583.55
836.0869	775.1221	65535	64589.25
836.232	777.1962	65535	64581.95
836.377	779.2697	65535	64582.9
836.522	781.3426	65535	64572.7
836.667	783.4147	65535	64584
836.8121	785.4862	65535	64584.25
836.9571	787.557	65535	64582.45
837.1021	789.6271	65535	64580.15
837.2472	791.6966	65535	64582.9
837.3922	793.7654	65512.95	64559
837.5373	795.8335	65514.95	64564.7
837.6823	797.901	65517.25	64565.85
837.8274	799.9678	65509.5	64555.5
837.9724	802.0339	65495.25	64542.6
838.1175	804.0993	65504.5	64539.6
838.2626	806.1641	65476.8	64521.3
838.4076	808.2282	65458.4	64503.7
838.5527	810.2916	65408	64454.35
838.6978	812.3544	65493.7	64545.4
838.8428	814.4164	65342.1	64392.75
838.9879	816.4778	65341.6	64383.7
839.133	818.5385	65363.45	64408
839.2781	820.5986	65343.05	64386.05
839.4232	822.658	65352.85	64394.2
839.5682	824.7166	65377.2	64425.4
839.7133	826.7747	65162	64204.5
839.8584	828.832	65227.25	64270.15
840.0035	830.8886	65375.25	64417.1
840.1486	832.9446	65377.2	64422.05
840.2937	834.9999	65036.35	64083.55
840.4388	837.0545	65229.75	64273.65
840.5839	839.1085	65362.65	64408.95
840.729	841.1618	65293.1	64335.45
840.8741	843.2143	65021.5	64067.8
841.0192	845.2662	65007.5	64051.1
841.1643	847.3175	65099.5	64142.55
841.3095	849.368	64662.2	63708.3
841.4546	851.4179	65016.3	64058.15
841.5997	853.467	64734.9	63780.55
841.7448	855.5155	64869.35	63917.45
841.8899	857.5633	64485.95	63530.4
842.0351	859.6105	64281.6	63326.6
842.1802	861.6569	64534.25	63573.25
842.3253	863.7027	63925	62967.25
842.4704	865.7478	64143.8	63187.65
842.6156	867.7922	64019.4	63062.85
842.7607	869.8359	64377.65	63417.2
842.9058	871.8789	63674.45	62717.35
843.0509	873.9212	64135.15	63146.9
843.1961	875.9629	64297.75	63342
843.3412	878.0039	64151.35	63193.25
843.4863	880.0441	63905.15	62950.3
843.6315	882.0837	63872.65	62915
843.7766	884.1226	63742.6	62785.5
843.9218	886.1609	63580.3	62624.5
844.0669	888.1984	63221.2	62265.15
844.212	890.2352	63717.25	62761.95
844.3572	892.2714	62991.4	62028.15
844.5023	894.3069	63270.6	62315.85
844.6475	896.3416	62881.6	61923.65
844.7926	898.3757	62765.9	61810.85
844.9377	900.4091	61874.95	60916.85
845.0829	902.4418	63055.35	62096.95
845.228	904.4739	62409.95	61448.3
845.3732	906.5052	62464.05	61503.8
845.5183	908.5358	62046.55	61086.5
845.6635	910.5658	61721.85	60761.75
845.8086	912.595	61676.8	60717.25
845.9538	914.6236	60834.2	59877.1
846.0989	916.6515	62072.05	61113.85
846.2441	918.6786	60739.75	59777.15
846.3892	920.7051	61053.4	60092.45
846.5344	922.7309	60856.65	59895.75
846.6795	924.756	61120.65	60163.65
846.8246	926.7804	60686.45	59725.95
846.9698	928.8041	59980.3	59022.05
847.1149	930.8272	60486.25	59528.35
847.2601	932.8495	60423.35	59462.85
847.4052	934.8711	59733.4	58771.5
847.5504	936.892	59366.35	58407.15
847.6955	938.9123	59467.4	58508.25
847.8407	940.9318	59002.95	58043
847.9858	942.9506	58835.9	57880.2
848.131	944.9688	58894.75	57935.85
848.2761	946.9862	58068.6	57106.7
848.4213	949.003	58317.85	57358.4
848.5664	951.019	57618.85	56660.05
848.7115	953.0344	57821.85	56862.45
848.8567	955.0491	57676.5	56720.55
849.0018	957.063	57900.75	56943.85
849.147	959.0763	57947.65	56980.75
849.2921	961.0888	57537.85	56575.25
849.4373	963.1007	57839.55	56883.2
849.5824	965.1119	57744.55	56794.45
849.7275	967.1223	57425.1	56482.75
849.8727	969.1321	57756.65	56809.9
850.0178	971.1412	57189	56241.4
850.1629	973.1495	56976.4	56024.8
850.3081	975.1572	57118.85	56131
850.4532	977.1641	56942.2	55986.1
850.5983	979.1704	56707.3	55751.5
850.7435	981.1759	56725.8	55763
850.8886	983.1808	56481.5	55524.75
851.0337	985.1849	56467.95	55504.15
851.1788	987.1884	56563.05	55603.5
851.324	989.1911	56949.85	55995.8
851.4691	991.1932	56279.1	55322
851.6142	993.1945	56351.1	55396.45
851.7593	995.1951	56385.15	55427.05
851.9045	997.1951	55966.15	55003.3
852.0496	999.1943	55693.8	54733.65
852.1947	1001.1928	55549.5	54591.35
852.3398	1003.1906	55541.3	54581.1
852.4849	1005.1877	55044.55	54085.3
852.63	1007.1841	54775.4	53815.9
852.7751	1009.1798	54535	53581.3
852.9202	1011.1748	54305.95	53348.5
853.0653	1013.1691	54018.95	53064.65
853.2104	1015.1627	53238.6	52280.65
853.3555	1017.1556	52942.9	51988.5
853.5006	1019.1477	52960.75	52005.7
853.6457	1021.1392	52463.9	51516.8
853.7908	1023.1299	52063.85	51119.05
853.9359	1025.12	52126.9	51187.45
854.081	1027.1093	51764.65	50836.3
854.2261	1029.0979	51748.7	50821.55
854.3712	1031.0859	51621.45	50687.65
854.5163	1033.0731	51233.95	50289.1
854.6613	1035.0596	51203.4	50252.3
854.8064	1037.0454	50791.95	49844.5
854.9515	1039.0304	50452.4	49502.75
855.0965	1041.0148	50026.6	49077.95
855.2416	1042.9985	49910.6	48954.4
855.3867	1044.9814	49948.85	48998.45
855.5317	1046.9636	49490.9	48537.95
855.6768	1048.9452	49338.5	48386
855.8219	1050.926	49220.7	48272.55
855.9669	1052.9061	49061.7	48110.95
856.112	1054.8855	48936.35	47982.6
856.257	1056.8642	48730.9	47774.1
856.4021	1058.8421	48682	47726.5
856.5471	1060.8194	48577.3	47621.8
856.6921	1062.7959	48384.15	47426.45
856.8372	1064.7717	48310.9	47358.6
856.9822	1066.7469	48154.9	47201.95
857.1272	1068.7213	48008.9	47053.3
857.2723	1070.695	47823.6	46871.65
857.4173	1072.6679	47495	46540.05
857.5623	1074.6402	47413.7	46461
857.7073	1076.6117	47273.3	46313.8
857.8523	1078.5826	47257.4	46303.55
857.9973	1080.5527	47127.7	46170.9
858.1423	1082.5221	47118.3	46164.45
858.2873	1084.4908	47348.5	46395.8
858.4323	1086.4587	47354.25	46401.8
858.5773	1088.426	47423.35	46471.2
858.7223	1090.3925	47216.95	46262.45
858.8673	1092.3584	47029.65	46078.2
859.0123	1094.3235	46587.3	45635.35
859.1573	1096.2879	46331.5	45378.65
859.3022	1098.2515	46168.05	45216.35
859.4472	1100.2145	46120.25	45169.4
859.5922	1102.1767	45997.45	45042.6
859.7371	1104.1382	46046.05	45095.45
859.8821	1106.099	46115.7	45164.05
860.027	1108.0591	46141.1	45188.7
860.172	1110.0185	46045.6	45092.05
860.3169	1111.9771	46070.7	45119.8
860.4619	1113.9351	45571.8	44621.7
860.6068	1115.8923	45075.7	44124.55
860.7517	1117.8488	44567.85	43614.6
860.8967	1119.8045	44088.35	43140.6
861.0416	1121.7596	43907.45	42954.95
861.1865	1123.7139	43685.9	42739.15
861.3314	1125.6675	43548.45	42598.1
861.4763	1127.6204	43588.45	42639.6
861.6212	1129.5726	43441	42489.35
861.7661	1131.524	43460.1	42508.9
861.911	1133.4748	43416.9	42466.85
862.0559	1135.4248	43204.95	42255.15
862.2008	1137.3741	43195	42246.25
862.3457	1139.3226	43027.8	42074.95
862.4905	1141.2705	42939.4	41987.95
862.6354	1143.2176	42626.6	41668.95
862.7803	1145.164	42597.35	41642.5
862.9251	1147.1097	42496.2	41544.8
863.07	1149.0546	42440	41490.9
863.2148	1150.9989	42279.85	41328.5
863.3597	1152.9424	41987.2	41036.45
863.5045	1154.8852	41740.5	40788.9
863.6493	1156.8272	41496.05	40545.05
863.7942	1158.7686	41403.2	40445.15
863.939	1160.7092	41096.8	40145.05
864.0838	1162.6491	40922	39969.85
864.2286	1164.5883	40969.85	40018.7
864.3734	1166.5267	40936.95	39989
864.5182	1168.4644	41048.7	40095.6
864.663	1170.4014	41051.6	40103.85
864.8078	1172.3377	41307.9	40360.35
864.9526	1174.2732	41367.65	40421.55
865.0974	1176.2081	41490.15	40541.55
865.2421	1178.1421	41502.9	40550.3
865.3869	1180.0755	41559.7	40611.9
865.5317	1182.0082	41378.75	40434.95
865.6764	1183.9401	41188.6	40241.55
865.8212	1185.8713	40908.1	39966.75
865.9659	1187.8017	40481.15	39547.4
866.1106	1189.7315	40165.55	39239.1
866.2554	1191.6605	39705.5	38776.85
866.4001	1193.5888	39446.4	38512.4
866.5448	1195.5163	39260.2	38320.2
866.6895	1197.4432	38992.35	38044.5
866.8342	1199.3693	38759.9	37815.9
866.9789	1201.2947	38635.65	37680.9
867.1236	1203.2193	38414.05	37469.65
867.2683	1205.1432	38390.35	37443.85
867.413	1207.0664	38283.55	37334.95
867.5576	1208.9889	38241.85	37289.95
867.7023	1210.9106	38191.9	37244.4
867.847	1212.8316	38090.55	37144.75
867.9916	1214.7519	38129.15	37176
868.1363	1216.6715	38013.5	37068.95
868.2809	1218.5903	37858.55	36912.55
868.4255	1220.5084	37666.75	36722.55
868.5701	1222.4257	37616.65	36669.8
868.7148	1224.3424	37312.2	36368.2
868.8594	1226.2583	37275.65	36327.15
869.004	1228.1735	37285.45	36340.9
869.1486	1230.0879	37198.3	36252.8
869.2932	1232.0016	37272.55	36326.9
869.4377	1233.9146	37212.6	36266.3
869.5823	1235.8269	36947.2	36000.7
869.7269	1237.7384	36777.65	35833.7
869.8715	1239.6492	36424.85	35482
870.016	1241.5592	36262.65	35317.35
870.1606	1243.4686	36054.4	35112.15
870.3051	1245.3772	35887	34942
870.4496	1247.285	35753.25	34806.8
870.5941	1249.1922	35507.75	34564.65
870.7387	1251.0986	35463.3	34520.65
870.8832	1253.0042	35311.7	34368.95
871.0277	1254.9092	35275.05	34335
871.1722	1256.8134	35287.45	34345.95
871.3167	1258.7169	35412	34469.75
871.4611	1260.6196	35419	34474.2
871.6056	1262.5216	35554	34611.8
871.7501	1264.4229	35618.75	34679.3
871.8945	1266.3234	35695.05	34752.55
872.039	1268.2232	35640.85	34696
872.1834	1270.1223	35524.3	34580
872.3278	1272.0207	35427.7	34487.05
872.4723	1273.9183	35256.5	34305.6
872.6167	1275.8151	35049.45	34108.9
872.7611	1277.7113	34911.4	33966.1
872.9055	1279.6067	34644.5	33702.55
873.0499	1281.5014	34398.55	33454.1
873.1943	1283.3953	34161.95	33218.25
873.3386	1285.2885	33986.45	33044.9
873.483	1287.181	33856.55	32912.2
873.6274	1289.0727	33863.1	32924.65
873.7717	1290.9637	33750.4	32808.45
873.9161	1292.854	33819.25	32876.75
874.0604	1294.7435	33871.85	32930.85
874.2047	1296.6323	34070.25	33131.8
874.349	1298.5204	34231.7	33284.9
874.4933	1300.4077	34462.9	33519.25
874.6376	1302.2943	34532.95	33592.6
874.7819	1304.1802	34560.25	33621.4
874.9262	1306.0653	34335.75	33391.7
875.0705	1307.9497	34179.5	33236.15
875.2147	1309.8333	34090	33147.25
875.359	1311.7162	33993.8	33052.85
875.5032	1313.5984	34046.4	33101.45
875.6475	1315.4798	34126.6	33175.05
875.7917	1317.3605	34197.7	33255.15
875.9359	1319.2405	34331.9	33387.15
876.0801	1321.1197	34260.5	33318.65
876.2243	1322.9982	34144.15	33197.05
876.3685	1324.876	34153.95	33214.45
876.5127	1326.753	33988.95	33046.65
876.6569	1328.6293	33924.6	32980.7
876.801	1330.5048	34004.5	33059.25
876.9452	1332.3796	33881.5	32940.8
877.0893	1334.2537	33868.3	32903.75
877.2335	1336.127	33659.05	32719.3
877.3776	1337.9996	33527.8	32590.65
877.5217	1339.8714	33420	32479.7
877.6658	1341.7426	33310.1	32324.9
877.8099	1343.6129	33147.75	32205.15
877.954	1345.4826	32961.85	32018.7
878.0981	1347.3515	32951.4	32006.95
878.2422	1349.2196	32822.55	31880.7
878.3862	1351.087	32702.15	31761.6
878.5303	1352.9537	32675.9	31732.4
878.6743	1354.8197	32767.55	31823.55
878.8184	1356.6849	32941.15	31999.5
878.9624	1358.5493	32908.5	31968.1
879.1064	1360.4131	32840.45	31899.3
879.2504	1362.276	32652.8	31711.5
879.3944	1364.1383	32416.75	31478.5
879.5384	1365.9998	32113.3	31164.85
879.6823	1367.8606	31712.6	30768.75
879.8263	1369.7206	31366.45	30426.95
879.9702	1371.5799	31181	30237.3
880.1142	1373.4384	30944.25	30001.35
880.2581	1375.2962	30791.55	29847.65
880.402	1377.1533	30389.25	29451.75
880.5459	1379.0096	29962.5	29026.05
880.6898	1380.8652	29669.35	28733.2
880.8337	1382.7201	29395.35	28458.5
880.9776	1384.5742	29048.8	28108.15
881.1215	1386.4275	28829.7	27890.6
881.2653	1388.2802	28620.1	27682.7
881.4092	1390.132	28425.15	27484.2
881.553	1391.9832	28349.55	27409.4
881.6968	1393.8336	28148.7	27209.8
881.8406	1395.6832	28044.1	27102.6
881.9844	1397.5322	27884.95	26948.3
882.1282	1399.3803	27812	26867.05
882.272	1401.2278	27651.55	26710.45
882.4158	1403.0745	27558.5	26621.95
882.5595	1404.9204	27432.15	26496.4
882.7033	1406.7656	27401.35	26462.2
882.847	1408.6101	27311.2	26372.9
882.9908	1410.4538	27232.2	26292.8
883.1345	1412.2968	27166.95	26228.5
883.2782	1414.139	27086	26147.2
883.4219	1415.9805	27194.6	26257.15
883.5656	1417.8213	27159	26199.4
883.7092	1419.6613	27144	26208.25
883.8529	1421.5006	27279.25	26342.5
883.9965	1423.3391	27515.05	26577.2
884.1402	1425.1769	27773.05	26834.15
884.2838	1427.0139	28244.85	27305.75
884.4274	1428.8502	28823.65	27883.4
884.571	1430.6858	29345.25	28405.8
884.7146	1432.5206	29657	28719.15
884.8582	1434.3547	29844.75	28908.65
885.0018	1436.188	29783.05	28847.1
885.1453	1438.0206	29720.15	28783.05
885.2889	1439.8524	29503.9	28568.2
885.4324	1441.6835	29369.3	28429.95
885.5759	1443.5139	29219.05	28278.5
885.7194	1445.3435	29081.25	28149.1
885.8629	1447.1724	28994.15	28061.55
886.0064	1449.0005	28851.35	27921
886.1499	1450.8279	28663.85	27729.5
886.2933	1452.6545	28601.1	27665.95
886.4368	1454.4804	28614.9	27683.5
886.5802	1456.3056	28549.9	27609.95
886.7237	1458.13	28370.3	27438.7
886.8671	1459.9536	28161.7	27229.3
887.0105	1461.7766	27725.6	26791.4
887.1539	1463.5987	27214.25	26276.7
887.2972	1465.4202	26781.65	25847
887.4406	1467.2409	26351.8	25416.8
887.584	1469.0608	26092.2	25159.4
887.7273	1470.88	25755.65	24821.25
887.8706	1472.6984	25480.55	24545.35
888.0139	1474.5161	25234.3	24300.55
888.1572	1476.3331	24977.45	24044.35
888.3005	1478.1493	24829.1	23895
888.4438	1479.9648	24732.55	23801.75
888.5871	1481.7795	24574.5	23643.2
888.7303	1483.5935	24454.7	23521.5
888.8736	1485.4067	24363.4	23430.15
889.0168	1487.2192	24286.3	23350.9
889.16	1489.031	24210.2	23274.85
889.3032	1490.842	24097.6	23164.55
889.4464	1492.6522	24051.9	23118.25
889.5896	1494.4618	23938.6	23003.35
889.7327	1496.2705	23894.05	22961.7
889.8759	1498.0785	23785.9	22851.9
890.019	1499.8858	23724.7	22791.65
890.1622	1501.6924	23660.35	22729.95
890.3053	1503.4981	23635.35	22701.35
890.4484	1505.3032	23589.55	22654.35
890.5914	1507.1075	23494.85	22559.85
890.7345	1508.911	23403.25	22470.15
890.8776	1510.7138	23331.95	22394.8
891.0206	1512.5159	23220.1	22286
891.1637	1514.3172	23106.2	22177.3
891.3067	1516.1178	23023.9	22092.6
891.4497	1517.9176	22974.15	22040.4
891.5927	1519.7166	22867.1	21940.6
891.7357	1521.515	22760.55	21825.9
891.8786	1523.3126	22714.25	21782.9
892.0216	1525.1094	22649.85	21718.45
892.1645	1526.9055	22522.85	21595.1
892.3074	1528.7008	22465.85	21539.45
892.4503	1530.4954	22332.4	21398.05
892.5932	1532.2893	22250.4	21323.85
892.7361	1534.0824	22119.65	21189.8
892.879	1535.8747	22129.45	21204.65
893.0218	1537.6663	22055.65	21129.85
893.1647	1539.4572	21947.35	21023
893.3075	1541.2473	21920.7	20994.8
893.4503	1543.0367	21877.55	20953.35
893.5931	1544.8253	21754.85	20825.4
893.7359	1546.6132	21737.75	20808.1
893.8787	1548.4003	21637.9	20701.3
894.0214	1550.1867	21631.85	20698.55
894.1642	1551.9723	21565.9	20640.25
894.3069	1553.7572	21575.45	20651.5
894.4496	1555.5414	21505.9	20583.4
894.5923	1557.3247	21442.55	20522.4
894.735	1559.1074	21432.1	20510.9
894.8777	1560.8893	21396.55	20478.65
895.0204	1562.6705	21426.15	20506.85
895.163	1564.4509	21391.25	20473.05
895.3056	1566.2305	21442.65	20526.5
895.4482	1568.0094	21533.2	20616.15
895.5908	1569.7876	21609.05	20691.6
895.7334	1571.565	21606.1	20687.3
895.876	1573.3417	21630.95	20710.1
896.0186	1575.1176	21582.8	20664.25
896.1611	1576.8928	21488.5	20573.05
896.3036	1578.6672	21367.6	20455
896.4461	1580.4409	21208.1	20299.85
896.5886	1582.2138	21001.8	20086
896.7311	1583.986	20812	19894.35
896.8736	1585.7575	20697.45	19783.1
897.0161	1587.5282	20547.65	19632.2
897.1585	1589.2981	20438.1	19527.05
897.3009	1591.0673	20301.65	19391
897.4433	1592.8358	20264.4	19356
897.5857	1594.6035	20232.2	19316.45
897.7281	1596.3704	20165	19247.15
897.8705	1598.1366	20108.8	19194.9
898.0128	1599.9021	20081.95	19169.25
898.1551	1601.6668	20046.9	19132.2
898.2975	1603.4308	20024.25	19107.35
898.4398	1605.194	20048.7	19128.3
898.5821	1606.9564	20069.85	19164.8
898.7243	1608.7182	20153.7	19248.55
898.8666	1610.4791	20224.6	19325.9
899.0088	1612.2394	20288.45	19392.3
899.1511	1613.9988	20405.1	19502.5
899.2933	1615.7576	20615.45	19707.7
899.4355	1617.5156	20835.7	19917.25
899.5776	1619.2728	21028.7	20111.85
899.7198	1621.0293	21140.75	20228.3
899.862	1622.785	21175.8	20265.7
900.0041	1624.54	21075.15	20167.2
900.1462	1626.2942	20819.3	19913.5
900.2883	1628.0477	20503.65	19595.65
900.4304	1629.8005	20214.15	19303.2
900.5725	1631.5525	19963.1	19056.95
900.7145	1633.3037	19681.2	18775.95
900.8566	1635.0542	19504.85	18598
900.9986	1636.804	19281.9	18374.45
901.1406	1638.553	19162.65	18185.4
901.2826	1640.3013	19026.4	18121.9
901.4245	1642.0488	18943.8	18037.25
901.5665	1643.7955	18890.95	17986.4
901.7085	1645.5416	18882	17979.1
901.8504	1647.2868	18877.3	17972.3
901.9923	1649.0313	18890	17979
902.1342	1650.7751	19041.15	18132.55
902.2761	1652.5181	19138.6	18235.95
902.4179	1654.2604	19296.7	18393.55
902.5598	1656.0019	19587.5	18684.4
902.7016	1657.7427	19911.75	19008.35
902.8434	1659.4828	20263.8	19356.85
902.9852	1661.222	20438.6	19529.65
903.127	1662.9606	20453.1	19546.35
903.2687	1664.6984	20236	19326.25
903.4105	1666.4354	19909.25	18999.55
903.5522	1668.1717	19401.7	18490.15
903.6939	1669.9072	18913.8	18002.45
903.8356	1671.642	18497.1	17582.25
903.9773	1673.3761	18201.35	17293.75
904.119	1675.1094	17931.3	17024.35
904.2606	1676.8419	17728.35	16822.7
904.4022	1678.5737	17544.15	16636.4
904.5439	1680.3048	17370.5	16461.15
904.6855	1682.0351	17227.1	16319.15
904.827	1683.7646	17114.1	16199.9
904.9686	1685.4934	17048.25	16141.1
905.1101	1687.2215	16950.45	16042.4
905.2517	1688.9488	16844.45	15938.9
905.3932	1690.6754	16735.1	15827.55
905.5347	1692.4012	16732.8	15823.25
905.6761	1694.1263	16677.35	15769.2
905.8176	1695.8506	16609.35	15702.95
905.9591	1697.5742	16485.3	15581.5
906.1005	1699.297	16412.75	15510.6
906.2419	1701.0191	16332	15431.7
906.3833	1702.7404	16285.55	15384.9
906.5246	1704.461	16173.7	15267.9
906.666	1706.1808	16118.8	15214
906.8073	1707.8999	16076.9	15172.5
906.9487	1709.6182	16027.3	15128.05
907.09	1711.3358	15950.35	15051.95
907.2313	1713.0527	15893.65	14996
907.3725	1714.7688	15846.2	14938.65
907.5138	1716.4841	15768.65	14864.35
907.655	1718.1987	15766.85	14860.4
907.7962	1719.9126	15677.15	14777.55
907.9374	1721.6257	15630.5	14732.9
908.0786	1723.338	15615.65	14717.45
908.2198	1725.0496	15526.35	14627.2
908.3609	1726.7605	15448.8	14548.45
908.502	1728.4706	15388.7	14486.6
908.6431	1730.18	15304.2	14404
908.7842	1731.8886	15265.05	14369.1
908.9253	1733.5964	15239.45	14320.45
909.0664	1735.3036	15215.4	14315.05
909.2074	1737.0099	15187.25	14288.9
909.3484	1738.7156	15116.5	14223.4
909.4894	1740.4204	15015.55	14115.5
909.6304	1742.1246	15001.4	14102.45
909.7714	1743.8279	14968.5	14070
909.9123	1745.5306	14930.2	14033.5
910.0532	1747.2325	14876.35	13980.15
910.1941	1748.9336	14850.75	13952.25
910.335	1750.634	14794.1	13893.6
910.4759	1752.3336	14740.85	13843.95
910.6168	1754.0325	14731	13836.9
910.7576	1755.7307	14686.35	13793.45
910.8984	1757.4281	14690.4	13792.45
911.0392	1759.1247	14635.95	13728.8
911.18	1760.8206	14605.75	13702.1
911.3208	1762.5158	14605.4	13701.75
911.4615	1764.2102	14540.65	13641.85
911.6022	1765.9039	14478.8	13581.35
911.7429	1767.5968	14414	13520.7
911.8836	1769.289	14363.75	13468.45
912.0243	1770.9804	14348.35	13452
912.1649	1772.6711	14360.3	13460.25
912.3056	1774.361	14250.45	13349.35
912.4462	1776.0502	14254.75	13353.35
912.5868	1777.7386	14209.6	13309.9
912.7274	1779.4263	14160.3	13263.9
912.8679	1781.1132	14134.9	13238.4
913.0084	1782.7994	14075.1	13180.7
913.149	1784.4849	14058.9	13165.35
913.2895	1786.1696	14010.8	13097.25
913.4299	1787.8535	13966.7	13074.1
913.5704	1789.5367	13937.15	13043.95
913.7108	1791.2192	13923.9	13032.9
913.8513	1792.9009	13888.6	12967.1
913.9917	1794.5818	13830.35	12932.7
914.132	1796.2621	13775.9	12880.45
914.2724	1797.9415	13747.05	12850.5
914.4128	1799.6202	13715.2	12817.5
914.5531	1801.2982	13678.35	12779.55
914.6934	1802.9755	13651.95	12753.7
914.8337	1804.6519	13623.95	12724.8
914.9739	1806.3277	13584.5	12688.55
915.1142	1808.0027	13511.9	12621.05
915.2544	1809.6769	13505.75	12614.8
915.3946	1811.3504	13455.55	12564.1
915.5348	1813.0231	13386.85	12495.15
915.675	1814.6951	13416.85	12522.2
915.8151	1816.3664	13410.1	12512.9
915.9553	1818.0369	13344.35	12447.9
916.0954	1819.7067	13342.55	12445.9
916.2355	1821.3757	13266.4	12368.9
916.3755	1823.044	13245.05	12348.85
916.5156	1824.7115	13222	12328.05
916.6556	1826.3783	13141.1	12245.6
916.7956	1828.0443	13106.05	12212.05
916.9356	1829.7096	13061.9	12165.4
917.0756	1831.3741	13086.25	12186.75
917.2155	1833.0379	13058.85	12167.2
917.3555	1834.701	13017.15	12123.75
917.4954	1836.3633	12962.95	12069.75
917.6353	1838.0248	12950.65	12055.7
917.7751	1839.6856	12913.65	12018.5
917.915	1841.3457	12930.6	12036.8
918.0548	1843.005	12868.45	11976.9
918.1946	1844.6636	12863.85	11968.85
918.3344	1846.3214	12811.45	11918.65
918.4742	1847.9785	12795.95	11903.1
918.6139	1849.6349	12772.25	11874.95
918.7537	1851.2904	12746.2	11837.1
918.8934	1852.9453	12691.3	11796.45
919.0331	1854.5994	12674.7	11776.8
919.1727	1856.2528	12681.25	11780.5
919.3124	1857.9054	12611.75	11717.65
919.452	1859.5572	12617.4	11723.6
919.5916	1861.2083	12576.2	11680.45
919.7312	1862.8587	12565.9	11670.55
919.8708	1864.5084	12552.45	11654.95
920.0103	1866.1572	12508.6	11611.15
920.1498	1867.8054	12463.25	11566.25
920.2893	1869.4528	12450.8	11553.85
920.4288	1871.0994	12364.15	11468.2
920.5683	1872.7453	12331.95	11434.2
920.7077	1874.3905	12335.7	11432.85
920.8471	1876.0349	12281.6	11385.5
920.9865	1877.6786	12261.6	11362.3
921.1259	1879.3215	12251.6	11356.55
921.2653	1880.9637	12223.55	11329.5
921.4046	1882.6051	12197.7	11307.35
921.5439	1884.2458	12172.5	11277.25
921.6832	1885.8858	12122.45	11226.55
921.8225	1887.525	12118.55	11224.55
921.9617	1889.1634	12055.45	11158.3
922.101	1890.8011	12012	11113.3
922.2402	1892.4381	12012.8	11114.65
922.3794	1894.0743	11957.2	11063.45
922.5185	1895.7098	11923.7	11027.75
922.6577	1897.3446	11904.9	11010.95
922.7968	1898.9786	11873.85	10975.2
922.9359	1900.6118	11835.3	10941.95
923.075	1902.2443	11792.6	10897.4
923.214	1903.8761	11786.6	10892.9
923.3531	1905.5071	11718.4	10822.85
923.4921	1907.1374	11665.1	10770.1
923.6311	1908.7669	11653.3	10761.75
923.77	1910.3957	11635	10741.1
923.909	1912.0237	11567.2	10673.05
924.0479	1913.651	11564.35	10673.9
924.1868	1915.2776	11483.85	10591.1
924.3257	1916.9034	11471.8	10579.05
924.4646	1918.5285	11419.6	10527.9
924.6034	1920.1528	11370.7	10477.25
924.7422	1921.7764	11364.7	10472.9
924.881	1923.3992	11305.45	10408.9
925.0198	1925.0213	11222.2	10326.6
925.1586	1926.6427	11199.75	10306.35
925.2973	1928.2633	11255.6	10292.7
925.436	1929.8832	11134.45	10238.4
925.5747	1931.5023	11094	10201.9
925.7134	1933.1207	11060.8	10165.45
925.852	1934.7383	11071.05	10177
925.9906	1936.3552	11019	10124.75
926.1292	1937.9714	10955.95	10062.9
926.2678	1939.5868	10945.5	10050.2
926.4064	1941.2015	10857.95	9961.7
926.5449	1942.8154	10832.3	9937.85
926.6834	1944.4286	10796.7	9899.95
926.8219	1946.041	10768.75	9857
926.9604	1947.6528	10727.2	9828.45
927.0988	1949.2637	10679.3	9786.3
927.2372	1950.8739	10638.15	9745.1
927.3756	1952.4834	10630.55	9737.9
927.514	1954.0921	10622.6	9731.1
927.6523	1955.7001	10549.9	9655.2
927.7907	1957.3074	10532.75	9642.4
927.929	1958.9139	10490.3	9601.05
928.0673	1960.5197	10459.85	9569.1
928.2055	1962.1247	10402.5	9513.9
928.3438	1963.729	10356.1	9468.2
928.482	1965.3325	10346.15	9436.1
928.6202	1966.9353	10285.5	9397.8
928.7584	1968.5374	10246.85	9355.85
928.8965	1970.1387	10219.75	9328.65
929.0346	1971.7393	10197.6	9307.4
929.1727	1973.3392	10141.15	9252.35
929.3108	1974.9383	10117.4	9230.6
929.4489	1976.5366	10096.45	9208
929.5869	1978.1342	10076.35	9186.9
929.7249	1979.7311	10063.95	9175.2
929.8629	1981.3273	10014.95	9127
930.0009	1982.9227	9990.65	9102.35
930.1388	1984.5173	9948.2	9061.25
930.2767	1986.1112	9901.45	9013.7
930.4146	1987.7044	9879.7	8994.7
930.5525	1989.2968	9858.85	8969.7
930.6904	1990.8885	9842.85	8953.3
930.8282	1992.4795	9807.5	8918.8
930.966	1994.0697	9776.5	8892.35
931.1038	1995.6592	9745.7	8860.55
931.2415	1997.2479	9712.65	8825.1
931.3793	1998.8359	9702.6	8815.55
931.517	2000.4232	9652.35	8768.9
931.6547	2002.0097	9608.25	8725.45
931.7923	2003.5955	9593.25	8709.15
931.93	2005.1805	9570.25	8685.4
932.0676	2006.7648	9552.7	8669.05
932.2052	2008.3484	9525.9	8641.95
932.3427	2009.9312	9512.4	8629.4
932.4803	2011.5133	9461.35	8579.25
932.6178	2013.0946	9448.05	8564.5
932.7553	2014.6752	9423	8540.15
932.8928	2016.2551	9389.75	8504.7
933.0302	2017.8342	9375.6	8489.8
933.1676	2019.4126	9319.4	8435
933.305	2020.9902	9270.3	8387.95
933.4424	2022.5672	9262.65	8378.75
933.5798	2024.1433	9245.75	8357.45
933.7171	2025.7188	9228.3	8347.15
933.8544	2027.2935	9173.35	8290.25
933.9917	2028.8674	9150.6	8270.1
934.129	2030.4406	9131.15	8250.3
934.2662	2032.0131	9101.3	8222.2
934.4034	2033.5849	9049.7	8161.5
934.5406	2035.1559	9043.75	8162.65
934.6778	2036.7261	9039.1	8155.55
934.8149	2038.2957	9016.9	8130.7
934.952	2039.8645	8987.95	8101.95
935.0891	2041.4325	8975.4	8085.95
935.2262	2042.9998	8944.6	8062.75
935.3632	2044.5664	8931.4	8047.25
935.5002	2046.1323	8901.95	8020
935.6372	2047.6974	8849.5	7967.35
935.7742	2049.2617	8835	7951.5
935.9111	2050.8254	8824	7937.45
936.048	2052.3883	8816.8	7932.85
936.1849	2053.9504	8779.5	7895.95
936.3218	2055.5118	8753.7	7869.75
936.4586	2057.0725	8725.15	7837.7
936.5955	2058.6325	8717.7	7834.8
936.7323	2060.1917	8674.25	7793.5
936.869	2061.7502	8679.05	7793.25
937.0058	2063.3079	8614.65	7734.3
937.1425	2064.8649	8597.9	7711.85
937.2792	2066.4212	8581.7	7697.25
937.4159	2067.9767	8554.95	7673.5
937.5525	2069.5315	8527.7	7644.15
937.6891	2071.0856	8446.35	7564.75
937.8257	2072.6389	8439.1	7553.7
937.9623	2074.1915	8395.1	7514.05
938.0989	2075.7433	8370.7	7487.3
938.2354	2077.2945	8341.95	7459.1
938.3719	2078.8448	8322.5	7439.65
938.5084	2080.3945	8298.6	7413.55
938.6448	2081.9434	8305.65	7421.7
938.7812	2083.4916	8280.2	7393.85
938.9176	2085.039	8232.4	7342.85
939.054	2086.5857	8238.25	7347.55
939.1903	2088.1317	8209.75	7316.9
939.3267	2089.677	8188.85	7298.4
939.463	2091.2215	8180.3	7289.65
939.5992	2092.7652	8139.05	7246.5
939.7355	2094.3083	8102.35	7214.95
939.8717	2095.8506	8100.65	7214.55
940.0079	2097.3921	8109.85	7224.85
940.1441	2098.933	8062.95	7176.7
940.2802	2100.4731	8055.65	7168.65
940.4163	2102.0124	8046.05	7152.25
940.5524	2103.5511	8006.55	7120.25
940.6885	2105.089	7994.4	7106.25
940.8245	2106.6261	7988.9	7101.1
940.9606	2108.1626	7966.2	7077.05
941.0965	2109.6983	7949.7	7031.7
941.2325	2111.2332	7921.8	7035
941.3684	2112.7675	7908.75	7020.05
941.5044	2114.301	7873.5	6982.35
941.6403	2115.8337	7870.45	6982.95
941.7761	2117.3657	7843.5	6956.05
941.912	2118.897	7835.1	6946.7
942.0478	2120.4276	7812.55	6916.5
942.1835	2121.9575	7774.25	6882.7
942.3193	2123.4866	7766.15	6863.55
942.455	2125.0149	7746.7	6856.5
942.5907	2126.5426	7693.1	6807.45
942.7264	2128.0695	7682.75	6795.6
942.8621	2129.5956	7654.35	6771.75
942.9977	2131.1211	7649.45	6762.05
943.1333	2132.6458	7628.65	6742.3
943.2689	2134.1698	7630.6	6741.15
943.4044	2135.693	7606.9	6713.65
943.54	2137.2155	7578.35	6684.9
943.6755	2138.7373	7560.25	6671.6
943.8109	2140.2584	7547.1	6663.45
943.9464	2141.7787	7524.25	6633.75
944.0818	2143.2983	7469	6588.45
944.2172	2144.8171	7446.65	6564.45
944.3526	2146.3353	7446.7	6561.85
944.4879	2147.8527	7404.15	6519.6
944.6232	2149.3693	7389.8	6500.6
944.7585	2150.8853	7374.85	6488.9
944.8938	2152.4005	7318.7	6426.6
945.029	2153.9149	7340.65	6452.1
945.1642	2155.4287	7423.75	6423.15
945.2994	2156.9417	7330.6	6440.8
945.4346	2158.454	7281.2	6394.75
945.5697	2159.9655	7235.35	6350.1
945.7048	2161.4764	7230.2	6342.7
945.8399	2162.9865	7229.2	6344.1
945.9749	2164.4958	7174.95	6288.75
946.1099	2166.0045	7181.75	6294.35
946.2449	2167.5124	7187.6	6302.85
946.3799	2169.0195	7151.35	6264.15
946.5148	2170.526	7141.35	6254.45
946.6498	2172.0317	7116.7	6229.3
946.7846	2173.5367	7096.25	6208.3
946.9195	2175.0409	7077.9	6191.45
947.0543	2176.5445	7052.65	6164
947.1891	2178.0473	7040.6	6150.85
947.3239	2179.5494	7010.5	6118.25
947.4587	2181.0507	6970.7	6082.85
947.5934	2182.5513	6974.85	6090.55
947.7281	2184.0512	6967.7	6079.7
947.8628	2185.5504	6912.85	6026.25
947.9974	2187.0488	6880.8	5995.35
948.132	2188.5465	6888.35	6003.85
948.2666	2190.0435	6838.85	5953.45
948.4012	2191.5397	6840.15	5954.25
948.5357	2193.0353	6825.85	5940.2
948.6702	2194.5301	6787.9	5896.2
948.8047	2196.0241	6766.15	5874.65
948.9392	2197.5175	6753.05	5861.75
949.0736	2199.0101	6726.2	5832.45
949.208	2200.502	6707.7	5820
949.3424	2201.9931	6679.25	5791.85
949.4767	2203.4835	6669.6	5783.65
949.611	2204.9733	6651.35	5760.5
949.7453	2206.4622	6638.15	5753.2
949.8796	2207.9505	6598.75	5712.75
950.0138	2209.438	6551.6	5670.65
950.148	2210.9248	6555.8	5669.5
950.2822	2212.4109	6535.4	5649.75
950.4164	2213.8962	6529.35	5637.85
950.5505	2215.3809	6494.4	5602.85
950.6846	2216.8648	6485.35	5591.7
950.8186	2218.3479	6491.5	5595.95
950.9527	2219.8304	6434.4	5538.4
951.0867	2221.3121	6434.6	5541
951.2207	2222.7931	6397.4	5506.6
951.3546	2224.2733	6368.45	5478.35
951.4886	2225.7529	6352.65	5464.9
951.6225	2227.2317	6342.6	5452.15
951.7563	2228.7098	6323.25	5440
951.8902	2230.1872	6295.6	5412.2
952.024	2231.6638	6292.6	5407.9
952.1578	2233.1397	6257.05	5370.55
952.2916	2234.6149	6246	5360.2
952.4253	2236.0894	6221.15	5332.1
952.559	2237.5632	6229.75	5331.9
952.6927	2239.0362	6173.4	5287.5
952.8263	2240.5085	6173.25	5285.25
952.9599	2241.9801	6162.1	5275.15
953.0935	2243.4509	6137.4	5247.65
953.2271	2244.921	6120.75	5230.85
953.3606	2246.3904	6096.9	5204.85
953.4941	2247.8591	6085.15	5192.65
953.6276	2249.3271	6066.5	5176.7
953.7611	2250.7943	6059.4	5170.2
953.8945	2252.2608	6025.45	5135.7
954.0279	2253.7266	6014.45	5126.35
954.1612	2255.1917	5989	5100.95
954.2946	2256.656	5958.35	5071.2
954.4279	2258.1197	5939.5	5053.65
954.5612	2259.5826	5932.1	5045.55
954.6944	2261.0447	5929.6	5041.25
954.8276	2262.5062	5908.45	5015.45
954.9608	2263.9669	5888.95	4998.1
955.094	2265.4269	5891.35	5002.9
955.2271	2266.8862	5876.65	4989.95
955.3602	2268.3448	5856.25	4968.35
955.4933	2269.8026	5848.3	4961.15
955.6264	2271.2598	5824.2	4935.75
955.7594	2272.7162	5811.4	4926.3
955.8924	2274.1719	5794.4	4903.25
956.0253	2275.6268	5777.65	4887.9
956.1583	2277.0811	5783.3	4891.9
956.2912	2278.5346	5747.3	4859.45
956.4241	2279.9874	5747.6	4862.65
956.5569	2281.4395	5738.15	4851.65
956.6897	2282.8908	5712.15	4820.6
956.8225	2284.3414	5692.85	4803.8
956.9553	2285.7914	5658.1	4770.75
957.088	2287.2406	5658.05	4769.55
957.2207	2288.689	5640.05	4749.25
957.3534	2290.1368	5637.75	4743.5
957.486	2291.5838	5613.75	4717.25
957.6186	2293.0302	5626.6	4731.2
957.7512	2294.4758	5583.95	4690.9
957.8838	2295.9206	5557.25	4664.4
958.0163	2297.3648	5544.55	4656.75
958.1488	2298.8082	5550.2	4662.7
958.2813	2300.251	5531.6	4642.65
958.4137	2301.693	5507.4	4614.6
958.5461	2303.1343	5499.15	4606.45
958.6785	2304.5748	5487.85	4598.5
958.8108	2306.0147	5465.2	4577.3
958.9432	2307.4538	5458.15	4571.15
959.0754	2308.8922	5437.15	4553.05
959.2077	2310.3299	5437.85	4552.55
959.3399	2311.7669	5396.75	4508.95
959.4721	2313.2031	5384.4	4497.6
959.6043	2314.6387	5372.3	4483.6
959.7365	2316.0735	5348.7	4460.55
959.8686	2317.5076	5339.15	4451.85
960.0006	2318.941	5336.85	4447.55
960.1327	2320.3737	5321.45	4429.1
960.2647	2321.8056	5301.25	4407.95
960.3967	2323.2369	5299.95	4407.75
960.5287	2324.6674	5268.9	4379.2
960.6606	2326.0972	5249.95	4359.3
960.7925	2327.5263	5237.9	4349.15
960.9244	2328.9547	5228.95	4339.35
961.0562	2330.3823	5198.75	4309.3
961.1881	2331.8092	5201.9	4304.9
961.3198	2333.2355	5171.9	4280.6
961.4516	2334.661	5165.65	4275.65
961.5833	2336.0858	5173.4	4280.25
961.715	2337.5098	5152.15	4262.35
961.8467	2338.9332	5140.25	4250.6
961.9783	2340.3558	5113.6	4220.9
962.1099	2341.7778	5102.35	4214.55
962.2415	2343.199	5095.85	4206.5
962.373	2344.6195	5058.15	4169.8
962.5045	2346.0393	5057.55	4170.75
962.636	2347.4583	5046.45	4155.1
962.7675	2348.8767	5042.65	4151.75
962.8989	2350.2943	5024.45	4133.25
963.0303	2351.7113	5023.4	4130.25
963.1617	2353.1275	5013.4	4120.2
963.293	2354.543	4998	4083.35
963.4243	2355.9578	4970.15	4078.8
963.5556	2357.3718	4951	4063
963.6868	2358.7852	4929.6	4039.95
963.818	2360.1978	4912.35	4022.9
963.9492	2361.6098	4910.45	4022.15
964.0803	2363.021	4893.6	4000.55
964.2114	2364.4315	4877.15	3988
964.3425	2365.8413	4880.5	3985.05
964.4736	2367.2504	4833.7	3947.1
964.6046	2368.6587	4827.05	3941.1
964.7356	2370.0664	4817.6	3934.35
964.8666	2371.4733	4790.4	3901.3
964.9975	2372.8795	4794.25	3904.85
965.1284	2374.285	4780.6	3889.6
965.2593	2375.6899	4738.35	3851.95
965.3901	2377.0939	4729.35	3841.1
965.5209	2378.4973	4709.8	3822.6
965.6517	2379.9	4705.05	3816.2
965.7825	2381.3019	4681.1	3795.1
965.9132	2382.7032	4655.45	3769.3
966.0439	2384.1037	4652.65	3768.2
966.1745	2385.5035	4652.25	3768.35
966.3051	2386.9027	4627.25	3742.35
966.4357	2388.3011	4608.15	3720.5
966.5663	2389.6987	4611.35	3727.4
966.6968	2391.0957	4584.9	3697.05
966.8273	2392.492	4564.05	3677.45
966.9578	2393.8876	4543.35	3657.5
967.0882	2395.2824	4533.3	3648.5
967.2186	2396.6765	4524	3637.45
967.349	2398.07	4514.3	3625.75
967.4793	2399.4627	4500.4	3609.85
967.6097	2400.8547	4483.35	3593.6
967.7399	2402.246	4466.4	3574.45
967.8702	2403.6366	4451.7	3564.1
968.0004	2405.0265	4432.8	3546.45
968.1306	2406.4156	4402.85	3512.55
968.2607	2407.8041	4425.6	3536.3
968.3909	2409.1918	4392.6	3500.75
968.521	2410.5789	4383.35	3494.1
968.651	2411.9652	4361.1	3471.65
968.781	2413.3508	4364.65	3476.2
968.911	2414.7358	4348.95	3459.2
969.041	2416.12	4331.95	3443.7
969.1709	2417.5035	4328.7	3440.95
969.3008	2418.8863	4305.35	3416.45
969.4307	2420.2684	4303.4	3414.3
969.5606	2421.6497	4284.35	3396.55
969.6904	2423.0304	4255.75	3368.7
969.8201	2424.4104	4252.3	3365.8
969.9499	2425.7896	4243.4	3354.7
970.0796	2427.1682	4236.5	3349.15
970.2093	2428.546	4202.85	3312.95
970.3389	2429.9232	4199	3310.4
970.4685	2431.2996	4202.55	3313.45
970.5981	2432.6753	4194.4	3305.9
970.7277	2434.0503	4193.1	3304.45
970.8572	2435.4246	4171.1	3282.05
970.9867	2436.7982	4154.7	3263.65
971.1161	2438.1711	4149.55	3261.15
971.2456	2439.5433	4123.4	3232.25
971.375	2440.9148	4109.7	3217.35
971.5043	2442.2856	4108.95	3222
971.6336	2443.6557	4097.65	3209.2
971.7629	2445.025	4076.2	3187.65
971.8922	2446.3937	4080.9	3190.35
972.0214	2447.7617	4061.3	3171.05
972.1506	2449.1289	4070.05	3181.15
972.2798	2450.4955	4056.65	3165.95
972.4089	2451.8613	4026.15	3140.25
972.538	2453.2265	4014.15	3125.95
972.6671	2454.5909	4019.65	3128.55
972.7961	2455.9546	4001.25	3114.45
972.9251	2457.3177	3990.55	3102.5
973.0541	2458.68	3989.5	3100.15
973.1831	2460.0416	3969.3	3078.4
973.312	2461.4025	3983.85	3092.25
973.4408	2462.7627	3978.25	3079.75
973.5697	2464.1222	3945.45	3058.45
973.6985	2465.4811	3938.4	3054.25
973.8273	2466.8392	3932.25	3044.15
973.956	2468.1966	3909.2	3019.1
974.0847	2469.5533	3922.25	3032.75
974.2134	2470.9093	3917.7	3028.3
974.3421	2472.2645	3900.9	3012.4
974.4707	2473.6191	3891	3001.55
974.5993	2474.973	3869.45	2980.15
974.7278	2476.3262	3873.6	2985.2
974.8563	2477.6787	3830.9	2945.75
974.9848	2479.0305	3836.85	2950.2
975.1132	2480.3816	3820.95	2930.7
975.2417	2481.7319	3823.75	2936.55
975.37	2483.0816	3812.5	2925.95
975.4984	2484.4306	3797.1	2909.1
975.6267	2485.7789	3779.85	2891.75
975.755	2487.1264	3774	2886.5
975.8833	2488.4733	3748.95	2860.95
976.0115	2489.8195	3752	2858.75
976.1397	2491.165	3714.25	2821.7
976.2678	2492.5097	3718.1	2831
976.3959	2493.8538	3714.55	2829.5
976.524	2495.1972	3689.85	2801.05
976.6521	2496.5398	3687.7	2798.45
976.7801	2497.8818	3670.35	2779.4
976.9081	2499.2231	3663.85	2773.5
977.036	2500.5637	3657.4	2766.25
977.164	2501.9035	3642.5	2751.7
977.2918	2503.2427	3647.9	2756.85
977.4197	2504.5812	3632.85	2743.5
977.5475	2505.919	3617.45	2727.7
977.6753	2507.256	3611.15	2722.05
977.8031	2508.5924	3598	2708.8
977.9308	2509.9281	3584.75	2690.2
978.0585	2511.2631	3568.25	2677.9
978.1861	2512.5974	3577.55	2689.1
978.3137	2513.9309	3572.6	2686
978.4413	2515.2638	3567.65	2655.5
978.5689	2516.596	3554.9	2666.7
978.6964	2517.9275	3531.1	2639.75
978.8239	2519.2583	3522.4	2633.1
978.9513	2520.5884	3512.8	2623.05
979.0788	2521.9178	3501.55	2614.8
979.2062	2523.2465	3508.45	2621.05
979.3335	2524.5745	3478.4	2589.65
979.4608	2525.9018	3468.95	2580.6
979.5881	2527.2284	3460.95	2574.1
979.7154	2528.5543	3438.1	2551.4
979.8426	2529.8796	3439.85	2551.6
979.9698	2531.2041	3448.55	2561.2
980.0969	2532.5279	3432.95	2544.8
980.224	2533.851	3432.7	2543.95
980.3511	2535.1735	3419.75	2530.05
980.4781	2536.4952	3411.25	2521.95
980.6052	2537.8163	3417.35	2528.25
980.7321	2539.1366	3404.8	2515.15
980.8591	2540.4562	3389.75	2498.05
980.986	2541.7752	3390.85	2502.75
981.1129	2543.0935	3382.35	2492.85
981.2397	2544.411	3369.45	2477.05
981.3665	2545.7279	3373.9	2484.85
981.4933	2547.0441	3368.1	2480.15
981.62	2548.3596	3368.75	2477.2
981.7467	2549.6744	3341.9	2451.55
981.8734	2550.9885	3338.35	2445.8
982.0001	2552.3019	3331.35	2442.4
982.1267	2553.6146	3329.25	2439.65
982.2532	2554.9266	3312.1	2424.15
982.3798	2556.2379	3302.45	2414.1
982.5063	2557.5485	3290.45	2404.1
982.6327	2558.8585	3276.4	2380.8
982.7592	2560.1677	3282.85	2389.25
982.8856	2561.4762	3280.8	2391.3
983.0119	2562.7841	3280.35	2388.7
983.1383	2564.0913	3276.35	2390.2
983.2646	2565.3977	3267.15	2378.2
983.3908	2566.7035	3249.15	2361.55
983.517	2568.0086	3252.1	2361.7
983.6432	2569.313	3244.15	2355
983.7694	2570.6167	3243.8	2351.45
983.8955	2571.9197	3243.25	2353.85
984.0216	2573.222	3231.8	2340.5
984.1476	2574.5236	3222.45	2333.4
984.2737	2575.8246	3222.65	2328.9
984.3996	2577.1248	3215.5	2323
984.5256	2578.4244	3213.2	2326.9
984.6515	2579.7232	3208.8	2318.75
984.7774	2581.0214	3216.65	2298.45
984.9032	2582.3189	3192.95	2305
985.029	2583.6157	3194.55	2301.65
985.1548	2584.9118	3183.4	2292.35
985.2806	2586.2072	3177	2288.45
985.4063	2587.5019	3171.05	2281.7
985.5319	2588.7959	3171.1	2281.4
985.6576	2590.0893	3162.6	2272.55
985.7832	2591.3819	3162.2	2272.85
985.9087	2592.6739	3163.9	2273.25
986.0343	2593.9652	3159.15	2269.6
986.1597	2595.2557	3145.4	2255.7
986.2852	2596.5456	3134.9	2243.4
986.4106	2597.8348	3133.4	2243.75
986.536	2599.1234	3117.75	2227.5
986.6614	2600.4112	3120.05	2230.9
986.7867	2601.6983	3109.1	2216.15
986.912	2602.9848	3103.2	2214.5
987.0372	2604.2705	3080.55	2185.85
987.1624	2605.5556	3084.95	2198.3
987.2876	2606.84	3086.1	2198.85
987.4128	2608.1237	3074.5	2185
987.5379	2609.4067	3049.95	2158.55
987.6629	2610.689	3052.55	2152.7
987.788	2611.9707	3047.35	2152.95
987.913	2613.2516	3031.5	2140.2
988.0379	2614.5319	3025	2134.55
988.1629	2615.8115	3021.25	2129.85
988.2878	2617.0903	3009.1	2116.75
988.4126	2618.3685	2998.9	2106.9
988.5375	2619.6461	2998.35	2108.6
988.6622	2620.9229	2992.85	2104.45
988.787	2622.199	2994.4	2103.9
988.9117	2623.4745	2983.8	2094.4
989.0364	2624.7493	2972.85	2084.5
989.161	2626.0234	2959.35	2072.6
989.2857	2627.2968	2954.35	2067.95
989.4102	2628.5695	2949.8	2062.75
989.5348	2629.8415	2930	2041.25
989.6593	2631.1128	2935.05	2045.4
989.7837	2632.3835	2931.2	2043.3
989.9082	2633.6535	2918.75	2030.9
990.0326	2634.9228	2911.8	2023.6
990.1569	2636.1914	2907.45	2019.15
990.2812	2637.4593	2900.65	2011.3
990.4055	2638.7265	2884.8	1994.3
990.5298	2639.9931	2884.8	1996.8
990.654	2641.259	2886.7	1996.9
990.7782	2642.5242	2876.7	1987.3
990.9023	2643.7887	2878.3	1990.5
991.0264	2645.0525	2851.75	1962.15
991.1505	2646.3156	2850.35	1948.8
991.2745	2647.5781	2842.45	1953.35
991.3985	2648.8398	2826.15	1938.35
991.5225	2650.1009	2844.55	1933.8
991.6464	2651.3613	2822.75	1933.45
991.7703	2652.6211	2816.8	1930.25
991.8942	2653.8801	2805.25	1915.3
992.018	2655.1385	2798.3	1907.7
992.1418	2656.3961	2799	1910.4
992.2655	2657.6531	2806.15	1917.6
992.3892	2658.9094	2804.45	1917
992.5129	2660.1651	2785.05	1897.45
992.6366	2661.42	2788.55	1900.5
992.7602	2662.6743	2782.1	1894.3
992.8837	2663.9279	2787.5	1899.7
993.0073	2665.1808	2771.15	1882.95
993.1307	2666.433	2762.9	1874.75
993.2542	2667.6846	2766.35	1878.65
993.3776	2668.9354	2772.15	1878.8
993.501	2670.1856	2764.95	1876.65
993.6244	2671.4351	2752.65	1863.95
993.7477	2672.6839	2771.2	1881.15
993.8709	2673.9321	2743.5	1854.8
993.9942	2675.1795	2744.05	1856.25
994.1174	2676.4263	2740.95	1854.65
994.2405	2677.6724	2738.6	1850.85
994.3637	2678.9179	2737.65	1850.2
994.4868	2680.1626	2741.25	1853.65
994.6098	2681.4067	2731.95	1843.2
994.7328	2682.6501	2724.05	1835.7
994.8558	2683.8928	2716.7	1826.8
994.9788	2685.1348	2706.45	1819.45
995.1017	2686.3761	2696.05	1809.25
995.2245	2687.6168	2694.05	1804.85
995.3474	2688.8568	2686.75	1799.7
995.4702	2690.0961	2672.35	1784.55
995.5929	2691.3348	2690.35	1804.75
995.7156	2692.5727	2670.45	1783.9
995.8383	2693.81	2661.45	1774.1
995.961	2695.0466	2653.45	1766.75
996.0836	2696.2826	2638.4	1748.9
996.2062	2697.5178	2647.5	1757
996.3287	2698.7524	2636.2	1747.2
996.4512	2699.9863	2629.65	1739.9
996.5737	2701.2195	2622.35	1735.7
996.6961	2702.452	2622.1	1734.25
996.8185	2703.6839	2628.8	1737.45
996.9408	2704.9151	2613.9	1727.6
997.0631	2706.1456	2621.7	1735.25
997.1854	2707.3755	2626.1	1736.45
997.3077	2708.6046	2635.4	1745.35
997.4299	2709.8331	2630.45	1741.05
997.552	2711.0609	2633.35	1746.85
997.6742	2712.2881	2639	1750.3
997.7963	2713.5145	2648.25	1756.3
997.9183	2714.7403	2649.1	1763
998.0403	2715.9654	2660.5	1775.5
998.1623	2717.1899	2662.85	1761.75
998.2842	2718.4136	2673.35	1785.05
998.4062	2719.6367	2671.05	1782.3
998.528	2720.8591	2671.35	1779.35
998.6498	2722.0809	2679.5	1792.55
998.7716	2723.3019	2690.55	1801.05
998.8934	2724.5223	2689.6	1800.2
999.0151	2725.7421	2682	1793.75
999.1368	2726.9611	2678.7	1790.65
999.2584	2728.1795	2684.85	1795.3
999.38	2729.3972	2669.6	1781.9
999.5016	2730.6142	2654.95	1755
999.6231	2731.8306	2640.45	1750.05
999.7446	2733.0462	2608.45	1718.65
999.8661	2734.2612	2587.3	1697.45
999.9875	2735.4756	2555.85	1666.55
1000.1089	2736.6892	2540.05	1651.35
1000.2302	2737.9022	2517.65	1632.4
1000.3515	2739.1145	2510.2	1622.2
1000.4728	2740.3262	2498.95	1605.05
1000.594	2741.5372	2488.2	1600.6
1000.7152	2742.7475	2465	1578.4
1000.8363	2743.9571	2455.45	1565.85
1000.9575	2745.1661	2433.55	1541.55
1001.0785	2746.3744	2423.45	1534.9
1001.1996	2747.582	2413.95	1525.35
1001.3206	2748.7889	2410.45	1524.05
1001.4415	2749.9952	2384.1	1497.4
1001.5625	2751.2008	2390.3	1503.3
1001.6833	2752.4057	2363.4	1474.6
1001.8042	2753.61	2363.4	1476
1001.925	2754.8136	2361.15	1474.1
1002.0458	2756.0165	2353.25	1469.25
1002.1665	2757.2188	2355.5	1469.45
1002.2872	2758.4204	2339.65	1452
1002.4078	2759.6213	2333.95	1444.9
1002.5285	2760.8215	2337.45	1446.65
1002.649	2762.0211	2336.9	1449.55
1002.7696	2763.22	2333.3	1443.8
1002.8901	2764.4182	2315.4	1429.3
1003.0106	2765.6158	2319.35	1432.15
1003.131	2766.8127	2308.6	1422.75
1003.2514	2768.009	2283.85	1398.7
1003.3717	2769.2045	2295.35	1408.6
1003.492	2770.3994	2287.45	1398.25
1003.6123	2771.5936	2272.05	1384.75
1003.7325	2772.7872	2266.35	1380.15
1003.8527	2773.9801	2263.5	1375.95
1003.9729	2775.1723	2277.15	1376
1004.093	2776.3639	2261.35	1376.1
1004.2131	2777.5548	2260.95	1372.1
1004.3331	2778.745	2248.55	1363.35
1004.4531	2779.9346	2240.1	1354.85
1004.5731	2781.1235	2256.65	1369.75
1004.693	2782.3117	2250.1	1365.1
1004.8129	2783.4992	2253.4	1368.25
1004.9328	2784.6861	2253.3	1368.7
1005.0526	2785.8723	2264.6	1375.8
1005.1723	2787.0579	2261.2	1374.15
1005.2921	2788.2428	2263.65	1377.6
1005.4118	2789.427	2257.75	1373.5
1005.5314	2790.6106	2270.75	1386.05
1005.651	2791.7935	2279.35	1392.9
1005.7706	2792.9757	2287.75	1403.9
1005.8902	2794.1573	2303.05	1415.45
1006.0097	2795.3382	2296.05	1411.2
1006.1291	2796.5184	2306.95	1425.5
1006.2485	2797.698	2328.95	1441.6
1006.3679	2798.8769	2336.75	1452.65
1006.4873	2800.0551	2354.05	1466.6
1006.6066	2801.2327	2372.55	1484.2
1006.7258	2802.4096	2401	1515
1006.8451	2803.5859	2398.15	1513.4
1006.9642	2804.7615	2424.95	1541.2
1007.0834	2805.9364	2441.75	1558.2
1007.2025	2807.1106	2473.2	1588.15
1007.3216	2808.2842	2490	1604.9
1007.4406	2809.4572	2526.05	1640.1
1007.5596	2810.6294	2566.55	1679.25
1007.6785	2811.801	2605.35	1721
1007.7975	2812.972	2644.6	1760.1
1007.9163	2814.1423	2682.1	1798.35
1008.0352	2815.3119	2730.45	1845.2
1008.154	2816.4808	2774.75	1888.2
1008.2727	2817.6491	2824.35	1937.25
1008.3914	2818.8167	2864.4	1980.95
1008.5101	2819.9837	2907.55	2017.9
1008.6288	2821.15	2955.5	2071.7
1008.7474	2822.3157	2985.35	2101.75
1008.8659	2823.4807	3030.75	2147.95
1008.9844	2824.645	3086.3	2200.65
1009.1029	2825.8086	3128.05	2245.8
1009.2214	2826.9716	3147.75	2264.85
1009.3398	2828.134	3189.95	2305.3
1009.4581	2829.2957	3237.25	2352.55
1009.5764	2830.4567	3241.75	2358.2
1009.6947	2831.617	3255.2	2369.35
1009.813	2832.7767	3256.5	2372.05
1009.9312	2833.9358	3273.8	2390.55
1010.0493	2835.0941	3258	2371.9
1010.1675	2836.2519	3236.75	2352.55
1010.2855	2837.4089	3238.25	2351.75
1010.4036	2838.5653	3226.6	2344.6
1010.5216	2839.7211	3228.55	2345.15
1010.6396	2840.8761	3237.75	2351.1
1010.7575	2842.0306	3267.95	2383.75
1010.8754	2843.1843	3304.7	2420.3
1010.9932	2844.3374	3358	2475.6
1011.111	2845.4899	3407.15	2521.45
1011.2288	2846.6417	3486.1	2602.9
1011.3465	2847.7928	3561.35	2678.1
1011.4642	2848.9433	3631.5	2748.8
1011.5818	2850.0931	3695.45	2812.55
1011.6995	2851.2422	3790.75	2905
1011.817	2852.3907	3865.45	2980.55
1011.9345	2853.5385	3915	3028.6
1012.052	2854.6857	3975	3083.05
1012.1695	2855.8323	4031.3	3147.7
1012.2869	2856.9781	4073.5	3189.45
1012.4042	2858.1233	4130.1	3246.05
1012.5216	2859.2679	4154.8	3270.25
1012.6389	2860.4118	4193.1	3308.35
1012.7561	2861.555	4250.25	3362.15
1012.8733	2862.6976	4273.35	3387.85
1012.9905	2863.8395	4282.25	3397.65
1013.1076	2864.9808	4328.65	3445.35
1013.2247	2866.1214	4318.25	3436.65
1013.3417	2867.2614	4337.4	3453.15
1013.4587	2868.4007	4351.15	3465.65
1013.5757	2869.5393	4354.65	3468.1
1013.6926	2870.6773	4373.95	3486.75
1013.8095	2871.8146	4385.1	3498.45
1013.9263	2872.9513	4382	3496.45
1014.0431	2874.0874	4366.45	3481.8
1014.1599	2875.2227	4369.2	3484.35
1014.2766	2876.3574	4353.4	3469.8
1014.3933	2877.4915	4321.45	3436.9
1014.51	2878.6249	4289.3	3406.2
1014.6266	2879.7577	4256.9	3372.45
1014.7431	2880.8898	4238.85	3345.15
1014.8596	2882.0212	4224.85	3341.35
1014.9761	2883.152	4204.3	3321.2
1015.0925	2884.2821	4183.3	3300.6
1015.2089	2885.4116	4174.35	3291.55
1015.3253	2886.5405	4183.6	3300.45
1015.4416	2887.6686	4174.15	3288.15
1015.5579	2888.7962	4171.4	3290.45
1015.6741	2889.923	4183.05	3300.75
1015.7903	2891.0493	4195.85	3312.25
1015.9065	2892.1748	4214.75	3331.65
1016.0226	2893.2997	4218.75	3336.3
1016.1387	2894.424	4216.8	3333.45
1016.2547	2895.5476	4236.9	3355
1016.3707	2896.6706	4268.65	3384.35
1016.4866	2897.7929	4304.9	3419.65
1016.6025	2898.9145	4319.75	3436.95
1016.7184	2900.0355	4343.15	3456.4
1016.8342	2901.1559	4371.2	3487.4
1016.95	2902.2756	4404.65	3521.7
1017.0658	2903.3946	4432.7	3550.05
1017.1815	2904.513	4455.4	3569.55
1017.2971	2905.6308	4469.3	3586.95
1017.4127	2906.7479	4489.05	3605.4
1017.5283	2907.8643	4509.05	3624.35
1017.6439	2908.9801	4518.35	3635.2
1017.7594	2910.0953	4536.85	3653.85
1017.8748	2911.2098	4513.3	3627.2
1017.9902	2912.3236	4537.6	3646.3
1018.1056	2913.4368	4507.3	3622.1
1018.2209	2914.5494	4492.45	3608.7
1018.3362	2915.6613	4462	3572.8
1018.4515	2916.7725	4433.7	3547.85
1018.5667	2917.8831	4432.85	3547.35
1018.6819	2918.9931	4363.4	3478.7
1018.797	2920.1024	4337.1	3452.35
1018.9121	2921.211	4306.5	3425.65
1019.0271	2922.319	4295.55	3411.25
1019.1421	2923.4264	4284.3	3403.35
1019.2571	2924.5331	4257.75	3374.65
1019.372	2925.6391	4238.75	3356.95
1019.4869	2926.7445	4231.35	3351.95
1019.6017	2927.8493	4212.55	3329.95
1019.7165	2928.9534	4221.4	3339.15
1019.8313	2930.0569	4202.9	3317.85
1019.946	2931.1597	4181.8	3297.45
1020.0606	2932.2619	4178.6	3297.55
1020.1753	2933.3634	4162.1	3279.25
1020.2899	2934.4643	4167.4	3275.5
1020.4044	2935.5645	4130.85	3245.2
1020.5189	2936.6641	4096.6	3211.8
1020.6334	2937.763	4049.2	3167.75
1020.7478	2938.8613	3986.75	3105.45
1020.8622	2939.959	3941	3052.45
1020.9765	2941.056	3846.7	2967.3
1021.0908	2942.1523	3759.1	2874.45
1021.2051	2943.248	3660.5	2777.45
1021.3193	2944.3431	3577	2694.85
1021.4334	2945.4375	3466.2	2582.2
1021.5476	2946.5313	3354.3	2472.5
1021.6617	2947.6244	3264.6	2382
1021.7757	2948.7169	3144.9	2262.15
1021.8897	2949.8087	3070.05	2188.05
1022.0037	2950.8999	2971.6	2089.35
1022.1176	2951.9904	2878.4	1996.25
1022.2315	2953.0803	2800.05	1917.15
1022.3453	2954.1696	2728	1844.55
1022.4591	2955.2582	2674.7	1793.8
1022.5728	2956.3462	2632.1	1748.35
1022.6865	2957.4335	2590.05	1708.6
1022.8002	2958.5202	2564.2	1677.5
1022.9138	2959.6062	2532.25	1651.2
1023.0274	2960.6916	2505.6	1625
1023.141	2961.7764	2480.8	1599
1023.2545	2962.8605	2464.6	1582.65
1023.3679	2963.9439	2448.1	1566.3
1023.4813	2965.0267	2442	1558.35
1023.5947	2966.1089	2458.95	1556.1
1023.708	2967.1905	2427.35	1544.9
1023.8213	2968.2714	2427.65	1547.65
1023.9346	2969.3516	2416.8	1535.15
1024.0478	2970.4312	2429.4	1538.1
1024.1609	2971.5102	2421.1	1538.95
1024.274	2972.5885	2425.8	1544.65
1024.3871	2973.6662	2424.1	1537.95
1024.5002	2974.7432	2403.8	1523.85
1024.6132	2975.8196	2387.9	1507.85
1024.7261	2976.8954	2383.5	1503.75
1024.839	2977.9705	2381.15	1497.5
1024.9519	2979.045	2351.4	1468.8
1025.0647	2980.1188	2338.1	1455.85
1025.1775	2981.192	2314.75	1436
1025.2902	2982.2645	2289.3	1406.4
1025.4029	2983.3364	2270.45	1389.2
1025.5156	2984.4077	2233.8	1350.85
1025.6282	2985.4783	2207.6	1322.35
1025.7407	2986.5483	2171.65	1289.9
1025.8532	2987.6177	2132.75	1252.8
1025.9657	2988.6864	2101.2	1219.1
1026.0782	2989.7545	2060.4	1178.7
1026.1906	2990.8219	2025.4	1144.3
1026.3029	2991.8887	2005.35	1122.1
1026.4152	2992.9548	1965.35	1083.4
1026.5275	2994.0204	1930.2	1050.3
1026.6397	2995.0852	1901.6	1020.85
1026.7519	2996.1495	1880.95	997.75
1026.864	2997.2131	1845.3	963.35
1026.9761	2998.276	1831.2	950.45
1027.0882	2999.3383	1799.3	916.85
1027.2002	3000.4	1784	900.9
1027.3122	3001.4611	1768.25	888.55
1027.4241	3002.5215	1753.1	873.6
1027.536	3003.5812	1741.05	859.1
1027.6478	3004.6404	1724.1	843.8
1027.7596	3005.6989	1727.75	844.35
1027.8714	3006.7567	1696.1	816.1
1027.9831	3007.8139	1716.45	817.05
1028.0947	3008.8705	1695.05	812.3
1028.2064	3009.9264	1702.85	804.8
1028.3179	3010.9818	1677.15	795.2
1028.4295	3012.0364	1684.75	801.05
1028.541	3013.0905	1676.85	794.5
1028.6524	3014.1439	1669.45	787.15
1028.7638	3015.1966	1665.95	783.1
1028.8752	3016.2487	1672.35	790.1
1028.9865	3017.3002	1677.4	788.9
1029.0978	3018.3511	1665.4	785.75
1029.209	3019.4013	1665.8	786.95
1029.3202	3020.4509	1663.1	781.95
1029.4314	3021.4998	1655.25	773.35
1029.5425	3022.5481	1662.15	781.25
1029.6535	3023.5958	1658.9	778.15
1029.7645	3024.6428	1663.15	782.25
1029.8755	3025.6892	1658.65	777.2
1029.9864	3026.735	1658.9	776.15
1030.0973	3027.7802	1658.2	776.55
1030.2082	3028.8247	1668.5	785.55
1030.319	3029.8685	1668.8	787.2
1030.4297	3030.9118	1666.9	786.2
1030.5404	3031.9544	1663.9	783.5
1030.6511	3032.9963	1680	799.7
1030.7617	3034.0376	1674.8	793.65
1030.8723	3035.0783	1675.6	793.95
1030.9829	3036.1184	1681.4	800.4
1031.0934	3037.1578	1680.2	799.75
1031.2038	3038.1966	1690.05	809.7
1031.3142	3039.2348	1686.2	807.8
1031.4246	3040.2723	1684.7	796.7
1031.5349	3041.3092	1677.9	798.5
1031.6452	3042.3455	1682	799.85
1031.7554	3043.3811	1671.9	790.25
1031.8656	3044.4161	1665.85	784.15
1031.9758	3045.4505	1651.15	771.55
1032.0859	3046.4842	1649.25	767.85
1032.1959	3047.5173	1636.1	756.8
1032.3059	3048.5498	1632	752.3
1032.4159	3049.5816	1615.95	735
1032.5258	3050.6128	1618.3	736.55
1032.6357	3051.6434	1617.15	734.7
1032.7455	3052.6734	1611.85	731.05
1032.8553	3053.7027	1597.85	716.2
1032.9651	3054.7314	1587.4	706.35
1033.0748	3055.7594	1580.45	701.5
1033.1845	3056.7868	1580.2	700.85
1033.2941	3057.8136	1566.05	685.95
1033.4037	3058.8398	1563.1	683.8
1033.5132	3059.8653	1565.65	686.15
1033.6227	3060.8902	1551.1	669.8
1033.7321	3061.9145	1548.1	668.85
1033.8415	3062.9381	1532.6	652.4
1033.9509	3063.9612	1545.85	649.2
1034.0602	3064.9835	1524.2	642.45
1034.1694	3066.0053	1514.9	631.45
1034.2787	3067.0264	1509.85	629.35
1034.3878	3068.0469	1507.8	626.05
1034.497	3069.0668	1494.05	609.4
1034.6061	3070.086	1489.65	611.55
1034.7151	3071.1046	1472.8	591.3
1034.8241	3072.1226	1459	578.3
1034.9331	3073.1399	1448	566.1
1035.042	3074.1567	1437.6	557.2
1035.1508	3075.1727	1438.2	556.35
1035.2597	3076.1882	1419.9	541.15
1035.3684	3077.203	1406.35	525.6
1035.4772	3078.2173	1405.05	523.25
1035.5859	3079.2308	1399.15	514.25
1035.6945	3080.2438	1385.15	502.15
1035.8031	3081.2561	1373.7	493.6
1035.9117	3082.2678	1371.25	490.9
1036.0202	3083.2789	1355.1	474.5
1036.1286	3084.2893	1349.3	469.9
1036.2371	3085.2991	1349.75	470.35
1036.3454	3086.3083	1337.8	454
1036.4538	3087.3169	1338.55	455.75
1036.562	3088.3248	1329.4	447.45
1036.6703	3089.3321	1320.55	438.15
1036.7785	3090.3388	1314.8	435
1036.8866	3091.3449	1309.3	428.7
1036.9948	3092.3503	1314.65	429.3
1037.1028	3093.3551	1301.2	422.05
1037.2108	3094.3593	1293	413.85
1037.3188	3095.3629	1289.7	407.45
1037.4267	3096.3658	1294.95	414.4
1037.5346	3097.3681	1285.3	404.15
1037.6425	3098.3698	1279.15	397.4
1037.7503	3099.3708	1286.05	399.4
1037.858	3100.3713	1271.3	392.1
1037.9657	3101.3711	1271.15	390.1
1038.0734	3102.3702	1402.4	388.1
1038.181	3103.3688	1269.1	387.85
1038.2886	3104.3667	1262.85	382
1038.3961	3105.364	1258.7	379.9
1038.5036	3106.3607	1253.25	369.65
1038.611	3107.3568	1250.45	371.15
1038.7184	3108.3522	1244.45	366.05
1038.8257	3109.347	1251.4	370.35
1038.933	3110.3412	1249.75	364.8
1039.0403	3111.3348	1244.1	365.75
1039.1475	3112.3277	1237.2	357.5
1039.2547	3113.32	1235.5	354.9
1039.3618	3114.3117	1239.5	359.15
1039.4689	3115.3028	1234.55	356.1
1039.5759	3116.2932	1233.3	351.9
1039.6829	3117.2831	1232.95	346.35
1039.7898	3118.2723	1224.5	346.4
1039.8967	3119.2608	1219.75	340.5
1040.0035	3120.2488	1225.2	345.25
1040.1103	3121.2361	1220.75	338.85
1040.2171	3122.2229	1214	334.65
1040.3238	3123.209	1215.2	332.6
1040.4305	3124.1944	1211.35	333.75
1040.5371	3125.1793	1214.35	333.1
1040.6437	3126.1635	1205.8	326.1
1040.7502	3127.1471	1205.25	325.45
1040.8567	3128.1301	1203.5	325.3
1040.9631	3129.1125	1206.2	324.65
1041.0695	3130.0942	1204.95	325.55
1041.1759	3131.0753	1208.65	320.7
1041.2822	3132.0558	1201.65	321.2
1041.3884	3133.0357	1194.9	312.35
1041.4946	3134.015	1188.6	309.05
1041.6008	3134.9936	1193	310.8
1041.7069	3135.9716	1209.05	307.75
1041.813	3136.949	1189.6	308.2
1041.919	3137.9258	1205.8	307.75
1042.025	3138.902	1188.05	302.55
1042.1309	3139.8775	1181.6	301.4
1042.2368	3140.8524	1179.85	298.7
1042.3427	3141.8267	1184.05	303.5
1042.4485	3142.8004	1178.5	300.15
1042.5542	3143.7735	1176.15	289.45
1042.6599	3144.7459	1175.25	293.8
1042.7656	3145.7178	1176.25	296.2
1042.8712	3146.689	1163.65	284.6
1042.9768	3147.6596	1175.2	294.3
1043.0823	3148.6295	1163.15	284.15
1043.1878	3149.5989	1162.1	282.55
1043.2932	3150.5676	1164.1	284.45
1043.3986	3151.5357	1156.35	278.5
1043.5039	3152.5032	1154.3	274.4
1043.6092	3153.4701	1156.5	277.55
1043.7145	3154.4364	1156.55	274.4
1043.8197	3155.402	1151.25	273.3
1043.9248	3156.367	1151.55	268.5
1044.03	3157.3315	1178.8	275.15
1044.135	3158.2952	1147.45	267.6
1044.24	3159.2584	1143.55	262.85
1044.345	3160.221	1148.55	268.65
1044.4499	3161.1829	1141.85	262.75
1044.5548	3162.1442	1142.3	264.5
1044.6596	3163.105	1140.35	260.65
1044.7644	3164.065	1132	253.05
1044.8692	3165.0245	1143.2	261.1
1044.9739	3165.9834	1131.2	255
1045.0785	3166.9416	1135.6	255.4
1045.1831	3167.8993	1127.2	247.75
1045.2877	3168.8563	1125.3	244.25
1045.3922	3169.8127	1127.55	248.45
1045.4966	3170.7684	1124.65	245
1045.6011	3171.7236	1127.45	245.45
1045.7054	3172.6782	1124	243.7
1045.8098	3173.6321	1119.55	240.8
1045.914	3174.5854	1121.25	238.15
1046.0183	3175.5381	1117.1	238.8
1046.1224	3176.4902	1117.2	238.05
1046.2266	3177.4417	1115.25	235.7
1046.3307	3178.3926	1116	235.95
1046.4347	3179.3428	1107.15	230
1046.5387	3180.2924	1115.65	237.05
1046.6427	3181.2415	1108.8	229.45
1046.7466	3182.1899	1111	230.75
1046.8504	3183.1377	1108.65	232
1046.9542	3184.0848	1119.1	235.1
1047.058	3185.0314	1109.15	230.45
1047.1617	3185.9773	1107.35	225.75
1047.2654	3186.9227	1105.55	227.05
1047.369	3187.8674	1098.55	219.3
1047.4726	3188.8115	1105.85	221.75
1047.5761	3189.755	1103.15	223.1
1047.6796	3190.6979	1095.4	216.9
1047.783	3191.6402	1097.1	217.35
1047.8864	3192.5818	1098.75	219.45
1047.9898	3193.5229	1111.25	219.4
1048.0931	3194.4633	1092.6	212.8
1048.1963	3195.4031	1095.65	214.5
1048.2995	3196.3423	1090.7	210.25
1048.4027	3197.2809	1088.25	210.6
1048.5058	3198.2189	1092	211.65
1048.6089	3199.1563	1097.6	212.55
1048.7119	3200.0931	1085.65	209.05
1048.8148	3201.0292	1083.45	205.1
1048.9178	3201.9648	1085.3	206.45
1049.0206	3202.8997	1083.35	201.45
1049.1235	3203.834	1085.95	209.6
1049.2262	3204.7677	1085.05	206.4
1049.329	3205.7008	1082.3	199.5
1049.4317	3206.6333	1076.7	199.9
1049.5343	3207.5652	1080	198.6
1049.6369	3208.4964	1075.9	197.65
1049.7394	3209.4271	1073.75	194.4
1049.8419	3210.3571	1080.7	202.8
1049.9444	3211.2865	1074.95	194.9
1050.0468	3212.2154	1075.4	194.15
1050.1491	3213.1436	1075.5	193.75
1050.2514	3214.0712	1079.45	194.05
1050.3537	3214.9982	1073.5	195.25
1050.4559	3215.9246	1070.3	189.1
1050.5581	3216.8503	1068.9	190.35
1050.6602	3217.7755	1067.45	188.35
1050.7623	3218.7001	1066.45	187.8
1050.8643	3219.624	1069.55	190.35
1050.9663	3220.5473	1062.5	182.85
1051.0682	3221.4701	1065.55	185.45
1051.1701	3222.3922	1064.05	182.9
1051.2719	3223.3137	1066.35	187.6
1051.3737	3224.2346	1064.4	184.65
1051.4754	3225.1549	1059.1	180.95
1051.5771	3226.0746	1061.55	183.55
1051.6788	3226.9937	1059.95	183
1051.7804	3227.9121	1058.05	180.55
1051.8819	3228.83	1056.6	177.8
1051.9834	3229.7473	1054.6	175.35
1052.0849	3230.6639	1058.2	181
1052.1863	3231.5799	1054.2	174.25
1052.2876	3232.4954	1054.9	175.6
1052.3889	3233.4102	1050.65	172.75
1052.4902	3234.3244	1051.4	171.95
1052.5914	3235.238	1050.85	171.35
1052.6926	3236.151	1076.45	173.45
1052.7937	3237.0634	1050.15	173.6
1052.8948	3237.9752	1047.15	170.35
1052.9958	3238.8864	1045.65	165.1
1053.0968	3239.797	1047.8	170.1
1053.1977	3240.7069	1044.65	165.65
1053.2986	3241.6163	1049	168.25
1053.3994	3242.5251	1040.8	162.35
1053.5002	3243.4332	1040.45	162.55
1053.6009	3244.3408	1042.15	163.45
1053.7016	3245.2477	1039.75	160.25
1053.8022	3246.154	1042.25	163
1053.9028	3247.0598	1036.5	157.1
1054.0034	3247.9649	1037.25	157.6
1054.1039	3248.8694	1031.95	154.45
1054.2043	3249.7733	1034.8	155.7
1054.3047	3250.6766	1032.55	154.15
1054.4051	3251.5793	1034.65	157.35
1054.5054	3252.4814	1027.4	148.05
1054.6056	3253.3829	1029.45	152.5
1054.7058	3254.2838	1027.9	149.55
1054.806	3255.1841	1026.5	147.9
1054.9061	3256.0838	1020.65	141.25
1055.0061	3256.9829	1024.55	147.15
1055.1062	3257.8814	1023.4	143.65
1055.2061	3258.7792	1024.1	143.8
1055.306	3259.6765	1021.05	140.9
1055.4059	3260.5731	1017.3	138.65
1055.5057	3261.4692	1019.7	140.55
1055.6055	3262.3647	1017.15	137.95
1055.7052	3263.2595	1015.3	135.85
1055.8049	3264.1538	1005.5	128.95
1055.9045	3265.0474	1011.85	132.9
1056.0041	3265.9404	1007.9	130.1
1056.1036	3266.8329	1005.4	128.1
1056.2031	3267.7247	1014.65	126.6
1056.3025	3268.616	998.8	122.65
1056.4019	3269.5066	995.2	117.4
1056.5013	3270.3966	993.4	114
1056.6005	3271.286	988.05	110.95
