Software Version:	3.9.2.0
Unit SN:	10000200
Spectrometer SN:	6960
Date:	3/26/2024 1:10:53 PM
Data Line Index:	25
Spectral Points:	2048
Integration time (ms):	125
Averages:	20
Delay (ms):	30000
Sequence Number:	1
Processing:	dark subtract
Laser Power (mW):	300
Laser Current (mA):	818
Laser Diode Temp (C):	25
Laser Case Temp (C):	26.2
System Temp (C):	26.1
Spectrometer Temp (C):	23.9
CCD Temp (C):	0.009
Secondary Temp (C):	20.006
Heatsink Temp (C):	21.659
CCDPCB Temp (C):	36.474
SecondaryPCB Temp (C):	30.438

Wavelength	RamanShift	Raw Counts	Dark Subtracted
787.061	30.1047	424.85	14.8
787.2016	32.3739	423.55	15
787.3422	34.6426	424.15	14.4
787.4828	36.9109	426.15	12.65
787.6235	39.1787	434.4	15.65
787.7642	41.4461	438.4	18.05
787.9049	43.7131	444.1	20.45
788.0456	45.9796	447.15	20.65
788.1863	48.2456	452.5	20.8
788.3271	50.5112	457.6	20.75
788.4679	52.7764	459.55	20.4
788.6087	55.0411	465.9	25
788.7496	57.3054	472.05	26.75
788.8904	59.5692	475.95	28.5
789.0313	61.8326	481.65	30.55
789.1722	64.0955	488.95	32.75
789.3132	66.3579	497.9	37.65
789.4541	68.6199	506.05	41.9
789.5951	70.8815	516.85	50.45
789.7361	73.1426	536.4	67.4
789.8771	75.4032	590.85	117.45
790.0181	77.6634	705.85	226.85
790.1592	79.9231	965.85	484.45
790.3003	82.1824	1537.2	1051.75
790.4414	84.4412	2509.15	2017.1
790.5825	86.6995	3819.7	3320.3
790.7237	88.9574	5121.8	4614
790.8648	91.2148	6089	5576.1
791.006	93.4717	6611.3	6095.8
791.1472	95.7282	6812.1	6293.5
791.2885	97.9842	6870.95	6350.85
791.4297	100.2398	6885	6360.1
791.571	102.4949	6857.05	6328.65
791.7123	104.7495	6826.5	6293.85
791.8536	107.0036	6812.05	6279.95
791.9949	109.2573	6753.1	6221.6
792.1363	111.5105	6688.45	6154.6
792.2777	113.7632	6629.65	6093.85
792.4191	116.0154	6575.5	6028.8
792.5605	118.2672	6530.05	5991.75
792.7019	120.5185	6470.05	5930.9
792.8434	122.7693	6417.9	5873.45
792.9849	125.0197	6346.7	5799
793.1264	127.2696	6316.25	5768.95
793.2679	129.519	6281.1	5729.25
793.4094	131.7679	6275.65	5723.3
793.551	134.0163	6265.7	5708.25
793.6926	136.2642	6234.9	5671.95
793.8342	138.5117	6234	5660.85
793.9758	140.7587	6223.1	5654.65
794.1175	143.0052	6195.1	5625.85
794.2591	145.2512	6148.95	5578.85
794.4008	147.4967	6118.55	5546.75
794.5425	149.7417	6069.9	5499.25
794.6842	151.9863	6051.5	5475.65
794.826	154.2304	6027.25	5447.2
794.9677	156.4739	6014.3	5429.85
795.1095	158.717	6004	5418.2
795.2513	160.9596	6020.9	5431.75
795.3931	163.2017	6003.25	5408.25
795.535	165.4433	6015.1	5421.7
795.6768	167.6844	6011	5415.05
795.8187	169.925	6009.6	5407.95
795.9606	172.1651	5955.65	5352.4
796.1025	174.4047	5909.8	5301.35
796.2445	176.6439	5885.5	5275.8
796.3864	178.8825	5864.55	5252.45
796.5284	181.1206	5859.8	5243.2
796.6704	183.3582	5836.9	5217.2
796.8124	185.5954	5817.05	5196.75
796.9544	187.832	5802.45	5177.75
797.0965	190.0681	5822.2	5196.75
797.2386	192.3037	5806	5176.95
797.3806	194.5388	5805.65	5172.9
797.5228	196.7734	5820.95	5187.75
797.6649	199.0075	5830.25	5189.75
797.807	201.2411	5852.35	5208.65
797.9492	203.4742	5858.55	5217.4
798.0914	205.7068	5882.5	5239.55
798.2336	207.9389	5873.75	5230.2
798.3758	210.1704	5904.85	5256.75
798.518	212.4015	5892.5	5242.4
798.6603	214.632	5891.95	5240.4
798.8025	216.862	5897.5	5257.85
798.9448	219.0915	5869.8	5233.35
799.0871	221.3205	5871	5237.45
799.2294	223.549	5874.8	5247.15
799.3718	225.777	5875.9	5246.95
799.5141	228.0044	5888.35	5255.7
799.6565	230.2314	5864.55	5238
799.7989	232.4578	5863.5	5231.95
799.9413	234.6837	5848.5	5207.55
800.0837	236.909	5831.35	5190.3
800.2262	239.1339	5833.85	5167.1
800.3687	241.3582	5822.9	5173.25
800.5111	243.582	5825	5143
800.6536	245.8053	5816.3	5145.55
800.7961	248.0281	5810.65	5146.55
800.9387	250.2503	5805.9	5134.2
801.0812	252.472	5822.55	5146.4
801.2238	254.6932	5808.7	5129.45
801.3664	256.9139	5813.35	5133.4
801.509	259.134	5813.15	5131.35
801.6516	261.3536	5828.5	5147.6
801.7942	263.5727	5845.4	5165.2
801.9369	265.7912	5849.1	5164.65
802.0795	268.0092	5902.2	5219.25
802.2222	270.2267	5926.9	5242
802.3649	272.4436	5950.65	5262.6
802.5076	274.6601	5976.35	5281.4
802.6504	276.8759	5987.85	5300.3
802.7931	279.0913	5990.9	5301.7
802.9359	281.3061	6001.4	5309.15
803.0787	283.5204	6000.1	5303.8
803.2215	285.7341	6031.2	5333.1
803.3643	287.9473	6059	5348.85
803.5071	290.16	6041.2	5334.9
803.6499	292.3721	6023.5	5324.4
803.7928	294.5837	5977.5	5275.6
803.9357	296.7947	5919.8	5218.7
804.0786	299.0052	5910.35	5207.75
804.2215	301.2152	5875.5	5171.6
804.3644	303.4246	5869.95	5169.55
804.5074	305.6334	5856.05	5153.4
804.6503	307.8418	5835.35	5130.3
804.7933	310.0495	5826.25	5119.1
804.9363	312.2568	5783	5077.7
805.0793	314.4635	5739.55	5031.15
805.2223	316.6696	5707.6	4998.15
805.3653	318.8752	5669.65	4951.55
805.5084	321.0802	5622.45	4913.25
805.6514	323.2847	5618.2	4903.5
805.7945	325.4887	5611.9	4897.45
805.9376	327.692	5603.25	4888.6
806.0807	329.8949	5647.25	4931
806.2238	332.0972	5655.15	4935.3
806.367	334.2989	5673.15	4951.3
806.5101	336.5001	5684.9	4964.35
806.6533	338.7007	5665.2	4943.05
806.7965	340.9008	5636.5	4912.8
806.9397	343.1003	5591.65	4864.65
807.0829	345.2992	5555.1	4828.1
807.2261	347.4976	5525.55	4797.7
807.3693	349.6955	5489.9	4757.7
807.5126	351.8927	5471.75	4738.55
807.6559	354.0895	5454.8	4711.7
807.7991	356.2856	5443.8	4708.75
807.9424	358.4812	5437.45	4703.1
808.0857	360.6763	5434	4696.4
808.2291	362.8707	5413.55	4676.45
808.3724	365.0646	5421.4	4681.75
808.5158	367.258	5402.2	4659.7
808.6591	369.4508	5384.85	4639.3
808.8025	371.643	5434.6	4691
808.9459	373.8346	5437.4	4690.3
809.0893	376.0257	5453.3	4700.6
809.2327	378.2162	5484.9	4732.3
809.3762	380.4062	5500.7	4744.85
809.5196	382.5956	5457.5	4702.65
809.6631	384.7844	5411.95	4655.4
809.8066	386.9726	5379	4623.85
809.9501	389.1603	5331.6	4577.45
810.0936	391.3474	5333.45	4548.7
810.2371	393.5339	5320.45	4564.2
810.3806	395.7199	5291	4540.7
810.5241	397.9052	5318.55	4571.1
810.6677	400.09	5321.85	4575.2
810.8113	402.2743	5355.75	4608.35
810.9548	404.4579	5350.6	4603.65
811.0984	406.641	5416.8	4665.65
811.2421	408.8235	5445.95	4695.35
811.3857	411.0054	5482.85	4731.85
811.5293	413.1868	5586.4	4831.75
811.673	415.3675	5682.6	4925.1
811.8166	417.5477	5718.85	4961.05
811.9603	419.7273	5640.05	4880.95
812.104	421.9064	5491.75	4721.8
812.2477	424.0848	5416.85	4648.8
812.3914	426.2627	5343.3	4576.5
812.5351	428.4399	5290.4	4521.2
812.6788	430.6166	5233.25	4460.35
812.8226	432.7928	5207.65	4436.2
812.9663	434.9683	5156.5	4384.9
813.1101	437.1432	5143.1	4368.95
813.2539	439.3176	5109.2	4334.2
813.3977	441.4914	5097.5	4321.7
813.5415	443.6645	5093	4314.25
813.6853	445.8371	5068.3	4291.95
813.8291	448.0091	5061.15	4283.2
813.973	450.1806	5045.8	4268.2
814.1168	452.3514	5028.75	4247.2
814.2607	454.5216	5038.45	4251.95
814.4046	456.6913	5002.3	4222.45
814.5485	458.8603	5012.5	4232
814.6924	461.0288	5007.25	4227.15
814.8363	463.1967	4997.95	4217.2
814.9802	465.3639	5007	4223.6
815.1241	467.5306	4988.85	4202.55
815.2681	469.6967	4973.1	4188.7
815.412	471.8622	4967.65	4184.5
815.556	474.0271	4957.9	4172.85
815.7	476.1914	4961.2	4174.5
815.844	478.3551	4943.35	4156.1
815.988	480.5182	4964	4177.05
816.132	482.6807	4947.55	4158.75
816.276	484.8426	4957.8	4171.1
816.4201	487.0039	5006.3	4218.5
816.5641	489.1647	5032.25	4243.1
816.7082	491.3248	5070.95	4281.95
816.8522	493.4843	5064.75	4274.6
816.9963	495.6432	5073.85	4283.5
817.1404	497.8015	5030.75	4235.3
817.2845	499.9592	5020.8	4230.15
817.4286	502.1163	4985.85	4191.85
817.5727	504.2728	4946.1	4148.4
817.7168	506.4287	4919.85	4127.5
817.861	508.5839	4907.75	4113.15
818.0051	510.7386	4892.2	4098.9
818.1493	512.8927	4917.9	4113.15
818.2935	515.0461	4900.35	4103.4
818.4377	517.199	4891.5	4093.3
818.5818	519.3512	4927.7	4128.2
818.726	521.5029	4968.8	4165.3
818.8703	523.6539	5021.15	4222.3
819.0145	525.8043	5032.4	4232.65
819.1587	527.9541	4997.9	4195.9
819.303	530.1033	4942.05	4139.25
819.4472	532.2519	4911.75	4110.65
819.5915	534.3999	4890.7	4085.45
819.7357	536.5472	4869.2	4065.35
819.88	538.694	4879.35	4075.25
820.0243	540.8401	4892.1	4089.3
820.1686	542.9856	4906.25	4100.75
820.3129	545.1305	4902.5	4096.85
820.4572	547.2748	4912.25	4105.6
820.6016	549.4185	4917.15	4107.8
820.7459	551.5615	4917.25	4109.05
820.8902	553.704	4931.6	4122.9
821.0346	555.8458	4928.7	4121
821.1789	557.987	4949.45	4142.4
821.3233	560.1276	4968.5	4160.95
821.4677	562.2675	5002.7	4194.6
821.6121	564.4069	5048.5	4239.55
821.7565	566.5456	5078.2	4268.2
821.9009	568.6837	5069.4	4259.85
822.0453	570.8212	5039.55	4230.95
822.1897	572.958	4970.9	4159.2
822.3342	575.0942	4935.85	4125.6
822.4786	577.2299	4900.1	4088
822.6231	579.3648	4867.15	4054.75
822.7675	581.4992	4823.55	4012.05
822.912	583.6329	4812.2	4000.2
823.0565	585.766	4817.4	4005.8
823.201	587.8985	4839	4026.5
823.3454	590.0304	4888.7	4063.9
823.4899	592.1616	4900.75	4082.3
823.6345	594.2922	4899.55	4082.25
823.779	596.4222	4861.1	4043
823.9235	598.5515	4824.65	4006
824.068	600.6802	4770.5	3949.95
824.2126	602.8083	4722.95	3904.7
824.3571	604.9358	4717.25	3897.7
824.5017	607.0626	4700.9	3879.5
824.6462	609.1888	4711.4	3892.65
824.7908	611.3144	4717.05	3894.25
824.9354	613.4393	4731.7	3910.5
825.08	615.5636	4766	3944.45
825.2246	617.6873	4805.8	3984.05
825.3692	619.8103	4838.05	4012.4
825.5138	621.9327	4836.45	4010.35
825.6584	624.0544	4802.1	3978.4
825.803	626.1756	4769.55	3950.7
825.9477	628.2961	4749.05	3926.25
826.0923	630.4159	4700.3	3877.35
826.237	632.5351	4704.75	3880.85
826.3816	634.6537	4701.1	3876.85
826.5263	636.7716	4693.45	3865.8
826.6709	638.8889	4683.85	3858.05
826.8156	641.0056	4700.25	3874.75
826.9603	643.1216	4708.85	3880.95
827.105	645.237	4724.6	3894.45
827.2497	647.3518	4713.1	3884.4
827.3944	649.4659	4678.15	3850.9
827.5391	651.5793	4661.15	3831.2
827.6838	653.6922	4641.9	3814.15
827.8285	655.8043	4642.25	3814.2
827.9733	657.9159	4625.25	3795.15
828.118	660.0268	4602.4	3771.1
828.2627	662.137	4593.65	3762.85
828.4075	664.2466	4611.85	3777.6
828.5522	666.3556	4593.3	3761.4
828.697	668.4639	4583.15	3747.55
828.8418	670.5716	4579.45	3748.8
828.9865	672.6786	4560.45	3728.2
829.1313	674.785	4569.65	3733.8
829.2761	676.8907	4569.2	3733.45
829.4209	678.9958	4553.45	3721.25
829.5657	681.1002	4538.3	3704.5
829.7105	683.204	4549.1	3710.6
829.8553	685.3072	4548.6	3713.5
830.0001	687.4097	4535.25	3701.3
830.1449	689.5115	4540.85	3700.55
830.2898	691.6127	4517	3683.95
830.4346	693.7132	4516.6	3679.35
830.5794	695.8131	4539.25	3684.65
830.7243	697.9123	4537.5	3698.6
830.8691	700.0109	4522.7	3684.05
831.014	702.1089	4539.7	3701.6
831.1588	704.2061	4529.2	3689.35
831.3037	706.3028	4556.9	3716.3
831.4486	708.3987	4574.95	3734.6
831.5935	710.4941	4583.35	3744.55
831.7383	712.5887	4569	3730.3
831.8832	714.6827	4582.15	3738.45
832.0281	716.7761	4580.1	3741
832.173	718.8688	4577.85	3738.65
832.3179	720.9608	4572.65	3727.55
832.4628	723.0522	4572.25	3728.65
832.6077	725.1429	4575.7	3736.7
832.7527	727.233	4599.95	3757.35
832.8976	729.3224	4643.45	3801.95
833.0425	731.4112	4686.75	3843.9
833.1874	733.4993	4681.45	3836.65
833.3324	735.5867	4666.75	3820.85
833.4773	737.6735	4607.25	3762.25
833.6222	739.7596	4576.8	3731.45
833.7672	741.845	4545.95	3700.75
833.9122	743.9298	4550.4	3702
834.0571	746.014	4564.3	3719.9
834.2021	748.0974	4574.2	3725.95
834.347	750.1802	4576.1	3730.05
834.492	752.2624	4543.45	3696.45
834.637	754.3439	4521.5	3671.9
834.782	756.4247	4502.45	3647.35
834.9269	758.5048	4469.7	3625.2
835.0719	760.5843	4472.5	3623.05
835.2169	762.6631	4486.05	3636.7
835.3619	764.7413	4510.35	3662.1
835.5069	766.8188	4566.45	3716.8
835.6519	768.8956	4602.1	3750.95
835.7969	770.9718	4648.15	3799.95
835.9419	773.0473	4624.15	3775.5
836.0869	775.1221	4594.3	3745.75
836.232	777.1962	4582.55	3733.65
836.377	779.2697	4621.9	3770.7
836.522	781.3426	4693.7	3823.8
836.667	783.4147	4738.45	3887.3
836.8121	785.4862	4732.55	3884.55
836.9571	787.557	4680.5	3829.5
837.1021	789.6271	4586.85	3732.65
837.2472	791.6966	4488.7	3636.25
837.3922	793.7654	4398.15	3544.8
837.5373	795.8335	4338.55	3488.8
837.6823	797.901	4301.25	3451.15
837.8274	799.9678	4300.4	3445.55
837.9724	802.0339	4274.05	3422.3
838.1175	804.0993	4302.1	3439.1
838.2626	806.1641	4286.5	3431.5
838.4076	808.2282	4274	3422.2
838.5527	810.2916	4261.7	3405.2
838.6978	812.3544	4245.2	3393.3
838.8428	814.4164	4213.55	3361.75
838.9879	816.4778	4229.75	3375.15
839.133	818.5385	4211.05	3357.25
839.2781	820.5986	4246.95	3394.85
839.4232	822.658	4274.7	3419.05
839.5682	824.7166	4316.85	3463.65
839.7133	826.7747	4379.5	3523.25
839.8584	828.832	4410	3554.1
840.0035	830.8886	4451.7	3595.45
840.1486	832.9446	4473	3616.45
840.2937	834.9999	4448.95	3595.1
840.4388	837.0545	4424.9	3567.8
840.5839	839.1085	4337.55	3480.85
840.729	841.1618	4291.95	3430.5
840.8741	843.2143	4239.2	3381.55
841.0192	845.2662	4182.85	3329.05
841.1643	847.3175	4178.65	3322.45
841.3095	849.368	4157.15	3299.3
841.4546	851.4179	4156.45	3299.4
841.5997	853.467	4138.55	3283.85
841.7448	855.5155	4152.1	3294.5
841.8899	857.5633	4146.85	3289.65
842.0351	859.6105	4121.35	3264.25
842.1802	861.6569	4115.5	3256.85
842.3253	863.7027	4104.3	3243.2
842.4704	865.7478	4096.2	3236.9
842.6156	867.7922	4083.4	3223.95
842.7607	869.8359	4067.1	3206.3
842.9058	871.8789	4056.1	3196.2
843.0509	873.9212	4060.35	3168.25
843.1961	875.9629	4062.3	3204.35
843.3412	878.0039	4056	3196.3
843.4863	880.0441	4072.7	3215
843.6315	882.0837	4065.25	3204.7
843.7766	884.1226	4088.95	3226.7
843.9218	886.1609	4112.2	3253.65
844.0669	888.1984	4133.35	3274.95
844.212	890.2352	4176.1	3315.85
844.3572	892.2714	4165.6	3298.6
844.5023	894.3069	4148.3	3286.45
844.6475	896.3416	4094.75	3231.4
844.7926	898.3757	4064.7	3203.95
844.9377	900.4091	4038.75	3174.25
845.0829	902.4418	4049.6	3181.9
845.228	904.4739	4042.45	3177.8
845.3732	906.5052	4049.25	3188.1
845.5183	908.5358	4045.4	3184.6
845.6635	910.5658	4025.8	3163.25
845.8086	912.595	4005.85	3141
845.9538	914.6236	3963.85	3100.45
846.0989	916.6515	3929.75	3066.35
846.2441	918.6786	3919.1	3053.8
846.3892	920.7051	3910.35	3045.6
846.5344	922.7309	3889.95	3027.45
846.6795	924.756	3885.9	3021.45
846.8246	926.7804	3887.05	3021.8
846.9698	928.8041	3863.05	2994.1
847.1149	930.8272	3875.8	3009.7
847.2601	932.8495	3879.1	3010.7
847.4052	934.8711	3887.65	3021.65
847.5504	936.892	3870.1	3004.45
847.6955	938.9123	3879.15	3012.55
847.8407	940.9318	3890.1	3022.8
847.9858	942.9506	3892.3	3026.9
848.131	944.9688	3876.2	3012.45
848.2761	946.9862	3855.5	2990.3
848.4213	949.003	3829.7	2965
848.5664	951.019	3814.85	2948.85
848.7115	953.0344	3779.05	2913.5
848.8567	955.0491	3779.05	2913.9
849.0018	957.063	3777.95	2911.15
849.147	959.0763	3771.4	2897.05
849.2921	961.0888	3737.35	2869.75
849.4373	963.1007	3735.95	2868.25
849.5824	965.1119	3732	2863.35
849.7275	967.1223	3707.9	2840.35
849.8727	969.1321	3699.1	2832.4
850.0178	971.1412	3702.5	2834.7
850.1629	973.1495	3673.5	2806.75
850.3081	975.1572	3698.9	2811.95
850.4532	977.1641	3676.75	2810.35
850.5983	979.1704	3666.25	2799.15
850.7435	981.1759	3661.75	2790.65
850.8886	983.1808	3651.05	2781.15
851.0337	985.1849	3630.6	2749.7
851.1788	987.1884	3633.9	2761.05
851.324	989.1911	3626.75	2756
851.4691	991.1932	3620.15	2748.65
851.6142	993.1945	3615.8	2746.95
851.7593	995.1951	3597.8	2727.65
851.9045	997.1951	3585.3	2710.65
852.0496	999.1943	3569.65	2701.7
852.1947	1001.1928	3565.2	2694.4
852.3398	1003.1906	3563.95	2695.15
852.4849	1005.1877	3573.15	2704.1
852.63	1007.1841	3581.55	2710.25
852.7751	1009.1798	3590.45	2719.7
852.9202	1011.1748	3575.7	2706
853.0653	1013.1691	3546.45	2674.25
853.2104	1015.1627	3503.9	2632.6
853.3555	1017.1556	3464.2	2594.85
853.5006	1019.1477	3447.1	2577.35
853.6457	1021.1392	3420	2552.85
853.7908	1023.1299	3410.55	2540.2
853.9359	1025.12	3393.95	2520.35
854.081	1027.1093	3394.2	2526.9
854.2261	1029.0979	3389.75	2522.3
854.3712	1031.0859	3396.1	2525.6
854.5163	1033.0731	3405.4	2534.2
854.6613	1035.0596	3395.75	2525.4
854.8064	1037.0454	3364.75	2493.3
854.9515	1039.0304	3365.95	2495.15
855.0965	1041.0148	3332.75	2463.05
855.2416	1042.9985	3315.8	2443.75
855.3867	1044.9814	3299.6	2428.5
855.5317	1046.9636	3288.55	2413.75
855.6768	1048.9452	3271.75	2401.15
855.8219	1050.926	3274.8	2402.1
855.9669	1052.9061	3292.9	2423.25
856.112	1054.8855	3282.15	2409.45
856.257	1056.8642	3283.75	2412.15
856.4021	1058.8421	3281.25	2403.9
856.5471	1060.8194	3268.75	2395.85
856.6921	1062.7959	3257.85	2384.1
856.8372	1064.7717	3258.8	2386.4
856.9822	1066.7469	3250.1	2375.2
857.1272	1068.7213	3240.95	2363.55
857.2723	1070.695	3242.95	2368.1
857.4173	1072.6679	3236.95	2361.8
857.5623	1074.6402	3248.95	2374.9
857.7073	1076.6117	3265.35	2385.6
857.8523	1078.5826	3244.8	2371.65
857.9973	1080.5527	3210.5	2333.6
858.1423	1082.5221	3195.1	2321.65
858.2873	1084.4908	3161.95	2288.7
858.4323	1086.4587	3149.2	2274.7
858.5773	1088.426	3125.3	2252.4
858.7223	1090.3925	3118.1	2240.05
858.8673	1092.3584	3104.8	2232.05
859.0123	1094.3235	3105.85	2233.3
859.1573	1096.2879	3115	2241.55
859.3022	1098.2515	3119.75	2246.05
859.4472	1100.2145	3138.3	2265.25
859.5922	1102.1767	3153.85	2278.05
859.7371	1104.1382	3174.4	2301
859.8821	1106.099	3211.15	2334.15
860.027	1108.0591	3235.55	2361.6
860.172	1110.0185	3264.1	2387.15
860.3169	1111.9771	3296.6	2421.9
860.4619	1113.9351	3313.15	2436.45
860.6068	1115.8923	3340.65	2466.35
860.7517	1117.8488	3378.7	2500.8
860.8967	1119.8045	3344.75	2469.7
861.0416	1121.7596	3270.95	2392.45
861.1865	1123.7139	3187.65	2312.65
861.3314	1125.6675	3131.4	2256.5
861.4763	1127.6204	3122	2245.95
861.6212	1129.5726	3128.05	2251.6
861.7661	1131.524	3129.15	2253.45
861.911	1133.4748	3098.7	2222.6
862.0559	1135.4248	3049.95	2172.75
862.2008	1137.3741	2995.2	2119.8
862.3457	1139.3226	2966.7	2089.3
862.4905	1141.2705	2966.95	2091.45
862.6354	1143.2176	2962.7	2080.35
862.7803	1145.164	2965	2086.5
862.9251	1147.1097	2965.9	2086.85
863.07	1149.0546	2953.45	2073.55
863.2148	1150.9989	2917.9	2040.85
863.3597	1152.9424	2895.8	2017.9
863.5045	1154.8852	2875.6	1998.8
863.6493	1156.8272	2872.45	1997.4
863.7942	1158.7686	2875.15	1992.15
863.939	1160.7092	2865.35	1987.4
864.0838	1162.6491	2851.1	1972.25
864.2286	1164.5883	2850.25	1973.8
864.3734	1166.5267	2865.3	1986.6
864.5182	1168.4644	2884.65	2005.8
864.663	1170.4014	2897	2015.75
864.8078	1172.3377	2914.35	2039.3
864.9526	1174.2732	2944.45	2068.75
865.0974	1176.2081	3004.1	2124.85
865.2421	1178.1421	3109.25	2227
865.3869	1180.0755	3169.2	2293.95
865.5317	1182.0082	3230.7	2352.9
865.6764	1183.9401	3245.35	2365.05
865.8212	1185.8713	3166.65	2288.15
865.9659	1187.8017	3064.9	2187.6
866.1106	1189.7315	2982.4	2106.35
866.2554	1191.6605	2889.1	2013.55
866.4001	1193.5888	2855.9	1977.95
866.5448	1195.5163	2828.45	1950.25
866.6895	1197.4432	2806	1926.2
866.8342	1199.3693	2783.15	1905.55
866.9789	1201.2947	2773.2	1892.6
867.1236	1203.2193	2737.1	1857.6
867.2683	1205.1432	2727.7	1848.35
867.413	1207.0664	2727.85	1849.4
867.5576	1208.9889	2718.25	1836.15
867.7023	1210.9106	2720.8	1842.05
867.847	1212.8316	2692.1	1813.9
867.9916	1214.7519	2720.25	1831.85
868.1363	1216.6715	2718.05	1839.8
868.2809	1218.5903	2730.65	1852
868.4255	1220.5084	2729.35	1851.1
868.5701	1222.4257	2739.95	1860.05
868.7148	1224.3424	2723.35	1847.1
868.8594	1226.2583	2740.45	1855.4
869.004	1228.1735	2757.85	1877.05
869.1486	1230.0879	2766.05	1889.4
869.2932	1232.0016	2784.15	1904.05
869.4377	1233.9146	2810.75	1928.45
869.5823	1235.8269	2827.1	1947.65
869.7269	1237.7384	2837.2	1959.2
869.8715	1239.6492	2803.65	1923.1
870.016	1241.5592	2827.6	1947.35
870.1606	1243.4686	2837.2	1958.1
870.3051	1245.3772	2896.5	2018.85
870.4496	1247.285	2955.8	2076.45
870.5941	1249.1922	3019.65	2139.2
870.7387	1251.0986	3066.6	2185.5
870.8832	1253.0042	3104.7	2224.65
871.0277	1254.9092	3174	2291.8
871.1722	1256.8134	3233.75	2355.55
871.3167	1258.7169	3305.15	2424.55
871.4611	1260.6196	3347.65	2469.55
871.6056	1262.5216	3354	2474.25
871.7501	1264.4229	3354.75	2477.45
871.8945	1266.3234	3345.05	2465.65
872.039	1268.2232	3290	2408.9
872.1834	1270.1223	3236	2352.35
872.3278	1272.0207	3197	2315.05
872.4723	1273.9183	3182.95	2295.3
872.6167	1275.8151	3181.05	2302.8
872.7611	1277.7113	3198.5	2316.8
872.9055	1279.6067	3252.25	2372.45
873.0499	1281.5014	3354.5	2470.65
873.1943	1283.3953	3492.75	2611.3
873.3386	1285.2885	3641.15	2761.4
873.483	1287.181	3752.7	2870.7
873.6274	1289.0727	3834.3	2954.25
873.7717	1290.9637	3804.85	2921.7
873.9161	1292.854	3701.7	2820.25
874.0604	1294.7435	3596.25	2714.65
874.2047	1296.6323	3499.5	2618.65
874.349	1298.5204	3414.95	2530.75
874.4933	1300.4077	3349.15	2465.05
874.6376	1302.2943	3291.35	2411.25
874.7819	1304.1802	3258	2377.5
874.9262	1306.0653	3229.65	2344.85
875.0705	1307.9497	3207.7	2326.2
875.2147	1309.8333	3171.75	2289.7
875.359	1311.7162	3152.55	2271.95
875.5032	1313.5984	3127.7	2245.35
875.6475	1315.4798	3116.75	2233.75
875.7917	1317.3605	3106.55	2216.65
875.9359	1319.2405	3111.2	2226.25
876.0801	1321.1197	3117.8	2234.6
876.2243	1322.9982	3099	2212.05
876.3685	1324.876	3034.9	2152.9
876.5127	1326.753	2959.7	2078.35
876.6569	1328.6293	2896.05	2012.85
876.801	1330.5048	2813.4	1928.8
876.9452	1332.3796	2738.75	1859.4
877.0893	1334.2537	2714.35	1810.7
877.2335	1336.127	2661.75	1778.6
877.3776	1337.9996	2643.75	1761
877.5217	1339.8714	2607.15	1725
877.6658	1341.7426	2639.05	1713.4
877.8099	1343.6129	2588.5	1706.35
877.954	1345.4826	2563.6	1682.8
878.0981	1347.3515	2554.05	1668.2
878.2422	1349.2196	2540.2	1658
878.3862	1351.087	2515.9	1633.05
878.5303	1352.9537	2525.05	1642.9
878.6743	1354.8197	2513.6	1632.25
878.8184	1356.6849	2517.15	1634.5
878.9624	1358.5493	2526.65	1642.7
879.1064	1360.4131	2542.6	1660.2
879.2504	1362.276	2576.3	1695.3
879.3944	1364.1383	2586.7	1704.05
879.5384	1365.9998	2600.5	1710.45
879.6823	1367.8606	2582.1	1697.9
879.8263	1369.7206	2588.25	1705.15
879.9702	1371.5799	2598.4	1712.2
880.1142	1373.4384	2580.75	1698.2
880.2581	1375.2962	2544.65	1659.4
880.402	1377.1533	2503.15	1621.15
880.5459	1379.0096	2468.65	1585.75
880.6898	1380.8652	2437.55	1555.7
880.8337	1382.7201	2406.95	1524.45
880.9776	1384.5742	2390.65	1506.35
881.1215	1386.4275	2354.15	1471.05
881.2653	1388.2802	2339.3	1457.8
881.4092	1390.132	2332.55	1449.15
881.553	1391.9832	2332.65	1448.45
881.6968	1393.8336	2308.05	1423.7
881.8406	1395.6832	2299.2	1413.9
881.9844	1397.5322	2292	1408.45
882.1282	1399.3803	2281.65	1393.6
882.272	1401.2278	2269.9	1389.15
882.4158	1403.0745	2268.75	1385.8
882.5595	1404.9204	2248.75	1367.1
882.7033	1406.7656	2249	1364.9
882.847	1408.6101	2233.15	1350.75
882.9908	1410.4538	2224.85	1341.05
883.1345	1412.2968	2224.65	1340.6
883.2782	1414.139	2216.2	1333.7
883.4219	1415.9805	2224.65	1341.05
883.5656	1417.8213	2247.65	1342.6
883.7092	1419.6613	2246.4	1362.5
883.8529	1421.5006	2260.6	1375
883.9965	1423.3391	2270.75	1387.5
884.1402	1425.1769	2307.75	1422.7
884.2838	1427.0139	2352.6	1470
884.4274	1428.8502	2426.7	1543.5
884.571	1430.6858	2463.85	1579.9
884.7146	1432.5206	2493.4	1608.95
884.8582	1434.3547	2494.65	1609.55
885.0018	1436.188	2474.55	1591.1
885.1453	1438.0206	2466.35	1582.85
885.2889	1439.8524	2443.1	1561.45
885.4324	1441.6835	2439.5	1555.7
885.5759	1443.5139	2440	1553
885.7194	1445.3435	2446.45	1561.85
885.8629	1447.1724	2444.05	1560.5
886.0064	1449.0005	2430.35	1545.55
886.1499	1450.8279	2415.3	1529.75
886.2933	1452.6545	2425.8	1540.2
886.4368	1454.4804	2416.25	1534.35
886.5802	1456.3056	2408.2	1517.75
886.7237	1458.13	2402.15	1518.55
886.8671	1459.9536	2374.8	1490.9
887.0105	1461.7766	2338.7	1453.85
887.1539	1463.5987	2309.05	1423.95
887.2972	1465.4202	2290.55	1407.8
887.4406	1467.2409	2252.45	1367.6
887.584	1469.0608	2225.4	1340
887.7273	1470.88	2202.35	1316.25
887.8706	1472.6984	2167.45	1285.6
888.0139	1474.5161	2154.2	1266.65
888.1572	1476.3331	2137.15	1253.45
888.3005	1478.1493	2136.95	1251.4
888.4438	1479.9648	2118.15	1233.85
888.5871	1481.7795	2120	1236.15
888.7303	1483.5935	2120.3	1237.4
888.8736	1485.4067	2115.2	1231.75
889.0168	1487.2192	2115.3	1232.05
889.16	1489.031	2114.65	1230.2
889.3032	1490.842	2117.25	1233
889.4464	1492.6522	2109.4	1226.95
889.5896	1494.4618	2101.6	1217
889.7327	1496.2705	2102.55	1219.15
889.8759	1498.0785	2102.5	1216.9
890.019	1499.8858	2084.85	1199.35
890.1622	1501.6924	2096.4	1212.3
890.3053	1503.4981	2080.1	1197.2
890.4484	1505.3032	2078.85	1192.9
890.5914	1507.1075	2060.1	1174.95
890.7345	1508.911	2047.8	1162.85
890.8776	1510.7138	2058.05	1176.4
891.0206	1512.5159	2034.9	1149.6
891.1637	1514.3172	2030.45	1144.6
891.3067	1516.1178	2027.7	1144.9
891.4497	1517.9176	2023.5	1134.1
891.5927	1519.7166	2003.05	1121.15
891.7357	1521.515	2000.65	1109.15
891.8786	1523.3126	1999	1116.8
892.0216	1525.1094	1993.2	1106
892.1645	1526.9055	1975.9	1093.5
892.3074	1528.7008	1980.5	1094.75
892.4503	1530.4954	1967.35	1082.45
892.5932	1532.2893	1959.85	1075.9
892.7361	1534.0824	1959.1	1069.6
892.879	1535.8747	1948.25	1063.45
893.0218	1537.6663	1943.55	1059.25
893.1647	1539.4572	1944.3	1057.4
893.3075	1541.2473	1934.9	1050.95
893.4503	1543.0367	1935.6	1050.25
893.5931	1544.8253	1934.9	1047.1
893.7359	1546.6132	1939.2	1051.55
893.8787	1548.4003	1937.3	1044.5
894.0214	1550.1867	1945.2	1050.55
894.1642	1551.9723	1951.6	1062
894.3069	1553.7572	1944.8	1060.25
894.4496	1555.5414	1958.2	1074.05
894.5923	1557.3247	1972.8	1087.35
894.735	1559.1074	1995.3	1112.8
894.8777	1560.8893	2016.9	1134.8
895.0204	1562.6705	2050.55	1165.5
895.163	1564.4509	2071.25	1187.6
895.3056	1566.2305	2076.75	1194.15
895.4482	1568.0094	2078.85	1194.85
895.5908	1569.7876	2088	1207.55
895.7334	1571.565	2072.15	1189.75
895.876	1573.3417	2079.9	1195.5
896.0186	1575.1176	2076.2	1192.85
896.1611	1576.8928	2081.6	1196.05
896.3036	1578.6672	2095	1211.1
896.4461	1580.4409	2115	1233.4
896.5886	1582.2138	2151.8	1264.45
896.7311	1583.986	2172.25	1286.8
896.8736	1585.7575	2200.05	1318.5
897.0161	1587.5282	2217.65	1334.2
897.1585	1589.2981	2241.2	1358.35
897.3009	1591.0673	2262.85	1378.3
897.4433	1592.8358	2265.4	1380.5
897.5857	1594.6035	2262.95	1376
897.7281	1596.3704	2245.7	1361.6
897.8705	1598.1366	2224.65	1341.95
898.0128	1599.9021	2204.35	1322.85
898.1551	1601.6668	2173.2	1285.9
898.2975	1603.4308	2161.4	1274.75
898.4398	1605.194	2163.8	1275.5
898.5821	1606.9564	2171.1	1287.1
898.7243	1608.7182	2211	1323.05
898.8666	1610.4791	2270.1	1389.55
899.0088	1612.2394	2346.3	1464.4
899.1511	1613.9988	2429.75	1546.65
899.2933	1615.7576	2504.95	1621.3
899.4355	1617.5156	2552.25	1660.55
899.5776	1619.2728	2525.55	1643.1
899.7198	1621.0293	2473.9	1590.4
899.862	1622.785	2376.95	1491.65
900.0041	1624.54	2264.35	1380.4
900.1462	1626.2942	2168.6	1283.55
900.2883	1628.0477	2083	1197.75
900.4304	1629.8005	2011	1123.8
900.5725	1631.5525	1949.4	1067.1
900.7145	1633.3037	1895.6	1010.1
900.8566	1635.0542	1860.1	976.9
900.9986	1636.804	1822.15	937.2
901.1406	1638.553	1855.2	920.75
901.2826	1640.3013	1782.45	897.65
901.4245	1642.0488	1773.95	888.8
901.5665	1643.7955	1749.3	867.7
901.7085	1645.5416	1736.1	850.9
901.8504	1647.2868	1740.3	859.5
901.9923	1649.0313	1720.9	838.15
902.1342	1650.7751	1712.4	823.15
902.2761	1652.5181	1705.65	821.3
902.4179	1654.2604	1706.65	820.15
902.5598	1656.0019	1711.1	829.25
902.7016	1657.7427	1709.05	825.45
902.8434	1659.4828	1734.85	851
902.9852	1661.222	1751.35	866.65
903.127	1662.9606	1773.7	891.5
903.2687	1664.6984	1799.1	912.85
903.4105	1666.4354	1813.75	930
903.5522	1668.1717	1797.7	915.3
903.6939	1669.9072	1769.2	881.85
903.8356	1671.642	1725.7	839.7
903.9773	1673.3761	1695.65	812.8
904.119	1675.1094	1658.45	773.35
904.2606	1676.8419	1644.15	758.85
904.4022	1678.5737	1630.85	746.35
904.5439	1680.3048	1620.35	734.7
904.6855	1682.0351	1614.2	730.1
904.827	1683.7646	1601.95	714.7
904.9686	1685.4934	1590.1	706.95
905.1101	1687.2215	1586.45	700.65
905.2517	1688.9488	1577.35	694.45
905.3932	1690.6754	1572.6	688.8
905.5347	1692.4012	1583.15	699.4
905.6761	1694.1263	1575.35	692.2
905.8176	1695.8506	1566.1	679.7
905.9591	1697.5742	1560.3	676.35
906.1005	1699.297	1559.4	675.1
906.2419	1701.0191	1552	667.75
906.3833	1702.7404	1547	664.7
906.5246	1704.461	1548.75	663.45
906.666	1706.1808	1536.05	651.75
906.8073	1707.8999	1534.65	649.8
906.9487	1709.6182	1535.65	650.8
907.09	1711.3358	1530.95	646.75
907.2313	1713.0527	1525.85	642.5
907.3725	1714.7688	1536	645.15
907.5138	1716.4841	1523.75	636.95
907.655	1718.1987	1522.75	633.65
907.7962	1719.9126	1519.3	636.65
907.9374	1721.6257	1517.75	631.95
908.0786	1723.338	1515.2	632.25
908.2198	1725.0496	1504.25	620.35
908.3609	1726.7605	1511.75	627.5
908.502	1728.4706	1507.25	621.85
908.6431	1730.18	1501.25	615.2
908.7842	1731.8886	1502.6	616.6
908.9253	1733.5964	1506.4	618.9
909.0664	1735.3036	1498.7	612.1
909.2074	1737.0099	1494.4	610.9
909.3484	1738.7156	1499.15	616.55
909.4894	1740.4204	1503.6	617.1
909.6304	1742.1246	1496.15	611.05
909.7714	1743.8279	1489.95	604.85
909.9123	1745.5306	1484.55	600.2
910.0532	1747.2325	1488.85	606.3
910.1941	1748.9336	1486.75	602.55
910.335	1750.634	1485.95	601.45
910.4759	1752.3336	1480.45	598
910.6168	1754.0325	1474.5	590.2
910.7576	1755.7307	1479.1	595.5
910.8984	1757.4281	1486.6	601.05
911.0392	1759.1247	1488.15	595.3
911.18	1760.8206	1474.85	586.75
911.3208	1762.5158	1480.1	590.65
911.4615	1764.2102	1474.2	592.4
911.6022	1765.9039	1465.75	581.65
911.7429	1767.5968	1467.5	584.25
911.8836	1769.289	1465.8	581.8
912.0243	1770.9804	1464.35	579.45
912.1649	1772.6711	1467.6	584.95
912.3056	1774.361	1466.3	581.35
912.4462	1776.0502	1460.8	575.6
912.5868	1777.7386	1467.55	579.25
912.7274	1779.4263	1451.05	566.9
912.8679	1781.1132	1457.6	574.95
913.0084	1782.7994	1452.6	566.8
913.149	1784.4849	1453.85	570.85
913.2895	1786.1696	1455.5	564.4
913.4299	1787.8535	1444.15	561.8
913.5704	1789.5367	1452.4	568.7
913.7108	1791.2192	1441.7	556.6
913.8513	1792.9009	1473.2	561.95
913.9917	1794.5818	1446.05	562.45
914.132	1796.2621	1439.15	555.6
914.2724	1797.9415	1438.35	555.95
914.4128	1799.6202	1437.1	552.55
914.5531	1801.2982	1439.4	555.7
914.6934	1802.9755	1435.8	550.65
914.8337	1804.6519	1432.85	549.25
914.9739	1806.3277	1425.85	543.75
915.1142	1808.0027	1423.65	540.25
915.2544	1809.6769	1430.7	547.55
915.3946	1811.3504	1425.95	539.5
915.5348	1813.0231	1425.45	541.75
915.675	1814.6951	1420.5	537
915.8151	1816.3664	1417.65	530.05
915.9553	1818.0369	1417.55	533.65
916.0954	1819.7067	1413.35	529.9
916.2355	1821.3757	1416.95	531
916.3755	1823.044	1415.45	531.6
916.5156	1824.7115	1417.5	533.2
916.6556	1826.3783	1409.1	524.75
916.7956	1828.0443	1418.9	534.4
916.9356	1829.7096	1408.85	523.45
917.0756	1831.3741	1418.6	531.6
917.2155	1833.0379	1403.55	518.75
917.3555	1834.701	1405.45	520.35
917.4954	1836.3633	1402.9	518.9
917.6353	1838.0248	1404.9	520.85
917.7751	1839.6856	1402.8	519.75
917.915	1841.3457	1403.1	519.9
918.0548	1843.005	1399.6	514.9
918.1946	1844.6636	1399.75	516.45
918.3344	1846.3214	1397.45	514.5
918.4742	1847.9785	1394.35	511.6
918.6139	1849.6349	1401.75	515.4
918.7537	1851.2904	1407.05	513.5
918.8934	1852.9453	1397.05	512.75
919.0331	1854.5994	1392.6	506.3
919.1727	1856.2528	1391.7	502.95
919.3124	1857.9054	1385.85	500.95
919.452	1859.5572	1387.1	503.65
919.5916	1861.2083	1391.3	504.3
919.7312	1862.8587	1382.15	498.25
919.8708	1864.5084	1384.8	499.45
920.0103	1866.1572	1381.65	498.75
920.1498	1867.8054	1380.5	496.7
920.2893	1869.4528	1388.5	504.55
920.4288	1871.0994	1376.85	490.75
920.5683	1872.7453	1378.45	491.75
920.7077	1874.3905	1384.5	494.15
920.8471	1876.0349	1376.15	490.65
920.9865	1877.6786	1370	486.4
921.1259	1879.3215	1376.65	492.8
921.2653	1880.9637	1368.55	482.95
921.4046	1882.6051	1370.25	485.05
921.5439	1884.2458	1377.7	490.5
921.6832	1885.8858	1373.2	488.3
921.8225	1887.525	1364.35	480.35
921.9617	1889.1634	1360.35	474.65
922.101	1890.8011	1363.55	478.3
922.2402	1892.4381	1361.2	474.25
922.3794	1894.0743	1354.95	470.75
922.5185	1895.7098	1358.45	473.9
922.6577	1897.3446	1360.55	475.6
922.7968	1898.9786	1361.35	473.1
922.9359	1900.6118	1350.75	468.25
923.075	1902.2443	1354.6	469.8
923.214	1903.8761	1356.25	473.65
923.3531	1905.5071	1349.55	466.85
923.4921	1907.1374	1350.05	463.45
923.6311	1908.7669	1346.05	462.6
923.77	1910.3957	1347.75	461.8
923.909	1912.0237	1349	464.75
924.0479	1913.651	1344.55	456.9
924.1868	1915.2776	1338.9	456
924.3257	1916.9034	1340.9	458.45
924.4646	1918.5285	1344.45	462.5
924.6034	1920.1528	1338.1	453.65
924.7422	1921.7764	1339.25	456.1
924.881	1923.3992	1338.4	455.05
925.0198	1925.0213	1338.6	451.25
925.1586	1926.6427	1326.4	442.45
925.2973	1928.2633	1398.75	447.7
925.436	1929.8832	1332.3	444.25
925.5747	1931.5023	1322	439.2
925.7134	1933.1207	1328	443.9
925.852	1934.7383	1329.4	443.45
925.9906	1936.3552	1321.55	439.85
926.1292	1937.9714	1324.4	437.1
926.2678	1939.5868	1328.85	441.75
926.4064	1941.2015	1316.25	429.75
926.5449	1942.8154	1317.9	433.7
926.6834	1944.4286	1314.7	431.55
926.8219	1946.041	1337.1	428.8
926.9604	1947.6528	1315.7	426.65
927.0988	1949.2637	1312.75	428
927.2372	1950.8739	1309.75	424.55
927.3756	1952.4834	1309.7	427.65
927.514	1954.0921	1312.5	427.8
927.6523	1955.7001	1310.7	422.55
927.7907	1957.3074	1305.8	424.1
927.929	1958.9139	1303	417.6
928.0673	1960.5197	1305.85	419.25
928.2055	1962.1247	1300.95	416.9
928.3438	1963.729	1293.95	411.45
928.482	1965.3325	1324.6	416.75
928.6202	1966.9353	1292.05	407.95
928.7584	1968.5374	1299.45	414.3
928.8965	1970.1387	1296.95	411.4
929.0346	1971.7393	1294.5	411.6
929.1727	1973.3392	1297.6	412.6
929.3108	1974.9383	1288.7	405.3
929.4489	1976.5366	1287.5	402.95
929.5869	1978.1342	1287.55	400.9
929.7249	1979.7311	1287.75	400.8
929.8629	1981.3273	1286.05	400.55
930.0009	1982.9227	1285.3	397.35
930.1388	1984.5173	1284.05	401.9
930.2767	1986.1112	1281.1	398.2
930.4146	1987.7044	1279.9	397.4
930.5525	1989.2968	1276.5	390.7
930.6904	1990.8885	1285.25	398.8
930.8282	1992.4795	1281.5	395.65
930.966	1994.0697	1271.4	388.1
931.1038	1995.6592	1273.05	388
931.2415	1997.2479	1278.85	394.7
931.3793	1998.8359	1275.55	390.25
931.517	2000.4232	1276.85	393.4
931.6547	2002.0097	1268.6	387.45
931.7923	2003.5955	1270.8	388.15
931.93	2005.1805	1273.5	389.75
932.0676	2006.7648	1269.9	386.4
932.2052	2008.3484	1266.2	383.1
932.3427	2009.9312	1272.9	387.25
932.4803	2011.5133	1264.4	383.3
932.6178	2013.0946	1269.65	388
932.7553	2014.6752	1261.3	378.9
932.8928	2016.2551	1268.15	385.35
933.0302	2017.8342	1259.45	377.2
933.1676	2019.4126	1262.05	379.65
933.305	2020.9902	1258.7	376.65
933.4424	2022.5672	1262.15	377.75
933.5798	2024.1433	1267.3	377.95
933.7171	2025.7188	1258.05	378.15
933.8544	2027.2935	1254.55	370.9
933.9917	2028.8674	1246.65	365.4
934.129	2030.4406	1252.15	369.1
934.2662	2032.0131	1252.8	373.25
934.4034	2033.5849	1254.25	367.1
934.5406	2035.1559	1256.75	376.25
934.6778	2036.7261	1249.85	368.2
934.8149	2038.2957	1248.55	366.25
934.952	2039.8645	1254.45	371.6
935.0891	2041.4325	1256.1	370.7
935.2262	2042.9998	1254.9	370.6
935.3632	2044.5664	1251.9	369
935.5002	2046.1323	1243.2	360.45
935.6372	2047.6974	1245.75	362.05
935.7742	2049.2617	1251.45	370.1
935.9111	2050.8254	1253.6	365.35
936.048	2052.3883	1249.7	365.05
936.1849	2053.9504	1247.15	363.55
936.3218	2055.5118	1247.35	362.4
936.4586	2057.0725	1247.55	359.55
936.5955	2058.6325	1243.45	358.85
936.7323	2060.1917	1240.3	358.5
936.869	2061.7502	1246.75	360
937.0058	2063.3079	1239.65	357.4
937.1425	2064.8649	1244.15	359.05
937.2792	2066.4212	1239.35	354.7
937.4159	2067.9767	1235.75	352.45
937.5525	2069.5315	1236.75	354.5
937.6891	2071.0856	1236.6	353.8
937.8257	2072.6389	1234.85	351.25
937.9623	2074.1915	1231.5	349.55
938.0989	2075.7433	1238.05	353
938.2354	2077.2945	1232.4	351.1
938.3719	2078.8448	1228.55	344.85
938.5084	2080.3945	1231.4	348.6
938.6448	2081.9434	1230	347.05
938.7812	2083.4916	1226.6	341.2
938.9176	2085.039	1231.1	345.25
939.054	2086.5857	1230.25	346.55
939.1903	2088.1317	1230.2	345.3
939.3267	2089.677	1229.2	345
939.463	2091.2215	1227.45	344.85
939.5992	2092.7652	1232.35	347.4
939.7355	2094.3083	1228.35	345
939.8717	2095.8506	1231.2	349
940.0079	2097.3921	1226.95	345.05
940.1441	2098.933	1225.35	343.45
940.2802	2100.4731	1227.7	345.45
940.4163	2102.0124	1245.45	343.45
940.5524	2103.5511	1230.6	346.35
940.6885	2105.089	1225.6	342.25
940.8245	2106.6261	1214.55	329.8
940.9606	2108.1626	1226.95	343
941.0965	2109.6983	1252.55	338.9
941.2325	2111.2332	1217.65	331.4
941.3684	2112.7675	1224.45	339.2
941.5044	2114.301	1214.1	330.3
941.6403	2115.8337	1221.75	338.15
941.7761	2117.3657	1218.15	334.1
941.912	2118.897	1217.85	333.65
942.0478	2120.4276	1225.5	336.7
942.1835	2121.9575	1214.05	329
942.3193	2123.4866	1233.5	336.2
942.455	2125.0149	1223.05	335.85
942.5907	2126.5426	1219.05	335.9
942.7264	2128.0695	1221.15	332.55
942.8621	2129.5956	1211.95	329.8
942.9977	2131.1211	1220.55	331.6
943.1333	2132.6458	1211.4	329.35
943.2689	2134.1698	1210.75	327.35
943.4044	2135.693	1213.75	328.8
943.54	2137.2155	1214.15	329.2
943.6755	2138.7373	1217.75	333.3
943.8109	2140.2584	1208.8	327.75
943.9464	2141.7787	1212.6	324
944.0818	2143.2983	1206.3	325.85
944.2172	2144.8171	1202.15	318.8
944.3526	2146.3353	1211.5	328.1
944.4879	2147.8527	1208.75	326.95
944.6232	2149.3693	1209.75	325.75
944.7585	2150.8853	1205.3	320.7
944.8938	2152.4005	1206.35	322.25
945.029	2153.9149	1203	319.65
945.1642	2155.4287	1303.8	321.05
945.2994	2156.9417	1205.55	319.65
945.4346	2158.454	1199.7	312.2
945.5697	2159.9655	1200.55	315.9
945.7048	2161.4764	1198.95	314.95
945.8399	2162.9865	1194.25	309.8
945.9749	2164.4958	1200.25	315.15
946.1099	2166.0045	1198.95	315.25
946.2449	2167.5124	1197.3	313.8
946.3799	2169.0195	1198.05	315.55
946.5148	2170.526	1201.2	318.65
946.6498	2172.0317	1195.6	310.2
946.7846	2173.5367	1198.7	313.45
946.9195	2175.0409	1199.6	317.5
947.0543	2176.5445	1196.35	313.85
947.1891	2178.0473	1194.35	310.75
947.3239	2179.5494	1199.9	313.8
947.4587	2181.0507	1191.6	308.95
947.5934	2182.5513	1193.5	311.05
947.7281	2184.0512	1186.7	303.4
947.8628	2185.5504	1195.6	314
947.9974	2187.0488	1189.55	304.85
948.132	2188.5465	1189.35	306.15
948.2666	2190.0435	1188.1	303.95
948.4012	2191.5397	1185.95	303.75
948.5357	2193.0353	1185.85	304.85
948.6702	2194.5301	1185.95	302
948.8047	2196.0241	1182.15	299.6
948.9392	2197.5175	1175.75	294.3
949.0736	2199.0101	1182.8	294.1
949.208	2200.502	1176.7	294.95
949.3424	2201.9931	1177.6	295.15
949.4767	2203.4835	1177.75	296
949.611	2204.9733	1199.25	300.4
949.7453	2206.4622	1171.65	289.6
949.8796	2207.9505	1176	290.2
950.0138	2209.438	1166.25	284.25
950.148	2210.9248	1174.15	289.9
950.2822	2212.4109	1170.55	287.9
950.4164	2213.8962	1175.2	289.45
950.5505	2215.3809	1173.9	290.1
950.6846	2216.8648	1171.25	288.95
950.8186	2218.3479	1173.75	284.2
950.9527	2219.8304	1165.85	278.7
951.0867	2221.3121	1168.45	283.9
951.2207	2222.7931	1174.15	292.5
951.3546	2224.2733	1169.6	285.45
951.4886	2225.7529	1165.05	281.2
951.6225	2227.2317	1171.8	286.2
951.7563	2228.7098	1162.05	276.9
951.8902	2230.1872	1158.2	276.05
952.024	2231.6638	1160.6	277.75
952.1578	2233.1397	1162.35	276
952.2916	2234.6149	1163.15	281.35
952.4253	2236.0894	1158.9	275.6
952.559	2237.5632	1159.3	274.3
952.6927	2239.0362	1154.55	270.1
952.8263	2240.5085	1154.6	271.65
952.9599	2241.9801	1158.35	274.85
953.0935	2243.4509	1157.1	273.3
953.2271	2244.921	1152.8	268.9
953.3606	2246.3904	1156.15	269.4
953.4941	2247.8591	1151.35	268.35
953.6276	2249.3271	1152.65	269.75
953.7611	2250.7943	1153.05	270.65
953.8945	2252.2608	1148.2	265.55
954.0279	2253.7266	1150.65	268.95
954.1612	2255.1917	1145.55	261.3
954.2946	2256.656	1147.95	263.4
954.4279	2258.1197	1145.65	265.5
954.5612	2259.5826	1146.25	261
954.6944	2261.0447	1149.5	265.55
954.8276	2262.5062	1146.5	259.8
954.9608	2263.9669	1145.5	262.55
955.094	2265.4269	1141.9	258.65
955.2271	2266.8862	1141.6	259.45
955.3602	2268.3448	1142.55	260.1
955.4933	2269.8026	1144.05	260.1
955.6264	2271.2598	1145.4	263.05
955.7594	2272.7162	1142.95	261.95
955.8924	2274.1719	1139.8	255.85
956.0253	2275.6268	1137.5	255.6
956.1583	2277.0811	1135.35	252.9
956.2912	2278.5346	1134.3	252.75
956.4241	2279.9874	1135.2	252.6
956.5569	2281.4395	1138	256
956.6897	2282.8908	1137.4	246.95
956.8225	2284.3414	1138	253.7
956.9553	2285.7914	1135.45	253.45
957.088	2287.2406	1137.9	253.1
957.2207	2288.689	1130.2	247.8
957.3534	2290.1368	1134.6	249.6
957.486	2291.5838	1134.4	249.4
957.6186	2293.0302	1132.25	247.95
957.7512	2294.4758	1129.3	246.65
957.8838	2295.9206	1132.2	247.25
958.0163	2297.3648	1127.45	243.15
958.1488	2298.8082	1128.55	243.1
958.2813	2300.251	1129.5	246.3
958.4137	2301.693	1127.7	241.85
958.5461	2303.1343	1125.55	240.35
958.6785	2304.5748	1122.7	238.55
958.8108	2306.0147	1127.5	242.8
958.9432	2307.4538	1124.35	239.05
959.0754	2308.8922	1119.8	237.2
959.2077	2310.3299	1112.2	228.1
959.3399	2311.7669	1120.3	237.65
959.4721	2313.2031	1120.8	238.25
959.6043	2314.6387	1124.45	241.15
959.7365	2316.0735	1115.1	230.25
959.8686	2317.5076	1122.1	238.3
960.0006	2318.941	1119.7	235.1
960.1327	2320.3737	1119.1	234.85
960.2647	2321.8056	1123.5	236.7
960.3967	2323.2369	1119.3	237.4
960.5287	2324.6674	1117.05	232.05
960.6606	2326.0972	1115.85	230.25
960.7925	2327.5263	1116.35	233.8
960.9244	2328.9547	1120.65	238.05
961.0562	2330.3823	1117.55	232.25
961.1881	2331.8092	1119.4	233.1
961.3198	2333.2355	1112.25	227.95
961.4516	2334.661	1114.1	229.1
961.5833	2336.0858	1108.9	224.45
961.715	2337.5098	1111.2	227.35
961.8467	2338.9332	1114.05	227.6
961.9783	2340.3558	1113.25	225.4
962.1099	2341.7778	1104.85	221.7
962.2415	2343.199	1110.1	223.9
962.373	2344.6195	1103.7	221
962.5045	2346.0393	1108.45	224.65
962.636	2347.4583	1106.75	224.1
962.7675	2348.8767	1106.35	222.65
962.8989	2350.2943	1107.95	222.55
963.0303	2351.7113	1104.65	219.65
963.1617	2353.1275	1105.8	219.8
963.293	2354.543	1128.7	220.05
963.4243	2355.9578	1101.1	216.95
963.5556	2357.3718	1101.1	218.8
963.6868	2358.7852	1102.3	217.15
963.818	2360.1978	1096.5	212.65
963.9492	2361.6098	1098.15	214.95
964.0803	2363.021	1102.05	214
964.2114	2364.4315	1101.95	219.3
964.3425	2365.8413	1100.2	210.1
964.4736	2367.2504	1090.35	208.55
964.6046	2368.6587	1092.5	208.5
964.7356	2370.0664	1091.9	206.65
964.8666	2371.4733	1090.3	206.1
964.9975	2372.8795	1090.65	207.5
965.1284	2374.285	1092.25	207.1
965.2593	2375.6899	1091.45	208.2
965.3901	2377.0939	1094.05	210.3
965.5209	2378.4973	1090.8	209
965.6517	2379.9	1088.35	204.95
965.7825	2381.3019	1087	203.75
965.9132	2382.7032	1087.25	206.1
966.0439	2384.1037	1083.7	201.75
966.1745	2385.5035	1082.85	199.4
966.3051	2386.9027	1085.4	201.4
966.4357	2388.3011	1087.4	200.7
966.5663	2389.6987	1086.1	201.8
966.6968	2391.0957	1084.45	201.65
966.8273	2392.492	1080.45	197.45
966.9578	2393.8876	1077.9	193.55
967.0882	2395.2824	1085.4	201.25
967.2186	2396.6765	1077.1	193
967.349	2398.07	1081.05	198.25
967.4793	2399.4627	1079.45	192.55
967.6097	2400.8547	1081.65	198.3
967.7399	2402.246	1087.05	194.2
967.8702	2403.6366	1075.35	190.25
968.0004	2405.0265	1078.65	194.8
968.1306	2406.4156	1079.8	192.5
968.2607	2407.8041	1076.35	189.5
968.3909	2409.1918	1074.8	188.2
968.521	2410.5789	1068.7	186.1
968.651	2411.9652	1072.6	189.1
968.781	2413.3508	1073.15	189.15
968.911	2414.7358	1074.75	190.85
969.041	2416.12	1071.6	188.2
969.1709	2417.5035	1068.55	182.7
969.3008	2418.8863	1070.4	184.75
969.4307	2420.2684	1072.45	188.55
969.5606	2421.6497	1066.95	182.95
969.6904	2423.0304	1061.75	178.4
969.8201	2424.4104	1063.45	179.45
969.9499	2425.7896	1069.7	183.85
970.0796	2427.1682	1063.05	179.25
970.2093	2428.546	1068.2	183.05
970.3389	2429.9232	1065.6	179.8
970.4685	2431.2996	1063.4	180.5
970.5981	2432.6753	1059.65	175.95
970.7277	2434.0503	1061.75	177.65
970.8572	2435.4246	1064.2	178.7
970.9867	2436.7982	1062.35	177.05
971.1161	2438.1711	1057.55	175
971.2456	2439.5433	1062.1	177.45
971.375	2440.9148	1064.5	173.7
971.5043	2442.2856	1058.95	172.5
971.6336	2443.6557	1059.5	174.65
971.7629	2445.025	1056.7	172.85
971.8922	2446.3937	1059.3	176.3
972.0214	2447.7617	1061.4	176.55
972.1506	2449.1289	1056.35	172
972.2798	2450.4955	1064.85	178.35
972.4089	2451.8613	1055.6	175
972.538	2453.2265	1054.45	169.95
972.6671	2454.5909	1057	172.15
972.7961	2455.9546	1052.65	169.85
972.9251	2457.3177	1053.1	167.85
973.0541	2458.68	1055.45	169.15
973.1831	2460.0416	1052.05	166.95
973.312	2461.4025	1056.55	170.5
973.4408	2462.7627	1065	170.1
973.5697	2464.1222	1053.65	171.45
973.6985	2465.4811	1050.6	165.5
973.8273	2466.8392	1047.15	162.45
973.956	2468.1966	1055.3	169.7
974.0847	2469.5533	1055.6	168.4
974.2134	2470.9093	1049.45	164.75
974.3421	2472.2645	1051.8	167.55
974.4707	2473.6191	1048.5	163.9
974.5993	2474.973	1049	165.2
974.7278	2476.3262	1049.7	161.95
974.8563	2477.6787	1044.05	162
974.9848	2479.0305	1048.55	165.35
975.1132	2480.3816	1045.05	158.85
975.2417	2481.7319	1044.95	160.35
975.37	2483.0816	1045.15	159.65
975.4984	2484.4306	1043.6	159.65
975.6267	2485.7789	1043	158.65
975.755	2487.1264	1044.7	159.35
975.8833	2488.4733	1038.25	154.85
976.0115	2489.8195	1047.7	156.75
976.1397	2491.165	1046.75	160.6
976.2678	2492.5097	1043	157.15
976.3959	2493.8538	1035.7	150.05
976.524	2495.1972	1039.55	157.55
976.6521	2496.5398	1032.35	147.15
976.7801	2497.8818	1044.15	159.4
976.9081	2499.2231	1036.8	152.9
977.036	2500.5637	1037.5	153.3
977.164	2501.9035	1037.5	152.7
977.2918	2503.2427	1039.55	150.55
977.4197	2504.5812	1035.95	151.6
977.5475	2505.919	1034.85	147.05
977.6753	2507.256	1037.75	152.7
977.8031	2508.5924	1031.4	147.05
977.9308	2509.9281	1034.3	144.2
978.0585	2511.2631	1032.95	150.2
978.1861	2512.5974	1032.05	150.3
978.3137	2513.9309	1028.75	145.35
978.4413	2515.2638	1060.55	150.25
978.5689	2516.596	1032.25	148.85
978.6964	2517.9275	1031.35	145.4
978.8239	2519.2583	1029.3	144
978.9513	2520.5884	1033.05	146.2
979.0788	2521.9178	1029.5	144
979.2062	2523.2465	1028.1	144.2
979.3335	2524.5745	1027.65	145.8
979.4608	2525.9018	1027.45	143.35
979.5881	2527.2284	1024	140.55
979.7154	2528.5543	1028.15	145.6
979.8426	2529.8796	1026.1	140.95
979.9698	2531.2041	1028.1	143.35
980.0969	2532.5279	1026.2	141.6
980.224	2533.851	1027.05	142.75
980.3511	2535.1735	1023.5	139.5
980.4781	2536.4952	1023.4	140.05
980.6052	2537.8163	1024.3	140
980.7321	2539.1366	1023.85	139.75
980.8591	2540.4562	1023.8	137.4
980.986	2541.7752	1021.7	137.95
981.1129	2543.0935	1025.15	141.2
981.2397	2544.411	1022.35	134.4
981.3665	2545.7279	1022.45	138
981.4933	2547.0441	1021.7	137.4
981.62	2548.3596	1021.25	137.1
981.7467	2549.6744	1018.9	135
981.8734	2550.9885	1025.55	132.2
982.0001	2552.3019	1019.45	136.45
982.1267	2553.6146	1019.45	135.4
982.2532	2554.9266	1019.65	134.1
982.3798	2556.2379	1018.3	133
982.5063	2557.5485	1018.4	134.9
982.6327	2558.8585	1021.8	130.85
982.7592	2560.1677	1019.6	131.1
982.8856	2561.4762	1015.35	131.45
983.0119	2562.7841	1020.75	136
983.1383	2564.0913	1012.65	130.05
983.2646	2565.3977	1012.25	130.25
983.3908	2566.7035	1013.65	130.7
983.517	2568.0086	1013.65	127.65
983.6432	2569.313	1015.75	132.8
983.7694	2570.6167	1019.7	132.85
983.8955	2571.9197	1013.7	131.3
984.0216	2573.222	1020	133.55
984.1476	2574.5236	1012.9	127.4
984.2737	2575.8246	1020.55	135.75
984.3996	2577.1248	1017.25	130.55
984.5256	2578.4244	1011.8	127.85
984.6515	2579.7232	1009.8	124.7
984.7774	2581.0214	1042.45	127.15
984.9032	2582.3189	1011.4	129.65
985.029	2583.6157	1025	127.15
985.1548	2584.9118	1011.45	128.1
985.2806	2586.2072	1010.3	126.7
985.4063	2587.5019	1008.2	122.7
985.5319	2588.7959	1011.3	127.25
985.6576	2590.0893	1010.15	122.65
985.7832	2591.3819	1011.8	130.4
985.9087	2592.6739	1009.7	126.75
986.0343	2593.9652	1009.4	123.15
986.1597	2595.2557	1011.85	127.7
986.2852	2596.5456	1011.55	125.25
986.4106	2597.8348	1005.55	124.25
986.536	2599.1234	1009.9	126.3
986.6614	2600.4112	1008.15	123.55
986.7867	2601.6983	1011	123.8
986.912	2602.9848	1006.05	122.2
987.0372	2604.2705	1013.4	122.3
987.1624	2605.5556	1009.75	126.05
987.2876	2606.84	1006.8	123.8
987.4128	2608.1237	1005.95	122.05
987.5379	2609.4067	1001.7	118.2
987.6629	2610.689	1010	117.3
987.788	2611.9707	1003.45	117.4
987.913	2613.2516	1008.45	119.5
988.0379	2614.5319	1000.85	117.8
988.1629	2615.8115	1001.85	117.6
988.2878	2617.0903	1002.5	117.4
988.4126	2618.3685	1000.5	116.6
988.5375	2619.6461	1000.1	115.25
988.6622	2620.9229	1002.75	120.5
988.787	2622.199	998.95	115.25
988.9117	2623.4745	1000.75	116.45
989.0364	2624.7493	993.75	110.35
989.161	2626.0234	997.85	115.5
989.2857	2627.2968	997.1	112.95
989.4102	2628.5695	1000.7	115.85
989.5348	2629.8415	995.45	112.8
989.6593	2631.1128	996	108.25
989.7837	2632.3835	995.3	110.9
989.9082	2633.6535	992.4	109.15
990.0326	2634.9228	992.5	108.5
990.1569	2636.1914	995.3	110.65
990.2812	2637.4593	994.95	109.3
990.4055	2638.7265	995.85	112.05
990.5298	2639.9931	992.6	109.8
990.654	2641.259	996	111.1
990.7782	2642.5242	992.4	107.3
990.9023	2643.7887	990.95	107.55
991.0264	2645.0525	990.05	104.4
991.1505	2646.3156	1006.1	107.15
991.2745	2647.5781	990.5	106.15
991.3985	2648.8398	990.8	107.15
991.5225	2650.1009	999.85	108
991.6464	2651.3613	986.65	103.35
991.7703	2652.6211	989.85	105.8
991.8942	2653.8801	985.2	104.25
992.018	2655.1385	991.85	107.35
992.1418	2656.3961	984.6	100.25
992.2655	2657.6531	987.65	102.8
992.3892	2658.9094	988.05	104.85
992.5129	2660.1651	990.9	108.25
992.6366	2661.42	989.1	103.7
992.7602	2662.6743	984.45	101.25
992.8837	2663.9279	986.6	104.3
993.0073	2665.1808	988.35	103.25
993.1307	2666.433	986.85	103.6
993.2542	2667.6846	985.8	102.75
993.3776	2668.9354	988.55	102.05
993.501	2670.1856	987	103.4
993.6244	2671.4351	984.65	101.85
993.7477	2672.6839	985.85	101.7
993.8709	2673.9321	986.05	102.35
993.9942	2675.1795	982.1	96.8
994.1174	2676.4263	984.05	99.65
994.2405	2677.6724	986.8	103.7
994.3637	2678.9179	987.45	102.55
994.4868	2680.1626	986.35	101.2
994.6098	2681.4067	989.05	104.65
994.7328	2682.6501	985.6	101.4
994.8558	2683.8928	979.6	94.25
994.9788	2685.1348	978.8	93.65
995.1017	2686.3761	979	96.75
995.2245	2687.6168	978.65	93.95
995.3474	2688.8568	981.3	99
995.4702	2690.0961	978.25	96.15
995.5929	2691.3348	979.6	95.3
995.7156	2692.5727	981.1	96.75
995.8383	2693.81	978.3	94.05
995.961	2695.0466	977.5	96.15
996.0836	2696.2826	976.3	89.9
996.2062	2697.5178	981.4	94.4
996.3287	2698.7524	979.4	96.6
996.4512	2699.9863	975.95	90.3
996.5737	2701.2195	978.75	96.35
996.6961	2702.452	978.15	93.05
996.8185	2703.6839	981.7	96.7
996.9408	2704.9151	978.15	95.85
997.0631	2706.1456	976.3	93.8
997.1854	2707.3755	978	93.35
997.3077	2708.6046	980	94.1
997.4299	2709.8331	976.65	92.75
997.552	2711.0609	979	95.1
997.6742	2712.2881	976.5	91.3
997.7963	2713.5145	981.2	95.7
997.9183	2714.7403	977.8	94.35
998.0403	2715.9654	979.05	94.65
998.1623	2717.1899	993.75	95.85
998.2842	2718.4136	978.05	93.2
998.4062	2719.6367	977.8	92.55
998.528	2720.8591	985.45	95
998.6498	2722.0809	980.75	94.45
998.7716	2723.3019	986.8	101.35
998.8934	2724.5223	983.6	96.3
999.0151	2725.7421	983.35	99.2
999.1368	2726.9611	985.4	100.1
999.2584	2728.1795	987.3	98.2
999.38	2729.3972	976.7	91.55
999.5016	2730.6142	982.95	90.8
999.6231	2731.8306	976.3	91.8
999.7446	2733.0462	974.9	90.5
999.8661	2734.2612	981.1	90.6
999.9875	2735.4756	975.4	90.55
1000.1089	2736.6892	972.9	88.2
1000.2302	2737.9022	969.45	87
1000.3515	2739.1145	969.25	85.5
1000.4728	2740.3262	978.95	86.7
1000.594	2741.5372	966.45	84.1
1000.7152	2742.7475	973.2	89.7
1000.8363	2743.9571	969.1	84.5
1000.9575	2745.1661	972.5	84.95
1001.0785	2746.3744	966.4	81.7
1001.1996	2747.582	964.55	80.4
1001.3206	2748.7889	967.4	82.25
1001.4415	2749.9952	967.05	84.1
1001.5625	2751.2008	963.95	80
1001.6833	2752.4057	968	82.5
1001.8042	2753.61	964.3	78.15
1001.925	2754.8136	963.3	79.35
1002.0458	2756.0165	959.15	74.4
1002.1665	2757.2188	961.65	78.65
1002.2872	2758.4204	962.2	78.3
1002.4078	2759.6213	965.5	79.65
1002.5285	2760.8215	964.9	76.2
1002.649	2762.0211	961.6	76.1
1002.7696	2763.22	963.8	77.2
1002.8901	2764.4182	964.25	80.25
1003.0106	2765.6158	961.15	79.4
1003.131	2766.8127	959.15	75.8
1003.2514	2768.009	959.05	76.45
1003.3717	2769.2045	960.05	73.05
1003.492	2770.3994	963.5	77.7
1003.6123	2771.5936	959.5	73.25
1003.7325	2772.7872	956.65	74.75
1003.8527	2773.9801	957.4	71.7
1003.9729	2775.1723	973.65	72.75
1004.093	2776.3639	957.05	74.5
1004.2131	2777.5548	957.55	73.55
1004.3331	2778.745	956.5	73.45
1004.4531	2779.9346	956.75	74.5
1004.5731	2781.1235	954.25	70.65
1004.693	2782.3117	954.7	70.1
1004.8129	2783.4992	957.25	73.2
1004.9328	2784.6861	954.8	70
1005.0526	2785.8723	955.3	68.95
1005.1723	2787.0579	954.05	68.4
1005.2921	2788.2428	953.7	71
1005.4118	2789.427	955.6	74.1
1005.5314	2790.6106	956	73.5
1005.651	2791.7935	955.1	69.15
1005.7706	2792.9757	951.55	69.05
1005.8902	2794.1573	952.8	67.6
1006.0097	2795.3382	953.6	68.3
1006.1291	2796.5184	952.15	69.45
1006.2485	2797.698	957.65	70.8
1006.3679	2798.8769	955.7	72.35
1006.4873	2800.0551	954.05	71.2
1006.6066	2801.2327	954.95	69.9
1006.7258	2802.4096	952.85	69.95
1006.8451	2803.5859	955.4	72.05
1006.9642	2804.7615	955.4	71.25
1007.0834	2805.9364	953.75	72.3
1007.2025	2807.1106	956.2	75.55
1007.3216	2808.2842	956	70.75
1007.4406	2809.4572	954.65	71.45
1007.5596	2810.6294	960.45	76.3
1007.6785	2811.801	956.65	74.95
1007.7975	2812.972	958	75.25
1007.9163	2814.1423	957.45	74.5
1008.0352	2815.3119	961.6	77.65
1008.154	2816.4808	963.2	80.65
1008.2727	2817.6491	964.6	80.2
1008.3914	2818.8167	969.6	88.9
1008.5101	2819.9837	978.5	90.7
1008.6288	2821.15	974.05	90
1008.7474	2822.3157	977.2	95.6
1008.8659	2823.4807	987.7	105.85
1008.9844	2824.645	988.8	103.55
1009.1029	2825.8086	995.95	114.45
1009.2214	2826.9716	1002	118.05
1009.3398	2828.134	1007.75	124.25
1009.4581	2829.2957	1018.1	133.15
1009.5764	2830.4567	1019.45	137.1
1009.6947	2831.617	1023.45	141.9
1009.813	2832.7767	1024.6	141.4
1009.9312	2833.9358	1026.95	145.7
1010.0493	2835.0941	1026.05	140.85
1010.1675	2836.2519	1024.05	141.4
1010.2855	2837.4089	1020.35	135.5
1010.4036	2838.5653	1017.4	133.45
1010.5216	2839.7211	1011.7	129.15
1010.6396	2840.8761	1010.6	123.85
1010.7575	2842.0306	1012.15	130.25
1010.8754	2843.1843	1010.05	125.9
1010.9932	2844.3374	1009.85	124.4
1011.111	2845.4899	1012.55	129.4
1011.2288	2846.6417	1012.1	130
1011.3465	2847.7928	1016.4	134.2
1011.4642	2848.9433	1011.45	127.15
1011.5818	2850.0931	1017.55	135.75
1011.6995	2851.2422	1016.9	132.5
1011.817	2852.3907	1016.7	132.9
1011.9345	2853.5385	1018.4	134.1
1012.052	2854.6857	1028.3	134.2
1012.1695	2855.8323	1022.7	140.15
1012.2869	2856.9781	1019.15	134.55
1012.4042	2858.1233	1021.85	139.15
1012.5216	2859.2679	1023.95	141.25
1012.6389	2860.4118	1030.3	146.9
1012.7561	2861.555	1035.5	147.15
1012.8733	2862.6976	1035.1	151.15
1012.9905	2863.8395	1034.95	152
1013.1076	2864.9808	1035.4	152.2
1013.2247	2866.1214	1037.45	155.35
1013.3417	2867.2614	1038.55	154.85
1013.4587	2868.4007	1041.05	156.6
1013.5757	2869.5393	1043.35	157.75
1013.6926	2870.6773	1042.9	157.95
1013.8095	2871.8146	1046.05	161.95
1013.9263	2872.9513	1047.65	160.25
1014.0431	2874.0874	1046.95	161.9
1014.1599	2875.2227	1052.7	170.1
1014.2766	2876.3574	1056.4	173.7
1014.3933	2877.4915	1047.15	165.8
1014.51	2878.6249	1054.6	168.25
1014.6266	2879.7577	1060.05	176
1014.7431	2880.8898	1071	174.4
1014.8596	2882.0212	1061	179.85
1014.9761	2883.152	1063.95	179.25
1015.0925	2884.2821	1063.4	181.6
1015.2089	2885.4116	1063.35	181.8
1015.3253	2886.5405	1061.35	177.25
1015.4416	2887.6686	1071.85	185.4
1015.5579	2888.7962	1067.55	186
1015.6741	2889.923	1067.35	184.55
1015.7903	2891.0493	1067.4	184.85
1015.9065	2892.1748	1068.25	182.8
1016.0226	2893.2997	1066.8	183.05
1016.1387	2894.424	1068.7	187.75
1016.2547	2895.5476	1068.7	183.7
1016.3707	2896.6706	1069.5	188.1
1016.4866	2897.7929	1070.2	186.5
1016.6025	2898.9145	1066.75	185.4
1016.7184	2900.0355	1064.9	180.25
1016.8342	2901.1559	1069.45	186.35
1016.95	2902.2756	1069.25	182
1017.0658	2903.3946	1064.05	182.4
1017.1815	2904.513	1065.05	178.25
1017.2971	2905.6308	1063.1	179.3
1017.4127	2906.7479	1065.1	180.85
1017.5283	2907.8643	1062.5	178.9
1017.6439	2908.9801	1060.55	178.2
1017.7594	2910.0953	1064.4	181.15
1017.8748	2911.2098	1071.3	185.65
1017.9902	2912.3236	1072.5	183.35
1018.1056	2913.4368	1065.05	178.65
1018.2209	2914.5494	1062.1	179.6
1018.3362	2915.6613	1062.1	171.95
1018.4515	2916.7725	1055.55	169.25
1018.5667	2917.8831	1055.3	171.45
1018.6819	2918.9931	1053.05	165.95
1018.797	2920.1024	1048.8	163.95
1018.9121	2921.211	1045.2	160.9
1019.0271	2922.319	1047.8	162.6
1019.1421	2923.4264	1045.85	164.75
1019.2571	2924.5331	1037.75	156.8
1019.372	2925.6391	1040.15	156.65
1019.4869	2926.7445	1045.65	164.15
1019.6017	2927.8493	1043.5	159.4
1019.7165	2928.9534	1044.45	162.05
1019.8313	2930.0569	1048.3	162.4
1019.946	2931.1597	1046.95	162.55
1020.0606	2932.2619	1043.05	160.75
1020.1753	2933.3634	1051.55	167.5
1020.2899	2934.4643	1056.3	166.4
1020.4044	2935.5645	1052.95	165.95
1020.5189	2936.6641	1052.35	166.55
1020.6334	2937.763	1050.1	167.1
1020.7478	2938.8613	1049.95	164.8
1020.8622	2939.959	1054.4	164.95
1020.9765	2941.056	1046.75	164.35
1021.0908	2942.1523	1038.85	153.3
1021.2051	2943.248	1038.05	155.25
1021.3193	2944.3431	1027.4	143.65
1021.4334	2945.4375	1019.45	137.5
1021.5476	2946.5313	1015	132.15
1021.6617	2947.6244	1012.9	128.65
1021.7757	2948.7169	1004.7	122.7
1021.8897	2949.8087	998.55	114.8
1022.0037	2950.8999	995.5	113.55
1022.1176	2951.9904	991.95	108.95
1022.2315	2953.0803	985.6	101.7
1022.3453	2954.1696	980.6	97.75
1022.4591	2955.2582	976.55	94.3
1022.5728	2956.3462	976.75	93.15
1022.6865	2957.4335	976.45	93.15
1022.8002	2958.5202	974.95	90.05
1022.9138	2959.6062	973.35	89.6
1023.0274	2960.6916	973.5	91
1023.141	2961.7764	973	87.9
1023.2545	2962.8605	976.15	91.1
1023.3679	2963.9439	975.1	93.4
1023.4813	2965.0267	975.3	89.85
1023.5947	2966.1089	994.25	87.7
1023.708	2967.1905	971.6	88.7
1023.8213	2968.2714	969.15	86.15
1023.9346	2969.3516	971.25	89.1
1024.0478	2970.4312	980.85	90.35
1024.1609	2971.5102	967.55	83.75
1024.274	2972.5885	969.5	87.35
1024.3871	2973.6662	974.7	85.7
1024.5002	2974.7432	971.6	88.5
1024.6132	2975.8196	968.7	86.75
1024.7261	2976.8954	971.15	89.55
1024.839	2977.9705	969.6	86.65
1024.9519	2979.045	968.35	84.4
1025.0647	2980.1188	970.6	88.85
1025.1775	2981.192	965.4	82.25
1025.2902	2982.2645	966.2	80.8
1025.4029	2983.3364	965.15	81.8
1025.5156	2984.4077	965.65	82.65
1025.6282	2985.4783	962.8	73.8
1025.7407	2986.5483	957	75.05
1025.8532	2987.6177	956.4	74.6
1025.9657	2988.6864	958.05	75.2
1026.0782	2989.7545	952.8	69.8
1026.1906	2990.8219	949.2	66
1026.3029	2991.8887	951.8	67.1
1026.4152	2992.9548	949.5	67.9
1026.5275	2994.0204	947.35	65.6
1026.6397	2995.0852	942.05	60.9
1026.7519	2996.1495	942.75	58.15
1026.864	2997.2131	942.4	59.2
1026.9761	2998.276	939.1	56.85
1027.0882	2999.3383	936.5	54.45
1027.2002	3000.4	934	50.35
1027.3122	3001.4611	933.65	52.15
1027.4241	3002.5215	932.85	48.55
1027.536	3003.5812	931.5	49.25
1027.6478	3004.6404	926.4	41.9
1027.7596	3005.6989	928.85	44.7
1027.8714	3006.7567	928.75	46.3
1027.9831	3007.8139	944.4	40.9
1028.0947	3008.8705	928.8	47.5
1028.2064	3009.9264	925.8	38.05
1028.3179	3010.9818	925.55	43.3
1028.4295	3012.0364	922.1	39.8
1028.541	3013.0905	927.25	45.3
1028.6524	3014.1439	921.4	38.9
1028.7638	3015.1966	919	36.9
1028.8752	3016.2487	924.25	40.8
1028.9865	3017.3002	925.45	38.95
1029.0978	3018.3511	921.25	39.6
1029.209	3019.4013	919.35	37.6
1029.3202	3020.4509	919.25	37.05
1029.4314	3021.4998	922.85	40.6
1029.5425	3022.5481	920.7	35.85
1029.6535	3023.5958	920.2	37.95
1029.7645	3024.6428	920.15	35.2
1029.8755	3025.6892	919.8	36.9
1029.9864	3026.735	919.2	36.3
1030.0973	3027.7802	920.25	38.2
1030.2082	3028.8247	920.75	37
1030.319	3029.8685	915.55	33.15
1030.4297	3030.9118	921.9	37
1030.5404	3031.9544	918.5	36.4
1030.6511	3032.9963	920.75	37.6
1030.7617	3034.0376	919.3	35.5
1030.8723	3035.0783	919.95	35.75
1030.9829	3036.1184	917.45	31.65
1031.0934	3037.1578	918.95	37.65
1031.2038	3038.1966	918	32.85
1031.3142	3039.2348	915.5	32.55
1031.4246	3040.2723	924.3	32.25
1031.5349	3041.3092	918.75	38.75
1031.6452	3042.3455	919.15	34.05
1031.7554	3043.3811	919.1	36.4
1031.8656	3044.4161	919.95	36.6
1031.9758	3045.4505	917.75	36.1
1032.0859	3046.4842	920.75	34.45
1032.1959	3047.5173	916.45	34
1032.3059	3048.5498	918.7	35.25
1032.4159	3049.5816	918.5	37.6
1032.5258	3050.6128	919.9	36.2
1032.6357	3051.6434	917.8	32.7
1032.7455	3052.6734	921.95	38.75
1032.8553	3053.7027	916.8	34.2
1032.9651	3054.7314	916.7	33.1
1033.0748	3055.7594	917.85	36.35
1033.1845	3056.7868	920.5	37.35
1033.2941	3057.8136	919.3	36.15
1033.4037	3058.8398	916.4	34.05
1033.5132	3059.8653	917.1	32.75
1033.6227	3060.8902	922.85	40.2
1033.7321	3061.9145	919.25	35.2
1033.8415	3062.9381	919.65	36.2
1033.9509	3063.9612	936.2	37.9
1034.0602	3064.9835	918.85	36
1034.1694	3066.0053	917.85	31.8
1034.2787	3067.0264	920.9	36.9
1034.3878	3068.0469	921.35	36.15
1034.497	3069.0668	923.8	39
1034.6061	3070.086	916.8	35.85
1034.7151	3071.1046	922.85	36.25
1034.8241	3072.1226	918.7	35.35
1034.9331	3073.1399	919.4	37.05
1035.042	3074.1567	917.9	35.1
1035.1508	3075.1727	918.85	34.55
1035.2597	3076.1882	916.15	35.2
1035.3684	3077.203	918.15	34.15
1035.4772	3078.2173	917.75	32.5
1035.5859	3079.2308	919.95	35.7
1035.6945	3080.2438	917.35	34
1035.8031	3081.2561	915.7	31.9
1035.9117	3082.2678	910.65	27.6
1036.0202	3083.2789	912.7	28.25
1036.1286	3084.2893	912.55	31.65
1036.2371	3085.2991	913.7	29.25
1036.3454	3086.3083	917	28.35
1036.4538	3087.3169	913.7	29.2
1036.562	3088.3248	910.65	26.65
1036.6703	3089.3321	913.4	30.4
1036.7785	3090.3388	909.65	27.8
1036.8866	3091.3449	909.9	26.85
1036.9948	3092.3503	913.7	27.2
1037.1028	3093.3551	910	27.8
1037.2108	3094.3593	908.75	27.55
1037.3188	3095.3629	908.25	26.55
1037.4267	3096.3658	911.9	25.9
1037.5346	3097.3681	909	28.3
1037.6425	3098.3698	908.3	24.65
1037.7503	3099.3708	915.55	26.6
1037.858	3100.3713	907.3	25.95
1037.9657	3101.3711	908.1	23.05
1038.0734	3102.3702	1042.35	26.1
1038.181	3103.3688	911.65	27.7
1038.2886	3104.3667	904.75	23.9
1038.3961	3105.364	905.5	22.9
1038.5036	3106.3607	908.25	23.7
1038.611	3107.3568	909.45	25.2
1038.7184	3108.3522	905.5	24.65
1038.8257	3109.347	908	24.7
1038.933	3110.3412	911.85	25.85
1039.0403	3111.3348	904.35	21.95
1039.1475	3112.3277	906.55	24.25
1039.2547	3113.32	903.65	21.2
1039.3618	3114.3117	906.9	22
1039.4689	3115.3028	905.3	22.55
1039.5759	3116.2932	906.05	21.15
1039.6829	3117.2831	909.65	22.6
1039.7898	3118.2723	903.9	19.8
1039.8967	3119.2608	903.6	21.05
1040.0035	3120.2488	903.5	19.1
1040.1103	3121.2361	904.3	21.45
1040.2171	3122.2229	904.15	22.95
1040.3238	3123.209	905.25	20.65
1040.4305	3124.1944	902.35	21.25
1040.5371	3125.1793	903.2	18
1040.6437	3126.1635	903.95	21.5
1040.7502	3127.1471	903	21.1
1040.8567	3128.1301	903.3	21.9
1040.9631	3129.1125	903.55	21.2
1041.0695	3130.0942	903.7	19.65
1041.1759	3131.0753	911.05	18.7
1041.2822	3132.0558	905.95	20.5
1041.3884	3133.0357	902.5	19.75
1041.4946	3134.015	904.95	21.5
1041.6008	3134.9936	903	18.75
1041.7069	3135.9716	921.95	20.55
1041.813	3136.949	902.8	19.65
1041.919	3137.9258	920.35	20.2
1042.025	3138.902	905.5	16.75
1042.1309	3139.8775	902.55	19.4
1042.2368	3140.8524	901.3	20.3
1042.3427	3141.8267	902.55	17.75
1042.4485	3142.8004	901.6	18.35
1042.5542	3143.7735	908.95	19.4
1042.6599	3144.7459	903.75	16.8
1042.7656	3145.7178	901.25	17.75
1042.8712	3146.689	898.3	16.3
1042.9768	3147.6596	901.5	16.2
1043.0823	3148.6295	899.5	15.5
1043.1878	3149.5989	898.3	15.45
1043.2932	3150.5676	901.15	20.1
1043.3986	3151.5357	898.4	17.1
1043.5039	3152.5032	898.9	16.85
1043.6092	3153.4701	899	18.5
1043.7145	3154.4364	903.4	17.1
1043.8197	3155.402	898.5	16.85
1043.9248	3156.367	900.65	17.15
1044.03	3157.3315	935.55	16.35
1044.135	3158.2952	900.35	15.3
1044.24	3159.2584	897.3	14.55
1044.345	3160.221	900.55	16
1044.4499	3161.1829	899.25	14.9
1044.5548	3162.1442	898.35	15.3
1044.6596	3163.105	898.85	15.3
1044.7644	3164.065	900.8	18.75
1044.8692	3165.0245	901.65	15.15
1044.9739	3165.9834	896.85	16.15
1045.0785	3166.9416	897.4	15.45
1045.1831	3167.8993	900.2	17.3
1045.2877	3168.8563	899.45	14.65
1045.3922	3169.8127	895.8	12.8
1045.4966	3170.7684	897.5	13.25
1045.6011	3171.7236	899.15	16.45
1045.7054	3172.6782	899.6	16.65
1045.8098	3173.6321	899.2	15.9
1045.914	3174.5854	902.2	15.85
1046.0183	3175.5381	900	19.2
1046.1224	3176.4902	898.95	16.7
1046.2266	3177.4417	898.15	15.3
1046.3307	3178.3926	895.75	12.3
1046.4347	3179.3428	893.85	12.9
1046.5387	3180.2924	897	14.05
1046.6427	3181.2415	896.2	11.3
1046.7466	3182.1899	900	16.55
1046.8504	3183.1377	899.75	16.65
1046.9542	3184.0848	899.8	15.25
1047.058	3185.0314	897.65	16.35
1047.1617	3185.9773	895.85	11.7
1047.2654	3186.9227	897.1	13
1047.369	3187.8674	896.25	11.25
1047.4726	3188.8115	898.1	11.9
1047.5761	3189.755	897.3	13
1047.6796	3190.6979	897.4	15.4
1047.783	3191.6402	894.65	12.6
1047.8864	3192.5818	896.95	14.3
1047.9898	3193.5229	901.6	13.2
1048.0931	3194.4633	895.55	13.25
1048.1963	3195.4031	897.65	15.5
1048.2995	3196.3423	894.55	14.1
1048.4027	3197.2809	894.9	11.8
1048.5058	3198.2189	895.2	12.85
1048.6089	3199.1563	903.05	13.6
1048.7119	3200.0931	896.85	15.7
1048.8148	3201.0292	894.5	12.1
1048.9178	3201.9648	895.75	12.15
1049.0206	3202.8997	897.8	12
1049.1235	3203.834	896.2	14.3
1049.2262	3204.7677	894.6	10.3
1049.329	3205.7008	898.1	14.5
1049.4317	3206.6333	894.8	12.35
1049.5343	3207.5652	895.85	10.7
1049.6369	3208.4964	897.4	14.75
1049.7394	3209.4271	897.35	16.1
1049.8419	3210.3571	895.55	12.6
1049.9444	3211.2865	895.65	12.2
1050.0468	3212.2154	895.9	11.95
1050.1491	3213.1436	895.8	11.65
1050.2514	3214.0712	902.25	14.35
1050.3537	3214.9982	894.35	10.75
1050.4559	3215.9246	894.8	11
1050.5581	3216.8503	892.35	10.7
1050.6602	3217.7755	895.25	11.5
1050.7623	3218.7001	894.45	11.15
1050.8643	3219.624	894.95	12.05
1050.9663	3220.5473	895	11.7
1051.0682	3221.4701	894.5	11.15
1051.1701	3222.3922	895	11.15
1051.2719	3223.3137	894.1	10.9
1051.3737	3224.2346	893.85	9.7
1051.4754	3225.1549	893	11.65
1051.5771	3226.0746	892.35	9.15
1051.6788	3226.9937	894.8	11.15
1051.7804	3227.9121	893.3	11.15
1051.8819	3228.83	893.3	10.95
1051.9834	3229.7473	894.7	12.45
1052.0849	3230.6639	893.85	11.25
1052.1863	3231.5799	894.2	10.95
1052.2876	3232.4954	896.5	12.2
1052.3889	3233.4102	891.3	10.5
1052.4902	3234.3244	894.6	11.35
1052.5914	3235.238	892.5	10.6
1052.6926	3236.151	910.35	11.6
1052.7937	3237.0634	893.8	10.9
1052.8948	3237.9752	891.65	8.2
1052.9958	3238.8864	893.75	10.7
1053.0968	3239.797	893.2	10.65
1053.1977	3240.7069	894.95	11.45
1053.2986	3241.6163	893.1	8.4
1053.3994	3242.5251	892.3	10.5
1053.5002	3243.4332	891.95	10.3
1053.6009	3244.3408	894.55	11.85
1053.7016	3245.2477	892.9	8.95
1053.8022	3246.154	895.55	10.35
1053.9028	3247.0598	895.1	11.95
1054.0034	3247.9649	891.9	8
1054.1039	3248.8694	891.8	8.45
1054.2043	3249.7733	892.3	8.5
1054.3047	3250.6766	891.35	8.15
1054.4051	3251.5793	893	10.2
1054.5054	3252.4814	893.4	11.5
1054.6056	3253.3829	892.45	9.3
1054.7058	3254.2838	891.2	7.9
1054.806	3255.1841	891.15	9.85
1054.9061	3256.0838	893.5	10.95
1055.0061	3256.9829	892.35	11.7
1055.1062	3257.8814	896.1	10.1
1055.2061	3258.7792	894.35	10.25
1055.306	3259.6765	893.15	9.55
1055.4059	3260.5731	890.8	7.95
1055.5057	3261.4692	890.6	7.55
1055.6055	3262.3647	891.2	8
1055.7052	3263.2595	889.8	8
1055.8049	3264.1538	892.25	7.65
1055.9045	3265.0474	892	10.4
1056.0041	3265.9404	891.5	7.9
1056.1036	3266.8329	890.85	8.35
1056.2031	3267.7247	902.25	9.1
1056.3025	3268.616	889.05	5.85
1056.4019	3269.5066	890	8.25
1056.5013	3270.3966	892.1	7.15
1056.6005	3271.286	889.3	6.85
