Software Version:	3.9.2.0
Unit SN:	10000200
Spectrometer SN:	6960
Date:	3/26/2024 2:55:24 PM
Data Line Index:	25
Spectral Points:	2048
Integration time (ms):	125
Averages:	20
Delay (ms):	30000
Sequence Number:	1
Processing:	dark subtract
Laser Power (mW):	305
Laser Current (mA):	816
Laser Diode Temp (C):	25
Laser Case Temp (C):	28
System Temp (C):	28.1
Spectrometer Temp (C):	26
CCD Temp (C):	0.009
Secondary Temp (C):	20.01
Heatsink Temp (C):	23.499
CCDPCB Temp (C):	37.341
SecondaryPCB Temp (C):	35.029

Wavelength	RamanShift	Raw Counts	Dark Subtracted
787.061	30.1047	632.8	224.65
787.2016	32.3739	642	234.7
787.3422	34.6426	662.3	253.55
787.4828	36.9109	676	263.9
787.6235	39.1787	698.8	283.65
787.7642	41.4461	721.3	301.6
787.9049	43.7131	746.65	322.9
788.0456	45.9796	766.4	340.45
788.1863	48.2456	798.6	368.5
788.3271	50.5112	814.15	380.2
788.4679	52.7764	843.35	406
788.6087	55.0411	877.8	438.2
788.7496	57.3054	904.8	458.85
788.8904	59.5692	936.2	486.95
789.0313	61.8326	976.6	521.5
789.1722	64.0955	1013.95	556.45
789.3132	66.3579	1063.4	601.85
789.4541	68.6199	1121.85	656.45
789.5951	70.8815	1205.7	737.8
789.7361	73.1426	1404.9	933.25
789.8771	75.4032	1900.05	1421.5
790.0181	77.6634	3162.05	2678.05
790.1592	79.9231	6271.65	5776.95
790.3003	82.1824	13439.4	12925.4
790.4414	84.4412	29477.15	28933.25
790.5825	86.6995	56813.6	56219.95
790.7237	88.9574	65527.55	64888
790.8648	91.2148	65535	64867.95
791.006	93.4717	65535	64845.45
791.1472	95.7282	65535	64836.05
791.2885	97.9842	65535	64828.85
791.4297	100.2398	65535	64828.4
791.571	102.4949	65535	64827.15
791.7123	104.7495	65535	64827.75
791.8536	107.0036	65535	64821.35
791.9949	109.2573	65535	64825.35
792.1363	111.5105	65535	64821.95
792.2777	113.7632	65535	64819.85
792.4191	116.0154	65535	64806.5
792.5605	118.2672	65535	64816.5
792.7019	120.5185	65535	64813.9
792.8434	122.7693	65535	64814.9
792.9849	125.0197	65535	64807.55
793.1264	127.2696	65535	64807.25
793.2679	129.519	65535	64801.8
793.4094	131.7679	65535	64798.35
793.551	134.0163	65535	64794.55
793.6926	136.2642	65535	64793.8
793.8342	138.5117	65535	64790.1
793.9758	140.7587	65535	64783.9
794.1175	143.0052	65535	64784.6
794.2591	145.2512	65535	64786.5
794.4008	147.4967	65535	64785.5
794.5425	149.7417	65535	64783.65
794.6842	151.9863	65535	64777.75
794.826	154.2304	65535	64775.45
794.9677	156.4739	65535	64768.65
795.1095	158.717	65535	64768.2
795.2513	160.9596	65535	64762.75
795.3931	163.2017	65535	64763.9
795.535	165.4433	65535	64762.7
795.6768	167.6844	65535	64764.35
795.8187	169.925	65535	64762.6
795.9606	172.1651	65535	64759.8
796.1025	174.4047	65535	64760.7
796.2445	176.6439	65535	64755.95
796.3864	178.8825	65535	64751.7
796.5284	181.1206	65535	64743.55
796.6704	183.3582	65535	64741.75
796.8124	185.5954	65535	64742.85
796.9544	187.832	65535	64737.15
797.0965	190.0681	65535	64732.25
797.2386	192.3037	65535	64729.55
797.3806	194.5388	65535	64728.1
797.5228	196.7734	65535	64722.5
797.6649	199.0075	65535	64715.9
797.807	201.2411	65535	64717.35
797.9492	203.4742	65535	64716.85
798.0914	205.7068	65535	64714.15
798.2336	207.9389	65535	64718.4
798.3758	210.1704	65535	64718.2
798.518	212.4015	65535	64708.8
798.6603	214.632	65535	64711.85
798.8025	216.862	65535	64723.45
798.9448	219.0915	65535	64727.8
799.0871	221.3205	65535	64730.55
799.2294	223.549	65535	64731.7
799.3718	225.777	65535	64731.1
799.5141	228.0044	65535	64730.4
799.6565	230.2314	65535	64737.3
799.7989	232.4578	65535	64733.4
799.9413	234.6837	65535	64726.75
800.0837	236.909	65535	64721.45
800.2262	239.1339	65535	64695.2
800.3687	241.3582	65535	64716.1
800.5111	243.582	65535	64680.9
800.6536	245.8053	65535	64698.25
800.7961	248.0281	65535	64706.05
800.9387	250.2503	65535	64695.95
801.0812	252.472	65535	64690.5
801.2238	254.6932	65535	64691.25
801.3664	256.9139	65535	64688.3
801.509	259.134	65535	64688.4
801.6516	261.3536	65535	64686.7
801.7942	263.5727	65535	64680.7
801.9369	265.7912	65535	64686.1
802.0795	268.0092	65535	64686.9
802.2222	270.2267	65535	64685.35
802.3649	272.4436	65535	64682.55
802.5076	274.6601	65535	64679.25
802.6504	276.8759	65535	64684.05
802.7931	279.0913	65535	64680
802.9359	281.3061	65535	64680.5
803.0787	283.5204	65535	64674.95
803.2215	285.7341	65535	64670.05
803.3643	287.9473	65535	64661.65
803.5071	290.16	65535	64661.55
803.6499	292.3721	65535	64671.55
803.7928	294.5837	65535	64666.6
803.9357	296.7947	65535	64673.2
804.0786	299.0052	65535	64672.1
804.2215	301.2152	65535	64663.95
804.3644	303.4246	65535	64672.75
804.5074	305.6334	65535	64671.3
804.6503	307.8418	65535	64669.45
804.7933	310.0495	65535	64666.15
804.9363	312.2568	65535	64665.55
805.0793	314.4635	65535	64661.45
805.2223	316.6696	65535	64662.1
805.3653	318.8752	65535	64659.5
805.5084	321.0802	65535	64661.1
805.6514	323.2847	65535	64657.6
805.7945	325.4887	65535	64660.85
805.9376	327.692	65535	64660.7
806.0807	329.8949	65535	64660.65
806.2238	332.0972	65535	64656.3
806.367	334.2989	65535	64653.6
806.5101	336.5001	65535	64650.15
806.6533	338.7007	65535	64655.2
806.7965	340.9008	65535	64651.15
806.9397	343.1003	65535	64651
807.0829	345.2992	65535	64652.15
807.2261	347.4976	65535	64647.1
807.3693	349.6955	65535	64645.8
807.5126	351.8927	65535	64644.65
807.6559	354.0895	65535	64631.5
807.7991	356.2856	65535	64645.75
807.9424	358.4812	65535	64641.65
808.0857	360.6763	65535	64640
808.2291	362.8707	65535	64642.7
808.3724	365.0646	65535	64642.8
808.5158	367.258	65535	64640.2
808.6591	369.4508	65535	64635.25
808.8025	371.643	65535	64640.8
808.9459	373.8346	65535	64633.8
809.0893	376.0257	65535	64630.1
809.2327	378.2162	65535	64630.75
809.3762	380.4062	65535	64630.05
809.5196	382.5956	65535	64626.75
809.6631	384.7844	65535	64630.75
809.8066	386.9726	65535	64629.2
809.9501	389.1603	65535	64630.4
810.0936	391.3474	65535	64591.8
810.2371	393.5339	65535	64630.95
810.3806	395.7199	65535	64634.6
810.5241	397.9052	65535	64636.9
810.6677	400.09	65535	64642.45
810.8113	402.2743	65535	64641.45
810.9548	404.4579	65535	64642.1
811.0984	406.641	65535	64642.85
811.2421	408.8235	65535	64640.2
811.3857	411.0054	65535	64639.95
811.5293	413.1868	65535	64637.25
811.673	415.3675	65535	64632.95
811.8166	417.5477	65535	64633.1
811.9603	419.7273	65535	64635.15
812.104	421.9064	65535	64627.8
812.2477	424.0848	65535	64629.35
812.3914	426.2627	65535	64629.25
812.5351	428.4399	65535	64626.35
812.6788	430.6166	65535	64619.3
812.8226	432.7928	65535	64620.8
812.9663	434.9683	65535	64626.5
813.1101	437.1432	65535	64622.35
813.2539	439.3176	65535	64631.25
813.3977	441.4914	65535	64634.55
813.5415	443.6645	65535	64627
813.6853	445.8371	65535	64622.7
813.8291	448.0091	65535	64626.7
813.973	450.1806	65535	64626.5
814.1168	452.3514	65535	64632.15
814.2607	454.5216	65535	64624.9
814.4046	456.6913	65535	64625.2
814.5485	458.8603	65535	64627.2
814.6924	461.0288	65535	64633.85
814.8363	463.1967	65535	64629.15
814.9802	465.3639	65535	64628.15
815.1241	467.5306	65535	64626.7
815.2681	469.6967	65535	64632.1
815.412	471.8622	65535	64634.35
815.556	474.0271	65535	64628.55
815.7	476.1914	65535	64622.5
815.844	478.3551	65535	64620.85
815.988	480.5182	65535	64625.5
816.132	482.6807	65535	64634.65
816.276	484.8426	65535	64641.2
816.4201	487.0039	65535	64632.4
816.5641	489.1647	65535	64624.7
816.7082	491.3248	65535	64623.25
816.8522	493.4843	65535	64626.4
816.9963	495.6432	65535	64629.25
817.1404	497.8015	65535	64615.9
817.2845	499.9592	65535	64619.9
817.4286	502.1163	65535	64618.55
817.5727	504.2728	65535	64622.45
817.7168	506.4287	65535	64631.95
817.861	508.5839	65535	64630.7
818.0051	510.7386	65535	64623.3
818.1493	512.8927	65535	64614.05
818.2935	515.0461	65535	64625
818.4377	517.199	65535	64614.6
818.5818	519.3512	65535	64615.95
818.726	521.5029	65535	64613.45
818.8703	523.6539	65535	64616.3
819.0145	525.8043	65535	64616.1
819.1587	527.9541	65535	64615.15
819.303	530.1033	65535	64612.75
819.4472	532.2519	65535	64617.8
819.5915	534.3999	65535	64614.05
819.7357	536.5472	65535	64617.65
819.88	538.694	65535	64623.9
820.0243	540.8401	65535	64619.9
820.1686	542.9856	65535	64603.95
820.3129	545.1305	65535	64602.95
820.4572	547.2748	65535	64598.4
820.6016	549.4185	65535	64600.3
820.7459	551.5615	65535	64598.45
820.8902	553.704	65535	64601.15
821.0346	555.8458	65535	64606.45
821.1789	557.987	65535	64606.25
821.3233	560.1276	65535	64603.35
821.4677	562.2675	65535	64605.45
821.6121	564.4069	65535	64602.5
821.7565	566.5456	65535	64608.6
821.9009	568.6837	65535	64609.3
822.0453	570.8212	65535	64610.1
822.1897	572.958	65535	64608.95
822.3342	575.0942	65535	64613.9
822.4786	577.2299	65535	64615.55
822.6231	579.3648	65535	64626.95
822.7675	581.4992	65535	64631.95
822.912	583.6329	65535	64635.7
823.0565	585.766	65535	64631.8
823.201	587.8985	65535	64627.5
823.3454	590.0304	65535	64604.15
823.4899	592.1616	65535	64608.2
823.6345	594.2922	65535	64604.1
823.779	596.4222	65535	64604.45
823.9235	598.5515	65535	64602.85
824.068	600.6802	65535	64601.3
824.2126	602.8083	65535	64606
824.3571	604.9358	65535	64606.7
824.5017	607.0626	65535	64599.55
824.6462	609.1888	65535	64596.3
824.7908	611.3144	65535	64594.6
824.9354	613.4393	65535	64595.85
825.08	615.5636	65535	64598.4
825.2246	617.6873	65535	64599.05
825.3692	619.8103	65535	64597
825.5138	621.9327	65535	64603.4
825.6584	624.0544	65535	64609.9
825.803	626.1756	65535	64604.5
825.9477	628.2961	65535	64602.75
826.0923	630.4159	65535	64601.8
826.237	632.5351	65535	64604.05
826.3816	634.6537	65535	64600
826.5263	636.7716	65535	64593.75
826.6709	638.8889	65535	64592.95
826.8156	641.0056	65535	64591.9
826.9603	643.1216	65535	64596.95
827.105	645.237	65535	64595.9
827.2497	647.3518	65535	64606.4
827.3944	649.4659	65535	64607.45
827.5391	651.5793	65535	64608.4
827.6838	653.6922	65535	64604.35
827.8285	655.8043	65535	64603.15
827.9733	657.9159	65535	64605.75
828.118	660.0268	65535	64601.95
828.2627	662.137	65535	64597.95
828.4075	664.2466	65535	64592.85
828.5522	666.3556	65535	64597.15
828.697	668.4639	65535	64599.45
828.8418	670.5716	65535	64607.95
828.9865	672.6786	65535	64594.65
829.1313	674.785	65535	64592.9
829.2761	676.8907	65535	64600.15
829.4209	678.9958	65535	64606.4
829.5657	681.1002	65535	64597.3
829.7105	683.204	65535	64586.75
829.8553	685.3072	65535	64593.3
830.0001	687.4097	65535	64591.85
830.1449	689.5115	65533.75	64588.6
830.2898	691.6127	65535	64597.9
830.4346	693.7132	65533.95	64595.55
830.5794	695.8131	65533.35	64574.65
830.7243	697.9123	65535	64590.9
830.8691	700.0109	65535	64590.25
831.014	702.1089	65524.3	64581.45
831.1588	704.2061	65527.9	64583.95
831.3037	706.3028	65528.3	64587.25
831.4486	708.3987	65532.6	64588.4
831.5935	710.4941	65528.15	64586.35
831.7383	712.5887	65535	64598.3
831.8832	714.6827	65528.1	64582.05
832.0281	716.7761	65535	64600.5
832.173	718.8688	65535	64593.25
832.3179	720.9608	65535	64587.45
832.4628	723.0522	65531	64578.35
832.6077	725.1429	65520.8	64577.55
832.7527	727.233	65535	64592.15
832.8976	729.3224	65457.6	64514.15
833.0425	731.4112	65517.7	64574.95
833.1874	733.4993	65514.75	64573.65
833.3324	735.5867	65518.35	64574.8
833.4773	737.6735	65466.9	64523.9
833.6222	739.7596	65421.55	64478.95
833.7672	741.845	65412.75	64470.75
833.9122	743.9298	65501.75	64556.15
834.0571	746.014	65408.35	64463.2
834.2021	748.0974	65326.55	64380.8
834.347	750.1802	65451.95	64504.05
834.492	752.2624	65297.4	64348
834.637	754.3439	65329.3	64376.85
834.782	756.4247	65382.8	64426.4
834.9269	758.5048	65302.85	64358.65
835.0719	760.5843	65350.3	64400.95
835.2169	762.6631	65396.15	64448.25
835.3619	764.7413	65382.25	64438.9
835.5069	766.8188	65405.3	64456.25
835.6519	768.8956	65477.6	64531.95
835.7969	770.9718	65469.4	64523.6
835.9419	773.0473	65447	64495.6
836.0869	775.1221	65299.05	64352.65
836.232	777.1962	65287.65	64341.25
836.377	779.2697	65016.85	64068.8
836.522	781.3426	65233	64275.25
836.667	783.4147	65310.1	64358.65
836.8121	785.4862	65312.6	64364.6
836.9571	787.557	65032.5	64082.35
837.1021	789.6271	65265.95	64317.1
837.2472	791.6966	64995.6	64045.95
837.3922	793.7654	64335.15	63384.95
837.5373	795.8335	64390.95	63443.6
837.6823	797.901	64535.45	63586.75
837.8274	799.9678	64205.7	63254.4
837.9724	802.0339	64081.65	63134.05
838.1175	804.0993	64166.8	63209.6
838.2626	806.1641	63887.3	62938
838.4076	808.2282	63709.1	62757.1
838.5527	810.2916	63470.95	62519.4
838.6978	812.3544	63982.85	63037.1
838.8428	814.4164	63046.65	62099.8
838.9879	816.4778	63114.45	62163.5
839.133	818.5385	63175.7	62225.65
839.2781	820.5986	63092.2	62143.95
839.4232	822.658	63171.15	62220.35
839.5682	824.7166	63202.15	62256.5
839.7133	826.7747	62390.95	61438.65
839.8584	828.832	62741.8	61789.45
840.0035	830.8886	63181.6	62228.35
840.1486	832.9446	63196.4	62240.1
840.2937	834.9999	61995.1	61043.3
840.4388	837.0545	62672.1	61716.25
840.5839	839.1085	63155.6	62201.55
840.729	841.1618	62845.8	61891.7
840.8741	843.2143	61973.05	61022.55
841.0192	845.2662	61951.7	60999.3
841.1643	847.3175	62217.5	61266.45
841.3095	849.368	61087.3	60136.3
841.4546	851.4179	61897.8	60945.2
841.5997	853.467	61115.75	60164.7
841.7448	855.5155	61419.6	60469.55
841.8899	857.5633	60667.6	59716.75
842.0351	859.6105	60293.3	59342.05
842.1802	861.6569	60702.7	59751.9
842.3253	863.7027	59896	58940.8
842.4704	865.7478	60126.25	59174.05
842.6156	867.7922	59920.15	58964.95
842.7607	869.8359	60459.05	59504.9
842.9058	871.8789	59559.05	58605.25
843.0509	873.9212	60150.75	59165.6
843.1961	875.9629	60193.5	59241.3
843.3412	878.0039	60137.75	59185.4
843.4863	880.0441	59830.55	58880.25
843.6315	882.0837	59766.75	58816.4
843.7766	884.1226	59652.5	58698.35
843.9218	886.1609	59468.1	58517.25
844.0669	888.1984	58993.15	58043.85
844.212	890.2352	59524	58573.05
844.3572	892.2714	58632	57673.65
844.5023	894.3069	58879.95	57927.05
844.6475	896.3416	58497.25	57546
844.7926	898.3757	58375.05	57420.85
844.9377	900.4091	57569.65	56614.2
845.0829	902.4418	58492.95	57531.35
845.228	904.4739	57814	56855.95
845.3732	906.5052	57932.9	56977.4
845.5183	908.5358	57487.7	56529.35
845.6635	910.5658	57044.3	56086.6
845.8086	912.595	56988.3	56032.05
845.9538	914.6236	56296.1	55342.25
846.0989	916.6515	57270.25	56315.15
846.2441	918.6786	56061.05	55108.15
846.3892	920.7051	56290.25	55332.7
846.5344	922.7309	56261.6	55307.1
846.6795	924.756	56415.7	55459.75
846.8246	926.7804	56050.4	55095.2
846.9698	928.8041	55417.9	54460.45
847.1149	930.8272	55680.5	54727.25
847.2601	932.8495	55517.05	54560.55
847.4052	934.8711	55004.05	54048.25
847.5504	936.892	54638.7	53680.55
847.6955	938.9123	54490.5	53530.6
847.8407	940.9318	54122.25	53167.55
847.9858	942.9506	53872.8	52917.95
848.131	944.9688	53787.7	52835.3
848.2761	946.9862	53160.05	52205.85
848.4213	949.003	53252.1	52295.55
848.5664	951.019	52732.4	51779.2
848.7115	953.0344	52778.5	51825.45
848.8567	955.0491	52683.75	51730.2
849.0018	957.063	52801.85	51846.9
849.147	959.0763	52851.9	51893.05
849.2921	961.0888	52564.55	51608.05
849.4373	963.1007	52747.9	51796.8
849.5824	965.1119	52676	51728.4
849.7275	967.1223	52412.3	51470.5
849.8727	969.1321	52601.55	51662.2
850.0178	971.1412	52221.9	51274.65
850.1629	973.1495	52041.1	51088.9
850.3081	975.1572	52035.7	51051.65
850.4532	977.1641	51965.05	51012.65
850.5983	979.1704	51757.9	50805.65
850.7435	981.1759	51654.55	50697.2
850.8886	983.1808	51563.7	50609.2
851.0337	985.1849	51532	50569.8
851.1788	987.1884	51565.05	50607.8
851.324	989.1911	51751.7	50795.4
851.4691	991.1932	51487.15	50536.8
851.6142	993.1945	51400.35	50448.85
851.7593	995.1951	51258.85	50301.85
851.9045	997.1951	51074.65	50117.55
852.0496	999.1943	50803.35	49853.35
852.1947	1001.1928	50568.1	49617.95
852.3398	1003.1906	50410.9	49456.35
852.4849	1005.1877	50200.5	49246.25
852.63	1007.1841	49825	48869.25
852.7751	1009.1798	49611.3	48659.05
852.9202	1011.1748	49188.4	48235.25
853.0653	1013.1691	48892.65	47942
853.2104	1015.1627	48421.7	47471.6
853.3555	1017.1556	47959.45	47007.55
853.5006	1019.1477	47834.35	46884.8
853.6457	1021.1392	47463.2	46518.15
853.7908	1023.1299	47229.25	46286.35
853.9359	1025.12	47118.65	46184.95
854.081	1027.1093	46894.1	45964.95
854.2261	1029.0979	46881.6	45952.75
854.3712	1031.0859	46702.2	45775.05
854.5163	1033.0731	46544.5	45605.3
854.6613	1035.0596	46318.25	45376.05
854.8064	1037.0454	45919.95	44972.35
854.9515	1039.0304	45679.9	44733.55
855.0965	1041.0148	45357.15	44404.9
855.2416	1042.9985	45142.05	44191.25
855.3867	1044.9814	45059.45	44112.55
855.5317	1046.9636	44844.9	43894.75
855.6768	1048.9452	44549.75	43605.9
855.8219	1050.926	44467.85	43520.85
855.9669	1052.9061	44335.45	43386.5
856.112	1054.8855	44255.3	43305.05
856.257	1056.8642	44099.35	43149.65
856.4021	1058.8421	44091.15	43136.95
856.5471	1060.8194	43967.05	43015.35
856.6921	1062.7959	43816.4	42868.15
856.8372	1064.7717	43649.2	42699.6
856.9822	1066.7469	43589.4	42641.95
857.1272	1068.7213	43389.55	42438.1
857.2723	1070.695	43289.35	42339.8
857.4173	1072.6679	42995.05	42044.25
857.5623	1074.6402	42889.5	41940.5
857.7073	1076.6117	42806.75	41851.15
857.8523	1078.5826	42797.05	41846.15
857.9973	1080.5527	42639.5	41689.65
858.1423	1082.5221	42665.35	41714.2
858.2873	1084.4908	42827.95	41881.35
858.4323	1086.4587	42927.45	41979.3
858.5773	1088.426	42986	42034.75
858.7223	1090.3925	42782.75	41829.45
858.8673	1092.3584	42655.1	41707.35
859.0123	1094.3235	42217.7	41270.25
859.1573	1096.2879	42013.4	41067.15
859.3022	1098.2515	41802.3	40852.75
859.4472	1100.2145	41726.5	40778.95
859.5922	1102.1767	41671.4	40722.1
859.7371	1104.1382	41666.65	40718.05
859.8821	1106.099	41788.9	40837.45
860.027	1108.0591	41790.95	40840.7
860.172	1110.0185	41829.8	40880.4
860.3169	1111.9771	41771.35	40825.35
860.4619	1113.9351	41340.7	40393.8
860.6068	1115.8923	40818.4	39868.65
860.7517	1117.8488	40424.75	39473.25
860.8967	1119.8045	39892.85	38946.85
861.0416	1121.7596	39766.7	38819.45
861.1865	1123.7139	39499.35	38556.75
861.3314	1125.6675	39439.35	38495.3
861.4763	1127.6204	39471.6	38523.5
861.6212	1129.5726	39375.05	38424.25
861.7661	1131.524	39309.95	38362.65
861.911	1133.4748	39286.6	38342.65
862.0559	1135.4248	39192.65	38245.8
862.2008	1137.3741	39129.35	38183.35
862.3457	1139.3226	39041.55	38093.3
862.4905	1141.2705	38980.95	38032.85
862.6354	1143.2176	38645	37691.6
862.7803	1145.164	38562.55	37613
862.9251	1147.1097	38499.65	37553.75
863.07	1149.0546	38474.65	37527.85
863.2148	1150.9989	38322.55	37376.65
863.3597	1152.9424	38100.2	37153.9
863.5045	1154.8852	37786.7	36839.55
863.6493	1156.8272	37579.8	36633.45
863.7942	1158.7686	37442.15	36488.1
863.939	1160.7092	37253.3	36302.9
864.0838	1162.6491	37029.25	36077.2
864.2286	1164.5883	37092.75	36145.55
864.3734	1166.5267	37068.8	36118.7
864.5182	1168.4644	37139.1	36191.85
864.663	1170.4014	37206.1	36260.85
864.8078	1172.3377	37431.75	36488.85
864.9526	1174.2732	37494.7	36547.1
865.0974	1176.2081	37636.2	36690.65
865.2421	1178.1421	37673.65	36729.05
865.3869	1180.0755	37799.25	36857.35
865.5317	1182.0082	37576.65	36633.85
865.6764	1183.9401	37403.85	36461
865.8212	1185.8713	37110.65	36170.75
865.9659	1187.8017	36807.7	35873.5
866.1106	1189.7315	36488.85	35562.7
866.2554	1191.6605	35979.15	35052.75
866.4001	1193.5888	35711.5	34780.25
866.5448	1195.5163	35545	34608.4
866.6895	1197.4432	35344.75	34403.4
866.8342	1199.3693	35176.3	34237.55
866.9789	1201.2947	34979.35	34034.75
867.1236	1203.2193	34801.7	33857.5
867.2683	1205.1432	34817.35	33873.75
867.413	1207.0664	34706.4	33765.05
867.5576	1208.9889	34681.95	33736.95
867.7023	1210.9106	34671.2	33728.9
867.847	1212.8316	34523.6	33583.65
867.9916	1214.7519	34623.65	33671.95
868.1363	1216.6715	34515.85	33570.4
868.2809	1218.5903	34378.7	33435.2
868.4255	1220.5084	34167.95	33224.85
868.5701	1222.4257	34158.6	33216.65
868.7148	1224.3424	33887.85	32950.3
868.8594	1226.2583	33854.95	32912.4
869.004	1228.1735	33908.8	32966.1
869.1486	1230.0879	33886.6	32943.9
869.2932	1232.0016	33906.15	32964.05
869.4377	1233.9146	33770.2	32824.95
869.5823	1235.8269	33588.75	32643.75
869.7269	1237.7384	33409.25	32464.9
869.8715	1239.6492	33080.2	32139.75
870.016	1241.5592	32967.6	32028.4
870.1606	1243.4686	32744.35	31804.15
870.3051	1245.3772	32577.9	31635.6
870.4496	1247.285	32374	31433.45
870.5941	1249.1922	32216.25	31274.8
870.7387	1251.0986	32152.05	31211.8
870.8832	1253.0042	31983.15	31041.6
871.0277	1254.9092	32051.7	31111.9
871.1722	1256.8134	32089.2	31152.6
871.3167	1258.7169	32179.1	31241.2
871.4611	1260.6196	32217.2	31280.5
871.6056	1262.5216	32297.6	31358.95
871.7501	1264.4229	32347.05	31412
871.8945	1266.3234	32488.25	31546.7
872.039	1268.2232	32463.5	31520.9
872.1834	1270.1223	32357.85	31412.4
872.3278	1272.0207	32219.8	31276.7
872.4723	1273.9183	32074.95	31126.65
872.6167	1275.8151	31948.9	31008.95
872.7611	1277.7113	31810.4	30873.15
872.9055	1279.6067	31492.8	30557
873.0499	1281.5014	31278.05	30338.05
873.1943	1283.3953	31087.25	30143.15
873.3386	1285.2885	30900.4	29961.4
873.483	1287.181	30714.35	29775.7
873.6274	1289.0727	30768.8	29829.4
873.7717	1290.9637	30680.75	29742.25
873.9161	1292.854	30773.25	29832.75
874.0604	1294.7435	30821.15	29882.8
874.2047	1296.6323	30979.35	30042.8
874.349	1298.5204	31199.75	30259
874.4933	1300.4077	31393.65	30454.25
874.6376	1302.2943	31495.9	30554.9
874.7819	1304.1802	31542.1	30605.3
874.9262	1306.0653	31373	30433.65
875.0705	1307.9497	31209.85	30269.5
875.2147	1309.8333	31108.1	30169.8
875.359	1311.7162	31011.65	30071.9
875.5032	1313.5984	31089.95	30147.4
875.6475	1315.4798	31149.2	30198.2
875.7917	1317.3605	31255.15	30312.2
875.9359	1319.2405	31376.3	30436.95
876.0801	1321.1197	31337.6	30399.9
876.2243	1322.9982	31185	30240
876.3685	1324.876	31187.65	30252.65
876.5127	1326.753	31055.05	30115.85
876.6569	1328.6293	31088.65	30148.05
876.801	1330.5048	31109.5	30167.1
876.9452	1332.3796	30982.6	30042.8
877.0893	1334.2537	30911.75	29948
877.2335	1336.127	30751.05	29812.3
877.3776	1337.9996	30649.95	29712.9
877.5217	1339.8714	30564.6	29629
877.6658	1341.7426	30452.6	29472.3
877.8099	1343.6129	30303.9	29366.15
877.954	1345.4826	30140.65	29203.65
878.0981	1347.3515	30094.9	29156.2
878.2422	1349.2196	29957	29016.2
878.3862	1351.087	29933.7	28993.05
878.5303	1352.9537	29939.25	29000.85
878.6743	1354.8197	30003.4	29064.7
878.8184	1356.6849	30135.3	29194.75
878.9624	1358.5493	30122.1	29184.1
879.1064	1360.4131	30081.8	29145.35
879.2504	1362.276	29897.6	28963.9
879.3944	1364.1383	29651.2	28716.6
879.5384	1365.9998	29340.15	28395.2
879.6823	1367.8606	28951.6	28014.6
879.8263	1369.7206	28690.35	27751.25
879.9702	1371.5799	28440	27499.4
880.1142	1373.4384	28226.85	27289.45
880.2581	1375.2962	28075.55	27137.3
880.402	1377.1533	27727.65	26793.15
880.5459	1379.0096	27343.55	26410.9
880.6898	1380.8652	27006.85	26073.7
880.8337	1382.7201	26724.3	25791.85
880.9776	1384.5742	26393.7	25456.85
881.1215	1386.4275	26224	25289
881.2653	1388.2802	26020.6	25086.6
881.4092	1390.132	25820	24883.45
881.553	1391.9832	25765.05	24825.9
881.6968	1393.8336	25562.95	24625.75
881.8406	1395.6832	25462.55	24525.8
881.9844	1397.5322	25351.65	24414.7
882.1282	1399.3803	25257.2	24317.7
882.272	1401.2278	25101.35	24165.95
882.4158	1403.0745	25044.2	24111.25
882.5595	1404.9204	24912	23977.85
882.7033	1406.7656	24873.5	23937.35
882.847	1408.6101	24826.1	23889.15
882.9908	1410.4538	24718.45	23780.7
883.1345	1412.2968	24686.5	23752.05
883.2782	1414.139	24626.45	23692.35
883.4219	1415.9805	24703.35	23769.25
883.5656	1417.8213	24670.6	23717.4
883.7092	1419.6613	24685.55	23755.8
883.8529	1421.5006	24884.1	23949.65
883.9965	1423.3391	25075.5	24139.45
884.1402	1425.1769	25349.65	24414.3
884.2838	1427.0139	25851.15	24916.85
884.4274	1428.8502	26375.3	25441.05
884.571	1430.6858	26942.7	26011.85
884.7146	1432.5206	27242.15	26309.85
884.8582	1434.3547	27481.95	26549.35
885.0018	1436.188	27477.75	26542
885.1453	1438.0206	27369.65	26436.3
885.2889	1439.8524	27138.2	26205.5
885.4324	1441.6835	27006.35	26071.55
885.5759	1443.5139	26891.6	25957.15
885.7194	1445.3435	26729.1	25798.6
885.8629	1447.1724	26657.2	25725.6
886.0064	1449.0005	26543.55	25610.95
886.1499	1450.8279	26370.55	25437.25
886.2933	1452.6545	26335.85	25405.45
886.4368	1454.4804	26307.9	25379.85
886.5802	1456.3056	26246.7	25308
886.7237	1458.13	26085.1	25157
886.8671	1459.9536	25886.4	24954.55
887.0105	1461.7766	25476.35	24541.5
887.1539	1463.5987	24989.45	24055.55
887.2972	1465.4202	24536.35	23604.2
887.4406	1467.2409	24089.2	23157.65
887.584	1469.0608	23818.8	22890.2
887.7273	1470.88	23483.05	22549.45
887.8706	1472.6984	23265.6	22336.2
888.0139	1474.5161	22933.35	22000.4
888.1572	1476.3331	22742.25	21813.55
888.3005	1478.1493	22615.65	21682.05
888.4438	1479.9648	22524.2	21593.6
888.5871	1481.7795	22348.15	21414.7
888.7303	1483.5935	22238.45	21308.5
888.8736	1485.4067	22152.9	21223.65
889.0168	1487.2192	22115	21183.85
889.16	1489.031	22008.3	21076.05
889.3032	1490.842	21928.15	20999.35
889.4464	1492.6522	21857.1	20922.5
889.5896	1494.4618	21761.65	20829.6
889.7327	1496.2705	21740.85	20811.45
889.8759	1498.0785	21664.6	20734.6
890.019	1499.8858	21593.2	20663.95
890.1622	1501.6924	21520.7	20593
890.3053	1503.4981	21494.25	20562.85
890.4484	1505.3032	21443.95	20513.45
890.5914	1507.1075	21365.2	20432.45
890.7345	1508.911	21308.45	20376.95
890.8776	1510.7138	21276.35	20343.8
891.0206	1512.5159	21131.15	20200.85
891.1637	1514.3172	21041.55	20113.1
891.3067	1516.1178	20942.45	20015
891.4497	1517.9176	20870.2	19934.7
891.5927	1519.7166	20757.75	19831.3
891.7357	1521.515	20672.95	19739.4
891.8786	1523.3126	20631.1	19702.9
892.0216	1525.1094	20562.95	19634.25
892.1645	1526.9055	20496.3	19568.4
892.3074	1528.7008	20417.05	19489.7
892.4503	1530.4954	20286.35	19353.8
892.5932	1532.2893	20256.5	19330.75
892.7361	1534.0824	20147.45	19216.35
892.879	1535.8747	20160.2	19239.9
893.0218	1537.6663	20055.5	19134.35
893.1647	1539.4572	19955.15	19031.2
893.3075	1541.2473	19915.4	18990.65
893.4503	1543.0367	19863.25	18940.7
893.5931	1544.8253	19780.25	18850.85
893.7359	1546.6132	19794.05	18867.05
893.8787	1548.4003	19628.5	18694.95
894.0214	1550.1867	19655.2	18724.45
894.1642	1551.9723	19579.4	18655.05
894.3069	1553.7572	19575.4	18654
894.4496	1555.5414	19527.95	18609.2
894.5923	1557.3247	19545.35	18627.9
894.735	1559.1074	19521.85	18605
894.8777	1560.8893	19495.7	18580.9
895.0204	1562.6705	19507.35	18586.85
895.163	1564.4509	19544.75	18628.75
895.3056	1566.2305	19553.85	18639.4
895.4482	1568.0094	19658.7	18745.4
895.5908	1569.7876	19702.7	18788
895.7334	1571.565	19746.05	18826.85
895.876	1573.3417	19732.25	18813.85
896.0186	1575.1176	19710.05	18794
896.1611	1576.8928	19656.7	18740.55
896.3036	1578.6672	19493.65	18584.2
896.4461	1580.4409	19347.2	18441.85
896.5886	1582.2138	19146	18233.1
896.7311	1583.986	18970	18054
896.8736	1585.7575	18850.65	17935.35
897.0161	1587.5282	18724.65	17814.1
897.1585	1589.2981	18629.3	17719.45
897.3009	1591.0673	18522.5	17613.15
897.4433	1592.8358	18478.55	17570.15
897.5857	1594.6035	18420.75	17506.3
897.7281	1596.3704	18364.85	17451.25
897.8705	1598.1366	18280.8	17369.45
898.0128	1599.9021	18279.7	17369.85
898.1551	1601.6668	18241.1	17327.6
898.2975	1603.4308	18243.95	17330.8
898.4398	1605.194	18299.3	17382.4
898.5821	1606.9564	18319.6	17413.2
898.7243	1608.7182	18398.05	17493.3
898.8666	1610.4791	18448.9	17550.25
899.0088	1612.2394	18574.3	17675.6
899.1511	1613.9988	18693.05	17792.4
899.2933	1615.7576	18889.8	17985.55
899.4355	1617.5156	19099.85	18185.75
899.5776	1619.2728	19296.75	18383.15
899.7198	1621.0293	19478.05	18566.45
899.862	1622.785	19478.15	18566.9
900.0041	1624.54	19337.1	18432.7
900.1462	1626.2942	19179.7	18274.25
900.2883	1628.0477	18828.9	17922.6
900.4304	1629.8005	18591.75	17680.65
900.5725	1631.5525	18275.15	17371.55
900.7145	1633.3037	18040.25	17138.75
900.8566	1635.0542	17825.9	16920.85
900.9986	1636.804	17605.35	16698.55
901.1406	1638.553	17567.2	16592.15
901.2826	1640.3013	17426.8	16521.55
901.4245	1642.0488	17305.7	16398.2
901.5665	1643.7955	17267.7	16364.85
901.7085	1645.5416	17234.9	16333.3
901.8504	1647.2868	17236.5	16330.95
901.9923	1649.0313	17266.45	16359.85
902.1342	1650.7751	17370.3	16460.4
902.2761	1652.5181	17524.9	16621
902.4179	1654.2604	17689.4	16786.55
902.5598	1656.0019	17976.65	17074.6
902.7016	1657.7427	18338.35	17434.85
902.8434	1659.4828	18644.7	17737.4
902.9852	1661.222	18865.65	17958.45
903.127	1662.9606	18869.85	17964.1
903.2687	1664.6984	18699.65	17789.95
903.4105	1666.4354	18354.25	17444.35
903.5522	1668.1717	17870.4	16959.5
903.6939	1669.9072	17378.95	16470.3
903.8356	1671.642	16964.95	16053.7
903.9773	1673.3761	16660.05	15751.95
904.119	1675.1094	16377.6	15472.15
904.2606	1676.8419	16155.85	15248.6
904.4022	1678.5737	15972	15065.45
904.5439	1680.3048	15845.65	14938.4
904.6855	1682.0351	15713	14805.5
904.827	1683.7646	15613.15	14702.6
904.9686	1685.4934	15545.45	14641.05
905.1101	1687.2215	15447.85	14543.7
905.2517	1688.9488	15355.8	14455.05
905.3932	1690.6754	15242.65	14338.25
905.5347	1692.4012	15233.9	14327.85
905.6761	1694.1263	15139.85	14233.2
905.8176	1695.8506	15099.4	14193.65
905.9591	1697.5742	15025.6	14125.65
906.1005	1699.297	14976.25	14075
906.2419	1701.0191	14892.55	13993.9
906.3833	1702.7404	14808	13909
906.5246	1704.461	14748.2	13847
906.666	1706.1808	14688.55	13783.95
906.8073	1707.8999	14644.95	13744
906.9487	1709.6182	14565	13667.2
907.09	1711.3358	14538.6	13641.2
907.2313	1713.0527	14486.6	13590.65
907.3725	1714.7688	14432.85	13531.75
907.5138	1716.4841	14366.35	13466.1
907.655	1718.1987	14356.55	13450.45
907.7962	1719.9126	14276.05	13379.8
907.9374	1721.6257	14221.95	13325.2
908.0786	1723.338	14192.3	13294.65
908.2198	1725.0496	14096.85	13199.55
908.3609	1726.7605	14049.25	13146.3
908.502	1728.4706	13994.15	13093.5
908.6431	1730.18	13939.05	13039.7
908.7842	1731.8886	13884	12987.9
908.9253	1733.5964	13911.3	12993.05
909.0664	1735.3036	13841.65	12939.65
909.2074	1737.0099	13792.6	12895.9
909.3484	1738.7156	13755.3	12860.7
909.4894	1740.4204	13698.85	12798.75
909.6304	1742.1246	13677.65	12776.65
909.7714	1743.8279	13676.8	12780
909.9123	1745.5306	13620.25	12723.7
910.0532	1747.2325	13540.45	12645.6
910.1941	1748.9336	13493	12595.55
910.335	1750.634	13459.2	12557.85
910.4759	1752.3336	13436.25	12539.5
910.6168	1754.0325	13407.7	12515.7
910.7576	1755.7307	13382.9	12487.8
910.8984	1757.4281	13366.9	12469.5
911.0392	1759.1247	13344.25	12438
911.18	1760.8206	13275.55	12373.75
911.3208	1762.5158	13293.1	12391.15
911.4615	1764.2102	13247.1	12350.15
911.6022	1765.9039	13172.2	12276.4
911.7429	1767.5968	13169.1	12274.75
911.8836	1769.289	13072.6	12180
912.0243	1770.9804	13096.4	12198.8
912.1649	1772.6711	13068.75	12169.4
912.3056	1774.361	13011.65	12114.5
912.4462	1776.0502	12975	12075.4
912.5868	1777.7386	12966.95	12065.9
912.7274	1779.4263	12914.15	12017.3
912.8679	1781.1132	12897.5	12003.8
913.0084	1782.7994	12860.4	11967.2
913.149	1784.4849	12824.95	11935.3
913.2895	1786.1696	12790.4	11878.9
913.4299	1787.8535	12733.15	11844.1
913.5704	1789.5367	12708.35	11818.05
913.7108	1791.2192	12695.7	11805.1
913.8513	1792.9009	12650.7	11732.55
913.9917	1794.5818	12623.95	11724.8
914.132	1796.2621	12579.4	11682.35
914.2724	1797.9415	12532.35	11635.8
914.4128	1799.6202	12522.7	11625.2
914.5531	1801.2982	12474.05	11576.65
914.6934	1802.9755	12436.25	11539.5
914.8337	1804.6519	12440.25	11543.9
914.9739	1806.3277	12351.3	11459.05
915.1142	1808.0027	12333.35	11442.2
915.2544	1809.6769	12292.75	11402.85
915.3946	1811.3504	12269.1	11377.2
915.5348	1813.0231	12246.6	11353.75
915.675	1814.6951	12210.9	11317.7
915.8151	1816.3664	12224.25	11326.55
915.9553	1818.0369	12182.75	11288.45
916.0954	1819.7067	12140.6	11247.15
916.2355	1821.3757	12093.45	11198.35
916.3755	1823.044	12090.35	11195.8
916.5156	1824.7115	12021.3	11124.65
916.6556	1826.3783	12002.05	11109.6
916.7956	1828.0443	11959.05	11065.35
916.9356	1829.7096	11947.65	11050.1
917.0756	1831.3741	11926.9	11030.1
917.2155	1833.0379	11916.5	11024.4
917.3555	1834.701	11878.35	10984.75
917.4954	1836.3633	11846.1	10955.8
917.6353	1838.0248	11833.05	10940.15
917.7751	1839.6856	11768.5	10875.15
917.915	1841.3457	11755.25	10862.1
918.0548	1843.005	11725.3	10831.95
918.1946	1844.6636	11706.7	10815.35
918.3344	1846.3214	11708	10814.3
918.4742	1847.9785	11704.2	10810.3
918.6139	1849.6349	11668.55	10770.9
918.7537	1851.2904	11614.55	10710.1
918.8934	1852.9453	11584.05	10688.4
919.0331	1854.5994	11534.15	10636.7
919.1727	1856.2528	11551.3	10650.25
919.3124	1857.9054	11507.4	10613.1
919.452	1859.5572	11486	10592.9
919.5916	1861.2083	11473.15	10579.7
919.7312	1862.8587	11474.15	10579.25
919.8708	1864.5084	11427.3	10530.45
920.0103	1866.1572	11376.65	10481.4
920.1498	1867.8054	11362.6	10467.25
920.2893	1869.4528	11358.55	10461.45
920.4288	1871.0994	11291.75	10396.05
920.5683	1872.7453	11276.05	10379.95
920.7077	1874.3905	11252.1	10349.55
920.8471	1876.0349	11223.8	10327.45
920.9865	1877.6786	11192.55	10297.45
921.1259	1879.3215	11191.45	10296.8
921.2653	1880.9637	11161.65	10265.35
921.4046	1882.6051	11150.6	10258
921.5439	1884.2458	11086.4	10192.7
921.6832	1885.8858	11051.95	10158.35
921.8225	1887.525	11056.9	10162.55
921.9617	1889.1634	10990.8	10097.3
922.101	1890.8011	10967.8	10070
922.2402	1892.4381	10951.25	10057.05
922.3794	1894.0743	10950.85	10055.45
922.5185	1895.7098	10900.95	10006.1
922.6577	1897.3446	10877.15	9981.4
922.7968	1898.9786	10831.9	9935.95
922.9359	1900.6118	10823.55	9929.3
923.075	1902.2443	10769.15	9872.65
923.214	1903.8761	10752.3	9858.7
923.3531	1905.5071	10681.4	9785.45
923.4921	1907.1374	10665.75	9771.25
923.6311	1908.7669	10650.3	9759.3
923.77	1910.3957	10625.8	9732.5
923.909	1912.0237	10584.05	9691.3
924.0479	1913.651	10557	9661.6
924.1868	1915.2776	10511.05	9619.3
924.3257	1916.9034	10479.4	9589.25
924.4646	1918.5285	10413.95	9522.35
924.6034	1920.1528	10364.1	9469.65
924.7422	1921.7764	10349.8	9455.3
924.881	1923.3992	10321.85	9428.05
925.0198	1925.0213	10266.35	9375.75
925.1586	1926.6427	10242	9350.2
925.2973	1928.2633	10257.7	9295.9
925.436	1929.8832	10208.45	9315
925.5747	1931.5023	10150.3	9257.45
925.7134	1933.1207	10125.05	9233.2
925.852	1934.7383	10099.7	9207.35
925.9906	1936.3552	10060.15	9169.4
926.1292	1937.9714	10047	9154.5
926.2678	1939.5868	9988.65	9093.95
926.4064	1941.2015	9941.4	9048.25
926.5449	1942.8154	9907.35	9013.25
926.6834	1944.4286	9908.55	9014.35
926.8219	1946.041	9876.85	8964.1
926.9604	1947.6528	9802.1	8904.55
927.0988	1949.2637	9767.8	8874.85
927.2372	1950.8739	9733.45	8839.25
927.3756	1952.4834	9737.65	8845.9
927.514	1954.0921	9697.55	8804.3
927.6523	1955.7001	9675.7	8779.8
927.7907	1957.3074	9628.25	8739.05
927.929	1958.9139	9592.1	8703.2
928.0673	1960.5197	9554.2	8663.9
928.2055	1962.1247	9544.25	8654.6
928.3438	1963.729	9477.85	8589.85
928.482	1965.3325	9467.65	8557
928.6202	1966.9353	9434.65	8544.95
928.7584	1968.5374	9396.5	8507.5
928.8965	1970.1387	9352.95	8463
929.0346	1971.7393	9332.9	8443.05
929.1727	1973.3392	9319.35	8432.45
929.3108	1974.9383	9272.35	8386
929.4489	1976.5366	9209.3	8322.3
929.5869	1978.1342	9222.45	8334.5
929.7249	1979.7311	9214.05	8326.85
929.8629	1981.3273	9163.75	8277.05
930.0009	1982.9227	9136.5	8245.65
930.1388	1984.5173	9120.15	8234.85
930.2767	1986.1112	9043.9	8159.8
930.4146	1987.7044	9067.05	8179.25
930.5525	1989.2968	9015.1	8126.25
930.6904	1990.8885	8989.45	8099.55
930.8282	1992.4795	8988.2	8100.3
930.966	1994.0697	8932.6	8048.5
931.1038	1995.6592	8883.4	7999.25
931.2415	1997.2479	8908.8	8023.7
931.3793	1998.8359	8839.15	7952.5
931.517	2000.4232	8812.3	7929.35
931.6547	2002.0097	8795.95	7913.25
931.7923	2003.5955	8762.75	7878.5
931.93	2005.1805	8773.85	7887.3
932.0676	2006.7648	8764.85	7881.35
932.2052	2008.3484	8703.3	7819.5
932.3427	2009.9312	8733.8	7849.4
932.4803	2011.5133	8650.45	7770.8
932.6178	2013.0946	8636.4	7752
932.7553	2014.6752	8609.55	7727.25
932.8928	2016.2551	8588.05	7703.6
933.0302	2017.8342	8575.5	7692.95
933.1676	2019.4126	8561.55	7676.9
933.305	2020.9902	8506.45	7625.1
933.4424	2022.5672	8492.9	7610.1
933.5798	2024.1433	8481.6	7592.15
933.7171	2025.7188	8421.2	7540.2
933.8544	2027.2935	8433.45	7550.95
933.9917	2028.8674	8377.9	7496.9
934.129	2030.4406	8347.35	7465.45
934.2662	2032.0131	8316.8	7436.4
934.4034	2033.5849	8306.25	7416.4
934.5406	2035.1559	8277.2	7397.9
934.6778	2036.7261	8275.55	7392.7
934.8149	2038.2957	8242.85	7356.95
934.952	2039.8645	8233.65	7347.95
935.0891	2041.4325	8252.75	7364.15
935.2262	2042.9998	8202.95	7318.2
935.3632	2044.5664	8182.4	7297.05
935.5002	2046.1323	8155.9	7272.95
935.6372	2047.6974	8117.45	7235.65
935.7742	2049.2617	8110.85	7226.65
935.9111	2050.8254	8113.3	7225.3
936.048	2052.3883	8083.3	7198.55
936.1849	2053.9504	8051.75	7165.9
936.3218	2055.5118	8013.85	7125.9
936.4586	2057.0725	7986.15	7098.15
936.5955	2058.6325	7977.1	7093.3
936.7323	2060.1917	7945.25	7063.5
936.869	2061.7502	7922.45	7036.55
937.0058	2063.3079	7914.4	7033.2
937.1425	2064.8649	7888.65	7002.75
937.2792	2066.4212	7859.7	6975.5
937.4159	2067.9767	7846.45	6963.1
937.5525	2069.5315	7816.95	6931.85
937.6891	2071.0856	7778.9	6894.55
937.8257	2072.6389	7741.85	6857.35
937.9623	2074.1915	7700.4	6820
938.0989	2075.7433	7664.75	6780.6
938.2354	2077.2945	7680.5	6797
938.3719	2078.8448	7652.8	6766.9
938.5084	2080.3945	7627.8	6744.2
938.6448	2081.9434	7616.85	6734.7
938.7812	2083.4916	7593.9	6707.8
938.9176	2085.039	7574.95	6684.95
939.054	2086.5857	7545.75	6653.45
939.1903	2088.1317	7524.9	6633.45
939.3267	2089.677	7520.1	6628.5
939.463	2091.2215	7500.35	6610.9
939.5992	2092.7652	7459.95	6568.25
939.7355	2094.3083	7437.85	6547.2
939.8717	2095.8506	7441.95	6555.5
940.0079	2097.3921	7439.45	6555.7
940.1441	2098.933	7410.75	6522.15
940.2802	2100.4731	7383.3	6497.05
940.4163	2102.0124	7382.1	6487.15
940.5524	2103.5511	7352.45	6465.6
940.6885	2105.089	7338.25	6451.8
940.8245	2106.6261	7329.2	6441
940.9606	2108.1626	7296.5	6410.85
941.0965	2109.6983	7309.6	6394.35
941.2325	2111.2332	7270.5	6384.7
941.3684	2112.7675	7243.8	6352.65
941.5044	2114.301	7204.55	6315.7
941.6403	2115.8337	7218.95	6331.05
941.7761	2117.3657	7208.5	6320.5
941.912	2118.897	7190	6299.35
942.0478	2120.4276	7153.95	6258.1
942.1835	2121.9575	7134.4	6243.95
942.3193	2123.4866	7140.8	6238.9
942.455	2125.0149	7115.15	6224.75
942.5907	2126.5426	7072.6	6189.05
942.7264	2128.0695	7085.05	6198.5
942.8621	2129.5956	7060.7	6179.55
942.9977	2131.1211	7042.7	6155.5
943.1333	2132.6458	7006.35	6120.6
943.2689	2134.1698	6987	6098.55
943.4044	2135.693	6970.85	6078.6
943.54	2137.2155	6971.8	6080.85
943.6755	2138.7373	6946.95	6058.65
943.8109	2140.2584	6934.75	6051.4
943.9464	2141.7787	6898.85	6010.2
944.0818	2143.2983	6882.9	6002.3
944.2172	2144.8171	6865.7	5986
944.3526	2146.3353	6839.1	5952.35
944.4879	2147.8527	6819.45	5934.7
944.6232	2149.3693	6802.25	5913.7
944.7585	2150.8853	6782.7	5894.7
944.8938	2152.4005	6748.3	5859.75
945.029	2153.9149	6738	5848.1
945.1642	2155.4287	6811.3	5815.15
945.2994	2156.9417	6720.7	5831.35
945.4346	2158.454	6719.3	5830.1
945.5697	2159.9655	6663	5776.45
945.7048	2161.4764	6642.3	5756.4
945.8399	2162.9865	6616.85	5732.25
945.9749	2164.4958	6614.85	5728.35
946.1099	2166.0045	6592.7	5705.7
946.2449	2167.5124	6602.5	5714.85
946.3799	2169.0195	6578	5690.45
946.5148	2170.526	6572.4	5685.65
946.6498	2172.0317	6546.75	5658.8
946.7846	2173.5367	6530.2	5642.65
946.9195	2175.0409	6506.9	5621.9
947.0543	2176.5445	6502	5616.55
947.1891	2178.0473	6476	5586.1
947.3239	2179.5494	6475.05	5583.45
947.4587	2181.0507	6434.75	5547.3
947.5934	2182.5513	6411	5524.85
947.7281	2184.0512	6401.3	5513.3
947.8628	2185.5504	6373.7	5486.35
947.9974	2187.0488	6358.75	5473.8
948.132	2188.5465	6327.45	5444.35
948.2666	2190.0435	6308.55	5422.95
948.4012	2191.5397	6292.45	5405.95
948.5357	2193.0353	6302.1	5413.8
948.6702	2194.5301	6264.55	5375.15
948.8047	2196.0241	6245.05	5354.1
948.9392	2197.5175	6234.05	5343.25
949.0736	2199.0101	6205.95	5311.45
949.208	2200.502	6166	5279.25
949.3424	2201.9931	6137.2	5253.05
949.4767	2203.4835	6120.5	5235.3
949.611	2204.9733	6120.4	5230.2
949.7453	2206.4622	6096.75	5210.6
949.8796	2207.9505	6086	5198.15
950.0138	2209.438	6055.95	5174.85
950.148	2210.9248	6043.9	5160.7
950.2822	2212.4109	6020	5134.05
950.4164	2213.8962	6004.95	5113.9
950.5505	2215.3809	5988.85	5097.9
950.6846	2216.8648	5966.35	5074.6
950.8186	2218.3479	5975.4	5078.1
950.9527	2219.8304	5951.9	5059.2
951.0867	2221.3121	5938.95	5044.65
951.2207	2222.7931	5896.95	5006.85
951.3546	2224.2733	5887.65	4999.65
951.4886	2225.7529	5858.75	4971.7
951.6225	2227.2317	5846.05	4956.75
951.7563	2228.7098	5839.5	4953.95
951.8902	2230.1872	5797.55	4913.25
952.024	2231.6638	5807	4922.7
952.1578	2233.1397	5775.9	4887.4
952.2916	2234.6149	5758.55	4874.8
952.4253	2236.0894	5727.3	4842.75
952.559	2237.5632	5745.7	4849.85
952.6927	2239.0362	5724.25	4838.15
952.8263	2240.5085	5698.35	4813.55
952.9599	2241.9801	5671.7	4784.65
953.0935	2243.4509	5653.25	4764.35
953.2271	2244.921	5642.1	4752.7
953.3606	2246.3904	5614.65	4721.9
953.4941	2247.8591	5609.7	4719.2
953.6276	2249.3271	5589.3	4699.2
953.7611	2250.7943	5562.45	4672.65
953.8945	2252.2608	5551.1	4660.45
954.0279	2253.7266	5564.4	4673.7
954.1612	2255.1917	5525.95	4638.35
954.2946	2256.656	5513.6	4625.25
954.4279	2258.1197	5497.3	4613.6
954.5612	2259.5826	5476.35	4587.85
954.6944	2261.0447	5460.7	4573.35
954.8276	2262.5062	5443.75	4552.8
954.9608	2263.9669	5445.8	4558.05
955.094	2265.4269	5434.3	4546.45
955.2271	2266.8862	5429.6	4541.95
955.3602	2268.3448	5409.25	4522.4
955.4933	2269.8026	5382.8	4497.05
955.6264	2271.2598	5366.75	4479.15
955.7594	2272.7162	5361.1	4477.6
955.8924	2274.1719	5349.05	4457.2
956.0253	2275.6268	5335.85	4446.85
956.1583	2277.0811	5320.85	4429.7
956.2912	2278.5346	5311.5	4423.95
956.4241	2279.9874	5311.7	4425.3
956.5569	2281.4395	5296.2	4411
956.6897	2282.8908	5257.65	4365.25
956.8225	2284.3414	5272.95	4384.1
956.9553	2285.7914	5240.45	4353.4
957.088	2287.2406	5211.45	4323
957.2207	2288.689	5225.4	4333.15
957.3534	2290.1368	5201.05	4308.45
957.486	2291.5838	5204.1	4309.85
957.6186	2293.0302	5175.8	4280.55
957.7512	2294.4758	5152.85	4262.4
957.8838	2295.9206	5147	4254.8
958.0163	2297.3648	5121.6	4232.2
958.1488	2298.8082	5116.85	4227.35
958.2813	2300.251	5105.75	4215.9
958.4137	2301.693	5090.25	4196.95
958.5461	2303.1343	5092.95	4200.65
958.6785	2304.5748	5065.3	4178.35
958.8108	2306.0147	5064.05	4177.5
958.9432	2307.4538	5048.2	4158.8
959.0754	2308.8922	5019	4134.2
959.2077	2310.3299	5002.4	4116.55
959.3399	2311.7669	4970.45	4082.35
959.4721	2313.2031	4954.65	4066.95
959.6043	2314.6387	4943.1	4053.15
959.7365	2316.0735	4934.35	4048.2
959.8686	2317.5076	4922.25	4034.7
960.0006	2318.941	4934.2	4046.85
960.1327	2320.3737	4914.1	4022.95
960.2647	2321.8056	4901.7	4008.95
960.3967	2323.2369	4880.65	3990.45
960.5287	2324.6674	4861.95	3972.7
960.6606	2326.0972	4851.05	3962.5
960.7925	2327.5263	4845.8	3959.45
960.9244	2328.9547	4830.15	3940.3
961.0562	2330.3823	4822.05	3928.8
961.1881	2331.8092	4808.75	3914
961.3198	2333.2355	4779.15	3889.35
961.4516	2334.661	4799.05	3906.7
961.5833	2336.0858	4779.3	3887.8
961.715	2337.5098	4767.05	3876.7
961.8467	2338.9332	4769.2	3878.6
961.9783	2340.3558	4743.5	3851.25
962.1099	2341.7778	4718.3	3830.3
962.2415	2343.199	4692.2	3803.95
962.373	2344.6195	4704.25	3818.3
962.5045	2346.0393	4664.8	3776.3
962.636	2347.4583	4676.25	3786.7
962.7675	2348.8767	4658.7	3769
962.8989	2350.2943	4643.3	3751.25
963.0303	2351.7113	4637.8	3745.95
963.1617	2353.1275	4635.9	3745
963.293	2354.543	4639.9	3723.35
963.4243	2355.9578	4603.8	3713.35
963.5556	2357.3718	4597.1	3709.9
963.6868	2358.7852	4561.45	3672.65
963.818	2360.1978	4548.5	3660.5
963.9492	2361.6098	4546.5	3659.1
964.0803	2363.021	4521.75	3630.9
964.2114	2364.4315	4513.95	3624.75
964.3425	2365.8413	4493.95	3600.25
964.4736	2367.2504	4488.95	3600.95
964.6046	2368.6587	4472	3583.3
964.7356	2370.0664	4444.1	3555.15
964.8666	2371.4733	4446	3558.85
964.9975	2372.8795	4427.2	3537.45
965.1284	2374.285	4416.3	3526.6
965.2593	2375.6899	4395.25	3507.85
965.3901	2377.0939	4390.4	3504.2
965.5209	2378.4973	4385	3497.9
965.6517	2379.9	4363.3	3476
965.7825	2381.3019	4337.4	3453.35
965.9132	2382.7032	4323.35	3436.05
966.0439	2384.1037	4325.1	3441.55
966.1745	2385.5035	4301.7	3415.5
966.3051	2386.9027	4292.55	3409.15
966.4357	2388.3011	4291.75	3402.75
966.5663	2389.6987	4259.2	3373
966.6968	2391.0957	4273.85	3386.95
966.8273	2392.492	4238.7	3354
966.9578	2393.8876	4211.9	3326.8
967.0882	2395.2824	4218.2	3331.85
967.2186	2396.6765	4200.25	3312.35
967.349	2398.07	4169.5	3280.6
967.4793	2399.4627	4186.55	3296.9
967.6097	2400.8547	4174.85	3285.55
967.7399	2402.246	4153	3259.85
967.8702	2403.6366	4135.1	3247.85
968.0004	2405.0265	4122.25	3235.15
968.1306	2406.4156	4119.35	3228.05
968.2607	2407.8041	4107.25	3218.55
968.3909	2409.1918	4094	3206.55
968.521	2410.5789	4063.3	3174.9
968.651	2411.9652	4056.5	3165.2
968.781	2413.3508	4048.05	3160.2
968.911	2414.7358	4038.35	3149.75
969.041	2416.12	4013.8	3127.65
969.1709	2417.5035	4020.6	3132.65
969.3008	2418.8863	3998.7	3110.95
969.4307	2420.2684	3989.05	3100
969.5606	2421.6497	3972.95	3083.4
969.6904	2423.0304	3958.85	3071.4
969.8201	2424.4104	3956.6	3068.25
969.9499	2425.7896	3936	3046
970.0796	2427.1682	3926.55	3039.9
970.2093	2428.546	3921.15	3033.7
970.3389	2429.9232	3903.7	3016.5
970.4685	2431.2996	3891.1	3003.25
970.5981	2432.6753	3891.05	3003.2
970.7277	2434.0503	3887	2998.55
970.8572	2435.4246	3866.8	2978.2
970.9867	2436.7982	3855.15	2965.45
971.1161	2438.1711	3850.45	2962.5
971.2456	2439.5433	3843.4	2954.15
971.375	2440.9148	3818.7	2926.2
971.5043	2442.2856	3818.75	2931.55
971.6336	2443.6557	3802.15	2914.8
971.7629	2445.025	3804.7	2917.15
971.8922	2446.3937	3808.2	2916.8
972.0214	2447.7617	3774.65	2886.9
972.1506	2449.1289	3770.05	2881.25
972.2798	2450.4955	3779.75	2888
972.4089	2451.8613	3760.95	2873.7
972.538	2453.2265	3744.2	2856.1
972.6671	2454.5909	3736.25	2848.75
972.7961	2455.9546	3718.25	2829.15
972.9251	2457.3177	3713.75	2827.6
973.0541	2458.68	3712.5	2824.4
973.1831	2460.0416	3705.35	2816.8
973.312	2461.4025	3709.05	2820.1
973.4408	2462.7627	3702.55	2803.7
973.5697	2464.1222	3680.95	2794.95
973.6985	2465.4811	3664.45	2777.2
973.8273	2466.8392	3648.5	2760.45
973.956	2468.1966	3648.45	2759.2
974.0847	2469.5533	3658.75	2769.3
974.2134	2470.9093	3660.3	2771.9
974.3421	2472.2645	3641.3	2752.35
974.4707	2473.6191	3624.45	2736.8
974.5993	2474.973	3625	2736.2
974.7278	2476.3262	3603.35	2713.6
974.8563	2477.6787	3597.95	2710.25
974.9848	2479.0305	3577.85	2691.6
975.1132	2480.3816	3564.75	2675.75
975.2417	2481.7319	3540.5	2653.6
975.37	2483.0816	3545.75	2654.55
975.4984	2484.4306	3533.3	2645.35
975.6267	2485.7789	3531.65	2645.25
975.755	2487.1264	3509.95	2621.15
975.8833	2488.4733	3486.15	2598.6
976.0115	2489.8195	3497.95	2602.65
976.1397	2491.165	3492.15	2602.2
976.2678	2492.5097	3482.25	2594
976.3959	2493.8538	3471.9	2585.85
976.524	2495.1972	3435.4	2547.25
976.6521	2496.5398	3438.9	2550.65
976.7801	2497.8818	3428.75	2538.55
976.9081	2499.2231	3410.8	2522.5
977.036	2500.5637	3403.8	2514
977.164	2501.9035	3391.2	2501.2
977.2918	2503.2427	3382.45	2487.85
977.4197	2504.5812	3373.25	2487.55
977.5475	2505.919	3385.35	2492.1
977.6753	2507.256	3381.2	2493.3
977.8031	2508.5924	3353.15	2465.4
977.9308	2509.9281	3344.05	2450
978.0585	2511.2631	3339.5	2451.9
978.1861	2512.5974	3341.6	2455.45
978.3137	2513.9309	3321.8	2434.35
978.4413	2515.2638	3340.85	2429.7
978.5689	2516.596	3321.1	2435.15
978.6964	2517.9275	3295.1	2407.2
978.8239	2519.2583	3303.65	2414.25
978.9513	2520.5884	3266.9	2377.65
979.0788	2521.9178	3284.85	2396.9
979.2062	2523.2465	3261.85	2373.65
979.3335	2524.5745	3252.45	2364.85
979.4608	2525.9018	3242.1	2356.15
979.5881	2527.2284	3247.85	2361.9
979.7154	2528.5543	3241.95	2353.6
979.8426	2529.8796	3220.5	2334.9
979.9698	2531.2041	3226.35	2336.45
980.0969	2532.5279	3214.25	2326.5
980.224	2533.851	3203.3	2317.3
980.3511	2535.1735	3192.4	2305.2
980.4781	2536.4952	3185.7	2296.5
980.6052	2537.8163	3173.7	2284.15
980.7321	2539.1366	3171.25	2283.3
980.8591	2540.4562	3174.7	2284.95
980.986	2541.7752	3167.75	2280.6
981.1129	2543.0935	3166.15	2276.45
981.2397	2544.411	3147.8	2257
981.3665	2545.7279	3143.75	2253.1
981.4933	2547.0441	3147.2	2257.5
981.62	2548.3596	3147.6	2256.95
981.7467	2549.6744	3144.5	2254.6
981.8734	2550.9885	3121.55	2231.55
982.0001	2552.3019	3105.95	2216.95
982.1267	2553.6146	3102.1	2214.4
982.2532	2554.9266	3098.5	2210.25
982.3798	2556.2379	3085.95	2196.85
982.5063	2557.5485	3088.75	2200.4
982.6327	2558.8585	3086.5	2190.9
982.7592	2560.1677	3093	2199.2
982.8856	2561.4762	3076.8	2188.9
983.0119	2562.7841	3067.45	2176.1
983.1383	2564.0913	3056.2	2168.5
983.2646	2565.3977	3059.5	2174.7
983.3908	2566.7035	3055.8	2167.15
983.517	2568.0086	3041.1	2150.25
983.6432	2569.313	3044.35	2156
983.7694	2570.6167	3032.8	2138.4
983.8955	2571.9197	3020.6	2131.2
984.0216	2573.222	3022.85	2131.35
984.1476	2574.5236	3014.1	2124.3
984.2737	2575.8246	3007.6	2116.95
984.3996	2577.1248	3012.4	2121.4
984.5256	2578.4244	3008	2119.35
984.6515	2579.7232	2998.3	2109.75
984.7774	2581.0214	3041.2	2120.95
984.9032	2582.3189	2997.3	2108.85
985.029	2583.6157	2998.05	2103.5
985.1548	2584.9118	2999.85	2112
985.2806	2586.2072	2972.75	2082.35
985.4063	2587.5019	2976.65	2085
985.5319	2588.7959	2972.55	2083.8
985.6576	2590.0893	2969.3	2077.55
985.7832	2591.3819	2969.05	2082.7
985.9087	2592.6739	2958.25	2070.95
986.0343	2593.9652	2956.75	2066.35
986.1597	2595.2557	2953.8	2065.95
986.2852	2596.5456	2943.95	2054.25
986.4106	2597.8348	2949.1	2060.6
986.536	2599.1234	2924.25	2036.4
986.6614	2600.4112	2919.3	2028.9
986.7867	2601.6983	2921.7	2028.9
986.912	2602.9848	2910.5	2022.7
987.0372	2604.2705	2905.9	2011.3
987.1624	2605.5556	2891.75	2001.8
987.2876	2606.84	2903.55	2016.85
987.4128	2608.1237	2882.75	1994.5
987.5379	2609.4067	2879.3	1989.35
987.6629	2610.689	2872.45	1974.65
987.788	2611.9707	2867.25	1974.05
987.913	2613.2516	2870	1975
988.0379	2614.5319	2841.05	1954.3
988.1629	2615.8115	2839.3	1950.05
988.2878	2617.0903	2822	1931.7
988.4126	2618.3685	2823.3	1933
988.5375	2619.6461	2814.9	1925.8
988.6622	2620.9229	2810.05	1919.7
988.787	2622.199	2801.85	1913.35
988.9117	2623.4745	2801.6	1911.35
989.0364	2624.7493	2800.25	1909.3
989.161	2626.0234	2789.8	1902.1
989.2857	2627.2968	2770.7	1882.2
989.4102	2628.5695	2776.8	1886.55
989.5348	2629.8415	2767.95	1877.9
989.6593	2631.1128	2754.3	1863.9
989.7837	2632.3835	2755.75	1867.4
989.9082	2633.6535	2748.85	1862.6
990.0326	2634.9228	2747.8	1860.55
990.1569	2636.1914	2734.35	1847.65
990.2812	2637.4593	2742.55	1852.1
990.4055	2638.7265	2718.75	1829.2
990.5298	2639.9931	2712.05	1823.3
990.654	2641.259	2721.8	1832.1
990.7782	2642.5242	2699.45	1807.9
990.9023	2643.7887	2694.2	1804.45
991.0264	2645.0525	2690.5	1802.15
991.1505	2646.3156	2690.45	1784.6
991.2745	2647.5781	2686.05	1797.9
991.3985	2648.8398	2677.9	1789.4
991.5225	2650.1009	2687.85	1776.35
991.6464	2651.3613	2667.35	1778.5
991.7703	2652.6211	2659.4	1771.05
991.8942	2653.8801	2650.55	1764.3
992.018	2655.1385	2635.65	1745.6
992.1418	2656.3961	2643.05	1755.15
992.2655	2657.6531	2638.1	1749.9
992.3892	2658.9094	2622.1	1731.8
992.5129	2660.1651	2626.8	1739.9
992.6366	2661.42	2617.15	1729.3
992.7602	2662.6743	2633.15	1744.1
992.8837	2663.9279	2627	1741.35
993.0073	2665.1808	2618.15	1728.3
993.1307	2666.433	2607.45	1718.85
993.2542	2667.6846	2612.45	1725.4
993.3776	2668.9354	2613.7	1723.25
993.501	2670.1856	2615.1	1728
993.6244	2671.4351	2612.8	1725.85
993.7477	2672.6839	2608.2	1719.35
993.8709	2673.9321	2601	1711.15
993.9942	2675.1795	2600.9	1715.1
994.1174	2676.4263	2589.4	1701.7
994.2405	2677.6724	2587.5	1699.1
994.3637	2678.9179	2592.05	1704.1
994.4868	2680.1626	2591.4	1705.45
994.6098	2681.4067	2587.1	1699.2
994.7328	2682.6501	2577.65	1688.45
994.8558	2683.8928	2579.15	1689.65
994.9788	2685.1348	2564.8	1679.2
995.1017	2686.3761	2546	1659.4
995.2245	2687.6168	2552.75	1665.85
995.3474	2688.8568	2548	1659.55
995.4702	2690.0961	2528.5	1641.25
995.5929	2691.3348	2533.7	1645.8
995.7156	2692.5727	2538.7	1651.05
995.8383	2693.81	2505.2	1616.05
995.961	2695.0466	2509	1625.5
996.0836	2696.2826	2503.45	1615.25
996.2062	2697.5178	2509.65	1618.65
996.3287	2698.7524	2490	1601.15
996.4512	2699.9863	2490.35	1600.1
996.5737	2701.2195	2484.6	1598.85
996.6961	2702.452	2494.3	1605.95
996.8185	2703.6839	2481.45	1591.85
996.9408	2704.9151	2482.9	1596.25
997.0631	2706.1456	2482.1	1594.8
997.1854	2707.3755	2488.9	1600.9
997.3077	2708.6046	2501.65	1613
997.4299	2709.8331	2490.05	1601.6
997.552	2711.0609	2494.85	1610.45
997.6742	2712.2881	2487.7	1600.2
997.7963	2713.5145	2502.5	1612.6
997.9183	2714.7403	2499.85	1613.35
998.0403	2715.9654	2503.6	1613.7
998.1623	2717.1899	2528.65	1628.15
998.2842	2718.4136	2530.85	1643.1
998.4062	2719.6367	2542.8	1655.4
998.528	2720.8591	2551.55	1658.1
998.6498	2722.0809	2555.2	1668.3
998.7716	2723.3019	2548.35	1659.8
998.8934	2724.5223	2556.55	1667.75
999.0151	2725.7421	2554.45	1665.1
999.1368	2726.9611	2555.1	1664.85
999.2584	2728.1795	2548	1657
999.38	2729.3972	2529.5	1643.35
999.5016	2730.6142	2538.7	1637.1
999.6231	2731.8306	2501.1	1613.9
999.7446	2733.0462	2480.1	1589.7
999.8661	2734.2612	2470.65	1578.65
999.9875	2735.4756	2440.9	1551.3
1000.1089	2736.6892	2425	1537.85
1000.2302	2737.9022	2403.45	1519.5
1000.3515	2739.1145	2374.15	1486.3
1000.4728	2740.3262	2373.15	1479.8
1000.594	2741.5372	2353.9	1465.55
1000.7152	2742.7475	2344.4	1457.05
1000.8363	2743.9571	2333.65	1443.65
1000.9575	2745.1661	2323.05	1432.95
1001.0785	2746.3744	2298.5	1409.75
1001.1996	2747.582	2285.8	1399.65
1001.3206	2748.7889	2277.1	1388.95
1001.4415	2749.9952	2260.6	1374
1001.5625	2751.2008	2255.3	1365.75
1001.6833	2752.4057	2250.65	1360.45
1001.8042	2753.61	2242.25	1355.35
1001.925	2754.8136	2237.7	1348.35
1002.0458	2756.0165	2230.95	1346.25
1002.1665	2757.2188	2233.2	1348.5
1002.2872	2758.4204	2234.05	1348.8
1002.4078	2759.6213	2215.95	1328.6
1002.5285	2760.8215	2228.5	1338
1002.649	2762.0211	2223.05	1333.5
1002.7696	2763.22	2206	1314.9
1002.8901	2764.4182	2201	1313.65
1003.0106	2765.6158	2186.8	1300.15
1003.131	2766.8127	2191.65	1308.7
1003.2514	2768.009	2177.9	1289.95
1003.3717	2769.2045	2180.55	1294.2
1003.492	2770.3994	2178.2	1289.25
1003.6123	2771.5936	2169.3	1281.65
1003.7325	2772.7872	2170.35	1287.7
1003.8527	2773.9801	2150.55	1264.05
1003.9729	2775.1723	2173.45	1269.3
1004.093	2776.3639	2158.4	1273.8
1004.2131	2777.5548	2153.2	1265.85
1004.3331	2778.745	2143.6	1255.45
1004.4531	2779.9346	2145.6	1261.95
1004.5731	2781.1235	2144.6	1257.6
1004.693	2782.3117	2150.8	1265.5
1004.8129	2783.4992	2149.25	1263.25
1004.9328	2784.6861	2150.6	1266.15
1005.0526	2785.8723	2156.3	1270.9
1005.1723	2787.0579	2163.9	1280.3
1005.2921	2788.2428	2163.95	1279.7
1005.4118	2789.427	2157.75	1271.95
1005.5314	2790.6106	2166.9	1283.3
1005.651	2791.7935	2175.55	1289.55
1005.7706	2792.9757	2179.85	1296.35
1005.8902	2794.1573	2198.25	1311.15
1006.0097	2795.3382	2203.8	1317.3
1006.1291	2796.5184	2212.15	1329.45
1006.2485	2797.698	2227.6	1339.45
1006.3679	2798.8769	2229.3	1343.3
1006.4873	2800.0551	2254.6	1367.85
1006.6066	2801.2327	2275.6	1388.85
1006.7258	2802.4096	2292.8	1407.05
1006.8451	2803.5859	2304.3	1418.35
1006.9642	2804.7615	2319.2	1433
1007.0834	2805.9364	2346.9	1465
1007.2025	2807.1106	2357.6	1470
1007.3216	2808.2842	2399.9	1513.85
1007.4406	2809.4572	2427.15	1541.6
1007.5596	2810.6294	2470.3	1583.9
1007.6785	2811.801	2512.35	1630.5
1007.7975	2812.972	2550.5	1666.4
1007.9163	2814.1423	2593.55	1709.5
1008.0352	2815.3119	2648.8	1764.9
1008.154	2816.4808	2673.9	1789.9
1008.2727	2817.6491	2722.45	1836.35
1008.3914	2818.8167	2779.9	1897.6
1008.5101	2819.9837	2819.6	1933.05
1008.6288	2821.15	2864.2	1979.35
1008.7474	2822.3157	2900.55	2015.65
1008.8659	2823.4807	2958.4	2075.05
1008.9844	2824.645	2984.05	2099.9
1009.1029	2825.8086	3021.25	2136.05
1009.2214	2826.9716	3051.15	2165.95
1009.3398	2828.134	3108.6	2228.15
1009.4581	2829.2957	3132.4	2248.8
1009.5764	2830.4567	3167.2	2283.95
1009.6947	2831.617	3168.35	2284.3
1009.813	2832.7767	3178.1	2295.05
1009.9312	2833.9358	3175.25	2292.3
1010.0493	2835.0941	3169.8	2281.7
1010.1675	2836.2519	3161.25	2275.15
1010.2855	2837.4089	3140.95	2256.9
1010.4036	2838.5653	3129.3	2245.7
1010.5216	2839.7211	3132.1	2249.6
1010.6396	2840.8761	3149.05	2264.65
1010.7575	2842.0306	3162.8	2280.05
1010.8754	2843.1843	3203	2318.6
1010.9932	2844.3374	3257.75	2374.4
1011.111	2845.4899	3321.6	2437.1
1011.2288	2846.6417	3396.85	2515.1
1011.3465	2847.7928	3474	2590.05
1011.4642	2848.9433	3558.25	2674.9
1011.5818	2850.0931	3614.95	2731.4
1011.6995	2851.2422	3696.65	2812.05
1011.817	2852.3907	3768	2884.3
1011.9345	2853.5385	3840.5	2954.75
1012.052	2854.6857	3892.85	3000
1012.1695	2855.8323	3930.6	3046.15
1012.2869	2856.9781	3991.3	3108.3
1012.4042	2858.1233	4026.15	3142.6
1012.5216	2859.2679	4077.1	3192.35
1012.6389	2860.4118	4112.95	3228.4
1012.7561	2861.555	4142.05	3252.45
1012.8733	2862.6976	4200.2	3312.7
1012.9905	2863.8395	4216.95	3331.35
1013.1076	2864.9808	4239.8	3355.45
1013.2247	2866.1214	4261.9	3378.75
1013.3417	2867.2614	4258.3	3374.2
1013.4587	2868.4007	4263.45	3377.55
1013.5757	2869.5393	4282.1	3396.35
1013.6926	2870.6773	4297.55	3410.75
1013.8095	2871.8146	4299.9	3411.75
1013.9263	2872.9513	4302.8	3417.2
1014.0431	2874.0874	4299.65	3416
1014.1599	2875.2227	4270.8	3386.45
1014.2766	2876.3574	4257.05	3373.65
1014.3933	2877.4915	4230.9	3347.75
1014.51	2878.6249	4216.55	3334.75
1014.6266	2879.7577	4172.8	3287.55
1014.7431	2880.8898	4169.25	3274.7
1014.8596	2882.0212	4141.7	3258.7
1014.9761	2883.152	4130.85	3246.25
1015.0925	2884.2821	4095.2	3213.5
1015.2089	2885.4116	4102.95	3218.1
1015.3253	2886.5405	4091.55	3208
1015.4416	2887.6686	4108.25	3222.85
1015.5579	2888.7962	4101.4	3218.6
1015.6741	2889.923	4105.1	3222.4
1015.7903	2891.0493	4123.55	3240.85
1015.9065	2892.1748	4137.6	3255.3
1016.0226	2893.2997	4134.65	3252.1
1016.1387	2894.424	4150.3	3266.8
1016.2547	2895.5476	4178.15	3295.25
1016.3707	2896.6706	4183.4	3300.3
1016.4866	2897.7929	4218.55	3335.4
1016.6025	2898.9145	4259.1	3373.7
1016.7184	2900.0355	4268.1	3383.45
1016.8342	2901.1559	4310.8	3427.5
1016.95	2902.2756	4338.6	3453.4
1017.0658	2903.3946	4362.25	3479.2
1017.1815	2904.513	4379.5	3494.5
1017.2971	2905.6308	4399.65	3515.95
1017.4127	2906.7479	4426.65	3544.75
1017.5283	2907.8643	4447.6	3563.5
1017.6439	2908.9801	4471.4	3587.15
1017.7594	2910.0953	4453.75	3571.3
1017.8748	2911.2098	4459.1	3572
1017.9902	2912.3236	4451.85	3560.6
1018.1056	2913.4368	4430.2	3545.45
1018.2209	2914.5494	4408.75	3525.2
1018.3362	2915.6613	4390.95	3503.55
1018.4515	2916.7725	4367.4	3483.8
1018.5667	2917.8831	4335.15	3451.8
1018.6819	2918.9931	4301.05	3415.95
1018.797	2920.1024	4246.65	3362.35
1018.9121	2921.211	4238.35	3355.65
1019.0271	2922.319	4220.8	3336.9
1019.1421	2923.4264	4218	3335
1019.2571	2924.5331	4195.45	3314.55
1019.372	2925.6391	4166.2	3283.9
1019.4869	2926.7445	4169.25	3286.7
1019.6017	2927.8493	4168.35	3286.55
1019.7165	2928.9534	4148.45	3264.8
1019.8313	2930.0569	4139.25	3254.95
1019.946	2931.1597	4124.4	3238.85
1020.0606	2932.2619	4112.45	3229.5
1020.1753	2933.3634	4110.5	3227.3
1020.2899	2934.4643	4096.45	3208.05
1020.4044	2935.5645	4063.5	3174.55
1020.5189	2936.6641	4016.75	3128.75
1020.6334	2937.763	3969.7	3088.95
1020.7478	2938.8613	3927.45	3042.85
1020.8622	2939.959	3857.55	2971.45
1020.9765	2941.056	3787.55	2906.45
1021.0908	2942.1523	3704.9	2820.65
1021.2051	2943.248	3616	2734.25
1021.3193	2944.3431	3517.7	2635.8
1021.4334	2945.4375	3408.75	2527
1021.5476	2946.5313	3287	2406
1021.6617	2947.6244	3185.35	2301.25
1021.7757	2948.7169	3088.7	2207.2
1021.8897	2949.8087	2998.8	2117.4
1022.0037	2950.8999	2909.1	2023.7
1022.1176	2951.9904	2822.75	1942.75
1022.2315	2953.0803	2750.1	1867.3
1022.3453	2954.1696	2683.1	1800.45
1022.4591	2955.2582	2626.35	1745.8
1022.5728	2956.3462	2581.65	1696.8
1022.6865	2957.4335	2540.55	1656.5
1022.8002	2958.5202	2503.9	1619.7
1022.9138	2959.6062	2482.3	1598.4
1023.0274	2960.6916	2453.15	1570.95
1023.141	2961.7764	2425.95	1545.45
1023.2545	2962.8605	2412.9	1531.85
1023.3679	2963.9439	2412.35	1527
1023.4813	2965.0267	2385.35	1500.85
1023.5947	2966.1089	2398.35	1492.6
1023.708	2967.1905	2377.6	1494
1023.8213	2968.2714	2374.7	1494.6
1023.9346	2969.3516	2365.25	1483.3
1024.0478	2970.4312	2375.85	1487.4
1024.1609	2971.5102	2367.25	1485.25
1024.274	2972.5885	2356.35	1474.1
1024.3871	2973.6662	2368.95	1482
1024.5002	2974.7432	2356.5	1474.25
1024.6132	2975.8196	2361.25	1479.35
1024.7261	2976.8954	2331.7	1451.7
1024.839	2977.9705	2323.85	1440.95
1024.9519	2979.045	2305.4	1426.55
1025.0647	2980.1188	2282.95	1400.5
1025.1775	2981.192	2271.85	1391.95
1025.2902	2982.2645	2247.15	1363.3
1025.4029	2983.3364	2224.1	1341.95
1025.5156	2984.4077	2189.6	1309.35
1025.6282	2985.4783	2154.15	1266.85
1025.7407	2986.5483	2131.9	1251.45
1025.8532	2987.6177	2089.9	1207.95
1025.9657	2988.6864	2045	1161.3
1026.0782	2989.7545	2017.6	1134.15
1026.1906	2990.8219	1975.25	1094.4
1026.3029	2991.8887	1960.55	1076.75
1026.4152	2992.9548	1916.6	1034.95
1026.5275	2994.0204	1887.65	1006.3
1026.6397	2995.0852	1846.6	966.5
1026.7519	2996.1495	1834.2	951.45
1026.864	2997.2131	1806.3	925.25
1026.9761	2998.276	1782.7	902.15
1027.0882	2999.3383	1761.65	878.15
1027.2002	3000.4	1738.4	857.3
1027.3122	3001.4611	1724.85	843.9
1027.4241	3002.5215	1717.2	836.35
1027.536	3003.5812	1685.7	805.1
1027.6478	3004.6404	1680.15	798.8
1027.7596	3005.6989	1682.75	797.55
1027.8714	3006.7567	1672.7	792.25
1027.9831	3007.8139	1676	776.1
1028.0947	3008.8705	1648.75	769.5
1028.2064	3009.9264	1658.55	761.05
1028.3179	3010.9818	1635.5	754.45
1028.4295	3012.0364	1641.15	758.4
1028.541	3013.0905	1629.3	747
1028.6524	3014.1439	1625.8	746
1028.7638	3015.1966	1610.55	730.35
1028.8752	3016.2487	1625.25	742.1
1028.9865	3017.3002	1623.35	734.35
1029.0978	3018.3511	1620.6	740.6
1029.209	3019.4013	1612.05	731.6
1029.3202	3020.4509	1616.95	734.7
1029.4314	3021.4998	1619	735.3
1029.5425	3022.5481	1622.9	742.55
1029.6535	3023.5958	1622.85	741.85
1029.7645	3024.6428	1617.3	734.5
1029.8755	3025.6892	1616.55	735.7
1029.9864	3026.735	1619.3	737.35
1030.0973	3027.7802	1622.8	740
1030.2082	3028.8247	1614.45	733.65
1030.319	3029.8685	1617.9	737.8
1030.4297	3030.9118	1628	746.4
1030.5404	3031.9544	1629	746.7
1030.6511	3032.9963	1641.4	759.55
1030.7617	3034.0376	1638.4	757.35
1030.8723	3035.0783	1653.4	770.9
1030.9829	3036.1184	1637.5	756.4
1031.0934	3037.1578	1646.45	765.8
1031.2038	3038.1966	1646.15	765.65
1031.3142	3039.2348	1647.8	768
1031.4246	3040.2723	1654.7	765.9
1031.5349	3041.3092	1642.1	762.2
1031.6452	3042.3455	1629.1	745.05
1031.7554	3043.3811	1631.05	748.9
1031.8656	3044.4161	1625.65	741.95
1031.9758	3045.4505	1625.5	746.85
1032.0859	3046.4842	1615.95	735.85
1032.1959	3047.5173	1604	724.8
1032.3059	3048.5498	1593.7	713.35
1032.4159	3049.5816	1585.35	704.4
1032.5258	3050.6128	1585	701.75
1032.6357	3051.6434	1581.35	699.95
1032.7455	3052.6734	1561.4	678.2
1032.8553	3053.7027	1554.1	670.65
1032.9651	3054.7314	1547.2	667.35
1033.0748	3055.7594	1547.4	669.2
1033.1845	3056.7868	1542.55	661.5
1033.2941	3057.8136	1529.8	649.55
1033.4037	3058.8398	1526.15	647.15
1033.5132	3059.8653	1522.95	642.3
1033.6227	3060.8902	1508.35	626.75
1033.7321	3061.9145	1512.7	631.6
1033.8415	3062.9381	1499.1	616.85
1033.9509	3063.9612	1519.7	624.8
1034.0602	3064.9835	1489.45	610.05
1034.1694	3066.0053	1479	595.8
1034.2787	3067.0264	1471.3	593.2
1034.3878	3068.0469	1468.25	585.35
1034.497	3069.0668	1460.4	574.95
1034.6061	3070.086	1448.1	569.65
1034.7151	3071.1046	1442.05	559.4
1034.8241	3072.1226	1426.25	544.75
1034.9331	3073.1399	1416.55	534.8
1035.042	3074.1567	1409.15	528.45
1035.1508	3075.1727	1400.4	519.7
1035.2597	3076.1882	1384.25	503.9
1035.3684	3077.203	1376.65	495.85
1035.4772	3078.2173	1368.6	487.9
1035.5859	3079.2308	1361.45	477.05
1035.6945	3080.2438	1355.15	471.75
1035.8031	3081.2561	1338.65	456.8
1035.9117	3082.2678	1337.7	455.7
1036.0202	3083.2789	1333.25	451.3
1036.1286	3084.2893	1317.65	437.9
1036.2371	3085.2991	1310.3	429.45
1036.3454	3086.3083	1313.3	429.65
1036.4538	3087.3169	1298.85	415.8
1036.562	3088.3248	1293	411.5
1036.6703	3089.3321	1289.4	408.45
1036.7785	3090.3388	1282.55	403.6
1036.8866	3091.3449	1277.45	396.55
1036.9948	3092.3503	1277.35	395.4
1037.1028	3093.3551	1268.85	390.7
1037.2108	3094.3593	1264.1	384.65
1037.3188	3095.3629	1262.95	382.75
1037.4267	3096.3658	1261	378.85
1037.5346	3097.3681	1256.35	375.85
1037.6425	3098.3698	1254.1	372.1
1037.7503	3099.3708	1257.4	367.4
1037.858	3100.3713	1237.75	357.4
1037.9657	3101.3711	1244.2	360.8
1038.0734	3102.3702	1369.4	355.45
1038.181	3103.3688	1243.6	361.8
1038.2886	3104.3667	1229.5	350.85
1038.3961	3105.364	1230.65	351.1
1038.5036	3106.3607	1233.2	351.8
1038.611	3107.3568	1225.3	342.1
1038.7184	3108.3522	1218.5	341.15
1038.8257	3109.347	1215.7	332.85
1038.933	3110.3412	1222.5	338.35
1039.0403	3111.3348	1207.5	326.1
1039.1475	3112.3277	1206.3	327.05
1039.2547	3113.32	1210.5	331.6
1039.3618	3114.3117	1207.25	325.55
1039.4689	3115.3028	1199.65	319.55
1039.5759	3116.2932	1204.2	322.05
1039.6829	3117.2831	1205.15	318.6
1039.7898	3118.2723	1201.7	322.9
1039.8967	3119.2608	1193.5	313.2
1040.0035	3120.2488	1199.25	320.2
1040.1103	3121.2361	1192.4	310.1
1040.2171	3122.2229	1190.65	309.75
1040.3238	3123.209	1189.35	309.45
1040.4305	3124.1944	1187.95	308.4
1040.5371	3125.1793	1184.75	302.8
1040.6437	3126.1635	1181.2	301.75
1040.7502	3127.1471	1177.25	295.75
1040.8567	3128.1301	1180.55	300.7
1040.9631	3129.1125	1176.2	297
1041.0695	3130.0942	1175	295.15
1041.1759	3131.0753	1178.9	287.85
1041.2822	3132.0558	1174.4	291.3
1041.3884	3133.0357	1167.85	288.85
1041.4946	3134.015	1170.5	287.95
1041.6008	3134.9936	1165.35	285.75
1041.7069	3135.9716	1188.4	287.15
1041.813	3136.949	1158.95	279.3
1041.919	3137.9258	1176.8	277.9
1042.025	3138.902	1165.3	280.3
1042.1309	3139.8775	1157.25	276.7
1042.2368	3140.8524	1149.85	269.55
1042.3427	3141.8267	1157	273.45
1042.4485	3142.8004	1151.7	272.4
1042.5542	3143.7735	1153.45	264.75
1042.6599	3144.7459	1153.1	269.85
1042.7656	3145.7178	1145.65	266.1
1042.8712	3146.689	1145.85	268.05
1042.9768	3147.6596	1144.55	263.45
1043.0823	3148.6295	1141.1	260.1
1043.1878	3149.5989	1138.3	257.25
1043.2932	3150.5676	1136.8	259.4
1043.3986	3151.5357	1133.75	255.6
1043.5039	3152.5032	1135.85	257.15
1043.6092	3153.4701	1131.3	252.1
1043.7145	3154.4364	1131.95	247.6
1043.8197	3155.402	1125.2	247.05
1043.9248	3156.367	1131	249.5
1044.03	3157.3315	1155.65	247.4
1044.135	3158.2952	1122.35	241.85
1044.24	3159.2584	1119.75	239.7
1044.345	3160.221	1118.55	238.15
1044.4499	3161.1829	1120.45	240.35
1044.5548	3162.1442	1116.7	237.4
1044.6596	3163.105	1113.3	233.2
1044.7644	3164.065	1110.4	230.7
1044.8692	3165.0245	1119.2	237.15
1044.9739	3165.9834	1112.05	233
1045.0785	3166.9416	1118.95	238.8
1045.1831	3167.8993	1109.2	229
1045.2877	3168.8563	1112.7	232.4
1045.3922	3169.8127	1107	225.25
1045.4966	3170.7684	1109.05	230.35
1045.6011	3171.7236	1104.05	223.75
1045.7054	3172.6782	1106.45	226.5
1045.8098	3173.6321	1107.7	227.4
1045.914	3174.5854	1106.5	223.35
1046.0183	3175.5381	1098.65	220.3
1046.1224	3176.4902	1097	215.85
1046.2266	3177.4417	1095.5	214.95
1046.3307	3178.3926	1097	218.15
1046.4347	3179.3428	1093.2	214.65
1046.5387	3180.2924	1089.6	211.35
1046.6427	3181.2415	1089.5	210.45
1046.7466	3182.1899	1090.15	209.45
1046.8504	3183.1377	1087.75	208.45
1046.9542	3184.0848	1087.55	206.4
1047.058	3185.0314	1086.25	207.6
1047.1617	3185.9773	1086.9	207.05
1047.2654	3186.9227	1084.15	204.35
1047.369	3187.8674	1082.75	202.35
1047.4726	3188.8115	1084.75	203.9
1047.5761	3189.755	1084.45	204.5
1047.6796	3190.6979	1078.9	199.55
1047.783	3191.6402	1075.2	196
1047.8864	3192.5818	1076.5	195.55
1047.9898	3193.5229	1092.3	202
1048.0931	3194.4633	1079.4	200.1
1048.1963	3195.4031	1074.25	193.75
1048.2995	3196.3423	1071.25	192.95
1048.4027	3197.2809	1073.15	192.3
1048.5058	3198.2189	1073.75	193.65
1048.6089	3199.1563	1083.6	196.75
1048.7119	3200.0931	1071.35	193.55
1048.8148	3201.0292	1067.2	189.4
1048.9178	3201.9648	1070.8	192.1
1049.0206	3202.8997	1068.65	187.15
1049.1235	3203.834	1064.75	186.05
1049.2262	3204.7677	1061.15	181.5
1049.329	3205.7008	1061.85	179.85
1049.4317	3206.6333	1060.6	182.85
1049.5343	3207.5652	1065.45	182.6
1049.6369	3208.4964	1060.25	182.3
1049.7394	3209.4271	1063.95	185.2
1049.8419	3210.3571	1060.2	182.05
1049.9444	3211.2865	1058.95	179
1050.0468	3212.2154	1059.95	180.8
1050.1491	3213.1436	1061.4	180.75
1050.2514	3214.0712	1058.4	171.55
1050.3537	3214.9982	1055.55	176.1
1050.4559	3215.9246	1054.8	173.2
1050.5581	3216.8503	1052.55	174.1
1050.6602	3217.7755	1050.5	170.5
1050.7623	3218.7001	1052.1	175.35
1050.8643	3219.624	1052.6	173.05
1050.9663	3220.5473	1052.1	173.6
1051.0682	3221.4701	1049.4	169
1051.1701	3222.3922	1051.4	168.4
1051.2719	3223.3137	1052.55	176.1
1051.3737	3224.2346	1044.45	165.8
1051.4754	3225.1549	1046.75	169.15
1051.5771	3226.0746	1042.25	162.8
1051.6788	3226.9937	1043.35	163
1051.7804	3227.9121	1041	164.15
1051.8819	3228.83	1043.5	164.1
1051.9834	3229.7473	1040.65	162.4
1052.0849	3230.6639	1040.7	160.4
1052.1863	3231.5799	1040.2	161.9
1052.2876	3232.4954	1034.25	154.15
1052.3889	3233.4102	1041.05	162.15
1052.4902	3234.3244	1037.3	156.75
1052.5914	3235.238	1037.6	158.75
1052.6926	3236.151	1062.15	158.9
1052.7937	3237.0634	1031.6	154.1
1052.8948	3237.9752	1031.8	151.1
1052.9958	3238.8864	1034.7	156.4
1053.0968	3239.797	1029.5	150.3
1053.1977	3240.7069	1032	151.55
1053.2986	3241.6163	1030.85	151.25
1053.3994	3242.5251	1027.6	149.45
1053.5002	3243.4332	1024.45	145.35
1053.6009	3244.3408	1023.55	144.5
1053.7016	3245.2477	1025.65	146.9
1053.8022	3246.154	1025.4	144.9
1053.9028	3247.0598	1024.65	143.25
1054.0034	3247.9649	1025.8	146
1054.1039	3248.8694	1021.8	140.55
1054.2043	3249.7733	1021.6	141.5
1054.3047	3250.6766	1017.5	137.95
1054.4051	3251.5793	1021.4	141.1
1054.5054	3252.4814	1018.7	142.15
1054.6056	3253.3829	1014.95	135.4
1054.7058	3254.2838	1015.75	137.05
1054.806	3255.1841	1011.95	134
1054.9061	3256.0838	1013.6	135.75
1055.0061	3256.9829	1009.3	132.35
1055.1062	3257.8814	1012.05	129.85
1055.2061	3258.7792	1010.9	129.8
1055.306	3259.6765	1012.05	130.7
1055.4059	3260.5731	1004.85	125.25
1055.5057	3261.4692	1005.05	126.6
1055.6055	3262.3647	1008.9	128.2
1055.7052	3263.2595	1002.35	123.25
1055.8049	3264.1538	1000.5	121.6
1055.9045	3265.0474	999.1	120.95
1056.0041	3265.9404	995.7	118
1056.1036	3266.8329	992	112.5
1056.2031	3267.7247	1002.85	114.25
1056.3025	3268.616	989.15	111.15
1056.4019	3269.5066	991.1	113.55
1056.5013	3270.3966	987.2	105.75
1056.6005	3271.286	981.9	102.6
