Software Version:	3.9.2.0
Unit SN:	10000200
Spectrometer SN:	6960
Date:	3/26/2024 1:45:03 PM
Data Line Index:	25
Spectral Points:	2048
Integration time (ms):	125
Averages:	20
Delay (ms):	30000
Sequence Number:	1
Processing:	dark subtract
Laser Power (mW):	300
Laser Current (mA):	821
Laser Diode Temp (C):	25
Laser Case Temp (C):	27.2
System Temp (C):	27.2
Spectrometer Temp (C):	25.1
CCD Temp (C):	0.004
Secondary Temp (C):	20.008
Heatsink Temp (C):	22.358
CCDPCB Temp (C):	36.774
SecondaryPCB Temp (C):	34.317

Wavelength	RamanShift	Raw Counts	Dark Subtracted
787.061	30.1047	597.2	185.2
787.2016	32.3739	604.9	195.05
787.3422	34.6426	620.9	210.1
787.4828	36.9109	636.25	223.65
787.6235	39.1787	656.95	239.4
787.7642	41.4461	676.1	254.55
787.9049	43.7131	691.5	268.2
788.0456	45.9796	716.85	290.9
788.1863	48.2456	736.15	304.2
788.3271	50.5112	758.15	321.95
788.4679	52.7764	777.6	338.3
788.6087	55.0411	805.55	363.65
788.7496	57.3054	822.8	377.05
788.8904	59.5692	854.4	407.95
789.0313	61.8326	883.15	431.8
789.1722	64.0955	921.6	465.75
789.3132	66.3579	964.7	501.85
789.4541	68.6199	1008.4	543.8
789.5951	70.8815	1087.1	620.3
789.7361	73.1426	1266.5	795.3
789.8771	75.4032	1709	1232.45
790.0181	77.6634	2801.95	2318.45
790.1592	79.9231	5508.05	5013.6
790.3003	82.1824	11678.15	11167.8
790.4414	84.4412	24521.65	23981.65
790.5825	86.6995	46086	45505.05
790.7237	88.9574	57431.05	56816
790.8648	91.2148	61795.7	61152.75
791.006	93.4717	62632.8	61973.7
791.1472	95.7282	62930.95	62258.25
791.2885	97.9842	63049.65	62375.6
791.4297	100.2398	63022	62343.35
791.571	102.4949	62959.95	62277.7
791.7123	104.7495	62934.3	62251.55
791.8536	107.0036	62800.85	62117.15
791.9949	109.2573	62897.1	62216.3
792.1363	111.5105	62726.45	62043.35
792.2777	113.7632	62737.5	62050.65
792.4191	116.0154	62753.05	62056.05
792.5605	118.2672	62826.5	62136.55
792.7019	120.5185	62790.9	62096.15
792.8434	122.7693	62769.6	62071.4
792.9849	125.0197	62594.1	61895.85
793.1264	127.2696	62879.9	62178.05
793.2679	129.519	62819.35	62113.3
793.4094	131.7679	62919.6	62211.1
793.551	134.0163	62570.75	61857.75
793.6926	136.2642	62711.5	61999.3
793.8342	138.5117	62843.1	62115.2
793.9758	140.7587	62768.1	62046
794.1175	143.0052	62744.2	62019.45
794.2591	145.2512	62512.05	61788.5
794.4008	147.4967	62747.05	62026.15
794.5425	149.7417	62670.95	61947.55
794.6842	151.9863	62655.5	61928.2
794.826	154.2304	62503.45	61772.8
794.9677	156.4739	62583.7	61850.9
795.1095	158.717	62712.8	61975.15
795.2513	160.9596	62592.25	61852.8
795.3931	163.2017	62370.7	61626.7
795.535	165.4433	62556.35	61812.55
795.6768	167.6844	62393.7	61649
795.8187	169.925	62465.95	61718.25
795.9606	172.1651	62299.15	61549.85
796.1025	174.4047	62362.95	61611.55
796.2445	176.6439	62306.55	61550.75
796.3864	178.8825	62224.9	61467.1
796.5284	181.1206	62408.25	61641.9
796.6704	183.3582	62330	61564.6
796.8124	185.5954	62239.95	61471.45
796.9544	187.832	62266.1	61497.5
797.0965	190.0681	62107.8	61338
797.2386	192.3037	62329.3	61549.45
797.3806	194.5388	62583.3	61808.4
797.5228	196.7734	61937.4	61157.6
797.6649	199.0075	62535.15	61748.55
797.807	201.2411	62358.6	61570.45
797.9492	203.4742	62621.05	61831.9
798.0914	205.7068	62578.2	61786
798.2336	207.9389	62559.15	61768.15
798.3758	210.1704	62544.95	61753.85
798.518	212.4015	62688.6	61894.65
798.6603	214.632	62515.35	61720.15
798.8025	216.862	62709.55	61918.65
798.9448	219.0915	62634.8	61851.6
799.0871	221.3205	62599.8	61820.55
799.2294	223.549	62746.2	61971.8
799.3718	225.777	62753.05	61978.05
799.5141	228.0044	62819.3	62040.1
799.6565	230.2314	62796.7	62023.05
799.7989	232.4578	62800.9	62026.55
799.9413	234.6837	62831.65	62051.9
800.0837	236.909	63068.35	62283.95
800.2262	239.1339	62729.15	61919.3
800.3687	241.3582	62867	62069.9
800.5111	243.582	62833	62009.55
800.6536	245.8053	62854.7	62045.9
800.7961	248.0281	62836.65	62035.7
800.9387	250.2503	62896.35	62083.5
801.0812	252.472	62813.55	62001.55
801.2238	254.6932	62871.25	62049.05
801.3664	256.9139	62833.2	62009.75
801.509	259.134	63028.95	62202.65
801.6516	261.3536	62770.25	61944.95
801.7942	263.5727	62965.4	62140.35
801.9369	265.7912	62870.8	62046.55
802.0795	268.0092	62907.5	62083.75
802.2222	270.2267	62927.6	62104.55
802.3649	272.4436	62844.95	62020.6
802.5076	274.6601	62907.2	62072.15
802.6504	276.8759	62959.05	62138.65
802.7931	279.0913	62913.6	62082.4
802.9359	281.3061	62906.95	62077.7
803.0787	283.5204	62927.1	62090.7
803.2215	285.7341	62900.65	62065.65
803.3643	287.9473	63023.55	62176.7
803.5071	290.16	62910.35	62065.7
803.6499	292.3721	63005.1	62162.75
803.7928	294.5837	62924.5	62084.4
803.9357	296.7947	62871.25	62032.3
804.0786	299.0052	63023.5	62181.6
804.2215	301.2152	62942.15	62099.45
804.3644	303.4246	63034.6	62194
804.5074	305.6334	62980.45	62141.45
804.6503	307.8418	62821.4	61980.65
804.7933	310.0495	62821.6	61982.15
804.9363	312.2568	62777.1	61932.85
805.0793	314.4635	62742.15	61895.9
805.2223	316.6696	62773.7	61928.6
805.3653	318.8752	62819.45	61964.2
805.5084	321.0802	62588.4	61742.15
805.6514	323.2847	62696.05	61846.5
805.7945	325.4887	62690.6	61845.45
805.9376	327.692	62611.85	61759.2
806.0807	329.8949	62664.3	61810.05
806.2238	332.0972	62588.85	61736
806.367	334.2989	62615.85	61760.55
806.5101	336.5001	62675.6	61819.7
806.6533	338.7007	62492.35	61636.05
806.7965	340.9008	62583.55	61727.65
806.9397	343.1003	62575.2	61719.3
807.0829	345.2992	62618.05	61755.25
807.2261	347.4976	62516.05	61657.6
807.3693	349.6955	62574.4	61706
807.5126	351.8927	62518.65	61651.5
807.6559	354.0895	62570.95	61694
807.7991	356.2856	62544.35	61677.35
807.9424	358.4812	62609.9	61744.1
808.0857	360.6763	62477.75	61611.15
808.2291	362.8707	62562.6	61693.6
808.3724	365.0646	62514.15	61644.85
808.5158	367.258	62522.05	61650.25
808.6591	369.4508	62406.25	61528.45
808.8025	371.643	62579.05	61702.15
808.9459	373.8346	62484.55	61604.5
809.0893	376.0257	62501.45	61622.05
809.2327	378.2162	62457.15	61580.3
809.3762	380.4062	62317.75	61435.95
809.5196	382.5956	62417.45	61536.65
809.6631	384.7844	62409.65	61529.95
809.8066	386.9726	62417.6	61535.95
809.9501	389.1603	62415.65	61535.75
810.0936	391.3474	62303.15	61378.3
810.2371	393.5339	62380.5	61498.8
810.3806	395.7199	62178.8	61295.9
810.5241	397.9052	62220.95	61343.65
810.6677	400.09	62285.45	61414.65
810.8113	402.2743	62380.75	61508
810.9548	404.4579	62245.65	61370.05
811.0984	406.641	62280.35	61406.7
811.2421	408.8235	62374	61499.85
811.3857	411.0054	62364.7	61490.9
811.5293	413.1868	62397.5	61521.9
811.673	415.3675	62386.95	61507.3
811.8166	417.5477	62380.3	61501.75
811.9603	419.7273	62396.9	61513.8
812.104	421.9064	62341.55	61455.45
812.2477	424.0848	62349.05	61467.95
812.3914	426.2627	62394.6	61509.75
812.5351	428.4399	62243.35	61359.2
812.6788	430.6166	62026.6	61136.45
812.8226	432.7928	62219.35	61329.4
812.9663	434.9683	62005.95	61121.15
813.1101	437.1432	61916.95	61030.4
813.2539	439.3176	62079.95	61193.5
813.3977	441.4914	61779.3	60894
813.5415	443.6645	61835.8	60945.5
813.6853	445.8371	61844.4	60957.35
813.8291	448.0091	61707.25	60815.65
813.973	450.1806	61606.5	60718.1
814.1168	452.3514	61653.75	60764.7
814.2607	454.5216	61522.3	60629.45
814.4046	456.6913	61637.5	60748.1
814.5485	458.8603	61658.3	60767.8
814.6924	461.0288	61443.6	60556.15
814.8363	463.1967	61649.65	60769.95
814.9802	465.3639	61640.9	60751.4
815.1241	467.5306	61305.45	60417.3
815.2681	469.6967	61507.2	60622.15
815.412	471.8622	61611.05	60722.15
815.556	474.0271	61505.8	60616.55
815.7	476.1914	61532.35	60634.7
815.844	478.3551	61537.2	60641.1
815.988	480.5182	61751.45	60864.8
816.132	482.6807	61457.45	60571.85
816.276	484.8426	61489.5	60609.85
816.4201	487.0039	61811.85	60926.7
816.5641	489.1647	61825.75	60933.1
816.7082	491.3248	61587.35	60698.05
816.8522	493.4843	61871.55	60980.9
816.9963	495.6432	61870.8	60981.5
817.1404	497.8015	61517.55	60619.3
817.2845	499.9592	61700.2	60798.25
817.4286	502.1163	61666.1	60765.45
817.5727	504.2728	61613.3	60716.65
817.7168	506.4287	61540.4	60651.4
817.861	508.5839	61360.9	60478.15
818.0051	510.7386	61429.25	60539.15
818.1493	512.8927	61417.95	60519.6
818.2935	515.0461	61370.25	60467.65
818.4377	517.199	61548.65	60646.65
818.5818	519.3512	61380.9	60480.05
818.726	521.5029	61391.3	60487.25
818.8703	523.6539	61444.6	60547.2
819.0145	525.8043	61249	60347.45
819.1587	527.9541	61428.9	60525.95
819.303	530.1033	61367.15	60468
819.4472	532.2519	61242.1	60343
819.5915	534.3999	61368.65	60464
819.7357	536.5472	61498.25	60596.85
819.88	538.694	61263	60365.05
820.0243	540.8401	61465.35	60561.3
820.1686	542.9856	61479.45	60571.4
820.3129	545.1305	61607.15	60695
820.4572	547.2748	61398.9	60480.55
820.6016	549.4185	61343.8	60427.75
820.7459	551.5615	61464.15	60547.35
820.8902	553.704	61365.9	60450.15
821.0346	555.8458	61260.6	60350.65
821.1789	557.987	61350.2	60441.55
821.3233	560.1276	61431.2	60515.6
821.4677	562.2675	61396.3	60483.2
821.6121	564.4069	61459.25	60543.5
821.7565	566.5456	61618.9	60707.9
821.9009	568.6837	61387.65	60476.7
822.0453	570.8212	61406.25	60496.85
822.1897	572.958	61070	60157.05
822.3342	575.0942	61219.2	60309.7
822.4786	577.2299	61004.15	60102.05
822.6231	579.3648	60954.45	60060.85
822.7675	581.4992	60878.8	59990.75
822.912	583.6329	60822.5	59936.75
823.0565	585.766	60857.3	59964.8
823.201	587.8985	60969.75	60074.75
823.3454	590.0304	60673.65	59743.7
823.4899	592.1616	60868.35	59960.45
823.6345	594.2922	60735.6	59823.95
823.779	596.4222	60546.35	59632.3
823.9235	598.5515	60568.9	59652.45
824.068	600.6802	60684.2	59772.65
824.2126	602.8083	60384.95	59474.85
824.3571	604.9358	60382.5	59469.95
824.5017	607.0626	60576.2	59664.85
824.6462	609.1888	60218.8	59300.95
824.7908	611.3144	60451.3	59530.1
824.9354	613.4393	60333.1	59415.2
825.08	615.5636	60154.05	59235.45
825.2246	617.6873	60343.65	59424.95
825.3692	619.8103	60069.15	59149.15
825.5138	621.9327	60322.45	59404.65
825.6584	624.0544	60304.05	59389.65
825.803	626.1756	60140.8	59226
825.9477	628.2961	60117.4	59204.2
826.0923	630.4159	59952.75	59034.95
826.237	632.5351	59848.8	58932.8
826.3816	634.6537	60247.75	59328.55
826.5263	636.7716	59789	58868.85
826.6709	638.8889	59942.8	59017.85
826.8156	641.0056	59904.85	58981.55
826.9603	643.1216	59984.75	59060.45
827.105	645.237	60075.25	59155.65
827.2497	647.3518	59759.95	58846.25
827.3944	649.4659	59848.7	58934.1
827.5391	651.5793	59852.6	58941.35
827.6838	653.6922	59899.3	58983.6
827.8285	655.8043	59498.05	58580.6
827.9733	657.9159	59988.95	59070.1
828.118	660.0268	59058.25	58137.35
828.2627	662.137	59618.1	58699.25
828.4075	664.2466	59639.2	58710.8
828.5522	666.3556	59465.8	58542.15
828.697	668.4639	59608.75	58691.3
828.8418	670.5716	59356.3	58440.85
828.9865	672.6786	59553.3	58631.25
829.1313	674.785	59206.45	58281.25
829.2761	676.8907	59239.95	58318.4
829.4209	678.9958	59420.95	58505.1
829.5657	681.1002	59441.8	58522.15
829.7105	683.204	59109.35	58179.95
829.8553	685.3072	58932.7	58006.85
830.0001	687.4097	59062.8	58138.7
830.1449	689.5115	58922.8	57997.65
830.2898	691.6127	59241.2	58319.5
830.4346	693.7132	58895.05	57974.85
830.5794	695.8131	58924.3	57977.65
830.7243	697.9123	59064.9	58137.45
830.8691	700.0109	59093.05	58162.5
831.014	702.1089	58668.55	57744.15
831.1588	704.2061	58779.9	57854
831.3037	706.3028	58810.6	57881.5
831.4486	708.3987	58872.1	57943.15
831.5935	710.4941	58677.6	57755.4
831.7383	712.5887	58976.55	58050.4
831.8832	714.6827	58764.35	57836.6
832.0281	716.7761	58999.5	58080.9
832.173	718.8688	59111.8	58188.1
832.3179	720.9608	58833.7	57902.7
832.4628	723.0522	58871.7	57937.75
832.6077	725.1429	58689.65	57759.15
832.7527	727.233	59332.5	58404.9
832.8976	729.3224	58320.5	57395.25
833.0425	731.4112	58587	57661.25
833.1874	733.4993	58559.75	57632.05
833.3324	735.5867	58491.05	57561.35
833.4773	737.6735	58186.6	57255.4
833.6222	739.7596	57951.8	57021.55
833.7672	741.845	57941.3	57015.45
833.9122	743.9298	58178.55	57249.55
834.0571	746.014	57874	56942.55
834.2021	748.0974	57671.45	56737.4
834.347	750.1802	58048	57114.55
834.492	752.2624	57505.7	56574.25
834.637	754.3439	57587.3	56653.75
834.782	756.4247	57666.75	56724.45
834.9269	758.5048	57459.95	56527.35
835.0719	760.5843	57619.6	56686.8
835.2169	762.6631	57799.65	56867.3
835.3619	764.7413	57780.15	56849.5
835.5069	766.8188	57976.2	57040.05
835.6519	768.8956	58184.8	57251.05
835.7969	770.9718	58215.3	57284.4
835.9419	773.0473	58063.15	57130.35
836.0869	775.1221	57751.3	56818.15
836.232	777.1962	57695.2	56763.65
836.377	779.2697	57354.5	56418
836.522	781.3426	57515.15	56568
836.667	783.4147	57567.3	56630.9
836.8121	785.4862	57481.4	56548.4
836.9571	787.557	57224.7	56291.15
837.1021	789.6271	57371.5	56436.9
837.2472	791.6966	56970.3	56036.5
837.3922	793.7654	56544.25	55612.3
837.5373	795.8335	56427	55493.6
837.6823	797.901	56430.75	55494.2
837.8274	799.9678	56208.1	55271.85
837.9724	802.0339	56132.55	55199.3
838.1175	804.0993	56130.85	55190.15
838.2626	806.1641	55977.8	55040.35
838.4076	808.2282	55886.5	54951.15
838.5527	810.2916	55769.35	54832.8
838.6978	812.3544	55926.75	54998.35
838.8428	814.4164	55529.75	54597.6
838.9879	816.4778	55597.55	54657.7
839.133	818.5385	55603.55	54669.2
839.2781	820.5986	55606.2	54667.2
839.4232	822.658	55742.45	54806.85
839.5682	824.7166	55767.25	54826.05
839.7133	826.7747	55674.2	54739.5
839.8584	828.832	55923.15	54985.45
840.0035	830.8886	56092.3	55153.7
840.1486	832.9446	56100.7	55160.45
840.2937	834.9999	55528.55	54594.95
840.4388	837.0545	55660.35	54719.45
840.5839	839.1085	55648.1	54710.35
840.729	841.1618	55457.85	54518.85
840.8741	843.2143	55076.2	54141.25
841.0192	845.2662	54984.85	54046.95
841.1643	847.3175	55029.3	54090.55
841.3095	849.368	54606.2	53666.95
841.4546	851.4179	54784.6	53851.65
841.5997	853.467	54495.75	53560.8
841.7448	855.5155	54576.5	53636.45
841.8899	857.5633	54321.65	53387.45
842.0351	859.6105	54137.3	53198.7
842.1802	861.6569	54248.2	53308.7
842.3253	863.7027	53868.6	52931.3
842.4704	865.7478	53973.45	53037.1
842.6156	867.7922	53821.95	52884.15
842.7607	869.8359	53969.1	53032.9
842.9058	871.8789	53586.25	52643.7
843.0509	873.9212	53807.85	52837.2
843.1961	875.9629	53784.7	52846.95
843.3412	878.0039	53809.75	52871.55
843.4863	880.0441	53679.1	52745.15
843.6315	882.0837	53692.3	52755.3
843.7766	884.1226	53646.4	52706.35
843.9218	886.1609	53609.3	52673.6
844.0669	888.1984	53489.9	52549.85
844.212	890.2352	53777.95	52840.5
844.3572	892.2714	53381.15	52436.6
844.5023	894.3069	53507	52569.65
844.6475	896.3416	53207.55	52267.65
844.7926	898.3757	53098.6	52157.7
844.9377	900.4091	52599.55	51662.05
845.0829	902.4418	53130.65	52185.95
845.228	904.4739	52710	51767.1
845.3732	906.5052	52764.85	51824.4
845.5183	908.5358	52519.5	51575.8
845.6635	910.5658	52326.25	51385.25
845.8086	912.595	52237	51293.6
845.9538	914.6236	51632.7	50694.4
846.0989	916.6515	52209.15	51271.9
846.2441	918.6786	51479.8	50538.9
846.3892	920.7051	51592.05	50650.25
846.5344	922.7309	51548.25	50609.75
846.6795	924.756	51593.6	50651.95
846.8246	926.7804	51428.7	50486
846.9698	928.8041	50905.4	49966.25
847.1149	930.8272	51236.3	50298.5
847.2601	932.8495	51099.85	50162.5
847.4052	934.8711	50780.9	49838.35
847.5504	936.892	50581	49643.15
847.6955	938.9123	50624.15	49679.45
847.8407	940.9318	50367	49430.15
847.9858	942.9506	50213.8	49275.45
848.131	944.9688	50194.35	49254.25
848.2761	946.9862	49650.7	48712.25
848.4213	949.003	49681.6	48739.2
848.5664	951.019	49239.95	48302.85
848.7115	953.0344	49232.5	48292.35
848.8567	955.0491	49142.7	48202.2
849.0018	957.063	49291.5	48352.25
849.147	959.0763	49392	48445.65
849.2921	961.0888	49033.15	48093.65
849.4373	963.1007	49244.75	48307.5
849.5824	965.1119	49194.95	48261.9
849.7275	967.1223	48949.5	48020.25
849.8727	969.1321	49120.05	48193.45
850.0178	971.1412	48708.95	47778.35
850.1629	973.1495	48517.2	47580.9
850.3081	975.1572	48643.05	47675.05
850.4532	977.1641	48455.1	47518.7
850.5983	979.1704	48252.3	47310.45
850.7435	981.1759	48232.9	47292.6
850.8886	983.1808	48063.1	47124.25
851.0337	985.1849	47990.75	47040.2
851.1788	987.1884	47976.8	47036
851.324	989.1911	48167.5	47226.4
851.4691	991.1932	47716.55	46779.7
851.6142	993.1945	47743.75	46806.25
851.7593	995.1951	47699.2	46755.15
851.9045	997.1951	47425.1	46484.65
852.0496	999.1943	47244.15	46307.45
852.1947	1001.1928	47080.4	46139.55
852.3398	1003.1906	47072.55	46138.1
852.4849	1005.1877	46812.1	45869.1
852.63	1007.1841	46641.6	45705.5
852.7751	1009.1798	46596.3	45658.7
852.9202	1011.1748	46392.05	45453.4
853.0653	1013.1691	46187.9	45250.9
853.2104	1015.1627	45598.85	44660.5
853.3555	1017.1556	45334.9	44399.05
853.5006	1019.1477	45313.85	44379.8
853.6457	1021.1392	44913.15	43983.05
853.7908	1023.1299	44608.95	43677.85
853.9359	1025.12	44612.35	43684.2
854.081	1027.1093	44403.3	43484.25
854.2261	1029.0979	44354.2	43438.55
854.3712	1031.0859	44287.55	43366.4
854.5163	1033.0731	43985.85	43054.35
854.6613	1035.0596	43900.9	42972.7
854.8064	1037.0454	43699.4	42766.4
854.9515	1039.0304	43457.35	42521.55
855.0965	1041.0148	43155.95	42223.25
855.2416	1042.9985	43030.6	42092.1
855.3867	1044.9814	43047.15	42114.65
855.5317	1046.9636	42778.65	41843.6
855.6768	1048.9452	42591.85	41657.35
855.8219	1050.926	42590.25	41653.55
855.9669	1052.9061	42458.95	41528.15
856.112	1054.8855	42369.95	41434.9
856.257	1056.8642	42292.85	41356.15
856.4021	1058.8421	42297.15	41357.25
856.5471	1060.8194	42168.9	41229.7
856.6921	1062.7959	42090.6	41155.25
856.8372	1064.7717	42029.95	41095.45
856.9822	1066.7469	41955.9	41018.1
857.1272	1068.7213	41947.4	41008.75
857.2723	1070.695	41875	40938.1
857.4173	1072.6679	41659.3	40723.5
857.5623	1074.6402	41687.25	40751.85
857.7073	1076.6117	41551.3	40610.3
857.8523	1078.5826	41401.1	40465.05
857.9973	1080.5527	41244.8	40305.65
858.1423	1082.5221	41037.65	40098.95
858.2873	1084.4908	41024	40093.65
858.4323	1086.4587	40970	40033.45
858.5773	1088.426	40905.95	39968.95
858.7223	1090.3925	40799	39855.15
858.8673	1092.3584	40780.25	39847
859.0123	1094.3235	40477.95	39542.95
859.1573	1096.2879	40471.85	39534.2
859.3022	1098.2515	40443.4	39508.05
859.4472	1100.2145	40517	39581.85
859.5922	1102.1767	40437.4	39499.45
859.7371	1104.1382	40553	39618.75
859.8821	1106.099	40600.75	39664.4
860.027	1108.0591	40610.2	39678.25
860.172	1110.0185	40568.35	39632.2
860.3169	1111.9771	40625.95	39690.4
860.4619	1113.9351	40396.5	39463.6
860.6068	1115.8923	40105.6	39170.05
860.7517	1117.8488	39859.2	38922.65
860.8967	1119.8045	39501.85	38566
861.0416	1121.7596	39432.6	38502.75
861.1865	1123.7139	39162.65	38232.35
861.3314	1125.6675	39075.25	38141.85
861.4763	1127.6204	39117	38184.55
861.6212	1129.5726	38948.75	38011.5
861.7661	1131.524	38879.2	37946.4
861.911	1133.4748	38748.15	37813.7
862.0559	1135.4248	38473.95	37537.6
862.2008	1137.3741	38332.6	37402.5
862.3457	1139.3226	38149.35	37213
862.4905	1141.2705	38146.3	37211.7
862.6354	1143.2176	37826.95	36890.7
862.7803	1145.164	37789.75	36852.25
862.9251	1147.1097	37708.9	36774.6
863.07	1149.0546	37546.6	36611.3
863.2148	1150.9989	37449.6	36517.1
863.3597	1152.9424	37249.85	36314.4
863.5045	1154.8852	37123.8	36187.1
863.6493	1156.8272	37062.1	36127.7
863.7942	1158.7686	37035.65	36091
863.939	1160.7092	36880.4	35944.5
864.0838	1162.6491	36745.2	35811.6
864.2286	1164.5883	36858.7	35922.2
864.3734	1166.5267	36759.7	35823.15
864.5182	1168.4644	36803.7	35870
864.663	1170.4014	36906.95	35971
864.8078	1172.3377	37090.35	36157.75
864.9526	1174.2732	37232.7	36300.25
865.0974	1176.2081	37437.8	36503.05
865.2421	1178.1421	37658.8	36723
865.3869	1180.0755	37977.75	37050.2
865.5317	1182.0082	37986.65	37054.3
865.6764	1183.9401	38060.25	37126.55
865.8212	1185.8713	37829.9	36902.7
865.9659	1187.8017	37549	36628.5
866.1106	1189.7315	37249.55	36331.15
866.2554	1191.6605	36774.55	35855.6
866.4001	1193.5888	36488.25	35566.8
866.5448	1195.5163	36270.75	35345.25
866.6895	1197.4432	36068.55	35141.5
866.8342	1199.3693	36006.8	35077
866.9789	1201.2947	35846.6	34912.75
867.1236	1203.2193	35711.3	34778.5
867.2683	1205.1432	35592.15	34661.65
867.413	1207.0664	35513.3	34578.55
867.5576	1208.9889	35420.95	34487.6
867.7023	1210.9106	35295.6	34364.2
867.847	1212.8316	35158.45	34228.3
867.9916	1214.7519	35178.35	34238.2
868.1363	1216.6715	35037.15	34107.6
868.2809	1218.5903	35011	34082.55
868.4255	1220.5084	34939.8	34011.05
868.5701	1222.4257	35004.8	34073.05
868.7148	1224.3424	34815.85	33889.5
868.8594	1226.2583	34864.7	33930.45
869.004	1228.1735	34878.1	33946.35
869.1486	1230.0879	34776.65	33846.8
869.2932	1232.0016	34832.75	33899.1
869.4377	1233.9146	34826	33896.1
869.5823	1235.8269	34753.3	33825.15
869.7269	1237.7384	34643.9	33715.6
869.8715	1239.6492	34387.7	33459.4
870.016	1241.5592	34263.5	33334
870.1606	1243.4686	34243.25	33313.05
870.3051	1245.3772	34208.8	33278.2
870.4496	1247.285	34202.3	33272.1
870.5941	1249.1922	34227.35	33298.45
870.7387	1251.0986	34266.9	33336.5
870.8832	1253.0042	34164.65	33236.05
871.0277	1254.9092	34156.95	33227.35
871.1722	1256.8134	34130.2	33201.75
871.3167	1258.7169	34280.25	33351
871.4611	1260.6196	34254.2	33326.3
871.6056	1262.5216	34415.55	33485.75
871.7501	1264.4229	34445.9	33517.05
871.8945	1266.3234	34541.85	33615.3
872.039	1268.2232	34561.75	33632.55
872.1834	1270.1223	34482.35	33551.6
872.3278	1272.0207	34427.05	33496.15
872.4723	1273.9183	34372.95	33436.65
872.6167	1275.8151	34211.6	33283.6
872.7611	1277.7113	34178.45	33249.65
872.9055	1279.6067	34067.7	33139.55
873.0499	1281.5014	34090.5	33161.3
873.1943	1283.3953	34219.65	33287.85
873.3386	1285.2885	34474.1	33545.2
873.483	1287.181	34704	33775.75
873.6274	1289.0727	35017.05	34092.5
873.7717	1290.9637	35056.95	34131
873.9161	1292.854	35247.8	34320.25
874.0604	1294.7435	35171.45	34241
874.2047	1296.6323	35060.55	34134.65
874.349	1298.5204	34963.65	34035.45
874.4933	1300.4077	34889.5	33959.9
874.6376	1302.2943	34686.35	33758.15
874.7819	1304.1802	34497.85	33566.7
874.9262	1306.0653	34153.3	33226.65
875.0705	1307.9497	33776	32846.9
875.2147	1309.8333	33466.9	32539.85
875.359	1311.7162	33239	32316.1
875.5032	1313.5984	33103.85	32172.1
875.6475	1315.4798	32948.75	32000.45
875.7917	1317.3605	32879.2	31933.55
875.9359	1319.2405	32824.35	31896.2
876.0801	1321.1197	32581.35	31656.4
876.2243	1322.9982	32329.6	31398.55
876.3685	1324.876	32166.05	31238.4
876.5127	1326.753	31894.65	30969.7
876.6569	1328.6293	31771.3	30840.7
876.801	1330.5048	31690.9	30759.95
876.9452	1332.3796	31507.8	30579.85
877.0893	1334.2537	31410.55	30462.1
877.2335	1336.127	31302.2	30374.45
877.3776	1337.9996	31199.95	30272.6
877.5217	1339.8714	31131.95	30205.35
877.6658	1341.7426	31101.05	30128.15
877.8099	1343.6129	31036	30106.7
877.954	1345.4826	30984.75	30056.65
878.0981	1347.3515	30958.35	30025.3
878.2422	1349.2196	30894.55	29964.85
878.3862	1351.087	30902.95	29974.15
878.5303	1352.9537	30868	29937.75
878.6743	1354.8197	30915.25	29986.9
878.8184	1356.6849	30984.75	30054.15
878.9624	1358.5493	31013.05	30085.25
879.1064	1360.4131	31066.85	30144.25
879.2504	1362.276	31057.3	30129.3
879.3944	1364.1383	30961.4	30034.3
879.5384	1365.9998	30785.55	29852.8
879.6823	1367.8606	30459.9	29530.6
879.8263	1369.7206	30150.45	29221.05
879.9702	1371.5799	29846.8	28915.1
880.1142	1373.4384	29593.2	28666.25
880.2581	1375.2962	29402.85	28474.75
880.402	1377.1533	29023.95	28099.2
880.5459	1379.0096	28638.8	27714.8
880.6898	1380.8652	28373.1	27448.55
880.8337	1382.7201	28052.1	27126.5
880.9776	1384.5742	27759.95	26832.8
881.1215	1386.4275	27599.95	26669.3
881.2653	1388.2802	27398.5	26472.85
881.4092	1390.132	27187.3	26261
881.553	1391.9832	27149.95	26221.4
881.6968	1393.8336	26916.35	25987.3
881.8406	1395.6832	26824.45	25894.45
881.9844	1397.5322	26683.7	25756.75
882.1282	1399.3803	26613.95	25680.4
882.272	1401.2278	26478.75	25553.5
882.4158	1403.0745	26413.4	25489.85
882.5595	1404.9204	26268.35	25345.2
882.7033	1406.7656	26257.4	25331.65
882.847	1408.6101	26168.55	25244.1
882.9908	1410.4538	26124.25	25197.6
883.1345	1412.2968	26066.6	25141.35
883.2782	1414.139	25998.4	25071.45
883.4219	1415.9805	26059.15	25134.45
883.5656	1417.8213	25972.75	25027.7
883.7092	1419.6613	25969.5	25044.15
883.8529	1421.5006	26066.2	25141.2
883.9965	1423.3391	26173	25247.5
884.1402	1425.1769	26273.05	25346.15
884.2838	1427.0139	26584.55	25659.35
884.4274	1428.8502	26923.6	25998.95
884.571	1430.6858	27293.55	26371.1
884.7146	1432.5206	27487.65	26564.5
884.8582	1434.3547	27690.05	26765
885.0018	1436.188	27649.35	26724.4
885.1453	1438.0206	27503.5	26576
885.2889	1439.8524	27317.3	26392.3
885.4324	1441.6835	27217.1	26290.25
885.5759	1443.5139	27050.5	26122.5
885.7194	1445.3435	26924.2	25998.7
885.8629	1447.1724	26879.85	25958.5
886.0064	1449.0005	26814.15	25890.35
886.1499	1450.8279	26727.75	25803.25
886.2933	1452.6545	26660.9	25739.35
886.4368	1454.4804	26682	25759.15
886.5802	1456.3056	26623.1	25692.45
886.7237	1458.13	26552.6	25629.95
886.8671	1459.9536	26389.9	25466.45
887.0105	1461.7766	26132.5	25207.3
887.1539	1463.5987	25806.75	24883.6
887.2972	1465.4202	25521.1	24600.1
887.4406	1467.2409	25195.75	24271.75
887.584	1469.0608	24976.35	24056.15
887.7273	1470.88	24735.7	23812.05
887.8706	1472.6984	24512.2	23592.4
888.0139	1474.5161	24307.65	23381.85
888.1572	1476.3331	24123.4	23202.75
888.3005	1478.1493	23966.1	23041.4
888.4438	1479.9648	23895.2	22972.9
888.5871	1481.7795	23758.35	22837.6
888.7303	1483.5935	23733.6	22814.45
888.8736	1485.4067	23640.85	22719.85
889.0168	1487.2192	23580.45	22658.35
889.16	1489.031	23536.65	22610.45
889.3032	1490.842	23469.5	22547.45
889.4464	1492.6522	23401.95	22480.6
889.5896	1494.4618	23314.8	22391.3
889.7327	1496.2705	23249	22325.1
889.8759	1498.0785	23144.75	22224.15
890.019	1499.8858	23118.45	22197.5
890.1622	1501.6924	23077.5	22154.5
890.3053	1503.4981	22988.95	22067.45
890.4484	1505.3032	22951	22026.7
890.5914	1507.1075	22871.4	21950.15
890.7345	1508.911	22787.3	21866.8
890.8776	1510.7138	22714.35	21794.8
891.0206	1512.5159	22602.45	21684.4
891.1637	1514.3172	22521.2	21600.3
891.3067	1516.1178	22447.95	21527.4
891.4497	1517.9176	22405.5	21480.75
891.5927	1519.7166	22324.5	21403.7
891.7357	1521.515	22242.3	21317.75
891.8786	1523.3126	22192.75	21274.05
892.0216	1525.1094	22090.45	21167.15
892.1645	1526.9055	22006.6	21087.15
892.3074	1528.7008	21954.2	21034.15
892.4503	1530.4954	21819	20895.3
892.5932	1532.2893	21749.15	20834.05
892.7361	1534.0824	21645.15	20722.2
892.879	1535.8747	21648	20733
893.0218	1537.6663	21581.05	20662.8
893.1647	1539.4572	21504.3	20586.55
893.3075	1541.2473	21491.1	20571.65
893.4503	1543.0367	21443.2	20527.05
893.5931	1544.8253	21324.3	20402.2
893.7359	1546.6132	21330.2	20409.45
893.8787	1548.4003	21268.3	20344.6
894.0214	1550.1867	21254.85	20330.65
894.1642	1551.9723	21244.35	20326.55
894.3069	1553.7572	21248.1	20334.9
894.4496	1555.5414	21286.65	20371.55
894.5923	1557.3247	21310.5	20397.9
894.735	1559.1074	21366.55	20456.15
894.8777	1560.8893	21414.4	20503.95
895.0204	1562.6705	21474.65	20559.15
895.163	1564.4509	21493.25	20581.7
895.3056	1566.2305	21488.45	20580.95
895.4482	1568.0094	21526.6	20618.55
895.5908	1569.7876	21547.45	20635.45
895.7334	1571.565	21519.4	20605.35
895.876	1573.3417	21474	20565.2
896.0186	1575.1176	21381.65	20470.4
896.1611	1576.8928	21332.45	20422.1
896.3036	1578.6672	21213.2	20309.2
896.4461	1580.4409	21145.4	20242.2
896.5886	1582.2138	21121.65	20215.2
896.7311	1583.986	21085.25	20177.1
896.8736	1585.7575	21098.65	20191.25
897.0161	1587.5282	21032.65	20125.9
897.1585	1589.2981	21079.95	20174.7
897.3009	1591.0673	21035.4	20129.7
897.4433	1592.8358	21069.1	20163.75
897.5857	1594.6035	21086.95	20178.55
897.7281	1596.3704	21068	20158.1
897.8705	1598.1366	21092.55	20185.35
898.0128	1599.9021	21079.35	20175.1
898.1551	1601.6668	21056.5	20147.7
898.2975	1603.4308	21120.25	20210.25
898.4398	1605.194	21218.6	20304.15
898.5821	1606.9564	21334.5	20430.95
898.7243	1608.7182	21445.45	20543.25
898.8666	1610.4791	21567.5	20670.95
899.0088	1612.2394	21770.9	20874.9
899.1511	1613.9988	21890.25	20992.4
899.2933	1615.7576	22071.5	21169.8
899.4355	1617.5156	22207.3	21295.2
899.5776	1619.2728	22270	21358.95
899.7198	1621.0293	22227.3	21322.75
899.862	1622.785	22053.95	21145.1
900.0041	1624.54	21793.5	20892.7
900.1462	1626.2942	21526.1	20625.6
900.2883	1628.0477	21175.05	20270.3
900.4304	1629.8005	20916.5	20011.05
900.5725	1631.5525	20655.75	19753.7
900.7145	1633.3037	20461.75	19560.1
900.8566	1635.0542	20260.65	19362.2
900.9986	1636.804	20097.6	19194.6
901.1406	1638.553	19999.2	19052.2
901.2826	1640.3013	19895.6	18991.15
901.4245	1642.0488	19791.95	18886.5
901.5665	1643.7955	19778.9	18878.1
901.7085	1645.5416	19790.7	18890.1
901.8504	1647.2868	19822.4	18922.55
901.9923	1649.0313	19844	18938.55
902.1342	1650.7751	19944.9	19040.65
902.2761	1652.5181	20040.5	19143.55
902.4179	1654.2604	20102.75	19200.8
902.5598	1656.0019	20209.2	19308.45
902.7016	1657.7427	20380.85	19480.65
902.8434	1659.4828	20570.7	19668.2
902.9852	1661.222	20640.15	19737.2
903.127	1662.9606	20592.5	19691.8
903.2687	1664.6984	20431.85	19526.25
903.4105	1666.4354	20084.05	19179.15
903.5522	1668.1717	19655.6	18747.3
903.6939	1669.9072	19133.95	18231.4
903.8356	1671.642	18736.35	17828.25
903.9773	1673.3761	18443.25	17538.25
904.119	1675.1094	18147.05	17242.7
904.2606	1676.8419	17928.6	17023.85
904.4022	1678.5737	17716.7	16814
904.5439	1680.3048	17573.15	16667.65
904.6855	1682.0351	17452.25	16547.25
904.827	1683.7646	17281.1	16373.55
904.9686	1685.4934	17199.6	16297.15
905.1101	1687.2215	17110.1	16205.7
905.2517	1688.9488	16957.3	16055.75
905.3932	1690.6754	16870.4	15969.1
905.5347	1692.4012	16869.3	15965.25
905.6761	1694.1263	16748.85	15847.45
905.8176	1695.8506	16716.75	15809.75
905.9591	1697.5742	16635.15	15730.7
906.1005	1699.297	16533.3	15632.35
906.2419	1701.0191	16417.35	15520.15
906.3833	1702.7404	16384.05	15486.05
906.5246	1704.461	16277.9	15377.65
906.666	1706.1808	16263.9	15360.35
906.8073	1707.8999	16183.1	15282.35
906.9487	1709.6182	16138.9	15242.45
907.09	1711.3358	16090.3	15194.4
907.2313	1713.0527	16036.1	15139.15
907.3725	1714.7688	15940.5	15036.3
907.5138	1716.4841	15900.7	15001.25
907.655	1718.1987	15886.95	14983.65
907.7962	1719.9126	15810.4	14912.9
907.9374	1721.6257	15748.55	14849.75
908.0786	1723.338	15707.7	14809.6
908.2198	1725.0496	15649.75	14751.35
908.3609	1726.7605	15592.35	14693.45
908.502	1728.4706	15517.15	14619
908.6431	1730.18	15443.65	14546.2
908.7842	1731.8886	15434.7	14539.3
908.9253	1733.5964	15408.05	14490.8
909.0664	1735.3036	15345.6	14445.3
909.2074	1737.0099	15300.8	14404.6
909.3484	1738.7156	15269.15	14373.75
909.4894	1740.4204	15193.65	14292.75
909.6304	1742.1246	15172.55	14272.6
909.7714	1743.8279	15124.1	14226.25
909.9123	1745.5306	15057.3	14160.55
910.0532	1747.2325	15031.75	14137
910.1941	1748.9336	14978.8	14083.35
910.335	1750.634	14903	14001.65
910.4759	1752.3336	14891.75	13994.4
910.6168	1754.0325	14882.3	13987.3
910.7576	1755.7307	14819.9	13926.1
910.8984	1757.4281	14806.95	13909.2
911.0392	1759.1247	14781.25	13875.5
911.18	1760.8206	14775	13870.45
911.3208	1762.5158	14726.95	13823.3
911.4615	1764.2102	14661.4	13762.5
911.6022	1765.9039	14615.8	13718
911.7429	1767.5968	14586.3	13692.5
911.8836	1769.289	14545	13649.65
912.0243	1770.9804	14516	13617.8
912.1649	1772.6711	14507.55	13609.8
912.3056	1774.361	14467.1	13565.8
912.4462	1776.0502	14437.15	13538.55
912.5868	1777.7386	14411.75	13509.9
912.7274	1779.4263	14329.9	13432.8
912.8679	1781.1132	14336.45	13440.95
913.0084	1782.7994	14281.5	13387.9
913.149	1784.4849	14251.35	13355.5
913.2895	1786.1696	14222.2	13321.8
913.4299	1787.8535	14166.4	13272.25
913.5704	1789.5367	14151.65	13258.45
913.7108	1791.2192	14101.45	13207.4
913.8513	1792.9009	14084.65	13161.5
913.9917	1794.5818	14077.1	13177.9
914.132	1796.2621	14033.2	13138.6
914.2724	1797.9415	13977.6	13081.15
914.4128	1799.6202	13937.65	13041.75
914.5531	1801.2982	13937.9	13042.9
914.6934	1802.9755	13859.6	12961.8
914.8337	1804.6519	13847.5	12949.3
914.9739	1806.3277	13790.45	12894.3
915.1142	1808.0027	13696.8	12803.25
915.2544	1809.6769	13705.2	12813.85
915.3946	1811.3504	13676.2	12781.7
915.5348	1813.0231	13651.25	12758.95
915.675	1814.6951	13612.5	12718.5
915.8151	1816.3664	13624.65	12727.9
915.9553	1818.0369	13597.4	12700.3
916.0954	1819.7067	13557.1	12664.25
916.2355	1821.3757	13515.5	12620.35
916.3755	1823.044	13514.3	12617.25
916.5156	1824.7115	13499.3	12599.55
916.6556	1826.3783	13410.35	12515.1
916.7956	1828.0443	13390.25	12496.3
916.9356	1829.7096	13333.8	12437.95
917.0756	1831.3741	13341.3	12443.9
917.2155	1833.0379	13288.65	12394.4
917.3555	1834.701	13268.25	12373.35
917.4954	1836.3633	13231.8	12341.25
917.6353	1838.0248	13205.75	12312
917.7751	1839.6856	13169.35	12274.65
917.915	1841.3457	13175.35	12280.4
918.0548	1843.005	13172.9	12276.95
918.1946	1844.6636	13130.75	12235.45
918.3344	1846.3214	13046.35	12151.4
918.4742	1847.9785	13058.2	12164
918.6139	1849.6349	13047.9	12150.1
918.7537	1851.2904	13011.9	12104.15
918.8934	1852.9453	12980.7	12081.1
919.0331	1854.5994	12917.5	12018.35
919.1727	1856.2528	12948.4	12047
919.3124	1857.9054	12928.2	12033.15
919.452	1859.5572	12902.05	12009.25
919.5916	1861.2083	12882.85	11985.35
919.7312	1862.8587	12841.05	11945.8
919.8708	1864.5084	12835.65	11936.4
920.0103	1866.1572	12803.25	11906.55
920.1498	1867.8054	12771.65	11872.6
920.2893	1869.4528	12712.7	11813.8
920.4288	1871.0994	12702.7	11805.15
920.5683	1872.7453	12692.95	11794.65
920.7077	1874.3905	12656.9	11755.25
920.8471	1876.0349	12607.35	11709.2
920.9865	1877.6786	12564.35	11664.75
921.1259	1879.3215	12588.15	11691.45
921.2653	1880.9637	12531.2	11633.35
921.4046	1882.6051	12508.5	11616.45
921.5439	1884.2458	12476.55	11580.35
921.6832	1885.8858	12410.5	11514.35
921.8225	1887.525	12420.3	11524
921.9617	1889.1634	12366.9	11469.45
922.101	1890.8011	12319.3	11422.1
922.2402	1892.4381	12314.95	11421.3
922.3794	1894.0743	12300.35	11405.2
922.5185	1895.7098	12264.9	11370.2
922.6577	1897.3446	12214.05	11317.55
922.7968	1898.9786	12191.85	11291.95
922.9359	1900.6118	12185.3	11290.6
923.075	1902.2443	12133.85	11235.55
923.214	1903.8761	12097.2	11203.6
923.3531	1905.5071	12032	11136.6
923.4921	1907.1374	12028.15	11133.6
923.6311	1908.7669	11988.4	11094.65
923.77	1910.3957	11963.85	11068.25
923.909	1912.0237	11911.75	11017.9
924.0479	1913.651	11871.15	10975.9
924.1868	1915.2776	11839.25	10945.3
924.3257	1916.9034	11805.3	10913.75
924.4646	1918.5285	11750.95	10858.1
924.6034	1920.1528	11729.1	10834.5
924.7422	1921.7764	11715.3	10820.75
924.881	1923.3992	11659.9	10765.35
925.0198	1925.0213	11579.6	10684.05
925.1586	1926.6427	11543.8	10651.15
925.2973	1928.2633	11608.9	10635.15
925.436	1929.8832	11506.55	10609.95
925.5747	1931.5023	11435	10538.85
925.7134	1933.1207	11451.2	10558.85
925.852	1934.7383	11419.05	10524.05
925.9906	1936.3552	11334.75	10442.3
926.1292	1937.9714	11312.65	10417.5
926.2678	1939.5868	11258.7	10362.15
926.4064	1941.2015	11227.3	10330.45
926.5449	1942.8154	11182.4	10286.35
926.6834	1944.4286	11149.45	10253.4
926.8219	1946.041	11132.15	10219.65
926.9604	1947.6528	11077.6	10178.1
927.0988	1949.2637	11037.6	10143.45
927.2372	1950.8739	11032.55	10137.15
927.3756	1952.4834	10974.4	10081.75
927.514	1954.0921	10975.3	10078.65
927.6523	1955.7001	10935.85	10038.6
927.7907	1957.3074	10886.8	9994.9
927.929	1958.9139	10849.6	9959.5
928.0673	1960.5197	10859.9	9967.8
928.2055	1962.1247	10777.9	9888.05
928.3438	1963.729	10720.65	9829.35
928.482	1965.3325	10710.9	9796.65
928.6202	1966.9353	10662.9	9772
928.7584	1968.5374	10615.8	9723.65
928.8965	1970.1387	10604.05	9714.9
929.0346	1971.7393	10558.75	9666.4
929.1727	1973.3392	10579.3	9686.45
929.3108	1974.9383	10511.7	9622.65
929.4489	1976.5366	10433.5	9542.9
929.5869	1978.1342	10433.4	9542.8
929.7249	1979.7311	10434.05	9543.5
929.8629	1981.3273	10384.6	9496.45
930.0009	1982.9227	10343	9452.5
930.1388	1984.5173	10321.1	9430.55
930.2767	1986.1112	10274.3	9386.5
930.4146	1987.7044	10252.75	9362.6
930.5525	1989.2968	10224.95	9336.35
930.6904	1990.8885	10218.45	9326.15
930.8282	1992.4795	10188	9298.2
930.966	1994.0697	10139.35	9252.45
931.1038	1995.6592	10096.6	9206.5
931.2415	1997.2479	10091.6	9203.8
931.3793	1998.8359	10069.95	9181.6
931.517	2000.4232	10015.1	9129.85
931.6547	2002.0097	9983.15	9100.15
931.7923	2003.5955	9950.3	9063.75
931.93	2005.1805	9937.9	9050.8
932.0676	2006.7648	9917.35	9028.6
932.2052	2008.3484	9882.4	8996.15
932.3427	2009.9312	9882.6	8994.7
932.4803	2011.5133	9824.3	8940.35
932.6178	2013.0946	9825.05	8940.65
932.7553	2014.6752	9800.2	8914.85
932.8928	2016.2551	9774.8	8887.2
933.0302	2017.8342	9740.55	8854.55
933.1676	2019.4126	9690.5	8804.4
933.305	2020.9902	9666.9	8782.25
933.4424	2022.5672	9650.15	8764.65
933.5798	2024.1433	9624.5	8733.75
933.7171	2025.7188	9574.55	8691.55
933.8544	2027.2935	9576.75	8692.8
933.9917	2028.8674	9543.1	8658.35
934.129	2030.4406	9508.95	8626.65
934.2662	2032.0131	9445.75	8563.65
934.4034	2033.5849	9444.55	8556.5
934.5406	2035.1559	9410.95	8527
934.6778	2036.7261	9432.75	8545.95
934.8149	2038.2957	9409.55	8522
934.952	2039.8645	9368.65	8480.35
935.0891	2041.4325	9381.3	8492.7
935.2262	2042.9998	9328.05	8441.4
935.3632	2044.5664	9298.5	8411.5
935.5002	2046.1323	9252.85	8367.5
935.6372	2047.6974	9249.1	8365.3
935.7742	2049.2617	9215.15	8331.45
935.9111	2050.8254	9216.2	8306
936.048	2052.3883	9198.4	8310.9
936.1849	2053.9504	9146	8259.6
936.3218	2055.5118	9127.9	8240.25
936.4586	2057.0725	9084.75	8194.25
936.5955	2058.6325	9046.55	8162.55
936.7323	2060.1917	9042.3	8158.65
936.869	2061.7502	9029.35	8143.7
937.0058	2063.3079	8974.8	8091.05
937.1425	2064.8649	8965.95	8079.2
937.2792	2066.4212	8967.85	8080.45
937.4159	2067.9767	8944.25	8058.4
937.5525	2069.5315	8893.6	8009.4
937.6891	2071.0856	8867.25	7980.65
937.8257	2072.6389	8828.2	7941.6
937.9623	2074.1915	8779.3	7897.2
938.0989	2075.7433	8749.15	7863.1
938.2354	2077.2945	8728.55	7845.8
938.3719	2078.8448	8715.95	7827.85
938.5084	2080.3945	8701.4	7815.65
938.6448	2081.9434	8696.2	7811
938.7812	2083.4916	8656.4	7768.2
938.9176	2085.039	8635.3	7742.5
939.054	2086.5857	8624.25	7731.25
939.1903	2088.1317	8588.2	7696.15
939.3267	2089.677	8587.5	7696.3
939.463	2091.2215	8567.15	7673.75
939.5992	2092.7652	8519.65	7626.5
939.7355	2094.3083	8523.3	7633.75
939.8717	2095.8506	8494.35	7604.65
940.0079	2097.3921	8511.85	7626.3
940.1441	2098.933	8471.35	7581.5
940.2802	2100.4731	8424	7537.1
940.4163	2102.0124	8439.55	7542.1
940.5524	2103.5511	8405.55	7516.6
940.6885	2105.089	8401.15	7512.9
940.8245	2106.6261	8380.05	7493.25
940.9606	2108.1626	8329.8	7441.55
941.0965	2109.6983	8347.05	7430
941.2325	2111.2332	8318.2	7430.35
941.3684	2112.7675	8282.5	7391.65
941.5044	2114.301	8260.3	7369.8
941.6403	2115.8337	8250.65	7361.25
941.7761	2117.3657	8220.7	7332.9
941.912	2118.897	8216.15	7326.85
942.0478	2120.4276	8188.1	7294.05
942.1835	2121.9575	8155.1	7265.1
942.3193	2123.4866	8153.8	7263.6
942.455	2125.0149	8122.9	7232.7
942.5907	2126.5426	8071.75	7185.35
942.7264	2128.0695	8068.5	7180.25
942.8621	2129.5956	8062.85	7179.4
942.9977	2131.1211	8045.6	7154.15
943.1333	2132.6458	8028.8	7142.1
943.2689	2134.1698	7979.55	7090
943.4044	2135.693	7972.25	7080.8
943.54	2137.2155	7971.1	7080.7
943.6755	2138.7373	7934.45	7045.35
943.8109	2140.2584	7908.4	7023.05
943.9464	2141.7787	7885.7	6993.9
944.0818	2143.2983	7854.4	6970.45
944.2172	2144.8171	7811.2	6929.1
944.3526	2146.3353	7806.7	6919
944.4879	2147.8527	7770.85	6885.9
944.6232	2149.3693	7776	6888.2
944.7585	2150.8853	7732.5	6842.05
944.8938	2152.4005	7722.8	6832.8
945.029	2153.9149	7710.95	6820.65
945.1642	2155.4287	7770.55	6782.15
945.2994	2156.9417	7718.05	6826.9
945.4346	2158.454	7661.35	6773.2
945.5697	2159.9655	7629.55	6743.65
945.7048	2161.4764	7612.45	6730.35
945.8399	2162.9865	7591.35	6704.85
945.9749	2164.4958	7569.8	6683.35
946.1099	2166.0045	7544.05	6654.7
946.2449	2167.5124	7541.85	6655.15
946.3799	2169.0195	7514.05	6626.05
946.5148	2170.526	7521.5	6630.45
946.6498	2172.0317	7482.05	6594.85
946.7846	2173.5367	7459.9	6572.75
946.9195	2175.0409	7451	6565.9
947.0543	2176.5445	7431.9	6543.2
947.1891	2178.0473	7434.75	6544.65
947.3239	2179.5494	7402.4	6510.25
947.4587	2181.0507	7353.9	6466.15
947.5934	2182.5513	7340.85	6452.75
947.7281	2184.0512	7313.9	6425.95
947.8628	2185.5504	7320.85	6433.25
947.9974	2187.0488	7272.9	6385.9
948.132	2188.5465	7244.35	6358.65
948.2666	2190.0435	7219.3	6329.7
948.4012	2191.5397	7215.8	6327.2
948.5357	2193.0353	7184.45	6297.95
948.6702	2194.5301	7164.95	6275.25
948.8047	2196.0241	7141	6249
948.9392	2197.5175	7133.6	6242.6
949.0736	2199.0101	7084.4	6190.3
949.208	2200.502	7054.9	6166
949.3424	2201.9931	7028.1	6140.35
949.4767	2203.4835	7012.05	6125.1
949.611	2204.9733	7005.65	6102.15
949.7453	2206.4622	6984.95	6100.85
949.8796	2207.9505	6948.9	6061.15
950.0138	2209.438	6904.65	6020.15
950.148	2210.9248	6899.75	6012.15
950.2822	2212.4109	6878.2	5991.1
950.4164	2213.8962	6868.65	5977.5
950.5505	2215.3809	6868.45	5977.05
950.6846	2216.8648	6836.05	5945.1
950.8186	2218.3479	6827.5	5932.7
950.9527	2219.8304	6797.25	5902.4
951.0867	2221.3121	6763.35	5870.15
951.2207	2222.7931	6754.35	5865.55
951.3546	2224.2733	6719.3	5831.1
951.4886	2225.7529	6693.95	5806.1
951.6225	2227.2317	6688.3	5799.45
951.7563	2228.7098	6681.75	5794.8
951.8902	2230.1872	6638.2	5753.95
952.024	2231.6638	6634.6	5748.9
952.1578	2233.1397	6596.6	5707.7
952.2916	2234.6149	6578.5	5693.5
952.4253	2236.0894	6580.55	5694.2
952.559	2237.5632	6572	5684.8
952.6927	2239.0362	6527.5	5638.4
952.8263	2240.5085	6502.85	5614.85
952.9599	2241.9801	6490.05	5601.85
953.0935	2243.4509	6480.8	5592.2
953.2271	2244.921	6453.5	5564.35
953.3606	2246.3904	6437.75	5545.6
953.4941	2247.8591	6440.9	5553
953.6276	2249.3271	6409.15	5521.3
953.7611	2250.7943	6370	5478.15
953.8945	2252.2608	6348.2	5459.1
954.0279	2253.7266	6357.9	5469.85
954.1612	2255.1917	6325.05	5436.7
954.2946	2256.656	6315.8	5429.1
954.4279	2258.1197	6285.7	5400.75
954.5612	2259.5826	6250.3	5361.85
954.6944	2261.0447	6248.5	5361.5
954.8276	2262.5062	6248.15	5359.15
954.9608	2263.9669	6247	5356.7
955.094	2265.4269	6232.8	5343.4
955.2271	2266.8862	6203.7	5313.6
955.3602	2268.3448	6193.35	5304.55
955.4933	2269.8026	6186.9	5298.7
955.6264	2271.2598	6170.55	5284.1
955.7594	2272.7162	6127.65	5242.15
955.8924	2274.1719	6124.5	5236.8
956.0253	2275.6268	6090.85	5202.15
956.1583	2277.0811	6098.65	5209.35
956.2912	2278.5346	6076.95	5191.75
956.4241	2279.9874	6065.4	5177.55
956.5569	2281.4395	6049.45	5167
956.6897	2282.8908	6012.85	5120.3
956.8225	2284.3414	6037	5146.55
956.9553	2285.7914	6007.75	5120.4
957.088	2287.2406	5996.8	5105.05
957.2207	2288.689	5973.55	5084.45
957.3534	2290.1368	5953.35	5058.65
957.486	2291.5838	5950.2	5053.95
957.6186	2293.0302	5931.45	5039.55
957.7512	2294.4758	5895.3	5006.95
957.8838	2295.9206	5903.55	5012.15
958.0163	2297.3648	5870.5	4982.9
958.1488	2298.8082	5871.2	4984.55
958.2813	2300.251	5844.9	4957.05
958.4137	2301.693	5832.8	4939.15
958.5461	2303.1343	5827.7	4933.8
958.6785	2304.5748	5797.75	4909.1
958.8108	2306.0147	5790.15	4902.05
958.9432	2307.4538	5775.65	4889
959.0754	2308.8922	5752.05	4868.05
959.2077	2310.3299	5747.8	4861.75
959.3399	2311.7669	5724.5	4837.7
959.4721	2313.2031	5691.05	4801.4
959.6043	2314.6387	5686.4	4797.25
959.7365	2316.0735	5671.85	4781.7
959.8686	2317.5076	5654.5	4765.55
960.0006	2318.941	5640.85	4751.45
960.1327	2320.3737	5622.35	4732.45
960.2647	2321.8056	5612.15	4720.5
960.3967	2323.2369	5596.5	4706.9
960.5287	2324.6674	5565.35	4676.5
960.6606	2326.0972	5576.35	4686.75
960.7925	2327.5263	5538.75	4650.45
960.9244	2328.9547	5531.1	4637.8
961.0562	2330.3823	5512.25	4621.8
961.1881	2331.8092	5528.7	4632.65
961.3198	2333.2355	5499.5	4608.25
961.4516	2334.661	5491.05	4600
961.5833	2336.0858	5481.65	4588.25
961.715	2337.5098	5467.55	4577.8
961.8467	2338.9332	5456.15	4565.35
961.9783	2340.3558	5431.4	4541.45
962.1099	2341.7778	5422.75	4534.1
962.2415	2343.199	5383.15	4493
962.373	2344.6195	5373.6	4485
962.5045	2346.0393	5360.65	4472.1
962.636	2347.4583	5352.2	4462.35
962.7675	2348.8767	5367.9	4475.65
962.8989	2350.2943	5339.95	4446.95
963.0303	2351.7113	5341.9	4450.65
963.1617	2353.1275	5316.7	4423.55
963.293	2354.543	5334	4416.05
963.4243	2355.9578	5293.75	4401
963.5556	2357.3718	5252.85	4365.4
963.6868	2358.7852	5235.55	4346.65
963.818	2360.1978	5227.25	4338.85
963.9492	2361.6098	5228.85	4339.7
964.0803	2363.021	5189.15	4296.35
964.2114	2364.4315	5191.25	4299.05
964.3425	2365.8413	5177.4	4285.45
964.4736	2367.2504	5175.45	4288.1
964.6046	2368.6587	5138.5	4251.9
964.7356	2370.0664	5116.15	4228
964.8666	2371.4733	5100.2	4211.65
964.9975	2372.8795	5087.35	4199.1
965.1284	2374.285	5063.05	4173.5
965.2593	2375.6899	5056.05	4167.9
965.3901	2377.0939	5035.4	4145.9
965.5209	2378.4973	5007.5	4120.5
965.6517	2379.9	4994.85	4107
965.7825	2381.3019	4987.35	4100.15
965.9132	2382.7032	4971.25	4084.9
966.0439	2384.1037	4970.75	4084.95
966.1745	2385.5035	4943.45	4056.45
966.3051	2386.9027	4918.1	4032.15
966.4357	2388.3011	4920.15	4029.85
966.5663	2389.6987	4914.2	4027.85
966.6968	2391.0957	4888.4	4002.2
966.8273	2392.492	4882.8	3994.35
966.9578	2393.8876	4865.95	3975.95
967.0882	2395.2824	4845.25	3955.3
967.2186	2396.6765	4827.35	3938.35
967.349	2398.07	4826.5	3937.1
967.4793	2399.4627	4815.15	3924.75
967.6097	2400.8547	4805.65	3915.8
967.7399	2402.246	4769.85	3875.4
967.8702	2403.6366	4747.55	3857.5
968.0004	2405.0265	4737.7	3847.8
968.1306	2406.4156	4736.35	3844
968.2607	2407.8041	4710.2	3817.8
968.3909	2409.1918	4705.7	3811.35
968.521	2410.5789	4696.45	3803.9
968.651	2411.9652	4674.9	3781.6
968.781	2413.3508	4656.4	3765.7
968.911	2414.7358	4619.7	3728.15
969.041	2416.12	4606.95	3718.2
969.1709	2417.5035	4608.9	3719.2
969.3008	2418.8863	4588.1	3696.2
969.4307	2420.2684	4594.65	3702.1
969.5606	2421.6497	4570.3	3677.55
969.6904	2423.0304	4527.85	3638.75
969.8201	2424.4104	4524.3	3632.65
969.9499	2425.7896	4518.35	3625.75
970.0796	2427.1682	4512.55	3624.8
970.2093	2428.546	4511.85	3621.55
970.3389	2429.9232	4485.45	3592.85
970.4685	2431.2996	4496.3	3607.15
970.5981	2432.6753	4458.2	3569.6
970.7277	2434.0503	4460	3569.2
970.8572	2435.4246	4444.95	3555.1
970.9867	2436.7982	4435.05	3541.3
971.1161	2438.1711	4424.7	3532.5
971.2456	2439.5433	4411.2	3520.85
971.375	2440.9148	4389.15	3494.5
971.5043	2442.2856	4364.95	3476.7
971.6336	2443.6557	4352.25	3462.8
971.7629	2445.025	4352.3	3461.15
971.8922	2446.3937	4347.8	3455.6
972.0214	2447.7617	4335.4	3444.3
972.1506	2449.1289	4326.55	3434.15
972.2798	2450.4955	4311.1	3420.15
972.4089	2451.8613	4295	3404.3
972.538	2453.2265	4282.4	3393.15
972.6671	2454.5909	4291.2	3399.5
972.7961	2455.9546	4264.8	3374
972.9251	2457.3177	4253.55	3363.05
973.0541	2458.68	4249.75	3357.9
973.1831	2460.0416	4235.65	3346.25
973.312	2461.4025	4230	3338.55
973.4408	2462.7627	4244.6	3343.65
973.5697	2464.1222	4208.35	3322.8
973.6985	2465.4811	4190.3	3301.3
973.8273	2466.8392	4180.1	3292.4
973.956	2468.1966	4175.6	3285.95
974.0847	2469.5533	4177.9	3285.9
974.2134	2470.9093	4176.25	3286.65
974.3421	2472.2645	4159.5	3271.45
974.4707	2473.6191	4152.45	3262.95
974.5993	2474.973	4128.8	3238.9
974.7278	2476.3262	4131.8	3241
974.8563	2477.6787	4112.15	3224.9
974.9848	2479.0305	4084.9	3196.5
975.1132	2480.3816	4073.75	3182.35
975.2417	2481.7319	4073.9	3184.6
975.37	2483.0816	4047.7	3157.45
975.4984	2484.4306	4046.95	3157.85
975.6267	2485.7789	4017.8	3130.35
975.755	2487.1264	4013.1	3123.2
975.8833	2488.4733	4004.65	3118.1
976.0115	2489.8195	4007.95	3100.1
976.1397	2491.165	3989.05	3096.15
976.2678	2492.5097	3987.8	3097.3
976.3959	2493.8538	3949.3	3062.7
976.524	2495.1972	3939.55	3052.4
976.6521	2496.5398	3928.1	3035.55
976.7801	2497.8818	3935.6	3044.2
976.9081	2499.2231	3912.6	3021.15
977.036	2500.5637	3905.65	3015.45
977.164	2501.9035	3892.5	3002.05
977.2918	2503.2427	3893.45	3000.45
977.4197	2504.5812	3862.95	2972.85
977.5475	2505.919	3851.05	2958.05
977.6753	2507.256	3844.75	2955.6
977.8031	2508.5924	3833.3	2943.75
977.9308	2509.9281	3835.9	2941.55
978.0585	2511.2631	3824.55	2936.75
978.1861	2512.5974	3807.1	2918.1
978.3137	2513.9309	3797.45	2908.85
978.4413	2515.2638	3805.2	2889.55
978.5689	2516.596	3786.95	2897.45
978.6964	2517.9275	3763.8	2873.2
978.8239	2519.2583	3745.6	2855.35
978.9513	2520.5884	3726.4	2836.35
979.0788	2521.9178	3720.35	2832.1
979.2062	2523.2465	3717.05	2829.85
979.3335	2524.5745	3690.6	2801.9
979.4608	2525.9018	3678.3	2790.7
979.5881	2527.2284	3668.45	2780
979.7154	2528.5543	3666.15	2779.9
979.8426	2529.8796	3666.8	2779.45
979.9698	2531.2041	3674.45	2783.95
980.0969	2532.5279	3668.45	2781.85
980.224	2533.851	3655.4	2768.25
980.3511	2535.1735	3649.6	2762.4
980.4781	2536.4952	3630.75	2741.3
980.6052	2537.8163	3635.65	2746.2
980.7321	2539.1366	3625.15	2737
980.8591	2540.4562	3612.2	2719.2
980.986	2541.7752	3622.75	2731.8
981.1129	2543.0935	3605.75	2715.15
981.2397	2544.411	3601.35	2710.35
981.3665	2545.7279	3588.6	2699.9
981.4933	2547.0441	3597.15	2707
981.62	2548.3596	3592.35	2698.35
981.7467	2549.6744	3570.45	2677.85
981.8734	2550.9885	3551	2658.7
982.0001	2552.3019	3553.55	2663.9
982.1267	2553.6146	3548.95	2659.1
982.2532	2554.9266	3523.65	2635.05
982.3798	2556.2379	3518.05	2628.2
982.5063	2557.5485	3524.5	2634.85
982.6327	2558.8585	3501.25	2605.05
982.7592	2560.1677	3506.2	2613.65
982.8856	2561.4762	3507.55	2616.85
983.0119	2562.7841	3494.8	2600.85
983.1383	2564.0913	3476.35	2588.15
983.2646	2565.3977	3486.2	2597.45
983.3908	2566.7035	3471.9	2583.3
983.517	2568.0086	3472.75	2581.4
983.6432	2569.313	3462.9	2572.75
983.7694	2570.6167	3447.6	2551.25
983.8955	2571.9197	3440.9	2553.05
984.0216	2573.222	3446.65	2553.4
984.1476	2574.5236	3431.8	2539.85
984.2737	2575.8246	3414.9	2522.15
984.3996	2577.1248	3441.8	2549.8
984.5256	2578.4244	3412.2	2523.7
984.6515	2579.7232	3411.3	2521.9
984.7774	2581.0214	3431.9	2514.6
984.9032	2582.3189	3421.45	2531.75
985.029	2583.6157	3396.25	2502.55
985.1548	2584.9118	3399.65	2512.45
985.2806	2586.2072	3374.65	2483.1
985.4063	2587.5019	3357.8	2470.6
985.5319	2588.7959	3366.45	2477.15
985.6576	2590.0893	3375.15	2482.75
985.7832	2591.3819	3362.2	2472.1
985.9087	2592.6739	3355.35	2465.4
986.0343	2593.9652	3350.7	2458.85
986.1597	2595.2557	3330.2	2440.15
986.2852	2596.5456	3326.4	2435.4
986.4106	2597.8348	3320.2	2429
986.536	2599.1234	3317.75	2426.95
986.6614	2600.4112	3304.95	2414.15
986.7867	2601.6983	3290.1	2396.1
986.912	2602.9848	3276.7	2386.6
987.0372	2604.2705	3276.3	2382.15
987.1624	2605.5556	3263.15	2372.45
987.2876	2606.84	3263.2	2374.2
987.4128	2608.1237	3242.7	2352.4
987.5379	2609.4067	3241.85	2352.5
987.6629	2610.689	3239.95	2340.4
987.788	2611.9707	3216.7	2323.85
987.913	2613.2516	3217.35	2324.25
988.0379	2614.5319	3208.45	2319.85
988.1629	2615.8115	3182.3	2293.3
988.2878	2617.0903	3163.8	2274.5
988.4126	2618.3685	3159.35	2270.15
988.5375	2619.6461	3160.35	2271
988.6622	2620.9229	3143.35	2253.6
988.787	2622.199	3147.7	2259.15
988.9117	2623.4745	3153.3	2263.15
989.0364	2624.7493	3140.4	2251.35
989.161	2626.0234	3132.9	2244.4
989.2857	2627.2968	3121.55	2232.9
989.4102	2628.5695	3106.8	2216.3
989.5348	2629.8415	3092.45	2204.35
989.6593	2631.1128	3079.45	2189.65
989.7837	2632.3835	3072.45	2182.65
989.9082	2633.6535	3062	2174.4
990.0326	2634.9228	3056.7	2168.35
990.1569	2636.1914	3050.55	2163.25
990.2812	2637.4593	3051.05	2161.8
990.4055	2638.7265	3050.9	2158.8
990.5298	2639.9931	3030.8	2142.25
990.654	2641.259	3036.6	2145.85
990.7782	2642.5242	3016.55	2128.2
990.9023	2643.7887	3012.45	2123.8
991.0264	2645.0525	3008.6	2120.05
991.1505	2646.3156	3006.85	2102.95
991.2745	2647.5781	2981.75	2091.7
991.3985	2648.8398	2982.35	2094.75
991.5225	2650.1009	2982.8	2067.25
991.6464	2651.3613	2968.35	2078.25
991.7703	2652.6211	2956.95	2068.55
991.8942	2653.8801	2952.35	2065.25
992.018	2655.1385	2951.85	2060.6
992.1418	2656.3961	2944.3	2055.1
992.2655	2657.6531	2939.8	2051.05
992.3892	2658.9094	2937.5	2047.35
992.5129	2660.1651	2926.95	2036.95
992.6366	2661.42	2920.9	2033.2
992.7602	2662.6743	2934.35	2044.3
992.8837	2663.9279	2927.95	2038.25
993.0073	2665.1808	2902.15	2013.8
993.1307	2666.433	2918.65	2030.6
993.2542	2667.6846	2896.95	2009.2
993.3776	2668.9354	2897.1	2006.05
993.501	2670.1856	2899.1	2008.55
993.6244	2671.4351	2893.4	2006.5
993.7477	2672.6839	2871.55	1982.45
993.8709	2673.9321	2878.6	1992.15
993.9942	2675.1795	2861.2	1972.6
994.1174	2676.4263	2860.45	1970.35
994.2405	2677.6724	2857.15	1967.5
994.3637	2678.9179	2860.05	1970.95
994.4868	2680.1626	2858.1	1968.05
994.6098	2681.4067	2855.45	1967.45
994.7328	2682.6501	2840.75	1952.45
994.8558	2683.8928	2838.1	1949.05
994.9788	2685.1348	2843.55	1956.35
995.1017	2686.3761	2813.6	1925.9
995.2245	2687.6168	2803.55	1915.65
995.3474	2688.8568	2801.35	1912.6
995.4702	2690.0961	2787.45	1899.85
995.5929	2691.3348	2795.3	1906.4
995.7156	2692.5727	2782.7	1895.15
995.8383	2693.81	2772.7	1885.6
995.961	2695.0466	2771.9	1886
996.0836	2696.2826	2769.2	1881.25
996.2062	2697.5178	2780.35	1890.35
996.3287	2698.7524	2760.15	1871.25
996.4512	2699.9863	2747.4	1856.8
996.5737	2701.2195	2727.95	1841.8
996.6961	2702.452	2743.9	1855.35
996.8185	2703.6839	2739.65	1850.4
996.9408	2704.9151	2723.85	1835.5
997.0631	2706.1456	2725.05	1835.9
997.1854	2707.3755	2730.35	1839.4
997.3077	2708.6046	2725.8	1836.25
997.4299	2709.8331	2717.45	1827.3
997.552	2711.0609	2719.85	1833.7
997.6742	2712.2881	2730.45	1842.9
997.7963	2713.5145	2723.25	1832.7
997.9183	2714.7403	2730.35	1843.65
998.0403	2715.9654	2727.45	1839.05
998.1623	2717.1899	2732.95	1831.2
998.2842	2718.4136	2736.4	1848.1
998.4062	2719.6367	2722.7	1835.1
998.528	2720.8591	2723.85	1830.2
998.6498	2722.0809	2713.85	1825.65
998.7716	2723.3019	2736.3	1845.3
998.8934	2724.5223	2732.15	1841.5
999.0151	2725.7421	2732.15	1842.85
999.1368	2726.9611	2730.6	1843.05
999.2584	2728.1795	2715.4	1822.75
999.38	2729.3972	2704.25	1816.05
999.5016	2730.6142	2704	1807.85
999.6231	2731.8306	2677.45	1789.05
999.7446	2733.0462	2665.9	1776.3
999.8661	2734.2612	2646.7	1753.25
999.9875	2735.4756	2640.1	1749.3
1000.1089	2736.6892	2609.3	1720.6
1000.2302	2737.9022	2590.75	1704.05
1000.3515	2739.1145	2569.4	1684.55
1000.4728	2740.3262	2570.35	1676.5
1000.594	2741.5372	2552.5	1665.95
1000.7152	2742.7475	2529.65	1641.7
1000.8363	2743.9571	2539.25	1650.95
1000.9575	2745.1661	2531.8	1640.15
1001.0785	2746.3744	2504.15	1616.5
1001.1996	2747.582	2493.8	1604.45
1001.3206	2748.7889	2493.6	1604.1
1001.4415	2749.9952	2478.1	1591.9
1001.5625	2751.2008	2479.2	1591.8
1001.6833	2752.4057	2465.35	1577.35
1001.8042	2753.61	2438.45	1549.75
1001.925	2754.8136	2459.1	1571.55
1002.0458	2756.0165	2439	1552.9
1002.1665	2757.2188	2442.25	1555.15
1002.2872	2758.4204	2437	1549.6
1002.4078	2759.6213	2424.55	1536.05
1002.5285	2760.8215	2430.95	1539
1002.649	2762.0211	2416.55	1527.8
1002.7696	2763.22	2415.9	1526
1002.8901	2764.4182	2398.65	1510.5
1003.0106	2765.6158	2399.85	1512.6
1003.131	2766.8127	2393.85	1505.4
1003.2514	2768.009	2387.25	1500.45
1003.3717	2769.2045	2372.8	1485.55
1003.492	2770.3994	2388.25	1499.9
1003.6123	2771.5936	2372.1	1485.2
1003.7325	2772.7872	2361	1475.7
1003.8527	2773.9801	2350.55	1462
1003.9729	2775.1723	2367.1	1466.3
1004.093	2776.3639	2341	1455.7
1004.2131	2777.5548	2332.4	1444.1
1004.3331	2778.745	2340.25	1452.2
1004.4531	2779.9346	2320.75	1435.75
1004.5731	2781.1235	2323.3	1434.75
1004.693	2782.3117	2318.75	1434.05
1004.8129	2783.4992	2326.6	1440.2
1004.9328	2784.6861	2325.15	1438.9
1005.0526	2785.8723	2328.15	1441.95
1005.1723	2787.0579	2310.6	1423.15
1005.2921	2788.2428	2317.3	1430.05
1005.4118	2789.427	2305.6	1419.25
1005.5314	2790.6106	2314.05	1428.2
1005.651	2791.7935	2307.65	1419.8
1005.7706	2792.9757	2316.6	1431.5
1005.8902	2794.1573	2322.2	1431.55
1006.0097	2795.3382	2320	1432.4
1006.1291	2796.5184	2325.5	1440.75
1006.2485	2797.698	2334.15	1446.15
1006.3679	2798.8769	2332.35	1448.55
1006.4873	2800.0551	2334.15	1447.55
1006.6066	2801.2327	2347.75	1457.6
1006.7258	2802.4096	2341.4	1456.45
1006.8451	2803.5859	2347.2	1459.5
1006.9642	2804.7615	2355.25	1469.15
1007.0834	2805.9364	2364.45	1478.25
1007.2025	2807.1106	2385.3	1499.3
1007.3216	2808.2842	2401.4	1514.75
1007.4406	2809.4572	2412	1526.95
1007.5596	2810.6294	2431.8	1543.35
1007.6785	2811.801	2458.8	1574.15
1007.7975	2812.972	2475.05	1589.6
1007.9163	2814.1423	2511.1	1625.2
1008.0352	2815.3119	2539.4	1653.5
1008.154	2816.4808	2562.45	1676.6
1008.2727	2817.6491	2594.05	1708.15
1008.3914	2818.8167	2631.4	1746.3
1008.5101	2819.9837	2673.05	1781.15
1008.6288	2821.15	2704.05	1818.6
1008.7474	2822.3157	2741.25	1855.6
1008.8659	2823.4807	2791.4	1905.3
1008.9844	2824.645	2825.35	1938.95
1009.1029	2825.8086	2861.85	1978.85
1009.2214	2826.9716	2893.7	2008.2
1009.3398	2828.134	2920.75	2034.3
1009.4581	2829.2957	2962.25	2075.25
1009.5764	2830.4567	2987.3	2102.55
1009.6947	2831.617	2999.2	2113
1009.813	2832.7767	3006.85	2121.45
1009.9312	2833.9358	2992.7	2109.35
1010.0493	2835.0941	2997.45	2110.75
1010.1675	2836.2519	2987	2099.6
1010.2855	2837.4089	2966.65	2081.3
1010.4036	2838.5653	2934.95	2048.9
1010.5216	2839.7211	2938.5	2054.5
1010.6396	2840.8761	2933.1	2045.2
1010.7575	2842.0306	2945.65	2061.45
1010.8754	2843.1843	2953.95	2068.25
1010.9932	2844.3374	2985.45	2098.4
1011.111	2845.4899	3001.65	2116.45
1011.2288	2846.6417	3047.05	2161.65
1011.3465	2847.7928	3088.85	2203.1
1011.4642	2848.9433	3144.35	2258.35
1011.5818	2850.0931	3187.7	2301.3
1011.6995	2851.2422	3235.85	2349.2
1011.817	2852.3907	3265.25	2378.9
1011.9345	2853.5385	3308.45	2422.4
1012.052	2854.6857	3357.95	2466.05
1012.1695	2855.8323	3378.25	2494.1
1012.2869	2856.9781	3413.3	2529.7
1012.4042	2858.1233	3456.2	2570.95
1012.5216	2859.2679	3481.1	2594.1
1012.6389	2860.4118	3514.5	2628.35
1012.7561	2861.555	3552.2	2662.7
1012.8733	2862.6976	3563.5	2676.55
1012.9905	2863.8395	3582	2697.4
1013.1076	2864.9808	3603.7	2718.7
1013.2247	2866.1214	3621.95	2736.8
1013.3417	2867.2614	3645.35	2759.8
1013.4587	2868.4007	3641.4	2754.8
1013.5757	2869.5393	3642.85	2754.8
1013.6926	2870.6773	3667.8	2780.8
1013.8095	2871.8146	3666.7	2779.55
1013.9263	2872.9513	3649.55	2762.3
1014.0431	2874.0874	3642	2757.6
1014.1599	2875.2227	3630.3	2744.85
1014.2766	2876.3574	3629	2746.25
1014.3933	2877.4915	3597.05	2712.85
1014.51	2878.6249	3566.35	2682.6
1014.6266	2879.7577	3557.4	2669.75
1014.7431	2880.8898	3547.15	2651.7
1014.8596	2882.0212	3527.7	2642.55
1014.9761	2883.152	3505.05	2620
1015.0925	2884.2821	3491.5	2606.8
1015.2089	2885.4116	3495.6	2611.6
1015.3253	2886.5405	3479.4	2594.05
1015.4416	2887.6686	3478.05	2589.7
1015.5579	2888.7962	3472.95	2590.4
1015.6741	2889.923	3492.25	2607.9
1015.7903	2891.0493	3495.45	2611.75
1015.9065	2892.1748	3492.5	2607.35
1016.0226	2893.2997	3484.35	2599.25
1016.1387	2894.424	3505.45	2622.55
1016.2547	2895.5476	3513.8	2629.45
1016.3707	2896.6706	3518.9	2636.5
1016.4866	2897.7929	3542.8	2656.75
1016.6025	2898.9145	3561.5	2676.4
1016.7184	2900.0355	3572.55	2685.95
1016.8342	2901.1559	3591.15	2705.45
1016.95	2902.2756	3602.55	2718.15
1017.0658	2903.3946	3631.4	2746.4
1017.1815	2904.513	3645.45	2757.25
1017.2971	2905.6308	3650.6	2766.75
1017.4127	2906.7479	3676	2791
1017.5283	2907.8643	3697.95	2813.55
1017.6439	2908.9801	3696.4	2812.2
1017.7594	2910.0953	3695.05	2810.95
1017.8748	2911.2098	3692.45	2805.4
1017.9902	2912.3236	3702.85	2810.9
1018.1056	2913.4368	3678.7	2788.7
1018.2209	2914.5494	3666.25	2780.85
1018.3362	2915.6613	3643.9	2754.6
1018.4515	2916.7725	3617.05	2729
1018.5667	2917.8831	3589.5	2705.2
1018.6819	2918.9931	3565.35	2678.1
1018.797	2920.1024	3539.3	2653.35
1018.9121	2921.211	3526.05	2641.35
1019.0271	2922.319	3490.8	2604.75
1019.1421	2923.4264	3494.4	2613.85
1019.2571	2924.5331	3484.9	2601.85
1019.372	2925.6391	3479	2597.6
1019.4869	2926.7445	3461.9	2579.45
1019.6017	2927.8493	3456.85	2572.4
1019.7165	2928.9534	3461.45	2578.5
1019.8313	2930.0569	3458.05	2570.6
1019.946	2931.1597	3457.6	2570.85
1020.0606	2932.2619	3455.6	2570.85
1020.1753	2933.3634	3447.3	2564.1
1020.2899	2934.4643	3466.1	2574.95
1020.4044	2935.5645	3440.5	2549.95
1020.5189	2936.6641	3422.6	2531.95
1020.6334	2937.763	3391.3	2508.4
1020.7478	2938.8613	3366.6	2481.5
1020.8622	2939.959	3328.9	2439.7
1020.9765	2941.056	3273.5	2389.75
1021.0908	2942.1523	3223.8	2338.05
1021.2051	2943.248	3165.75	2281.65
1021.3193	2944.3431	3097.6	2213
1021.4334	2945.4375	3026.75	2142.9
1021.5476	2946.5313	2948.7	2065.75
1021.6617	2947.6244	2860.4	1974.65
1021.7757	2948.7169	2780.05	1895.1
1021.8897	2949.8087	2721.7	1837.5
1022.0037	2950.8999	2651.2	1767.15
1022.1176	2951.9904	2586.25	1700.7
1022.2315	2953.0803	2529.85	1644.05
1022.3453	2954.1696	2483.15	1598.5
1022.4591	2955.2582	2443.5	1561.7
1022.5728	2956.3462	2412.6	1530.5
1022.6865	2957.4335	2367.35	1482.85
1022.8002	2958.5202	2333.25	1447.2
1022.9138	2959.6062	2314.8	1429.6
1023.0274	2960.6916	2297.7	1414.5
1023.141	2961.7764	2285.9	1400.65
1023.2545	2962.8605	2273.4	1389.25
1023.3679	2963.9439	2251.5	1367.85
1023.4813	2965.0267	2233.3	1348.65
1023.5947	2966.1089	2251.75	1346.55
1023.708	2967.1905	2220.35	1335.95
1023.8213	2968.2714	2225.65	1344.15
1023.9346	2969.3516	2218.95	1337.4
1024.0478	2970.4312	2234.5	1344.95
1024.1609	2971.5102	2220.9	1338.35
1024.274	2972.5885	2214.8	1332.15
1024.3871	2973.6662	2233.55	1345
1024.5002	2974.7432	2216.45	1334.3
1024.6132	2975.8196	2215.2	1331.1
1024.7261	2976.8954	2207.65	1325.3
1024.839	2977.9705	2186.9	1305.05
1024.9519	2979.045	2197.9	1313.4
1025.0647	2980.1188	2177.45	1294.6
1025.1775	2981.192	2162.05	1279.2
1025.2902	2982.2645	2139.9	1254.4
1025.4029	2983.3364	2127.3	1244.2
1025.5156	2984.4077	2105.55	1221.45
1025.6282	2985.4783	2088.9	1199.55
1025.7407	2986.5483	2063.15	1181.25
1025.8532	2987.6177	2028.5	1144.65
1025.9657	2988.6864	2006.45	1123.1
1026.0782	2989.7545	1981.05	1098.25
1026.1906	2990.8219	1952.35	1070.55
1026.3029	2991.8887	1918.45	1034.1
1026.4152	2992.9548	1908.7	1024.8
1026.5275	2994.0204	1880.5	998.05
1026.6397	2995.0852	1839.15	956.55
1026.7519	2996.1495	1834.05	950.55
1026.864	2997.2131	1810.2	927.3
1026.9761	2998.276	1787.8	903.75
1027.0882	2999.3383	1770.85	887.05
1027.2002	3000.4	1751.45	866.55
1027.3122	3001.4611	1738.15	854.2
1027.4241	3002.5215	1724.15	841.15
1027.536	3003.5812	1705.6	822.15
1027.6478	3004.6404	1696	812.45
1027.7596	3005.6989	1688.8	803.2
1027.8714	3006.7567	1669.95	786.65
1027.9831	3007.8139	1672.95	770.75
1028.0947	3008.8705	1659.1	774.55
1028.2064	3009.9264	1666.7	765.1
1028.3179	3010.9818	1652.65	768.25
1028.4295	3012.0364	1642.1	756.5
1028.541	3013.0905	1635	751.45
1028.6524	3014.1439	1626.65	743.1
1028.7638	3015.1966	1624.05	742.6
1028.8752	3016.2487	1622.8	737
1028.9865	3017.3002	1612.45	725.55
1029.0978	3018.3511	1607.25	727.3
1029.209	3019.4013	1613.25	730.95
1029.3202	3020.4509	1602.45	718.35
1029.4314	3021.4998	1600.55	716.9
1029.5425	3022.5481	1599.8	715.25
1029.6535	3023.5958	1599.1	717.95
1029.7645	3024.6428	1595.75	710.5
1029.8755	3025.6892	1594.95	710.75
1029.9864	3026.735	1595.4	710.6
1030.0973	3027.7802	1586.9	702.75
1030.2082	3028.8247	1587.25	704.4
1030.319	3029.8685	1582.1	697.75
1030.4297	3030.9118	1579.05	695.7
1030.5404	3031.9544	1580	696.3
1030.6511	3032.9963	1589.5	707.95
1030.7617	3034.0376	1580.7	697
1030.8723	3035.0783	1582.95	697.05
1030.9829	3036.1184	1582.2	698.55
1031.0934	3037.1578	1580.15	698.85
1031.2038	3038.1966	1583.6	699.25
1031.3142	3039.2348	1577.95	696.2
1031.4246	3040.2723	1587.95	697.65
1031.5349	3041.3092	1580.5	698.35
1031.6452	3042.3455	1579.15	696.3
1031.7554	3043.3811	1572.55	688.85
1031.8656	3044.4161	1569.1	686.7
1031.9758	3045.4505	1563.9	682.6
1032.0859	3046.4842	1566.55	681.9
1032.1959	3047.5173	1553.9	672.65
1032.3059	3048.5498	1557.95	672.25
1032.4159	3049.5816	1553.5	672.05
1032.5258	3050.6128	1548.05	663.05
1032.6357	3051.6434	1545.15	661
1032.7455	3052.6734	1535.4	652.05
1032.8553	3053.7027	1537.15	654.3
1032.9651	3054.7314	1544	661.5
1033.0748	3055.7594	1523.05	640.8
1033.1845	3056.7868	1526.15	641.8
1033.2941	3057.8136	1515.9	632.55
1033.4037	3058.8398	1510.15	627.15
1033.5132	3059.8653	1508.9	625.9
1033.6227	3060.8902	1505.75	623.4
1033.7321	3061.9145	1503.9	622.55
1033.8415	3062.9381	1494.4	612.7
1033.9509	3063.9612	1512.3	614.3
1034.0602	3064.9835	1496.6	614.15
1034.1694	3066.0053	1492.35	606.5
1034.2787	3067.0264	1473.35	591.8
1034.3878	3068.0469	1482.65	599.95
1034.497	3069.0668	1477.8	593.65
1034.6061	3070.086	1464.55	583.5
1034.7151	3071.1046	1466.3	583.15
1034.8241	3072.1226	1453.3	567.8
1034.9331	3073.1399	1453.7	570.65
1035.042	3074.1567	1441.35	556.65
1035.1508	3075.1727	1441.75	556
1035.2597	3076.1882	1429.75	546.8
1035.3684	3077.203	1427.1	544.15
1035.4772	3078.2173	1419.55	534
1035.5859	3079.2308	1410.7	526.5
1035.6945	3080.2438	1404.45	519.4
1035.8031	3081.2561	1397.5	513.6
1035.9117	3082.2678	1391.15	508.7
1036.0202	3083.2789	1383.25	500.3
1036.1286	3084.2893	1381	499.65
1036.2371	3085.2991	1378.2	496.65
1036.3454	3086.3083	1375.35	487.35
1036.4538	3087.3169	1368	486.45
1036.562	3088.3248	1361.85	477.25
1036.6703	3089.3321	1356.5	474.6
1036.7785	3090.3388	1338.9	456.4
1036.8866	3091.3449	1345.45	462.7
1036.9948	3092.3503	1343.2	458.45
1037.1028	3093.3551	1336.3	455.35
1037.2108	3094.3593	1333.25	452
1037.3188	3095.3629	1329.65	447.8
1037.4267	3096.3658	1334.75	451.15
1037.5346	3097.3681	1323.8	442.7
1037.6425	3098.3698	1322.65	436.3
1037.7503	3099.3708	1327.35	437.25
1037.858	3100.3713	1309.85	429.2
1037.9657	3101.3711	1308.65	423.95
1038.0734	3102.3702	1438.85	425.05
1038.181	3103.3688	1308.75	426.15
1038.2886	3104.3667	1297.05	414.95
1038.3961	3105.364	1298.9	415.85
1038.5036	3106.3607	1291.05	408.55
1038.611	3107.3568	1291.35	407.35
1038.7184	3108.3522	1288.65	409.8
1038.8257	3109.347	1287.65	405.35
1038.933	3110.3412	1288.6	401.3
1039.0403	3111.3348	1274.35	393.4
1039.1475	3112.3277	1273.9	391.75
1039.2547	3113.32	1270.15	389.5
1039.3618	3114.3117	1274.2	390.9
1039.4689	3115.3028	1270.65	390.15
1039.5759	3116.2932	1265.7	383.1
1039.6829	3117.2831	1274.95	385.9
1039.7898	3118.2723	1256.15	373.25
1039.8967	3119.2608	1254.85	372.4
1040.0035	3120.2488	1253.4	369.95
1040.1103	3121.2361	1255.2	372.45
1040.2171	3122.2229	1250.25	367.25
1040.3238	3123.209	1242.55	360.75
1040.4305	3124.1944	1244.9	363.65
1040.5371	3125.1793	1248.6	364.25
1040.6437	3126.1635	1243.3	361.9
1040.7502	3127.1471	1235.9	352.65
1040.8567	3128.1301	1226.45	346.4
1040.9631	3129.1125	1232.45	352.35
1041.0695	3130.0942	1234.65	351.15
1041.1759	3131.0753	1238.5	347.2
1041.2822	3132.0558	1235.7	350.8
1041.3884	3133.0357	1223.6	342.45
1041.4946	3134.015	1231.95	351.15
1041.6008	3134.9936	1223.55	340.8
1041.7069	3135.9716	1241.35	338.7
1041.813	3136.949	1219.55	339.5
1041.919	3137.9258	1235.45	336.4
1042.025	3138.902	1222.25	334.65
1042.1309	3139.8775	1214.95	333.1
1042.2368	3140.8524	1210.9	330.1
1042.3427	3141.8267	1212	328.6
1042.4485	3142.8004	1211.35	327.85
1042.5542	3143.7735	1215.1	327.55
1042.6599	3144.7459	1205.35	323.9
1042.7656	3145.7178	1206.25	325
1042.8712	3146.689	1202.25	321.1
1042.9768	3147.6596	1199.6	314.9
1043.0823	3148.6295	1200.05	317.3
1043.1878	3149.5989	1195.1	313.15
1043.2932	3150.5676	1188.95	308.1
1043.3986	3151.5357	1183.85	302.6
1043.5039	3152.5032	1185.05	304
1043.6092	3153.4701	1185.8	304.5
1043.7145	3154.4364	1192.05	308.05
1043.8197	3155.402	1183.8	305.1
1043.9248	3156.367	1187.65	303.7
1044.03	3157.3315	1217.4	299.9
1044.135	3158.2952	1179.65	299.05
1044.24	3159.2584	1176.6	295.9
1044.345	3160.221	1174.05	292
1044.4499	3161.1829	1171.25	288.9
1044.5548	3162.1442	1171.05	287.5
1044.6596	3163.105	1169.2	289.75
1044.7644	3164.065	1165.55	281.45
1044.8692	3165.0245	1167.8	283
1044.9739	3165.9834	1167.6	287
1045.0785	3166.9416	1164.35	283.2
1045.1831	3167.8993	1164.05	281.3
1045.2877	3168.8563	1157	275.7
1045.3922	3169.8127	1158.25	276
1045.4966	3170.7684	1157.3	275.6
1045.6011	3171.7236	1158.05	276.35
1045.7054	3172.6782	1156.25	274.6
1045.8098	3173.6321	1153.15	271.7
1045.914	3174.5854	1154.7	269.8
1046.0183	3175.5381	1152.4	272.45
1046.1224	3176.4902	1147.95	268.2
1046.2266	3177.4417	1146.25	265
1046.3307	3178.3926	1141.05	260.4
1046.4347	3179.3428	1139.6	258.95
1046.5387	3180.2924	1142.5	262.35
1046.6427	3181.2415	1139.9	258.45
1046.7466	3182.1899	1142.35	258.2
1046.8504	3183.1377	1136.85	255.05
1046.9542	3184.0848	1138.2	254.75
1047.058	3185.0314	1135.15	253.4
1047.1617	3185.9773	1132.2	250.95
1047.2654	3186.9227	1134.75	252.45
1047.369	3187.8674	1133.25	250.5
1047.4726	3188.8115	1129.25	242.85
1047.5761	3189.755	1124.15	243.45
1047.6796	3190.6979	1125.75	242.05
1047.783	3191.6402	1124.7	245.25
1047.8864	3192.5818	1124.45	243.2
1047.9898	3193.5229	1129.65	241.1
1048.0931	3194.4633	1125.85	243.25
1048.1963	3195.4031	1119	237.65
1048.2995	3196.3423	1116.95	234.8
1048.4027	3197.2809	1115.85	233.8
1048.5058	3198.2189	1114.8	230.55
1048.6089	3199.1563	1114.05	225.65
1048.7119	3200.0931	1110.05	230.55
1048.8148	3201.0292	1112.2	230.25
1048.9178	3201.9648	1113.3	231.8
1049.0206	3202.8997	1113.45	228.15
1049.1235	3203.834	1110.5	228.75
1049.2262	3204.7677	1111.15	229.55
1049.329	3205.7008	1103.6	221.1
1049.4317	3206.6333	1104.15	222.6
1049.5343	3207.5652	1105.45	221.9
1049.6369	3208.4964	1098.4	218.65
1049.7394	3209.4271	1102.75	221.05
1049.8419	3210.3571	1100.85	220.1
1049.9444	3211.2865	1100.85	219.3
1050.0468	3212.2154	1096.1	213.95
1050.1491	3213.1436	1097.75	214.55
1050.2514	3214.0712	1099.5	211.6
1050.3537	3214.9982	1096.95	216.1
1050.4559	3215.9246	1090.9	208.25
1050.5581	3216.8503	1094.1	213.3
1050.6602	3217.7755	1089.35	208.55
1050.7623	3218.7001	1092.25	212.45
1050.8643	3219.624	1087.6	204.35
1050.9663	3220.5473	1087.15	207.2
1051.0682	3221.4701	1088.85	204.55
1051.1701	3222.3922	1091.35	208.6
1051.2719	3223.3137	1084.4	203
1051.3737	3224.2346	1084.1	202.7
1051.4754	3225.1549	1085.45	203.9
1051.5771	3226.0746	1080.15	199.95
1051.6788	3226.9937	1082.7	201.2
1051.7804	3227.9121	1081.65	202.6
1051.8819	3228.83	1078.25	198.35
1051.9834	3229.7473	1078.35	198.95
1052.0849	3230.6639	1074.75	193.3
1052.1863	3231.5799	1075	194.4
1052.2876	3232.4954	1072.25	191.8
1052.3889	3233.4102	1072.35	191.65
1052.4902	3234.3244	1076.1	193.8
1052.5914	3235.238	1070.6	190.7
1052.6926	3236.151	1091.4	185.75
1052.7937	3237.0634	1065.15	184.05
1052.8948	3237.9752	1067.8	184.55
1052.9958	3238.8864	1068.6	187.9
1053.0968	3239.797	1067	186.2
1053.1977	3240.7069	1067	184.15
1053.2986	3241.6163	1065.35	182.75
1053.3994	3242.5251	1058.65	177.95
1053.5002	3243.4332	1064.7	184.05
1053.6009	3244.3408	1057.85	177.25
1053.7016	3245.2477	1057.85	177.3
1053.8022	3246.154	1057.8	176.2
1053.9028	3247.0598	1057	173.35
1054.0034	3247.9649	1054.05	173.75
1054.1039	3248.8694	1048.9	166.45
1054.2043	3249.7733	1051.95	170.15
1054.3047	3250.6766	1052.45	170.85
1054.4051	3251.5793	1052.8	171.6
1054.5054	3252.4814	1051.6	170.9
1054.6056	3253.3829	1046.35	166.65
1054.7058	3254.2838	1047.8	166.45
1054.806	3255.1841	1047.85	168.25
1054.9061	3256.0838	1043.65	160.25
1055.0061	3256.9829	1039.3	158.3
1055.1062	3257.8814	1041.75	158.5
1055.2061	3258.7792	1043.8	161.75
1055.306	3259.6765	1044.15	163.65
1055.4059	3260.5731	1034.25	152.95
1055.5057	3261.4692	1033.65	150.95
1055.6055	3262.3647	1033.05	153.15
1055.7052	3263.2595	1030.7	149.05
1055.8049	3264.1538	1025.65	144.1
1055.9045	3265.0474	1028.25	146.4
1056.0041	3265.9404	1023.1	142.8
1056.1036	3266.8329	1022.2	143.85
1056.2031	3267.7247	1031.45	139.05
1056.3025	3268.616	1017	138.25
1056.4019	3269.5066	1015.9	136.4
1056.5013	3270.3966	1012.5	129.25
1056.6005	3271.286	1006.2	125.85
