Software Version:	3.9.2.0
Unit SN:	10000200
Spectrometer SN:	6960
Date:	3/26/2024 2:51:28 PM
Data Line Index:	25
Spectral Points:	2048
Integration time (ms):	125
Averages:	20
Delay (ms):	30000
Sequence Number:	1
Processing:	dark subtract
Laser Power (mW):	295
Laser Current (mA):	819
Laser Diode Temp (C):	25.1
Laser Case Temp (C):	28
System Temp (C):	28.1
Spectrometer Temp (C):	25.9
CCD Temp (C):	0.01
Secondary Temp (C):	20.007
Heatsink Temp (C):	23.646
CCDPCB Temp (C):	37.274
SecondaryPCB Temp (C):	34.906

Wavelength	RamanShift	Raw Counts	Dark Subtracted
787.061	30.1047	631.3	223.1
787.2016	32.3739	636.45	229
787.3422	34.6426	649.55	241.6
787.4828	36.9109	668.35	257.5
787.6235	39.1787	682.5	269.2
787.7642	41.4461	704.85	286.25
787.9049	43.7131	724.7	302.5
788.0456	45.9796	749.3	324.3
788.1863	48.2456	778.7	349.9
788.3271	50.5112	801.3	369.5
788.4679	52.7764	828.6	393.2
788.6087	55.0411	854.05	414.3
788.7496	57.3054	886.3	439.2
788.8904	59.5692	913	464.35
789.0313	61.8326	947.6	493.35
789.1722	64.0955	991.05	533.95
789.3132	66.3579	1033.5	570.95
789.4541	68.6199	1091.45	626.4
789.5951	70.8815	1180.35	712.65
789.7361	73.1426	1374.65	904.2
789.8771	75.4032	1842.1	1364.05
790.0181	77.6634	3051.05	2565.4
790.1592	79.9231	6032.6	5538.85
790.3003	82.1824	12873	12360.8
790.4414	84.4412	27612.1	27066.1
790.5825	86.6995	54201.25	53608.9
790.7237	88.9574	65348.85	64715.7
790.8648	91.2148	65535	64869.95
791.006	93.4717	65535	64852.15
791.1472	95.7282	65535	64840.65
791.2885	97.9842	65535	64836.8
791.4297	100.2398	65535	64833.9
791.571	102.4949	65535	64830.5
791.7123	104.7495	65535	64830.75
791.8536	107.0036	65535	64826.7
791.9949	109.2573	65535	64829.2
792.1363	111.5105	65535	64831.05
792.2777	113.7632	65535	64821.4
792.4191	116.0154	65535	64815.4
792.5605	118.2672	65535	64815.8
792.7019	120.5185	65535	64816.2
792.8434	122.7693	65535	64816.3
792.9849	125.0197	65535	64813.95
793.1264	127.2696	65535	64812.55
793.2679	129.519	65535	64803
793.4094	131.7679	65535	64797.85
793.551	134.0163	65535	64795.8
793.6926	136.2642	65535	64794.8
793.8342	138.5117	65535	64792.2
793.9758	140.7587	65535	64793.6
794.1175	143.0052	65535	64789.75
794.2591	145.2512	65535	64787.45
794.4008	147.4967	65535	64788.3
794.5425	149.7417	65535	64789.4
794.6842	151.9863	65535	64780.2
794.826	154.2304	65535	64781.7
794.9677	156.4739	65535	64780.25
795.1095	158.717	65535	64774.15
795.2513	160.9596	65535	64766
795.3931	163.2017	65535	64769.9
795.535	165.4433	65535	64767.25
795.6768	167.6844	65535	64766.75
795.8187	169.925	65535	64767.15
795.9606	172.1651	65535	64761.25
796.1025	174.4047	65535	64756.35
796.2445	176.6439	65535	64758.15
796.3864	178.8825	65535	64754.45
796.5284	181.1206	65535	64749.3
796.6704	183.3582	65535	64746.1
796.8124	185.5954	65535	64743.4
796.9544	187.832	65535	64741.8
797.0965	190.0681	65535	64733.25
797.2386	192.3037	65535	64734.35
797.3806	194.5388	65535	64733.95
797.5228	196.7734	65535	64728.7
797.6649	199.0075	65535	64726.65
797.807	201.2411	65535	64723.35
797.9492	203.4742	65535	64721.45
798.0914	205.7068	65535	64721.5
798.2336	207.9389	65535	64718.4
798.3758	210.1704	65535	64716.9
798.518	212.4015	65535	64715.05
798.6603	214.632	65535	64716.05
798.8025	216.862	65535	64723.3
798.9448	219.0915	65535	64731.95
799.0871	221.3205	65535	64731.25
799.2294	223.549	65535	64741.05
799.3718	225.777	65535	64739.15
799.5141	228.0044	65535	64734.3
799.6565	230.2314	65535	64735.95
799.7989	232.4578	65535	64734.4
799.9413	234.6837	65535	64729.6
800.0837	236.909	65535	64724.1
800.2262	239.1339	65535	64701.2
800.3687	241.3582	65535	64712.4
800.5111	243.582	65535	64679.45
800.6536	245.8053	65535	64695.9
800.7961	248.0281	65535	64706.2
800.9387	250.2503	65535	64703.3
801.0812	252.472	65535	64692.55
801.2238	254.6932	65535	64693.7
801.3664	256.9139	65535	64687.45
801.509	259.134	65535	64685.8
801.6516	261.3536	65535	64691
801.7942	263.5727	65535	64682.5
801.9369	265.7912	65535	64686.85
802.0795	268.0092	65535	64688.55
802.2222	270.2267	65535	64685.45
802.3649	272.4436	65535	64688.95
802.5076	274.6601	65535	64678.9
802.6504	276.8759	65535	64689.6
802.7931	279.0913	65535	64684.75
802.9359	281.3061	65535	64677.3
803.0787	283.5204	65535	64679.15
803.2215	285.7341	65535	64675.85
803.3643	287.9473	65535	64662.6
803.5071	290.16	65535	64665.7
803.6499	292.3721	65535	64675.2
803.7928	294.5837	65535	64672.65
803.9357	296.7947	65535	64671.9
804.0786	299.0052	65535	64675.2
804.2215	301.2152	65535	64668.4
804.3644	303.4246	65535	64670.95
804.5074	305.6334	65535	64677.5
804.6503	307.8418	65535	64674.1
804.7933	310.0495	65535	64671.55
804.9363	312.2568	65535	64669.55
805.0793	314.4635	65535	64666.45
805.2223	316.6696	65535	64662.1
805.3653	318.8752	65535	64658.85
805.5084	321.0802	65535	64665.6
805.6514	323.2847	65535	64660.9
805.7945	325.4887	65535	64659.3
805.9376	327.692	65535	64663.85
806.0807	329.8949	65535	64666.7
806.2238	332.0972	65535	64659.6
806.367	334.2989	65535	64652.95
806.5101	336.5001	65535	64657
806.6533	338.7007	65535	64655.6
806.7965	340.9008	65535	64656.35
806.9397	343.1003	65535	64654.75
807.0829	345.2992	65535	64652.15
807.2261	347.4976	65535	64649.8
807.3693	349.6955	65535	64647.4
807.5126	351.8927	65535	64645.05
807.6559	354.0895	65535	64635.9
807.7991	356.2856	65535	64646.65
807.9424	358.4812	65535	64647.9
808.0857	360.6763	65535	64645.9
808.2291	362.8707	65535	64642.5
808.3724	365.0646	65535	64642.65
808.5158	367.258	65535	64641.2
808.6591	369.4508	65535	64637.05
808.8025	371.643	65535	64635.8
808.9459	373.8346	65535	64638.75
809.0893	376.0257	65535	64634.6
809.2327	378.2162	65535	64635.5
809.3762	380.4062	65535	64633.45
809.5196	382.5956	65535	64633.35
809.6631	384.7844	65535	64633.05
809.8066	386.9726	65535	64627.85
809.9501	389.1603	65535	64635.3
810.0936	391.3474	65535	64590.05
810.2371	393.5339	65535	64627.8
810.3806	395.7199	65535	64639.65
810.5241	397.9052	65535	64639.7
810.6677	400.09	65535	64640.8
810.8113	402.2743	65535	64639
810.9548	404.4579	65535	64643.65
811.0984	406.641	65535	64643.25
811.2421	408.8235	65535	64640
811.3857	411.0054	65535	64644.2
811.5293	413.1868	65535	64636.55
811.673	415.3675	65535	64635.25
811.8166	417.5477	65535	64637.35
811.9603	419.7273	65535	64632.05
812.104	421.9064	65535	64626.5
812.2477	424.0848	65535	64632.1
812.3914	426.2627	65535	64630.25
812.5351	428.4399	65535	64633.85
812.6788	430.6166	65535	64625.2
812.8226	432.7928	65535	64622.3
812.9663	434.9683	65535	64628.85
813.1101	437.1432	65535	64628.2
813.2539	439.3176	65535	64631.7
813.3977	441.4914	65535	64634.85
813.5415	443.6645	65535	64628
813.6853	445.8371	65535	64624.9
813.8291	448.0091	65535	64627
813.973	450.1806	65535	64629.95
814.1168	452.3514	65535	64628.5
814.2607	454.5216	65535	64619.75
814.4046	456.6913	65535	64630.05
814.5485	458.8603	65535	64629
814.6924	461.0288	65535	64630.05
814.8363	463.1967	65535	64632.15
814.9802	465.3639	65535	64628.1
815.1241	467.5306	65535	64628.15
815.2681	469.6967	65535	64630.9
815.412	471.8622	65535	64631.75
815.556	474.0271	65535	64627.5
815.7	476.1914	65535	64624.95
815.844	478.3551	65535	64626.85
815.988	480.5182	65535	64625.05
816.132	482.6807	65535	64634.3
816.276	484.8426	65535	64641.6
816.4201	487.0039	65535	64634.75
816.5641	489.1647	65535	64626.95
816.7082	491.3248	65535	64626.35
816.8522	493.4843	65535	64630.95
816.9963	495.6432	65535	64629.4
817.1404	497.8015	65535	64621.4
817.2845	499.9592	65535	64615.55
817.4286	502.1163	65535	64616
817.5727	504.2728	65535	64628.9
817.7168	506.4287	65535	64633.65
817.861	508.5839	65535	64633.7
818.0051	510.7386	65535	64627.6
818.1493	512.8927	65535	64618.2
818.2935	515.0461	65535	64617.85
818.4377	517.199	65535	64617.15
818.5818	519.3512	65535	64618.8
818.726	521.5029	65535	64617.2
818.8703	523.6539	65535	64619
819.0145	525.8043	65535	64618.55
819.1587	527.9541	65535	64612
819.303	530.1033	65535	64618.9
819.4472	532.2519	65535	64619.3
819.5915	534.3999	65535	64616.1
819.7357	536.5472	65535	64623.15
819.88	538.694	65535	64623.6
820.0243	540.8401	65535	64615.3
820.1686	542.9856	65535	64603.8
820.3129	545.1305	65535	64599.95
820.4572	547.2748	65535	64604.15
820.6016	549.4185	65535	64599
820.7459	551.5615	65535	64603.65
820.8902	553.704	65535	64604.55
821.0346	555.8458	65535	64606.15
821.1789	557.987	65535	64609.5
821.3233	560.1276	65535	64607
821.4677	562.2675	65535	64607.95
821.6121	564.4069	65535	64605.25
821.7565	566.5456	65535	64610.85
821.9009	568.6837	65535	64611.45
822.0453	570.8212	65535	64613.3
822.1897	572.958	65535	64613.15
822.3342	575.0942	65535	64613.5
822.4786	577.2299	65535	64617.45
822.6231	579.3648	65535	64628.35
822.7675	581.4992	65535	64632.85
822.912	583.6329	65535	64634.05
823.0565	585.766	65535	64628.9
823.201	587.8985	65535	64624
823.3454	590.0304	65535	64605.85
823.4899	592.1616	65535	64610.2
823.6345	594.2922	65535	64607.05
823.779	596.4222	65535	64604.3
823.9235	598.5515	65535	64601.85
824.068	600.6802	65535	64604.75
824.2126	602.8083	65535	64607.05
824.3571	604.9358	65535	64604.25
824.5017	607.0626	65535	64601.85
824.6462	609.1888	65535	64598.4
824.7908	611.3144	65535	64596.2
824.9354	613.4393	65535	64599.75
825.08	615.5636	65535	64599
825.2246	617.6873	65535	64603.2
825.3692	619.8103	65535	64601.25
825.5138	621.9327	65535	64605.3
825.6584	624.0544	65535	64607.75
825.803	626.1756	65535	64607.5
825.9477	628.2961	65535	64602.45
826.0923	630.4159	65535	64602.4
826.237	632.5351	65534.5	64599.25
826.3816	634.6537	65535	64598.4
826.5263	636.7716	65531.4	64591.15
826.6709	638.8889	65535	64598.35
826.8156	641.0056	65535	64593.45
826.9603	643.1216	65535	64598.15
827.105	645.237	65535	64597.2
827.2497	647.3518	65531.95	64605.35
827.3944	649.4659	65535	64613.7
827.5391	651.5793	65535	64608.35
827.6838	653.6922	65535	64608.05
827.8285	655.8043	65507.05	64575.65
827.9733	657.9159	65535	64601.8
828.118	660.0268	65402.9	64470.85
828.2627	662.137	65529.95	64596.15
828.4075	664.2466	65528.9	64586.65
828.5522	666.3556	65501.85	64564.45
828.697	668.4639	65532.55	64594.7
828.8418	670.5716	65495.2	64566.05
828.9865	672.6786	65526.6	64590.3
829.1313	674.785	65494.35	64556.5
829.2761	676.8907	65500.55	64571.4
829.4209	678.9958	65526.5	64596.7
829.5657	681.1002	65527.35	64594.05
829.7105	683.204	65489	64543.4
829.8553	685.3072	65406.4	64467.3
830.0001	687.4097	65462.8	64521.75
830.1449	689.5115	65386.95	64450.9
830.2898	691.6127	65496.55	64562.05
830.4346	693.7132	65397.4	64462.5
830.5794	695.8131	65389.4	64434.6
830.7243	697.9123	65426.3	64480.1
830.8691	700.0109	65428.1	64481.55
831.014	702.1089	65251.3	64311.95
831.1588	704.2061	65303	64361.8
831.3037	706.3028	65316.2	64374.15
831.4486	708.3987	65366.7	64424.05
831.5935	710.4941	65297.8	64356.85
831.7383	712.5887	65427.5	64489.25
831.8832	714.6827	65350.5	64412.85
832.0281	716.7761	65478	64542.9
832.173	718.8688	65497.7	64557.4
832.3179	720.9608	65419.2	64472.05
832.4628	723.0522	65388.25	64442.5
832.6077	725.1429	65257.3	64314.35
832.7527	727.233	65493.1	64554.7
832.8976	729.3224	64864.85	63923.05
833.0425	731.4112	65136.3	64192.05
833.1874	733.4993	65123.75	64178.7
833.3324	735.5867	65124.3	64188.45
833.4773	737.6735	64930.3	63987.25
833.6222	739.7596	64708.3	63764.75
833.7672	741.845	64673.35	63731.35
833.9122	743.9298	65047.5	64102.3
834.0571	746.014	64632.5	63690.25
834.2021	748.0974	64291.95	63341.25
834.347	750.1802	64957.7	64007
834.492	752.2624	64175.9	63228.35
834.637	754.3439	64292.4	63344.4
834.782	756.4247	64486.6	63531.55
834.9269	758.5048	64135.15	63189.05
835.0719	760.5843	64290.4	63343.35
835.2169	762.6631	64524.2	63579.05
835.3619	764.7413	64430.5	63486.35
835.5069	766.8188	64574.8	63630.3
835.6519	768.8956	64940.8	63990.6
835.7969	770.9718	64884.05	63940.25
835.9419	773.0473	64720.45	63775.9
836.0869	775.1221	64127.2	63180.05
836.232	777.1962	64043.35	63097.5
836.377	779.2697	63349.1	62401.65
836.522	781.3426	63840.6	62882.1
836.667	783.4147	64133.45	63185.1
836.8121	785.4862	64148.95	63199.95
836.9571	787.557	63540.3	62595.05
837.1021	789.6271	64013.1	63061.65
837.2472	791.6966	63303.25	62357.95
837.3922	793.7654	62400.35	61453.3
837.5373	795.8335	62369.1	61421.1
837.6823	797.901	62577.1	61630.5
837.8274	799.9678	62122.7	61171.45
837.9724	802.0339	61987.05	61040
838.1175	804.0993	62112.6	61153.25
838.2626	806.1641	61799.65	60848.65
838.4076	808.2282	61591.85	60643.7
838.5527	810.2916	61294.9	60346.75
838.6978	812.3544	61766.95	60823.1
838.8428	814.4164	60784.05	59836.7
838.9879	816.4778	60866.3	59915.8
839.133	818.5385	60926	59974.3
839.2781	820.5986	60785	59833.4
839.4232	822.658	60866.2	59915.6
839.5682	824.7166	60856.65	59907
839.7133	826.7747	60038.5	59084.85
839.8584	828.832	60453.45	59504.2
840.0035	830.8886	60887.8	59935.9
840.1486	832.9446	60917.1	59965.4
840.2937	834.9999	59591.75	58643.95
840.4388	837.0545	60373.3	59418.85
840.5839	839.1085	60741.5	59791.1
840.729	841.1618	60472.55	59520.6
840.8741	843.2143	59558.4	58605.6
841.0192	845.2662	59522.65	58570.85
841.1643	847.3175	59802.35	58854.45
841.3095	849.368	58700.55	57750.55
841.4546	851.4179	59443.2	58494.65
841.5997	853.467	58643.95	57692.95
841.7448	855.5155	58809.9	57860.1
841.8899	857.5633	58176.7	57223.65
842.0351	859.6105	57792.9	56840.55
842.1802	861.6569	58044.25	57091.95
842.3253	863.7027	57311.25	56361.55
842.4704	865.7478	57497.95	56545.4
842.6156	867.7922	57330.35	56379.7
842.7607	869.8359	57726.55	56773.4
842.9058	871.8789	56965.85	56016.5
843.0509	873.9212	57518.35	56535.5
843.1961	875.9629	57552.1	56599.7
843.3412	878.0039	57583.5	56633.5
843.4863	880.0441	57302.35	56352.8
843.6315	882.0837	57201.3	56251.05
843.7766	884.1226	57040.65	56091.35
843.9218	886.1609	56863.1	55912.15
844.0669	888.1984	56467.55	55516.95
844.212	890.2352	56795.85	55845.35
844.3572	892.2714	56056.5	55104
844.5023	894.3069	56242.65	55288.9
844.6475	896.3416	55953.1	54999.3
844.7926	898.3757	55841.05	54889.5
844.9377	900.4091	55221.95	54264.95
845.0829	902.4418	55803.15	54841.45
845.228	904.4739	55226.05	54269.5
845.3732	906.5052	55375.3	54418.75
845.5183	908.5358	54973.9	54022.15
845.6635	910.5658	54586.8	53634.45
845.8086	912.595	54460.4	53504.85
845.9538	914.6236	53893.9	52940.75
846.0989	916.6515	54538.75	53582.35
846.2441	918.6786	53589.25	52634.6
846.3892	920.7051	53846.05	52890.95
846.5344	922.7309	53803.05	52848.8
846.6795	924.756	53860.3	52907.35
846.8246	926.7804	53601.75	52646.8
846.9698	928.8041	53098	52140.95
847.1149	930.8272	53299.9	52346.1
847.2601	932.8495	53103.95	52150.55
847.4052	934.8711	52637.05	51685.95
847.5504	936.892	52330.95	51375.4
847.6955	938.9123	52185.4	51230
847.8407	940.9318	51814.25	50860.15
847.9858	942.9506	51498.95	50545.25
848.131	944.9688	51403.5	50453.2
848.2761	946.9862	50904.85	49955.65
848.4213	949.003	50832.45	49880.1
848.5664	951.019	50483.8	49529.2
848.7115	953.0344	50479.6	49525.2
848.8567	955.0491	50353.5	49400.7
849.0018	957.063	50474.55	49520.45
849.147	959.0763	50537.55	49576.55
849.2921	961.0888	50336.2	49380.05
849.4373	963.1007	50428.05	49478.95
849.5824	965.1119	50293.2	49348.55
849.7275	967.1223	50157.95	49219.8
849.8727	969.1321	50207.15	49265.35
850.0178	971.1412	49977.3	49033.05
850.1629	973.1495	49805.3	48857.45
850.3081	975.1572	49898.95	48904.8
850.4532	977.1641	49737.95	48786.65
850.5983	979.1704	49536.8	48585.7
850.7435	981.1759	49438.3	48480.05
850.8886	983.1808	49374.1	48419.6
851.0337	985.1849	49324.55	48363.45
851.1788	987.1884	49360.15	48405.35
851.324	989.1911	49501.85	48549.5
851.4691	991.1932	49455.55	48504.95
851.6142	993.1945	49348.3	48401.15
851.7593	995.1951	49095.5	48140.45
851.9045	997.1951	48909.1	47951.85
852.0496	999.1943	48656.15	47703.4
852.1947	1001.1928	48402.3	47450.2
852.3398	1003.1906	48227.3	47275.95
852.4849	1005.1877	48108.2	47154.8
852.63	1007.1841	47841.75	46891.4
852.7751	1009.1798	47537.05	46587.5
852.9202	1011.1748	47103.7	46151.55
853.0653	1013.1691	46781.05	45829.95
853.2104	1015.1627	46369.65	45418.6
853.3555	1017.1556	45928.35	44976.7
853.5006	1019.1477	45776.1	44827.2
853.6457	1021.1392	45419.85	44476.4
853.7908	1023.1299	45284.35	44345
853.9359	1025.12	45091.25	44153.55
854.081	1027.1093	44925.1	44000.5
854.2261	1029.0979	44810.1	43887.1
854.3712	1031.0859	44717.75	43788.3
854.5163	1033.0731	44515.55	43581.1
854.6613	1035.0596	44319.25	43377
854.8064	1037.0454	43985.75	43040.4
854.9515	1039.0304	43698.7	42752.75
855.0965	1041.0148	43444.45	42497.75
855.2416	1042.9985	43258.1	42310.75
855.3867	1044.9814	43203	42253.6
855.5317	1046.9636	42930.3	41981.15
855.6768	1048.9452	42761.35	41816.05
855.8219	1050.926	42669	41722.45
855.9669	1052.9061	42485.55	41536.9
856.112	1054.8855	42364.95	41417.95
856.257	1056.8642	42286	41341.2
856.4021	1058.8421	42216.4	41266.75
856.5471	1060.8194	42127.25	41178.25
856.6921	1062.7959	42060.7	41112.85
856.8372	1064.7717	41892	40939.7
856.9822	1066.7469	41808.85	40860.25
857.1272	1068.7213	41591.15	40639.05
857.2723	1070.695	41461.65	40515.25
857.4173	1072.6679	41196.45	40248.65
857.5623	1074.6402	41047.45	40100.55
857.7073	1076.6117	41022.3	40067.5
857.8523	1078.5826	40955.55	40004.8
857.9973	1080.5527	40878.25	39929.75
858.1423	1082.5221	40893.35	39943.9
858.2873	1084.4908	40996.9	40048.95
858.4323	1086.4587	41149.7	40205.6
858.5773	1088.426	41316	40369.5
858.7223	1090.3925	41060	40104.2
858.8673	1092.3584	40957.4	40009.35
859.0123	1094.3235	40479.75	39533.25
859.1573	1096.2879	40276.55	39325.6
859.3022	1098.2515	40135.6	39191.1
859.4472	1100.2145	40058.25	39111.7
859.5922	1102.1767	39978.9	39030.95
859.7371	1104.1382	40037.55	39090.4
859.8821	1106.099	40129.9	39180.2
860.027	1108.0591	40164.35	39215.8
860.172	1110.0185	40213.2	39264.2
860.3169	1111.9771	40125.5	39178.95
860.4619	1113.9351	39726.1	38778.45
860.6068	1115.8923	39280.55	38335.1
860.7517	1117.8488	38780.2	37831.4
860.8967	1119.8045	38337.6	37394.15
861.0416	1121.7596	38093.9	37148.35
861.1865	1123.7139	37970.05	37025.35
861.3314	1125.6675	37849.1	36905.15
861.4763	1127.6204	37921	36972.9
861.6212	1129.5726	37832.1	36883.4
861.7661	1131.524	37769.85	36822.45
861.911	1133.4748	37730.6	36782.7
862.0559	1135.4248	37612.4	36663.85
862.2008	1137.3741	37592.9	36650.4
862.3457	1139.3226	37425.95	36478.4
862.4905	1141.2705	37391.65	36444.5
862.6354	1143.2176	37140.3	36190
862.7803	1145.164	37066.1	36114.95
862.9251	1147.1097	36981.5	36033.8
863.07	1149.0546	36982.65	36036.85
863.2148	1150.9989	36805.5	35860.9
863.3597	1152.9424	36588.05	35642.8
863.5045	1154.8852	36302.35	35356.6
863.6493	1156.8272	36111.05	35164.8
863.7942	1158.7686	36008.35	35056.55
863.939	1160.7092	35770.8	34823.9
864.0838	1162.6491	35614.15	34667.9
864.2286	1164.5883	35631.15	34687.25
864.3734	1166.5267	35604.55	34658.55
864.5182	1168.4644	35708.9	34763.5
864.663	1170.4014	35735.1	34788.85
864.8078	1172.3377	35980.1	35037.85
864.9526	1174.2732	36060.2	35117.4
865.0974	1176.2081	36250.6	35305.05
865.2421	1178.1421	36235.8	35290
865.3869	1180.0755	36297.55	35354.8
865.5317	1182.0082	36132.6	35189.05
865.6764	1183.9401	36035.05	35090.95
865.8212	1185.8713	35757.55	34818.9
865.9659	1187.8017	35414.5	34482.2
866.1106	1189.7315	35102.55	34177.3
866.2554	1191.6605	34659.95	33736.7
866.4001	1193.5888	34326.55	33393.7
866.5448	1195.5163	34172	33235.25
866.6895	1197.4432	33962.65	33021.8
866.8342	1199.3693	33821.75	32881.45
866.9789	1201.2947	33596.5	32647.1
867.1236	1203.2193	33489.15	32546.35
867.2683	1205.1432	33451.25	32508.05
867.413	1207.0664	33381.45	32440.35
867.5576	1208.9889	33349.6	32404.55
867.7023	1210.9106	33267.85	32325.85
867.847	1212.8316	33292.95	32353.1
867.9916	1214.7519	33313.85	32364.7
868.1363	1216.6715	33142.15	32203.65
868.2809	1218.5903	33058.85	32115.25
868.4255	1220.5084	32899.15	31957.1
868.5701	1222.4257	32877.8	31935.8
868.7148	1224.3424	32595.35	31655.85
868.8594	1226.2583	32582.1	31638.65
869.004	1228.1735	32609.85	31669.65
869.1486	1230.0879	32542.75	31600.1
869.2932	1232.0016	32606.9	31665.25
869.4377	1233.9146	32536.95	31596.45
869.5823	1235.8269	32393.9	31456.55
869.7269	1237.7384	32203.45	31259.4
869.8715	1239.6492	31864.6	30927
870.016	1241.5592	31683.95	30741.3
870.1606	1243.4686	31475	30536.2
870.3051	1245.3772	31352.9	30414.45
870.4496	1247.285	31177.55	30236.6
870.5941	1249.1922	31021.65	30082.6
870.7387	1251.0986	30988	30049.95
870.8832	1253.0042	30857.4	29918.95
871.0277	1254.9092	30902.85	29963
871.1722	1256.8134	30868.2	29932.7
871.3167	1258.7169	30973.9	30034.2
871.4611	1260.6196	31029.6	30091.1
871.6056	1262.5216	31181	30241
871.7501	1264.4229	31194.3	30258.55
871.8945	1266.3234	31304.85	30368.05
872.039	1268.2232	31264.4	30323.1
872.1834	1270.1223	31187.55	30243.9
872.3278	1272.0207	31020.2	30076.7
872.4723	1273.9183	30933.25	29992.3
872.6167	1275.8151	30828	29891.65
872.7611	1277.7113	30653.1	29712.3
872.9055	1279.6067	30356.5	29421.35
873.0499	1281.5014	30132.3	29192.3
873.1943	1283.3953	29934.8	28992.7
873.3386	1285.2885	29781.25	28845.75
873.483	1287.181	29667.6	28729.3
873.6274	1289.0727	29640.85	28705.95
873.7717	1290.9637	29576.05	28636.85
873.9161	1292.854	29693.7	28756.8
874.0604	1294.7435	29720.9	28783.4
874.2047	1296.6323	29838.55	28901.15
874.349	1298.5204	30086.45	29145.95
874.4933	1300.4077	30314.6	29374.9
874.6376	1302.2943	30427	29489.05
874.7819	1304.1802	30502.45	29565.75
874.9262	1306.0653	30350.8	29414.35
875.0705	1307.9497	30161.45	29224.25
875.2147	1309.8333	30028.15	29092.15
875.359	1311.7162	29949.6	29012.6
875.5032	1313.5984	29997.55	29054.95
875.6475	1315.4798	30071.85	29113.05
875.7917	1317.3605	30225.25	29271.4
875.9359	1319.2405	30345.75	29405.15
876.0801	1321.1197	30275.5	29337
876.2243	1322.9982	30174.7	29229.95
876.3685	1324.876	30138.25	29203.15
876.5127	1326.753	29996.45	29058.75
876.6569	1328.6293	30064.85	29123.4
876.801	1330.5048	30074.4	29133.55
876.9452	1332.3796	29927.15	28989.95
877.0893	1334.2537	29929.9	28970.15
877.2335	1336.127	29736.75	28803.05
877.3776	1337.9996	29640.9	28702.25
877.5217	1339.8714	29549.4	28609.8
877.6658	1341.7426	29396.4	28415.6
877.8099	1343.6129	29301.75	28364.95
877.954	1345.4826	29168.15	28229
878.0981	1347.3515	29040.8	28101.05
878.2422	1349.2196	28928.15	27988.1
878.3862	1351.087	28919.85	27978.65
878.5303	1352.9537	28909.5	27970
878.6743	1354.8197	29030.65	28090.15
878.8184	1356.6849	29147.5	28209.8
878.9624	1358.5493	29144	28209.2
879.1064	1360.4131	29112.05	28177.3
879.2504	1362.276	28941.15	28007.1
879.3944	1364.1383	28671.05	27736.4
879.5384	1365.9998	28412.1	27468.85
879.6823	1367.8606	28042.5	27102.95
879.8263	1369.7206	27719.8	26785.55
879.9702	1371.5799	27490.1	26548.95
880.1142	1373.4384	27306.7	26373.05
880.2581	1375.2962	27134.75	26197.8
880.402	1377.1533	26810.85	25874.05
880.5459	1379.0096	26421.65	25492.55
880.6898	1380.8652	26069.1	25137.9
880.8337	1382.7201	25770.15	24840.35
880.9776	1384.5742	25495.2	24559.45
881.1215	1386.4275	25264.5	24325.9
881.2653	1388.2802	25150.35	24214.8
881.4092	1390.132	24943.45	24005.35
881.553	1391.9832	24871.85	23936.75
881.6968	1393.8336	24661.4	23727.5
881.8406	1395.6832	24569.2	23630.65
881.9844	1397.5322	24439.25	23505.7
882.1282	1399.3803	24359.9	23419.6
882.272	1401.2278	24229.7	23297.95
882.4158	1403.0745	24202.05	23267.7
882.5595	1404.9204	24030.1	23094.6
882.7033	1406.7656	24012.7	23076.7
882.847	1408.6101	23923.4	22989.9
882.9908	1410.4538	23851.5	22915.7
883.1345	1412.2968	23827.35	22893.1
883.2782	1414.139	23773.8	22840.8
883.4219	1415.9805	23839.75	22907.9
883.5656	1417.8213	23834.05	22879.55
883.7092	1419.6613	23882.7	22948.85
883.8529	1421.5006	24027.75	23094.6
883.9965	1423.3391	24205.6	23269.35
884.1402	1425.1769	24517.6	23584.3
884.2838	1427.0139	24986.75	24051.35
884.4274	1428.8502	25547.65	24615.55
884.571	1430.6858	26099.9	25166.5
884.7146	1432.5206	26436.9	25504.05
884.8582	1434.3547	26627.95	25692.25
885.0018	1436.188	26681.85	25750.3
885.1453	1438.0206	26557.9	25624.15
885.2889	1439.8524	26320.25	25387.75
885.4324	1441.6835	26216	25277.75
885.5759	1443.5139	26107.15	25173.15
885.7194	1445.3435	25944.1	25013.45
885.8629	1447.1724	25851.6	24921.45
886.0064	1449.0005	25731.25	24801.75
886.1499	1450.8279	25602.7	24672.05
886.2933	1452.6545	25457.1	24526.6
886.4368	1454.4804	25538.85	24608.15
886.5802	1456.3056	25472.55	24537.2
886.7237	1458.13	25319.9	24391.7
886.8671	1459.9536	25091.95	24162.5
887.0105	1461.7766	24657.6	23727.25
887.1539	1463.5987	24178.65	23246.35
887.2972	1465.4202	23750.15	22816.1
887.4406	1467.2409	23333.55	22403.55
887.584	1469.0608	23073.7	22142.25
887.7273	1470.88	22777.5	21844.95
887.8706	1472.6984	22497.15	21567.1
888.0139	1474.5161	22220.3	21286.9
888.1572	1476.3331	22026.2	21097.3
888.3005	1478.1493	21865.35	20936.55
888.4438	1479.9648	21735.7	20802.35
888.5871	1481.7795	21608.15	20676.85
888.7303	1483.5935	21512	20581.4
888.8736	1485.4067	21424.55	20493.75
889.0168	1487.2192	21377.05	20445.25
889.16	1489.031	21284	20350.9
889.3032	1490.842	21170.5	20241.15
889.4464	1492.6522	21125.95	20198.35
889.5896	1494.4618	21091.55	20162.9
889.7327	1496.2705	21035.8	20105.8
889.8759	1498.0785	20909.15	19976.6
890.019	1499.8858	20876.7	19944.65
890.1622	1501.6924	20776.45	19850.55
890.3053	1503.4981	20757.25	19825.95
890.4484	1505.3032	20737.15	19805.8
890.5914	1507.1075	20692.85	19763.55
890.7345	1508.911	20580.5	19648.7
890.8776	1510.7138	20496.85	19564.9
891.0206	1512.5159	20398.6	19467.9
891.1637	1514.3172	20328.75	19400.9
891.3067	1516.1178	20261	19333.15
891.4497	1517.9176	20193.3	19259.75
891.5927	1519.7166	20077.3	19150.8
891.7357	1521.515	19998.15	19064.65
891.8786	1523.3126	19956.8	19029.45
892.0216	1525.1094	19872.8	18942.5
892.1645	1526.9055	19763.55	18838.8
892.3074	1528.7008	19719.8	18793.45
892.4503	1530.4954	19639.75	18709
892.5932	1532.2893	19583.6	18659.75
892.7361	1534.0824	19475.85	18548.8
892.879	1535.8747	19438.65	18516.35
893.0218	1537.6663	19382.55	18460.6
893.1647	1539.4572	19290.75	18369.4
893.3075	1541.2473	19221.75	18295.45
893.4503	1543.0367	19216.45	18292.9
893.5931	1544.8253	19113.65	18187.4
893.7359	1546.6132	19097.05	18169.8
893.8787	1548.4003	19001.6	18069.15
894.0214	1550.1867	18977.4	18046.45
894.1642	1551.9723	18951.95	18028.8
894.3069	1553.7572	18913.95	17990.55
894.4496	1555.5414	18881.5	17962.25
894.5923	1557.3247	18882.5	17963.3
894.735	1559.1074	18851.2	17934.35
894.8777	1560.8893	18886.35	17970.8
895.0204	1562.6705	18819.6	17901.35
895.163	1564.4509	18873	17957.25
895.3056	1566.2305	18904.85	17991.15
895.4482	1568.0094	18990.5	18074.6
895.5908	1569.7876	19009.45	18093.05
895.7334	1571.565	19067.45	18148.1
895.876	1573.3417	19111.25	18194.45
896.0186	1575.1176	19106.35	18190.85
896.1611	1576.8928	18995.8	18082.5
896.3036	1578.6672	18872.75	17961.25
896.4461	1580.4409	18713.5	17806.55
896.5886	1582.2138	18567.2	17655.65
896.7311	1583.986	18400.9	17487.1
896.8736	1585.7575	18286.45	17372.85
897.0161	1587.5282	18100.25	17187.85
897.1585	1589.2981	18039.05	17132.8
897.3009	1591.0673	17918.4	17011.65
897.4433	1592.8358	17877.75	16966.75
897.5857	1594.6035	17838.5	16924.25
897.7281	1596.3704	17762.15	16848.55
897.8705	1598.1366	17729.2	16818.3
898.0128	1599.9021	17738.7	16830.4
898.1551	1601.6668	17668.75	16757
898.2975	1603.4308	17673.05	16760.5
898.4398	1605.194	17696.3	16779.95
898.5821	1606.9564	17711.7	16802.7
898.7243	1608.7182	17791.25	16887.85
898.8666	1610.4791	17875.15	16976.1
899.0088	1612.2394	17941.85	17046.1
899.1511	1613.9988	18107	17204.5
899.2933	1615.7576	18306.35	17402.55
899.4355	1617.5156	18520.15	17602.7
899.5776	1619.2728	18709.8	17795.5
899.7198	1621.0293	18874.05	17962.65
899.862	1622.785	18902.45	17995.15
900.0041	1624.54	18825.8	17919.5
900.1462	1626.2942	18619.5	17713.1
900.2883	1628.0477	18262.1	17351.75
900.4304	1629.8005	17979	17069.8
900.5725	1631.5525	17729.05	16825.5
900.7145	1633.3037	17493.75	16589.6
900.8566	1635.0542	17300.9	16399.25
900.9986	1636.804	17105.65	16199.95
901.1406	1638.553	17049.4	16063.85
901.2826	1640.3013	16865.4	15959.35
901.4245	1642.0488	16744.65	15836.05
901.5665	1643.7955	16708.2	15805.1
901.7085	1645.5416	16708.15	15804.7
901.8504	1647.2868	16706.65	15801.55
901.9923	1649.0313	16725.15	15816.9
902.1342	1650.7751	16839.35	15930
902.2761	1652.5181	16996.7	16093.65
902.4179	1654.2604	17155.35	16252.6
902.5598	1656.0019	17431.65	16529.3
902.7016	1657.7427	17743.75	16838.15
902.8434	1659.4828	18124	17218.2
902.9852	1661.222	18321	17415.8
903.127	1662.9606	18336.7	17429.35
903.2687	1664.6984	18194.6	17288.5
903.4105	1666.4354	17875.95	16966.55
903.5522	1668.1717	17389.95	16480.65
903.6939	1669.9072	16871.05	15960.3
903.8356	1671.642	16470.5	15559.1
903.9773	1673.3761	16151.95	15243.3
904.119	1675.1094	15868.05	14964.9
904.2606	1676.8419	15649.65	14744.15
904.4022	1678.5737	15484.95	14578.8
904.5439	1680.3048	15329.8	14419.95
904.6855	1682.0351	15213.65	14306.6
904.827	1683.7646	15101.3	14193.35
904.9686	1685.4934	15044.3	14138.4
905.1101	1687.2215	14970.95	14064.8
905.2517	1688.9488	14854.45	13950.65
905.3932	1690.6754	14776.45	13875.05
905.5347	1692.4012	14746.05	13838.95
905.6761	1694.1263	14672.5	13765.7
905.8176	1695.8506	14621.5	13716.9
905.9591	1697.5742	14573.6	13674.45
906.1005	1699.297	14506	13607.35
906.2419	1701.0191	14406.25	13506.65
906.3833	1702.7404	14346.05	13446.9
906.5246	1704.461	14270.3	13365.35
906.666	1706.1808	14204.65	13301.75
906.8073	1707.8999	14170.05	13269.6
906.9487	1709.6182	14101.8	13203.95
907.09	1711.3358	14086.95	13188.85
907.2313	1713.0527	14018.85	13122.35
907.3725	1714.7688	13949.25	13045.55
907.5138	1716.4841	13930.95	13026.95
907.655	1718.1987	13883.8	12976.3
907.7962	1719.9126	13808.75	12911.65
907.9374	1721.6257	13779.85	12884.25
908.0786	1723.338	13749.25	12855.4
908.2198	1725.0496	13650.85	12753.95
908.3609	1726.7605	13628.5	12729.5
908.502	1728.4706	13573.95	12676.5
908.6431	1730.18	13477.45	12581.2
908.7842	1731.8886	13478.9	12580.6
908.9253	1733.5964	13452.5	12535.35
909.0664	1735.3036	13405.75	12506.25
909.2074	1737.0099	13385.1	12488.5
909.3484	1738.7156	13353.5	12457.5
909.4894	1740.4204	13248.45	12348.5
909.6304	1742.1246	13248.45	12350
909.7714	1743.8279	13213.3	12317.7
909.9123	1745.5306	13164.3	12269.25
910.0532	1747.2325	13116.05	12221.45
910.1941	1748.9336	13062.8	12164.6
910.335	1750.634	13018.25	12119.65
910.4759	1752.3336	13003.25	12108.65
910.6168	1754.0325	12957.65	12064.15
910.7576	1755.7307	12924.9	12031.9
910.8984	1757.4281	12936.45	12041.2
911.0392	1759.1247	12925.75	12019.9
911.18	1760.8206	12895.05	11990.4
911.3208	1762.5158	12873.25	11970.4
911.4615	1764.2102	12798	11899.7
911.6022	1765.9039	12741.55	11845.15
911.7429	1767.5968	12710.65	11816.85
911.8836	1769.289	12690.3	11796.35
912.0243	1770.9804	12654.25	11758.85
912.1649	1772.6711	12635.95	11736.7
912.3056	1774.361	12596.8	11698.35
912.4462	1776.0502	12581.7	11683.2
912.5868	1777.7386	12530.4	11632.2
912.7274	1779.4263	12502.3	11607.95
912.8679	1781.1132	12501.1	11609.05
913.0084	1782.7994	12432.85	11537.25
913.149	1784.4849	12412.45	11522.45
913.2895	1786.1696	12343.15	11445.45
913.4299	1787.8535	12325.45	11434.7
913.5704	1789.5367	12300.4	11409
913.7108	1791.2192	12285.45	11394.05
913.8513	1792.9009	12284.85	11364.05
913.9917	1794.5818	12200.7	11303.45
914.132	1796.2621	12181.25	11287
914.2724	1797.9415	12150.3	11255.95
914.4128	1799.6202	12077.9	11181.6
914.5531	1801.2982	12091.55	11196.15
914.6934	1802.9755	12063.75	11168.4
914.8337	1804.6519	12016.6	11120.05
914.9739	1806.3277	11992.6	11097.85
915.1142	1808.0027	11953.55	11063.2
915.2544	1809.6769	11964.85	11074.15
915.3946	1811.3504	11896.45	11005.75
915.5348	1813.0231	11850.5	10958.7
915.675	1814.6951	11833.05	10941.15
915.8151	1816.3664	11817.4	10919.55
915.9553	1818.0369	11801.85	10907.7
916.0954	1819.7067	11736.85	10842.15
916.2355	1821.3757	11718.85	10823.2
916.3755	1823.044	11707.5	10809.6
916.5156	1824.7115	11680.85	10785.3
916.6556	1826.3783	11632.95	10736.3
916.7956	1828.0443	11598.9	10705.7
916.9356	1829.7096	11569.3	10674.25
917.0756	1831.3741	11552.9	10655.55
917.2155	1833.0379	11500.25	10609.25
917.3555	1834.701	11494.4	10602.1
917.4954	1836.3633	11454	10564.55
917.6353	1838.0248	11439.75	10546.8
917.7751	1839.6856	11409.1	10514.4
917.915	1841.3457	11388.55	10496.1
918.0548	1843.005	11394.45	10501.1
918.1946	1844.6636	11336.6	10442.7
918.3344	1846.3214	11312.3	10419.4
918.4742	1847.9785	11318.3	10424.55
918.6139	1849.6349	11289.2	10395.05
918.7537	1851.2904	11271.55	10365.15
918.8934	1852.9453	11234.55	10337.8
919.0331	1854.5994	11201.45	10303.75
919.1727	1856.2528	11201.65	10300.9
919.3124	1857.9054	11170.75	10274.6
919.452	1859.5572	11142.35	10247.6
919.5916	1861.2083	11122.6	10225.2
919.7312	1862.8587	11090.3	10194.5
919.8708	1864.5084	11063.9	10165.7
920.0103	1866.1572	11049.5	10153.1
920.1498	1867.8054	10992.2	10095.65
920.2893	1869.4528	10982.8	10085.4
920.4288	1871.0994	10949.75	10056.05
920.5683	1872.7453	10924.3	10028.95
920.7077	1874.3905	10924.4	10012.85
920.8471	1876.0349	10846.95	9950.55
920.9865	1877.6786	10855.35	9958.7
921.1259	1879.3215	10834.7	9939.35
921.2653	1880.9637	10803.35	9909
921.4046	1882.6051	10763.2	9870.2
921.5439	1884.2458	10765.7	9871.85
921.6832	1885.8858	10679.45	9785
921.8225	1887.525	10702.7	9807.85
921.9617	1889.1634	10685.35	9791.65
922.101	1890.8011	10637.1	9740.75
922.2402	1892.4381	10600.3	9706.75
922.3794	1894.0743	10565.75	9672.6
922.5185	1895.7098	10560.1	9667.05
922.6577	1897.3446	10523.25	9629
922.7968	1898.9786	10504.55	9606.15
922.9359	1900.6118	10460.1	9569.65
923.075	1902.2443	10426.05	9531.4
923.214	1903.8761	10405.35	9511.45
923.3531	1905.5071	10363.45	9468.95
923.4921	1907.1374	10321.1	9427.85
923.6311	1908.7669	10314.45	9422.3
923.77	1910.3957	10296.7	9404.55
923.909	1912.0237	10234.75	9341
924.0479	1913.651	10213.5	9319.45
924.1868	1915.2776	10183.25	9292.15
924.3257	1916.9034	10141.25	9251.1
924.4646	1918.5285	10091.45	9200.8
924.6034	1920.1528	10067.5	9172.6
924.7422	1921.7764	10060.3	9167.75
924.881	1923.3992	10022.45	9131.45
925.0198	1925.0213	9951.1	9059.6
925.1586	1926.6427	9937.65	9047.5
925.2973	1928.2633	9963	8999.1
925.436	1929.8832	9912	9018.4
925.5747	1931.5023	9822.7	8930.25
925.7134	1933.1207	9830.3	8939.4
925.852	1934.7383	9780.3	8886.5
925.9906	1936.3552	9758.55	8865.95
926.1292	1937.9714	9723.4	8829.35
926.2678	1939.5868	9687.7	8793.75
926.4064	1941.2015	9645.75	8750.3
926.5449	1942.8154	9631.1	8738.9
926.6834	1944.4286	9546	8653.85
926.8219	1946.041	9524.95	8609.6
926.9604	1947.6528	9486.6	8589.3
927.0988	1949.2637	9471.5	8577
927.2372	1950.8739	9424	8532.45
927.3756	1952.4834	9427.3	8536.3
927.514	1954.0921	9421.2	8528.85
927.6523	1955.7001	9378.5	8483.75
927.7907	1957.3074	9337.4	8449.95
927.929	1958.9139	9292.55	8404.4
928.0673	1960.5197	9275	8382.9
928.2055	1962.1247	9233.2	8341.65
928.3438	1963.729	9198.6	8309.85
928.482	1965.3325	9174.55	8260.9
928.6202	1966.9353	9085.2	8195.25
928.7584	1968.5374	9074.45	8183.85
928.8965	1970.1387	9076.7	8187.95
929.0346	1971.7393	9034.15	8142.8
929.1727	1973.3392	9017.85	8128.3
929.3108	1974.9383	8982.55	8096.35
929.4489	1976.5366	8935.35	8048.8
929.5869	1978.1342	8937.05	8049.2
929.7249	1979.7311	8894.65	8006.55
929.8629	1981.3273	8888	8000.3
930.0009	1982.9227	8853.75	7966.8
930.1388	1984.5173	8809.4	7922.55
930.2767	1986.1112	8809.25	7923.5
930.4146	1987.7044	8769.55	7883.2
930.5525	1989.2968	8755.3	7868.1
930.6904	1990.8885	8720.55	7829.65
930.8282	1992.4795	8701.55	7814.6
930.966	1994.0697	8666.3	7781.05
931.1038	1995.6592	8642.2	7756.7
931.2415	1997.2479	8620.65	7734.25
931.3793	1998.8359	8599.3	7713.2
931.517	2000.4232	8561.3	7677.3
931.6547	2002.0097	8519.35	7639.25
931.7923	2003.5955	8491.2	7606.9
931.93	2005.1805	8522.95	7636.85
932.0676	2006.7648	8471.9	7587.7
932.2052	2008.3484	8439.9	7554.55
932.3427	2009.9312	8444.1	7559.9
932.4803	2011.5133	8398.85	7517.25
932.6178	2013.0946	8376.7	7493.5
932.7553	2014.6752	8359.05	7476.7
932.8928	2016.2551	8361.35	7476.15
933.0302	2017.8342	8316.75	7430.95
933.1676	2019.4126	8275.25	7393.1
933.305	2020.9902	8237.25	7355.3
933.4424	2022.5672	8245.9	7362.5
933.5798	2024.1433	8209.45	7319.95
933.7171	2025.7188	8171.95	7292.9
933.8544	2027.2935	8152.1	7267.75
933.9917	2028.8674	8134.55	7253.25
934.129	2030.4406	8118.8	7239.7
934.2662	2032.0131	8044.15	7165.15
934.4034	2033.5849	8044.9	7155.2
934.5406	2035.1559	8051.6	7169.8
934.6778	2036.7261	8002.1	7118.4
934.8149	2038.2957	8024.95	7138.3
934.952	2039.8645	7983.55	7096.75
935.0891	2041.4325	7997.05	7110.65
935.2262	2042.9998	7946.15	7061.15
935.3632	2044.5664	7947.6	7065.05
935.5002	2046.1323	7907.7	7024.2
935.6372	2047.6974	7883.65	7002.15
935.7742	2049.2617	7866	6983
935.9111	2050.8254	7862.65	6975.1
936.048	2052.3883	7825.1	6940.7
936.1849	2053.9504	7798.95	6911.7
936.3218	2055.5118	7778.85	6894.75
936.4586	2057.0725	7745.8	6857.8
936.5955	2058.6325	7730.05	6847.65
936.7323	2060.1917	7711.9	6829.25
936.869	2061.7502	7712.1	6827.7
937.0058	2063.3079	7659.65	6778.45
937.1425	2064.8649	7645.35	6760.15
937.2792	2066.4212	7625.85	6742.85
937.4159	2067.9767	7604.35	6718.65
937.5525	2069.5315	7572.4	6689.95
937.6891	2071.0856	7531	6648.15
937.8257	2072.6389	7512.4	6628.7
937.9623	2074.1915	7468.8	6588.4
938.0989	2075.7433	7459.15	6574.1
938.2354	2077.2945	7446.1	6563.4
938.3719	2078.8448	7413.2	6526.75
938.5084	2080.3945	7385.05	6499.55
938.6448	2081.9434	7400.15	6515.1
938.7812	2083.4916	7363.7	6477.15
938.9176	2085.039	7310.65	6419.6
939.054	2086.5857	7301.45	6410.8
939.1903	2088.1317	7305.05	6416.55
939.3267	2089.677	7293.8	6402.9
939.463	2091.2215	7260.05	6370.85
939.5992	2092.7652	7253.35	6362.45
939.7355	2094.3083	7243.35	6352.6
939.8717	2095.8506	7204.95	6319.85
940.0079	2097.3921	7210.25	6323.45
940.1441	2098.933	7184.9	6298.25
940.2802	2100.4731	7167.8	6282.55
940.4163	2102.0124	7175.3	6283.2
940.5524	2103.5511	7135.95	6249.95
940.6885	2105.089	7132.6	6245.3
940.8245	2106.6261	7106.65	6219.85
940.9606	2108.1626	7097.55	6209.75
941.0965	2109.6983	7098.25	6184.8
941.2325	2111.2332	7071.4	6184.05
941.3684	2112.7675	7030.35	6141.55
941.5044	2114.301	6999.55	6110.5
941.6403	2115.8337	7006.25	6116.6
941.7761	2117.3657	6978.2	6092.45
941.912	2118.897	6968	6079.2
942.0478	2120.4276	6963.55	6070.55
942.1835	2121.9575	6919.45	6029.45
942.3193	2123.4866	6939.9	6037.15
942.455	2125.0149	6917.75	6027.75
942.5907	2126.5426	6859.15	5973.25
942.7264	2128.0695	6833.85	5947.15
942.8621	2129.5956	6852.15	5972
942.9977	2131.1211	6831.2	5942.2
943.1333	2132.6458	6797.45	5912.35
943.2689	2134.1698	6791.15	5903.7
943.4044	2135.693	6787.15	5895.95
943.54	2137.2155	6771.15	5879.15
943.6755	2138.7373	6731.3	5844.1
943.8109	2140.2584	6722.75	5837.2
943.9464	2141.7787	6701.3	5814.65
944.0818	2143.2983	6689.95	5808.6
944.2172	2144.8171	6640.8	5759.55
944.3526	2146.3353	6650.6	5766.8
944.4879	2147.8527	6610.3	5724.25
944.6232	2149.3693	6617.3	5729.3
944.7585	2150.8853	6590.25	5701.35
944.8938	2152.4005	6561.4	5672.25
945.029	2153.9149	6538.75	5649.25
945.1642	2155.4287	6610.45	5615.6
945.2994	2156.9417	6540.2	5650.15
945.4346	2158.454	6508.5	5620.4
945.5697	2159.9655	6478.05	5593.9
945.7048	2161.4764	6448.4	5563.75
945.8399	2162.9865	6438.2	5551.85
945.9749	2164.4958	6433.75	5549.05
946.1099	2166.0045	6401.45	5513.45
946.2449	2167.5124	6402.7	5515.85
946.3799	2169.0195	6391.8	5506.55
946.5148	2170.526	6374.6	5487.1
946.6498	2172.0317	6349.2	5461
946.7846	2173.5367	6341.1	5455.4
946.9195	2175.0409	6333.95	5447.9
947.0543	2176.5445	6299.3	5411.5
947.1891	2178.0473	6309.3	5421.25
947.3239	2179.5494	6269.9	5376.4
947.4587	2181.0507	6241.1	5354.1
947.5934	2182.5513	6209.15	5321.8
947.7281	2184.0512	6224.1	5337.1
947.8628	2185.5504	6164.25	5278.25
947.9974	2187.0488	6156.85	5271.85
948.132	2188.5465	6118.7	5235.2
948.2666	2190.0435	6128.95	5240.95
948.4012	2191.5397	6106.75	5219
948.5357	2193.0353	6100.75	5213.3
948.6702	2194.5301	6074.65	5183.5
948.8047	2196.0241	6057.15	5167.3
948.9392	2197.5175	6052.4	5160.75
949.0736	2199.0101	6043.05	5149.45
949.208	2200.502	5997.25	5110.25
949.3424	2201.9931	5956.35	5073.6
949.4767	2203.4835	5940.75	5054.8
949.611	2204.9733	5950.45	5059.8
949.7453	2206.4622	5933.8	5050.6
949.8796	2207.9505	5905.55	5020.65
950.0138	2209.438	5873.45	4991.5
950.148	2210.9248	5859.3	4972.4
950.2822	2212.4109	5834.85	4947.85
950.4164	2213.8962	5830.15	4937.35
950.5505	2215.3809	5834.4	4941.4
950.6846	2216.8648	5839.3	4946.2
950.8186	2218.3479	5805.05	4907.95
950.9527	2219.8304	5777.85	4884.2
951.0867	2221.3121	5763.65	4870.5
951.2207	2222.7931	5734.5	4846.4
951.3546	2224.2733	5708.65	4818.5
951.4886	2225.7529	5682.35	4792.45
951.6225	2227.2317	5669.1	4781.9
951.7563	2228.7098	5673	4787.1
951.8902	2230.1872	5647.85	4763.85
952.024	2231.6638	5643.45	4758.65
952.1578	2233.1397	5617.15	4730.3
952.2916	2234.6149	5590.1	4706.25
952.4253	2236.0894	5584.85	4697.1
952.559	2237.5632	5581.05	4683.7
952.6927	2239.0362	5538.25	4651.85
952.8263	2240.5085	5527.1	4642.15
952.9599	2241.9801	5513.7	4625.85
953.0935	2243.4509	5493.8	4605.65
953.2271	2244.921	5475.35	4585.15
953.3606	2246.3904	5472.6	4580.9
953.4941	2247.8591	5452	4564.35
953.6276	2249.3271	5448.5	4561.55
953.7611	2250.7943	5403.6	4513
953.8945	2252.2608	5396.2	4507.75
954.0279	2253.7266	5385.6	4495.5
954.1612	2255.1917	5374.85	4485.1
954.2946	2256.656	5345.55	4458.75
954.4279	2258.1197	5341.4	4455.45
954.5612	2259.5826	5306.3	4419.65
954.6944	2261.0447	5307.4	4419.3
954.8276	2262.5062	5298.5	4407.9
954.9608	2263.9669	5274.3	4383.6
955.094	2265.4269	5283	4393.75
955.2271	2266.8862	5262.1	4373.6
955.3602	2268.3448	5243.35	4356.7
955.4933	2269.8026	5231.05	4346.55
955.6264	2271.2598	5230.5	4344.6
955.7594	2272.7162	5221	4334.45
955.8924	2274.1719	5216	4327.55
956.0253	2275.6268	5181.25	4291.95
956.1583	2277.0811	5165.75	4276.1
956.2912	2278.5346	5155.05	4270
956.4241	2279.9874	5147.9	4263
956.5569	2281.4395	5144.5	4259.85
956.6897	2282.8908	5115.2	4222.1
956.8225	2284.3414	5106.65	4213.8
956.9553	2285.7914	5091.15	4202.65
957.088	2287.2406	5087.9	4197.5
957.2207	2288.689	5076.25	4187.35
957.3534	2290.1368	5067.95	4174.3
957.486	2291.5838	5047.85	4153
957.6186	2293.0302	5038.6	4146.5
957.7512	2294.4758	5022.3	4130.5
957.8838	2295.9206	4996.7	4106.85
958.0163	2297.3648	4970.9	4080.95
958.1488	2298.8082	4974.05	4085.65
958.2813	2300.251	4942.85	4056.05
958.4137	2301.693	4952.75	4059.5
958.5461	2303.1343	4945	4052.6
958.6785	2304.5748	4920.15	4031.1
958.8108	2306.0147	4895.8	4010.45
958.9432	2307.4538	4899.8	4013.55
959.0754	2308.8922	4882.45	4000.35
959.2077	2310.3299	4859.35	3974.15
959.3399	2311.7669	4852.55	3965.65
959.4721	2313.2031	4844.8	3956.3
959.6043	2314.6387	4816.8	3927.05
959.7365	2316.0735	4795.3	3907.7
959.8686	2317.5076	4801.85	3911.55
960.0006	2318.941	4797.3	3907.7
960.1327	2320.3737	4772.15	3882.45
960.2647	2321.8056	4756	3863.1
960.3967	2323.2369	4773.25	3884.55
960.5287	2324.6674	4737.55	3845.8
960.6606	2326.0972	4735.4	3844.05
960.7925	2327.5263	4710.35	3821.45
960.9244	2328.9547	4696.65	3809.65
961.0562	2330.3823	4683.35	3791.7
961.1881	2331.8092	4700.65	3808.25
961.3198	2333.2355	4662	3768.9
961.4516	2334.661	4657.65	3766.05
961.5833	2336.0858	4638.95	3746.55
961.715	2337.5098	4628.75	3738.55
961.8467	2338.9332	4625.45	3735.55
961.9783	2340.3558	4615.25	3724.5
962.1099	2341.7778	4589.15	3703.3
962.2415	2343.199	4590.35	3700.45
962.373	2344.6195	4557.8	3670.2
962.5045	2346.0393	4548.15	3661.35
962.636	2347.4583	4558.2	3670.15
962.7675	2348.8767	4549.25	3659.45
962.8989	2350.2943	4521.75	3629.75
963.0303	2351.7113	4521.25	3627.2
963.1617	2353.1275	4499.35	3607.35
963.293	2354.543	4507.05	3590.7
963.4243	2355.9578	4490.7	3601.1
963.5556	2357.3718	4469.9	3581.25
963.6868	2358.7852	4443.05	3552.75
963.818	2360.1978	4442.35	3555.05
963.9492	2361.6098	4426.75	3539.25
964.0803	2363.021	4409.15	3517.2
964.2114	2364.4315	4397.95	3508.75
964.3425	2365.8413	4396.05	3501
964.4736	2367.2504	4388.1	3500.8
964.6046	2368.6587	4355.35	3470.75
964.7356	2370.0664	4334.3	3447.8
964.8666	2371.4733	4320.45	3435
964.9975	2372.8795	4311.15	3423.75
965.1284	2374.285	4290.8	3403.3
965.2593	2375.6899	4281.05	3393.95
965.3901	2377.0939	4264.3	3377.85
965.5209	2378.4973	4256.75	3369.9
965.6517	2379.9	4245.35	3358.2
965.7825	2381.3019	4227.2	3338.3
965.9132	2382.7032	4202.9	3317.85
966.0439	2384.1037	4185.7	3302.45
966.1745	2385.5035	4192.85	3308.65
966.3051	2386.9027	4179.7	3298.1
966.4357	2388.3011	4166.55	3277
966.5663	2389.6987	4158.55	3273.3
966.6968	2391.0957	4134.7	3248.15
966.8273	2392.492	4128.85	3244.45
966.9578	2393.8876	4095	3210.9
967.0882	2395.2824	4100.45	3213.95
967.2186	2396.6765	4096.95	3211.9
967.349	2398.07	4063.4	3175.85
967.4793	2399.4627	4061.4	3171.85
967.6097	2400.8547	4047.3	3157.85
967.7399	2402.246	4021.5	3126.6
967.8702	2403.6366	4027.6	3139.5
968.0004	2405.0265	4003.7	3116.6
968.1306	2406.4156	4010.2	3120.85
968.2607	2407.8041	3983.85	3092.85
968.3909	2409.1918	3988.05	3100.05
968.521	2410.5789	3962.55	3075.7
968.651	2411.9652	3963.9	3076.45
968.781	2413.3508	3963.05	3076.1
968.911	2414.7358	3940.45	3054.45
969.041	2416.12	3907.55	3020.4
969.1709	2417.5035	3914.1	3029.6
969.3008	2418.8863	3901.6	3013.6
969.4307	2420.2684	3896.95	3008.2
969.5606	2421.6497	3883.05	2995.75
969.6904	2423.0304	3848.95	2963
969.8201	2424.4104	3841.9	2955.15
969.9499	2425.7896	3838.8	2950.6
970.0796	2427.1682	3826.35	2940.95
970.2093	2428.546	3804.05	2917.3
970.3389	2429.9232	3814.5	2925.95
970.4685	2431.2996	3793.7	2906.15
970.5981	2432.6753	3792.4	2904.3
970.7277	2434.0503	3783.45	2897.05
970.8572	2435.4246	3784.3	2896
970.9867	2436.7982	3765.55	2874.2
971.1161	2438.1711	3749.8	2861.85
971.2456	2439.5433	3748.6	2859.95
971.375	2440.9148	3734.5	2842.95
971.5043	2442.2856	3704.05	2816.05
971.6336	2443.6557	3698.3	2808.15
971.7629	2445.025	3691.7	2804.9
971.8922	2446.3937	3703.5	2814.2
972.0214	2447.7617	3687.45	2799.6
972.1506	2449.1289	3676.7	2790.7
972.2798	2450.4955	3680.3	2792.1
972.4089	2451.8613	3665.85	2779
972.538	2453.2265	3645.15	2756.95
972.6671	2454.5909	3638.3	2752
972.7961	2455.9546	3623.5	2738
972.9251	2457.3177	3628.45	2739.85
973.0541	2458.68	3619.9	2731.05
973.1831	2460.0416	3610.35	2722.1
973.312	2461.4025	3615.1	2726.3
973.4408	2462.7627	3603.35	2703.75
973.5697	2464.1222	3594.9	2709.1
973.6985	2465.4811	3577.5	2692.75
973.8273	2466.8392	3552.55	2668.2
973.956	2468.1966	3568.1	2678.45
974.0847	2469.5533	3563.55	2671.85
974.2134	2470.9093	3555.35	2666.85
974.3421	2472.2645	3536.75	2648
974.4707	2473.6191	3529.2	2643.65
974.5993	2474.973	3511.15	2622.8
974.7278	2476.3262	3510.9	2620.2
974.8563	2477.6787	3509.7	2623.45
974.9848	2479.0305	3482.5	2597.3
975.1132	2480.3816	3466.8	2577.45
975.2417	2481.7319	3470.3	2583.7
975.37	2483.0816	3463.6	2575.45
975.4984	2484.4306	3445.3	2557.95
975.6267	2485.7789	3440	2554.65
975.755	2487.1264	3423.5	2533.75
975.8833	2488.4733	3417.75	2532.05
976.0115	2489.8195	3415.3	2521.15
976.1397	2491.165	3401.05	2513.1
976.2678	2492.5097	3374.2	2485.6
976.3959	2493.8538	3375.1	2491.6
976.524	2495.1972	3357.95	2470.2
976.6521	2496.5398	3346.65	2458.2
976.7801	2497.8818	3357	2466.45
976.9081	2499.2231	3336.25	2446.55
977.036	2500.5637	3324.2	2433.1
977.164	2501.9035	3328.55	2439.45
977.2918	2503.2427	3317	2425.25
977.4197	2504.5812	3298.2	2411.2
977.5475	2505.919	3310.4	2419.7
977.6753	2507.256	3290.55	2402.1
977.8031	2508.5924	3269.85	2381.9
977.9308	2509.9281	3279.9	2385.7
978.0585	2511.2631	3268	2378.55
978.1861	2512.5974	3249.15	2362.85
978.3137	2513.9309	3254.05	2365.45
978.4413	2515.2638	3266.9	2354.7
978.5689	2516.596	3244.15	2358.75
978.6964	2517.9275	3210.4	2321.9
978.8239	2519.2583	3211.4	2325.5
978.9513	2520.5884	3204.9	2316.05
979.0788	2521.9178	3203.15	2316
979.2062	2523.2465	3183.35	2296.05
979.3335	2524.5745	3165.45	2278.2
979.4608	2525.9018	3167.5	2281.05
979.5881	2527.2284	3152.55	2266.2
979.7154	2528.5543	3148.9	2263
979.8426	2529.8796	3156.55	2266.7
979.9698	2531.2041	3133.05	2245.65
980.0969	2532.5279	3119.2	2234.15
980.224	2533.851	3139.65	2252.55
980.3511	2535.1735	3128.95	2242.4
980.4781	2536.4952	3115.7	2228.5
980.6052	2537.8163	3110.05	2221.25
980.7321	2539.1366	3117.85	2228.75
980.8591	2540.4562	3103.6	2212.75
980.986	2541.7752	3097.55	2208.25
981.1129	2543.0935	3101.7	2211.85
981.2397	2544.411	3081.5	2189.7
981.3665	2545.7279	3076.2	2188.25
981.4933	2547.0441	3065.65	2179.25
981.62	2548.3596	3072.05	2180.95
981.7467	2549.6744	3074.75	2185.85
981.8734	2550.9885	3054.1	2164.25
982.0001	2552.3019	3049.95	2160.35
982.1267	2553.6146	3028.4	2139.4
982.2532	2554.9266	3026.15	2139.1
982.3798	2556.2379	3014.8	2125.2
982.5063	2557.5485	3020.35	2132.95
982.6327	2558.8585	3014.45	2121.15
982.7592	2560.1677	3009.95	2115.55
982.8856	2561.4762	3001.1	2113.15
983.0119	2562.7841	3016.3	2125.35
983.1383	2564.0913	2989.35	2102.55
983.2646	2565.3977	2990.6	2103.45
983.3908	2566.7035	2964.75	2076.15
983.517	2568.0086	2967.05	2075.75
983.6432	2569.313	2974.7	2087.45
983.7694	2570.6167	2968.2	2077.5
983.8955	2571.9197	2958.85	2071.65
984.0216	2573.222	2961.05	2067.05
984.1476	2574.5236	2952.2	2062.8
984.2737	2575.8246	2948.4	2057.85
984.3996	2577.1248	2931.55	2037.45
984.5256	2578.4244	2933.35	2045.85
984.6515	2579.7232	2934.95	2047.3
984.7774	2581.0214	2962.75	2044
984.9032	2582.3189	2930.6	2043.65
985.029	2583.6157	2928.45	2035.8
985.1548	2584.9118	2908.65	2019.85
985.2806	2586.2072	2921.7	2031.7
985.4063	2587.5019	2911.25	2022.85
985.5319	2588.7959	2913.15	2023.45
985.6576	2590.0893	2909.8	2020.3
985.7832	2591.3819	2896.65	2008.55
985.9087	2592.6739	2880.85	1993.25
986.0343	2593.9652	2883.95	1993.2
986.1597	2595.2557	2884.05	1994.9
986.2852	2596.5456	2892.5	2001.1
986.4106	2597.8348	2887.65	2000.95
986.536	2599.1234	2867.4	1979.5
986.6614	2600.4112	2862.85	1974.2
986.7867	2601.6983	2854.9	1965
986.912	2602.9848	2853.1	1965.7
987.0372	2604.2705	2843.65	1950.1
987.1624	2605.5556	2838.35	1948.4
987.2876	2606.84	2829.65	1942.2
987.4128	2608.1237	2825.4	1936.45
987.5379	2609.4067	2810.1	1921.95
987.6629	2610.689	2806.5	1909.35
987.788	2611.9707	2795.15	1902.95
987.913	2613.2516	2790.75	1899.8
988.0379	2614.5319	2779.2	1892.5
988.1629	2615.8115	2769.1	1881.05
988.2878	2617.0903	2761.7	1871.75
988.4126	2618.3685	2746.95	1857.75
988.5375	2619.6461	2752.25	1863.2
988.6622	2620.9229	2751.15	1863.2
988.787	2622.199	2745.7	1855.15
988.9117	2623.4745	2744.8	1854.95
989.0364	2624.7493	2731.6	1843.25
989.161	2626.0234	2729.15	1843.8
989.2857	2627.2968	2724.7	1839
989.4102	2628.5695	2709.55	1818.8
989.5348	2629.8415	2702.1	1816.3
989.6593	2631.1128	2698.25	1808.65
989.7837	2632.3835	2690.8	1804.15
989.9082	2633.6535	2682.85	1795.7
990.0326	2634.9228	2684.65	1798.5
990.1569	2636.1914	2683.5	1796.75
990.2812	2637.4593	2685	1794.7
990.4055	2638.7265	2666.4	1777.45
990.5298	2639.9931	2663.3	1775.3
990.654	2641.259	2649.3	1759.15
990.7782	2642.5242	2668.2	1780
990.9023	2643.7887	2654.5	1766.05
991.0264	2645.0525	2640.3	1753.3
991.1505	2646.3156	2645.15	1740.95
991.2745	2647.5781	2617.75	1730.35
991.3985	2648.8398	2623.65	1738.3
991.5225	2650.1009	2631.75	1719
991.6464	2651.3613	2610.6	1722.6
991.7703	2652.6211	2605.55	1717.9
991.8942	2653.8801	2590.6	1703.1
992.018	2655.1385	2591.2	1700.75
992.1418	2656.3961	2595.9	1707.6
992.2655	2657.6531	2583.8	1696.8
992.3892	2658.9094	2571.25	1683.85
992.5129	2660.1651	2575.4	1688.95
992.6366	2661.42	2568.65	1680.8
992.7602	2662.6743	2579.25	1691.6
992.8837	2663.9279	2579.25	1692.1
993.0073	2665.1808	2577.5	1690.05
993.1307	2666.433	2568	1680.25
993.2542	2667.6846	2560.05	1670.35
993.3776	2668.9354	2557.9	1666.6
993.501	2670.1856	2555.6	1667.65
993.6244	2671.4351	2540.9	1654.4
993.7477	2672.6839	2554.8	1666.65
993.8709	2673.9321	2552.45	1665.75
993.9942	2675.1795	2546	1658.4
994.1174	2676.4263	2539.55	1650.85
994.2405	2677.6724	2539.45	1652.05
994.3637	2678.9179	2544.15	1656.55
994.4868	2680.1626	2530.3	1642.95
994.6098	2681.4067	2526.95	1638.3
994.7328	2682.6501	2528.4	1641.05
994.8558	2683.8928	2522.1	1635.7
994.9788	2685.1348	2510.55	1624.55
995.1017	2686.3761	2494.75	1607.4
995.2245	2687.6168	2494.7	1608.9
995.3474	2688.8568	2499.25	1612.15
995.4702	2690.0961	2482.35	1596.95
995.5929	2691.3348	2483.25	1595.1
995.7156	2692.5727	2470.45	1583.3
995.8383	2693.81	2465.25	1579.5
995.961	2695.0466	2462.5	1577.35
996.0836	2696.2826	2455.8	1567.8
996.2062	2697.5178	2461.45	1574.1
996.3287	2698.7524	2450.85	1564.05
996.4512	2699.9863	2453.45	1563.95
996.5737	2701.2195	2441.15	1553.95
996.6961	2702.452	2441.35	1554.6
996.8185	2703.6839	2438.9	1551.65
996.9408	2704.9151	2435.55	1549.5
997.0631	2706.1456	2444.5	1558.05
997.1854	2707.3755	2435.35	1547.75
997.3077	2708.6046	2442.45	1554.55
997.4299	2709.8331	2455.85	1567.25
997.552	2711.0609	2450.4	1562.5
997.6742	2712.2881	2441	1554.2
997.7963	2713.5145	2468.55	1580.8
997.9183	2714.7403	2472.2	1587.65
998.0403	2715.9654	2458.3	1569.15
998.1623	2717.1899	2484.95	1584.65
998.2842	2718.4136	2490.25	1602.9
998.4062	2719.6367	2488.9	1601.6
998.528	2720.8591	2494.6	1601.65
998.6498	2722.0809	2494.9	1609.3
998.7716	2723.3019	2507.1	1617.9
998.8934	2724.5223	2511.15	1623.7
999.0151	2725.7421	2504.9	1614.9
999.1368	2726.9611	2513.75	1624.65
999.2584	2728.1795	2513.4	1622.25
999.38	2729.3972	2494.1	1609
999.5016	2730.6142	2488.95	1590.5
999.6231	2731.8306	2457.4	1569.5
999.7446	2733.0462	2435.55	1548.8
999.8661	2734.2612	2428.65	1540.6
999.9875	2735.4756	2395	1506.9
1000.1089	2736.6892	2378.15	1490.15
1000.2302	2737.9022	2367.1	1483.4
1000.3515	2739.1145	2351.75	1463.05
1000.4728	2740.3262	2334	1440.3
1000.594	2741.5372	2312.45	1425.45
1000.7152	2742.7475	2298.15	1412.55
1000.8363	2743.9571	2292.4	1404.95
1000.9575	2745.1661	2271.35	1381.75
1001.0785	2746.3744	2264.8	1376.1
1001.1996	2747.582	2240.85	1354
1001.3206	2748.7889	2236.25	1349.15
1001.4415	2749.9952	2225.1	1340.8
1001.5625	2751.2008	2218.35	1330.55
1001.6833	2752.4057	2214.65	1327.85
1001.8042	2753.61	2203.7	1317.85
1001.925	2754.8136	2213.15	1323.85
1002.0458	2756.0165	2199.3	1315.3
1002.1665	2757.2188	2193.3	1307.9
1002.2872	2758.4204	2188.7	1303.85
1002.4078	2759.6213	2190.25	1303.7
1002.5285	2760.8215	2184.4	1292.75
1002.649	2762.0211	2181.3	1292.2
1002.7696	2763.22	2170.8	1281.65
1002.8901	2764.4182	2162.8	1275.5
1003.0106	2765.6158	2161.75	1274.9
1003.131	2766.8127	2150.7	1264.3
1003.2514	2768.009	2140.55	1255.75
1003.3717	2769.2045	2146.05	1261
1003.492	2770.3994	2139.75	1250.2
1003.6123	2771.5936	2134.55	1248.4
1003.7325	2772.7872	2113	1226.8
1003.8527	2773.9801	2117.3	1231.65
1003.9729	2775.1723	2136.7	1233.65
1004.093	2776.3639	2126.1	1241.6
1004.2131	2777.5548	2107.3	1219.6
1004.3331	2778.745	2103.4	1216.9
1004.4531	2779.9346	2107.4	1223.15
1004.5731	2781.1235	2106.55	1219.9
1004.693	2782.3117	2113.75	1227.95
1004.8129	2783.4992	2109.85	1225.65
1004.9328	2784.6861	2111.7	1226.25
1005.0526	2785.8723	2115.95	1229.4
1005.1723	2787.0579	2114.05	1229.45
1005.2921	2788.2428	2116.45	1232.55
1005.4118	2789.427	2118.8	1231.75
1005.5314	2790.6106	2132.5	1248.5
1005.651	2791.7935	2141.4	1255
1005.7706	2792.9757	2147.05	1263.8
1005.8902	2794.1573	2155.9	1270.7
1006.0097	2795.3382	2159.85	1277.5
1006.1291	2796.5184	2183.1	1299.25
1006.2485	2797.698	2202.1	1315.3
1006.3679	2798.8769	2209.4	1322.55
1006.4873	2800.0551	2217.8	1333.9
1006.6066	2801.2327	2231.75	1344.5
1006.7258	2802.4096	2245.65	1361.8
1006.8451	2803.5859	2263.85	1380.05
1006.9642	2804.7615	2296.4	1410.6
1007.0834	2805.9364	2313.55	1430.95
1007.2025	2807.1106	2340.55	1457.15
1007.3216	2808.2842	2362.9	1476.6
1007.4406	2809.4572	2393.8	1510.25
1007.5596	2810.6294	2436.6	1549.75
1007.6785	2811.801	2469.35	1585.2
1007.7975	2812.972	2498.45	1614.45
1007.9163	2814.1423	2550.05	1666.45
1008.0352	2815.3119	2589.15	1706.15
1008.154	2816.4808	2643	1761.2
1008.2727	2817.6491	2692.2	1805.55
1008.3914	2818.8167	2732.9	1851.8
1008.5101	2819.9837	2783.35	1891.55
1008.6288	2821.15	2820.7	1936.3
1008.7474	2822.3157	2857.75	1972.9
1008.8659	2823.4807	2910.45	2027.8
1008.9844	2824.645	2951.45	2069.4
1009.1029	2825.8086	2989.25	2105.35
1009.2214	2826.9716	3035.45	2152.45
1009.3398	2828.134	3067.75	2182.7
1009.4581	2829.2957	3101.3	2215.5
1009.5764	2830.4567	3140.1	2255.1
1009.6947	2831.617	3142.3	2257.1
1009.813	2832.7767	3140	2258.15
1009.9312	2833.9358	3143.5	2259.6
1010.0493	2835.0941	3139.05	2252
1010.1675	2836.2519	3114.45	2230.65
1010.2855	2837.4089	3116.85	2232.4
1010.4036	2838.5653	3105.2	2223.7
1010.5216	2839.7211	3089.9	2207.45
1010.6396	2840.8761	3112.65	2227.6
1010.7575	2842.0306	3138.65	2254.3
1010.8754	2843.1843	3165.95	2281.55
1010.9932	2844.3374	3228.8	2345.45
1011.111	2845.4899	3279.3	2394.65
1011.2288	2846.6417	3375.05	2489.45
1011.3465	2847.7928	3424.85	2540.95
1011.4642	2848.9433	3511.65	2629.1
1011.5818	2850.0931	3591.85	2710.1
1011.6995	2851.2422	3668.15	2784.95
1011.817	2852.3907	3740.8	2854.35
1011.9345	2853.5385	3794.9	2909.05
1012.052	2854.6857	3860	2967.05
1012.1695	2855.8323	3907.2	3023.9
1012.2869	2856.9781	3936.1	3051.25
1012.4042	2858.1233	4003.95	3119.45
1012.5216	2859.2679	4039.65	3156.45
1012.6389	2860.4118	4079.25	3193.7
1012.7561	2861.555	4126.9	3238.2
1012.8733	2862.6976	4155.15	3267.8
1012.9905	2863.8395	4187.4	3303.85
1013.1076	2864.9808	4193.65	3311.75
1013.2247	2866.1214	4213.7	3332.8
1013.3417	2867.2614	4237.7	3354.95
1013.4587	2868.4007	4240.55	3354.75
1013.5757	2869.5393	4249.25	3365.45
1013.6926	2870.6773	4254.7	3371.45
1013.8095	2871.8146	4260.15	3372.35
1013.9263	2872.9513	4266.75	3379.9
1014.0431	2874.0874	4256.4	3371.45
1014.1599	2875.2227	4238.25	3356.1
1014.2766	2876.3574	4241.7	3359.15
1014.3933	2877.4915	4212.45	3329
1014.51	2878.6249	4167.35	3284.55
1014.6266	2879.7577	4141.8	3256.3
1014.7431	2880.8898	4129.8	3235.65
1014.8596	2882.0212	4112.1	3229.05
1014.9761	2883.152	4095.75	3212.35
1015.0925	2884.2821	4081.2	3200.7
1015.2089	2885.4116	4071.35	3187.95
1015.3253	2886.5405	4063.1	3179.85
1015.4416	2887.6686	4074.45	3188.3
1015.5579	2888.7962	4096.55	3217.2
1015.6741	2889.923	4064.9	3182.4
1015.7903	2891.0493	4100.55	3220.15
1015.9065	2892.1748	4094.7	3212.7
1016.0226	2893.2997	4108.1	3225.75
1016.1387	2894.424	4123.95	3243.05
1016.2547	2895.5476	4143.15	3260.15
1016.3707	2896.6706	4160.65	3280.5
1016.4866	2897.7929	4197.6	3313.5
1016.6025	2898.9145	4222.6	3337.7
1016.7184	2900.0355	4242.2	3358.15
1016.8342	2901.1559	4279.3	3393
1016.95	2902.2756	4299.35	3417.4
1017.0658	2903.3946	4338.4	3456.6
1017.1815	2904.513	4365.5	3479.25
1017.2971	2905.6308	4386.7	3503.4
1017.4127	2906.7479	4406.3	3522.65
1017.5283	2907.8643	4443.15	3559.7
1017.6439	2908.9801	4444.1	3563.45
1017.7594	2910.0953	4438.25	3554.3
1017.8748	2911.2098	4443.1	3558.65
1017.9902	2912.3236	4425.25	3535.2
1018.1056	2913.4368	4429.95	3542.65
1018.2209	2914.5494	4390.95	3506.55
1018.3362	2915.6613	4367.25	3479
1018.4515	2916.7725	4359.55	3474.55
1018.5667	2917.8831	4313.55	3429.7
1018.6819	2918.9931	4279.4	3395.3
1018.797	2920.1024	4244.55	3361.9
1018.9121	2921.211	4235.6	3354.1
1019.0271	2922.319	4199	3315.9
1019.1421	2923.4264	4190.25	3308
1019.2571	2924.5331	4159.75	3278.1
1019.372	2925.6391	4159.3	3279.2
1019.4869	2926.7445	4148.35	3266.85
1019.6017	2927.8493	4132.05	3247.8
1019.7165	2928.9534	4118.05	3237.05
1019.8313	2930.0569	4117.9	3230.2
1019.946	2931.1597	4103.45	3222.05
1020.0606	2932.2619	4083.7	3200.25
1020.1753	2933.3634	4086.1	3204.25
1020.2899	2934.4643	4075.8	3185.85
1020.4044	2935.5645	4058.05	3170.2
1020.5189	2936.6641	4005.45	3119.35
1020.6334	2937.763	3946.5	3066.4
1020.7478	2938.8613	3907.25	3023.1
1020.8622	2939.959	3850.8	2962.95
1020.9765	2941.056	3771.2	2890
1021.0908	2942.1523	3672.65	2789.8
1021.2051	2943.248	3602.4	2720.4
1021.3193	2944.3431	3495	2613.95
1021.4334	2945.4375	3384.05	2500.6
1021.5476	2946.5313	3283.9	2403.8
1021.6617	2947.6244	3182.3	2300.65
1021.7757	2948.7169	3078.25	2192.5
1021.8897	2949.8087	2984.7	2102.5
1022.0037	2950.8999	2887.7	2003.9
1022.1176	2951.9904	2808.5	1925.4
1022.2315	2953.0803	2732.5	1850.65
1022.3453	2954.1696	2664.35	1783.6
1022.4591	2955.2582	2619.75	1737.95
1022.5728	2956.3462	2557.6	1676.75
1022.6865	2957.4335	2520.7	1636.7
1022.8002	2958.5202	2485.95	1604.35
1022.9138	2959.6062	2444.75	1562.6
1023.0274	2960.6916	2435.1	1554.55
1023.141	2961.7764	2411.3	1528.85
1023.2545	2962.8605	2405.95	1524.55
1023.3679	2963.9439	2383.75	1502.55
1023.4813	2965.0267	2367.55	1483.3
1023.5947	2966.1089	2377.9	1473.2
1023.708	2967.1905	2356.05	1475.25
1023.8213	2968.2714	2352.7	1470.2
1023.9346	2969.3516	2348.2	1467.75
1024.0478	2970.4312	2359.25	1469.1
1024.1609	2971.5102	2349.75	1467.5
1024.274	2972.5885	2341.8	1459.7
1024.3871	2973.6662	2343.3	1456.75
1024.5002	2974.7432	2337.45	1456.3
1024.6132	2975.8196	2336.05	1454.5
1024.7261	2976.8954	2308.9	1428.2
1024.839	2977.9705	2306.8	1426.3
1024.9519	2979.045	2289.6	1408.15
1025.0647	2980.1188	2273.45	1392.85
1025.1775	2981.192	2246.35	1365.45
1025.2902	2982.2645	2230.75	1350.2
1025.4029	2983.3364	2202.15	1320.7
1025.5156	2984.4077	2172.8	1291.95
1025.6282	2985.4783	2151.6	1263.8
1025.7407	2986.5483	2105.95	1226.75
1025.8532	2987.6177	2068.1	1186.85
1025.9657	2988.6864	2031.15	1150.65
1026.0782	2989.7545	1996.75	1114.1
1026.1906	2990.8219	1973.65	1091.75
1026.3029	2991.8887	1923.75	1040
1026.4152	2992.9548	1908.95	1028.5
1026.5275	2994.0204	1875.1	995.1
1026.6397	2995.0852	1836.05	955.3
1026.7519	2996.1495	1820.55	936.1
1026.864	2997.2131	1780.15	899.95
1026.9761	2998.276	1772.95	891.3
1027.0882	2999.3383	1742.5	859
1027.2002	3000.4	1726.55	845.15
1027.3122	3001.4611	1707.45	826.85
1027.4241	3002.5215	1698.6	818.7
1027.536	3003.5812	1677.75	797
1027.6478	3004.6404	1675.35	795.1
1027.7596	3005.6989	1659.25	775.45
1027.8714	3006.7567	1649.3	767.25
1027.9831	3007.8139	1657.05	759.05
1028.0947	3008.8705	1630.05	749.85
1028.2064	3009.9264	1643.65	747.25
1028.3179	3010.9818	1620.4	738.85
1028.4295	3012.0364	1624.6	740.35
1028.541	3013.0905	1617.2	735.85
1028.6524	3014.1439	1617.25	733.45
1028.7638	3015.1966	1615	736.3
1028.8752	3016.2487	1605.3	723.25
1028.9865	3017.3002	1615.7	727.2
1029.0978	3018.3511	1607.5	728.4
1029.209	3019.4013	1606.2	724.05
1029.3202	3020.4509	1596.5	715.2
1029.4314	3021.4998	1598.8	719.3
1029.5425	3022.5481	1596.5	713.9
1029.6535	3023.5958	1596.7	716.55
1029.7645	3024.6428	1597.6	715.2
1029.8755	3025.6892	1603.55	723.6
1029.9864	3026.735	1601.4	720.65
1030.0973	3027.7802	1600.15	719.1
1030.2082	3028.8247	1605.5	725.8
1030.319	3029.8685	1609.4	727.95
1030.4297	3030.9118	1619.5	739.8
1030.5404	3031.9544	1608.1	727.45
1030.6511	3032.9963	1620.95	740.5
1030.7617	3034.0376	1627.35	746.85
1030.8723	3035.0783	1621.45	739.2
1030.9829	3036.1184	1633.05	748.7
1031.0934	3037.1578	1635.3	756.55
1031.2038	3038.1966	1629.15	745.8
1031.3142	3039.2348	1637.2	759.05
1031.4246	3040.2723	1644.95	755.15
1031.5349	3041.3092	1623	742.95
1031.6452	3042.3455	1629.15	749.7
1031.7554	3043.3811	1615.7	735.2
1031.8656	3044.4161	1615.55	733.75
1031.9758	3045.4505	1609.85	730
1032.0859	3046.4842	1600.25	721.4
1032.1959	3047.5173	1589.05	709.3
1032.3059	3048.5498	1586.35	705.85
1032.4159	3049.5816	1581.1	699.6
1032.5258	3050.6128	1570.55	688.15
1032.6357	3051.6434	1570.65	687.05
1032.7455	3052.6734	1554.6	674.75
1032.8553	3053.7027	1556.65	675.95
1032.9651	3054.7314	1536.1	657.8
1033.0748	3055.7594	1528.95	648.75
1033.1845	3056.7868	1523.95	641.25
1033.2941	3057.8136	1527.25	644.95
1033.4037	3058.8398	1518.45	640.2
1033.5132	3059.8653	1508.5	627
1033.6227	3060.8902	1506.25	625.45
1033.7321	3061.9145	1500.1	620.2
1033.8415	3062.9381	1487.7	609.05
1033.9509	3063.9612	1494.3	598.5
1034.0602	3064.9835	1477.95	597.6
1034.1694	3066.0053	1470.7	588.9
1034.2787	3067.0264	1464.9	585.1
1034.3878	3068.0469	1460.1	578.3
1034.497	3069.0668	1450.8	565.85
1034.6061	3070.086	1430.2	551.8
1034.7151	3071.1046	1430.55	549.95
1034.8241	3072.1226	1418.5	536.4
1034.9331	3073.1399	1404.4	524.95
1035.042	3074.1567	1396.6	515.95
1035.1508	3075.1727	1389.05	505.5
1035.2597	3076.1882	1371.1	492.1
1035.3684	3077.203	1363.4	483.9
1035.4772	3078.2173	1365.15	484.25
1035.5859	3079.2308	1352.3	468.6
1035.6945	3080.2438	1341.65	459.35
1035.8031	3081.2561	1330.9	450.8
1035.9117	3082.2678	1320.2	440.65
1036.0202	3083.2789	1310.7	430.1
1036.1286	3084.2893	1311.1	432.15
1036.2371	3085.2991	1310.2	429.9
1036.3454	3086.3083	1303.7	419.6
1036.4538	3087.3169	1291.5	408.5
1036.562	3088.3248	1288.65	407.25
1036.6703	3089.3321	1280.3	399.6
1036.7785	3090.3388	1273.85	395.2
1036.8866	3091.3449	1266.6	385.05
1036.9948	3092.3503	1263.55	382.15
1037.1028	3093.3551	1259.15	380.45
1037.2108	3094.3593	1247.9	370
1037.3188	3095.3629	1248.15	366.55
1037.4267	3096.3658	1252.9	370.75
1037.5346	3097.3681	1247.6	365.95
1037.6425	3098.3698	1243.6	360.4
1037.7503	3099.3708	1250.25	364.1
1037.858	3100.3713	1232.15	354
1037.9657	3101.3711	1233.2	352.7
1038.0734	3102.3702	1362.95	346.45
1038.181	3103.3688	1228.95	347.3
1038.2886	3104.3667	1215	337.1
1038.3961	3105.364	1219.3	340.45
1038.5036	3106.3607	1218.05	336
1038.611	3107.3568	1217.05	334.6
1038.7184	3108.3522	1213	332.25
1038.8257	3109.347	1214.1	332.75
1038.933	3110.3412	1216.6	333.05
1039.0403	3111.3348	1207.15	327.1
1039.1475	3112.3277	1204.55	323.85
1039.2547	3113.32	1200.85	320.95
1039.3618	3114.3117	1201.05	320.35
1039.4689	3115.3028	1198.6	318.95
1039.5759	3116.2932	1198.9	318.6
1039.6829	3117.2831	1191.05	305.9
1039.7898	3118.2723	1183.5	304.15
1039.8967	3119.2608	1186.9	307
1040.0035	3120.2488	1180.85	301.25
1040.1103	3121.2361	1183.25	303.3
1040.2171	3122.2229	1180.1	300.8
1040.3238	3123.209	1183.95	305.8
1040.4305	3124.1944	1175.15	296.35
1040.5371	3125.1793	1175.4	294.7
1040.6437	3126.1635	1168.6	289.15
1040.7502	3127.1471	1173.15	295.85
1040.8567	3128.1301	1167.55	288.15
1040.9631	3129.1125	1168.85	288.65
1041.0695	3130.0942	1164.5	287.5
1041.1759	3131.0753	1171.35	282.7
1041.2822	3132.0558	1168	284.95
1041.3884	3133.0357	1161.4	279.8
1041.4946	3134.015	1156.85	275.65
1041.6008	3134.9936	1155.7	274
1041.7069	3135.9716	1176.8	275.65
1041.813	3136.949	1154.1	274.95
1041.919	3137.9258	1167.7	269.3
1042.025	3138.902	1153.55	268.6
1042.1309	3139.8775	1146.1	268.4
1042.2368	3140.8524	1149.7	269.9
1042.3427	3141.8267	1147	263.65
1042.4485	3142.8004	1144.15	264.25
1042.5542	3143.7735	1146.6	260.2
1042.6599	3144.7459	1145.65	262.6
1042.7656	3145.7178	1139.55	260.95
1042.8712	3146.689	1134	255.15
1042.9768	3147.6596	1134.7	254.3
1043.0823	3148.6295	1131.95	250.15
1043.1878	3149.5989	1132.4	252.55
1043.2932	3150.5676	1128.45	251
1043.3986	3151.5357	1129.75	251.35
1043.5039	3152.5032	1122.8	245.45
1043.6092	3153.4701	1124.45	245.45
1043.7145	3154.4364	1127.05	245.85
1043.8197	3155.402	1122.25	244.6
1043.9248	3156.367	1121.1	239.65
1044.03	3157.3315	1134.95	231.25
1044.135	3158.2952	1115.1	236.2
1044.24	3159.2584	1112.3	232.1
1044.345	3160.221	1113.95	234
1044.4499	3161.1829	1109.7	229.35
1044.5548	3162.1442	1112.3	233.35
1044.6596	3163.105	1108.65	228.65
1044.7644	3164.065	1104.4	225.6
1044.8692	3165.0245	1108.25	225
1044.9739	3165.9834	1106.85	229.9
1045.0785	3166.9416	1103.2	224.7
1045.1831	3167.8993	1102.05	224.2
1045.2877	3168.8563	1098.15	217.4
1045.3922	3169.8127	1095.55	216.1
1045.4966	3170.7684	1097.3	216.35
1045.6011	3171.7236	1095.35	216.15
1045.7054	3172.6782	1094.6	213.95
1045.8098	3173.6321	1091.2	211.75
1045.914	3174.5854	1095.2	211.8
1046.0183	3175.5381	1093.3	216.35
1046.1224	3176.4902	1090	210.95
1046.2266	3177.4417	1087.5	207.8
1046.3307	3178.3926	1083.1	204
1046.4347	3179.3428	1085.3	205.25
1046.5387	3180.2924	1085.7	205.7
1046.6427	3181.2415	1084.75	203
1046.7466	3182.1899	1087.35	205.95
1046.8504	3183.1377	1083.7	205.65
1046.9542	3184.0848	1083.95	202.15
1047.058	3185.0314	1077.6	198.8
1047.1617	3185.9773	1079.35	199.6
1047.2654	3186.9227	1073.4	195.2
1047.369	3187.8674	1076.55	197.45
1047.4726	3188.8115	1076.95	194.75
1047.5761	3189.755	1077.65	197.3
1047.6796	3190.6979	1076.15	196.6
1047.783	3191.6402	1071.15	192.9
1047.8864	3192.5818	1073.8	193.3
1047.9898	3193.5229	1078.05	187.15
1048.0931	3194.4633	1067	190.25
1048.1963	3195.4031	1075.25	194.35
1048.2995	3196.3423	1065.7	186.35
1048.4027	3197.2809	1066.3	185.6
1048.5058	3198.2189	1065.65	185.8
1048.6089	3199.1563	1066.8	180.65
1048.7119	3200.0931	1060.35	182.95
1048.8148	3201.0292	1059.85	182.35
1048.9178	3201.9648	1063.45	184.75
1049.0206	3202.8997	1068.4	186.3
1049.1235	3203.834	1057.55	178.4
1049.2262	3204.7677	1059.6	181.3
1049.329	3205.7008	1058.5	177.65
1049.4317	3206.6333	1054.95	176.45
1049.5343	3207.5652	1060.7	179.3
1049.6369	3208.4964	1057.8	179.2
1049.7394	3209.4271	1052.05	174.5
1049.8419	3210.3571	1051.05	172.05
1049.9444	3211.2865	1050	170.45
1050.0468	3212.2154	1053.4	174.35
1050.1491	3213.1436	1052.3	171.15
1050.2514	3214.0712	1058.95	173.35
1050.3537	3214.9982	1055.15	175.35
1050.4559	3215.9246	1049.1	169.15
1050.5581	3216.8503	1046.7	169
1050.6602	3217.7755	1045	168.05
1050.7623	3218.7001	1043.95	165.4
1050.8643	3219.624	1044.75	166.95
1050.9663	3220.5473	1038.95	159.05
1051.0682	3221.4701	1045.05	165.4
1051.1701	3222.3922	1046.15	166.7
1051.2719	3223.3137	1042.95	162.65
1051.3737	3224.2346	1041.6	164.8
1051.4754	3225.1549	1040.45	159.85
1051.5771	3226.0746	1031.6	153.8
1051.6788	3226.9937	1039.15	159.45
1051.7804	3227.9121	1035.45	156.6
1051.8819	3228.83	1038.45	157.4
1051.9834	3229.7473	1039.4	160.05
1052.0849	3230.6639	1037	156.65
1052.1863	3231.5799	1033	154.95
1052.2876	3232.4954	1032.65	153.45
1052.3889	3233.4102	1032.6	156.4
1052.4902	3234.3244	1032.3	152.4
1052.5914	3235.238	1029.3	150.25
1052.6926	3236.151	1055.15	150.75
1052.7937	3237.0634	1030.15	152.45
1052.8948	3237.9752	1026.75	147.95
1052.9958	3238.8864	1022.7	141.9
1053.0968	3239.797	1027	147.85
1053.1977	3240.7069	1029.05	149.35
1053.2986	3241.6163	1019.4	138.75
1053.3994	3242.5251	1020.75	141.35
1053.5002	3243.4332	1022.1	144.7
1053.6009	3244.3408	1020.8	140.15
1053.7016	3245.2477	1018.5	141.25
1053.8022	3246.154	1019.15	138.15
1053.9028	3247.0598	1023.65	144.05
1054.0034	3247.9649	1016.2	136.1
1054.1039	3248.8694	1014.55	137
1054.2043	3249.7733	1017.5	138.45
1054.3047	3250.6766	1016.4	136.2
1054.4051	3251.5793	1013.65	133.2
1054.5054	3252.4814	1010.85	134
1054.6056	3253.3829	1010.6	134.65
1054.7058	3254.2838	1011.95	134.95
1054.806	3255.1841	1013.2	136.5
1054.9061	3256.0838	1009.25	130.65
1055.0061	3256.9829	1005.75	126.6
1055.1062	3257.8814	1011.75	131.1
1055.2061	3258.7792	1004.25	125.1
1055.306	3259.6765	1006.2	126.85
1055.4059	3260.5731	1001.1	123.9
1055.5057	3261.4692	997.7	117.25
1055.6055	3262.3647	999.2	120.05
1055.7052	3263.2595	997.65	119.45
1055.8049	3264.1538	994.05	116
1055.9045	3265.0474	996.75	117.9
1056.0041	3265.9404	989.95	111.95
1056.1036	3266.8329	992.15	114.15
1056.2031	3267.7247	994.85	106.7
1056.3025	3268.616	987.3	110.5
1056.4019	3269.5066	980.35	101.75
1056.5013	3270.3966	982.65	103.1
1056.6005	3271.286	976	100
