Software Version:	3.9.2.0
Unit SN:	10000200
Spectrometer SN:	6960
Date:	3/26/2024 1:46:37 PM
Data Line Index:	25
Spectral Points:	2048
Integration time (ms):	125
Averages:	20
Delay (ms):	30000
Sequence Number:	1
Processing:	dark subtract
Laser Power (mW):	305
Laser Current (mA):	820
Laser Diode Temp (C):	25.1
Laser Case Temp (C):	27.2
System Temp (C):	27.2
Spectrometer Temp (C):	25.1
CCD Temp (C):	-0.005
Secondary Temp (C):	20.007
Heatsink Temp (C):	22.525
CCDPCB Temp (C):	36.785
SecondaryPCB Temp (C):	34.35

Wavelength	RamanShift	Raw Counts	Dark Subtracted
787.061	30.1047	599.5	187.95
787.2016	32.3739	601.9	191.8
787.3422	34.6426	615.1	205
787.4828	36.9109	634.05	222
787.6235	39.1787	651.55	235.45
787.7642	41.4461	670.75	250.9
787.9049	43.7131	687.5	264.45
788.0456	45.9796	710.35	281.85
788.1863	48.2456	732.15	301.95
788.3271	50.5112	745.45	309.05
788.4679	52.7764	769.6	331.9
788.6087	55.0411	791.5	350.75
788.7496	57.3054	823.7	376.9
788.8904	59.5692	850.65	402.15
789.0313	61.8326	874.55	423.5
789.1722	64.0955	904.7	447.65
789.3132	66.3579	941.75	480.85
789.4541	68.6199	995	532.15
789.5951	70.8815	1075.4	608.15
789.7361	73.1426	1248.6	778.75
789.8771	75.4032	1685.55	1210.05
790.0181	77.6634	2729.8	2244.7
790.1592	79.9231	5375.45	4882.85
790.3003	82.1824	11406.9	10899.8
790.4414	84.4412	23578.35	23041.85
790.5825	86.6995	44580.75	44004.05
790.7237	88.9574	57001.45	56391.55
790.8648	91.2148	61829.35	61193.85
791.006	93.4717	62765.85	62117.55
791.1472	95.7282	63136	62477.35
791.2885	97.9842	63312.35	62652.45
791.4297	100.2398	63225.35	62556.35
791.571	102.4949	63177.05	62508.25
791.7123	104.7495	63127.55	62454.45
791.8536	107.0036	62928.75	62255.55
791.9949	109.2573	63074.2	62407.2
792.1363	111.5105	62857.1	62181.75
792.2777	113.7632	62870	62193.6
792.4191	116.0154	62928.2	62240.05
792.5605	118.2672	63030.65	62349.3
792.7019	120.5185	63007	62327.1
792.8434	122.7693	62951.1	62272.55
792.9849	125.0197	62672.9	61985.1
793.1264	127.2696	63177.75	62490.45
793.2679	129.519	63034.2	62337.35
793.4094	131.7679	63209.55	62513.35
793.551	134.0163	62697.65	61996.1
793.6926	136.2642	62869	62165.35
793.8342	138.5117	63141.1	62424
793.9758	140.7587	62992.85	62283.05
794.1175	143.0052	62963.1	62249.4
794.2591	145.2512	62644.8	61934.35
794.4008	147.4967	62965.85	62254.05
794.5425	149.7417	62838.7	62122.05
794.6842	151.9863	62837.9	62121.2
794.826	154.2304	62638.65	61923.4
794.9677	156.4739	62757.75	62030.75
795.1095	158.717	62973	62247.2
795.2513	160.9596	62801.95	62075.25
795.3931	163.2017	62490.9	61763.25
795.535	165.4433	62766.25	62034.15
795.6768	167.6844	62539.75	61804.45
795.8187	169.925	62685.8	61951.8
795.9606	172.1651	62458.3	61721.05
796.1025	174.4047	62561.9	61820.75
796.2445	176.6439	62480.65	61735.6
796.3864	178.8825	62370.95	61624.05
796.5284	181.1206	62632.15	61879.15
796.6704	183.3582	62576.5	61824
796.8124	185.5954	62411.35	61652.65
796.9544	187.832	62416.8	61661.15
797.0965	190.0681	62195.15	61431.1
797.2386	192.3037	62566.95	61805
797.3806	194.5388	62890.35	62121.2
797.5228	196.7734	62023.4	61252.4
797.6649	199.0075	62784.35	62013.2
797.807	201.2411	62496.45	61721.95
797.9492	203.4742	62935	62158.5
798.0914	205.7068	62800.6	62022.4
798.2336	207.9389	62784.05	62006.4
798.3758	210.1704	62749.15	61970.25
798.518	212.4015	63031.6	62244.4
798.6603	214.632	62686.1	61901.5
798.8025	216.862	63060.1	62281.5
798.9448	219.0915	62888.6	62117.9
799.0871	221.3205	62816.65	62047.1
799.2294	223.549	63103.15	62344.1
799.3718	225.777	63073.6	62310.3
799.5141	228.0044	63190.65	62429.8
799.6565	230.2314	63086.6	62327.55
799.7989	232.4578	63091.2	62328.55
799.9413	234.6837	63134.7	62362.1
800.0837	236.909	63684.4	62918.45
800.2262	239.1339	62934.7	62138.75
800.3687	241.3582	63230.75	62449.75
800.5111	243.582	63223.5	62411.65
800.6536	245.8053	63195.5	62391.3
800.7961	248.0281	63209.45	62416.8
800.9387	250.2503	63308.1	62507.75
801.0812	252.472	63085.65	62280.2
801.2238	254.6932	63216.65	62409.1
801.3664	256.9139	63154.9	62349.4
801.509	259.134	63630.65	62817.2
801.6516	261.3536	63089.75	62281.2
801.7942	263.5727	63416.25	62607
801.9369	265.7912	63267.05	62456.75
802.0795	268.0092	63340.45	62527.7
802.2222	270.2267	63388.6	62578.7
802.3649	272.4436	63158.95	62343.2
802.5076	274.6601	63410.3	62596.65
802.6504	276.8759	63495.3	62680.2
802.7931	279.0913	63326.75	62509.2
802.9359	281.3061	63357.55	62541.15
803.0787	283.5204	63359.5	62537.45
803.2215	285.7341	63345.7	62521.3
803.3643	287.9473	63579.75	62741.5
803.5071	290.16	63396.1	62563.85
803.6499	292.3721	63526.25	62699.05
803.7928	294.5837	63332.2	62505.65
803.9357	296.7947	63191.2	62364.5
804.0786	299.0052	63556	62730.5
804.2215	301.2152	63416.7	62590.95
804.3644	303.4246	63543.2	62718.6
804.5074	305.6334	63504.35	62681.6
804.6503	307.8418	63190.4	62360.65
804.7933	310.0495	63197.7	62367.45
804.9363	312.2568	63113.05	62281.05
805.0793	314.4635	63108.1	62276.45
805.2223	316.6696	63206.7	62377.15
805.3653	318.8752	63306.3	62467
805.5084	321.0802	62817.5	61989.15
805.6514	323.2847	63005.25	62174.7
805.7945	325.4887	63010.75	62175.2
805.9376	327.692	62863.95	62026.35
806.0807	329.8949	62986.65	62153
806.2238	332.0972	62853.6	62013.95
806.367	334.2989	62925.65	62082.7
806.5101	336.5001	63093.65	62251
806.6533	338.7007	62685.6	61846.8
806.7965	340.9008	62854.4	62010.55
806.9397	343.1003	62869.65	62021.2
807.0829	345.2992	62974.35	62129.55
807.2261	347.4976	62790.55	61943.95
807.3693	349.6955	62886	62033.15
807.5126	351.8927	62724.75	61874.9
807.6559	354.0895	62883.55	62019.6
807.7991	356.2856	62837.05	61983.45
807.9424	358.4812	62998.4	62149.7
808.0857	360.6763	62704	61853.8
808.2291	362.8707	62903.05	62049.95
808.3724	365.0646	62753.2	61895.55
808.5158	367.258	62795.65	61941.6
808.6591	369.4508	62639.55	61775.1
808.8025	371.643	62892.5	62030
808.9459	373.8346	62778.75	61915.3
809.0893	376.0257	62750.75	61884.15
809.2327	378.2162	62697.2	61831.45
809.3762	380.4062	62485.7	61620.55
809.5196	382.5956	62651.15	61784.5
809.6631	384.7844	62640.2	61774.65
809.8066	386.9726	62689.95	61823.8
809.9501	389.1603	62682.3	61815.35
810.0936	391.3474	62466.5	61561.45
810.2371	393.5339	62675.05	61807.2
810.3806	395.7199	62377.6	61518.85
810.5241	397.9052	62412.7	61551.3
810.6677	400.09	62500.1	61644.2
810.8113	402.2743	62665.05	61807.75
810.9548	404.4579	62469.95	61615.45
811.0984	406.641	62456.2	61598.6
811.2421	408.8235	62616.95	61761
811.3857	411.0054	62639.7	61780.4
811.5293	413.1868	62653.85	61792.95
811.673	415.3675	62599.85	61733.15
811.8166	417.5477	62613.5	61750.05
811.9603	419.7273	62596.9	61727.5
812.104	421.9064	62549.9	61673.65
812.2477	424.0848	62599.25	61729.85
812.3914	426.2627	62692.5	61819.85
812.5351	428.4399	62388.1	61515.35
812.6788	430.6166	62145.1	61267.1
812.8226	432.7928	62403.95	61526.65
812.9663	434.9683	62104.2	61228.1
813.1101	437.1432	62077.1	61201.5
813.2539	439.3176	62265.65	61393.55
813.3977	441.4914	61882.45	61008.7
813.5415	443.6645	61924.65	61050.4
813.6853	445.8371	61955.15	61079.55
813.8291	448.0091	61792.4	60914.9
813.973	450.1806	61681.8	60807.3
814.1168	452.3514	61727.2	60849.15
814.2607	454.5216	61566.7	60682.65
814.4046	456.6913	61687.55	60810.65
814.5485	458.8603	61780.25	60905.4
814.6924	461.0288	61521.4	60645.4
814.8363	463.1967	61739.15	60865.7
814.9802	465.3639	61738.95	60856.55
815.1241	467.5306	61341.7	60462.8
815.2681	469.6967	61550.15	60674.75
815.412	471.8622	61662.7	60786.3
815.556	474.0271	61529.2	60654.2
815.7	476.1914	61577.05	60695.95
815.844	478.3551	61600.95	60719.15
815.988	480.5182	61830.25	60952.65
816.132	482.6807	61487.75	60615.45
816.276	484.8426	61570.15	60695.45
816.4201	487.0039	61929.5	61050.4
816.5641	489.1647	61940.4	61058
816.7082	491.3248	61623.65	60740.3
816.8522	493.4843	62000.55	61120.7
816.9963	495.6432	61998.35	61118.3
817.1404	497.8015	61565.85	60678.2
817.2845	499.9592	61791.1	60902.15
817.4286	502.1163	61744.7	60856.3
817.5727	504.2728	61669.6	60788.4
817.7168	506.4287	61637.6	60762
817.861	508.5839	61420.2	60538.95
818.0051	510.7386	61514.7	60636.2
818.1493	512.8927	61530.25	60641.35
818.2935	515.0461	61425.25	60540.05
818.4377	517.199	61590.1	60707.05
818.5818	519.3512	61457.2	60571.2
818.726	521.5029	61408.85	60517.85
818.8703	523.6539	61517.95	60629.3
819.0145	525.8043	61288.1	60397.9
819.1587	527.9541	61512.2	60620.25
819.303	530.1033	61456.95	60565.45
819.4472	532.2519	61290.65	60401.8
819.5915	534.3999	61481.6	60592.45
819.7357	536.5472	61595	60706.45
819.88	538.694	61291.45	60406.15
820.0243	540.8401	61549.05	60657.3
820.1686	542.9856	61564.65	60669.55
820.3129	545.1305	61681.45	60781.9
820.4572	547.2748	61472.45	60568
820.6016	549.4185	61446.6	60542.35
820.7459	551.5615	61561.5	60659.2
820.8902	553.704	61474.4	60574
821.0346	555.8458	61348.2	60454.2
821.1789	557.987	61408	60512.9
821.3233	560.1276	61510.2	60610
821.4677	562.2675	61475.05	60572.85
821.6121	564.4069	61579.45	60682.55
821.7565	566.5456	61752.6	60857.15
821.9009	568.6837	61436.85	60541.75
822.0453	570.8212	61468.75	60574.9
822.1897	572.958	61094.95	60196.9
822.3342	575.0942	61304.35	60411.1
822.4786	577.2299	61054.45	60165.3
822.6231	579.3648	61001.35	60112.4
822.7675	581.4992	60877.9	59997.6
822.912	583.6329	60898.3	60014.5
823.0565	585.766	60923.95	60038.3
823.201	587.8985	61011.25	60126.15
823.3454	590.0304	60685.2	59766.7
823.4899	592.1616	60892.25	59994.75
823.6345	594.2922	60748.35	59847
823.779	596.4222	60574.4	59676.55
823.9235	598.5515	60579.95	59680.45
824.068	600.6802	60617.8	59719.3
824.2126	602.8083	60336.7	59440.25
824.3571	604.9358	60323.65	59425.35
824.5017	607.0626	60514.6	59611.6
824.6462	609.1888	60220.3	59310.5
824.7908	611.3144	60411.55	59505.2
824.9354	613.4393	60319.75	59415.3
825.08	615.5636	60165.7	59260.65
825.2246	617.6873	60319.65	59420.6
825.3692	619.8103	60110.05	59206.45
825.5138	621.9327	60259.85	59356.25
825.6584	624.0544	60284	59387.6
825.803	626.1756	60126.75	59228.95
825.9477	628.2961	60053.8	59148.85
826.0923	630.4159	59939	59035.85
826.237	632.5351	59899.6	58994.25
826.3816	634.6537	60190	59284.6
826.5263	636.7716	59845.3	58939.7
826.6709	638.8889	59956.85	59050
826.8156	641.0056	59927.2	59022.05
826.9603	643.1216	59947.25	59041.1
827.105	645.237	60024.95	59119.95
827.2497	647.3518	59755.5	58848.85
827.3944	649.4659	59846.25	58944.55
827.5391	651.5793	59829.8	58927.5
827.6838	653.6922	59848.9	58947.95
827.8285	655.8043	59534.9	58632.6
827.9733	657.9159	59952.3	59049.45
828.118	660.0268	59209.45	58303.05
828.2627	662.137	59637.35	58729.6
828.4075	664.2466	59692.7	58780.3
828.5522	666.3556	59528.4	58618.45
828.697	668.4639	59615.6	58707.2
828.8418	670.5716	59424.35	58520.65
828.9865	672.6786	59574	58669.1
829.1313	674.785	59281.35	58369.75
829.2761	676.8907	59291.95	58382.6
829.4209	678.9958	59387.05	58485.25
829.5657	681.1002	59448.7	58539.3
829.7105	683.204	59155.15	58239.7
829.8553	685.3072	59006.25	58095.7
830.0001	687.4097	59100.1	58190.35
830.1449	689.5115	58996.55	58082.6
830.2898	691.6127	59275.3	58369.2
830.4346	693.7132	59050.15	58143.25
830.5794	695.8131	59054.85	58126.75
830.7243	697.9123	59126.15	58213.05
830.8691	700.0109	59131.7	58220.35
831.014	702.1089	58793.35	57881.95
831.1588	704.2061	58896.25	57985.45
831.3037	706.3028	58950.7	58038.1
831.4486	708.3987	58936.6	58027
831.5935	710.4941	58780.7	57870.6
831.7383	712.5887	59003.25	58092.05
831.8832	714.6827	58855.25	57942.25
832.0281	716.7761	59052.55	58145.9
832.173	718.8688	59145	58231.45
832.3179	720.9608	58957.4	58040
832.4628	723.0522	58989.1	58071.65
832.6077	725.1429	58771.95	57857.2
832.7527	727.233	59247.25	58336.15
832.8976	729.3224	58377.35	57463.6
833.0425	731.4112	58681	57765.9
833.1874	733.4993	58658.35	57740.9
833.3324	735.5867	58593.8	57681.8
833.4773	737.6735	58257.35	57344.15
833.6222	739.7596	57949.35	57033.45
833.7672	741.845	57939.05	57023.85
833.9122	743.9298	58276.95	57362.75
834.0571	746.014	57842.9	56933.6
834.2021	748.0974	57567.7	56646.65
834.347	750.1802	58061.65	57142.25
834.492	752.2624	57366.7	56449.4
834.637	754.3439	57454.85	56537.9
834.782	756.4247	57610.7	56687.1
834.9269	758.5048	57343.75	56427.4
835.0719	760.5843	57520	56605.05
835.2169	762.6631	57685.8	56768.45
835.3619	764.7413	57707.2	56791.3
835.5069	766.8188	57961.95	57043.95
835.6519	768.8956	58265.4	57348.3
835.7969	770.9718	58295.15	57379.65
835.9419	773.0473	58137.6	57220.4
836.0869	775.1221	57743.35	56827.35
836.232	777.1962	57591.15	56677.25
836.377	779.2697	57185.95	56268.6
836.522	781.3426	57411.15	56482.75
836.667	783.4147	57495.55	56579.45
836.8121	785.4862	57465.35	56549.3
836.9571	787.557	57075.45	56158.75
837.1021	789.6271	57255.75	56340.35
837.2472	791.6966	56725.3	55805.2
837.3922	793.7654	56205.15	55285.9
837.5373	795.8335	56086.45	55168.1
837.6823	797.901	56043.7	55126.9
837.8274	799.9678	55816.15	54895.55
837.9724	802.0339	55696.6	54775.9
838.1175	804.0993	55676.55	54747.3
838.2626	806.1641	55508.5	54592.4
838.4076	808.2282	55411.1	54493.35
838.5527	810.2916	55334.1	54416.25
838.6978	812.3544	55417	54498.85
838.8428	814.4164	55055.4	54139.25
838.9879	816.4778	55169.75	54246.35
839.133	818.5385	55075.3	54157.65
839.2781	820.5986	55092.35	54172.75
839.4232	822.658	55191.25	54269.65
839.5682	824.7166	55255.1	54340.7
839.7133	826.7747	55154.6	54237.8
839.8584	828.832	55440.95	54523.35
840.0035	830.8886	55669.5	54749.15
840.1486	832.9446	55667.3	54745.2
840.2937	834.9999	55053	54136.4
840.4388	837.0545	55243.35	54320.8
840.5839	839.1085	55200.55	54280.4
840.729	841.1618	54990.2	54066.15
840.8741	843.2143	54527.75	53610.7
841.0192	845.2662	54404.9	53487.7
841.1643	847.3175	54496.35	53577.9
841.3095	849.368	53981.8	53060.6
841.4546	851.4179	54252.45	53332.55
841.5997	853.467	53811.5	52894.1
841.7448	855.5155	53927.3	53007
841.8899	857.5633	53604.35	52683.3
842.0351	859.6105	53371.4	52453.1
842.1802	861.6569	53576.6	52657.5
842.3253	863.7027	53065.75	52142.05
842.4704	865.7478	53277.55	52354.3
842.6156	867.7922	53113.95	52195.85
842.7607	869.8359	53200	52278.8
842.9058	871.8789	52779.45	51857.05
843.0509	873.9212	53007.9	52053.35
843.1961	875.9629	52981.75	52058
843.3412	878.0039	52993.7	52072
843.4863	880.0441	52839.1	51920.5
843.6315	882.0837	52824.6	51906.05
843.7766	884.1226	52783.3	51862.35
843.9218	886.1609	52758.7	51838.25
844.0669	888.1984	52626.45	51708.05
844.212	890.2352	53012.65	52090.25
844.3572	892.2714	52530.95	51603.4
844.5023	894.3069	52642.25	51718.3
844.6475	896.3416	52326.8	51402.4
844.7926	898.3757	52173.1	51249.7
844.9377	900.4091	51746.75	50822.9
845.0829	902.4418	52221.95	51293.55
845.228	904.4739	51809.95	50885
845.3732	906.5052	51882.2	50959.9
845.5183	908.5358	51651.65	50732.35
845.6635	910.5658	51412.85	50489.65
845.8086	912.595	51265.15	50343.4
845.9538	914.6236	50676.3	49754.95
846.0989	916.6515	51250.95	50327.65
846.2441	918.6786	50474.45	49547.95
846.3892	920.7051	50622.1	49697.4
846.5344	922.7309	50522.05	49600.35
846.6795	924.756	50551.05	49629.25
846.8246	926.7804	50369.05	49442.5
846.9698	928.8041	49851.75	48926.85
847.1149	930.8272	50129.05	49204.2
847.2601	932.8495	50003.95	49082
847.4052	934.8711	49654.75	48734.05
847.5504	936.892	49440.2	48516.15
847.6955	938.9123	49530.65	48607
847.8407	940.9318	49268.25	48348.9
847.9858	942.9506	49161.75	48237.55
848.131	944.9688	49122.4	48198.75
848.2761	946.9862	48547.15	47623.55
848.4213	949.003	48561.85	47639.4
848.5664	951.019	48109.4	47184.75
848.7115	953.0344	48111.85	47191.35
848.8567	955.0491	47979.75	47059.55
849.0018	957.063	48154.65	47231.3
849.147	959.0763	48248.8	47321.9
849.2921	961.0888	47889.5	46963.65
849.4373	963.1007	48069.15	47148.45
849.5824	965.1119	47909.55	46993.35
849.7275	967.1223	47776.1	46861.25
849.8727	969.1321	47870.2	46953.15
850.0178	971.1412	47531.7	46615.4
850.1629	973.1495	47364.3	46442.85
850.3081	975.1572	47438.65	46478.4
850.4532	977.1641	47348.8	46425.95
850.5983	979.1704	47099.3	46176.25
850.7435	981.1759	47057.5	46130.9
850.8886	983.1808	46875	45949.15
851.0337	985.1849	46846.8	45913.6
851.1788	987.1884	46817.75	45892.95
851.324	989.1911	46894.9	45972.1
851.4691	991.1932	46558.55	45637.1
851.6142	993.1945	46518.4	45599.3
851.7593	995.1951	46413.05	45494.2
851.9045	997.1951	46261.2	45333.4
852.0496	999.1943	46017.9	45097.85
852.1947	1001.1928	45836.15	44915.2
852.3398	1003.1906	45766.7	44846.15
852.4849	1005.1877	45645	44724.6
852.63	1007.1841	45457.95	44539.2
852.7751	1009.1798	45389.85	44467.9
852.9202	1011.1748	45166.2	44243.05
853.0653	1013.1691	45036.2	44115
853.2104	1015.1627	44511.55	43589.9
853.3555	1017.1556	44223.45	43305.75
853.5006	1019.1477	44102.05	43184.25
853.6457	1021.1392	43761.25	42843.45
853.7908	1023.1299	43500.5	42584.5
853.9359	1025.12	43387.35	42470.4
854.081	1027.1093	43218.1	42307.75
854.2261	1029.0979	43233	42325.75
854.3712	1031.0859	43127.8	42219.1
854.5163	1033.0731	42956.55	42043.65
854.6613	1035.0596	42816.65	41899.75
854.8064	1037.0454	42543.8	41625.1
854.9515	1039.0304	42372.95	41456.95
855.0965	1041.0148	42059.45	41141.2
855.2416	1042.9985	41947.9	41030.6
855.3867	1044.9814	41933.85	41016.3
855.5317	1046.9636	41593.8	40675.3
855.6768	1048.9452	41435.8	40520.1
855.8219	1050.926	41425.1	40510.4
855.9669	1052.9061	41373	40451.55
856.112	1054.8855	41322.95	40403.25
856.257	1056.8642	41148.3	40227.3
856.4021	1058.8421	41162.4	40238.45
856.5471	1060.8194	41046.05	40128.4
856.6921	1062.7959	40944.25	40027.85
856.8372	1064.7717	40937.55	40015.9
856.9822	1066.7469	40743.55	39822.5
857.1272	1068.7213	40818.4	39895.75
857.2723	1070.695	40768.1	39849.05
857.4173	1072.6679	40556.4	39637.6
857.5623	1074.6402	40536.6	39617.5
857.7073	1076.6117	40410.05	39486.55
857.8523	1078.5826	40329.7	39410.2
857.9973	1080.5527	40100.5	39179.15
858.1423	1082.5221	39959.85	39042.45
858.2873	1084.4908	39910.7	38992.3
858.4323	1086.4587	39814.6	38894.6
858.5773	1088.426	39812.75	38893.3
858.7223	1090.3925	39657.75	38733.2
858.8673	1092.3584	39639	38721.3
859.0123	1094.3235	39379.75	38462.65
859.1573	1096.2879	39318.05	38400.25
859.3022	1098.2515	39311	38393
859.4472	1100.2145	39372.35	38455.45
859.5922	1102.1767	39345.25	38426.45
859.7371	1104.1382	39361.35	38442.7
859.8821	1106.099	39483.65	38562.75
860.027	1108.0591	39525.55	38609.1
860.172	1110.0185	39455.95	38537.75
860.3169	1111.9771	39509.45	38593.2
860.4619	1113.9351	39326.9	38407.95
860.6068	1115.8923	39051.45	38134.1
860.7517	1117.8488	38797.9	37879.7
860.8967	1119.8045	38461.6	37541.8
861.0416	1121.7596	38365.65	37444.4
861.1865	1123.7139	38049.2	37132.65
861.3314	1125.6675	37975.2	37060.2
861.4763	1127.6204	37984.25	37067
861.6212	1129.5726	37858.75	36939.5
861.7661	1131.524	37767.3	36852.25
861.911	1133.4748	37604.8	36687.4
862.0559	1135.4248	37379.7	36460.5
862.2008	1137.3741	37244.55	36324.3
862.3457	1139.3226	37082.6	36162.15
862.4905	1141.2705	37055.05	36133.3
862.6354	1143.2176	36756.25	35829.35
862.7803	1145.164	36721.1	35801.2
862.9251	1147.1097	36574.9	35655.35
863.07	1149.0546	36471.75	35553.65
863.2148	1150.9989	36345.15	35428.1
863.3597	1152.9424	36253.65	35337.1
863.5045	1154.8852	36079.15	35161.2
863.6493	1156.8272	35962.5	35045.35
863.7942	1158.7686	35952.2	35027.2
863.939	1160.7092	35830.55	34911.3
864.0838	1162.6491	35721.25	34803.1
864.2286	1164.5883	35774.5	34859.3
864.3734	1166.5267	35735.15	34817.15
864.5182	1168.4644	35763.8	34845.8
864.663	1170.4014	35833.95	34915.3
864.8078	1172.3377	35971.05	35057.6
864.9526	1174.2732	36107.3	35189
865.0974	1176.2081	36317.25	35400.7
865.2421	1178.1421	36562.5	35641.2
865.3869	1180.0755	36871.35	35956.9
865.5317	1182.0082	36905.75	35990.65
865.6764	1183.9401	37028.95	36112.85
865.8212	1185.8713	36787.95	35873.35
865.9659	1187.8017	36474.15	35562.05
866.1106	1189.7315	36167.9	35260.4
866.2554	1191.6605	35657.35	34748.95
866.4001	1193.5888	35393.7	34484.4
866.5448	1195.5163	35182.05	34268.4
866.6895	1197.4432	35011.65	34095.75
866.8342	1199.3693	34919.45	34007.8
866.9789	1201.2947	34740.15	33823.65
867.1236	1203.2193	34615.5	33700.9
867.2683	1205.1432	34567.75	33652.5
867.413	1207.0664	34466.2	33549.65
867.5576	1208.9889	34335.15	33415.55
867.7023	1210.9106	34229.85	33315.65
867.847	1212.8316	34096.6	33183
867.9916	1214.7519	34036.05	33111.7
868.1363	1216.6715	33945.4	33030.2
868.2809	1218.5903	33960.75	33045.7
868.4255	1220.5084	33894.55	32980.95
868.5701	1222.4257	33948	33032.4
868.7148	1224.3424	33751.85	32839.95
868.8594	1226.2583	33745.15	32827.55
869.004	1228.1735	33797.05	32881.9
869.1486	1230.0879	33794.45	32880.9
869.2932	1232.0016	33833.3	32919.25
869.4377	1233.9146	33784.3	32868.45
869.5823	1235.8269	33706.1	32792.05
869.7269	1237.7384	33643.65	32729.8
869.8715	1239.6492	33377.1	32462.3
870.016	1241.5592	33343.7	32430.1
870.1606	1243.4686	33225.5	32312.85
870.3051	1245.3772	33292.1	32377.15
870.4496	1247.285	33260.45	32344.4
870.5941	1249.1922	33245.1	32329.45
870.7387	1251.0986	33304.9	32391.7
870.8832	1253.0042	33247.45	32333.05
871.0277	1254.9092	33237.55	32325.2
871.1722	1256.8134	33268.35	32352.9
871.3167	1258.7169	33279.35	32364.8
871.4611	1260.6196	33342.6	32427.3
871.6056	1262.5216	33483.95	32570.35
871.7501	1264.4229	33527.65	32617
871.8945	1266.3234	33614.25	32700.4
872.039	1268.2232	33656.25	32739
872.1834	1270.1223	33593.6	32675.35
872.3278	1272.0207	33564.05	32649.05
872.4723	1273.9183	33421.05	32499.45
872.6167	1275.8151	33297	32384.15
872.7611	1277.7113	33295.9	32380.3
872.9055	1279.6067	33240.45	32328.95
873.0499	1281.5014	33217.85	32303.25
873.1943	1283.3953	33396.85	32482.9
873.3386	1285.2885	33650.15	32737.15
873.483	1287.181	33955.95	33044.5
873.6274	1289.0727	34254.85	33345.85
873.7717	1290.9637	34317.3	33410.45
873.9161	1292.854	34458.15	33548
874.0604	1294.7435	34354.85	33440.5
874.2047	1296.6323	34235.85	33323.2
874.349	1298.5204	34146.55	33231.05
874.4933	1300.4077	34045.3	33131.2
874.6376	1302.2943	33818.2	32905.95
874.7819	1304.1802	33648.25	32736.9
874.9262	1306.0653	33236.65	32323.6
875.0705	1307.9497	32913.1	32004.15
875.2147	1309.8333	32598.05	31683.95
875.359	1311.7162	32373.9	31461.3
875.5032	1313.5984	32222.55	31307.5
875.6475	1315.4798	32002.2	31078.05
875.7917	1317.3605	31958.1	31028.3
875.9359	1319.2405	31894.25	30978.8
876.0801	1321.1197	31765.55	30849.3
876.2243	1322.9982	31468.45	30550.4
876.3685	1324.876	31258.4	30344.95
876.5127	1326.753	30959.05	30045.2
876.6569	1328.6293	30873.8	29961.1
876.801	1330.5048	30728.65	29814.15
876.9452	1332.3796	30518.8	29608.15
877.0893	1334.2537	30473.75	29539.4
877.2335	1336.127	30287.45	29372.7
877.3776	1337.9996	30204.85	29291.35
877.5217	1339.8714	30140.4	29227.65
877.6658	1341.7426	30066.95	29110.15
877.8099	1343.6129	30021.65	29108.45
877.954	1345.4826	29886.45	28973.7
878.0981	1347.3515	29900.75	28985.75
878.2422	1349.2196	29816.25	28900.85
878.3862	1351.087	29870.8	28956.2
878.5303	1352.9537	29861.9	28948.85
878.6743	1354.8197	29893.45	28979.75
878.8184	1356.6849	29977.05	29065.15
878.9624	1358.5493	29979.3	29067.5
879.1064	1360.4131	30044.85	29129.6
879.2504	1362.276	30075.85	29164.3
879.3944	1364.1383	30023.8	29111.05
879.5384	1365.9998	29851.3	28933.15
879.6823	1367.8606	29542	28628.3
879.8263	1369.7206	29221.45	28306.8
879.9702	1371.5799	28896.95	27980.85
880.1142	1373.4384	28646.65	27733.6
880.2581	1375.2962	28441.4	27524.6
880.402	1377.1533	28075.15	27163.65
880.5459	1379.0096	27744.45	26830.1
880.6898	1380.8652	27508	26599.1
880.8337	1382.7201	27193.4	26282.2
880.9776	1384.5742	26977.95	26066.85
881.1215	1386.4275	26746.85	25833.5
881.2653	1388.2802	26505	25591.45
881.4092	1390.132	26344.9	25432.2
881.553	1391.9832	26248.6	25334.05
881.6968	1393.8336	26051.45	25140.5
881.8406	1395.6832	25958.7	25045.05
881.9844	1397.5322	25873.9	24962.9
882.1282	1399.3803	25785.1	24870.85
882.272	1401.2278	25628.6	24718.05
882.4158	1403.0745	25548.4	24635.6
882.5595	1404.9204	25423.9	24512.8
882.7033	1406.7656	25432.05	24520.95
882.847	1408.6101	25320.65	24407.3
882.9908	1410.4538	25267.6	24353.85
883.1345	1412.2968	25262.8	24350.35
883.2782	1414.139	25187.05	24275.5
883.4219	1415.9805	25224.1	24314.05
883.5656	1417.8213	25172	24241.9
883.7092	1419.6613	25157.6	24247.45
883.8529	1421.5006	25203.6	24292.7
883.9965	1423.3391	25295.8	24385.3
884.1402	1425.1769	25450.75	24538.55
884.2838	1427.0139	25708.75	24797.75
884.4274	1428.8502	26077.65	25164.35
884.571	1430.6858	26382.7	25472.2
884.7146	1432.5206	26525.75	25617
884.8582	1434.3547	26698.55	25786.85
885.0018	1436.188	26701.5	25789.85
885.1453	1438.0206	26601.15	25689
885.2889	1439.8524	26359.6	25450.15
885.4324	1441.6835	26273.95	25363.95
885.5759	1443.5139	26134.6	25219.65
885.7194	1445.3435	26025.15	25116.15
885.8629	1447.1724	25973.85	25066.05
886.0064	1449.0005	25887	24977.6
886.1499	1450.8279	25787.8	24876.6
886.2933	1452.6545	25753.5	24844.3
886.4368	1454.4804	25738.1	24831.55
886.5802	1456.3056	25730.1	24813.5
886.7237	1458.13	25642.35	24736.6
886.8671	1459.9536	25543.75	24633
887.0105	1461.7766	25297	24387.05
887.1539	1463.5987	24967.8	24056.4
887.2972	1465.4202	24688.7	23780.2
887.4406	1467.2409	24342.4	23433.95
887.584	1469.0608	24211.85	23302
887.7273	1470.88	23936.9	23026.2
887.8706	1472.6984	23744	22835.6
888.0139	1474.5161	23498.8	22588.2
888.1572	1476.3331	23342.9	22434.3
888.3005	1478.1493	23252.75	22342.65
888.4438	1479.9648	23112.55	22203.75
888.5871	1481.7795	23006.6	22097.55
888.7303	1483.5935	22974.75	22065.65
888.8736	1485.4067	22890.45	21981.35
889.0168	1487.2192	22811.35	21902.2
889.16	1489.031	22753.65	21844.3
889.3032	1490.842	22684.65	21774.45
889.4464	1492.6522	22640.5	21732.45
889.5896	1494.4618	22561.9	21650.7
889.7327	1496.2705	22489.1	21583.65
889.8759	1498.0785	22436.85	21528.7
890.019	1499.8858	22370.6	21459.75
890.1622	1501.6924	22304.55	21398.15
890.3053	1503.4981	22272.6	21365.05
890.4484	1505.3032	22204.05	21294.45
890.5914	1507.1075	22122.8	21211.6
890.7345	1508.911	22060.25	21155
890.8776	1510.7138	22001.1	21092.5
891.0206	1512.5159	21940.45	21031.9
891.1637	1514.3172	21833.6	20927.35
891.3067	1516.1178	21735.1	20827.85
891.4497	1517.9176	21692.4	20782.45
891.5927	1519.7166	21593.55	20687.95
891.7357	1521.515	21522.15	20609.9
891.8786	1523.3126	21439.2	20530.55
892.0216	1525.1094	21379.1	20471.95
892.1645	1526.9055	21293.85	20390.05
892.3074	1528.7008	21226.9	20318.95
892.4503	1530.4954	21092.95	20182.15
892.5932	1532.2893	21060.55	20156.55
892.7361	1534.0824	20929.85	20019.75
892.879	1535.8747	20952.25	20048.2
893.0218	1537.6663	20891.75	19986.15
893.1647	1539.4572	20822.65	19915.7
893.3075	1541.2473	20789.55	19885.55
893.4503	1543.0367	20745	19840.85
893.5931	1544.8253	20650.5	19742.45
893.7359	1546.6132	20663.45	19755.75
893.8787	1548.4003	20602.8	19689.55
894.0214	1550.1867	20569.3	19658.1
894.1642	1551.9723	20552	19641.4
894.3069	1553.7572	20576.55	19672.7
894.4496	1555.5414	20584.2	19680.7
894.5923	1557.3247	20636.1	19731.8
894.735	1559.1074	20648.4	19748.2
894.8777	1560.8893	20715.5	19816.2
895.0204	1562.6705	20766.9	19866.6
895.163	1564.4509	20810.7	19910.25
895.3056	1566.2305	20804.6	19905.6
895.4482	1568.0094	20868.5	19971.9
895.5908	1569.7876	20833.85	19934
895.7334	1571.565	20790.1	19889.45
895.876	1573.3417	20759.05	19859.3
896.0186	1575.1176	20716.65	19817.35
896.1611	1576.8928	20704.1	19804.05
896.3036	1578.6672	20612.1	19713.85
896.4461	1580.4409	20562.55	19665.85
896.5886	1582.2138	20502.6	19603.4
896.7311	1583.986	20467.55	19568.25
896.8736	1585.7575	20509.35	19611.2
897.0161	1587.5282	20450.5	19553.5
897.1585	1589.2981	20493.7	19599.05
897.3009	1591.0673	20467.3	19569.7
897.4433	1592.8358	20532.65	19636.85
897.5857	1594.6035	20565.6	19662.9
897.7281	1596.3704	20495.6	19596.5
897.8705	1598.1366	20521.5	19624.25
898.0128	1599.9021	20527.9	19629.9
898.1551	1601.6668	20501.45	19602.1
898.2975	1603.4308	20519.15	19617.75
898.4398	1605.194	20593.15	19689.55
898.5821	1606.9564	20672.85	19776.35
898.7243	1608.7182	20859.4	19963.2
898.8666	1610.4791	20958.95	20067.1
899.0088	1612.2394	21092.45	20202
899.1511	1613.9988	21290.85	20397
899.2933	1615.7576	21519.95	20624.6
899.4355	1617.5156	21627.2	20721.15
899.5776	1619.2728	21702.1	20804.6
899.7198	1621.0293	21640.3	20742.85
899.862	1622.785	21488.3	20591.45
900.0041	1624.54	21226.7	20331.65
900.1462	1626.2942	20906.25	20009.65
900.2883	1628.0477	20561.05	19662.5
900.4304	1629.8005	20313.2	19415.35
900.5725	1631.5525	20064.25	19167.75
900.7145	1633.3037	19813.9	18919.65
900.8566	1635.0542	19620.25	18725.95
900.9986	1636.804	19457.2	18563.95
901.1406	1638.553	19354	18415
901.2826	1640.3013	19209.95	18316.45
901.4245	1642.0488	19139.5	18242
901.5665	1643.7955	19096.95	18203.35
901.7085	1645.5416	19105.25	18211.5
901.8504	1647.2868	19150.2	18255.75
901.9923	1649.0313	19158.15	18263.65
902.1342	1650.7751	19239.8	18343.1
902.2761	1652.5181	19309.95	18416.5
902.4179	1654.2604	19344.8	18452.3
902.5598	1656.0019	19514.6	18622.3
902.7016	1657.7427	19633.9	18737.55
902.8434	1659.4828	19788.95	18894.95
902.9852	1661.222	19891.8	18996.55
903.127	1662.9606	19849.45	18954.65
903.2687	1664.6984	19670.7	18774.9
903.4105	1666.4354	19401.55	18504.5
903.5522	1668.1717	18950.1	18051.35
903.6939	1669.9072	18480.9	17584
903.8356	1671.642	18137.75	17237.45
903.9773	1673.3761	17829.85	16933.9
904.119	1675.1094	17573.95	16678.05
904.2606	1676.8419	17334.85	16442.4
904.4022	1678.5737	17164.25	16268.15
904.5439	1680.3048	17013.05	16118.3
904.6855	1682.0351	16883.5	15988.1
904.827	1683.7646	16708.95	15809.45
904.9686	1685.4934	16641	15744.25
905.1101	1687.2215	16522.35	15626.25
905.2517	1688.9488	16413.9	15517.9
905.3932	1690.6754	16326.85	15434.5
905.5347	1692.4012	16275.25	15378.45
905.6761	1694.1263	16180.6	15286.7
905.8176	1695.8506	16150.65	15257.05
905.9591	1697.5742	16101.35	15207.1
906.1005	1699.297	16013.85	15121.15
906.2419	1701.0191	15941.65	15050.3
906.3833	1702.7404	15884.2	14993.05
906.5246	1704.461	15777.8	14881.2
906.666	1706.1808	15687	14790.8
906.8073	1707.8999	15665.5	14771.6
906.9487	1709.6182	15612.15	14721.25
907.09	1711.3358	15565.5	14673.05
907.2313	1713.0527	15493.2	14603.5
907.3725	1714.7688	15433.2	14535.8
907.5138	1716.4841	15364.9	14471.85
907.655	1718.1987	15326.6	14429.05
907.7962	1719.9126	15281.6	14390.6
907.9374	1721.6257	15241.15	14348.85
908.0786	1723.338	15192	14302.3
908.2198	1725.0496	15103.85	14212.4
908.3609	1726.7605	15093	14200.8
908.502	1728.4706	15047.85	14153.55
908.6431	1730.18	14924.55	14030.95
908.7842	1731.8886	14908.55	14018.55
908.9253	1733.5964	14913.9	14002.15
909.0664	1735.3036	14855.3	13961.75
909.2074	1737.0099	14776.75	13886.5
909.3484	1738.7156	14744.1	13853.4
909.4894	1740.4204	14711.75	13819.85
909.6304	1742.1246	14655.3	13761.9
909.7714	1743.8279	14636.05	13747.25
909.9123	1745.5306	14600.95	13710.35
910.0532	1747.2325	14507.1	13617.65
910.1941	1748.9336	14486.3	13597.2
910.335	1750.634	14426.85	13532.7
910.4759	1752.3336	14396.75	13506.85
910.6168	1754.0325	14346.7	13460.55
910.7576	1755.7307	14319.1	13427.35
910.8984	1757.4281	14321.45	13432.05
911.0392	1759.1247	14282.45	13380.8
911.18	1760.8206	14262.7	13363.35
911.3208	1762.5158	14241.1	13342.4
911.4615	1764.2102	14161.15	13272.1
911.6022	1765.9039	14151.15	13262.75
911.7429	1767.5968	14109.8	13222.3
911.8836	1769.289	14064.7	13175.65
912.0243	1770.9804	14030.6	13137.5
912.1649	1772.6711	14017.6	13125.6
912.3056	1774.361	13982.2	13089.8
912.4462	1776.0502	13934.7	13040.85
912.5868	1777.7386	13864.9	12971.85
912.7274	1779.4263	13852.85	12961.45
912.8679	1781.1132	13842.55	12953.6
913.0084	1782.7994	13803.8	12913.35
913.149	1784.4849	13796	12906.45
913.2895	1786.1696	13729.2	12836.95
913.4299	1787.8535	13680.05	12791.8
913.5704	1789.5367	13671.45	12784.85
913.7108	1791.2192	13656.35	12765.9
913.8513	1792.9009	13610.6	12693.25
913.9917	1794.5818	13577.3	12683.65
914.132	1796.2621	13524.2	12633.4
914.2724	1797.9415	13505.85	12615.05
914.4128	1799.6202	13452.95	12562.25
914.5531	1801.2982	13395.4	12503.6
914.6934	1802.9755	13431.05	12537.95
914.8337	1804.6519	13396.2	12506.5
914.9739	1806.3277	13312.05	12422.75
915.1142	1808.0027	13279.3	12392.4
915.2544	1809.6769	13283.2	12394.25
915.3946	1811.3504	13212.5	12324.35
915.5348	1813.0231	13207	12319.05
915.675	1814.6951	13170.45	12281.85
915.8151	1816.3664	13185.95	12294.75
915.9553	1818.0369	13110.25	12218.75
916.0954	1819.7067	13118.4	12228.95
916.2355	1821.3757	13107.3	12215.3
916.3755	1823.044	13072.85	12182.65
916.5156	1824.7115	13026.4	12135.65
916.6556	1826.3783	12970.35	12081.2
916.7956	1828.0443	12951.25	12062.25
916.9356	1829.7096	12924.55	12034.65
917.0756	1831.3741	12892.75	12000.65
917.2155	1833.0379	12850.7	11962.15
917.3555	1834.701	12805.3	11914.9
917.4954	1836.3633	12801.85	11912.7
917.6353	1838.0248	12760.9	11869.75
917.7751	1839.6856	12711.7	11822.5
917.915	1841.3457	12724.65	11836.35
918.0548	1843.005	12676.6	11786.6
918.1946	1844.6636	12668.95	11779.9
918.3344	1846.3214	12646.2	11756.75
918.4742	1847.9785	12646.25	11757.3
918.6139	1849.6349	12631.25	11740.8
918.7537	1851.2904	12581.45	11680.85
918.8934	1852.9453	12530.75	11638.5
919.0331	1854.5994	12493.8	11602.35
919.1727	1856.2528	12513.55	11618.35
919.3124	1857.9054	12480.55	11589.7
919.452	1859.5572	12478.65	11590.8
919.5916	1861.2083	12427.6	11535.55
919.7312	1862.8587	12437.7	11546.9
919.8708	1864.5084	12407.5	11515.1
920.0103	1866.1572	12397.65	11505.8
920.1498	1867.8054	12312.2	11420.35
920.2893	1869.4528	12312.5	11421.25
920.4288	1871.0994	12271.7	11382.8
920.5683	1872.7453	12247.5	11357.35
920.7077	1874.3905	12206.25	11309.2
920.8471	1876.0349	12175.3	11284.45
920.9865	1877.6786	12174.4	11282.55
921.1259	1879.3215	12146.65	11256.8
921.2653	1880.9637	12109.75	11217.3
921.4046	1882.6051	12108.35	11220.2
921.5439	1884.2458	12079.9	11188.4
921.6832	1885.8858	12003.6	11114.1
921.8225	1887.525	11998.15	11107.85
921.9617	1889.1634	11951.9	11061.3
922.101	1890.8011	11912.6	11021.45
922.2402	1892.4381	11874.2	10984.95
922.3794	1894.0743	11893.05	11004.4
922.5185	1895.7098	11862.75	10973.4
922.6577	1897.3446	11802.35	10913.05
922.7968	1898.9786	11778.95	10885.25
922.9359	1900.6118	11784.9	10896
923.075	1902.2443	11705.4	10810.65
923.214	1903.8761	11695.1	10806.15
923.3531	1905.5071	11622.5	10730.1
923.4921	1907.1374	11591	10701
923.6311	1908.7669	11556.4	10668.5
923.77	1910.3957	11546.6	10658.05
923.909	1912.0237	11485.7	10597.6
924.0479	1913.651	11478.3	10588.3
924.1868	1915.2776	11426.9	10537.5
924.3257	1916.9034	11382.1	10495.7
924.4646	1918.5285	11351.6	10464.25
924.6034	1920.1528	11302.25	10413.45
924.7422	1921.7764	11276	10384.8
924.881	1923.3992	11244.35	10356.05
925.0198	1925.0213	11193.45	10303.45
925.1586	1926.6427	11142.4	10253.75
925.2973	1928.2633	11179.6	10212.7
925.436	1929.8832	11118.8	10229.85
925.5747	1931.5023	11074.2	10185.95
925.7134	1933.1207	11060.5	10171.6
925.852	1934.7383	11037.65	10147.4
925.9906	1936.3552	10984.65	10097.95
926.1292	1937.9714	10963.25	10073.85
926.2678	1939.5868	10924.4	10033.8
926.4064	1941.2015	10859.05	9967.8
926.5449	1942.8154	10822.3	9933.8
926.6834	1944.4286	10777.55	9887.55
926.8219	1946.041	10753.4	9845.3
926.9604	1947.6528	10689.3	9794.7
927.0988	1949.2637	10673.45	9785.15
927.2372	1950.8739	10625.9	9736.65
927.3756	1952.4834	10634.7	9745.85
927.514	1954.0921	10587.9	9698.8
927.6523	1955.7001	10537.5	9645.05
927.7907	1957.3074	10511.75	9625.2
927.929	1958.9139	10442.95	9557.3
928.0673	1960.5197	10442.7	9554.05
928.2055	1962.1247	10415.1	9529.45
928.3438	1963.729	10378.85	9494.2
928.482	1965.3325	10372.65	9462.95
928.6202	1966.9353	10290.6	9405.55
928.7584	1968.5374	10265.55	9379.1
928.8965	1970.1387	10248.8	9361.9
929.0346	1971.7393	10186.35	9298.45
929.1727	1973.3392	10165.1	9279.05
929.3108	1974.9383	10143.5	9257.7
929.4489	1976.5366	10099.05	9213.05
929.5869	1978.1342	10091.7	9205.35
929.7249	1979.7311	10055.5	9169.35
929.8629	1981.3273	10031.65	9146.05
930.0009	1982.9227	9974.8	9088.25
930.1388	1984.5173	9977	9092.45
930.2767	1986.1112	9928.2	9042.7
930.4146	1987.7044	9913.75	9028.4
930.5525	1989.2968	9895.55	9008.15
930.6904	1990.8885	9857.55	8969.85
930.8282	1992.4795	9827.8	8941.45
930.966	1994.0697	9813.1	8928.8
931.1038	1995.6592	9763.25	8877.4
931.2415	1997.2479	9740.45	8855.3
931.3793	1998.8359	9714.5	8829.85
931.517	2000.4232	9687.4	8803.4
931.6547	2002.0097	9642.85	8760.35
931.7923	2003.5955	9621.3	8738.35
931.93	2005.1805	9617.7	8734.65
932.0676	2006.7648	9610.25	8727.7
932.2052	2008.3484	9558.2	8671.7
932.3427	2009.9312	9587.5	8701.75
932.4803	2011.5133	9504.75	8622.9
932.6178	2013.0946	9469.6	8586.1
932.7553	2014.6752	9457.7	8576.4
932.8928	2016.2551	9441.25	8557.2
933.0302	2017.8342	9399.75	8516.3
933.1676	2019.4126	9374	8491.8
933.305	2020.9902	9348.15	8466.4
933.4424	2022.5672	9320.3	8436.1
933.5798	2024.1433	9312	8421.9
933.7171	2025.7188	9246.9	8366.4
933.8544	2027.2935	9239.05	8356.95
933.9917	2028.8674	9214.8	8334.35
934.129	2030.4406	9195.3	8314.75
934.2662	2032.0131	9115.9	8235.1
934.4034	2033.5849	9111.6	8228.05
934.5406	2035.1559	9108.65	8225.8
934.6778	2036.7261	9073.7	8191.2
934.8149	2038.2957	9057.95	8173.55
934.952	2039.8645	9041.05	8156.1
935.0891	2041.4325	9037.25	8150.9
935.2262	2042.9998	9004.85	8122.5
935.3632	2044.5664	8985.3	8100.3
935.5002	2046.1323	8947.05	8065.25
935.6372	2047.6974	8912.65	8029.95
935.7742	2049.2617	8905.95	8024.8
935.9111	2050.8254	8894.55	7986.6
936.048	2052.3883	8891.75	8007.45
936.1849	2053.9504	8834.1	7952.05
936.3218	2055.5118	8819	7934.05
936.4586	2057.0725	8781.9	7897.3
936.5955	2058.6325	8767.15	7883.75
936.7323	2060.1917	8723.25	7841.4
936.869	2061.7502	8709.8	7824.65
937.0058	2063.3079	8675.6	7792.4
937.1425	2064.8649	8677	7791.5
937.2792	2066.4212	8655.3	7772.8
937.4159	2067.9767	8622.8	7740.25
937.5525	2069.5315	8572.6	7691.55
937.6891	2071.0856	8551.35	7668.05
937.8257	2072.6389	8529.05	7647.4
937.9623	2074.1915	8485.35	7604.3
938.0989	2075.7433	8455.5	7571.35
938.2354	2077.2945	8423.1	7541.1
938.3719	2078.8448	8378.25	7495.35
938.5084	2080.3945	8381.95	7499.7
938.6448	2081.9434	8386.95	7503.5
938.7812	2083.4916	8372.95	7487.6
938.9176	2085.039	8311.15	7423.6
939.054	2086.5857	8303.85	7416.1
939.1903	2088.1317	8290.75	7404.2
939.3267	2089.677	8280.6	7394.7
939.463	2091.2215	8233.3	7347.6
939.5992	2092.7652	8232.3	7345.4
939.7355	2094.3083	8212.2	7327.25
939.8717	2095.8506	8186.65	7304.35
940.0079	2097.3921	8200.1	7316.35
940.1441	2098.933	8155.7	7270.3
940.2802	2100.4731	8142.8	7258.8
940.4163	2102.0124	8153.25	7261.55
940.5524	2103.5511	8117.45	7232.9
940.6885	2105.089	8095.05	7211.7
940.8245	2106.6261	8082.7	7198.85
940.9606	2108.1626	8047.7	7165.8
941.0965	2109.6983	8061.45	7149
941.2325	2111.2332	8026.4	7141.4
941.3684	2112.7675	7982.35	7097.35
941.5044	2114.301	7965	7078.3
941.6403	2115.8337	7941.45	7057.25
941.7761	2117.3657	7933.15	7048.25
941.912	2118.897	7937.4	7052.05
942.0478	2120.4276	7909.65	7017.65
942.1835	2121.9575	7842.75	6957.85
942.3193	2123.4866	7859.4	6972
942.455	2125.0149	7840.3	6952.3
942.5907	2126.5426	7804.75	6921.15
942.7264	2128.0695	7804.5	6916.2
942.8621	2129.5956	7758.9	6878.9
942.9977	2131.1211	7768.45	6880.8
943.1333	2132.6458	7745.25	6862.15
943.2689	2134.1698	7719.8	6835.15
943.4044	2135.693	7719.95	6831.55
943.54	2137.2155	7673.95	6785.4
943.6755	2138.7373	7672.8	6789.6
943.8109	2140.2584	7651.1	6768.25
943.9464	2141.7787	7627.7	6739.65
944.0818	2143.2983	7578.8	6698.8
944.2172	2144.8171	7540.9	6658.4
944.3526	2146.3353	7536.55	6650.3
944.4879	2147.8527	7504.35	6623.2
944.6232	2149.3693	7512.95	6626.45
944.7585	2150.8853	7476.2	6591.75
944.8938	2152.4005	7459.35	6575.5
945.029	2153.9149	7432.1	6545
945.1642	2155.4287	7509.55	6525.45
945.2994	2156.9417	7420.05	6533.4
945.4346	2158.454	7373.5	6488.9
945.5697	2159.9655	7374.75	6492.35
945.7048	2161.4764	7344.6	6460.45
945.8399	2162.9865	7317.65	6434.25
945.9749	2164.4958	7309.35	6424.1
946.1099	2166.0045	7263.95	6379.15
946.2449	2167.5124	7264.85	6382.05
946.3799	2169.0195	7270.7	6388.5
946.5148	2170.526	7240.8	6356.25
946.6498	2172.0317	7217.65	6334
946.7846	2173.5367	7199.85	6315.75
946.9195	2175.0409	7200.2	6317.25
947.0543	2176.5445	7174.85	6289.8
947.1891	2178.0473	7143.9	6259.35
947.3239	2179.5494	7129.45	6240.8
947.4587	2181.0507	7102.75	6220.2
947.5934	2182.5513	7069.05	6184.25
947.7281	2184.0512	7073.85	6189.4
947.8628	2185.5504	7044.3	6160.3
947.9974	2187.0488	7018.9	6137.2
948.132	2188.5465	6987.35	6104.05
948.2666	2190.0435	6959.35	6076
948.4012	2191.5397	6956.65	6071.6
948.5357	2193.0353	6931.75	6049.55
948.6702	2194.5301	6898.8	6014.1
948.8047	2196.0241	6886.7	6002.3
948.9392	2197.5175	6867.85	5980.65
949.0736	2199.0101	6839.25	5949.75
949.208	2200.502	6828.6	5944.35
949.3424	2201.9931	6799.15	5914.65
949.4767	2203.4835	6768	5885.5
949.611	2204.9733	6779.3	5878.5
949.7453	2206.4622	6751	5868.05
949.8796	2207.9505	6728.55	5842.15
950.0138	2209.438	6660.55	5780.15
950.148	2210.9248	6671.4	5787
950.2822	2212.4109	6645.85	5761.45
950.4164	2213.8962	6631.7	5741.7
950.5505	2215.3809	6605.6	5719.45
950.6846	2216.8648	6607.7	5721.7
950.8186	2218.3479	6575.25	5684.45
950.9527	2219.8304	6562.95	5674.55
951.0867	2221.3121	6534.45	5646.1
951.2207	2222.7931	6516.9	5631.15
951.3546	2224.2733	6478.75	5592.8
951.4886	2225.7529	6482.9	5597.4
951.6225	2227.2317	6471.55	5584.8
951.7563	2228.7098	6439.15	5555.85
951.8902	2230.1872	6407.6	5525.8
952.024	2231.6638	6423.55	5541.1
952.1578	2233.1397	6388.4	5501.4
952.2916	2234.6149	6363.7	5482.55
952.4253	2236.0894	6345.4	5461.2
952.559	2237.5632	6330.65	5446.55
952.6927	2239.0362	6300.95	5415.25
952.8263	2240.5085	6272.05	5386.95
952.9599	2241.9801	6257.3	5371
953.0935	2243.4509	6258.8	5374.7
953.2271	2244.921	6232.6	5347.95
953.3606	2246.3904	6218.3	5331.05
953.4941	2247.8591	6195.45	5309.7
953.6276	2249.3271	6171.4	5287.8
953.7611	2250.7943	6154.55	5269.05
953.8945	2252.2608	6128.4	5243.1
954.0279	2253.7266	6137.8	5251.95
954.1612	2255.1917	6127.1	5244.3
954.2946	2256.656	6088.15	5205.3
954.4279	2258.1197	6070	5189.1
954.5612	2259.5826	6048.4	5161.1
954.6944	2261.0447	6045.6	5162.05
954.8276	2262.5062	6006.4	5120.2
954.9608	2263.9669	6002.9	5116.65
955.094	2265.4269	5984.4	5099.95
955.2271	2266.8862	5983.7	5098.85
955.3602	2268.3448	5970.05	5087.5
955.4933	2269.8026	5953.7	5070.8
955.6264	2271.2598	5935.3	5051.95
955.7594	2272.7162	5912.65	5028.3
955.8924	2274.1719	5912.65	5029.25
956.0253	2275.6268	5900.05	5015.3
956.1583	2277.0811	5890.9	5004.2
956.2912	2278.5346	5863.95	4980.3
956.4241	2279.9874	5863.75	4978
956.5569	2281.4395	5844.65	4963.15
956.6897	2282.8908	5812.8	4924.05
956.8225	2284.3414	5815.5	4930.95
956.9553	2285.7914	5801.15	4917.65
957.088	2287.2406	5766.35	4881.3
957.2207	2288.689	5770.35	4885.65
957.3534	2290.1368	5752.1	4865
957.486	2291.5838	5734.25	4845.05
957.6186	2293.0302	5728.1	4838.45
957.7512	2294.4758	5697.35	4810.45
957.8838	2295.9206	5691.9	4805.05
958.0163	2297.3648	5659.8	4775.6
958.1488	2298.8082	5669.85	4785.75
958.2813	2300.251	5653.85	4769.5
958.4137	2301.693	5627.9	4740.4
958.5461	2303.1343	5617.65	4729.35
958.6785	2304.5748	5590.1	4708.05
958.8108	2306.0147	5564	4681
958.9432	2307.4538	5566.55	4681.9
959.0754	2308.8922	5542.9	4661.5
959.2077	2310.3299	5550.6	4668.25
959.3399	2311.7669	5520.05	4636.4
959.4721	2313.2031	5502.5	4618.9
959.6043	2314.6387	5496.95	4613.75
959.7365	2316.0735	5475.2	4591.75
959.8686	2317.5076	5441.35	4556.25
960.0006	2318.941	5453	4568
960.1327	2320.3737	5419.45	4532.6
960.2647	2321.8056	5424.4	4538
960.3967	2323.2369	5393.9	4507.8
960.5287	2324.6674	5394.7	4507.45
960.6606	2326.0972	5383.5	4498.65
960.7925	2327.5263	5346.05	4460.95
960.9244	2328.9547	5341.85	4455.15
961.0562	2330.3823	5318.55	4432.8
961.1881	2331.8092	5310.95	4420.3
961.3198	2333.2355	5299.75	4413.8
961.4516	2334.661	5293.85	4409.2
961.5833	2336.0858	5270.7	4381.25
961.715	2337.5098	5270.3	4384.15
961.8467	2338.9332	5249.7	4364.4
961.9783	2340.3558	5232.8	4344.2
962.1099	2341.7778	5203.95	4319.5
962.2415	2343.199	5193.35	4309.55
962.373	2344.6195	5174.8	4289.95
962.5045	2346.0393	5192	4309.05
962.636	2347.4583	5171.1	4285.25
962.7675	2348.8767	5147.2	4261.35
962.8989	2350.2943	5160.45	4273.35
963.0303	2351.7113	5140.3	4252.35
963.1617	2353.1275	5129.25	4241.75
963.293	2354.543	5143.9	4233.3
963.4243	2355.9578	5100.35	4214.8
963.5556	2357.3718	5083	4198.4
963.6868	2358.7852	5041.8	4155.7
963.818	2360.1978	5025.05	4139.3
963.9492	2361.6098	5035.55	4151.15
964.0803	2363.021	5009.05	4119.2
964.2114	2364.4315	5002.5	4116.75
964.3425	2365.8413	4997.55	4112.3
964.4736	2367.2504	4967.65	4083.55
964.6046	2368.6587	4972.1	4089.15
964.7356	2370.0664	4942.85	4060.35
964.8666	2371.4733	4910.5	4026.8
964.9975	2372.8795	4918.05	4032.9
965.1284	2374.285	4884.7	3999
965.2593	2375.6899	4870.05	3984.8
965.3901	2377.0939	4846.3	3961.4
965.5209	2378.4973	4844.45	3959.65
965.6517	2379.9	4819.5	3934.6
965.7825	2381.3019	4814.4	3930.9
965.9132	2382.7032	4796.6	3911.6
966.0439	2384.1037	4808.65	3926
966.1745	2385.5035	4790.55	3906.9
966.3051	2386.9027	4762	3879.85
966.4357	2388.3011	4763.35	3875.15
966.5663	2389.6987	4739.5	3854.9
966.6968	2391.0957	4718.75	3836.6
966.8273	2392.492	4708.5	3825.6
966.9578	2393.8876	4683.3	3799.4
967.0882	2395.2824	4668.65	3783.45
967.2186	2396.6765	4663.3	3779.8
967.349	2398.07	4645.2	3759.65
967.4793	2399.4627	4625.95	3739.8
967.6097	2400.8547	4628.45	3743.3
967.7399	2402.246	4621	3729.85
967.8702	2403.6366	4564.35	3679.25
968.0004	2405.0265	4564.95	3679.4
968.1306	2406.4156	4568.75	3678.7
968.2607	2407.8041	4538.95	3650.05
968.3909	2409.1918	4530.7	3642.55
968.521	2410.5789	4503.9	3618.15
968.651	2411.9652	4509.9	3622.9
968.781	2413.3508	4474.45	3589.8
968.911	2414.7358	4489.5	3603.55
969.041	2416.12	4461.6	3578.2
969.1709	2417.5035	4464.85	3579.8
969.3008	2418.8863	4442.35	3555.8
969.4307	2420.2684	4416	3530.85
969.5606	2421.6497	4395	3508.3
969.6904	2423.0304	4396.55	3510.6
969.8201	2424.4104	4387.75	3502.65
969.9499	2425.7896	4372.4	3484.5
970.0796	2427.1682	4354.4	3470.9
970.2093	2428.546	4350.5	3462.65
970.3389	2429.9232	4330.65	3444.05
970.4685	2431.2996	4336.2	3450.75
970.5981	2432.6753	4309.25	3423.9
970.7277	2434.0503	4310.9	3424.3
970.8572	2435.4246	4298.55	3414.1
970.9867	2436.7982	4280.55	3393.15
971.1161	2438.1711	4259.1	3374.65
971.2456	2439.5433	4264.85	3379.65
971.375	2440.9148	4251.1	3359.05
971.5043	2442.2856	4218.9	3335.5
971.6336	2443.6557	4194.7	3309.85
971.7629	2445.025	4200.1	3314.5
971.8922	2446.3937	4180.1	3297.1
972.0214	2447.7617	4167.95	3283.15
972.1506	2449.1289	4171.65	3286.45
972.2798	2450.4955	4160.45	3274.15
972.4089	2451.8613	4147.6	3264.25
972.538	2453.2265	4128.55	3244.65
972.6671	2454.5909	4143.4	3256.05
972.7961	2455.9546	4127.3	3243.55
972.9251	2457.3177	4096.2	3210.75
973.0541	2458.68	4095.35	3209.15
973.1831	2460.0416	4100.65	3215.05
973.312	2461.4025	4088.5	3200.7
973.4408	2462.7627	4080.1	3184
973.5697	2464.1222	4057.75	3175.8
973.6985	2465.4811	4039.75	3153.35
973.8273	2466.8392	4029.25	3145.05
973.956	2468.1966	4031.2	3144.5
974.0847	2469.5533	4019.55	3132.35
974.2134	2470.9093	4030.05	3145.7
974.3421	2472.2645	4010.1	3125
974.4707	2473.6191	4003.95	3118.85
974.5993	2474.973	3984.15	3101.85
974.7278	2476.3262	3968.9	3082.3
974.8563	2477.6787	3968.2	3083.1
974.9848	2479.0305	3957.25	3071.8
975.1132	2480.3816	3931.9	3044.15
975.2417	2481.7319	3932.4	3048.1
975.37	2483.0816	3911.25	3025
975.4984	2484.4306	3898.3	3013.6
975.6267	2485.7789	3882.9	2998.8
975.755	2487.1264	3871.85	2986.5
975.8833	2488.4733	3860.25	2977.05
976.0115	2489.8195	3866.15	2965.05
976.1397	2491.165	3848	2960.6
976.2678	2492.5097	3837.35	2952.35
976.3959	2493.8538	3817.65	2935.55
976.524	2495.1972	3799.3	2913.25
976.6521	2496.5398	3791.7	2903.4
976.7801	2497.8818	3783.35	2897.75
976.9081	2499.2231	3768.35	2883.4
977.036	2500.5637	3758.9	2871.1
977.164	2501.9035	3765.95	2880.4
977.2918	2503.2427	3731.9	2843.35
977.4197	2504.5812	3722	2837.65
977.5475	2505.919	3721.8	2835.7
977.6753	2507.256	3716.45	2832.05
977.8031	2508.5924	3700.85	2816.4
977.9308	2509.9281	3699.5	2808.45
978.0585	2511.2631	3690.7	2805.95
978.1861	2512.5974	3674.35	2790.75
978.3137	2513.9309	3661.3	2776.85
978.4413	2515.2638	3661.5	2751.4
978.5689	2516.596	3648.55	2764.55
978.6964	2517.9275	3644.15	2758.55
978.8239	2519.2583	3621.8	2735.9
978.9513	2520.5884	3619.95	2733.05
979.0788	2521.9178	3599.65	2714.95
979.2062	2523.2465	3593	2708.45
979.3335	2524.5745	3566.05	2681.3
979.4608	2525.9018	3559.55	2672.95
979.5881	2527.2284	3562.7	2679.1
979.7154	2528.5543	3554.8	2670.9
979.8426	2529.8796	3540.2	2654.05
979.9698	2531.2041	3533.95	2648.8
980.0969	2532.5279	3533.65	2649.7
980.224	2533.851	3519.35	2634.1
980.3511	2535.1735	3508.5	2625.15
980.4781	2536.4952	3501.6	2616.75
980.6052	2537.8163	3511.9	2628.1
980.7321	2539.1366	3486.2	2602.1
980.8591	2540.4562	3504.95	2618.6
980.986	2541.7752	3488.5	2603.15
981.1129	2543.0935	3481.8	2595.7
981.2397	2544.411	3476.2	2591.9
981.3665	2545.7279	3461.3	2577.5
981.4933	2547.0441	3456.5	2571.75
981.62	2548.3596	3451.6	2562.8
981.7467	2549.6744	3455.45	2569.75
981.8734	2550.9885	3434.3	2547.1
982.0001	2552.3019	3421	2536.6
982.1267	2553.6146	3422	2535.35
982.2532	2554.9266	3419.5	2534.7
982.3798	2556.2379	3395.45	2509.65
982.5063	2557.5485	3406.05	2522.3
982.6327	2558.8585	3401.95	2510.4
982.7592	2560.1677	3402.9	2514.5
982.8856	2561.4762	3382.95	2498
983.0119	2562.7841	3384.2	2496.3
983.1383	2564.0913	3359.25	2474.35
983.2646	2565.3977	3360.05	2475
983.3908	2566.7035	3339.2	2453.55
983.517	2568.0086	3346.2	2459.85
983.6432	2569.313	3337.9	2450.8
983.7694	2570.6167	3337.75	2450
983.8955	2571.9197	3329.3	2444.15
984.0216	2573.222	3328.2	2438.4
984.1476	2574.5236	3325.5	2439.4
984.2737	2575.8246	3312.7	2427.15
984.3996	2577.1248	3306.05	2420
984.5256	2578.4244	3305.7	2423.45
984.6515	2579.7232	3301.4	2416.9
984.7774	2581.0214	3311.65	2396.8
984.9032	2582.3189	3296.25	2413.5
985.029	2583.6157	3282.6	2392.25
985.1548	2584.9118	3278.3	2394.95
985.2806	2586.2072	3262.8	2378.3
985.4063	2587.5019	3264.75	2377.95
985.5319	2588.7959	3245	2359.95
985.6576	2590.0893	3250.2	2362.45
985.7832	2591.3819	3248.6	2365.05
985.9087	2592.6739	3231.5	2348.1
986.0343	2593.9652	3235.05	2348.9
986.1597	2595.2557	3219.75	2334.85
986.2852	2596.5456	3210.8	2323.85
986.4106	2597.8348	3206.6	2321.9
986.536	2599.1234	3192.9	2309.85
986.6614	2600.4112	3196.8	2312.15
986.7867	2601.6983	3177.5	2288.3
986.912	2602.9848	3174.25	2289.65
987.0372	2604.2705	3169.9	2278.2
987.1624	2605.5556	3151.6	2265.65
987.2876	2606.84	3161.95	2278.4
987.4128	2608.1237	3142.4	2256
987.5379	2609.4067	3135.4	2249.8
987.6629	2610.689	3134.05	2241.75
987.788	2611.9707	3115.4	2225.45
987.913	2613.2516	3110.95	2221.6
988.0379	2614.5319	3097.45	2213.45
988.1629	2615.8115	3081.8	2195.7
988.2878	2617.0903	3080.6	2193.3
988.4126	2618.3685	3064.75	2179.45
988.5375	2619.6461	3066.85	2181.25
988.6622	2620.9229	3057.2	2172.7
988.787	2622.199	3036.3	2149.65
988.9117	2623.4745	3039.8	2152.8
989.0364	2624.7493	3021.65	2136.8
989.161	2626.0234	3015.55	2132.3
989.2857	2627.2968	3015.5	2131.1
989.4102	2628.5695	3007.4	2120.75
989.5348	2629.8415	2984.55	2101.05
989.6593	2631.1128	2987.4	2100.95
989.7837	2632.3835	2972.85	2091.25
989.9082	2633.6535	2967.5	2083.9
990.0326	2634.9228	2961	2075.85
990.1569	2636.1914	2955.5	2071.15
990.2812	2637.4593	2949.3	2063.05
990.4055	2638.7265	2941.8	2056.3
990.5298	2639.9931	2930.7	2048.1
990.654	2641.259	2932.7	2045.8
990.7782	2642.5242	2938.9	2054.15
990.9023	2643.7887	2910.15	2025.3
991.0264	2645.0525	2918.35	2032.4
991.1505	2646.3156	2914.95	2017.3
991.2745	2647.5781	2881.9	1997.15
991.3985	2648.8398	2903.6	2022.6
991.5225	2650.1009	2895.35	1984.55
991.6464	2651.3613	2878.25	1994.7
991.7703	2652.6211	2872.6	1988.65
991.8942	2653.8801	2858.4	1975.35
992.018	2655.1385	2854	1967.65
992.1418	2656.3961	2853.8	1968.3
992.2655	2657.6531	2845	1959.15
992.3892	2658.9094	2825.6	1940.85
992.5129	2660.1651	2828.75	1944.4
992.6366	2661.42	2829.05	1944.5
992.7602	2662.6743	2821.55	1936.9
992.8837	2663.9279	2815.1	1930.95
993.0073	2665.1808	2808.2	1924.4
993.1307	2666.433	2809.9	1926.15
993.2542	2667.6846	2805.95	1921.05
993.3776	2668.9354	2802.15	1916.5
993.501	2670.1856	2793.5	1909.4
993.6244	2671.4351	2814.9	1929.4
993.7477	2672.6839	2802.9	1915.75
993.8709	2673.9321	2797	1913.3
993.9942	2675.1795	2780.1	1897.25
994.1174	2676.4263	2770.35	1886.05
994.2405	2677.6724	2762.95	1881.3
994.3637	2678.9179	2769.75	1886.05
994.4868	2680.1626	2765.2	1883
994.6098	2681.4067	2768.75	1884.85
994.7328	2682.6501	2747.4	1860.6
994.8558	2683.8928	2755.3	1871.4
994.9788	2685.1348	2735.3	1851.95
995.1017	2686.3761	2719.6	1834.8
995.2245	2687.6168	2714.15	1830.7
995.3474	2688.8568	2719.4	1835.5
995.4702	2690.0961	2700.55	1817.5
995.5929	2691.3348	2703	1817.4
995.7156	2692.5727	2690.1	1805.35
995.8383	2693.81	2677.45	1794.2
995.961	2695.0466	2665.6	1782.65
996.0836	2696.2826	2672.15	1787.85
996.2062	2697.5178	2684.1	1796.45
996.3287	2698.7524	2659.95	1776.3
996.4512	2699.9863	2672	1785.35
996.5737	2701.2195	2645.75	1762.7
996.6961	2702.452	2653.05	1768.15
996.8185	2703.6839	2645.2	1759.5
996.9408	2704.9151	2648.05	1766.55
997.0631	2706.1456	2636.85	1752.7
997.1854	2707.3755	2636.65	1753.4
997.3077	2708.6046	2654.2	1768.3
997.4299	2709.8331	2637.9	1754.9
997.552	2711.0609	2632.25	1750.25
997.6742	2712.2881	2628.45	1743.25
997.7963	2713.5145	2631	1744.3
997.9183	2714.7403	2639.35	1756.4
998.0403	2715.9654	2645.1	1761.85
998.1623	2717.1899	2641.95	1744.15
998.2842	2718.4136	2642.85	1757.95
998.4062	2719.6367	2642.7	1759.2
998.528	2720.8591	2645	1754.75
998.6498	2722.0809	2641.15	1757.5
998.7716	2723.3019	2639.8	1754.4
998.8934	2724.5223	2649.95	1764.75
999.0151	2725.7421	2642.35	1757.4
999.1368	2726.9611	2647.95	1761
999.2584	2728.1795	2634.8	1746.85
999.38	2729.3972	2609.1	1725.9
999.5016	2730.6142	2615.5	1725.65
999.6231	2731.8306	2584.05	1698.4
999.7446	2733.0462	2574.45	1689.65
999.8661	2734.2612	2554.7	1665.65
999.9875	2735.4756	2541.75	1656.25
1000.1089	2736.6892	2519.25	1637.55
1000.2302	2737.9022	2514	1631.95
1000.3515	2739.1145	2503	1620
1000.4728	2740.3262	2493.2	1601.4
1000.594	2741.5372	2481.75	1599.65
1000.7152	2742.7475	2465.25	1581.5
1000.8363	2743.9571	2450.8	1564.9
1000.9575	2745.1661	2446.25	1557.7
1001.0785	2746.3744	2437.9	1553.25
1001.1996	2747.582	2425.15	1541.2
1001.3206	2748.7889	2408.3	1523
1001.4415	2749.9952	2394	1509.95
1001.5625	2751.2008	2388.85	1503.8
1001.6833	2752.4057	2383.55	1498.3
1001.8042	2753.61	2378.05	1495.05
1001.925	2754.8136	2373.35	1488
1002.0458	2756.0165	2357.6	1473.85
1002.1665	2757.2188	2353.4	1470.7
1002.2872	2758.4204	2360.9	1478.25
1002.4078	2759.6213	2352.65	1466.25
1002.5285	2760.8215	2345.45	1457.45
1002.649	2762.0211	2339.55	1453.7
1002.7696	2763.22	2343.75	1457.5
1002.8901	2764.4182	2331.5	1445.95
1003.0106	2765.6158	2333.4	1451.05
1003.131	2766.8127	2314.75	1429.7
1003.2514	2768.009	2307.6	1426.05
1003.3717	2769.2045	2317.25	1432.6
1003.492	2770.3994	2298.2	1413.95
1003.6123	2771.5936	2280.65	1394.7
1003.7325	2772.7872	2289.75	1407.95
1003.8527	2773.9801	2278.15	1392.9
1003.9729	2775.1723	2286.45	1387.05
1004.093	2776.3639	2272.25	1391.1
1004.2131	2777.5548	2263.95	1378.35
1004.3331	2778.745	2253.95	1369.25
1004.4531	2779.9346	2257.85	1377.05
1004.5731	2781.1235	2252.6	1368.6
1004.693	2782.3117	2260.05	1377.85
1004.8129	2783.4992	2242	1360.55
1004.9328	2784.6861	2237.7	1354.75
1005.0526	2785.8723	2257.5	1371.3
1005.1723	2787.0579	2249.6	1365.9
1005.2921	2788.2428	2239.05	1355.35
1005.4118	2789.427	2233.4	1350.55
1005.5314	2790.6106	2249.95	1367.5
1005.651	2791.7935	2229.55	1345
1005.7706	2792.9757	2243.1	1361.25
1005.8902	2794.1573	2232.85	1348.1
1006.0097	2795.3382	2247.25	1364.6
1006.1291	2796.5184	2243.9	1360.4
1006.2485	2797.698	2255.1	1369.3
1006.3679	2798.8769	2243.65	1360.85
1006.4873	2800.0551	2270.4	1386.8
1006.6066	2801.2327	2265.85	1380.25
1006.7258	2802.4096	2265.2	1382
1006.8451	2803.5859	2260.95	1377.95
1006.9642	2804.7615	2267.15	1381.6
1007.0834	2805.9364	2277	1395.7
1007.2025	2807.1106	2303.6	1422.4
1007.3216	2808.2842	2311.8	1428.5
1007.4406	2809.4572	2331.7	1448.4
1007.5596	2810.6294	2351.4	1467.95
1007.6785	2811.801	2375.8	1494.6
1007.7975	2812.972	2387.25	1505.75
1007.9163	2814.1423	2421.8	1541
1008.0352	2815.3119	2446.45	1562.8
1008.154	2816.4808	2478.55	1597.3
1008.2727	2817.6491	2510.7	1627.7
1008.3914	2818.8167	2538.85	1656.55
1008.5101	2819.9837	2568.6	1680.55
1008.6288	2821.15	2605.75	1723.6
1008.7474	2822.3157	2631.85	1749.55
1008.8659	2823.4807	2682.85	1799.4
1008.9844	2824.645	2712.05	1827.25
1009.1029	2825.8086	2733.3	1853.75
1009.2214	2826.9716	2788.9	1908.55
1009.3398	2828.134	2817.55	1935.3
1009.4581	2829.2957	2852.75	1970.6
1009.5764	2830.4567	2871.7	1990.3
1009.6947	2831.617	2894.25	2011.5
1009.813	2832.7767	2900.4	2018.2
1009.9312	2833.9358	2882.55	1999.4
1010.0493	2835.0941	2886.85	2001.5
1010.1675	2836.2519	2868.05	1984.95
1010.2855	2837.4089	2863.6	1978.85
1010.4036	2838.5653	2836.3	1956.4
1010.5216	2839.7211	2823.25	1941.5
1010.6396	2840.8761	2824.05	1937.6
1010.7575	2842.0306	2825.3	1942.55
1010.8754	2843.1843	2832.4	1949.55
1010.9932	2844.3374	2852.95	1970.65
1011.111	2845.4899	2896.35	2013.95
1011.2288	2846.6417	2913.6	2030.2
1011.3465	2847.7928	2961.35	2079.6
1011.4642	2848.9433	3001.65	2119.05
1011.5818	2850.0931	3053.05	2171.4
1011.6995	2851.2422	3095.1	2208.95
1011.817	2852.3907	3137.05	2253.65
1011.9345	2853.5385	3171.9	2289.75
1012.052	2854.6857	3209.05	2318.35
1012.1695	2855.8323	3224.85	2343.8
1012.2869	2856.9781	3252.4	2370.15
1012.4042	2858.1233	3292.9	2411.3
1012.5216	2859.2679	3324.45	2442.05
1012.6389	2860.4118	3362.7	2479.95
1012.7561	2861.555	3379.55	2493.85
1012.8733	2862.6976	3411.55	2527.4
1012.9905	2863.8395	3445.9	2564.4
1013.1076	2864.9808	3448.75	2566.4
1013.2247	2866.1214	3466.6	2586.55
1013.3417	2867.2614	3479.15	2598.3
1013.4587	2868.4007	3476.5	2590.75
1013.5757	2869.5393	3473.15	2588.75
1013.6926	2870.6773	3497.4	2613.15
1013.8095	2871.8146	3498.8	2611.45
1013.9263	2872.9513	3490.75	2606.1
1014.0431	2874.0874	3489.3	2608.85
1014.1599	2875.2227	3475.4	2594
1014.2766	2876.3574	3454.1	2571.95
1014.3933	2877.4915	3440.6	2558.75
1014.51	2878.6249	3420.45	2538.35
1014.6266	2879.7577	3396.8	2514.4
1014.7431	2880.8898	3386	2492.85
1014.8596	2882.0212	3367.6	2485.95
1014.9761	2883.152	3361.8	2479.1
1015.0925	2884.2821	3354.4	2474.15
1015.2089	2885.4116	3338.3	2455
1015.3253	2886.5405	3335.55	2455.7
1015.4416	2887.6686	3351.4	2465.4
1015.5579	2888.7962	3336.05	2456.15
1015.6741	2889.923	3347.2	2465.45
1015.7903	2891.0493	3339.3	2458
1015.9065	2892.1748	3344.7	2459.9
1016.0226	2893.2997	3345.65	2463.75
1016.1387	2894.424	3350.95	2470.95
1016.2547	2895.5476	3370	2487.1
1016.3707	2896.6706	3378.6	2497.15
1016.4866	2897.7929	3397.5	2514.2
1016.6025	2898.9145	3410.7	2529.7
1016.7184	2900.0355	3419.2	2535.9
1016.8342	2901.1559	3437.55	2556.1
1016.95	2902.2756	3447.75	2567.75
1017.0658	2903.3946	3468.05	2587.3
1017.1815	2904.513	3488.15	2602.45
1017.2971	2905.6308	3503.15	2623.15
1017.4127	2906.7479	3510.65	2628.3
1017.5283	2907.8643	3522.05	2641.2
1017.6439	2908.9801	3533.7	2650.5
1017.7594	2910.0953	3519.35	2638.85
1017.8748	2911.2098	3527.75	2640.45
1017.9902	2912.3236	3518.4	2628.6
1018.1056	2913.4368	3525.95	2641.05
1018.2209	2914.5494	3498.35	2616.3
1018.3362	2915.6613	3468.05	2579.45
1018.4515	2916.7725	3439.9	2553.3
1018.5667	2917.8831	3427.35	2544.75
1018.6819	2918.9931	3402.45	2516.65
1018.797	2920.1024	3382.5	2499.15
1018.9121	2921.211	3352.45	2469.35
1019.0271	2922.319	3338.45	2456.1
1019.1421	2923.4264	3322.35	2440.15
1019.2571	2924.5331	3321.25	2440.65
1019.372	2925.6391	3304.3	2421.8
1019.4869	2926.7445	3301.85	2422.35
1019.6017	2927.8493	3296	2413.75
1019.7165	2928.9534	3303.85	2423.5
1019.8313	2930.0569	3302.9	2418.4
1019.946	2931.1597	3315.35	2432.4
1020.0606	2932.2619	3300.65	2419.8
1020.1753	2933.3634	3299.55	2419.65
1020.2899	2934.4643	3294.85	2409.5
1020.4044	2935.5645	3299	2410.25
1020.5189	2936.6641	3282	2393.65
1020.6334	2937.763	3258.75	2377.55
1020.7478	2938.8613	3229.85	2348.6
1020.8622	2939.959	3204.25	2318.15
1020.9765	2941.056	3136.1	2254.75
1021.0908	2942.1523	3093.05	2209
1021.2051	2943.248	3046.9	2163.3
1021.3193	2944.3431	2972.6	2091.25
1021.4334	2945.4375	2903.35	2021.3
1021.5476	2946.5313	2822.55	1942.45
1021.6617	2947.6244	2752	1869.7
1021.7757	2948.7169	2687.25	1804.25
1021.8897	2949.8087	2631.4	1748.9
1022.0037	2950.8999	2549.4	1668.6
1022.1176	2951.9904	2493.1	1613.45
1022.2315	2953.0803	2436.25	1553.5
1022.3453	2954.1696	2401.45	1518
1022.4591	2955.2582	2349.3	1467.35
1022.5728	2956.3462	2318.95	1436.95
1022.6865	2957.4335	2295	1412.2
1022.8002	2958.5202	2269.1	1384.55
1022.9138	2959.6062	2251.65	1371.65
1023.0274	2960.6916	2222.9	1341.55
1023.141	2961.7764	2211	1329.95
1023.2545	2962.8605	2194.4	1313.85
1023.3679	2963.9439	2176.8	1294.75
1023.4813	2965.0267	2174.1	1291.5
1023.5947	2966.1089	2181.35	1276.2
1023.708	2967.1905	2161.25	1283.3
1023.8213	2968.2714	2157.2	1277.05
1023.9346	2969.3516	2144.45	1263.55
1024.0478	2970.4312	2151.45	1262.8
1024.1609	2971.5102	2150.15	1269.95
1024.274	2972.5885	2145.5	1262.75
1024.3871	2973.6662	2153.35	1265.6
1024.5002	2974.7432	2147.2	1267.45
1024.6132	2975.8196	2140.7	1258.6
1024.7261	2976.8954	2146.1	1266.55
1024.839	2977.9705	2116.7	1235.45
1024.9519	2979.045	2122.3	1242.15
1025.0647	2980.1188	2106.8	1228.15
1025.1775	2981.192	2082.55	1201.8
1025.2902	2982.2645	2077.75	1196.4
1025.4029	2983.3364	2056.45	1175.3
1025.5156	2984.4077	2045.5	1165.75
1025.6282	2985.4783	2021.95	1135.55
1025.7407	2986.5483	1992.2	1112.2
1025.8532	2987.6177	1969.35	1089.35
1025.9657	2988.6864	1944.85	1064.35
1026.0782	2989.7545	1923.55	1042.05
1026.1906	2990.8219	1895.9	1015.95
1026.3029	2991.8887	1878.3	996.35
1026.4152	2992.9548	1849.3	967.6
1026.5275	2994.0204	1826.6	946.85
1026.6397	2995.0852	1797.95	919
1026.7519	2996.1495	1781.8	898.35
1026.864	2997.2131	1764.7	883.05
1026.9761	2998.276	1740.15	859.75
1027.0882	2999.3383	1726.55	845.15
1027.2002	3000.4	1705.75	824.65
1027.3122	3001.4611	1695.3	814.3
1027.4241	3002.5215	1680.35	800.7
1027.536	3003.5812	1665.3	783.85
1027.6478	3004.6404	1649	768
1027.7596	3005.6989	1642.25	759.7
1027.8714	3006.7567	1640.8	761.4
1027.9831	3007.8139	1640.6	738.5
1028.0947	3008.8705	1624.4	742.95
1028.2064	3009.9264	1623.35	723.15
1028.3179	3010.9818	1606.9	727.4
1028.4295	3012.0364	1593.45	712.5
1028.541	3013.0905	1588.9	707.5
1028.6524	3014.1439	1587.8	707.75
1028.7638	3015.1966	1588.35	707.8
1028.8752	3016.2487	1578.25	695.55
1028.9865	3017.3002	1580.3	694.5
1029.0978	3018.3511	1574.75	693.25
1029.209	3019.4013	1562.5	682.45
1029.3202	3020.4509	1554.7	673.9
1029.4314	3021.4998	1567.2	685.95
1029.5425	3022.5481	1555.05	674.6
1029.6535	3023.5958	1555.25	673.5
1029.7645	3024.6428	1550.55	670
1029.8755	3025.6892	1549.65	667.95
1029.9864	3026.735	1549.25	668.65
1030.0973	3027.7802	1549.6	669.6
1030.2082	3028.8247	1546.95	665.6
1030.319	3029.8685	1539.9	660.25
1030.4297	3030.9118	1538.6	659.7
1030.5404	3031.9544	1543.2	663.35
1030.6511	3032.9963	1544.7	662.8
1030.7617	3034.0376	1541.7	662.7
1030.8723	3035.0783	1552.75	668.25
1030.9829	3036.1184	1542.25	660.7
1031.0934	3037.1578	1543.35	661.9
1031.2038	3038.1966	1547.6	666.85
1031.3142	3039.2348	1542.45	662.4
1031.4246	3040.2723	1544.9	657.9
1031.5349	3041.3092	1545.35	663.35
1031.6452	3042.3455	1537.1	654.8
1031.7554	3043.3811	1541.4	661.55
1031.8656	3044.4161	1527.05	644.6
1031.9758	3045.4505	1526.4	645.25
1032.0859	3046.4842	1528.55	645.8
1032.1959	3047.5173	1519.65	639.55
1032.3059	3048.5498	1512.95	631.95
1032.4159	3049.5816	1519.5	637.25
1032.5258	3050.6128	1510.15	630
1032.6357	3051.6434	1505.6	625.25
1032.7455	3052.6734	1507.75	626.35
1032.8553	3053.7027	1502	621.35
1032.9651	3054.7314	1492.6	612
1033.0748	3055.7594	1481.65	601.15
1033.1845	3056.7868	1485.3	603.75
1033.2941	3057.8136	1481.45	602.35
1033.4037	3058.8398	1477.05	595.7
1033.5132	3059.8653	1472.25	591.35
1033.6227	3060.8902	1473.45	590.95
1033.7321	3061.9145	1479.6	599.05
1033.8415	3062.9381	1470.45	589.35
1033.9509	3063.9612	1479.35	581.85
1034.0602	3064.9835	1463.05	582.15
1034.1694	3066.0053	1458.85	575.65
1034.2787	3067.0264	1456.3	577.25
1034.3878	3068.0469	1446.45	562.7
1034.497	3069.0668	1445	562.15
1034.6061	3070.086	1437.15	557.65
1034.7151	3071.1046	1437.2	554.8
1034.8241	3072.1226	1429.25	548.1
1034.9331	3073.1399	1415.9	536.75
1035.042	3074.1567	1410.75	529.15
1035.1508	3075.1727	1409.9	526.8
1035.2597	3076.1882	1398.1	519.05
1035.3684	3077.203	1393.4	514.4
1035.4772	3078.2173	1392.05	509.65
1035.5859	3079.2308	1390.55	507.6
1035.6945	3080.2438	1380.6	498.15
1035.8031	3081.2561	1374.35	492.75
1035.9117	3082.2678	1372	491.65
1036.0202	3083.2789	1355.05	475.45
1036.1286	3084.2893	1356.65	475.9
1036.2371	3085.2991	1351.2	471.2
1036.3454	3086.3083	1351.3	465.95
1036.4538	3087.3169	1345.9	463.2
1036.562	3088.3248	1335.55	452.35
1036.6703	3089.3321	1336.95	454.85
1036.7785	3090.3388	1330.15	449.25
1036.8866	3091.3449	1315.05	435.4
1036.9948	3092.3503	1318.35	436
1037.1028	3093.3551	1310.3	429.9
1037.2108	3094.3593	1309.85	430.9
1037.3188	3095.3629	1306.95	428.85
1037.4267	3096.3658	1309.45	428.45
1037.5346	3097.3681	1304.35	423.9
1037.6425	3098.3698	1300.15	418.15
1037.7503	3099.3708	1299.95	414.35
1037.858	3100.3713	1294.9	417
1037.9657	3101.3711	1293.45	413.75
1038.0734	3102.3702	1421.2	406.85
1038.181	3103.3688	1288.5	406.8
1038.2886	3104.3667	1279.9	400.3
1038.3961	3105.364	1278.15	399.15
1038.5036	3106.3607	1270.5	387.95
1038.611	3107.3568	1272.05	389.1
1038.7184	3108.3522	1262.5	383.4
1038.8257	3109.347	1260.45	379.45
1038.933	3110.3412	1266.5	381
1039.0403	3111.3348	1262.7	383.1
1039.1475	3112.3277	1253.95	376.15
1039.2547	3113.32	1255.35	374.2
1039.3618	3114.3117	1258.55	377.8
1039.4689	3115.3028	1251.45	371.3
1039.5759	3116.2932	1246.85	364.1
1039.6829	3117.2831	1247	361.65
1039.7898	3118.2723	1235.9	356.9
1039.8967	3119.2608	1236.6	356.45
1040.0035	3120.2488	1231.7	351.2
1040.1103	3121.2361	1235.95	355.35
1040.2171	3122.2229	1225.15	344.35
1040.3238	3123.209	1232.3	352.35
1040.4305	3124.1944	1229.75	349
1040.5371	3125.1793	1223.95	343.3
1040.6437	3126.1635	1230.15	350.05
1040.7502	3127.1471	1223.2	343.25
1040.8567	3128.1301	1219.2	338.4
1040.9631	3129.1125	1212.4	331.45
1041.0695	3130.0942	1213.35	332.55
1041.1759	3131.0753	1226.8	338.8
1041.2822	3132.0558	1215.7	332.85
1041.3884	3133.0357	1212.75	333.95
1041.4946	3134.015	1208.15	328.1
1041.6008	3134.9936	1206.45	324.55
1041.7069	3135.9716	1225.15	323.1
1041.813	3136.949	1201.75	321.1
1041.919	3137.9258	1213.4	314
1042.025	3138.902	1206.5	320.7
1042.1309	3139.8775	1195.45	317.25
1042.2368	3140.8524	1191.2	310.9
1042.3427	3141.8267	1195.35	311.1
1042.4485	3142.8004	1192.6	311.6
1042.5542	3143.7735	1198.65	313.35
1042.6599	3144.7459	1192.2	309.8
1042.7656	3145.7178	1189.3	306.6
1042.8712	3146.689	1183.6	305.75
1042.9768	3147.6596	1187.35	304.35
1043.0823	3148.6295	1186.5	306.7
1043.1878	3149.5989	1183.15	303.15
1043.2932	3150.5676	1176.65	297.3
1043.3986	3151.5357	1175.5	296.5
1043.5039	3152.5032	1173.7	294.8
1043.6092	3153.4701	1173.9	294.9
1043.7145	3154.4364	1172.15	290.55
1043.8197	3155.402	1169.7	290.85
1043.9248	3156.367	1171.9	289.85
1044.03	3157.3315	1206.5	289.5
1044.135	3158.2952	1165.15	283.45
1044.24	3159.2584	1159.3	278.05
1044.345	3160.221	1163.25	281.25
1044.4499	3161.1829	1153.8	273.5
1044.5548	3162.1442	1152.4	272.8
1044.6596	3163.105	1150.45	272
1044.7644	3164.065	1150	267.55
1044.8692	3165.0245	1153.75	270.95
1044.9739	3165.9834	1148.15	270
1045.0785	3166.9416	1147.6	269.35
1045.1831	3167.8993	1148.1	270.1
1045.2877	3168.8563	1147.5	266.95
1045.3922	3169.8127	1145.95	266
1045.4966	3170.7684	1138.95	260.9
1045.6011	3171.7236	1142.5	262.4
1045.7054	3172.6782	1142.6	263.2
1045.8098	3173.6321	1141.4	261.1
1045.914	3174.5854	1137.5	255.8
1046.0183	3175.5381	1136	255.5
1046.1224	3176.4902	1128.8	249.1
1046.2266	3177.4417	1128.2	249.85
1046.3307	3178.3926	1130.25	250.4
1046.4347	3179.3428	1129.8	252.25
1046.5387	3180.2924	1127.6	248.3
1046.6427	3181.2415	1124.9	243.8
1046.7466	3182.1899	1119.65	236
1046.8504	3183.1377	1127.85	246.9
1046.9542	3184.0848	1127.45	243.65
1047.058	3185.0314	1120.5	239.75
1047.1617	3185.9773	1120.6	239.65
1047.2654	3186.9227	1118.75	237.3
1047.369	3187.8674	1120.45	238.9
1047.4726	3188.8115	1126	243.15
1047.5761	3189.755	1116.85	237.5
1047.6796	3190.6979	1114.15	234.1
1047.783	3191.6402	1116.2	237.4
1047.8864	3192.5818	1110.5	230.65
1047.9898	3193.5229	1120.7	233.15
1048.0931	3194.4633	1115	235.15
1048.1963	3195.4031	1105.6	223.7
1048.2995	3196.3423	1110.4	231.3
1048.4027	3197.2809	1109	225.75
1048.5058	3198.2189	1101.3	221.7
1048.6089	3199.1563	1110.05	224.85
1048.7119	3200.0931	1103.25	225.8
1048.8148	3201.0292	1095.25	214.7
1048.9178	3201.9648	1097.5	217.7
1049.0206	3202.8997	1101.1	217.65
1049.1235	3203.834	1100.5	221.1
1049.2262	3204.7677	1094.65	213.6
1049.329	3205.7008	1095.45	212.55
1049.4317	3206.6333	1093.65	215.6
1049.5343	3207.5652	1090.75	209.65
1049.6369	3208.4964	1097	215.75
1049.7394	3209.4271	1089.8	210
1049.8419	3210.3571	1090.55	210.8
1049.9444	3211.2865	1090.4	209
1050.0468	3212.2154	1092.6	212.45
1050.1491	3213.1436	1086.2	204.05
1050.2514	3214.0712	1096.2	211.5
1050.3537	3214.9982	1085.25	206.4
1050.4559	3215.9246	1080.4	199.8
1050.5581	3216.8503	1079.4	197.5
1050.6602	3217.7755	1083.25	202.4
1050.7623	3218.7001	1082.1	202.75
1050.8643	3219.624	1080	200.15
1050.9663	3220.5473	1083.2	203.2
1051.0682	3221.4701	1080.55	199.15
1051.1701	3222.3922	1076.95	195.55
1051.2719	3223.3137	1076.15	193.2
1051.3737	3224.2346	1071.65	191.1
1051.4754	3225.1549	1072.9	192.5
1051.5771	3226.0746	1070.85	188.45
1051.6788	3226.9937	1070.2	190.4
1051.7804	3227.9121	1068.85	189.85
1051.8819	3228.83	1066.3	189.1
1051.9834	3229.7473	1067.35	186.5
1052.0849	3230.6639	1066.75	187
1052.1863	3231.5799	1064.7	184.05
1052.2876	3232.4954	1062.5	180.65
1052.3889	3233.4102	1061.95	181.6
1052.4902	3234.3244	1059.05	179.6
1052.5914	3235.238	1061.65	182.8
1052.6926	3236.151	1083.95	178.15
1052.7937	3237.0634	1057.75	179.95
1052.8948	3237.9752	1057.55	177.05
1052.9958	3238.8864	1058.3	178.05
1053.0968	3239.797	1054.65	174.25
1053.1977	3240.7069	1056.1	176.2
1053.2986	3241.6163	1056.4	175.45
1053.3994	3242.5251	1053.15	175
1053.5002	3243.4332	1047.6	167.8
1053.6009	3244.3408	1051.9	171.15
1053.7016	3245.2477	1051.6	172.25
1053.8022	3246.154	1048.75	168.25
1053.9028	3247.0598	1049.55	168.75
1054.0034	3247.9649	1044.35	164.45
1054.1039	3248.8694	1044.25	163.7
1054.2043	3249.7733	1043.9	165.9
1054.3047	3250.6766	1043.95	164.05
1054.4051	3251.5793	1040.75	159.1
1054.5054	3252.4814	1038.5	160.65
1054.6056	3253.3829	1040	162.1
1054.7058	3254.2838	1038.25	160.25
1054.806	3255.1841	1036.3	157.55
1054.9061	3256.0838	1036.55	157.35
1055.0061	3256.9829	1033.8	155.05
1055.1062	3257.8814	1040.75	159.35
1055.2061	3258.7792	1030.5	147.85
1055.306	3259.6765	1029.25	150.3
1055.4059	3260.5731	1025.65	146.6
1055.5057	3261.4692	1029.35	149.75
1055.6055	3262.3647	1022.7	143.3
1055.7052	3263.2595	1024	145.95
1055.8049	3264.1538	1018.5	138.3
1055.9045	3265.0474	1022.35	141.4
1056.0041	3265.9404	1015.1	137.5
1056.1036	3266.8329	1013.35	133.55
1056.2031	3267.7247	1025.75	136.6
1056.3025	3268.616	1009.3	131.3
1056.4019	3269.5066	1006.55	125.95
1056.5013	3270.3966	1002.2	121.3
1056.6005	3271.286	998.4	119.35
