Software Version:	3.9.2.0
Unit SN:	10000200
Spectrometer SN:	6960
Date:	3/26/2024 1:32:22 PM
Data Line Index:	25
Spectral Points:	2048
Integration time (ms):	125
Averages:	20
Delay (ms):	30000
Sequence Number:	1
Processing:	dark subtract
Laser Power (mW):	300
Laser Current (mA):	819
Laser Diode Temp (C):	25
Laser Case Temp (C):	26.9
System Temp (C):	26.9
Spectrometer Temp (C):	24.7
CCD Temp (C):	0.004
Secondary Temp (C):	20.007
Heatsink Temp (C):	22.252
CCDPCB Temp (C):	36.685
SecondaryPCB Temp (C):	34.05

Wavelength	RamanShift	Raw Counts	Dark Subtracted
787.061	30.1047	547.55	136
787.2016	32.3739	553.7	144
787.3422	34.6426	563.25	152.25
787.4828	36.9109	573.4	159.1
787.6235	39.1787	588.95	172.15
787.7642	41.4461	609.65	187.9
787.9049	43.7131	623.4	197.15
788.0456	45.9796	639.6	212
788.1863	48.2456	658.3	225.6
788.3271	50.5112	674.4	238.95
788.4679	52.7764	686.95	247.55
788.6087	55.0411	707.1	265.35
788.7496	57.3054	729.3	281.8
788.8904	59.5692	745.2	296.8
789.0313	61.8326	771.65	318.5
789.1722	64.0955	796.9	341.55
789.3132	66.3579	826.55	366.55
789.4541	68.6199	867.65	401.85
789.5951	70.8815	925.15	458.4
789.7361	73.1426	1068.9	597.8
789.8771	75.4032	1420.6	945.4
790.0181	77.6634	2277.15	1795.05
790.1592	79.9231	4390.35	3899.3
790.3003	82.1824	9173.9	8666.6
790.4414	84.4412	18347.65	17817.4
790.5825	86.6995	33133.35	32567.45
790.7237	88.9574	44524.6	43930.55
790.8648	91.2148	50987.8	50371.45
791.006	93.4717	52982.25	52354.65
791.1472	95.7282	53818.55	53177.8
791.2885	97.9842	54090.7	53442.85
791.4297	100.2398	53940.6	53294.5
791.571	102.4949	53715	53070.1
791.7123	104.7495	53606.2	52954.4
791.8536	107.0036	53163.25	52510.35
791.9949	109.2573	53372.75	52723.4
792.1363	111.5105	52866.45	52213.8
792.2777	113.7632	52895.95	52240.25
792.4191	116.0154	52881.75	52213.45
792.5605	118.2672	53057.95	52397.75
792.7019	120.5185	52938.7	52279.25
792.8434	122.7693	52883.65	52219.15
792.9849	125.0197	52523.65	51858.15
793.1264	127.2696	53127.85	52459.25
793.2679	129.519	52985.7	52310.7
793.4094	131.7679	53216.3	52539
793.551	134.0163	52374	51691.15
793.6926	136.2642	52619.05	51931.95
793.8342	138.5117	53026.3	52328.85
793.9758	140.7587	52768.1	52077.7
794.1175	143.0052	52693.8	52005.55
794.2591	145.2512	52217.05	51524.45
794.4008	147.4967	52610.85	51918.2
794.5425	149.7417	52386.3	51691.95
794.6842	151.9863	52373.9	51676.3
794.826	154.2304	52019.35	51320.05
794.9677	156.4739	52182.9	51476.8
795.1095	158.717	52412.9	51705.35
795.2513	160.9596	52128.05	51417.35
795.3931	163.2017	51729.8	51011.85
795.535	165.4433	52048.6	51335.25
795.6768	167.6844	51743.7	51029.05
795.8187	169.925	51848.95	51130.95
795.9606	172.1651	51559.55	50839.1
796.1025	174.4047	51522.55	50798.75
796.2445	176.6439	51487.05	50761.65
796.3864	178.8825	51382.2	50654.5
796.5284	181.1206	51580.45	50844.65
796.6704	183.3582	51487.45	50753.85
796.8124	185.5954	51243.55	50503.15
796.9544	187.832	51328.25	50583.85
797.0965	190.0681	51102.1	50359.85
797.2386	192.3037	51487.85	50741.05
797.3806	194.5388	51925.9	51175.45
797.5228	196.7734	50974.75	50217.6
797.6649	199.0075	51817.05	51056.35
797.807	201.2411	51569.05	50803.85
797.9492	203.4742	52052.3	51292.5
798.0914	205.7068	52007.7	51245.15
798.2336	207.9389	51927.45	51168.4
798.3758	210.1704	51953.35	51186.65
798.518	212.4015	52343.3	51573.55
798.6603	214.632	51901.4	51129.95
798.8025	216.862	52366.9	51608.35
798.9448	219.0915	52210.4	51456.95
799.0871	221.3205	52129.45	51379.7
799.2294	223.549	52548	51799.45
799.3718	225.777	52489.7	51742.95
799.5141	228.0044	52699.65	51950.35
799.6565	230.2314	52597.85	51852.55
799.7989	232.4578	52575.1	51833.3
799.9413	234.6837	52677.55	51919.65
800.0837	236.909	53391.3	52634.95
800.2262	239.1339	52407.2	51622.4
800.3687	241.3582	52816.95	52050.6
800.5111	243.582	52826.85	52028.2
800.6536	245.8053	52789.3	52003.75
800.7961	248.0281	52806.85	52024.4
800.9387	250.2503	52949.7	52162
801.0812	252.472	52619.75	51829.15
801.2238	254.6932	52883.5	52091.85
801.3664	256.9139	52797.85	52002.05
801.509	259.134	53459.75	52657.65
801.6516	261.3536	52764.2	51965.25
801.7942	263.5727	53268.8	52469.05
801.9369	265.7912	53112.45	52318.2
802.0795	268.0092	53285.75	52484.95
802.2222	270.2267	53302.55	52504.55
802.3649	272.4436	53041.55	52238.85
802.5076	274.6601	53320.6	52514.7
802.6504	276.8759	53404.45	52605.65
802.7931	279.0913	53228.7	52422.7
802.9359	281.3061	53220.95	52413.85
803.0787	283.5204	53258.95	52448.05
803.2215	285.7341	53260.2	52441.9
803.3643	287.9473	53549.3	52725
803.5071	290.16	53310.6	52489.35
803.6499	292.3721	53530.7	52713.6
803.7928	294.5837	53208.8	52391.7
803.9357	296.7947	53070.9	52258.25
804.0786	299.0052	53562.25	52749.4
804.2215	301.2152	53322.75	52506.55
804.3644	303.4246	53541.15	52729.4
804.5074	305.6334	53421.4	52608.55
804.6503	307.8418	52976.3	52154.95
804.7933	310.0495	52873.2	52051.95
804.9363	312.2568	52735.8	51916.45
805.0793	314.4635	52553.95	51732.3
805.2223	316.6696	52601.8	51777.95
805.3653	318.8752	52730.7	51898.4
805.5084	321.0802	52068.35	51243.8
805.6514	323.2847	52327.4	51497.85
805.7945	325.4887	52303.3	51475.6
805.9376	327.692	52106.2	51276.95
806.0807	329.8949	52312.25	51479.1
806.2238	332.0972	52088.3	51253.55
806.367	334.2989	52123.1	51283.5
806.5101	336.5001	52271.3	51437.35
806.6533	338.7007	51741.2	50906.55
806.7965	340.9008	51987.35	51153.3
806.9397	343.1003	51955.3	51114.2
807.0829	345.2992	52010.3	51168.95
807.2261	347.4976	51751	50910.55
807.3693	349.6955	51868.95	51025.5
807.5126	351.8927	51679.3	50834
807.6559	354.0895	51814.3	50960.5
807.7991	356.2856	51789.45	50942.8
807.9424	358.4812	51943.6	51099.7
808.0857	360.6763	51614.5	50769.1
808.2291	362.8707	51812.9	50966.35
808.3724	365.0646	51692.7	50843.7
808.5158	367.258	51661.4	50811.35
808.6591	369.4508	51471	50618.5
808.8025	371.643	51790.6	50929.15
808.9459	373.8346	51637.75	50779.8
809.0893	376.0257	51648.55	50781.95
809.2327	378.2162	51546.65	50686.95
809.3762	380.4062	51268.45	50407.45
809.5196	382.5956	51391.8	50526.95
809.6631	384.7844	51371.95	50510.85
809.8066	386.9726	51403.5	50541.6
809.9501	389.1603	51342.95	50486.75
810.0936	391.3474	51053.7	50164.45
810.2371	393.5339	51329.25	50469.15
810.3806	395.7199	50914.5	50057.95
810.5241	397.9052	50966.05	50116
810.6677	400.09	51002.9	50149.4
810.8113	402.2743	51179.35	50326.55
810.9548	404.4579	51013.9	50162.35
811.0984	406.641	51071.65	50221.1
811.2421	408.8235	51234.9	50381.35
811.3857	411.0054	51274.45	50418.75
811.5293	413.1868	51407	50544.5
811.673	415.3675	51315.8	50456.3
811.8166	417.5477	51281.9	50414.85
811.9603	419.7273	51273.85	50410.95
812.104	421.9064	51180.15	50311.6
812.2477	424.0848	51149	50283.95
812.3914	426.2627	51205.95	50338.2
812.5351	428.4399	50912.05	50039.85
812.6788	430.6166	50625.4	49746.25
812.8226	432.7928	50761.45	49890.25
812.9663	434.9683	50384.35	49512.4
813.1101	437.1432	50318.3	49449.15
813.2539	439.3176	50349.45	49482.2
813.3977	441.4914	49938.85	49071.1
813.5415	443.6645	50053.4	49180.35
813.6853	445.8371	49956.55	49082.8
813.8291	448.0091	49751.95	48875.45
813.973	450.1806	49627.3	48756.6
814.1168	452.3514	49636.2	48765.2
814.2607	454.5216	49524.5	48646.1
814.4046	456.6913	49538	48661.95
814.5485	458.8603	49572.1	48697.1
814.6924	461.0288	49404.3	48533.2
814.8363	463.1967	49526.55	48658.5
814.9802	465.3639	49598.55	48725.05
815.1241	467.5306	49166.75	48295.5
815.2681	469.6967	49363.45	48491.65
815.412	471.8622	49413.25	48544.95
815.556	474.0271	49291.25	48417.9
815.7	476.1914	49317.4	48436.35
815.844	478.3551	49327.75	48448.75
815.988	480.5182	49541.7	48667.6
816.132	482.6807	49313.8	48439.55
816.276	484.8426	49406.8	48544.45
816.4201	487.0039	49712.45	48842.7
816.5641	489.1647	49807.6	48928.75
816.7082	491.3248	49648.1	48769.2
816.8522	493.4843	49934.3	49061
816.9963	495.6432	49908.8	49031.55
817.1404	497.8015	49580.55	48693.7
817.2845	499.9592	49688.9	48802.15
817.4286	502.1163	49616.25	48732.7
817.5727	504.2728	49429.15	48548.6
817.7168	506.4287	49377.35	48503.05
817.861	508.5839	49096.7	48221.45
818.0051	510.7386	49114.8	48235
818.1493	512.8927	49148.45	48262
818.2935	515.0461	49054.65	48171.7
818.4377	517.199	49209.1	48324.5
818.5818	519.3512	49123.25	48235.9
818.726	521.5029	49157.05	48266.95
818.8703	523.6539	49214.5	48329.95
819.0145	525.8043	49005.6	48120.8
819.1587	527.9541	49159.75	48270.4
819.303	530.1033	49052.9	48161.7
819.4472	532.2519	48892.65	48005.35
819.5915	534.3999	49017.5	48127.35
819.7357	536.5472	49132.35	48243.05
819.88	538.694	48941.35	48052.95
820.0243	540.8401	49247.6	48358.85
820.1686	542.9856	49252.05	48352.85
820.3129	545.1305	49303.65	48401.15
820.4572	547.2748	49186.3	48283.4
820.6016	549.4185	49089.1	48178.6
820.7459	551.5615	49103.65	48198.55
820.8902	553.704	49096.7	48195.05
821.0346	555.8458	48916.85	48019.35
821.1789	557.987	49030.2	48131.1
821.3233	560.1276	49127.1	48227.2
821.4677	562.2675	49193.8	48294.1
821.6121	564.4069	49293.4	48395.4
821.7565	566.5456	49484.65	48586.7
821.9009	568.6837	49287.2	48389.95
822.0453	570.8212	49212.5	48318.75
822.1897	572.958	48690.3	47793.2
822.3342	575.0942	48655.05	47759.25
822.4786	577.2299	48332.95	47444.05
822.6231	579.3648	48237.7	47356.95
822.7675	581.4992	48070.05	47192.2
822.912	583.6329	48044.6	47169.4
823.0565	585.766	48124	47244.85
823.201	587.8985	48165.45	47281.2
823.3454	590.0304	47815.8	46911.35
823.4899	592.1616	47981.35	47081.1
823.6345	594.2922	47831.7	46930.15
823.779	596.4222	47572.65	46671.45
823.9235	598.5515	47526.55	46622.3
824.068	600.6802	47513.2	46609.5
824.2126	602.8083	47210.9	46312.15
824.3571	604.9358	47170.05	46267
824.5017	607.0626	47299.55	46395.2
824.6462	609.1888	47009.45	46099.5
824.7908	611.3144	47252.45	46341
824.9354	613.4393	47140.55	46231.85
825.08	615.5636	47033.75	46125.1
825.2246	617.6873	47138.1	46228.65
825.3692	619.8103	46959.9	46051.9
825.5138	621.9327	47067.15	46158.45
825.6584	624.0544	46971.45	46068.8
825.803	626.1756	46776.15	45873.7
825.9477	628.2961	46725.1	45817.15
826.0923	630.4159	46505	45596.75
826.237	632.5351	46477.75	45567.05
826.3816	634.6537	46786.1	45873.35
826.5263	636.7716	46387.3	45472.15
826.6709	638.8889	46482.85	45569.45
826.8156	641.0056	46466.9	45552.25
826.9603	643.1216	46501.85	45589.05
827.105	645.237	46598.7	45686.75
827.2497	647.3518	46257.2	45349.75
827.3944	649.4659	46305.85	45402.6
827.5391	651.5793	46237.25	45332.55
827.6838	653.6922	46254.5	45349.45
827.8285	655.8043	45951.85	45044.05
827.9733	657.9159	46343.45	45436.95
828.118	660.0268	45621.85	44714.45
828.2627	662.137	45945.65	45035.65
828.4075	664.2466	45993	45074.2
828.5522	666.3556	45840.75	44925
828.697	668.4639	45813.5	44902.35
828.8418	670.5716	45691.55	44788
828.9865	672.6786	45772.95	44862.7
829.1313	674.785	45456.2	44540.5
829.2761	676.8907	45456.2	44544.9
829.4209	678.9958	45556	44643.65
829.5657	681.1002	45515.95	44604.8
829.7105	683.204	45279.85	44357.25
829.8553	685.3072	45146.1	44227.1
830.0001	687.4097	45137.35	44223.2
830.1449	689.5115	45098.3	44180.4
830.2898	691.6127	45258.5	44345.95
830.4346	693.7132	45030.5	44119.1
830.5794	695.8131	45097.7	44165.05
830.7243	697.9123	45107.05	44187.9
830.8691	700.0109	45167.1	44244.9
831.014	702.1089	44869.2	43949.4
831.1588	704.2061	44962.5	44040.75
831.3037	706.3028	44993.7	44075.85
831.4486	708.3987	44939.15	44019.65
831.5935	710.4941	44823.4	43905.65
831.7383	712.5887	44978.7	44066.15
831.8832	714.6827	44893.8	43971.9
832.0281	716.7761	45005.45	44092.65
832.173	718.8688	45122.15	44207
832.3179	720.9608	44959.15	44035.3
832.4628	723.0522	45105.7	44176.8
832.6077	725.1429	44893.15	43969.65
832.7527	727.233	45275.2	44352.8
832.8976	729.3224	44669.1	43748.75
833.0425	731.4112	44806.1	43882.2
833.1874	733.4993	44677.7	43754.2
833.3324	735.5867	44551.45	43626.85
833.4773	737.6735	44282.75	43356.85
833.6222	739.7596	44020.95	43098.85
833.7672	741.845	43885.2	42961.55
833.9122	743.9298	43986.5	43062.3
834.0571	746.014	43728.65	42807.25
834.2021	748.0974	43585.7	42658.45
834.347	750.1802	43812.85	42883.7
834.492	752.2624	43331.9	42404.35
834.637	754.3439	43330.85	42401.9
834.782	756.4247	43442.85	42510.2
834.9269	758.5048	43313	42385.75
835.0719	760.5843	43421.9	42493.45
835.2169	762.6631	43609.75	42677.9
835.3619	764.7413	43753.6	42829.9
835.5069	766.8188	44130.15	43201.35
835.6519	768.8956	44412.5	43481.45
835.7969	770.9718	44513.05	43587.55
835.9419	773.0473	44315.25	43384.3
836.0869	775.1221	44002.3	43075.25
836.232	777.1962	43806.95	42879.6
836.377	779.2697	43530.95	42602.05
836.522	781.3426	43637.9	42699.2
836.667	783.4147	43664.45	42735.9
836.8121	785.4862	43608.7	42681.35
836.9571	787.557	43292.6	42364
837.1021	789.6271	43213.55	42284.35
837.2472	791.6966	42755.3	41823.8
837.3922	793.7654	42175.05	41245.45
837.5373	795.8335	42004.1	41077.9
837.6823	797.901	41808.5	40882.8
837.8274	799.9678	41649.3	40719.05
837.9724	802.0339	41528.1	40599.6
838.1175	804.0993	41472.9	40528.85
838.2626	806.1641	41251.1	40321.7
838.4076	808.2282	41138.3	40208.8
838.5527	810.2916	41068.1	40135.9
838.6978	812.3544	41051.3	40122.8
838.8428	814.4164	40795.85	39868.55
838.9879	816.4778	40897.4	39965.75
839.133	818.5385	40782.65	39846.4
839.2781	820.5986	40892.35	39956.85
839.4232	822.658	40972.35	40036.1
839.5682	824.7166	41046.2	40114.1
839.7133	826.7747	41179.4	40249.15
839.8584	828.832	41510.95	40579.2
840.0035	830.8886	41648.35	40712.15
840.1486	832.9446	41663.7	40727.6
840.2937	834.9999	41227.75	40297.05
840.4388	837.0545	41180.5	40245
840.5839	839.1085	41084.35	40149.6
840.729	841.1618	40846	39911.65
840.8741	843.2143	40449.85	39516.55
841.0192	845.2662	40280	39349.35
841.1643	847.3175	40276.25	39341.85
841.3095	849.368	39948.15	39016.55
841.4546	851.4179	40029.6	39098.35
841.5997	853.467	39708.15	38775
841.7448	855.5155	39715.05	38784.8
841.8899	857.5633	39526.45	38592.45
842.0351	859.6105	39366.5	38432.6
842.1802	861.6569	39325.75	38391.85
842.3253	863.7027	39085.85	38149.15
842.4704	865.7478	39142.35	38205.45
842.6156	867.7922	39012.55	38077.75
842.7607	869.8359	39054.9	38119.6
842.9058	871.8789	38875.6	37938.75
843.0509	873.9212	38921.45	37954.05
843.1961	875.9629	38861.8	37928.35
843.3412	878.0039	38918.85	37981.4
843.4863	880.0441	38844.85	37911.8
843.6315	882.0837	38867.5	37931.9
843.7766	884.1226	38823.05	37884.05
843.9218	886.1609	38787.7	37856.3
844.0669	888.1984	38750.5	37813.6
844.212	890.2352	38938.35	38007.2
844.3572	892.2714	38719.5	37780.5
844.5023	894.3069	38709.85	37774.65
844.6475	896.3416	38509.1	37570.7
844.7926	898.3757	38364.05	37428.75
844.9377	900.4091	38164.25	37227.15
845.0829	902.4418	38232.85	37290.15
845.228	904.4739	38081.45	37137.9
845.3732	906.5052	38103.05	37162.45
845.5183	908.5358	37889.95	36952.65
845.6635	910.5658	37810.25	36867.8
845.8086	912.595	37653.4	36713.3
845.9538	914.6236	37382.05	36447.15
846.0989	916.6515	37416.15	36477.6
846.2441	918.6786	37129.2	36191
846.3892	920.7051	37123.15	36182.3
846.5344	922.7309	37091.8	36158.4
846.6795	924.756	37001	36060.55
846.8246	926.7804	36988.1	36048.8
846.9698	928.8041	36695.9	35756.55
847.1149	930.8272	36716.6	35779.9
847.2601	932.8495	36614.7	35676.5
847.4052	934.8711	36493.1	35553.95
847.5504	936.892	36355.7	35414.8
847.6955	938.9123	36273.25	35335
847.8407	940.9318	36152.35	35213.55
847.9858	942.9506	36066.45	35127
848.131	944.9688	35970.45	35032.1
848.2761	946.9862	35755.05	34819.25
848.4213	949.003	35564.3	34624.05
848.5664	951.019	35395.25	34455.95
848.7115	953.0344	35312.4	34376.75
848.8567	955.0491	35225.45	34284.8
849.0018	957.063	35252.85	34313.4
849.147	959.0763	35356.75	34414.1
849.2921	961.0888	35167.5	34228.75
849.4373	963.1007	35235.1	34298.3
849.5824	965.1119	35166	34236.6
849.7275	967.1223	35063.5	34135.2
849.8727	969.1321	35024.6	34094.45
850.0178	971.1412	34923.65	33990.2
850.1629	973.1495	34790.75	33856.4
850.3081	975.1572	34797.25	33844.7
850.4532	977.1641	34754.8	33818.35
850.5983	979.1704	34608.05	33670.25
850.7435	981.1759	34497.2	33556.85
850.8886	983.1808	34469.8	33530.15
851.0337	985.1849	34377.3	33426.4
851.1788	987.1884	34334.65	33392.8
851.324	989.1911	34310.95	33371
851.4691	991.1932	34256.75	33318.45
851.6142	993.1945	34187.4	33251.05
851.7593	995.1951	33973.85	33036.85
851.9045	997.1951	33971.45	33025.1
852.0496	999.1943	33790.35	32852.45
852.1947	1001.1928	33711.65	32773.15
852.3398	1003.1906	33526.75	32586.25
852.4849	1005.1877	33562.05	32620.85
852.63	1007.1841	33418.7	32479.4
852.7751	1009.1798	33358.45	32419.05
852.9202	1011.1748	33198.15	32261.3
853.0653	1013.1691	33022.15	32084.7
853.2104	1015.1627	32790.7	31852.35
853.3555	1017.1556	32484.45	31551.05
853.5006	1019.1477	32389	31454
853.6457	1021.1392	32112.15	31179.5
853.7908	1023.1299	31977.25	31046.8
853.9359	1025.12	31901.55	30978.75
854.081	1027.1093	31814.85	30897.55
854.2261	1029.0979	31852.7	30935.2
854.3712	1031.0859	31743.2	30824
854.5163	1033.0731	31653	30725.1
854.6613	1035.0596	31533.45	30603.95
854.8064	1037.0454	31281.35	30348.6
854.9515	1039.0304	31181.2	30246.7
855.0965	1041.0148	31025.45	30089.95
855.2416	1042.9985	30860	29923.85
855.3867	1044.9814	30797.7	29860.75
855.5317	1046.9636	30604.65	29667.6
855.6768	1048.9452	30545.15	29612.05
855.8219	1050.926	30554.35	29621.5
855.9669	1052.9061	30436.05	29502
856.112	1054.8855	30366.05	29430
856.257	1056.8642	30343.5	29406.65
856.4021	1058.8421	30293.95	29353.05
856.5471	1060.8194	30263.4	29326.2
856.6921	1062.7959	30165.15	29230.85
856.8372	1064.7717	30184.75	29249.35
856.9822	1066.7469	30115.45	29180.1
857.1272	1068.7213	30127	29186.85
857.2723	1070.695	30136.85	29200.45
857.4173	1072.6679	29978.05	29038.7
857.5623	1074.6402	29933.4	28997.35
857.7073	1076.6117	29918.8	28974.8
857.8523	1078.5826	29812.2	28875.35
857.9973	1080.5527	29638.35	28702.25
858.1423	1082.5221	29478.25	28542.55
858.2873	1084.4908	29404.9	28470.95
858.4323	1086.4587	29352.45	28415.55
858.5773	1088.426	29303.05	28365.1
858.7223	1090.3925	29264.1	28320.9
858.8673	1092.3584	29217.25	28280.55
859.0123	1094.3235	29100.95	28164.25
859.1573	1096.2879	29026.25	28089.05
859.3022	1098.2515	29067.15	28131.5
859.4472	1100.2145	29154.05	28220.85
859.5922	1102.1767	29172.85	28237.55
859.7371	1104.1382	29199.65	28265.4
859.8821	1106.099	29305.8	28370.6
860.027	1108.0591	29299.3	28364.95
860.172	1110.0185	29306.15	28371.7
860.3169	1111.9771	29326.8	28392.05
860.4619	1113.9351	29155.45	28219.4
860.6068	1115.8923	29002.45	28067.95
860.7517	1117.8488	28853.45	27915.5
860.8967	1119.8045	28592.85	27657.15
861.0416	1121.7596	28488.85	27551.45
861.1865	1123.7139	28334.9	27402.85
861.3314	1125.6675	28215.85	27282.7
861.4763	1127.6204	28311.3	27380.2
861.6212	1129.5726	28142.9	27205.2
861.7661	1131.524	28104.6	27170.45
861.911	1133.4748	27991.05	27053.35
862.0559	1135.4248	27782	26846.55
862.2008	1137.3741	27616.8	26683.2
862.3457	1139.3226	27449.5	26515.35
862.4905	1141.2705	27444.15	26509.4
862.6354	1143.2176	27225.55	26286.3
862.7803	1145.164	27198.55	26263.25
862.9251	1147.1097	27126.65	26192.15
863.07	1149.0546	27033.5	26098.05
863.2148	1150.9989	26901.7	25969.5
863.3597	1152.9424	26845.85	25910.2
863.5045	1154.8852	26704.65	25769.9
863.6493	1156.8272	26637.9	25705.65
863.7942	1158.7686	26649.9	25708.8
863.939	1160.7092	26567.1	25632.3
864.0838	1162.6491	26432.45	25494.25
864.2286	1164.5883	26519.3	25583.4
864.3734	1166.5267	26515.2	25581.6
864.5182	1168.4644	26567.3	25632.4
864.663	1170.4014	26628.15	25692.9
864.8078	1172.3377	26737	25804.1
864.9526	1174.2732	26909.8	25977.5
865.0974	1176.2081	27146.05	26212.6
865.2421	1178.1421	27327.15	26388.25
865.3869	1180.0755	27612.45	26680.35
865.5317	1182.0082	27715.75	26783
865.6764	1183.9401	27780.8	26847.95
865.8212	1185.8713	27577.7	26649.5
865.9659	1187.8017	27345.6	26423.65
866.1106	1189.7315	27131.65	26213.45
866.2554	1191.6605	26728.3	25810.9
866.4001	1193.5888	26464.05	25538.55
866.5448	1195.5163	26343.55	25417.1
866.6895	1197.4432	26205.65	25275.65
866.8342	1199.3693	26109.4	25178.35
866.9789	1201.2947	25985.9	25052.85
867.1236	1203.2193	25867.15	24936.1
867.2683	1205.1432	25777.05	24844.7
867.413	1207.0664	25707.3	24777.55
867.5576	1208.9889	25620.7	24684.4
867.7023	1210.9106	25557.4	24628
867.847	1212.8316	25489.75	24560.95
867.9916	1214.7519	25443.55	24503.35
868.1363	1216.6715	25366	24433.75
868.2809	1218.5903	25360.35	24428.95
868.4255	1220.5084	25411.8	24480.85
868.5701	1222.4257	25463.75	24535.05
868.7148	1224.3424	25334.7	24408.05
868.8594	1226.2583	25346.25	24408.75
869.004	1228.1735	25383	24450.55
869.1486	1230.0879	25355.65	24427.15
869.2932	1232.0016	25414.15	24481.3
869.4377	1233.9146	25474.05	24540.05
869.5823	1235.8269	25395.25	24467.6
869.7269	1237.7384	25346.7	24415.4
869.8715	1239.6492	25170.85	24240.2
870.016	1241.5592	25152.4	24221
870.1606	1243.4686	25113.05	24181.85
870.3051	1245.3772	25139.5	24211.9
870.4496	1247.285	25183.65	24252.1
870.5941	1249.1922	25226.8	24296.25
870.7387	1251.0986	25285.55	24357.2
870.8832	1253.0042	25201.65	24271.6
871.0277	1254.9092	25265.05	24336.65
871.1722	1256.8134	25271.95	24344.75
871.3167	1258.7169	25329.7	24400.5
871.4611	1260.6196	25370.8	24444.45
871.6056	1262.5216	25471.05	24536.65
871.7501	1264.4229	25524.15	24597.95
871.8945	1266.3234	25651.35	24721.7
872.039	1268.2232	25658.7	24727.05
872.1834	1270.1223	25673.6	24741.95
872.3278	1272.0207	25598.7	24666.6
872.4723	1273.9183	25541.3	24605
872.6167	1275.8151	25421.2	24493.3
872.7611	1277.7113	25395.9	24470.5
872.9055	1279.6067	25377.95	24452.45
873.0499	1281.5014	25484.45	24550.2
873.1943	1283.3953	25695.45	24764.4
873.3386	1285.2885	25967.4	25040.55
873.483	1287.181	26215.95	25287.95
873.6274	1289.0727	26533.7	25608.65
873.7717	1290.9637	26666.55	25736.4
873.9161	1292.854	26823.4	25894.15
874.0604	1294.7435	26740.75	25808.15
874.2047	1296.6323	26651.2	25720.35
874.349	1298.5204	26502.4	25571.85
874.4933	1300.4077	26373.85	25444.7
874.6376	1302.2943	26181.4	25253.5
874.7819	1304.1802	25961.35	25031.45
874.9262	1306.0653	25640.8	24708.9
875.0705	1307.9497	25294.8	24368.6
875.2147	1309.8333	24959.05	24032.3
875.359	1311.7162	24745.2	23817.85
875.5032	1313.5984	24635.4	23701.95
875.6475	1315.4798	24437.15	23491.85
875.7917	1317.3605	24368.1	23428.15
875.9359	1319.2405	24293.85	23362.8
876.0801	1321.1197	24143.55	23213.75
876.2243	1322.9982	23856	22921.2
876.3685	1324.876	23739.75	22810.65
876.5127	1326.753	23476.9	22548.5
876.6569	1328.6293	23371.5	22440.8
876.801	1330.5048	23256.1	22324.55
876.9452	1332.3796	23052.55	22125.2
877.0893	1334.2537	22979.55	22028
877.2335	1336.127	22850.45	21922.95
877.3776	1337.9996	22833.9	21907.15
877.5217	1339.8714	22775.55	21845.25
877.6658	1341.7426	22795.45	21827.4
877.8099	1343.6129	22690.55	21760.5
877.954	1345.4826	22631.05	21700.3
878.0981	1347.3515	22647.95	21715.2
878.2422	1349.2196	22597.85	21667.45
878.3862	1351.087	22617.25	21689.45
878.5303	1352.9537	22554.8	21623.05
878.6743	1354.8197	22615.85	21687.75
878.8184	1356.6849	22694.25	21766.75
878.9624	1358.5493	22764.4	21835.05
879.1064	1360.4131	22817.9	21889.6
879.2504	1362.276	22859.2	21932.05
879.3944	1364.1383	22837.95	21909.4
879.5384	1365.9998	22671.25	21739.4
879.6823	1367.8606	22449.6	21518.95
879.8263	1369.7206	22163.7	21235.75
879.9702	1371.5799	21921.85	20994.6
880.1142	1373.4384	21680.65	20752.2
880.2581	1375.2962	21551.3	20622.1
880.402	1377.1533	21246.1	20323.15
880.5459	1379.0096	20954.45	20030.1
880.6898	1380.8652	20716.85	19792.1
880.8337	1382.7201	20505.4	19579.6
880.9776	1384.5742	20250.5	19324.95
881.1215	1386.4275	20100.1	19173.95
881.2653	1388.2802	19911.2	18982.25
881.4092	1390.132	19780.95	18854.85
881.553	1391.9832	19738.7	18809.55
881.6968	1393.8336	19632.2	18704.9
881.8406	1395.6832	19550.15	18619.55
881.9844	1397.5322	19481.75	18557.35
882.1282	1399.3803	19393.8	18462.45
882.272	1401.2278	19266.8	18338.45
882.4158	1403.0745	19209.35	18285.55
882.5595	1404.9204	19134.3	18210.15
882.7033	1406.7656	19118.6	18193.05
882.847	1408.6101	19008.85	18081.5
882.9908	1410.4538	18984.3	18058
883.1345	1412.2968	18976.3	18048.7
883.2782	1414.139	18943	18016.95
883.4219	1415.9805	18981.65	18055.6
883.5656	1417.8213	18968.35	18025.2
883.7092	1419.6613	18945.55	18020.7
883.8529	1421.5006	18997.6	18074.35
883.9965	1423.3391	19075.45	18150.6
884.1402	1425.1769	19188.4	18263.7
884.2838	1427.0139	19447	18522.3
884.4274	1428.8502	19729.25	18801.55
884.571	1430.6858	19982.55	19058.05
884.7146	1432.5206	20152.95	19226.6
884.8582	1434.3547	20268.5	19342.85
885.0018	1436.188	20313.25	19387
885.1453	1438.0206	20198.15	19272.65
885.2889	1439.8524	20019.85	19097.25
885.4324	1441.6835	19960.25	19034.75
885.5759	1443.5139	19861.5	18932.05
885.7194	1445.3435	19761.85	18837.3
885.8629	1447.1724	19733.15	18809.15
886.0064	1449.0005	19675.6	18752.45
886.1499	1450.8279	19582.1	18659.65
886.2933	1452.6545	19550.15	18625.25
886.4368	1454.4804	19599.4	18678.8
886.5802	1456.3056	19579.2	18649.5
886.7237	1458.13	19472.05	18549.95
886.8671	1459.9536	19381.65	18461.1
887.0105	1461.7766	19186.05	18264.65
887.1539	1463.5987	18981.25	18055.25
887.2972	1465.4202	18721.7	17796.4
887.4406	1467.2409	18455.9	17530.55
887.584	1469.0608	18283.95	17361.65
887.7273	1470.88	18128.95	17204.2
887.8706	1472.6984	17944	17020.6
888.0139	1474.5161	17757	16830.4
888.1572	1476.3331	17637.7	16715.75
888.3005	1478.1493	17563.65	16639.4
888.4438	1479.9648	17506	16581.25
888.5871	1481.7795	17413.45	16489.25
888.7303	1483.5935	17355.1	16432.2
888.8736	1485.4067	17286.75	16363.35
889.0168	1487.2192	17234.25	16310.2
889.16	1489.031	17213.9	16290.35
889.3032	1490.842	17111.75	16188.9
889.4464	1492.6522	17088.95	16168.45
889.5896	1494.4618	17026.3	16104.3
889.7327	1496.2705	17007.15	16085.6
889.8759	1498.0785	16952	16026.3
890.019	1499.8858	16867.35	15947.15
890.1622	1501.6924	16821.8	15900.55
890.3053	1503.4981	16813.65	15891.35
890.4484	1505.3032	16721.65	15800.75
890.5914	1507.1075	16672.4	15750.8
890.7345	1508.911	16614.4	15694.1
890.8776	1510.7138	16557.1	15633.05
891.0206	1512.5159	16490.05	15570.8
891.1637	1514.3172	16457.55	15537.1
891.3067	1516.1178	16361.25	15441.3
891.4497	1517.9176	16338.65	15415.55
891.5927	1519.7166	16257.2	15336.05
891.7357	1521.515	16223.75	15299.7
891.8786	1523.3126	16179.35	15257.95
892.0216	1525.1094	16106.6	15183.65
892.1645	1526.9055	16049.4	15129.55
892.3074	1528.7008	16001.2	15081.75
892.4503	1530.4954	15916.85	14991.05
892.5932	1532.2893	15899.5	14983.55
892.7361	1534.0824	15814.35	14894.45
892.879	1535.8747	15818.15	14904.95
893.0218	1537.6663	15746.25	14830.05
893.1647	1539.4572	15673.9	14757.05
893.3075	1541.2473	15689.15	14771.65
893.4503	1543.0367	15620.75	14702.4
893.5931	1544.8253	15636.5	14715.8
893.7359	1546.6132	15620.45	14697.45
893.8787	1548.4003	15569.65	14643.15
894.0214	1550.1867	15573.15	14648.6
894.1642	1551.9723	15561.25	14642.55
894.3069	1553.7572	15566.85	14650.95
894.4496	1555.5414	15598.45	14685.2
894.5923	1557.3247	15626.25	14714.7
894.735	1559.1074	15725.95	14814.55
894.8777	1560.8893	15767.75	14858.4
895.0204	1562.6705	15839.65	14929.8
895.163	1564.4509	15884.75	14974.55
895.3056	1566.2305	15866.95	14959.9
895.4482	1568.0094	15902.15	14995.15
895.5908	1569.7876	15917.5	15008.35
895.7334	1571.565	15857.2	14945.45
895.876	1573.3417	15847	14934.8
896.0186	1575.1176	15792.25	14882.85
896.1611	1576.8928	15776.1	14868.8
896.3036	1578.6672	15680.95	14775.45
896.4461	1580.4409	15676	14771.7
896.5886	1582.2138	15657.05	14748.3
896.7311	1583.986	15642.35	14735.25
896.8736	1585.7575	15702.5	14795.45
897.0161	1587.5282	15677	14770.75
897.1585	1589.2981	15735.6	14832
897.3009	1591.0673	15737.25	14833.4
897.4433	1592.8358	15765.85	14861.75
897.5857	1594.6035	15807.85	14898.5
897.7281	1596.3704	15823.25	14914.75
897.8705	1598.1366	15836.85	14930.1
898.0128	1599.9021	15836.6	14932.1
898.1551	1601.6668	15869.75	14962.45
898.2975	1603.4308	15901.8	14993.45
898.4398	1605.194	15983.7	15072.55
898.5821	1606.9564	16062.6	15161.1
898.7243	1608.7182	16173	15269.85
898.8666	1610.4791	16341.7	15447.95
899.0088	1612.2394	16470	15574.75
899.1511	1613.9988	16626.3	15725.15
899.2933	1615.7576	16798.45	15896.6
899.4355	1617.5156	16939	16027.6
899.5776	1619.2728	16985.9	16078.25
899.7198	1621.0293	16898.05	15989.9
899.862	1622.785	16709.6	15805.7
900.0041	1624.54	16479.2	15577.9
900.1462	1626.2942	16252.25	15349.5
900.2883	1628.0477	15926.4	15022.95
900.4304	1629.8005	15686.2	14781.65
900.5725	1631.5525	15457	14556.85
900.7145	1633.3037	15259.4	14360.55
900.8566	1635.0542	15096.35	14196.3
900.9986	1636.804	14948.05	14047.55
901.1406	1638.553	14890.15	13933.05
901.2826	1640.3013	14771.5	13868.8
901.4245	1642.0488	14676.6	13773.75
901.5665	1643.7955	14707.4	13805.45
901.7085	1645.5416	14689.75	13790.65
901.8504	1647.2868	14717.3	13819.5
901.9923	1649.0313	14743.95	13840.9
902.1342	1650.7751	14803.25	13899.8
902.2761	1652.5181	14867.35	13967.15
902.4179	1654.2604	14939.1	14039.35
902.5598	1656.0019	15040.35	14142.5
902.7016	1657.7427	15163.7	14261.6
902.8434	1659.4828	15301.35	14401.05
902.9852	1661.222	15360.9	14459.45
903.127	1662.9606	15317.4	14416
903.2687	1664.6984	15153	14250.85
903.4105	1666.4354	14904.9	13999.7
903.5522	1668.1717	14549.7	13643.4
903.6939	1669.9072	14157.25	13252.5
903.8356	1671.642	13876.8	12971.05
903.9773	1673.3761	13586	12683.25
904.119	1675.1094	13370.6	12468.15
904.2606	1676.8419	13203.35	12301.1
904.4022	1678.5737	13056.15	12154.7
904.5439	1680.3048	12926.8	12023.25
904.6855	1682.0351	12808.7	11905.2
904.827	1683.7646	12705.35	11802.3
904.9686	1685.4934	12627.2	11727
905.1101	1687.2215	12561.2	11660.65
905.2517	1688.9488	12466.95	11567.4
905.3932	1690.6754	12395.2	11495.85
905.5347	1692.4012	12362.95	11461.1
905.6761	1694.1263	12300.75	11400.1
905.8176	1695.8506	12270.85	11370.55
905.9591	1697.5742	12204	11304.75
906.1005	1699.297	12145.15	11247.5
906.2419	1701.0191	12057.3	11162.4
906.3833	1702.7404	12009.5	11111.6
906.5246	1704.461	11944.25	11042.5
906.666	1706.1808	11895.65	10995.65
906.8073	1707.8999	11869.8	10970.1
906.9487	1709.6182	11818.95	10923.1
907.09	1711.3358	11769.95	10875.8
907.2313	1713.0527	11724.75	10829.55
907.3725	1714.7688	11653.1	10752.3
907.5138	1716.4841	11622.4	10724.8
907.655	1718.1987	11614.4	10712.9
907.7962	1719.9126	11550.4	10654.15
907.9374	1721.6257	11498.7	10602.2
908.0786	1723.338	11474.3	10580.45
908.2198	1725.0496	11436.4	10539.15
908.3609	1726.7605	11426.35	10528.05
908.502	1728.4706	11373.35	10477.05
908.6431	1730.18	11316.6	10420.3
908.7842	1731.8886	11286.4	10391.75
908.9253	1733.5964	11253.65	10353.5
909.0664	1735.3036	11209.65	10312.5
909.2074	1737.0099	11212.45	10317.75
909.3484	1738.7156	11192.65	10297.3
909.4894	1740.4204	11151.75	10252.1
909.6304	1742.1246	11128.75	10230.85
909.7714	1743.8279	11084.6	10189.2
909.9123	1745.5306	11056.9	10163.1
910.0532	1747.2325	11003.9	10110.4
910.1941	1748.9336	10970.1	10073.85
910.335	1750.634	10932.8	10032.4
910.4759	1752.3336	10931.2	10039.55
910.6168	1754.0325	10905.95	10014.65
910.7576	1755.7307	10893.65	10001.35
910.8984	1757.4281	10868.65	9974.4
911.0392	1759.1247	10871.45	9966.15
911.18	1760.8206	10808.55	9906.1
911.3208	1762.5158	10792.85	9889.35
911.4615	1764.2102	10720	9824.9
911.6022	1765.9039	10726.75	9831.55
911.7429	1767.5968	10692.8	9799.85
911.8836	1769.289	10667.7	9774.55
912.0243	1770.9804	10674.35	9776.8
912.1649	1772.6711	10653.3	9756.3
912.3056	1774.361	10619.4	9722.3
912.4462	1776.0502	10594.55	9698.95
912.5868	1777.7386	10584.35	9685.45
912.7274	1779.4263	10523	9627.7
912.8679	1781.1132	10521.3	9628.85
913.0084	1782.7994	10458.55	9565.5
913.149	1784.4849	10454.15	9561.2
913.2895	1786.1696	10445.8	9544.75
913.4299	1787.8535	10386.35	9494.6
913.5704	1789.5367	10361.85	9468.8
913.7108	1791.2192	10351.9	9461.1
913.8513	1792.9009	10340.75	9418.35
913.9917	1794.5818	10332.4	9433.6
914.132	1796.2621	10268.55	9373.95
914.2724	1797.9415	10247.5	9351.75
914.4128	1799.6202	10227.1	9332.5
914.5531	1801.2982	10205.3	9310.7
914.6934	1802.9755	10185.85	9288.6
914.8337	1804.6519	10167.35	9272.15
914.9739	1806.3277	10157.3	9262.4
915.1142	1808.0027	10102.65	9210.05
915.2544	1809.6769	10092.05	9199.15
915.3946	1811.3504	10042.1	9151.8
915.5348	1813.0231	10055.3	9164.6
915.675	1814.6951	10045.65	9152
915.8151	1816.3664	10026.55	9129
915.9553	1818.0369	10014.3	9120.25
916.0954	1819.7067	9973.35	9079.4
916.2355	1821.3757	9924.9	9028.15
916.3755	1823.044	9939	9043.35
916.5156	1824.7115	9891.9	8995.65
916.6556	1826.3783	9870.2	8977.4
916.7956	1828.0443	9838.3	8943.9
916.9356	1829.7096	9851.15	8954.7
917.0756	1831.3741	9833.55	8935.55
917.2155	1833.0379	9773.8	8880.55
917.3555	1834.701	9747.05	8851.85
917.4954	1836.3633	9714.95	8820.95
917.6353	1838.0248	9721.2	8830.75
917.7751	1839.6856	9698.35	8806.8
917.915	1841.3457	9700.75	8806.1
918.0548	1843.005	9668.45	8774.85
918.1946	1844.6636	9652.05	8758.55
918.3344	1846.3214	9644.4	8751.15
918.4742	1847.9785	9643.55	8749.6
918.6139	1849.6349	9607.95	8714.35
918.7537	1851.2904	9597.9	8693
918.8934	1852.9453	9566.4	8671.75
919.0331	1854.5994	9523.8	8625.8
919.1727	1856.2528	9531.05	8630.3
919.3124	1857.9054	9498.5	8604.8
919.452	1859.5572	9480.6	8587.5
919.5916	1861.2083	9470.1	8577.15
919.7312	1862.8587	9458	8564.95
919.8708	1864.5084	9462.05	8566.1
920.0103	1866.1572	9442.15	8544.45
920.1498	1867.8054	9373.3	8475
920.2893	1869.4528	9369	8472.3
920.4288	1871.0994	9333.75	8438.7
920.5683	1872.7453	9342.1	8445.05
920.7077	1874.3905	9306.35	8405.2
920.8471	1876.0349	9271.45	8377.2
920.9865	1877.6786	9283.25	8386.15
921.1259	1879.3215	9263.9	8369.35
921.2653	1880.9637	9261.45	8365.25
921.4046	1882.6051	9214.1	8322.1
921.5439	1884.2458	9215	8319.7
921.6832	1885.8858	9180.15	8285.5
921.8225	1887.525	9154.25	8260.75
921.9617	1889.1634	9107.25	8211.9
922.101	1890.8011	9092.95	8197.05
922.2402	1892.4381	9067.5	8173
922.3794	1894.0743	9065.35	8170.35
922.5185	1895.7098	9044.4	8151.85
922.6577	1897.3446	9030.9	8138.95
922.7968	1898.9786	8999.6	8099.75
922.9359	1900.6118	8988.55	8095.05
923.075	1902.2443	8930.2	8035.4
923.214	1903.8761	8950.55	8056.85
923.3531	1905.5071	8899.25	8004.4
923.4921	1907.1374	8854.75	7959.5
923.6311	1908.7669	8853.65	7960.55
923.77	1910.3957	8836.05	7943
923.909	1912.0237	8798.45	7905.8
924.0479	1913.651	8783.85	7890.25
924.1868	1915.2776	8766.25	7873.15
924.3257	1916.9034	8717.1	7824.75
924.4646	1918.5285	8699.75	7808.9
924.6034	1920.1528	8650.35	7754.4
924.7422	1921.7764	8653.8	7759.55
924.881	1923.3992	8606.9	7713.95
925.0198	1925.0213	8566	7669.6
925.1586	1926.6427	8532.6	7640.7
925.2973	1928.2633	8582.7	7620.7
925.436	1929.8832	8525.9	7631.1
925.5747	1931.5023	8471.3	7578.7
925.7134	1933.1207	8453.55	7560.4
925.852	1934.7383	8437.9	7545.05
925.9906	1936.3552	8409.45	7515.45
926.1292	1937.9714	8390.7	7498.4
926.2678	1939.5868	8345.35	7448.7
926.4064	1941.2015	8316.45	7422.45
926.5449	1942.8154	8302.75	7406.85
926.6834	1944.4286	8270.5	7376.45
926.8219	1946.041	8265.9	7350.35
926.9604	1947.6528	8206.6	7306.6
927.0988	1949.2637	8180.7	7288.85
927.2372	1950.8739	8144.8	7250.4
927.3756	1952.4834	8134.6	7241.8
927.514	1954.0921	8122.45	7228.8
927.6523	1955.7001	8118	7222.2
927.7907	1957.3074	8077.95	7187.85
927.929	1958.9139	8044.1	7155.15
928.0673	1960.5197	8030.9	7138.05
928.2055	1962.1247	7974.1	7083.05
928.3438	1963.729	7959.15	7069.45
928.482	1965.3325	7953.5	7040.05
928.6202	1966.9353	7896.25	7006.05
928.7584	1968.5374	7869.4	6980
928.8965	1970.1387	7870.55	6980.05
929.0346	1971.7393	7852.8	6961.45
929.1727	1973.3392	7831.8	6939.15
929.3108	1974.9383	7800.85	6910.7
929.4489	1976.5366	7753.35	6863.5
929.5869	1978.1342	7731.35	6841.65
929.7249	1979.7311	7737.05	6845.95
929.8629	1981.3273	7719.7	6829.8
930.0009	1982.9227	7676.35	6784.7
930.1388	1984.5173	7655.4	6767.9
930.2767	1986.1112	7652	6763.05
930.4146	1987.7044	7613.6	6723.5
930.5525	1989.2968	7625.35	6734.35
930.6904	1990.8885	7594.55	6703.2
930.8282	1992.4795	7557.3	6667.25
930.966	1994.0697	7521.95	6635.25
931.1038	1995.6592	7520.4	6631.45
931.2415	1997.2479	7508.85	6621
931.3793	1998.8359	7472.4	6584
931.517	2000.4232	7459.75	6574.45
931.6547	2002.0097	7430.2	6546.75
931.7923	2003.5955	7405.7	6519.9
931.93	2005.1805	7397.9	6509
932.0676	2006.7648	7394.1	6506.7
932.2052	2008.3484	7346.85	6459.85
932.3427	2009.9312	7373.55	6484.2
932.4803	2011.5133	7329.2	6444.9
932.6178	2013.0946	7299.2	6412.7
932.7553	2014.6752	7291.45	6403.35
932.8928	2016.2551	7274.5	6385.75
933.0302	2017.8342	7258.8	6374.3
933.1676	2019.4126	7225.2	6340.45
933.305	2020.9902	7180.55	6295.95
933.4424	2022.5672	7200.15	6315.4
933.5798	2024.1433	7177.65	6286.7
933.7171	2025.7188	7151.8	6267.7
933.8544	2027.2935	7124.05	6238.4
933.9917	2028.8674	7110.5	6226.15
934.129	2030.4406	7095	6209.05
934.2662	2032.0131	7039	6155.55
934.4034	2033.5849	7043.35	6154.35
934.5406	2035.1559	7041.15	6156
934.6778	2036.7261	7009.85	6122.55
934.8149	2038.2957	6991.4	6104.5
934.952	2039.8645	6979.9	6091.75
935.0891	2041.4325	7002.75	6112.95
935.2262	2042.9998	6952.25	6066.2
935.3632	2044.5664	6939.45	6052
935.5002	2046.1323	6927.7	6043.05
935.6372	2047.6974	6911.75	6026.65
935.7742	2049.2617	6882.6	5998
935.9111	2050.8254	6880.65	5989.65
936.048	2052.3883	6863.65	5976.15
936.1849	2053.9504	6850.45	5962.15
936.3218	2055.5118	6814.5	5924.5
936.4586	2057.0725	6776.65	5888.1
936.5955	2058.6325	6769.5	5883.65
936.7323	2060.1917	6751.25	5866.25
936.869	2061.7502	6749.05	5860.65
937.0058	2063.3079	6732.65	5847.35
937.1425	2064.8649	6711.6	5823.3
937.2792	2066.4212	6711.15	5824.4
937.4159	2067.9767	6672.65	5784.45
937.5525	2069.5315	6656.25	5770.1
937.6891	2071.0856	6643.4	5757.1
937.8257	2072.6389	6610.5	5724.65
937.9623	2074.1915	6593.95	5711.7
938.0989	2075.7433	6548.7	5661.65
938.2354	2077.2945	6546.4	5660.05
938.3719	2078.8448	6534.65	5646.05
938.5084	2080.3945	6494.85	5606.5
938.6448	2081.9434	6516.9	5628.75
938.7812	2083.4916	6491.55	5602.55
938.9176	2085.039	6477.15	5583.4
939.054	2086.5857	6462.5	5568.3
939.1903	2088.1317	6448.2	5555.4
939.3267	2089.677	6422.5	5529.65
939.463	2091.2215	6400.7	5509
939.5992	2092.7652	6409.5	5515.35
939.7355	2094.3083	6385.95	5494.85
939.8717	2095.8506	6373.15	5482.6
940.0079	2097.3921	6368.45	5480.5
940.1441	2098.933	6327.05	5438.65
940.2802	2100.4731	6326.15	5437.95
940.4163	2102.0124	6318.1	5419.4
940.5524	2103.5511	6310.2	5420.3
940.6885	2105.089	6300	5410.3
940.8245	2106.6261	6283.8	5394.75
940.9606	2108.1626	6269	5380.15
941.0965	2109.6983	6286.9	5369.5
941.2325	2111.2332	6223.7	5331.2
941.3684	2112.7675	6227.7	5337.85
941.5044	2114.301	6214.05	5322.15
941.6403	2115.8337	6200.85	5312.7
941.7761	2117.3657	6171.6	5281.75
941.912	2118.897	6165	5273.6
942.0478	2120.4276	6154.85	5259.15
942.1835	2121.9575	6136.65	5243.15
942.3193	2123.4866	6139.35	5246.55
942.455	2125.0149	6098.25	5205.65
942.5907	2126.5426	6069.15	5179.4
942.7264	2128.0695	6065.2	5174.55
942.8621	2129.5956	6045.8	5160.4
942.9977	2131.1211	6043.5	5149.9
943.1333	2132.6458	6027.25	5138.55
943.2689	2134.1698	6011.7	5121.55
943.4044	2135.693	5995.4	5100.8
943.54	2137.2155	5998.4	5105.05
943.6755	2138.7373	5988.95	5098.65
943.8109	2140.2584	5957.65	5071.25
943.9464	2141.7787	5937.1	5046
944.0818	2143.2983	5888.9	5005.1
944.2172	2144.8171	5909.1	5024.1
944.3526	2146.3353	5889.1	5000.3
944.4879	2147.8527	5849.1	4964.45
944.6232	2149.3693	5846.25	4954.65
944.7585	2150.8853	5852.3	4962.15
944.8938	2152.4005	5818.15	4927.25
945.029	2153.9149	5808.75	4917.3
945.1642	2155.4287	5899.05	4905.1
945.2994	2156.9417	5789.85	4896.05
945.4346	2158.454	5771.8	4880.75
945.5697	2159.9655	5770.35	4884
945.7048	2161.4764	5753.4	4867.1
945.8399	2162.9865	5736.8	4849.7
945.9749	2164.4958	5711.6	4824.25
946.1099	2166.0045	5711.55	4820.8
946.2449	2167.5124	5695.85	4807.95
946.3799	2169.0195	5691.55	4802.95
946.5148	2170.526	5693.4	4800.7
946.6498	2172.0317	5651.75	4761.9
946.7846	2173.5367	5649.55	4758.95
946.9195	2175.0409	5620.25	4732.6
947.0543	2176.5445	5616.9	4727.55
947.1891	2178.0473	5615.35	4724.7
947.3239	2179.5494	5572.3	4677.15
947.4587	2181.0507	5563.85	4672.9
947.5934	2182.5513	5547.45	4657.75
947.7281	2184.0512	5536.7	4648.65
947.8628	2185.5504	5512.6	4623.7
947.9974	2187.0488	5494.05	4605.25
948.132	2188.5465	5475.2	4587.45
948.2666	2190.0435	5484.65	4595.45
948.4012	2191.5397	5447.25	4557.4
948.5357	2193.0353	5441	4550.4
948.6702	2194.5301	5417.9	4524.15
948.8047	2196.0241	5421.15	4528.6
948.9392	2197.5175	5397	4503.85
949.0736	2199.0101	5369.15	4472.8
949.208	2200.502	5343.6	4453.15
949.3424	2201.9931	5323.5	4436.35
949.4767	2203.4835	5320.9	4431.9
949.611	2204.9733	5331.65	4427.9
949.7453	2206.4622	5291.75	4403.45
949.8796	2207.9505	5260.2	4370.8
950.0138	2209.438	5247.9	4361.35
950.148	2210.9248	5219.2	4330.2
950.2822	2212.4109	5213.5	4323
950.4164	2213.8962	5216.35	4321.85
950.5505	2215.3809	5211.5	4318.1
950.6846	2216.8648	5202.15	4310
950.8186	2218.3479	5181.25	4286.15
950.9527	2219.8304	5149.35	4253.8
951.0867	2221.3121	5159.1	4260.25
951.2207	2222.7931	5129.9	4236.4
951.3546	2224.2733	5110.75	4219.2
951.4886	2225.7529	5093.7	4203.2
951.6225	2227.2317	5074.1	4182.1
951.7563	2228.7098	5063.05	4176.15
951.8902	2230.1872	5052.95	4165.1
952.024	2231.6638	5050.7	4164.55
952.1578	2233.1397	5042.9	4149.75
952.2916	2234.6149	5023.15	4134.9
952.4253	2236.0894	5006.55	4116.85
952.559	2237.5632	4991.25	4101.4
952.6927	2239.0362	4969.15	4081.1
952.8263	2240.5085	4962.5	4072.45
952.9599	2241.9801	4936.55	4044.4
953.0935	2243.4509	4957.4	4067.8
953.2271	2244.921	4917.8	4025.2
953.3606	2246.3904	4908.75	4014.3
953.4941	2247.8591	4898.95	4006.9
953.6276	2249.3271	4877.1	3987.2
953.7611	2250.7943	4848.3	3956.7
953.8945	2252.2608	4849.6	3958.2
954.0279	2253.7266	4827.65	3936.75
954.1612	2255.1917	4818.45	3926.9
954.2946	2256.656	4809.6	3919.65
954.4279	2258.1197	4800.6	3912.9
954.5612	2259.5826	4775.65	3884
954.6944	2261.0447	4771.8	3878.85
954.8276	2262.5062	4772.25	3880
954.9608	2263.9669	4759	3866.9
955.094	2265.4269	4745.15	3854.2
955.2271	2266.8862	4732.05	3841.65
955.3602	2268.3448	4731.85	3841.75
955.4933	2269.8026	4717.65	3829.95
955.6264	2271.2598	4692.65	3802.95
955.7594	2272.7162	4684.7	3794.8
955.8924	2274.1719	4677.7	3787.45
956.0253	2275.6268	4676.2	3783.75
956.1583	2277.0811	4661.85	3769.1
956.2912	2278.5346	4645.95	3756.95
956.4241	2279.9874	4645.15	3757.05
956.5569	2281.4395	4637.2	3747.8
956.6897	2282.8908	4606.1	3713.05
956.8225	2284.3414	4614	3722.9
956.9553	2285.7914	4598.1	3707.45
957.088	2287.2406	4577.45	3685.55
957.2207	2288.689	4564.5	3672.55
957.3534	2290.1368	4566.4	3671.1
957.486	2291.5838	4557.7	3660.4
957.6186	2293.0302	4547.4	3650.75
957.7512	2294.4758	4530.3	3638.45
957.8838	2295.9206	4511.45	3614.5
958.0163	2297.3648	4513.45	3620.8
958.1488	2298.8082	4494.45	3602.55
958.2813	2300.251	4480.25	3590.65
958.4137	2301.693	4465.5	3571.8
958.5461	2303.1343	4466.05	3572.35
958.6785	2304.5748	4452.9	3561.25
958.8108	2306.0147	4424.65	3533.5
958.9432	2307.4538	4419.4	3527.75
959.0754	2308.8922	4412.3	3525.05
959.2077	2310.3299	4391.35	3503.3
959.3399	2311.7669	4389.7	3502.45
959.4721	2313.2031	4383.05	3494.2
959.6043	2314.6387	4380.1	3486.95
959.7365	2316.0735	4359.7	3468.7
959.8686	2317.5076	4357.75	3466.15
960.0006	2318.941	4347.75	3456.05
960.1327	2320.3737	4331.65	3438.75
960.2647	2321.8056	4311.65	3416.5
960.3967	2323.2369	4294.95	3402.05
960.5287	2324.6674	4298.1	3404.55
960.6606	2326.0972	4275.8	3383.7
960.7925	2327.5263	4281.5	3391.35
960.9244	2328.9547	4261.75	3370.65
961.0562	2330.3823	4241.4	3348.7
961.1881	2331.8092	4242.1	3345.65
961.3198	2333.2355	4212.75	3319.15
961.4516	2334.661	4229.8	3335.55
961.5833	2336.0858	4209.75	3315.35
961.715	2337.5098	4209.05	3317.9
961.8467	2338.9332	4197.1	3306.65
961.9783	2340.3558	4179.3	3287.35
962.1099	2341.7778	4164.25	3274.1
962.2415	2343.199	4157.5	3265.8
962.373	2344.6195	4152.9	3264.75
962.5045	2346.0393	4129.6	3239.15
962.636	2347.4583	4137.3	3244.95
962.7675	2348.8767	4124.05	3231.4
962.8989	2350.2943	4129.55	3234.85
963.0303	2351.7113	4114.3	3219.05
963.1617	2353.1275	4084.9	3191.25
963.293	2354.543	4091.95	3175.05
963.4243	2355.9578	4076.55	3181.7
963.5556	2357.3718	4060.55	3169
963.6868	2358.7852	4044.7	3152.5
963.818	2360.1978	4035.5	3144.65
963.9492	2361.6098	4037.8	3147.25
964.0803	2363.021	4015.1	3119.8
964.2114	2364.4315	4006.15	3114.7
964.3425	2365.8413	3983.4	3089.3
964.4736	2367.2504	3990.85	3100.45
964.6046	2368.6587	3968.05	3078.2
964.7356	2370.0664	3947.4	3057
964.8666	2371.4733	3939.7	3046.5
964.9975	2372.8795	3929.95	3037.6
965.1284	2374.285	3916.55	3024.35
965.2593	2375.6899	3904.4	3012.25
965.3901	2377.0939	3894.3	3005.25
965.5209	2378.4973	3882.85	2991.85
965.6517	2379.9	3868.65	2976.3
965.7825	2381.3019	3866.3	2975.05
965.9132	2382.7032	3841.9	2951.75
966.0439	2384.1037	3843.4	2955.75
966.1745	2385.5035	3829.4	2941.55
966.3051	2386.9027	3826.1	2938.15
966.4357	2388.3011	3825.5	2935.1
966.5663	2389.6987	3795.25	2905.65
966.6968	2391.0957	3794.85	2904.25
966.8273	2392.492	3774.4	2884.55
966.9578	2393.8876	3776.95	2887.15
967.0882	2395.2824	3756.6	2867.85
967.2186	2396.6765	3745.7	2856.15
967.349	2398.07	3731.3	2840.7
967.4793	2399.4627	3749.75	2857.3
967.6097	2400.8547	3735.1	2842.2
967.7399	2402.246	3711.35	2814.4
967.8702	2403.6366	3687.55	2797.15
968.0004	2405.0265	3682.7	2792.3
968.1306	2406.4156	3665.55	2771.6
968.2607	2407.8041	3668.2	2774.65
968.3909	2409.1918	3659.15	2767.8
968.521	2410.5789	3648.05	2758.45
968.651	2411.9652	3615.8	2723.95
968.781	2413.3508	3616.05	2722.9
968.911	2414.7358	3602.45	2710.65
969.041	2416.12	3591.2	2701.15
969.1709	2417.5035	3602.7	2710.35
969.3008	2418.8863	3577.3	2684.9
969.4307	2420.2684	3568.15	2677
969.5606	2421.6497	3565.65	2674.9
969.6904	2423.0304	3542.95	2653.15
969.8201	2424.4104	3520.65	2630.4
969.9499	2425.7896	3523.65	2631.25
970.0796	2427.1682	3518.9	2627.05
970.2093	2428.546	3510.55	2618.7
970.3389	2429.9232	3503.05	2611.05
970.4685	2431.2996	3500.95	2608.6
970.5981	2432.6753	3484.55	2593.95
970.7277	2434.0503	3474.95	2583.05
970.8572	2435.4246	3455.8	2564.35
970.9867	2436.7982	3460.6	2568.6
971.1161	2438.1711	3456.85	2564.6
971.2456	2439.5433	3449.6	2558
971.375	2440.9148	3448.65	2552.3
971.5043	2442.2856	3416.4	2523.5
971.6336	2443.6557	3428.75	2537.6
971.7629	2445.025	3396.75	2505.15
971.8922	2446.3937	3400.5	2507.3
972.0214	2447.7617	3386	2494.2
972.1506	2449.1289	3376.6	2485.6
972.2798	2450.4955	3376.45	2483.55
972.4089	2451.8613	3362.55	2472.1
972.538	2453.2265	3355.2	2463.65
972.6671	2454.5909	3347.5	2455.9
972.7961	2455.9546	3336.75	2445.85
972.9251	2457.3177	3330	2438.8
973.0541	2458.68	3331.35	2439.1
973.1831	2460.0416	3322.3	2429.35
973.312	2461.4025	3322.9	2430
973.4408	2462.7627	3328.05	2426.8
973.5697	2464.1222	3306.55	2415.75
973.6985	2465.4811	3287.05	2396.65
973.8273	2466.8392	3268.9	2376.35
973.956	2468.1966	3270.95	2378.7
974.0847	2469.5533	3281.05	2388.05
974.2134	2470.9093	3273	2382.7
974.3421	2472.2645	3261.1	2370.6
974.4707	2473.6191	3257.25	2366.25
974.5993	2474.973	3237.45	2346.5
974.7278	2476.3262	3237.75	2345.85
974.8563	2477.6787	3231.55	2340.15
974.9848	2479.0305	3205	2314.45
975.1132	2480.3816	3204.85	2311
975.2417	2481.7319	3187.45	2298.2
975.37	2483.0816	3196.45	2304.85
975.4984	2484.4306	3165.7	2273.55
975.6267	2485.7789	3175.45	2287.7
975.755	2487.1264	3159.35	2269.7
975.8833	2488.4733	3151	2261.1
976.0115	2489.8195	3153.05	2245.6
976.1397	2491.165	3136.2	2242
976.2678	2492.5097	3129.75	2236.7
976.3959	2493.8538	3123.2	2234.95
976.524	2495.1972	3111.35	2221.95
976.6521	2496.5398	3083.85	2192.75
976.7801	2497.8818	3089.95	2197.1
976.9081	2499.2231	3068.4	2177.45
977.036	2500.5637	3080.4	2187.3
977.164	2501.9035	3069.05	2176.75
977.2918	2503.2427	3060.8	2166.25
977.4197	2504.5812	3049.55	2157.75
977.5475	2505.919	3043.1	2149.25
977.6753	2507.256	3037.3	2146.1
977.8031	2508.5924	3029	2139.1
977.9308	2509.9281	3035.6	2139.4
978.0585	2511.2631	3008.75	2118.1
978.1861	2512.5974	3017.75	2127.75
978.3137	2513.9309	3005	2113.5
978.4413	2515.2638	3010.8	2093.05
978.5689	2516.596	2994.5	2103.1
978.6964	2517.9275	2980.95	2088.3
978.8239	2519.2583	2975.3	2083.75
978.9513	2520.5884	2953	2059.7
979.0788	2521.9178	2957.8	2068.05
979.2062	2523.2465	2936.45	2048.1
979.3335	2524.5745	2943.6	2055.45
979.4608	2525.9018	2931.35	2039.4
979.5881	2527.2284	2919.25	2030.85
979.7154	2528.5543	2922	2031.75
979.8426	2529.8796	2918.1	2026.25
979.9698	2531.2041	2906.45	2015.95
980.0969	2532.5279	2899.95	2010
980.224	2533.851	2893.3	2002.3
980.3511	2535.1735	2902.25	2011.35
980.4781	2536.4952	2883.3	1993.25
980.6052	2537.8163	2883.5	1992
980.7321	2539.1366	2872.6	1981.3
980.8591	2540.4562	2873.85	1980.5
980.986	2541.7752	2873.15	1981.8
981.1129	2543.0935	2867.4	1975.45
981.2397	2544.411	2863.5	1973.1
981.3665	2545.7279	2851.7	1961.2
981.4933	2547.0441	2851.75	1960.25
981.62	2548.3596	2862.3	1967.95
981.7467	2549.6744	2841.95	1950.3
981.8734	2550.9885	2829.7	1935.85
982.0001	2552.3019	2832.2	1941.65
982.1267	2553.6146	2829.25	1939.1
982.2532	2554.9266	2818.45	1926.2
982.3798	2556.2379	2798.4	1904.75
982.5063	2557.5485	2812.5	1921.45
982.6327	2558.8585	2803.8	1906
982.7592	2560.1677	2803.3	1906.9
982.8856	2561.4762	2787.85	1894.35
983.0119	2562.7841	2786.5	1894.4
983.1383	2564.0913	2787	1895.85
983.2646	2565.3977	2773.9	1884.35
983.3908	2566.7035	2767.2	1877.05
983.517	2568.0086	2767.8	1873.9
983.6432	2569.313	2764.55	1873.65
983.7694	2570.6167	2764.3	1869.25
983.8955	2571.9197	2753.85	1862.4
984.0216	2573.222	2754.8	1859.05
984.1476	2574.5236	2738.65	1845.6
984.2737	2575.8246	2736.05	1842.1
984.3996	2577.1248	2740.1	1846.25
984.5256	2578.4244	2733.75	1844.25
984.6515	2579.7232	2723.4	1832.8
984.7774	2581.0214	2745	1823.8
984.9032	2582.3189	2725.75	1834.95
985.029	2583.6157	2712.4	1816.7
985.1548	2584.9118	2703.25	1814
985.2806	2586.2072	2700.55	1811.3
985.4063	2587.5019	2701.7	1810.2
985.5319	2588.7959	2693.05	1802.5
985.6576	2590.0893	2697.5	1805.75
985.7832	2591.3819	2696	1805.25
985.9087	2592.6739	2673.1	1781.3
986.0343	2593.9652	2686.7	1793.85
986.1597	2595.2557	2660.4	1769.4
986.2852	2596.5456	2656.75	1766.55
986.4106	2597.8348	2663	1773.25
986.536	2599.1234	2652.1	1761.35
986.6614	2600.4112	2643.5	1751.95
986.7867	2601.6983	2650.05	1757.9
986.912	2602.9848	2632.25	1742.6
987.0372	2604.2705	2634	1737.05
987.1624	2605.5556	2625.4	1734.4
987.2876	2606.84	2617.9	1725.9
987.4128	2608.1237	2608.15	1715.1
987.5379	2609.4067	2594.7	1703.8
987.6629	2610.689	2605.15	1705.9
987.788	2611.9707	2599.15	1705.95
987.913	2613.2516	2584.5	1690.35
988.0379	2614.5319	2572.95	1683.5
988.1629	2615.8115	2580	1687.2
988.2878	2617.0903	2564.65	1672.85
988.4126	2618.3685	2544.8	1653.9
988.5375	2619.6461	2549.1	1659
988.6622	2620.9229	2546.8	1657.1
988.787	2622.199	2537.3	1646.15
988.9117	2623.4745	2530.6	1637.1
989.0364	2624.7493	2527.7	1637.9
989.161	2626.0234	2517.9	1630
989.2857	2627.2968	2512.75	1624.65
989.4102	2628.5695	2506.8	1615.6
989.5348	2629.8415	2499.75	1611.3
989.6593	2631.1128	2494.9	1603.05
989.7837	2632.3835	2483.85	1594.95
989.9082	2633.6535	2468.2	1578.75
990.0326	2634.9228	2468.5	1579.8
990.1569	2636.1914	2462.85	1573.25
990.2812	2637.4593	2465.75	1574.3
990.4055	2638.7265	2464.6	1575.15
990.5298	2639.9931	2440.5	1551.85
990.654	2641.259	2448.55	1557.95
990.7782	2642.5242	2453.75	1564.1
990.9023	2643.7887	2433.6	1543.45
991.0264	2645.0525	2433	1545.35
991.1505	2646.3156	2428.65	1522.45
991.2745	2647.5781	2420.2	1531.05
991.3985	2648.8398	2413.1	1525.35
991.5225	2650.1009	2421.65	1506.25
991.6464	2651.3613	2403.95	1512.85
991.7703	2652.6211	2396.15	1507.65
991.8942	2653.8801	2403.75	1515.3
992.018	2655.1385	2392.05	1498.45
992.1418	2656.3961	2374.95	1485.8
992.2655	2657.6531	2379.35	1490.25
992.3892	2658.9094	2380.3	1491
992.5129	2660.1651	2372.4	1484.85
992.6366	2661.42	2378.55	1490.95
992.7602	2662.6743	2373.05	1481.3
992.8837	2663.9279	2372.2	1481.95
993.0073	2665.1808	2358.8	1469.55
993.1307	2666.433	2366.5	1474.75
993.2542	2667.6846	2369.85	1480.7
993.3776	2668.9354	2361.65	1470.1
993.501	2670.1856	2346.15	1455.75
993.6244	2671.4351	2354.35	1463.5
993.7477	2672.6839	2347.55	1456.4
993.8709	2673.9321	2335.75	1444.8
993.9942	2675.1795	2341.95	1452.25
994.1174	2676.4263	2334.3	1445.85
994.2405	2677.6724	2328.55	1438.05
994.3637	2678.9179	2334.7	1444.4
994.4868	2680.1626	2322.2	1433.1
994.6098	2681.4067	2324.95	1435.05
994.7328	2682.6501	2330.4	1440.85
994.8558	2683.8928	2323.8	1435.35
994.9788	2685.1348	2301.35	1413.55
995.1017	2686.3761	2302.75	1415
995.2245	2687.6168	2294.05	1405.25
995.3474	2688.8568	2289.35	1400.5
995.4702	2690.0961	2282.3	1394.1
995.5929	2691.3348	2274.55	1386
995.7156	2692.5727	2275.7	1384.25
995.8383	2693.81	2267.1	1379.4
995.961	2695.0466	2262.5	1375.3
996.0836	2696.2826	2270.5	1379.9
996.2062	2697.5178	2252.1	1360.8
996.3287	2698.7524	2244.4	1353
996.4512	2699.9863	2247.15	1355.7
996.5737	2701.2195	2245.65	1356.9
996.6961	2702.452	2245.1	1354.85
996.8185	2703.6839	2244.65	1355
996.9408	2704.9151	2241.55	1352.9
997.0631	2706.1456	2233.3	1344.8
997.1854	2707.3755	2227.65	1338.05
997.3077	2708.6046	2237.9	1346.05
997.4299	2709.8331	2235.65	1348.35
997.552	2711.0609	2230.7	1341.1
997.6742	2712.2881	2229.25	1339.4
997.7963	2713.5145	2236.75	1345.5
997.9183	2714.7403	2231.4	1342.8
998.0403	2715.9654	2234.75	1343.35
998.1623	2717.1899	2247.15	1343.95
998.2842	2718.4136	2249.85	1361
998.4062	2719.6367	2249.5	1359.4
998.528	2720.8591	2244.55	1348.3
998.6498	2722.0809	2238.5	1351.1
998.7716	2723.3019	2254.3	1362.1
998.8934	2724.5223	2237	1346.65
999.0151	2725.7421	2234.9	1345.35
999.1368	2726.9611	2248.95	1358.4
999.2584	2728.1795	2250.45	1355.55
999.38	2729.3972	2229.25	1339.15
999.5016	2730.6142	2213.75	1322.6
999.6231	2731.8306	2199	1311.85
999.7446	2733.0462	2188.2	1298.6
999.8661	2734.2612	2186.4	1292.9
999.9875	2735.4756	2175.95	1284.4
1000.1089	2736.6892	2161	1272.15
1000.2302	2737.9022	2149.15	1261
1000.3515	2739.1145	2128.15	1238.05
1000.4728	2740.3262	2135.65	1238.65
1000.594	2741.5372	2107.4	1218.9
1000.7152	2742.7475	2099.35	1211.4
1000.8363	2743.9571	2096.7	1206.4
1000.9575	2745.1661	2084.5	1189.75
1001.0785	2746.3744	2075.95	1187.25
1001.1996	2747.582	2074.15	1186.6
1001.3206	2748.7889	2071.8	1181
1001.4415	2749.9952	2065.5	1178
1001.5625	2751.2008	2047.8	1160.3
1001.6833	2752.4057	2042.55	1150.75
1001.8042	2753.61	2042.8	1152.35
1001.925	2754.8136	2029.8	1139.45
1002.0458	2756.0165	2023.05	1133.75
1002.1665	2757.2188	2022.3	1134.95
1002.2872	2758.4204	2012	1124
1002.4078	2759.6213	2008.15	1120.65
1002.5285	2760.8215	2023.35	1131.5
1002.649	2762.0211	2013.05	1124.1
1002.7696	2763.22	2013.65	1120.85
1002.8901	2764.4182	2007.15	1116.2
1003.0106	2765.6158	1999.7	1111.05
1003.131	2766.8127	1995.65	1106.3
1003.2514	2768.009	1987.05	1100.15
1003.3717	2769.2045	1978.65	1089.9
1003.492	2770.3994	1980.95	1092.15
1003.6123	2771.5936	1970.05	1082.4
1003.7325	2772.7872	1963.6	1072.4
1003.8527	2773.9801	1952.1	1064.25
1003.9729	2775.1723	1967.4	1062.55
1004.093	2776.3639	1948.7	1061.5
1004.2131	2777.5548	1950.55	1062.2
1004.3331	2778.745	1944.15	1052.2
1004.4531	2779.9346	1933.45	1045.8
1004.5731	2781.1235	1936.75	1049.45
1004.693	2782.3117	1943.9	1057.3
1004.8129	2783.4992	1938.25	1052.65
1004.9328	2784.6861	1939.75	1050.95
1005.0526	2785.8723	1936.15	1045.35
1005.1723	2787.0579	1933.1	1044.6
1005.2921	2788.2428	1936.1	1046.9
1005.4118	2789.427	1937.6	1051.85
1005.5314	2790.6106	1939.35	1051.85
1005.651	2791.7935	1926.6	1038.45
1005.7706	2792.9757	1926.25	1039.25
1005.8902	2794.1573	1937.2	1047.2
1006.0097	2795.3382	1933.45	1046.25
1006.1291	2796.5184	1935.7	1047.55
1006.2485	2797.698	1944.5	1054.8
1006.3679	2798.8769	1938.65	1053.25
1006.4873	2800.0551	1937.25	1049.15
1006.6066	2801.2327	1953.3	1062.7
1006.7258	2802.4096	1959.75	1072.5
1006.8451	2803.5859	1961.25	1074.8
1006.9642	2804.7615	1965.1	1077.4
1007.0834	2805.9364	1966.4	1082.4
1007.2025	2807.1106	1977.45	1092.15
1007.3216	2808.2842	1984.85	1097.75
1007.4406	2809.4572	2003.25	1117.15
1007.5596	2810.6294	2026.45	1139.75
1007.6785	2811.801	2035.1	1150.2
1007.7975	2812.972	2049.2	1161.8
1007.9163	2814.1423	2071.9	1185.15
1008.0352	2815.3119	2107.5	1219.2
1008.154	2816.4808	2121	1236.1
1008.2727	2817.6491	2145.05	1255.1
1008.3914	2818.8167	2178.85	1292.6
1008.5101	2819.9837	2218.5	1326.4
1008.6288	2821.15	2229.35	1342.55
1008.7474	2822.3157	2271.65	1385.85
1008.8659	2823.4807	2293	1405.2
1008.9844	2824.645	2343.75	1458.15
1009.1029	2825.8086	2357.25	1472
1009.2214	2826.9716	2390.7	1504.5
1009.3398	2828.134	2413.25	1527.35
1009.4581	2829.2957	2453.65	1564.6
1009.5764	2830.4567	2474.4	1586.75
1009.6947	2831.617	2461.3	1573.6
1009.813	2832.7767	2484.75	1599.3
1009.9312	2833.9358	2478.65	1594.3
1010.0493	2835.0941	2484.85	1596.4
1010.1675	2836.2519	2478.9	1592.3
1010.2855	2837.4089	2453	1564
1010.4036	2838.5653	2438.3	1551.35
1010.5216	2839.7211	2424.8	1539.45
1010.6396	2840.8761	2427.15	1539.1
1010.7575	2842.0306	2434.3	1547.85
1010.8754	2843.1843	2442	1555
1010.9932	2844.3374	2453.5	1566.95
1011.111	2845.4899	2487.45	1601.9
1011.2288	2846.6417	2512.4	1626.5
1011.3465	2847.7928	2538.15	1653.35
1011.4642	2848.9433	2576.3	1691.55
1011.5818	2850.0931	2608.85	1723.35
1011.6995	2851.2422	2630.45	1743
1011.817	2852.3907	2671.9	1785.65
1011.9345	2853.5385	2702.2	1814.15
1012.052	2854.6857	2732.15	1837.05
1012.1695	2855.8323	2754.3	1869.4
1012.2869	2856.9781	2774.3	1888
1012.4042	2858.1233	2814.9	1929.65
1012.5216	2859.2679	2832.5	1946.6
1012.6389	2860.4118	2874	1988.7
1012.7561	2861.555	2892.3	2000.2
1012.8733	2862.6976	2911.8	2022.9
1012.9905	2863.8395	2927.55	2042.1
1013.1076	2864.9808	2947.85	2059.7
1013.2247	2866.1214	2962.75	2077.95
1013.3417	2867.2614	2974	2086.55
1013.4587	2868.4007	2977.15	2089
1013.5757	2869.5393	2982.35	2093.8
1013.6926	2870.6773	2987.3	2099.2
1013.8095	2871.8146	2998.05	2107.9
1013.9263	2872.9513	2997.25	2106.9
1014.0431	2874.0874	2976.15	2091.35
1014.1599	2875.2227	2959.55	2072.5
1014.2766	2876.3574	2955.45	2070.85
1014.3933	2877.4915	2933.2	2048.85
1014.51	2878.6249	2916.35	2031.6
1014.6266	2879.7577	2897.75	2011.45
1014.7431	2880.8898	2904.45	2007.45
1014.8596	2882.0212	2864.95	1979.1
1014.9761	2883.152	2867.1	1981.4
1015.0925	2884.2821	2861.5	1976.7
1015.2089	2885.4116	2845.55	1962.15
1015.3253	2886.5405	2851.6	1965.45
1015.4416	2887.6686	2863.8	1974.8
1015.5579	2888.7962	2853.6	1967.45
1015.6741	2889.923	2859.1	1973.6
1015.7903	2891.0493	2861.25	1977.3
1015.9065	2892.1748	2852.8	1966.9
1016.0226	2893.2997	2860.8	1975.7
1016.1387	2894.424	2880.45	1995.35
1016.2547	2895.5476	2877.6	1991
1016.3707	2896.6706	2891.15	2008.1
1016.4866	2897.7929	2899.8	2011.5
1016.6025	2898.9145	2909.2	2022.2
1016.7184	2900.0355	2931.45	2044
1016.8342	2901.1559	2948	2063.25
1016.95	2902.2756	2960.35	2073.9
1017.0658	2903.3946	2965.85	2080
1017.1815	2904.513	2981.5	2093.4
1017.2971	2905.6308	2988.95	2104.05
1017.4127	2906.7479	3008.9	2119.65
1017.5283	2907.8643	3020	2134.55
1017.6439	2908.9801	3001.2	2114.45
1017.7594	2910.0953	3017.65	2133.45
1017.8748	2911.2098	3014.7	2128.55
1017.9902	2912.3236	3009.25	2115.5
1018.1056	2913.4368	3013.35	2124.2
1018.2209	2914.5494	2985	2100.8
1018.3362	2915.6613	2981.8	2093.85
1018.4515	2916.7725	2961.55	2073.85
1018.5667	2917.8831	2949.9	2061.8
1018.6819	2918.9931	2926.15	2038.55
1018.797	2920.1024	2897.3	2010.25
1018.9121	2921.211	2876.55	1992.55
1019.0271	2922.319	2863.95	1979.45
1019.1421	2923.4264	2854.05	1969.4
1019.2571	2924.5331	2848.7	1963
1019.372	2925.6391	2839.8	1955.8
1019.4869	2926.7445	2842.75	1956.45
1019.6017	2927.8493	2831.95	1945.8
1019.7165	2928.9534	2855.1	1970.95
1019.8313	2930.0569	2845.85	1959.5
1019.946	2931.1597	2843.3	1955.1
1020.0606	2932.2619	2831.2	1944.6
1020.1753	2933.3634	2846.25	1961.15
1020.2899	2934.4643	2853.5	1959.95
1020.4044	2935.5645	2837.95	1945.65
1020.5189	2936.6641	2820.85	1931.45
1020.6334	2937.763	2800.2	1916.9
1020.7478	2938.8613	2786.5	1900.25
1020.8622	2939.959	2746.7	1857.75
1020.9765	2941.056	2712	1827.55
1021.0908	2942.1523	2676.35	1790.5
1021.2051	2943.248	2624.15	1737.85
1021.3193	2944.3431	2574.65	1691.2
1021.4334	2945.4375	2510.75	1625
1021.5476	2946.5313	2456.5	1574.25
1021.6617	2947.6244	2404.25	1520.35
1021.7757	2948.7169	2334.95	1451.15
1021.8897	2949.8087	2284.6	1400.55
1022.0037	2950.8999	2229.8	1345.7
1022.1176	2951.9904	2170.05	1285.6
1022.2315	2953.0803	2138.05	1251.8
1022.3453	2954.1696	2096.85	1211.4
1022.4591	2955.2582	2073.65	1187.75
1022.5728	2956.3462	2051.3	1166.9
1022.6865	2957.4335	2012.4	1125.05
1022.8002	2958.5202	1991.05	1102.1
1022.9138	2959.6062	1979.5	1095.8
1023.0274	2960.6916	1962	1077.45
1023.141	2961.7764	1946.05	1060.85
1023.2545	2962.8605	1934.75	1047
1023.3679	2963.9439	1922.75	1037.7
1023.4813	2965.0267	1917.95	1031.35
1023.5947	2966.1089	1930.1	1023.3
1023.708	2967.1905	1910.75	1026.9
1023.8213	2968.2714	1893.25	1008.8
1023.9346	2969.3516	1905.3	1017.9
1024.0478	2970.4312	1903.05	1010.2
1024.1609	2971.5102	1897.65	1011.95
1024.274	2972.5885	1903.75	1019
1024.3871	2973.6662	1911.85	1020.75
1024.5002	2974.7432	1903.25	1018.8
1024.6132	2975.8196	1895.35	1011.2
1024.7261	2976.8954	1888.5	1002.95
1024.839	2977.9705	1881.25	994.35
1024.9519	2979.045	1879.55	994.8
1025.0647	2980.1188	1861.65	978.35
1025.1775	2981.192	1861.4	978.25
1025.2902	2982.2645	1842.35	957.1
1025.4029	2983.3364	1826.55	940.65
1025.5156	2984.4077	1801.05	917.1
1025.6282	2985.4783	1795.35	905.15
1025.7407	2986.5483	1773.7	888.15
1025.8532	2987.6177	1755.05	869.7
1025.9657	2988.6864	1740.5	857.5
1026.0782	2989.7545	1720.6	835.3
1026.1906	2990.8219	1692	807.5
1026.3029	2991.8887	1668.1	781.75
1026.4152	2992.9548	1654.05	769.1
1026.5275	2994.0204	1630.85	746.45
1026.6397	2995.0852	1617.35	735.1
1026.7519	2996.1495	1602	714.85
1026.864	2997.2131	1578.65	694.4
1026.9761	2998.276	1561.65	677.5
1027.0882	2999.3383	1550.3	664.5
1027.2002	3000.4	1542.65	656
1027.3122	3001.4611	1528.05	643.8
1027.4241	3002.5215	1512.75	626.75
1027.536	3003.5812	1503.2	618.15
1027.6478	3004.6404	1491.55	608.25
1027.7596	3005.6989	1483.3	595.05
1027.8714	3006.7567	1481.3	597
1027.9831	3007.8139	1488.75	582.6
1028.0947	3008.8705	1463.7	579.65
1028.2064	3009.9264	1475.4	573.05
1028.3179	3010.9818	1458.7	573.15
1028.4295	3012.0364	1449.8	565.15
1028.541	3013.0905	1439.9	556.15
1028.6524	3014.1439	1450.55	565.6
1028.7638	3015.1966	1429.15	546.85
1028.8752	3016.2487	1424.15	540.55
1028.9865	3017.3002	1429	538.45
1029.0978	3018.3511	1416.7	534.05
1029.209	3019.4013	1422.45	536.95
1029.3202	3020.4509	1413.65	529.7
1029.4314	3021.4998	1415.6	532.05
1029.5425	3022.5481	1415.45	529.55
1029.6535	3023.5958	1409.95	526.8
1029.7645	3024.6428	1408.9	524.75
1029.8755	3025.6892	1396.3	514.1
1029.9864	3026.735	1406	521.05
1030.0973	3027.7802	1406	519.55
1030.2082	3028.8247	1397.25	512.3
1030.319	3029.8685	1397.2	513.15
1030.4297	3030.9118	1400.75	513.5
1030.5404	3031.9544	1400.95	518.05
1030.6511	3032.9963	1401.05	517.3
1030.7617	3034.0376	1396.85	514.05
1030.8723	3035.0783	1405.7	518.95
1030.9829	3036.1184	1401.15	514.6
1031.0934	3037.1578	1394.7	512.6
1031.2038	3038.1966	1400.15	513.95
1031.3142	3039.2348	1398.05	514.2
1031.4246	3040.2723	1406.8	514.55
1031.5349	3041.3092	1397.6	515.35
1031.6452	3042.3455	1397.8	514.15
1031.7554	3043.3811	1392.2	507.35
1031.8656	3044.4161	1390.05	504.3
1031.9758	3045.4505	1390.65	507.9
1032.0859	3046.4842	1383	494.9
1032.1959	3047.5173	1381	500.6
1032.3059	3048.5498	1377.7	492.15
1032.4159	3049.5816	1374.8	490.9
1032.5258	3050.6128	1371.05	484.25
1032.6357	3051.6434	1368.3	483.65
1032.7455	3052.6734	1372.1	486.4
1032.8553	3053.7027	1363.9	479.3
1032.9651	3054.7314	1359.05	475.55
1033.0748	3055.7594	1361	478.15
1033.1845	3056.7868	1359.5	471.9
1033.2941	3057.8136	1357.5	472.85
1033.4037	3058.8398	1347.9	465.85
1033.5132	3059.8653	1347.25	463.7
1033.6227	3060.8902	1339.85	456.8
1033.7321	3061.9145	1343.8	458.35
1033.8415	3062.9381	1342.35	458.6
1033.9509	3063.9612	1353.1	454.15
1034.0602	3064.9835	1341.05	456.85
1034.1694	3066.0053	1339	453.95
1034.2787	3067.0264	1330.1	446.95
1034.3878	3068.0469	1330.1	442.95
1034.497	3069.0668	1331.05	445.25
1034.6061	3070.086	1314.45	429.1
1034.7151	3071.1046	1318	431.5
1034.8241	3072.1226	1308.3	424.7
1034.9331	3073.1399	1307.65	423.35
1035.042	3074.1567	1305.65	421.9
1035.1508	3075.1727	1300.9	415.25
1035.2597	3076.1882	1292.25	408.65
1035.3684	3077.203	1291.1	406.3
1035.4772	3078.2173	1282.05	396.4
1035.5859	3079.2308	1281.2	395.1
1035.6945	3080.2438	1276.45	389.15
1035.8031	3081.2561	1270.3	386.2
1035.9117	3082.2678	1261.75	377.15
1036.0202	3083.2789	1259.9	377.2
1036.1286	3084.2893	1256.55	373.15
1036.2371	3085.2991	1249.4	365.4
1036.3454	3086.3083	1249.7	361.8
1036.4538	3087.3169	1247.25	360.7
1036.562	3088.3248	1243.8	357.65
1036.6703	3089.3321	1230.45	344.85
1036.7785	3090.3388	1233	351.3
1036.8866	3091.3449	1224.75	342
1036.9948	3092.3503	1232.95	347.05
1037.1028	3093.3551	1223.9	343.15
1037.2108	3094.3593	1217.2	336.95
1037.3188	3095.3629	1218.75	334.9
1037.4267	3096.3658	1216.15	330.45
1037.5346	3097.3681	1205.6	320.7
1037.6425	3098.3698	1212.95	327.6
1037.7503	3099.3708	1210.2	320.35
1037.858	3100.3713	1207	322.7
1037.9657	3101.3711	1202.6	318.95
1038.0734	3102.3702	1339.1	316.95
1038.181	3103.3688	1204.55	317.35
1038.2886	3104.3667	1190.2	306.9
1038.3961	3105.364	1193.8	310.15
1038.5036	3106.3607	1193.7	309.3
1038.611	3107.3568	1188.8	305.05
1038.7184	3108.3522	1186.35	302.4
1038.8257	3109.347	1182.35	297.65
1038.933	3110.3412	1185.05	297.75
1039.0403	3111.3348	1184.8	300.1
1039.1475	3112.3277	1175.15	291.6
1039.2547	3113.32	1173.95	289.7
1039.3618	3114.3117	1175	291.05
1039.4689	3115.3028	1170.15	286.3
1039.5759	3116.2932	1169.8	284.6
1039.6829	3117.2831	1175.8	287.75
1039.7898	3118.2723	1159.3	274.55
1039.8967	3119.2608	1160.75	279
1040.0035	3120.2488	1158.75	273.8
1040.1103	3121.2361	1154.65	269.7
1040.2171	3122.2229	1158.9	275.65
1040.3238	3123.209	1157.05	272.65
1040.4305	3124.1944	1148.15	264
1040.5371	3125.1793	1152.5	266.85
1040.6437	3126.1635	1154.6	272.3
1040.7502	3127.1471	1149.75	267.1
1040.8567	3128.1301	1143.6	261.35
1040.9631	3129.1125	1146.85	264.3
1041.0695	3130.0942	1143	260.1
1041.1759	3131.0753	1149.75	257.75
1041.2822	3132.0558	1141.05	254.9
1041.3884	3133.0357	1140.5	255.95
1041.4946	3134.015	1136.6	252.2
1041.6008	3134.9936	1135.8	249.95
1041.7069	3135.9716	1154.35	250.8
1041.813	3136.949	1131.15	249.05
1041.919	3137.9258	1152.65	251.75
1042.025	3138.902	1137.9	249.65
1042.1309	3139.8775	1127.95	245.6
1042.2368	3140.8524	1129.6	246.05
1042.3427	3141.8267	1128.5	244.2
1042.4485	3142.8004	1125.4	239.25
1042.5542	3143.7735	1131.4	242.15
1042.6599	3144.7459	1123.45	239.65
1042.7656	3145.7178	1119.65	234.15
1042.8712	3146.689	1117.2	236.8
1042.9768	3147.6596	1117.35	233.85
1043.0823	3148.6295	1121	238.1
1043.1878	3149.5989	1119.3	236.6
1043.2932	3150.5676	1115.6	233.85
1043.3986	3151.5357	1110.65	230.55
1043.5039	3152.5032	1114.55	231.5
1043.6092	3153.4701	1111.15	228.9
1043.7145	3154.4364	1109.8	222.25
1043.8197	3155.402	1111.9	228.55
1043.9248	3156.367	1111.05	226.05
1044.03	3157.3315	1130.85	221.2
1044.135	3158.2952	1106.25	225.55
1044.24	3159.2584	1097.25	214.8
1044.345	3160.221	1100.25	214.55
1044.4499	3161.1829	1100.6	217.65
1044.5548	3162.1442	1097.5	213.95
1044.6596	3163.105	1097.55	212.4
1044.7644	3164.065	1096.5	212.85
1044.8692	3165.0245	1098	211.65
1044.9739	3165.9834	1093.25	211.45
1045.0785	3166.9416	1089.65	206.8
1045.1831	3167.8993	1091.6	206.65
1045.2877	3168.8563	1092.95	208.8
1045.3922	3169.8127	1089.5	207.2
1045.4966	3170.7684	1085.7	203.3
1045.6011	3171.7236	1088.9	203.75
1045.7054	3172.6782	1084.55	202.25
1045.8098	3173.6321	1085.8	200.25
1045.914	3174.5854	1085.4	197.85
1046.0183	3175.5381	1084.65	200.5
1046.1224	3176.4902	1077.95	195.8
1046.2266	3177.4417	1080.55	198.5
1046.3307	3178.3926	1079.35	195.4
1046.4347	3179.3428	1077.65	195.25
1046.5387	3180.2924	1078.4	196.9
1046.6427	3181.2415	1078.8	195.2
1046.7466	3182.1899	1075.65	189.25
1046.8504	3183.1377	1074.6	190.8
1046.9542	3184.0848	1074.3	190.1
1047.058	3185.0314	1070.8	189.2
1047.1617	3185.9773	1070.9	188.45
1047.2654	3186.9227	1070.3	185.2
1047.369	3187.8674	1070.15	185.3
1047.4726	3188.8115	1067.3	181
1047.5761	3189.755	1070.2	186.95
1047.6796	3190.6979	1065.8	182.5
1047.783	3191.6402	1064.75	182.1
1047.8864	3192.5818	1060	179.25
1047.9898	3193.5229	1068.2	178.05
1048.0931	3194.4633	1063.5	181.5
1048.1963	3195.4031	1062.65	180.6
1048.2995	3196.3423	1054.85	170.75
1048.4027	3197.2809	1055.45	173.9
1048.5058	3198.2189	1056.5	172.85
1048.6089	3199.1563	1061.3	171.6
1048.7119	3200.0931	1052.65	170.45
1048.8148	3201.0292	1051.65	169
1048.9178	3201.9648	1052.6	170.95
1049.0206	3202.8997	1054.3	167.2
1049.1235	3203.834	1051.3	167.1
1049.2262	3204.7677	1049.85	167.45
1049.329	3205.7008	1053.1	166.5
1049.4317	3206.6333	1048.5	167.65
1049.5343	3207.5652	1050.65	168.1
1049.6369	3208.4964	1046.85	163.1
1049.7394	3209.4271	1045.45	165.4
1049.8419	3210.3571	1044.9	160.75
1049.9444	3211.2865	1047.25	164.45
1050.0468	3212.2154	1043.7	160.25
1050.1491	3213.1436	1049.15	163.3
1050.2514	3214.0712	1050.6	161.55
1050.3537	3214.9982	1039.7	154.9
1050.4559	3215.9246	1035.1	153.75
1050.5581	3216.8503	1036.95	157.2
1050.6602	3217.7755	1044.3	161.45
1050.7623	3218.7001	1042.5	160.95
1050.8643	3219.624	1040.35	156.15
1050.9663	3220.5473	1038.1	156.35
1051.0682	3221.4701	1039.75	154.25
1051.1701	3222.3922	1040.5	156.95
1051.2719	3223.3137	1032.7	149.45
1051.3737	3224.2346	1034.8	150.7
1051.4754	3225.1549	1035.15	153.05
1051.5771	3226.0746	1031.8	149.5
1051.6788	3226.9937	1030.95	148
1051.7804	3227.9121	1027.65	147.3
1051.8819	3228.83	1027.05	145.05
1051.9834	3229.7473	1027.75	143.15
1052.0849	3230.6639	1026.85	145.35
1052.1863	3231.5799	1030.7	147.95
1052.2876	3232.4954	1027.45	144.65
1052.3889	3233.4102	1025.5	142.55
1052.4902	3234.3244	1026.4	142.25
1052.5914	3235.238	1022.55	140.4
1052.6926	3236.151	1048.7	141.05
1052.7937	3237.0634	1020.35	137.05
1052.8948	3237.9752	1018.9	136
1052.9958	3238.8864	1021.3	138.15
1053.0968	3239.797	1020.65	138.5
1053.1977	3240.7069	1018.1	132.75
1053.2986	3241.6163	1017.8	133.6
1053.3994	3242.5251	1017.75	135.1
1053.5002	3243.4332	1015.05	134.25
1053.6009	3244.3408	1016.8	135.05
1053.7016	3245.2477	1012.2	129
1053.8022	3246.154	1018.15	133.2
1053.9028	3247.0598	1010.35	127.45
1054.0034	3247.9649	1010.9	128.05
1054.1039	3248.8694	1014.55	133
1054.2043	3249.7733	1010.35	127.05
1054.3047	3250.6766	1010.1	127.85
1054.4051	3251.5793	1007.95	124.05
1054.5054	3252.4814	1005.95	123.45
1054.6056	3253.3829	1007.05	125.35
1054.7058	3254.2838	1009.7	126
1054.806	3255.1841	1005.9	122
1054.9061	3256.0838	1002.6	119.25
1055.0061	3256.9829	997.45	114.45
1055.1062	3257.8814	1003.8	120.4
1055.2061	3258.7792	1005.1	121.1
1055.306	3259.6765	999.7	116.9
1055.4059	3260.5731	993.65	110.75
1055.5057	3261.4692	995.45	111.8
1055.6055	3262.3647	995.1	111.85
1055.7052	3263.2595	993.5	110.75
1055.8049	3264.1538	993.65	110.8
1055.9045	3265.0474	993.4	110.4
1056.0041	3265.9404	986.3	104.85
1056.1036	3266.8329	986.9	107.05
1056.2031	3267.7247	994.65	102.2
1056.3025	3268.616	982.9	102.55
1056.4019	3269.5066	980.2	97.9
1056.5013	3270.3966	977.45	92.65
1056.6005	3271.286	973.6	91.2
