Software Version:	3.9.2.0
Unit SN:	10000200
Spectrometer SN:	6960
Date:	3/26/2024 12:57:21 PM
Data Line Index:	25
Spectral Points:	2048
Integration time (ms):	125
Averages:	20
Delay (ms):	30000
Sequence Number:	1
Processing:	dark subtract
Laser Power (mW):	300
Laser Current (mA):	816
Laser Diode Temp (C):	25
Laser Case Temp (C):	25.3
System Temp (C):	25.2
Spectrometer Temp (C):	23.1
CCD Temp (C):	0.007
Secondary Temp (C):	20.01
Heatsink Temp (C):	21.334
CCDPCB Temp (C):	35.929
SecondaryPCB Temp (C):	28.537

Wavelength	RamanShift	Raw Counts	Dark Subtracted
787.061	30.1047	425.7	14.3
787.2016	32.3739	425.5	15.9
787.3422	34.6426	427.3	14.1
787.4828	36.9109	429.3	14.85
787.6235	39.1787	435.6	19.3
787.7642	41.4461	440.05	16.65
787.9049	43.7131	443.05	16.95
788.0456	45.9796	450.05	22.25
788.1863	48.2456	452.4	19.55
788.3271	50.5112	460.6	24.5
788.4679	52.7764	464.5	24.75
788.6087	55.0411	467.45	24.85
788.7496	57.3054	474.9	28.7
788.8904	59.5692	477	28.75
789.0313	61.8326	484.45	32.4
789.1722	64.0955	490.15	35.1
789.3132	66.3579	498.25	37.65
789.4541	68.6199	504.75	41.1
789.5951	70.8815	518.55	52.4
789.7361	73.1426	541.8	73.3
789.8771	75.4032	595.65	122.5
790.0181	77.6634	714.1	235.5
790.1592	79.9231	999.4	516.45
790.3003	82.1824	1590.45	1104.8
790.4414	84.4412	2597.8	2105.7
790.5825	86.6995	3937.35	3438.35
790.7237	88.9574	5270.9	4768.3
790.8648	91.2148	6216.9	5711.7
791.006	93.4717	6739.8	6229.7
791.1472	95.7282	6927.35	6412.8
791.2885	97.9842	6990.25	6473.45
791.4297	100.2398	6957.55	6438.9
791.571	102.4949	6941.15	6421.15
791.7123	104.7495	6915.6	6389.35
791.8536	107.0036	6874.3	6346.75
791.9949	109.2573	6829.2	6302.85
792.1363	111.5105	6797.8	6269.9
792.2777	113.7632	6730.3	6200.05
792.4191	116.0154	6645.7	6105.9
792.5605	118.2672	6580.35	6048.2
792.7019	120.5185	6491.9	5956
792.8434	122.7693	6414.65	5879.1
792.9849	125.0197	6359.35	5817.75
793.1264	127.2696	6279.75	5737.15
793.2679	129.519	6231.95	5685.45
793.4094	131.7679	6208.2	5659.2
793.551	134.0163	6191.25	5637.55
793.6926	136.2642	6188.75	5631
793.8342	138.5117	6190.25	5630.35
793.9758	140.7587	6165.7	5605.9
794.1175	143.0052	6155.6	5590.65
794.2591	145.2512	6107.35	5541.55
794.4008	147.4967	6051.6	5487.6
794.5425	149.7417	6001.35	5433.25
794.6842	151.9863	5952.8	5383.9
794.826	154.2304	5945.9	5369.55
794.9677	156.4739	5913.05	5334.7
795.1095	158.717	5926.3	5346
795.2513	160.9596	5942.45	5356.55
795.3931	163.2017	5960.85	5373.9
795.535	165.4433	5969.25	5381.05
795.6768	167.6844	5975.85	5384.45
795.8187	169.925	5949.4	5357.1
795.9606	172.1651	5877.65	5279.2
796.1025	174.4047	5835.8	5235.25
796.2445	176.6439	5790.5	5187.8
796.3864	178.8825	5780.7	5175.5
796.5284	181.1206	5743.15	5134.8
796.6704	183.3582	5738.8	5126.4
796.8124	185.5954	5725.65	5111.8
796.9544	187.832	5719.8	5100.4
797.0965	190.0681	5721.95	5101.75
797.2386	192.3037	5735.2	5111.35
797.3806	194.5388	5733.35	5107.95
797.5228	196.7734	5745.65	5115.95
797.6649	199.0075	5748.75	5116.05
797.807	201.2411	5783.5	5149.6
797.9492	203.4742	5803.75	5165.9
798.0914	205.7068	5820.55	5184.15
798.2336	207.9389	5831.75	5197
798.3758	210.1704	5875.95	5235.65
798.518	212.4015	5856.6	5214.4
798.6603	214.632	5869.45	5227.25
798.8025	216.862	5872.05	5237.55
798.9448	219.0915	5848.75	5221.25
799.0871	221.3205	5863.4	5236.8
799.2294	223.549	5872.1	5249
799.3718	225.777	5860.05	5238.25
799.5141	228.0044	5867.95	5238
799.6565	230.2314	5863.25	5239.2
799.7989	232.4578	5834.5	5209.25
799.9413	234.6837	5836.45	5201.65
800.0837	236.909	5816.35	5181.45
800.2262	239.1339	5815.15	5154.3
800.3687	241.3582	5812.45	5169.15
800.5111	243.582	5820.45	5142.1
800.6536	245.8053	5816.25	5152
800.7961	248.0281	5807.55	5147.75
800.9387	250.2503	5831.8	5167.95
801.0812	252.472	5836.65	5168.1
801.2238	254.6932	5829	5158.6
801.3664	256.9139	5816.25	5142.05
801.509	259.134	5839.1	5163.05
801.6516	261.3536	5846.8	5172.4
801.7942	263.5727	5882.85	5206.35
801.9369	265.7912	5894.7	5219.5
802.0795	268.0092	5936.95	5259
802.2222	270.2267	5985.4	5307.6
802.3649	272.4436	6037.2	5355.5
802.5076	274.6601	6048.8	5358.55
802.6504	276.8759	6069.35	5386.45
802.7931	279.0913	6081.7	5396.05
802.9359	281.3061	6090.45	5401.95
803.0787	283.5204	6121.7	5433.35
803.2215	285.7341	6147.9	5454.55
803.3643	287.9473	6182.25	5477
803.5071	290.16	6182.15	5483.5
803.6499	292.3721	6130.9	5436.1
803.7928	294.5837	6090.5	5396.5
803.9357	296.7947	6055.75	5359.2
804.0786	299.0052	6034.5	5337.8
804.2215	301.2152	5995.15	5296.4
804.3644	303.4246	5994.5	5297.3
804.5074	305.6334	5962.65	5267.7
804.6503	307.8418	5967.3	5266.65
804.7933	310.0495	5950.7	5250.45
804.9363	312.2568	5923.45	5222.4
805.0793	314.4635	5869.15	5166.75
805.2223	316.6696	5843.4	5137.8
805.3653	318.8752	5786.25	5072.8
805.5084	321.0802	5748.45	5044.45
805.6514	323.2847	5721.85	5013.6
805.7945	325.4887	5715.9	5007.6
805.9376	327.692	5747.85	5038.4
806.0807	329.8949	5778.3	5067.05
806.2238	332.0972	5824.2	5111.8
806.367	334.2989	5859.6	5144.45
806.5101	336.5001	5864.3	5147
806.6533	338.7007	5871.1	5154.8
806.7965	340.9008	5827.1	5106.05
806.9397	343.1003	5753	5032.5
807.0829	345.2992	5711.85	4990.55
807.2261	347.4976	5680.1	4956.95
807.3693	349.6955	5625.75	4899.55
807.5126	351.8927	5613.4	4886.1
807.6559	354.0895	5597.2	4860.3
807.7991	356.2856	5588.2	4858.45
807.9424	358.4812	5564.5	4833.95
808.0857	360.6763	5563.75	4832.2
808.2291	362.8707	5536.9	4803.65
808.3724	365.0646	5571.75	4835.8
808.5158	367.258	5572.6	4834.65
808.6591	369.4508	5560.35	4817.75
808.8025	371.643	5587.7	4846.75
808.9459	373.8346	5597.9	4854.65
809.0893	376.0257	5635.2	4887.65
809.2327	378.2162	5697.1	4949.05
809.3762	380.4062	5715.4	4966.25
809.5196	382.5956	5673.8	4924.35
809.6631	384.7844	5619.65	4872
809.8066	386.9726	5564.4	4813
809.9501	389.1603	5532.15	4783.7
810.0936	391.3474	5525.45	4736.05
810.2371	393.5339	5499.1	4747.85
810.3806	395.7199	5484.85	4738.35
810.5241	397.9052	5512.95	4770.15
810.6677	400.09	5541.35	4798.45
810.8113	402.2743	5580.55	4838.85
810.9548	404.4579	5602.8	4859.7
811.0984	406.641	5645.95	4899.95
811.2421	408.8235	5687.85	4942.3
811.3857	411.0054	5731.9	4984.25
811.5293	413.1868	5855.35	5103.15
811.673	415.3675	5956.55	5201.35
811.8166	417.5477	5985.6	5230.55
811.9603	419.7273	5938.55	5180.65
812.104	421.9064	5778	5012.6
812.2477	424.0848	5680.3	4919.15
812.3914	426.2627	5612.45	4849.6
812.5351	428.4399	5559.65	4794.95
812.6788	430.6166	5495.25	4725.9
812.8226	432.7928	5456.35	4688.6
812.9663	434.9683	5399.65	4630.95
813.1101	437.1432	5356.45	4587.3
813.2539	439.3176	5340	4569.9
813.3977	441.4914	5310.95	4540.7
813.5415	443.6645	5310.25	4536.2
813.6853	445.8371	5300	4524.75
813.8291	448.0091	5292.15	4518.5
813.973	450.1806	5295.6	4521.9
814.1168	452.3514	5257.5	4480.1
814.2607	454.5216	5268.9	4484.2
814.4046	456.6913	5261.15	4483.8
814.5485	458.8603	5267.25	4491.4
814.6924	461.0288	5275.8	4499.9
814.8363	463.1967	5260.45	4484.1
814.9802	465.3639	5269.2	4488.75
815.1241	467.5306	5247.6	4466.9
815.2681	469.6967	5217.35	4436.6
815.412	471.8622	5229.65	4448.2
815.556	474.0271	5218.4	4437.75
815.7	476.1914	5210.9	4426.15
815.844	478.3551	5213.3	4431.15
815.988	480.5182	5206.5	4424.3
816.132	482.6807	5230.35	4447.25
816.276	484.8426	5263.9	4480.1
816.4201	487.0039	5291.8	4508.8
816.5641	489.1647	5327.55	4540.85
816.7082	491.3248	5372.55	4585.5
816.8522	493.4843	5380.7	4592.8
816.9963	495.6432	5377.05	4589.95
817.1404	497.8015	5334.75	4542.45
817.2845	499.9592	5317	4529.75
817.4286	502.1163	5275.65	4485.6
817.5727	504.2728	5215.3	4426.2
817.7168	506.4287	5209.1	4418.5
817.861	508.5839	5185.35	4395.35
818.0051	510.7386	5165.35	4374.45
818.1493	512.8927	5178.2	4377.75
818.2935	515.0461	5187.5	4393.8
818.4377	517.199	5191.65	4399.5
818.5818	519.3512	5241.55	4447.25
818.726	521.5029	5291.4	4491.7
818.8703	523.6539	5336.9	4540.6
819.0145	525.8043	5362	4565.75
819.1587	527.9541	5319.5	4520.45
819.303	530.1033	5253.6	4455.65
819.4472	532.2519	5186.7	4389.05
819.5915	534.3999	5183.1	4382.05
819.7357	536.5472	5176.9	4377.5
819.88	538.694	5185.15	4385.8
820.0243	540.8401	5186.1	4383.65
820.1686	542.9856	5185.8	4382.9
820.3129	545.1305	5196.45	4394.25
820.4572	547.2748	5234.9	4432.55
820.6016	549.4185	5234.85	4430.55
820.7459	551.5615	5235.45	4429.45
820.8902	553.704	5240.45	4434.8
821.0346	555.8458	5257.8	4455.05
821.1789	557.987	5262.65	4457.35
821.3233	560.1276	5302.15	4495.7
821.4677	562.2675	5353.85	4547.3
821.6121	564.4069	5439.9	4635.25
821.7565	566.5456	5483.2	4676.7
821.9009	568.6837	5479.35	4671.85
822.0453	570.8212	5389.15	4581.6
822.1897	572.958	5304	4495.15
822.3342	575.0942	5256.75	4449.4
822.4786	577.2299	5206.4	4396.95
822.6231	579.3648	5197.2	4389.25
822.7675	581.4992	5134.45	4325.3
822.912	583.6329	5134.55	4324.35
823.0565	585.766	5117.45	4310.35
823.201	587.8985	5179.55	4369.1
823.3454	590.0304	5220.15	4399.65
823.4899	592.1616	5250.6	4436.4
823.6345	594.2922	5268.9	4456
823.779	596.4222	5234.1	4419.95
823.9235	598.5515	5188.65	4374.95
824.068	600.6802	5106.7	4291.6
824.2126	602.8083	5054.05	4238.9
824.3571	604.9358	5028.65	4211.6
824.5017	607.0626	5021.55	4206
824.6462	609.1888	5029.85	4210.75
824.7908	611.3144	5049.25	4230.75
824.9354	613.4393	5079.55	4262.8
825.08	615.5636	5125.5	4306.2
825.2246	617.6873	5159.3	4342.35
825.3692	619.8103	5206.2	4384.8
825.5138	621.9327	5215.6	4394.05
825.6584	624.0544	5195.05	4375.65
825.803	626.1756	5142.6	4324.35
825.9477	628.2961	5086.35	4265.45
826.0923	630.4159	5045.5	4227.2
826.237	632.5351	5037.15	4214.5
826.3816	634.6537	5020.75	4199.3
826.5263	636.7716	5033.9	4211.15
826.6709	638.8889	5026.5	4204.4
826.8156	641.0056	5040	4216.6
826.9603	643.1216	5050.55	4225.7
827.105	645.237	5067.6	4241.45
827.2497	647.3518	5035.15	4209.25
827.3944	649.4659	5015.85	4191.6
827.5391	651.5793	4989.15	4164.3
827.6838	653.6922	4985.2	4159.95
827.8285	655.8043	4954.4	4129.9
827.9733	657.9159	4937.4	4107.7
828.118	660.0268	4924.95	4094.6
828.2627	662.137	4904.65	4079.05
828.4075	664.2466	4905.4	4074.55
828.5522	666.3556	4896.7	4066.65
828.697	668.4639	4893.2	4063.7
828.8418	670.5716	4897	4069.9
828.9865	672.6786	4893.55	4064.4
829.1313	674.785	4861.05	4029.55
829.2761	676.8907	4861.25	4031.8
829.4209	678.9958	4858.3	4029
829.5657	681.1002	4863.4	4032.05
829.7105	683.204	4858.7	4022.95
829.8553	685.3072	4863.5	4027.75
830.0001	687.4097	4835.45	4004.1
830.1449	689.5115	4854	4018.7
830.2898	691.6127	4840.2	4005.6
830.4346	693.7132	4838.35	4003.95
830.5794	695.8131	4847	3998.9
830.7243	697.9123	4832.55	3999.05
830.8691	700.0109	4830	3995.45
831.014	702.1089	4851.85	4018.4
831.1588	704.2061	4867.2	4033.8
831.3037	706.3028	4862.1	4025.05
831.4486	708.3987	4900.05	4062.25
831.5935	710.4941	4898.9	4062.85
831.7383	712.5887	4924.75	4086.6
831.8832	714.6827	4900.4	4061.1
832.0281	716.7761	4903.95	4065.05
832.173	718.8688	4890.7	4055.15
832.3179	720.9608	4874	4032.35
832.4628	723.0522	4907.15	4065.2
832.6077	725.1429	4877.35	4037.65
832.7527	727.233	4909	4069.5
832.8976	729.3224	4989.65	4149.95
833.0425	731.4112	5034.5	4194.3
833.1874	733.4993	5059.3	4216.8
833.3324	735.5867	5025.6	4184.9
833.4773	737.6735	4959.05	4115.8
833.6222	739.7596	4903.6	4060.85
833.7672	741.845	4864.8	4023.8
833.9122	743.9298	4843.05	4000.25
834.0571	746.014	4870.7	4030.85
834.2021	748.0974	4879.7	4034.15
834.347	750.1802	4891.45	4046.2
834.492	752.2624	4872.15	4028.5
834.637	754.3439	4849.95	4003.3
834.782	756.4247	4815.05	3960.2
834.9269	758.5048	4805	3961.5
835.0719	760.5843	4794.45	3949.8
835.2169	762.6631	4801.8	3958.15
835.3619	764.7413	4847.8	4003.3
835.5069	766.8188	4902.45	4055.8
835.6519	768.8956	4972.3	4123.6
835.7969	770.9718	5025.6	4179.85
835.9419	773.0473	5011.35	4165.6
836.0869	775.1221	4975.5	4129.25
836.232	777.1962	4926.95	4079.25
836.377	779.2697	4975.15	4128.35
836.522	781.3426	5089.85	4224
836.667	783.4147	5169.35	4319.6
836.8121	785.4862	5154.6	4308.5
836.9571	787.557	5068.85	4222.65
837.1021	789.6271	4961.35	4112.15
837.2472	791.6966	4839.75	3991.55
837.3922	793.7654	4719.3	3869.8
837.5373	795.8335	4671.5	3821.4
837.6823	797.901	4622.45	3773.7
837.8274	799.9678	4605.25	3753.85
837.9724	802.0339	4585.75	3737.25
838.1175	804.0993	4608.5	3750.2
838.2626	806.1641	4582.35	3732.4
838.4076	808.2282	4576.5	3727.95
838.5527	810.2916	4563.45	3711.4
838.6978	812.3544	4532.45	3683.35
838.8428	814.4164	4518.95	3669.6
838.9879	816.4778	4510.45	3660.15
839.133	818.5385	4525.5	3674.35
839.2781	820.5986	4550.95	3698.65
839.4232	822.658	4595.8	3741.15
839.5682	824.7166	4628.9	3777.35
839.7133	826.7747	4710.15	3858.7
839.8584	828.832	4780.7	3930.7
840.0035	830.8886	4831.1	3975.9
840.1486	832.9446	4861.45	4007
840.2937	834.9999	4831.45	3979.65
840.4388	837.0545	4777.3	3920.2
840.5839	839.1085	4699.65	3844.3
840.729	841.1618	4607.75	3750.8
840.8741	843.2143	4547.95	3695.55
841.0192	845.2662	4495.1	3642.05
841.1643	847.3175	4462.95	3613.5
841.3095	849.368	4442.1	3587.7
841.4546	851.4179	4452.65	3598.4
841.5997	853.467	4436.55	3584.2
841.7448	855.5155	4443.45	3589.75
841.8899	857.5633	4431.4	3577.45
842.0351	859.6105	4428.05	3572
842.1802	861.6569	4422.9	3566.85
842.3253	863.7027	4393.5	3536.35
842.4704	865.7478	4401	3546.1
842.6156	867.7922	4373.6	3517.45
842.7607	869.8359	4356.2	3498.7
842.9058	871.8789	4339.55	3483.95
843.0509	873.9212	4359.35	3469.85
843.1961	875.9629	4316.65	3461.65
843.3412	878.0039	4330.35	3472.85
843.4863	880.0441	4344.3	3486.8
843.6315	882.0837	4365.35	3507.2
843.7766	884.1226	4365.5	3506.7
843.9218	886.1609	4386.05	3529.15
844.0669	888.1984	4460.7	3605.15
844.212	890.2352	4486.1	3628.25
844.3572	892.2714	4509.5	3649.55
844.5023	894.3069	4484.7	3625.4
844.6475	896.3416	4420.5	3563.45
844.7926	898.3757	4364.6	3505.1
844.9377	900.4091	4343.25	3483.6
845.0829	902.4418	4320.1	3455.75
845.228	904.4739	4335.7	3474.15
845.3732	906.5052	4360.2	3499.65
845.5183	908.5358	4348.15	3488.25
845.6635	910.5658	4352.4	3489.25
845.8086	912.595	4284.95	3425.9
845.9538	914.6236	4260.25	3400.85
846.0989	916.6515	4238.65	3378.9
846.2441	918.6786	4205.9	3343
846.3892	920.7051	4176.5	3314.65
846.5344	922.7309	4190.35	3328.75
846.6795	924.756	4169.5	3306.7
846.8246	926.7804	4187.1	3323.45
846.9698	928.8041	4151.55	3285.6
847.1149	930.8272	4180.5	3317.95
847.2601	932.8495	4179.1	3316
847.4052	934.8711	4179.25	3317.15
847.5504	936.892	4168.15	3306.95
847.6955	938.9123	4172.3	3307.4
847.8407	940.9318	4197.2	3335.5
847.9858	942.9506	4187.8	3323
848.131	944.9688	4191.45	3328.85
848.2761	946.9862	4167.55	3303.8
848.4213	949.003	4120.5	3256.45
848.5664	951.019	4101.7	3237.15
848.7115	953.0344	4063.45	3199.65
848.8567	955.0491	4051.6	3186.95
849.0018	957.063	4035.95	3172.7
849.147	959.0763	4032	3161.4
849.2921	961.0888	4032.2	3166.25
849.4373	963.1007	4032.6	3165.4
849.5824	965.1119	4002.5	3136.2
849.7275	967.1223	3995.8	3131.2
849.8727	969.1321	3982	3120.15
850.0178	971.1412	3976.75	3112.55
850.1629	973.1495	3946.7	3082.55
850.3081	975.1572	3991.1	3080.4
850.4532	977.1641	3969.35	3103.35
850.5983	979.1704	3932.35	3066
850.7435	981.1759	3923.6	3053.9
850.8886	983.1808	3919.2	3052.2
851.0337	985.1849	3922.2	3045.95
851.1788	987.1884	3879.55	3012.6
851.324	989.1911	3872.05	3003.1
851.4691	991.1932	3890.25	3021.95
851.6142	993.1945	3875.8	3010.1
851.7593	995.1951	3863.65	2996.45
851.9045	997.1951	3857.05	2984.9
852.0496	999.1943	3856.55	2991.05
852.1947	1001.1928	3832.85	2966.45
852.3398	1003.1906	3834	2967
852.4849	1005.1877	3851.5	2981.5
852.63	1007.1841	3863.45	2994.95
852.7751	1009.1798	3873.7	3005.95
852.9202	1011.1748	3855.35	2987.35
853.0653	1013.1691	3823.25	2954.85
853.2104	1015.1627	3794.35	2925.95
853.3555	1017.1556	3749.9	2881.7
853.5006	1019.1477	3717.1	2849.15
853.6457	1021.1392	3685.4	2818.7
853.7908	1023.1299	3679.8	2810.9
853.9359	1025.12	3674.3	2803.1
854.081	1027.1093	3646.35	2778.15
854.2261	1029.0979	3670.55	2804.4
854.3712	1031.0859	3670.85	2803.45
854.5163	1033.0731	3693.55	2825.1
854.6613	1035.0596	3666.7	2800.9
854.8064	1037.0454	3659.6	2788.1
854.9515	1039.0304	3659	2789.3
855.0965	1041.0148	3618.1	2750.25
855.2416	1042.9985	3589.9	2719.9
855.3867	1044.9814	3569.8	2699.45
855.5317	1046.9636	3553.6	2680.55
855.6768	1048.9452	3538.55	2669.55
855.8219	1050.926	3541.3	2670.4
855.9669	1052.9061	3567.35	2698.4
856.112	1054.8855	3571.45	2700.45
856.257	1056.8642	3570.45	2701.2
856.4021	1058.8421	3568.15	2694.1
856.5471	1060.8194	3558.75	2687.1
856.6921	1062.7959	3527.25	2656.3
856.8372	1064.7717	3543.3	2668.75
856.9822	1066.7469	3521	2649.15
857.1272	1068.7213	3511.6	2637.55
857.2723	1070.695	3523.65	2655.25
857.4173	1072.6679	3517.65	2645.95
857.5623	1074.6402	3559.85	2687.7
857.7073	1076.6117	3564.15	2684.7
857.8523	1078.5826	3556.15	2685.9
857.9973	1080.5527	3508.05	2632.75
858.1423	1082.5221	3461	2587.8
858.2873	1084.4908	3432.9	2559.3
858.4323	1086.4587	3404.5	2531.2
858.5773	1088.426	3387.55	2515.25
858.7223	1090.3925	3371.65	2493.4
858.8673	1092.3584	3382.15	2509.5
859.0123	1094.3235	3374.8	2504.55
859.1573	1096.2879	3370.1	2498.1
859.3022	1098.2515	3390.45	2517.9
859.4472	1100.2145	3427.45	2554.75
859.5922	1102.1767	3436.75	2561.6
859.7371	1104.1382	3463.55	2590.3
859.8821	1106.099	3532.55	2656.55
860.027	1108.0591	3564.35	2691.15
860.172	1110.0185	3584.45	2710.55
860.3169	1111.9771	3623.75	2749.85
860.4619	1113.9351	3665.3	2790.55
860.6068	1115.8923	3724.75	2850.75
860.7517	1117.8488	3763.55	2887.95
860.8967	1119.8045	3735.3	2861.9
861.0416	1121.7596	3639.9	2766.25
861.1865	1123.7139	3525.35	2652.5
861.3314	1125.6675	3427.95	2554.9
861.4763	1127.6204	3421.65	2547.2
861.6212	1129.5726	3439.15	2563.85
861.7661	1131.524	3440.6	2567.15
861.911	1133.4748	3407.4	2533.35
862.0559	1135.4248	3336.75	2463.15
862.2008	1137.3741	3301.95	2429.5
862.3457	1139.3226	3253.85	2375.85
862.4905	1141.2705	3254.15	2378.9
862.6354	1143.2176	3249.35	2367.85
862.7803	1145.164	3263.25	2386.95
862.9251	1147.1097	3255.85	2379.5
863.07	1149.0546	3258.35	2383.2
863.2148	1150.9989	3224.25	2346.7
863.3597	1152.9424	3194.35	2319.25
863.5045	1154.8852	3160.3	2284.9
863.6493	1156.8272	3157.9	2283.1
863.7942	1158.7686	3162.5	2278.7
863.939	1160.7092	3138.65	2263.1
864.0838	1162.6491	3132.75	2254.65
864.2286	1164.5883	3134.15	2258.15
864.3734	1166.5267	3155.35	2279
864.5182	1168.4644	3162.1	2284.5
864.663	1170.4014	3198.5	2317.45
864.8078	1172.3377	3220	2345.65
864.9526	1174.2732	3246.15	2371.95
865.0974	1176.2081	3307.85	2432.9
865.2421	1178.1421	3426	2544.95
865.3869	1180.0755	3550	2676.6
865.5317	1182.0082	3644.4	2768.4
865.6764	1183.9401	3648.05	2768.4
865.8212	1185.8713	3555.2	2680.75
865.9659	1187.8017	3446.7	2571.1
866.1106	1189.7315	3322.1	2448.3
866.2554	1191.6605	3238.95	2331.85
866.4001	1193.5888	3165.1	2289.5
866.5448	1195.5163	3119.55	2242.65
866.6895	1197.4432	3106.65	2230.3
866.8342	1199.3693	3092.45	2215.05
866.9789	1201.2947	3069.3	2185.6
867.1236	1203.2193	3034.5	2157.55
867.2683	1205.1432	3023.7	2145
867.413	1207.0664	3010.85	2133.05
867.5576	1208.9889	3012.6	2131.55
867.7023	1210.9106	2998	2120.35
867.847	1212.8316	3003.55	2125.45
867.9916	1214.7519	3014.85	2128.7
868.1363	1216.6715	3004.15	2128.3
868.2809	1218.5903	3010.8	2131.95
868.4255	1220.5084	3030.6	2153.45
868.5701	1222.4257	3052.55	2174.65
868.7148	1224.3424	3039.7	2162.95
868.8594	1226.2583	3056.15	2171.55
869.004	1228.1735	3063.5	2183.65
869.1486	1230.0879	3076.55	2197.75
869.2932	1232.0016	3111	2235.1
869.4377	1233.9146	3147.35	2266.35
869.5823	1235.8269	3152.95	2274.5
869.7269	1237.7384	3152.3	2275.35
869.8715	1239.6492	3157.6	2278.7
870.016	1241.5592	3167.95	2290.25
870.1606	1243.4686	3171.45	2293
870.3051	1245.3772	3240.15	2362.7
870.4496	1247.285	3307.85	2427.95
870.5941	1249.1922	3390.7	2513.35
870.7387	1251.0986	3450.85	2572.9
870.8832	1253.0042	3503.4	2623.4
871.0277	1254.9092	3585.55	2706.25
871.1722	1256.8134	3675.35	2797.75
871.3167	1258.7169	3765.15	2886.6
871.4611	1260.6196	3858.65	2981.75
871.6056	1262.5216	3913.75	3034.75
871.7501	1264.4229	3909.65	3029.55
871.8945	1266.3234	3881.6	3002
872.039	1268.2232	3802.15	2920.85
872.1834	1270.1223	3760.95	2880.9
872.3278	1272.0207	3705	2824.6
872.4723	1273.9183	3690.65	2805.4
872.6167	1275.8151	3656.75	2777.3
872.7611	1277.7113	3687.7	2806.7
872.9055	1279.6067	3748.75	2869.2
873.0499	1281.5014	3874.65	2992.9
873.1943	1283.3953	4077.4	3197.3
873.3386	1285.2885	4283	3403
873.483	1287.181	4449.25	3569.55
873.6274	1289.0727	4545.9	3667.55
873.7717	1290.9637	4496.4	3615.25
873.9161	1292.854	4378.6	3500.7
874.0604	1294.7435	4226.6	3347.85
874.2047	1296.6323	4078.35	3198.55
874.349	1298.5204	3956.3	3072.8
874.4933	1300.4077	3857.5	2978.9
874.6376	1302.2943	3791.35	2912.3
874.7819	1304.1802	3731.7	2851.45
874.9262	1306.0653	3698.6	2817.15
875.0705	1307.9497	3670.45	2789.65
875.2147	1309.8333	3641.8	2762.3
875.359	1311.7162	3615.8	2734.9
875.5032	1313.5984	3598.85	2716.1
875.6475	1315.4798	3596	2702.95
875.7917	1317.3605	3581.65	2694.4
875.9359	1319.2405	3596.2	2713.85
876.0801	1321.1197	3592.8	2709.8
876.2243	1322.9982	3572.6	2687.9
876.3685	1324.876	3526.75	2646.15
876.5127	1326.753	3447.7	2565.75
876.6569	1328.6293	3341.6	2458.25
876.801	1330.5048	3251.75	2367.75
876.9452	1332.3796	3167	2286.5
877.0893	1334.2537	3118.55	2216.1
877.2335	1336.127	3023.3	2141.45
877.3776	1337.9996	2998.4	2116.75
877.5217	1339.8714	2977.35	2096.85
877.6658	1341.7426	2964.2	2039.95
877.8099	1343.6129	2928.75	2046.9
877.954	1345.4826	2906.05	2023.95
878.0981	1347.3515	2893.2	2008.4
878.2422	1349.2196	2878.9	1997.8
878.3862	1351.087	2862	1981.2
878.5303	1352.9537	2837.25	1955.2
878.6743	1354.8197	2842.75	1962.65
878.8184	1356.6849	2857.75	1975.5
878.9624	1358.5493	2853.85	1971.9
879.1064	1360.4131	2889.7	2009.45
879.2504	1362.276	2919.1	2037.45
879.3944	1364.1383	2946.8	2064.4
879.5384	1365.9998	2966.9	2078.95
879.6823	1367.8606	2954.5	2072.1
879.8263	1369.7206	2943.4	2060
879.9702	1371.5799	2931.7	2048.8
880.1142	1373.4384	2932.2	2050.5
880.2581	1375.2962	2918.45	2034.95
880.402	1377.1533	2864.4	1982.3
880.5459	1379.0096	2810.25	1928.6
880.6898	1380.8652	2771.05	1889.45
880.8337	1382.7201	2748.5	1868
880.9776	1384.5742	2708.65	1823.6
881.1215	1386.4275	2667.45	1783.1
881.2653	1388.2802	2654.9	1774.65
881.4092	1390.132	2637.7	1755.5
881.553	1391.9832	2633.2	1750.3
881.6968	1393.8336	2601.65	1717.6
881.8406	1395.6832	2616.35	1734.3
881.9844	1397.5322	2587.55	1706.35
882.1282	1399.3803	2583.95	1697.95
882.272	1401.2278	2573.25	1692.65
882.4158	1403.0745	2551.8	1669.3
882.5595	1404.9204	2538.95	1658.25
882.7033	1406.7656	2537.4	1655.25
882.847	1408.6101	2518.15	1634.8
882.9908	1410.4538	2519.8	1637.15
883.1345	1412.2968	2514.35	1633.6
883.2782	1414.139	2514.45	1633.45
883.4219	1415.9805	2507.4	1624.8
883.5656	1417.8213	2534.85	1630.2
883.7092	1419.6613	2530.7	1649.65
883.8529	1421.5006	2551.5	1668.6
883.9965	1423.3391	2584.35	1701
884.1402	1425.1769	2621.7	1738.5
884.2838	1427.0139	2696.4	1813.3
884.4274	1428.8502	2774.4	1892.35
884.571	1430.6858	2840.5	1957.1
884.7146	1432.5206	2874.25	1991.9
884.8582	1434.3547	2865.7	1980.9
885.0018	1436.188	2850	1967.85
885.1453	1438.0206	2835.65	1951.8
885.2889	1439.8524	2820.85	1938.75
885.4324	1441.6835	2809.55	1925.35
885.5759	1443.5139	2810.45	1924.55
885.7194	1445.3435	2815.2	1930.6
885.8629	1447.1724	2814.45	1932.75
886.0064	1449.0005	2812.85	1930.25
886.1499	1450.8279	2798.1	1914.2
886.2933	1452.6545	2785	1900.9
886.4368	1454.4804	2784.7	1903.25
886.5802	1456.3056	2780.75	1892.85
886.7237	1458.13	2750.9	1868.15
886.8671	1459.9536	2727.45	1843.95
887.0105	1461.7766	2704.4	1821.8
887.1539	1463.5987	2655.85	1770.95
887.2972	1465.4202	2630.35	1748.85
887.4406	1467.2409	2589.8	1703.85
887.584	1469.0608	2550	1667.2
887.7273	1470.88	2515.6	1633.5
887.8706	1472.6984	2476.45	1591.65
888.0139	1474.5161	2469	1583.35
888.1572	1476.3331	2430.75	1545.65
888.3005	1478.1493	2434.35	1549.15
888.4438	1479.9648	2418.2	1535.2
888.5871	1481.7795	2405.15	1522.8
888.7303	1483.5935	2419.1	1536.15
888.8736	1485.4067	2408.35	1523.95
889.0168	1487.2192	2413.25	1529.7
889.16	1489.031	2413.6	1529.25
889.3032	1490.842	2412.05	1529.05
889.4464	1492.6522	2406.55	1521
889.5896	1494.4618	2403.95	1518.2
889.7327	1496.2705	2403.4	1517.15
889.8759	1498.0785	2402.7	1518.1
890.019	1499.8858	2382.95	1500.05
890.1622	1501.6924	2375.35	1493.2
890.3053	1503.4981	2378.05	1493.9
890.4484	1505.3032	2373.9	1490.6
890.5914	1507.1075	2351.75	1467.65
890.7345	1508.911	2359.7	1477
890.8776	1510.7138	2339.8	1453.4
891.0206	1512.5159	2327.2	1445.3
891.1637	1514.3172	2327.95	1442.2
891.3067	1516.1178	2302.8	1420.9
891.4497	1517.9176	2305	1417.15
891.5927	1519.7166	2301.45	1418.5
891.7357	1521.515	2302.35	1411.8
891.8786	1523.3126	2282.85	1397.65
892.0216	1525.1094	2285.1	1399.55
892.1645	1526.9055	2273.45	1389.55
892.3074	1528.7008	2269.8	1387.6
892.4503	1530.4954	2260.35	1370
892.5932	1532.2893	2245.25	1363.95
892.7361	1534.0824	2239.2	1350
892.879	1535.8747	2239.75	1354.2
893.0218	1537.6663	2231.4	1344.7
893.1647	1539.4572	2232.3	1347.55
893.3075	1541.2473	2220.5	1336
893.4503	1543.0367	2211.8	1330.05
893.5931	1544.8253	2219.2	1327.85
893.7359	1546.6132	2215.5	1327.65
893.8787	1548.4003	2225.5	1330.3
894.0214	1550.1867	2231.15	1336.9
894.1642	1551.9723	2232.25	1343.15
894.3069	1553.7572	2242.85	1358.2
894.4496	1555.5414	2253.3	1368.35
894.5923	1557.3247	2270.4	1387.95
894.735	1559.1074	2308.65	1425.15
894.8777	1560.8893	2339.7	1458.75
895.0204	1562.6705	2365.75	1480.4
895.163	1564.4509	2393.15	1510
895.3056	1566.2305	2415.35	1533.6
895.4482	1568.0094	2421.05	1536.8
895.5908	1569.7876	2424.95	1540.65
895.7334	1571.565	2413.3	1529.85
895.876	1573.3417	2409.3	1524.7
896.0186	1575.1176	2415.85	1533.2
896.1611	1576.8928	2431.45	1547.6
896.3036	1578.6672	2428.5	1545.6
896.4461	1580.4409	2467.2	1583.7
896.5886	1582.2138	2500.1	1614.3
896.7311	1583.986	2546.8	1662.3
896.8736	1585.7575	2592.9	1709.7
897.0161	1587.5282	2625.95	1742.3
897.1585	1589.2981	2662.15	1779.75
897.3009	1591.0673	2670.6	1785.55
897.4433	1592.8358	2678.1	1794.45
897.5857	1594.6035	2667.15	1779.85
897.7281	1596.3704	2652.8	1766
897.8705	1598.1366	2639.4	1757.4
898.0128	1599.9021	2609	1725.95
898.1551	1601.6668	2557.15	1670.85
898.2975	1603.4308	2523.9	1637.7
898.4398	1605.194	2533	1645.05
898.5821	1606.9564	2537.5	1653.8
898.7243	1608.7182	2589.7	1701.75
898.8666	1610.4791	2659.75	1773.5
899.0088	1612.2394	2768.7	1884.1
899.1511	1613.9988	2870.65	1985.2
899.2933	1615.7576	2989.9	2107.3
899.4355	1617.5156	3052.3	2161.8
899.5776	1619.2728	3046.15	2161.05
899.7198	1621.0293	2966.55	2082.1
899.862	1622.785	2860.4	1976.1
900.0041	1624.54	2721.1	1836.45
900.1462	1626.2942	2582.4	1696.35
900.2883	1628.0477	2462.05	1573.4
900.4304	1629.8005	2363.5	1473.35
900.5725	1631.5525	2273.25	1388.95
900.7145	1633.3037	2220.95	1335.4
900.8566	1635.0542	2171.5	1288.15
900.9986	1636.804	2134	1249.75
901.1406	1638.553	2147.35	1213.15
901.2826	1640.3013	2084.55	1199.25
901.4245	1642.0488	2061.2	1175.65
901.5665	1643.7955	2039.65	1156.25
901.7085	1645.5416	2021.55	1139.15
901.8504	1647.2868	2012.1	1130.2
901.9923	1649.0313	2002.3	1116
902.1342	1650.7751	1999.4	1111.15
902.2761	1652.5181	1981.35	1096.55
902.4179	1654.2604	1980.4	1096.15
902.5598	1656.0019	1980.85	1096.8
902.7016	1657.7427	1991.45	1105.65
902.8434	1659.4828	1999.1	1116.95
902.9852	1661.222	2025.9	1139.3
903.127	1662.9606	2057.3	1172.4
903.2687	1664.6984	2100.5	1215.35
903.4105	1666.4354	2126.7	1240.25
903.5522	1668.1717	2121.35	1235.85
903.6939	1669.9072	2069.75	1184.9
903.8356	1671.642	2036.7	1149.35
903.9773	1673.3761	1985.75	1101.9
904.119	1675.1094	1939.5	1056
904.2606	1676.8419	1913.5	1029.35
904.4022	1678.5737	1897.4	1014.85
904.5439	1680.3048	1880.8	998
904.6855	1682.0351	1860.5	977.05
904.827	1683.7646	1852.25	963.2
904.9686	1685.4934	1853.05	969.65
905.1101	1687.2215	1846.2	959.85
905.2517	1688.9488	1830.55	945.9
905.3932	1690.6754	1827.25	943.75
905.5347	1692.4012	1824.95	941.05
905.6761	1694.1263	1822.15	937.6
905.8176	1695.8506	1813.25	929.55
905.9591	1697.5742	1809.1	926.15
906.1005	1699.297	1801.6	915.55
906.2419	1701.0191	1793.1	906.1
906.3833	1702.7404	1793.45	909.95
906.5246	1704.461	1791.6	904.95
906.666	1706.1808	1778.45	892.15
906.8073	1707.8999	1773.4	885.9
906.9487	1709.6182	1782.85	897.35
907.09	1711.3358	1768	883.15
907.2313	1713.0527	1772.95	888.1
907.3725	1714.7688	1768.8	879.15
907.5138	1716.4841	1760.6	873.55
907.655	1718.1987	1762.85	872.95
907.7962	1719.9126	1746.3	862.8
907.9374	1721.6257	1750.65	862.95
908.0786	1723.338	1751.35	866.3
908.2198	1725.0496	1743.55	858.95
908.3609	1726.7605	1742.75	858.4
908.502	1728.4706	1739.2	852.2
908.6431	1730.18	1741.2	854.45
908.7842	1731.8886	1738.55	853.2
908.9253	1733.5964	1740.6	850.9
909.0664	1735.3036	1734	849
909.2074	1737.0099	1730.15	846.45
909.3484	1738.7156	1726.75	843.6
909.4894	1740.4204	1726.1	838.4
909.6304	1742.1246	1726.65	840.75
909.7714	1743.8279	1713.25	828.75
909.9123	1745.5306	1727.95	841.2
910.0532	1747.2325	1713.6	828.75
910.1941	1748.9336	1710.75	828.2
910.335	1750.634	1708.7	822.85
910.4759	1752.3336	1700.7	813.85
910.6168	1754.0325	1704.4	820.75
910.7576	1755.7307	1703.1	818.75
910.8984	1757.4281	1709.8	825.5
911.0392	1759.1247	1704.65	810.65
911.18	1760.8206	1707.7	817.2
911.3208	1762.5158	1703.8	815.6
911.4615	1764.2102	1692.05	806.15
911.6022	1765.9039	1688.85	803.45
911.7429	1767.5968	1692.95	807.7
911.8836	1769.289	1693.55	807
912.0243	1770.9804	1684	798.35
912.1649	1772.6711	1677	793.7
912.3056	1774.361	1683.55	798.7
912.4462	1776.0502	1683.6	798.7
912.5868	1777.7386	1682.4	792.75
912.7274	1779.4263	1673.5	787.7
912.8679	1781.1132	1682.6	796.3
913.0084	1782.7994	1669.1	782.4
913.149	1784.4849	1676.5	792.2
913.2895	1786.1696	1684.85	794.05
913.4299	1787.8535	1667.15	782.05
913.5704	1789.5367	1662	776.75
913.7108	1791.2192	1668.25	784
913.8513	1792.9009	1676.9	777.6
913.9917	1794.5818	1664.75	779.9
914.132	1796.2621	1651.7	767.9
914.2724	1797.9415	1647.45	762.2
914.4128	1799.6202	1654.4	770.9
914.5531	1801.2982	1653.5	771.2
914.6934	1802.9755	1651.65	766.8
914.8337	1804.6519	1644.05	759.2
914.9739	1806.3277	1631.35	747.95
915.1142	1808.0027	1639.3	755.95
915.2544	1809.6769	1640.35	754.2
915.3946	1811.3504	1636.05	750.05
915.5348	1813.0231	1628	743.8
915.675	1814.6951	1632.1	748.6
915.8151	1816.3664	1633	745.9
915.9553	1818.0369	1626.4	738.85
916.0954	1819.7067	1629.75	745.9
916.2355	1821.3757	1627.35	740.45
916.3755	1823.044	1627.8	742.35
916.5156	1824.7115	1626.2	741.6
916.6556	1826.3783	1618.15	733.1
916.7956	1828.0443	1615.7	730.95
916.9356	1829.7096	1621.65	734.3
917.0756	1831.3741	1618.55	730.2
917.2155	1833.0379	1608.1	723.95
917.3555	1834.701	1615.65	729.95
917.4954	1836.3633	1611.5	727.65
917.6353	1838.0248	1598.6	708.85
917.7751	1839.6856	1607.6	723.7
917.915	1841.3457	1593.95	711.5
918.0548	1843.005	1596.6	711
918.1946	1844.6636	1593.6	712.3
918.3344	1846.3214	1595.2	709.55
918.4742	1847.9785	1594.35	711.5
918.6139	1849.6349	1601.9	715.3
918.7537	1851.2904	1609.3	715.95
918.8934	1852.9453	1593.45	707
919.0331	1854.5994	1584.45	696.25
919.1727	1856.2528	1589.7	699
919.3124	1857.9054	1586.75	702.75
919.452	1859.5572	1584.35	699.05
919.5916	1861.2083	1583.65	698.4
919.7312	1862.8587	1583.4	699.7
919.8708	1864.5084	1580.85	695.65
920.0103	1866.1572	1586.8	705.3
920.1498	1867.8054	1569.4	684
920.2893	1869.4528	1568.9	685.1
920.4288	1871.0994	1570.55	685.2
920.5683	1872.7453	1561.8	677.05
920.7077	1874.3905	1589.3	699.2
920.8471	1876.0349	1564.6	678.9
920.9865	1877.6786	1575.15	687.3
921.1259	1879.3215	1558.8	674.8
921.2653	1880.9637	1560.8	675.25
921.4046	1882.6051	1560.65	678.4
921.5439	1884.2458	1562.3	673.6
921.6832	1885.8858	1556.35	671.55
921.8225	1887.525	1562.15	677.9
921.9617	1889.1634	1564.75	680.8
922.101	1890.8011	1563.15	677.85
922.2402	1892.4381	1557.4	673.85
922.3794	1894.0743	1547.2	662.25
922.5185	1895.7098	1556.85	671.8
922.6577	1897.3446	1545.15	659.2
922.7968	1898.9786	1553	664.35
922.9359	1900.6118	1539.3	653.35
923.075	1902.2443	1546.65	662.1
923.214	1903.8761	1541.85	655.6
923.3531	1905.5071	1544.25	656.45
923.4921	1907.1374	1540.8	654.55
923.6311	1908.7669	1537.8	652.75
923.77	1910.3957	1535.15	649.2
923.909	1912.0237	1531.4	646.55
924.0479	1913.651	1531.8	644.55
924.1868	1915.2776	1529.15	645.95
924.3257	1916.9034	1525.3	642.1
924.4646	1918.5285	1525.55	643.45
924.6034	1920.1528	1525.7	640.9
924.7422	1921.7764	1520	635.2
924.881	1923.3992	1515.85	630.9
925.0198	1925.0213	1509.3	623.55
925.1586	1926.6427	1505.85	621.55
925.2973	1928.2633	1576	623.1
925.436	1929.8832	1504.5	618.7
925.5747	1931.5023	1504.25	618.6
925.7134	1933.1207	1498.7	613.3
925.852	1934.7383	1496.4	610.85
925.9906	1936.3552	1499.45	615.5
926.1292	1937.9714	1499	611.5
926.2678	1939.5868	1496.25	610.1
926.4064	1941.2015	1493.3	608.6
926.5449	1942.8154	1495.65	610.55
926.6834	1944.4286	1487.95	602
926.8219	1946.041	1515.6	606.55
926.9604	1947.6528	1489.2	598.95
927.0988	1949.2637	1487.85	603.2
927.2372	1950.8739	1476.75	591.55
927.3756	1952.4834	1483.85	599.6
927.514	1954.0921	1476.4	590.8
927.6523	1955.7001	1479.4	589.9
927.7907	1957.3074	1475.8	591.2
927.929	1958.9139	1471.75	586.8
928.0673	1960.5197	1473.15	585.15
928.2055	1962.1247	1462.85	578.55
928.3438	1963.729	1469.9	585.85
928.482	1965.3325	1486.7	575.9
928.6202	1966.9353	1458.95	574.7
928.7584	1968.5374	1460.65	574.2
928.8965	1970.1387	1456.4	572.35
929.0346	1971.7393	1461.65	577.55
929.1727	1973.3392	1461.3	574.9
929.3108	1974.9383	1449.1	564.55
929.4489	1976.5366	1453.5	568.7
929.5869	1978.1342	1451.8	565.75
929.7249	1979.7311	1449.9	564.65
929.8629	1981.3273	1445.45	560.2
930.0009	1982.9227	1441.1	553.25
930.1388	1984.5173	1439.05	553.2
930.2767	1986.1112	1439.95	553.7
930.4146	1987.7044	1444.05	561.95
930.5525	1989.2968	1448.3	563.9
930.6904	1990.8885	1440.05	552.4
930.8282	1992.4795	1442.3	555.8
930.966	1994.0697	1433.05	548.6
931.1038	1995.6592	1430.95	543.65
931.2415	1997.2479	1430.55	546.05
931.3793	1998.8359	1430.5	544.3
931.517	2000.4232	1421.6	537.85
931.6547	2002.0097	1428.05	545.15
931.7923	2003.5955	1424.3	538.7
931.93	2005.1805	1422.95	536.8
932.0676	2006.7648	1424.05	539.5
932.2052	2008.3484	1420.95	534.4
932.3427	2009.9312	1423.6	537.65
932.4803	2011.5133	1416.1	533.05
932.6178	2013.0946	1415.45	531.55
932.7553	2014.6752	1414.5	532.95
932.8928	2016.2551	1416.2	531.5
933.0302	2017.8342	1413.5	529.05
933.1676	2019.4126	1410.2	527.05
933.305	2020.9902	1412.45	528.4
933.4424	2022.5672	1409.95	524.35
933.5798	2024.1433	1413.3	525.2
933.7171	2025.7188	1400	516.4
933.8544	2027.2935	1400.1	513.45
933.9917	2028.8674	1403.15	519.35
934.129	2030.4406	1401.55	518.7
934.2662	2032.0131	1396	511.55
934.4034	2033.5849	1405.8	512.9
934.5406	2035.1559	1397.85	512.15
934.6778	2036.7261	1398.6	515
934.8149	2038.2957	1399	513.85
934.952	2039.8645	1396.45	513
935.0891	2041.4325	1403.7	515.2
935.2262	2042.9998	1396.4	512.15
935.3632	2044.5664	1394.65	507.9
935.5002	2046.1323	1395.1	510.6
935.6372	2047.6974	1388.1	503.3
935.7742	2049.2617	1392.75	508.55
935.9111	2050.8254	1408.55	500.9
936.048	2052.3883	1386.95	501.05
936.1849	2053.9504	1385.9	501.35
936.3218	2055.5118	1380.75	495.65
936.4586	2057.0725	1390.15	503.1
936.5955	2058.6325	1385.1	498.85
936.7323	2060.1917	1377.25	495.15
936.869	2061.7502	1383	495.85
937.0058	2063.3079	1377.7	494.3
937.1425	2064.8649	1382.8	495.5
937.2792	2066.4212	1373.65	488.75
937.4159	2067.9767	1373.85	490.3
937.5525	2069.5315	1375.2	489.45
937.6891	2071.0856	1372.35	488.5
937.8257	2072.6389	1369.3	485.1
937.9623	2074.1915	1369.3	487.15
938.0989	2075.7433	1361.85	474.45
938.2354	2077.2945	1374.2	490.6
938.3719	2078.8448	1359.45	475.7
938.5084	2080.3945	1365.45	482.2
938.6448	2081.9434	1364.25	478
938.7812	2083.4916	1361.95	477.55
938.9176	2085.039	1368.05	481.2
939.054	2086.5857	1363.5	477.35
939.1903	2088.1317	1359.4	473.95
939.3267	2089.677	1359.75	475.05
939.463	2091.2215	1353.6	468.7
939.5992	2092.7652	1353.85	468.3
939.7355	2094.3083	1359.1	474.85
939.8717	2095.8506	1363.05	479.7
940.0079	2097.3921	1352.65	467.95
940.1441	2098.933	1351.85	469.25
940.2802	2100.4731	1352.9	468.95
940.4163	2102.0124	1372.1	470.55
940.5524	2103.5511	1353.5	468.95
940.6885	2105.089	1349.85	462.75
940.8245	2106.6261	1348.55	464.55
940.9606	2108.1626	1343.6	456.45
941.0965	2109.6983	1372.3	460.2
941.2325	2111.2332	1351.1	466.2
941.3684	2112.7675	1346.8	462.3
941.5044	2114.301	1342.25	457.15
941.6403	2115.8337	1344.9	460.5
941.7761	2117.3657	1341.95	457.4
941.912	2118.897	1338.75	452.6
942.0478	2120.4276	1345.85	456.7
942.1835	2121.9575	1341.7	455.55
942.3193	2123.4866	1360.2	462.1
942.455	2125.0149	1343.9	455.5
942.5907	2126.5426	1332.6	450.55
942.7264	2128.0695	1335.85	445.05
942.8621	2129.5956	1329.95	448
942.9977	2131.1211	1337.35	447.05
943.1333	2132.6458	1336.25	452.2
943.2689	2134.1698	1334.2	449.8
943.4044	2135.693	1336.05	450.4
943.54	2137.2155	1338.8	451.5
943.6755	2138.7373	1332.1	446.3
943.8109	2140.2584	1328.45	443.6
943.9464	2141.7787	1337.8	448.25
944.0818	2143.2983	1324.25	439.25
944.2172	2144.8171	1321.4	438.25
944.3526	2146.3353	1325.75	437.5
944.4879	2147.8527	1320.1	436.6
944.6232	2149.3693	1323.8	437.45
944.7585	2150.8853	1325.25	440.7
944.8938	2152.4005	1316.95	430.75
945.029	2153.9149	1314.5	430.95
945.1642	2155.4287	1420.3	434.05
945.2994	2156.9417	1316.3	430.3
945.4346	2158.454	1316.5	427.8
945.5697	2159.9655	1315.15	431.25
945.7048	2161.4764	1310.3	426.95
945.8399	2162.9865	1311.4	426.25
945.9749	2164.4958	1308.85	423.8
946.1099	2166.0045	1309.9	421.85
946.2449	2167.5124	1302.15	417.75
946.3799	2169.0195	1306.45	421.65
946.5148	2170.526	1309.4	424.7
946.6498	2172.0317	1304.85	420.3
946.7846	2173.5367	1310	424.25
946.9195	2175.0409	1299.5	416.05
947.0543	2176.5445	1303.55	420.25
947.1891	2178.0473	1298.1	414.55
947.3239	2179.5494	1302.75	413.7
947.4587	2181.0507	1294.2	409.3
947.5934	2182.5513	1294.6	410.95
947.7281	2184.0512	1300.65	416.1
947.8628	2185.5504	1296.15	411.1
947.9974	2187.0488	1293.15	409.4
948.132	2188.5465	1289.85	406.35
948.2666	2190.0435	1296.25	409.9
948.4012	2191.5397	1290.1	405.2
948.5357	2193.0353	1285.8	401.75
948.6702	2194.5301	1289.75	403.6
948.8047	2196.0241	1287.45	401.65
948.9392	2197.5175	1286.6	400.65
949.0736	2199.0101	1293.85	405.8
949.208	2200.502	1282.4	398.05
949.3424	2201.9931	1281.85	396.75
949.4767	2203.4835	1276.85	390.75
949.611	2204.9733	1297.35	396.65
949.7453	2206.4622	1278.2	394.25
949.8796	2207.9505	1278.7	390.55
950.0138	2209.438	1273.5	388.8
950.148	2210.9248	1269.1	383.85
950.2822	2212.4109	1272.85	388.35
950.4164	2213.8962	1271.3	383.15
950.5505	2215.3809	1269.95	384.2
950.6846	2216.8648	1264.65	378.9
950.8186	2218.3479	1272.75	382.55
950.9527	2219.8304	1269.1	382.55
951.0867	2221.3121	1269.55	382.8
951.2207	2222.7931	1267.1	382.85
951.3546	2224.2733	1262.15	376.1
951.4886	2225.7529	1266.1	380.95
951.6225	2227.2317	1265	375.4
951.7563	2228.7098	1263.55	379.85
951.8902	2230.1872	1256.8	373.6
952.024	2231.6638	1258.35	374.55
952.1578	2233.1397	1259.9	370.85
952.2916	2234.6149	1252.35	367.35
952.4253	2236.0894	1254.9	368.25
952.559	2237.5632	1251.55	366.8
952.6927	2239.0362	1253.1	367.55
952.8263	2240.5085	1256.25	370.1
952.9599	2241.9801	1251.6	366.15
953.0935	2243.4509	1248.85	364.55
953.2271	2244.921	1248.65	365.05
953.3606	2246.3904	1245.55	359.7
953.4941	2247.8591	1253.7	369.15
953.6276	2249.3271	1242.8	358.8
953.7611	2250.7943	1238.75	352.75
953.8945	2252.2608	1232.85	350.85
954.0279	2253.7266	1241.5	357.05
954.1612	2255.1917	1240.55	354.9
954.2946	2256.656	1234.65	348.5
954.4279	2258.1197	1234.7	352.15
954.5612	2259.5826	1237	349.55
954.6944	2261.0447	1238.9	351.65
954.8276	2262.5062	1236.85	349.4
954.9608	2263.9669	1237.55	351.6
955.094	2265.4269	1233.35	350.15
955.2271	2266.8862	1229.75	344.2
955.3602	2268.3448	1227.55	343.05
955.4933	2269.8026	1228.55	341.25
955.6264	2271.2598	1226.15	341.5
955.7594	2272.7162	1226.6	341.7
955.8924	2274.1719	1223.75	340.2
956.0253	2275.6268	1230.3	344.65
956.1583	2277.0811	1224.2	339.2
956.2912	2278.5346	1224.9	341.55
956.4241	2279.9874	1223.2	337.85
956.5569	2281.4395	1221.6	336.7
956.6897	2282.8908	1219.4	328.95
956.8225	2284.3414	1225.9	339.15
956.9553	2285.7914	1219	335.95
957.088	2287.2406	1215.95	328.85
957.2207	2288.689	1225	340.55
957.3534	2290.1368	1215	331.15
957.486	2291.5838	1219.3	332.65
957.6186	2293.0302	1221.05	334.55
957.7512	2294.4758	1212.4	327.7
957.8838	2295.9206	1218.7	332.75
958.0163	2297.3648	1216.65	331.95
958.1488	2298.8082	1212.7	327.3
958.2813	2300.251	1210.4	327.25
958.4137	2301.693	1210.3	322.9
958.5461	2303.1343	1210.15	326.05
958.6785	2304.5748	1208.55	323.4
958.8108	2306.0147	1207.45	323.55
958.9432	2307.4538	1211.25	325.35
959.0754	2308.8922	1207.3	324.95
959.2077	2310.3299	1204.8	319.7
959.3399	2311.7669	1203.6	318.7
959.4721	2313.2031	1203.2	319.25
959.6043	2314.6387	1202.8	317.75
959.7365	2316.0735	1204.25	319.45
959.8686	2317.5076	1201.7	315.15
960.0006	2318.941	1199.5	315.35
960.1327	2320.3737	1193.15	306.95
960.2647	2321.8056	1198.55	311.05
960.3967	2323.2369	1201.55	315.3
960.5287	2324.6674	1201.95	315.8
960.6606	2326.0972	1198.35	312.45
960.7925	2327.5263	1196.5	311.5
960.9244	2328.9547	1201.65	316.5
961.0562	2330.3823	1196.35	309.7
961.1881	2331.8092	1203.95	316.45
961.3198	2333.2355	1193.45	307
961.4516	2334.661	1193.95	308.15
961.5833	2336.0858	1195.25	310.45
961.715	2337.5098	1190.4	305.2
961.8467	2338.9332	1186.35	302.15
961.9783	2340.3558	1194.55	306.2
962.1099	2341.7778	1183.75	298.9
962.2415	2343.199	1180.2	293.35
962.373	2344.6195	1184.55	299.45
962.5045	2346.0393	1182.85	299.6
962.636	2347.4583	1182.15	297.95
962.7675	2348.8767	1184.1	298.25
962.8989	2350.2943	1181.75	296.65
963.0303	2351.7113	1182.6	297
963.1617	2353.1275	1179.25	293.75
963.293	2354.543	1200.65	292.55
963.4243	2355.9578	1179.85	295.4
963.5556	2357.3718	1175.85	290.85
963.6868	2358.7852	1180.3	291.15
963.818	2360.1978	1175.45	290.55
963.9492	2361.6098	1174.05	290.2
964.0803	2363.021	1177.65	288.95
964.2114	2364.4315	1168.6	284
964.3425	2365.8413	1176.45	290.35
964.4736	2367.2504	1170.8	286.7
964.6046	2368.6587	1165.85	280.9
964.7356	2370.0664	1169.8	284.95
964.8666	2371.4733	1170.25	285.3
964.9975	2372.8795	1163.6	280.95
965.1284	2374.285	1173.5	287.55
965.2593	2375.6899	1162.15	278.7
965.3901	2377.0939	1162.45	277.4
965.5209	2378.4973	1163.95	279.8
965.6517	2379.9	1161.8	276.45
965.7825	2381.3019	1159.35	272.8
965.9132	2382.7032	1161.8	277.8
966.0439	2384.1037	1157.25	273.85
966.1745	2385.5035	1160.1	275.7
966.3051	2386.9027	1160.8	274.9
966.4357	2388.3011	1157.75	268.4
966.5663	2389.6987	1157.6	272.75
966.6968	2391.0957	1155.4	270.35
966.8273	2392.492	1154.5	269.3
966.9578	2393.8876	1155.5	270.9
967.0882	2395.2824	1151.65	267.05
967.2186	2396.6765	1149.8	265.55
967.349	2398.07	1149.8	265.75
967.4793	2399.4627	1153.9	266.8
967.6097	2400.8547	1149.6	263.1
967.7399	2402.246	1154.15	263.1
967.8702	2403.6366	1148.35	263.2
968.0004	2405.0265	1146.9	262.55
968.1306	2406.4156	1144.75	255.45
968.2607	2407.8041	1148.7	262.05
968.3909	2409.1918	1146.25	258.2
968.521	2410.5789	1142.5	256.65
968.651	2411.9652	1144.3	256.35
968.781	2413.3508	1135.65	248.95
968.911	2414.7358	1136.3	250.45
969.041	2416.12	1138.1	253.95
969.1709	2417.5035	1144.35	258.65
969.3008	2418.8863	1136.4	250.35
969.4307	2420.2684	1135.1	250.3
969.5606	2421.6497	1132.45	246.4
969.6904	2423.0304	1131.9	245.2
969.8201	2424.4104	1132.8	247.7
969.9499	2425.7896	1130.9	244.05
970.0796	2427.1682	1129.9	245
970.2093	2428.546	1135.3	247.6
970.3389	2429.9232	1125.7	238.3
970.4685	2431.2996	1129.4	244.65
970.5981	2432.6753	1124.6	239.55
970.7277	2434.0503	1127.5	242.55
970.8572	2435.4246	1123.35	237.55
970.9867	2436.7982	1127.25	240.1
971.1161	2438.1711	1125.5	240.1
971.2456	2439.5433	1126.3	240.05
971.375	2440.9148	1132.2	240.85
971.5043	2442.2856	1121.8	236.6
971.6336	2443.6557	1113.35	225.15
971.7629	2445.025	1117.95	233.8
971.8922	2446.3937	1120.6	233.9
972.0214	2447.7617	1118.7	232.9
972.1506	2449.1289	1122	237.55
972.2798	2450.4955	1123.7	234.75
972.4089	2451.8613	1116.3	231.85
972.538	2453.2265	1117.75	231.8
972.6671	2454.5909	1116.3	229.4
972.7961	2455.9546	1118.85	234.2
972.9251	2457.3177	1112.05	226.75
973.0541	2458.68	1117.35	231.6
973.1831	2460.0416	1113.8	225.85
973.312	2461.4025	1123.25	237.15
973.4408	2462.7627	1127.65	231.15
973.5697	2464.1222	1106.7	222.05
973.6985	2465.4811	1112.4	225.6
973.8273	2466.8392	1114.3	230.05
973.956	2468.1966	1112.1	224.55
974.0847	2469.5533	1112	225.7
974.2134	2470.9093	1106.65	219.45
974.3421	2472.2645	1109.8	223.7
974.4707	2473.6191	1110.15	225.65
974.5993	2474.973	1103.55	217.3
974.7278	2476.3262	1108.5	222.8
974.8563	2477.6787	1104.2	218.55
974.9848	2479.0305	1102.7	219.2
975.1132	2480.3816	1109.2	221.2
975.2417	2481.7319	1104.75	220
975.37	2483.0816	1101.35	214.05
975.4984	2484.4306	1104.6	217.9
975.6267	2485.7789	1099.5	215.8
975.755	2487.1264	1103.05	217
975.8833	2488.4733	1097.35	213.6
976.0115	2489.8195	1109.1	218.3
976.1397	2491.165	1102.65	214.05
976.2678	2492.5097	1096.4	209.95
976.3959	2493.8538	1097.2	212.65
976.524	2495.1972	1094.8	209.95
976.6521	2496.5398	1102.9	216.1
976.7801	2497.8818	1100	213.1
976.9081	2499.2231	1092.8	208.25
977.036	2500.5637	1089.9	204.25
977.164	2501.9035	1092.5	207.5
977.2918	2503.2427	1098.5	209
977.4197	2504.5812	1092.75	205.65
977.5475	2505.919	1092.6	203.3
977.6753	2507.256	1094.6	208.95
977.8031	2508.5924	1087.75	201.65
977.9308	2509.9281	1096.05	203.3
978.0585	2511.2631	1087.4	201.45
978.1861	2512.5974	1084.1	200.15
978.3137	2513.9309	1089	203.45
978.4413	2515.2638	1111.55	200.1
978.5689	2516.596	1084.55	199.85
978.6964	2517.9275	1081.95	194.5
978.8239	2519.2583	1084.55	199.85
978.9513	2520.5884	1085.4	198
979.0788	2521.9178	1081	194.6
979.2062	2523.2465	1081.5	197.9
979.3335	2524.5745	1075.85	188.55
979.4608	2525.9018	1081.2	196.8
979.5881	2527.2284	1081.35	197.15
979.7154	2528.5543	1078.7	195.05
979.8426	2529.8796	1076.8	190.95
979.9698	2531.2041	1077.7	192.5
980.0969	2532.5279	1074.1	189.6
980.224	2533.851	1081.2	195.55
980.3511	2535.1735	1078	192.3
980.4781	2536.4952	1075.05	188.8
980.6052	2537.8163	1078.05	190.85
980.7321	2539.1366	1074.65	189.4
980.8591	2540.4562	1074.45	190.5
980.986	2541.7752	1075	189.5
981.1129	2543.0935	1070.25	184.45
981.2397	2544.411	1074.5	188.3
981.3665	2545.7279	1072.1	187.8
981.4933	2547.0441	1068.9	183.05
981.62	2548.3596	1075.8	187.8
981.7467	2549.6744	1067.4	182.2
981.8734	2550.9885	1081.95	188.75
982.0001	2552.3019	1070.55	187.75
982.1267	2553.6146	1071.5	185.6
982.2532	2554.9266	1068.85	183.85
982.3798	2556.2379	1069	182.25
982.5063	2557.5485	1065.1	181.15
982.6327	2558.8585	1074.75	180.4
982.7592	2560.1677	1075.5	184.9
982.8856	2561.4762	1070.1	185.45
983.0119	2562.7841	1072.55	184.35
983.1383	2564.0913	1067.9	185.5
983.2646	2565.3977	1062.45	177.55
983.3908	2566.7035	1063.65	179.3
983.517	2568.0086	1069.2	183.95
983.6432	2569.313	1068.05	179.6
983.7694	2570.6167	1068.8	179.3
983.8955	2571.9197	1058.25	172.25
984.0216	2573.222	1065.75	177.95
984.1476	2574.5236	1063.75	179.2
984.2737	2575.8246	1063.3	175.65
984.3996	2577.1248	1064.05	177.3
984.5256	2578.4244	1060.45	176.35
984.6515	2579.7232	1060.5	174.65
984.7774	2581.0214	1090.45	172.95
984.9032	2582.3189	1059.3	176.95
985.029	2583.6157	1075.05	175.15
985.1548	2584.9118	1062.65	177.35
985.2806	2586.2072	1053.6	169.45
985.4063	2587.5019	1056.35	172.3
985.5319	2588.7959	1063.35	177.25
985.6576	2590.0893	1062.35	174.6
985.7832	2591.3819	1057	173.75
985.9087	2592.6739	1055.5	170.55
986.0343	2593.9652	1058.85	173.1
986.1597	2595.2557	1059.05	175.25
986.2852	2596.5456	1056.55	168.85
986.4106	2597.8348	1055.8	171.1
986.536	2599.1234	1053.7	169.5
986.6614	2600.4112	1056.85	171.75
986.7867	2601.6983	1056.1	167.05
986.912	2602.9848	1059.65	174.45
987.0372	2604.2705	1061	168.05
987.1624	2605.5556	1055.4	169.6
987.2876	2606.84	1057.35	171.55
987.4128	2608.1237	1054.15	168.95
987.5379	2609.4067	1050.3	162.95
987.6629	2610.689	1061.4	167.55
987.788	2611.9707	1054.05	165.15
987.913	2613.2516	1053.1	164.05
988.0379	2614.5319	1048.1	163.25
988.1629	2615.8115	1045.35	160
988.2878	2617.0903	1045.8	160.3
988.4126	2618.3685	1049.25	163.75
988.5375	2619.6461	1044.7	157.65
988.6622	2620.9229	1045.75	160.6
988.787	2622.199	1044	158.35
988.9117	2623.4745	1043.8	158.2
989.0364	2624.7493	1042	157.25
989.161	2626.0234	1044.45	159
989.2857	2627.2968	1047.8	163.2
989.4102	2628.5695	1045.5	159.25
989.5348	2629.8415	1039.4	154.1
989.6593	2631.1128	1041.3	154.1
989.7837	2632.3835	1040.55	155.6
989.9082	2633.6535	1037.9	153
990.0326	2634.9228	1040.1	155.8
990.1569	2636.1914	1041.9	157.7
990.2812	2637.4593	1044.3	154.6
990.4055	2638.7265	1037.1	151.65
990.5298	2639.9931	1036.05	150.75
990.654	2641.259	1039.75	153.75
990.7782	2642.5242	1037.05	150.1
990.9023	2643.7887	1036.2	149.7
991.0264	2645.0525	1036.25	152.1
991.1505	2646.3156	1051.5	151.75
991.2745	2647.5781	1033.9	149.1
991.3985	2648.8398	1027.6	143
991.5225	2650.1009	1040.4	149.4
991.6464	2651.3613	1036.55	150.95
991.7703	2652.6211	1030.35	143.9
991.8942	2653.8801	1029	145.9
992.018	2655.1385	1029.9	141.85
992.1418	2656.3961	1029.1	143.95
992.2655	2657.6531	1028.05	144.5
992.3892	2658.9094	1031.25	145.55
992.5129	2660.1651	1032.15	150.2
992.6366	2661.42	1031.6	144.9
992.7602	2662.6743	1027.7	142.95
992.8837	2663.9279	1025.85	141.7
993.0073	2665.1808	1025.6	140.85
993.1307	2666.433	1028.1	139.7
993.2542	2667.6846	1027.15	141.35
993.3776	2668.9354	1032.25	143.35
993.501	2670.1856	1030.1	145.55
993.6244	2671.4351	1026	140.45
993.7477	2672.6839	1030.2	144.55
993.8709	2673.9321	1025.2	140.55
993.9942	2675.1795	1029.3	142.1
994.1174	2676.4263	1026.55	143.15
994.2405	2677.6724	1028.15	141.95
994.3637	2678.9179	1021.95	137.3
994.4868	2680.1626	1025.25	139.6
994.6098	2681.4067	1026.65	141.9
994.7328	2682.6501	1026.5	141.05
994.8558	2683.8928	1027.55	142.8
994.9788	2685.1348	1019.3	134.05
995.1017	2686.3761	1022.2	134.45
995.2245	2687.6168	1020.95	136.1
995.3474	2688.8568	1021	135.4
995.4702	2690.0961	1019.15	136.5
995.5929	2691.3348	1023.55	139.4
995.7156	2692.5727	1020	135.8
995.8383	2693.81	1016.7	130.65
995.961	2695.0466	1018.1	135.35
996.0836	2696.2826	1017.7	132.25
996.2062	2697.5178	1017.25	130.2
996.3287	2698.7524	1017.95	135.05
996.4512	2699.9863	1017.3	129.25
996.5737	2701.2195	1015.95	131.95
996.6961	2702.452	1016.6	130.4
996.8185	2703.6839	1016.6	131.1
996.9408	2704.9151	1012.1	131.65
997.0631	2706.1456	1016.35	131
997.1854	2707.3755	1021.75	135.8
997.3077	2708.6046	1019.3	128.5
997.4299	2709.8331	1016.4	129.7
997.552	2711.0609	1012.7	127.5
997.6742	2712.2881	1018.35	132.4
997.7963	2713.5145	1017.4	129.8
997.9183	2714.7403	1014.95	129.9
998.0403	2715.9654	1012.75	127
998.1623	2717.1899	1032.75	132.15
998.2842	2718.4136	1018.4	133.3
998.4062	2719.6367	1022.1	137.3
998.528	2720.8591	1026.9	135.45
998.6498	2722.0809	1019.7	134.35
998.7716	2723.3019	1022.25	134.95
998.8934	2724.5223	1025.3	139.65
999.0151	2725.7421	1020.65	134.55
999.1368	2726.9611	1022.05	133.25
999.2584	2728.1795	1021	131.65
999.38	2729.3972	1017.9	132.25
999.5016	2730.6142	1029.9	132.4
999.6231	2731.8306	1018.05	131.65
999.7446	2733.0462	1014.05	126.2
999.8661	2734.2612	1017.85	128.35
999.9875	2735.4756	1009.95	122.25
1000.1089	2736.6892	1007.75	122.1
1000.2302	2737.9022	1004.35	120.7
1000.3515	2739.1145	1005.85	120.45
1000.4728	2740.3262	1010.7	116.15
1000.594	2741.5372	1000.45	116.55
1000.7152	2742.7475	1005.6	119.6
1000.8363	2743.9571	1005.4	117.2
1000.9575	2745.1661	1008.45	119.75
1001.0785	2746.3744	999	113.3
1001.1996	2747.582	1000.5	116.7
1001.3206	2748.7889	1003	116.85
1001.4415	2749.9952	997.85	113.1
1001.5625	2751.2008	999.8	113.6
1001.6833	2752.4057	998.9	113.2
1001.8042	2753.61	998	112.9
1001.925	2754.8136	995.8	108.5
1002.0458	2756.0165	997.8	113.8
1002.1665	2757.2188	998.65	116.1
1002.2872	2758.4204	996.75	111.5
1002.4078	2759.6213	996.5	109.1
1002.5285	2760.8215	999.65	111.3
1002.649	2762.0211	994.5	107.45
1002.7696	2763.22	995	105.3
1002.8901	2764.4182	993.45	108.4
1003.0106	2765.6158	992.75	105.7
1003.131	2766.8127	992.45	104.65
1003.2514	2768.009	992.1	106.45
1003.3717	2769.2045	990	102.4
1003.492	2770.3994	991.3	104.85
1003.6123	2771.5936	989.6	103.1
1003.7325	2772.7872	989.45	106.15
1003.8527	2773.9801	992.45	105.35
1003.9729	2775.1723	1005.3	101.7
1004.093	2776.3639	985.9	101.65
1004.2131	2777.5548	987.3	99.2
1004.3331	2778.745	987.3	101.05
1004.4531	2779.9346	986.35	101.95
1004.5731	2781.1235	988.8	101.05
1004.693	2782.3117	984.1	100.55
1004.8129	2783.4992	985.9	100.15
1004.9328	2784.6861	986.6	101.85
1005.0526	2785.8723	985.1	98.75
1005.1723	2787.0579	987.5	100.15
1005.2921	2788.2428	985.45	99.25
1005.4118	2789.427	985.15	100.85
1005.5314	2790.6106	985.7	101.65
1005.651	2791.7935	984.95	97.2
1005.7706	2792.9757	984.8	100.7
1005.8902	2794.1573	985	99.05
1006.0097	2795.3382	985.65	99.7
1006.1291	2796.5184	984.45	101
1006.2485	2797.698	984.65	97.85
1006.3679	2798.8769	981.95	97.55
1006.4873	2800.0551	982.85	98.25
1006.6066	2801.2327	987.3	99.85
1006.7258	2802.4096	978.25	92.95
1006.8451	2803.5859	981.45	95.55
1006.9642	2804.7615	983.95	98
1007.0834	2805.9364	984.15	99.7
1007.2025	2807.1106	984.55	99.45
1007.3216	2808.2842	985.5	99.2
1007.4406	2809.4572	987.95	104.05
1007.5596	2810.6294	990.4	104.1
1007.6785	2811.801	983.95	100.7
1007.7975	2812.972	988.55	103.15
1007.9163	2814.1423	994.95	109.2
1008.0352	2815.3119	992.9	106.9
1008.154	2816.4808	996.9	112.55
1008.2727	2817.6491	999.1	113.8
1008.3914	2818.8167	999.95	115.55
1008.5101	2819.9837	1004.85	114
1008.6288	2821.15	1010.4	125.05
1008.7474	2822.3157	1017.2	133.55
1008.8659	2823.4807	1024.55	138.2
1008.9844	2824.645	1032.5	147.5
1009.1029	2825.8086	1036.55	152.4
1009.2214	2826.9716	1047.45	164.45
1009.3398	2828.134	1054.65	169.95
1009.4581	2829.2957	1060.3	174
1009.5764	2830.4567	1068.25	186
1009.6947	2831.617	1078.1	191.6
1009.813	2832.7767	1075.35	192.7
1009.9312	2833.9358	1076.75	191.4
1010.0493	2835.0941	1075.95	188.9
1010.1675	2836.2519	1070.9	187.15
1010.2855	2837.4089	1069.05	180.95
1010.4036	2838.5653	1060.05	176.5
1010.5216	2839.7211	1059.15	174.95
1010.6396	2840.8761	1057.6	169.55
1010.7575	2842.0306	1051.4	167.7
1010.8754	2843.1843	1055.95	170.55
1010.9932	2844.3374	1058.6	173.45
1011.111	2845.4899	1059.85	174.1
1011.2288	2846.6417	1060.45	175.35
1011.3465	2847.7928	1061.4	178.5
1011.4642	2848.9433	1064.95	179.25
1011.5818	2850.0931	1060.05	174
1011.6995	2851.2422	1065.8	178.8
1011.817	2852.3907	1060.5	174.45
1011.9345	2853.5385	1066.75	179.9
1012.052	2854.6857	1073.3	178.95
1012.1695	2855.8323	1066.6	181.25
1012.2869	2856.9781	1067.45	182.65
1012.4042	2858.1233	1075.95	189.7
1012.5216	2859.2679	1076.75	193
1012.6389	2860.4118	1080.6	195.7
1012.7561	2861.555	1084.55	195.15
1012.8733	2862.6976	1085	196.95
1012.9905	2863.8395	1082.3	196.7
1013.1076	2864.9808	1089.2	203.9
1013.2247	2866.1214	1089.8	206.15
1013.3417	2867.2614	1096.75	210.15
1013.4587	2868.4007	1099.15	214
1013.5757	2869.5393	1102.75	216.7
1013.6926	2870.6773	1100.4	212.15
1013.8095	2871.8146	1107.35	217.25
1013.9263	2872.9513	1102.15	214.55
1014.0431	2874.0874	1109.25	223.85
1014.1599	2875.2227	1106.4	222.8
1014.2766	2876.3574	1112.8	229.6
1014.3933	2877.4915	1108.25	223.9
1014.51	2878.6249	1106.45	221.55
1014.6266	2879.7577	1116.3	229.5
1014.7431	2880.8898	1130.6	232.85
1014.8596	2882.0212	1117.85	232.65
1014.9761	2883.152	1127.7	242.4
1015.0925	2884.2821	1127.25	243.3
1015.2089	2885.4116	1125.75	241
1015.3253	2886.5405	1129.35	243.3
1015.4416	2887.6686	1129.75	242
1015.5579	2888.7962	1126.2	242.75
1015.6741	2889.923	1133.9	248.2
1015.7903	2891.0493	1130.2	246.2
1015.9065	2892.1748	1126.75	241.65
1016.0226	2893.2997	1128.05	241.8
1016.1387	2894.424	1127.85	244.55
1016.2547	2895.5476	1125.95	241.7
1016.3707	2896.6706	1133.2	249.15
1016.4866	2897.7929	1131.5	246.25
1016.6025	2898.9145	1131.1	246.4
1016.7184	2900.0355	1131	246.45
1016.8342	2901.1559	1128.75	243.2
1016.95	2902.2756	1128.8	240.25
1017.0658	2903.3946	1127.5	241.25
1017.1815	2904.513	1124.55	237.1
1017.2971	2905.6308	1120.35	236.95
1017.4127	2906.7479	1121.25	235.5
1017.5283	2907.8643	1123.2	237.75
1017.6439	2908.9801	1117.8	232.55
1017.7594	2910.0953	1119.35	234.7
1017.8748	2911.2098	1122.7	234.2
1017.9902	2912.3236	1123.65	231
1018.1056	2913.4368	1114	225
1018.2209	2914.5494	1114.7	228.15
1018.3362	2915.6613	1119.7	228.95
1018.4515	2916.7725	1113.9	225.3
1018.5667	2917.8831	1108.35	224.9
1018.6819	2918.9931	1106.8	218.35
1018.797	2920.1024	1106.6	220.15
1018.9121	2921.211	1101.2	217.6
1019.0271	2922.319	1101.15	216
1019.1421	2923.4264	1089.7	206.85
1019.2571	2924.5331	1094.45	209.8
1019.372	2925.6391	1091.45	206.25
1019.4869	2926.7445	1089.05	205.3
1019.6017	2927.8493	1095	209.9
1019.7165	2928.9534	1098.8	212.35
1019.8313	2930.0569	1097.55	210.55
1019.946	2931.1597	1093.6	209.5
1020.0606	2932.2619	1094.05	208.4
1020.1753	2933.3634	1094.95	210.85
1020.2899	2934.4643	1108.15	217
1020.4044	2935.5645	1108.3	215.45
1020.5189	2936.6641	1105.75	216
1020.6334	2937.763	1104.55	220.6
1020.7478	2938.8613	1101.7	217.2
1020.8622	2939.959	1107.7	219.4
1020.9765	2941.056	1097.85	214.9
1021.0908	2942.1523	1091.1	204.5
1021.2051	2943.248	1084.45	198.55
1021.3193	2944.3431	1078.45	193.8
1021.4334	2945.4375	1070.3	184.6
1021.5476	2946.5313	1062.6	177.2
1021.6617	2947.6244	1049.95	163.7
1021.7757	2948.7169	1046.9	160.6
1021.8897	2949.8087	1040.95	156.6
1022.0037	2950.8999	1033.85	147.35
1022.1176	2951.9904	1029.9	147.45
1022.2315	2953.0803	1022.85	137.9
1022.3453	2954.1696	1017.25	131.75
1022.4591	2955.2582	1009.9	125.65
1022.5728	2956.3462	1010.05	124.4
1022.6865	2957.4335	1007.1	120.35
1022.8002	2958.5202	1006.75	120.4
1022.9138	2959.6062	1007.2	122.1
1023.0274	2960.6916	1008.85	126.25
1023.141	2961.7764	1010	124.3
1023.2545	2962.8605	1006.3	122
1023.3679	2963.9439	1004.5	118.7
1023.4813	2965.0267	1011.65	125.75
1023.5947	2966.1089	1028.15	120.05
1023.708	2967.1905	1004.05	120.9
1023.8213	2968.2714	1000.75	116.6
1023.9346	2969.3516	1003.2	117.35
1024.0478	2970.4312	1007.3	114.2
1024.1609	2971.5102	1005.25	119.55
1024.274	2972.5885	998.55	114.95
1024.3871	2973.6662	1002	111.15
1024.5002	2974.7432	1001.65	118.3
1024.6132	2975.8196	999.35	115.25
1024.7261	2976.8954	997.65	113.75
1024.839	2977.9705	999.15	114.35
1024.9519	2979.045	999.3	115.75
1025.0647	2980.1188	1002.05	116.75
1025.1775	2981.192	999.3	114.95
1025.2902	2982.2645	999.55	114.3
1025.4029	2983.3364	999.25	115.25
1025.5156	2984.4077	991.25	106.65
1025.6282	2985.4783	998.2	109.65
1025.7407	2986.5483	984.8	101.75
1025.8532	2987.6177	984.95	101.25
1025.9657	2988.6864	984.3	100.25
1026.0782	2989.7545	983.25	98.15
1026.1906	2990.8219	977.85	94.65
1026.3029	2991.8887	978.8	90.8
1026.4152	2992.9548	976.1	89.15
1026.5275	2994.0204	971.05	87.85
1026.6397	2995.0852	965.15	83.05
1026.7519	2996.1495	966.95	80.3
1026.864	2997.2131	968.05	83.35
1026.9761	2998.276	958.5	72.85
1027.0882	2999.3383	956.1	70.8
1027.2002	3000.4	957.1	71.15
1027.3122	3001.4611	952	66.7
1027.4241	3002.5215	950.5	66.55
1027.536	3003.5812	949.5	64.25
1027.6478	3004.6404	946.45	62.75
1027.7596	3005.6989	949.1	62.25
1027.8714	3006.7567	944.3	60.3
1027.9831	3007.8139	963.45	56.8
1028.0947	3008.8705	942.3	56.25
1028.2064	3009.9264	944.6	55.95
1028.3179	3010.9818	939.75	54.7
1028.4295	3012.0364	938.55	54.75
1028.541	3013.0905	939.1	55.65
1028.6524	3014.1439	941.95	57.25
1028.7638	3015.1966	939.25	54.75
1028.8752	3016.2487	937.9	53.5
1028.9865	3017.3002	942	54.8
1029.0978	3018.3511	935.95	52.5
1029.209	3019.4013	940.45	54.95
1029.3202	3020.4509	937.8	52.75
1029.4314	3021.4998	935.65	50.95
1029.5425	3022.5481	936.15	51.4
1029.6535	3023.5958	935.2	50.95
1029.7645	3024.6428	936.35	49.4
1029.8755	3025.6892	934.95	51.05
1029.9864	3026.735	935.7	49.4
1030.0973	3027.7802	936.2	51.1
1030.2082	3028.8247	937.15	52.75
1030.319	3029.8685	935.45	51.9
1030.4297	3030.9118	935.3	48.8
1030.5404	3031.9544	935.25	51.3
1030.6511	3032.9963	936.7	53.05
1030.7617	3034.0376	934.6	51.8
1030.8723	3035.0783	936	47.75
1030.9829	3036.1184	936.9	51.8
1031.0934	3037.1578	933.05	49.85
1031.2038	3038.1966	937.7	52
1031.3142	3039.2348	931.75	47.3
1031.4246	3040.2723	943.5	49.4
1031.5349	3041.3092	934.95	48.35
1031.6452	3042.3455	932.7	48.7
1031.7554	3043.3811	933.3	48.05
1031.8656	3044.4161	933.9	47.6
1031.9758	3045.4505	933.1	48.4
1032.0859	3046.4842	935.35	50.05
1032.1959	3047.5173	934.4	51.45
1032.3059	3048.5498	934.5	51.6
1032.4159	3049.5816	931.35	46.85
1032.5258	3050.6128	936.75	50.85
1032.6357	3051.6434	933	46.85
1032.7455	3052.6734	935.95	49.7
1032.8553	3053.7027	930.65	44.75
1032.9651	3054.7314	935.5	53.4
1033.0748	3055.7594	934.25	47.95
1033.1845	3056.7868	933.95	48.65
1033.2941	3057.8136	934.6	48.8
1033.4037	3058.8398	932.95	47.9
1033.5132	3059.8653	934.2	50.05
1033.6227	3060.8902	932.85	49.55
1033.7321	3061.9145	934.2	50.2
1033.8415	3062.9381	936	51.7
1033.9509	3063.9612	950.3	47.65
1034.0602	3064.9835	933.55	48.75
1034.1694	3066.0053	938.25	50.9
1034.2787	3067.0264	935.35	51.4
1034.3878	3068.0469	934	47.55
1034.497	3069.0668	936.7	48.15
1034.6061	3070.086	932.75	49.45
1034.7151	3071.1046	935.65	48.8
1034.8241	3072.1226	935.4	48.8
1034.9331	3073.1399	933.1	49.55
1035.042	3074.1567	932.75	46.35
1035.1508	3075.1727	932.65	46.1
1035.2597	3076.1882	929.45	44.75
1035.3684	3077.203	934.15	50.8
1035.4772	3078.2173	931.5	45.15
1035.5859	3079.2308	932.85	43.75
1035.6945	3080.2438	927.2	41.2
1035.8031	3081.2561	924.1	38.8
1035.9117	3082.2678	928.15	43.35
1036.0202	3083.2789	926.85	41.5
1036.1286	3084.2893	924.1	40.2
1036.2371	3085.2991	926.75	42.8
1036.3454	3086.3083	929.85	40.6
1036.4538	3087.3169	924.85	38.75
1036.562	3088.3248	924.85	39.6
1036.6703	3089.3321	926.45	40.7
1036.7785	3090.3388	924.55	39.9
1036.8866	3091.3449	924.85	39.95
1036.9948	3092.3503	926.35	39.8
1037.1028	3093.3551	921.7	37.9
1037.2108	3094.3593	920.15	37.35
1037.3188	3095.3629	921.65	35.95
1037.4267	3096.3658	923.2	37.35
1037.5346	3097.3681	921.65	35.9
1037.6425	3098.3698	922.25	35.1
1037.7503	3099.3708	928.75	35.7
1037.858	3100.3713	918.7	33.1
1037.9657	3101.3711	921.3	33.8
1038.0734	3102.3702	1058.25	36.4
1038.181	3103.3688	920.1	34.95
1038.2886	3104.3667	919	38.25
1038.3961	3105.364	918.7	34.55
1038.5036	3106.3607	917.65	31.65
1038.611	3107.3568	920.5	33.5
1038.7184	3108.3522	917.95	34.75
1038.8257	3109.347	919.05	34.2
1038.933	3110.3412	921.65	33.45
1039.0403	3111.3348	918.6	34.3
1039.1475	3112.3277	916.15	32.25
1039.2547	3113.32	916.2	32.6
1039.3618	3114.3117	917.65	33.2
1039.4689	3115.3028	914.6	29.7
1039.5759	3116.2932	917.2	31.3
1039.6829	3117.2831	921.8	33.3
1039.7898	3118.2723	914.1	28.6
1039.8967	3119.2608	916.2	32.05
1040.0035	3120.2488	913.2	29.6
1040.1103	3121.2361	912.6	26.6
1040.2171	3122.2229	914.1	31
1040.3238	3123.209	915.25	29.05
1040.4305	3124.1944	911.55	28.25
1040.5371	3125.1793	916.6	30.9
1040.6437	3126.1635	911.85	28.6
1040.7502	3127.1471	913.75	30.55
1040.8567	3128.1301	915.6	30.55
1040.9631	3129.1125	911.4	27.65
1041.0695	3130.0942	912.85	27.45
1041.1759	3131.0753	919.45	25.5
1041.2822	3132.0558	916.9	28.7
1041.3884	3133.0357	911.1	25.45
1041.4946	3134.015	912.95	27.7
1041.6008	3134.9936	914.85	29.5
1041.7069	3135.9716	934.3	28.3
1041.813	3136.949	910.3	24.8
1041.919	3137.9258	929.1	26
1042.025	3138.902	914.05	25.1
1042.1309	3139.8775	911.1	28.5
1042.2368	3140.8524	911.45	27.25
1042.3427	3141.8267	913.7	28.2
1042.4485	3142.8004	910.3	24.9
1042.5542	3143.7735	916.95	25.15
1042.6599	3144.7459	910.6	24.25
1042.7656	3145.7178	911.05	24.6
1042.8712	3146.689	910.25	28.25
1042.9768	3147.6596	912.25	26.6
1043.0823	3148.6295	908.65	21.4
1043.1878	3149.5989	906.6	22.3
1043.2932	3150.5676	908.8	24.75
1043.3986	3151.5357	908.3	25.7
1043.5039	3152.5032	907.8	22.4
1043.6092	3153.4701	907.9	23.5
1043.7145	3154.4364	908.9	21.8
1043.8197	3155.402	907.8	23.55
1043.9248	3156.367	911.25	24.5
1044.03	3157.3315	943.65	22.15
1044.135	3158.2952	909.9	24.4
1044.24	3159.2584	907.95	22.6
1044.345	3160.221	908.85	23.8
1044.4499	3161.1829	904.25	18.4
1044.5548	3162.1442	908.8	23.15
1044.6596	3163.105	905.9	22.85
1044.7644	3164.065	907.7	23.05
1044.8692	3165.0245	909.35	23
1044.9739	3165.9834	904.5	22.3
1045.0785	3166.9416	905.1	21.4
1045.1831	3167.8993	908.15	22.95
1045.2877	3168.8563	906.7	21.8
1045.3922	3169.8127	905.05	22.05
1045.4966	3170.7684	906.05	22.35
1045.6011	3171.7236	907.55	21.9
1045.7054	3172.6782	905.65	22.1
1045.8098	3173.6321	906.2	22.45
1045.914	3174.5854	908	18.4
1046.0183	3175.5381	905.05	20.85
1046.1224	3176.4902	904.7	22
1046.2266	3177.4417	903.3	19.65
1046.3307	3178.3926	902.45	18.45
1046.4347	3179.3428	904.9	20.65
1046.5387	3180.2924	905.6	22.3
1046.6427	3181.2415	905.75	22.5
1046.7466	3182.1899	906.15	21.2
1046.8504	3183.1377	903.55	18.9
1046.9542	3184.0848	908.75	19.4
1047.058	3185.0314	903.7	18.1
1047.1617	3185.9773	905.35	19.85
1047.2654	3186.9227	905.5	22.1
1047.369	3187.8674	903.65	18
1047.4726	3188.8115	907	18.6
1047.5761	3189.755	905.05	19.95
1047.6796	3190.6979	905.7	19.25
1047.783	3191.6402	904	20.9
1047.8864	3192.5818	902.7	18.55
1047.9898	3193.5229	911.4	19.9
1048.0931	3194.4633	902.9	16.55
1048.1963	3195.4031	904	19.1
1048.2995	3196.3423	900.1	15.3
1048.4027	3197.2809	900.7	15.2
1048.5058	3198.2189	904.35	21.15
1048.6089	3199.1563	918.3	15
1048.7119	3200.0931	901.75	15.15
1048.8148	3201.0292	901.6	18.3
1048.9178	3201.9648	901.35	18.5
1049.0206	3202.8997	906.3	19.45
1049.1235	3203.834	901.55	17.6
1049.2262	3204.7677	901.3	17.15
1049.329	3205.7008	903.9	17.25
1049.4317	3206.6333	902.8	18
1049.5343	3207.5652	903.8	18.3
1049.6369	3208.4964	901.2	17.05
1049.7394	3209.4271	902.65	19.6
1049.8419	3210.3571	900.6	16.2
1049.9444	3211.2865	901.2	14.55
1050.0468	3212.2154	904.25	18.45
1050.1491	3213.1436	903.2	14.8
1050.2514	3214.0712	908.4	17.9
1050.3537	3214.9982	901.9	17.9
1050.4559	3215.9246	902.75	17.1
1050.5581	3216.8503	900.45	17.8
1050.6602	3217.7755	901.6	16.55
1050.7623	3218.7001	900.1	13.3
1050.8643	3219.624	898.6	14.75
1050.9663	3220.5473	900.3	14.85
1051.0682	3221.4701	901.55	17.55
1051.1701	3222.3922	904.35	16.45
1051.2719	3223.3137	900.3	16.45
1051.3737	3224.2346	900.45	13.4
1051.4754	3225.1549	900.45	17.15
1051.5771	3226.0746	900.35	16.6
1051.6788	3226.9937	900.55	15.8
1051.7804	3227.9121	898.8	14.95
1051.8819	3228.83	900.2	14.75
1051.9834	3229.7473	900.55	16.15
1052.0849	3230.6639	900.5	15.3
1052.1863	3231.5799	899.9	17.1
1052.2876	3232.4954	901	14.3
1052.3889	3233.4102	898.7	13.85
1052.4902	3234.3244	901.4	18.3
1052.5914	3235.238	900	13.9
1052.6926	3236.151	915.95	15.1
1052.7937	3237.0634	899.85	16
1052.8948	3237.9752	901.1	15.75
1052.9958	3238.8864	899.2	14.05
1053.0968	3239.797	899.35	12.9
1053.1977	3240.7069	899.5	13.35
1053.2986	3241.6163	899.1	12.75
1053.3994	3242.5251	897.15	15.95
1053.5002	3243.4332	897.45	13.5
1053.6009	3244.3408	898.75	15.2
1053.7016	3245.2477	898.45	12.95
1053.8022	3246.154	898.85	12.55
1053.9028	3247.0598	901	14.9
1054.0034	3247.9649	898.15	13.7
1054.1039	3248.8694	898.15	13.7
1054.2043	3249.7733	895.6	11.25
1054.3047	3250.6766	897.25	13.8
1054.4051	3251.5793	898.6	12.65
1054.5054	3252.4814	898.9	14.8
1054.6056	3253.3829	896.65	13.45
1054.7058	3254.2838	898.65	13.6
1054.806	3255.1841	895.4	11.55
1054.9061	3256.0838	897.85	11.45
1055.0061	3256.9829	897.35	15.3
1055.1062	3257.8814	898.6	11.5
1055.2061	3258.7792	899.95	13.85
1055.306	3259.6765	897.4	12.4
1055.4059	3260.5731	895.3	10.7
1055.5057	3261.4692	896	12.7
1055.6055	3262.3647	897.9	12.55
1055.7052	3263.2595	895.45	11.4
1055.8049	3264.1538	895.7	11.45
1055.9045	3265.0474	896.1	9.9
1056.0041	3265.9404	894.8	9.35
1056.1036	3266.8329	895.25	11.05
1056.2031	3267.7247	904.6	6.95
1056.3025	3268.616	894.4	11.85
1056.4019	3269.5066	894.5	9.6
1056.5013	3270.3966	896.3	10.15
1056.6005	3271.286	892.65	8.85
