Software Version:	3.9.2.0
Unit SN:	10000200
Spectrometer SN:	6960
Date:	3/26/2024 1:26:47 PM
Data Line Index:	25
Spectral Points:	2048
Integration time (ms):	125
Averages:	20
Delay (ms):	30000
Sequence Number:	1
Processing:	dark subtract
Laser Power (mW):	305
Laser Current (mA):	821
Laser Diode Temp (C):	25
Laser Case Temp (C):	26.8
System Temp (C):	26.7
Spectrometer Temp (C):	24.5
CCD Temp (C):	0.007
Secondary Temp (C):	20.008
Heatsink Temp (C):	22.364
CCDPCB Temp (C):	36.54
SecondaryPCB Temp (C):	33.939

Wavelength	RamanShift	Raw Counts	Dark Subtracted
787.061	30.1047	496.2	85.95
787.2016	32.3739	499.35	90
787.3422	34.6426	501.9	90.75
787.4828	36.9109	514.2	103.05
787.6235	39.1787	520.8	103.8
787.7642	41.4461	531.45	111.15
787.9049	43.7131	541.9	116.7
788.0456	45.9796	551.5	123
788.1863	48.2456	567.7	135.95
788.3271	50.5112	575.85	137.75
788.4679	52.7764	583.65	146.25
788.6087	55.0411	602.6	160.3
788.7496	57.3054	611.05	165.35
788.8904	59.5692	624.25	176.95
789.0313	61.8326	639.15	184.7
789.1722	64.0955	658.45	200.05
789.3132	66.3579	680.25	219.6
789.4541	68.6199	703.2	240.55
789.5951	70.8815	742.75	275.75
789.7361	73.1426	829.8	360.45
789.8771	75.4032	1048.95	572.6
790.0181	77.6634	1583.95	1102
790.1592	79.9231	2879.5	2392.65
790.3003	82.1824	5720.2	5221.4
790.4414	84.4412	10943.45	10429.85
790.5825	86.6995	18315.85	17780.3
790.7237	88.9574	25706.9	25152.9
790.8648	91.2148	31144.65	30577.15
791.006	93.4717	34013.9	33437.55
791.1472	95.7282	35219	34637.45
791.2885	97.9842	35662.35	35076.85
791.4297	100.2398	35743	35152.8
791.571	102.4949	35620.55	35027.35
791.7123	104.7495	35541.15	34945.65
791.8536	107.0036	35268.55	34669.65
791.9949	109.2573	35248	34652.05
792.1363	111.5105	35008.5	34410.2
792.2777	113.7632	34924.9	34325.85
792.4191	116.0154	34930.05	34317.35
792.5605	118.2672	35027.4	34426.1
792.7019	120.5185	34950	34343.3
792.8434	122.7693	34997.4	34387.15
792.9849	125.0197	34995.75	34383.3
793.1264	127.2696	34970.45	34358.9
793.2679	129.519	35121.05	34504.25
793.4094	131.7679	35153.3	34533.95
793.551	134.0163	34981.25	34357.5
793.6926	136.2642	34998.4	34369
793.8342	138.5117	35008.95	34376.5
793.9758	140.7587	34916.25	34278.25
794.1175	143.0052	34900.3	34265.75
794.2591	145.2512	34796.5	34160.9
794.4008	147.4967	34721.3	34089.85
794.5425	149.7417	34646.9	34009.85
794.6842	151.9863	34618.4	33976.15
794.826	154.2304	34581.75	33934
794.9677	156.4739	34476.35	33825.4
795.1095	158.717	34489.8	33835.5
795.2513	160.9596	34467.95	33809.95
795.3931	163.2017	34338.2	33679.35
795.535	165.4433	34303.2	33644.55
795.6768	167.6844	34215.7	33553.9
795.8187	169.925	34133.2	33469.95
795.9606	172.1651	33978.05	33311.85
796.1025	174.4047	33958.2	33287.45
796.2445	176.6439	33878.6	33205.9
796.3864	178.8825	33872.9	33197.55
796.5284	181.1206	33883.5	33203.35
796.6704	183.3582	33840.3	33155.05
796.8124	185.5954	33819.15	33134.8
796.9544	187.832	33803.55	33111.95
797.0965	190.0681	33818.7	33125.45
797.2386	192.3037	33882.85	33189.25
797.3806	194.5388	33905.85	33207.6
797.5228	196.7734	33894.1	33194.5
797.6649	199.0075	33958	33257.25
797.807	201.2411	34131.05	33424.6
797.9492	203.4742	34144.2	33439.7
798.0914	205.7068	34236.5	33530.45
798.2336	207.9389	34291.85	33583.25
798.3758	210.1704	34318.75	33607.45
798.518	212.4015	34358.45	33644.05
798.6603	214.632	34385.6	33670.85
798.8025	216.862	34464.45	33755.2
798.9448	219.0915	34474.5	33772.1
799.0871	221.3205	34516.35	33819.05
799.2294	223.549	34568.85	33876.15
799.3718	225.777	34616.5	33921.2
799.5141	228.0044	34654.1	33958.15
799.6565	230.2314	34731.2	34038.1
799.7989	232.4578	34732.85	34038.25
799.9413	234.6837	34788.55	34086.2
800.0837	236.909	34876.95	34172.7
800.2262	239.1339	34811.15	34085.75
800.3687	241.3582	34802.75	34084.55
800.5111	243.582	34801.05	34057.35
800.6536	245.8053	34831.5	34097.45
800.7961	248.0281	34800.15	34072.9
800.9387	250.2503	34789.8	34057.9
801.0812	252.472	34821.3	34081.3
801.2238	254.6932	34880.2	34142.55
801.3664	256.9139	34782	34040.35
801.509	259.134	34878.65	34130.7
801.6516	261.3536	34837.4	34093.1
801.7942	263.5727	35023.6	34275.85
801.9369	265.7912	34951	34205.6
802.0795	268.0092	35089.75	34344.2
802.2222	270.2267	35040.15	34297.8
802.3649	272.4436	35113.25	34361.7
802.5076	274.6601	35137.2	34384.1
802.6504	276.8759	35050.7	34300.3
802.7931	279.0913	35128.9	34375.15
802.9359	281.3061	35085.65	34328.95
803.0787	283.5204	35115.15	34359.2
803.2215	285.7341	35104.45	34342.8
803.3643	287.9473	35179.3	34407.7
803.5071	290.16	35155.7	34386.8
803.6499	292.3721	35125.9	34367.5
803.7928	294.5837	35135.45	34370.75
803.9357	296.7947	35112.75	34348.8
804.0786	299.0052	35175.2	34408.4
804.2215	301.2152	35114	34343.65
804.3644	303.4246	35115.4	34349.9
804.5074	305.6334	34981.75	34216.9
804.6503	307.8418	34927.95	34164
804.7933	310.0495	34841.45	34074.5
804.9363	312.2568	34678.2	33911
805.0793	314.4635	34520.9	33749.6
805.2223	316.6696	34441.35	33670.05
805.3653	318.8752	34323.55	33543.5
805.5084	321.0802	34209	33435.4
805.6514	323.2847	34216.35	33437.7
805.7945	325.4887	34179.85	33405
805.9376	327.692	34078.55	33298.65
806.0807	329.8949	34228.75	33452.35
806.2238	332.0972	34127.75	33348.2
806.367	334.2989	34119.9	33334.85
806.5101	336.5001	34010.9	33226.3
806.6533	338.7007	33978.4	33195.25
806.7965	340.9008	34014.4	33226.45
806.9397	343.1003	33921.85	33135.1
807.0829	345.2992	33906.7	33120.65
807.2261	347.4976	33866.65	33076.65
807.3693	349.6955	33758.8	32965.05
807.5126	351.8927	33856.85	33062.75
807.6559	354.0895	33758.2	32953.8
807.7991	356.2856	33755.45	32959.6
807.9424	358.4812	33699.9	32906.5
808.0857	360.6763	33772.45	32979.2
808.2291	362.8707	33653.05	32854.65
808.3724	365.0646	33693.15	32894.15
808.5158	367.258	33640.9	32840.6
808.6591	369.4508	33574.3	32769.3
808.8025	371.643	33621.45	32815.4
808.9459	373.8346	33500.05	32689.2
809.0893	376.0257	33534.05	32721.15
809.2327	378.2162	33476.55	32664.15
809.3762	380.4062	33481.95	32667.8
809.5196	382.5956	33371.8	32554.7
809.6631	384.7844	33381.8	32569
809.8066	386.9726	33244.75	32428.4
809.9501	389.1603	33163.8	32350.9
810.0936	391.3474	33122.6	32275.4
810.2371	393.5339	33112.05	32299.55
810.3806	395.7199	33005.8	32196.95
810.5241	397.9052	33009.3	32204.4
810.6677	400.09	32981.5	32173.3
810.8113	402.2743	32979.55	32175.25
810.9548	404.4579	32959.15	32154.85
811.0984	406.641	33035.55	32231.2
811.2421	408.8235	33063.7	32258.05
811.3857	411.0054	33121.9	32313.95
811.5293	413.1868	33245.35	32433.35
811.673	415.3675	33162.3	32346.05
811.8166	417.5477	33179.95	32364.9
811.9603	419.7273	33092.9	32279.15
812.104	421.9064	32992.05	32170.65
812.2477	424.0848	32856.4	32034.2
812.3914	426.2627	32808.4	31986.05
812.5351	428.4399	32714.4	31892.6
812.6788	430.6166	32597.7	31771.15
812.8226	432.7928	32487.45	31658.1
812.9663	434.9683	32318.3	31487.85
813.1101	437.1432	32226	31398
813.2539	439.3176	32134.7	31305.7
813.3977	441.4914	31988.35	31162.25
813.5415	443.6645	32031.7	31203.5
813.6853	445.8371	31880.8	31051.8
813.8291	448.0091	31718.8	30888.3
813.973	450.1806	31673.55	30844.2
814.1168	452.3514	31569.95	30741.65
814.2607	454.5216	31628.3	30791.35
814.4046	456.6913	31435.8	30603.4
814.5485	458.8603	31475.55	30643.65
814.6924	461.0288	31498.15	30668.35
814.8363	463.1967	31436.15	30608.6
814.9802	465.3639	31484.2	30649.5
815.1241	467.5306	31381.55	30548.7
815.2681	469.6967	31299.25	30465.75
815.412	471.8622	31259	30426.25
815.556	474.0271	31229.8	30396
815.7	476.1914	31257.75	30421.05
815.844	478.3551	31211.4	30376.35
815.988	480.5182	31271.75	30435.35
816.132	482.6807	31304.35	30472.2
816.276	484.8426	31317.45	30487.85
816.4201	487.0039	31422.8	30586.2
816.5641	489.1647	31515.5	30676.4
816.7082	491.3248	31592.2	30755.8
816.8522	493.4843	31559.2	30724.05
816.9963	495.6432	31571.4	30734.35
817.1404	497.8015	31425.65	30580.2
817.2845	499.9592	31414.95	30569.85
817.4286	502.1163	31326.6	30483.55
817.5727	504.2728	31208.5	30366.7
817.7168	506.4287	31209.3	30374.25
817.861	508.5839	31086.5	30248.95
818.0051	510.7386	31013	30174.75
818.1493	512.8927	30986.3	30134.75
818.2935	515.0461	30999.1	30156.45
818.4377	517.199	30957.5	30113.7
818.5818	519.3512	30934.25	30089.45
818.726	521.5029	31036.75	30184.25
818.8703	523.6539	31084.4	30236.3
819.0145	525.8043	31097.1	30250.05
819.1587	527.9541	31012.2	30161.5
819.303	530.1033	30932.15	30082.25
819.4472	532.2519	30893.5	30045.6
819.5915	534.3999	30831.25	29980.2
819.7357	536.5472	30817.05	29967.4
819.88	538.694	30854.7	30007.05
820.0243	540.8401	30926	30073.1
820.1686	542.9856	31001.7	30140.5
820.3129	545.1305	30928.15	30068.1
820.4572	547.2748	30994.55	30134.25
820.6016	549.4185	30924.35	30063.9
820.7459	551.5615	30794.7	29932.9
820.8902	553.704	30806.95	29946.05
821.0346	555.8458	30700.7	29841.7
821.1789	557.987	30807.55	29949.55
821.3233	560.1276	30788.6	29929.05
821.4677	562.2675	30897.45	30038.85
821.6121	564.4069	30976.75	30116.95
821.7565	566.5456	30977.7	30121.6
821.9009	568.6837	30999.1	30144.2
822.0453	570.8212	30850.7	29992.1
822.1897	572.958	30665.4	29804.9
822.3342	575.0942	30462.95	29606.75
822.4786	577.2299	30303	29447.45
822.6231	579.3648	30155.7	29303.85
822.7675	581.4992	30018.1	29169.85
822.912	583.6329	29986.25	29138.65
823.0565	585.766	30023.4	29176.35
823.201	587.8985	29939.3	29087.7
823.3454	590.0304	29921.9	29053.1
823.4899	592.1616	29892.3	29030.15
823.6345	594.2922	29794.9	28933
823.779	596.4222	29711.9	28846.2
823.9235	598.5515	29585.55	28716.95
824.068	600.6802	29523	28654.8
824.2126	602.8083	29405.15	28540.45
824.3571	604.9358	29401.2	28537.65
824.5017	607.0626	29283.25	28414.6
824.6462	609.1888	29238.95	28368.45
824.7908	611.3144	29274.45	28404.9
824.9354	613.4393	29284.3	28418.05
825.08	615.5636	29289.85	28419.8
825.2246	617.6873	29312.55	28443.2
825.3692	619.8103	29268.85	28399.9
825.5138	621.9327	29205.95	28337.5
825.6584	624.0544	29107.35	28241.4
825.803	626.1756	29046	28179.35
825.9477	628.2961	29011	28141.5
826.0923	630.4159	28934.65	28066
826.237	632.5351	28898.25	28026
826.3816	634.6537	28905.45	28033.55
826.5263	636.7716	28859.85	27986.55
826.6709	638.8889	28899.35	28023.2
826.8156	641.0056	28960.4	28086.45
826.9603	643.1216	28867.25	27990.3
827.105	645.237	28896.55	28021.35
827.2497	647.3518	28771.95	27902
827.3944	649.4659	28753.8	27882.45
827.5391	651.5793	28660	27789.95
827.6838	653.6922	28594.45	27721.9
827.8285	655.8043	28607.95	27736.35
827.9733	657.9159	28617.35	27744.1
828.118	660.0268	28464.2	27590.55
828.2627	662.137	28467.95	27593.65
828.4075	664.2466	28436.35	27552.75
828.5522	666.3556	28452.65	27574.6
828.697	668.4639	28349.45	27471.1
828.8418	670.5716	28336.35	27465.2
828.9865	672.6786	28321.2	27444.25
829.1313	674.785	28221.7	27342.25
829.2761	676.8907	28171.45	27295.15
829.4209	678.9958	28149.6	27275.9
829.5657	681.1002	28041.95	27165.95
829.7105	683.204	28073.55	27190.5
829.8553	685.3072	27998.05	27114.65
830.0001	687.4097	27921.5	27042.5
830.1449	689.5115	27916.3	27034.6
830.2898	691.6127	27937.75	27059.7
830.4346	693.7132	27867.5	26987.5
830.5794	695.8131	27910.65	27016.35
830.7243	697.9123	27890.7	27007.05
830.8691	700.0109	27817.9	26933.4
831.014	702.1089	27828.65	26948.4
831.1588	704.2061	27805.35	26923.6
831.3037	706.3028	27742.55	26860.05
831.4486	708.3987	27796	26912.55
831.5935	710.4941	27719.85	26836.35
831.7383	712.5887	27719.6	26837.35
831.8832	714.6827	27723.55	26835.4
832.0281	716.7761	27730	26849.3
832.173	718.8688	27738.5	26854.05
832.3179	720.9608	27716.15	26826.6
832.4628	723.0522	27727.65	26840.15
832.6077	725.1429	27640.7	26754.35
832.7527	727.233	27623.15	26737.65
832.8976	729.3224	27676.8	26789.65
833.0425	731.4112	27601.05	26716.8
833.1874	733.4993	27512.3	26623.45
833.3324	735.5867	27326.15	26440.05
833.4773	737.6735	27275.1	26386
833.6222	739.7596	27188.1	26296.3
833.7672	741.845	27132.7	26246.1
833.9122	743.9298	27065.8	26176.95
834.0571	746.014	27018	26131.25
834.2021	748.0974	26996.05	26105.6
834.347	750.1802	26932.85	26039.7
834.492	752.2624	26831.8	25941.45
834.637	754.3439	26721.25	25829.3
834.782	756.4247	26666.35	25766.3
834.9269	758.5048	26656	25765.95
835.0719	760.5843	26651.05	25756.15
835.2169	762.6631	26681.1	25788.75
835.3619	764.7413	26697.75	25808.4
835.5069	766.8188	26836.2	25940.25
835.6519	768.8956	26871.5	25980.4
835.7969	770.9718	26941.8	26050.8
835.9419	773.0473	26878.1	25988.5
836.0869	775.1221	26768.55	25878.6
836.232	777.1962	26630.65	25739.15
836.377	779.2697	26598.35	25701.25
836.522	781.3426	26566.35	25653.15
836.667	783.4147	26514.95	25618.2
836.8121	785.4862	26524.45	25631.8
836.9571	787.557	26429.45	25534.45
837.1021	789.6271	26229.05	25336.15
837.2472	791.6966	26059.1	25168.2
837.3922	793.7654	25841.7	24946.8
837.5373	795.8335	25753.45	24858.55
837.6823	797.901	25597.4	24703.05
837.8274	799.9678	25553.4	24657.85
837.9724	802.0339	25454.15	24559.7
838.1175	804.0993	25408.35	24503.85
838.2626	806.1641	25328.45	24433.2
838.4076	808.2282	25249.9	24355.2
838.5527	810.2916	25239.1	24343.85
838.6978	812.3544	25182.3	24290.25
838.8428	814.4164	25150.6	24255.45
838.9879	816.4778	25160.3	24263.3
839.133	818.5385	25093.15	24194.2
839.2781	820.5986	25081.55	24183.8
839.4232	822.658	25079.15	24179.8
839.5682	824.7166	25081.55	24184.15
839.7133	826.7747	25252.05	24356.05
839.8584	828.832	25316	24416.45
840.0035	830.8886	25253.1	24356.6
840.1486	832.9446	25306.25	24410.15
840.2937	834.9999	25217.45	24323.25
840.4388	837.0545	25099.05	24197.3
840.5839	839.1085	24989.35	24088.9
840.729	841.1618	24885.45	23982.3
840.8741	843.2143	24807.35	23910.85
841.0192	845.2662	24634.15	23737.45
841.1643	847.3175	24616.7	23721.2
841.3095	849.368	24537.75	23637.5
841.4546	851.4179	24423.05	23524.6
841.5997	853.467	24296.85	23401.8
841.7448	855.5155	24307.1	23409.8
841.8899	857.5633	24234.5	23337.4
842.0351	859.6105	24122.95	23222.2
842.1802	861.6569	24094.55	23193.75
842.3253	863.7027	24032.35	23130.05
842.4704	865.7478	24020.8	23119.25
842.6156	867.7922	23949.3	23047.35
842.7607	869.8359	23877.2	22976.45
842.9058	871.8789	23866.15	22962.85
843.0509	873.9212	23862.05	22929.45
843.1961	875.9629	23785.95	22882.75
843.3412	878.0039	23804.1	22903.1
843.4863	880.0441	23755.2	22856
843.6315	882.0837	23731.65	22831.6
843.7766	884.1226	23702.85	22798.85
843.9218	886.1609	23719.3	22820.05
844.0669	888.1984	23704.1	22802.55
844.212	890.2352	23732	22830.4
844.3572	892.2714	23699.25	22793.8
844.5023	894.3069	23624.7	22721.2
844.6475	896.3416	23472.9	22568.9
844.7926	898.3757	23432.4	22530.9
844.9377	900.4091	23382.55	22478.55
845.0829	902.4418	23328.95	22420.5
845.228	904.4739	23220.85	22315
845.3732	906.5052	23247.6	22342.75
845.5183	908.5358	23219.35	22317.5
845.6635	910.5658	23135.4	22229.9
845.8086	912.595	23025.55	22123.8
845.9538	914.6236	22913.6	22009.25
846.0989	916.6515	22877.5	21974.55
846.2441	918.6786	22811.4	21906.25
846.3892	920.7051	22737.4	21831.25
846.5344	922.7309	22775.3	21869.85
846.6795	924.756	22631.9	21727.6
846.8246	926.7804	22661	21756.85
846.9698	928.8041	22507.75	21601.15
847.1149	930.8272	22506.2	21600.95
847.2601	932.8495	22413.35	21505.75
847.4052	934.8711	22354.8	21448.65
847.5504	936.892	22278.2	21372.45
847.6955	938.9123	22161.9	21256
847.8407	940.9318	22139.8	21233.45
847.9858	942.9506	22093	21186.15
848.131	944.9688	21966.65	21061.1
848.2761	946.9862	21945.45	21039.2
848.4213	949.003	21792.35	20886.55
848.5664	951.019	21706.9	20803.1
848.7115	953.0344	21644.9	20740
848.8567	955.0491	21566.7	20662.45
849.0018	957.063	21591.6	20687.05
849.147	959.0763	21636.4	20727.9
849.2921	961.0888	21538.4	20632.2
849.4373	963.1007	21510.55	20605
849.5824	965.1119	21473	20571.1
849.7275	967.1223	21465.6	20567.85
849.8727	969.1321	21382.55	20484.3
850.0178	971.1412	21347.1	20446
850.1629	973.1495	21290.4	20384.7
850.3081	975.1572	21235.6	20313.1
850.4532	977.1641	21196.7	20292.35
850.5983	979.1704	21121.4	20217.7
850.7435	981.1759	21013.85	20104.8
850.8886	983.1808	21043.1	20134.5
851.0337	985.1849	20955.9	20036.15
851.1788	987.1884	20913.05	20003.75
851.324	989.1911	20949.45	20040.65
851.4691	991.1932	20905.3	19999.8
851.6142	993.1945	20788.7	19881.85
851.7593	995.1951	20685.2	19776.8
851.9045	997.1951	20668.15	19757.55
852.0496	999.1943	20574.3	19666.05
852.1947	1001.1928	20463	19557.65
852.3398	1003.1906	20387.4	19479.85
852.4849	1005.1877	20389.05	19482
852.63	1007.1841	20327.95	19423.6
852.7751	1009.1798	20250.8	19344.05
852.9202	1011.1748	20184.9	19279.7
853.0653	1013.1691	20078.9	19170.25
853.2104	1015.1627	19973.25	19068.8
853.3555	1017.1556	19802.25	18896.55
853.5006	1019.1477	19690.65	18781.6
853.6457	1021.1392	19585.45	18679.65
853.7908	1023.1299	19497.15	18593.2
853.9359	1025.12	19446.5	18545.3
854.081	1027.1093	19337.9	18441.2
854.2261	1029.0979	19311.05	18418.15
854.3712	1031.0859	19256.55	18358.35
854.5163	1033.0731	19247.2	18344.5
854.6613	1035.0596	19179.75	18277.95
854.8064	1037.0454	19041.15	18136.1
854.9515	1039.0304	18994.65	18087.15
855.0965	1041.0148	18878.15	17973.45
855.2416	1042.9985	18769.15	17859.8
855.3867	1044.9814	18743.9	17842.5
855.5317	1046.9636	18647.8	17742.05
855.6768	1048.9452	18563.4	17659.8
855.8219	1050.926	18567.6	17663.5
855.9669	1052.9061	18502.5	17597.75
856.112	1054.8855	18455	17545.9
856.257	1056.8642	18455.65	17548.3
856.4021	1058.8421	18422.7	17514.15
856.5471	1060.8194	18337.3	17428.25
856.6921	1062.7959	18334.1	17426.45
856.8372	1064.7717	18303.95	17397.3
856.9822	1066.7469	18255.15	17346.3
857.1272	1068.7213	18225.2	17315.55
857.2723	1070.695	18250.1	17341.35
857.4173	1072.6679	18181.25	17273.95
857.5623	1074.6402	18138.05	17230.5
857.7073	1076.6117	18131.85	17220.95
857.8523	1078.5826	18075.75	17167.65
857.9973	1080.5527	17947.7	17036
858.1423	1082.5221	17863.2	16954.75
858.2873	1084.4908	17842.3	16935.3
858.4323	1086.4587	17772.4	16864.6
858.5773	1088.426	17733.85	16825.05
858.7223	1090.3925	17648.05	16737.85
858.8673	1092.3584	17618.4	16710.55
859.0123	1094.3235	17544.5	16639.3
859.1573	1096.2879	17486.55	16580.5
859.3022	1098.2515	17512	16606.1
859.4472	1100.2145	17524.9	16617.55
859.5922	1102.1767	17516.15	16607.85
859.7371	1104.1382	17534.65	16625.35
859.8821	1106.099	17545.95	16637.45
860.027	1108.0591	17560.4	16653.1
860.172	1110.0185	17550.9	16639.95
860.3169	1111.9771	17528.4	16622.4
860.4619	1113.9351	17469.7	16560.65
860.6068	1115.8923	17406.8	16500.1
860.7517	1117.8488	17312.2	16404.4
860.8967	1119.8045	17192.95	16287.35
861.0416	1121.7596	17128.65	16221.65
861.1865	1123.7139	17003.85	16097.6
861.3314	1125.6675	16947.75	16041.7
861.4763	1127.6204	16948.85	16040.3
861.6212	1129.5726	16907.05	15998.75
861.7661	1131.524	16902.5	15995.5
861.911	1133.4748	16829.3	15919
862.0559	1135.4248	16697.7	15788.05
862.2008	1137.3741	16632.75	15726
862.3457	1139.3226	16555.5	15646.45
862.4905	1141.2705	16503.6	15596
862.6354	1143.2176	16421.65	15506.6
862.7803	1145.164	16392.15	15484.05
862.9251	1147.1097	16310.3	15399.95
863.07	1149.0546	16297.75	15390.95
863.2148	1150.9989	16231.55	15324.55
863.3597	1152.9424	16188.7	15278.25
863.5045	1154.8852	16136.25	15228.7
863.6493	1156.8272	16110.3	15205.95
863.7942	1158.7686	16102.75	15183.75
863.939	1160.7092	16001.2	15090.95
864.0838	1162.6491	15978.4	15067.5
864.2286	1164.5883	15973.8	15066
864.3734	1166.5267	15978.45	15069.5
864.5182	1168.4644	15987.9	15080.55
864.663	1170.4014	15992.6	15079.35
864.8078	1172.3377	16051.2	15145.85
864.9526	1174.2732	16065.55	15161.2
865.0974	1176.2081	16142.95	15237.6
865.2421	1178.1421	16262.65	15349.95
865.3869	1180.0755	16318.6	15413.8
865.5317	1182.0082	16359.2	15453.4
865.6764	1183.9401	16425	15517.6
865.8212	1185.8713	16305.15	15400.75
865.9659	1187.8017	16161.9	15261
866.1106	1189.7315	16051.75	15154.45
866.2554	1191.6605	15859.4	14962.25
866.4001	1193.5888	15756.45	14856.7
866.5448	1195.5163	15648.2	14746
866.6895	1197.4432	15577.85	14671.6
866.8342	1199.3693	15520.55	14612.35
866.9789	1201.2947	15422.25	14514.05
867.1236	1203.2193	15350.05	14443.45
867.2683	1205.1432	15325	14418
867.413	1207.0664	15271	14364.55
867.5576	1208.9889	15210.85	14301.95
867.7023	1210.9106	15195.75	14288.75
867.847	1212.8316	15097.1	14191.7
867.9916	1214.7519	15100.35	14184
868.1363	1216.6715	15047.25	14141.25
868.2809	1218.5903	15032.85	14126.75
868.4255	1220.5084	15016.8	14113.8
868.5701	1222.4257	15037.8	14134.05
868.7148	1224.3424	14978.55	14074.8
868.8594	1226.2583	14974.15	14066.35
869.004	1228.1735	14989.15	14083.95
869.1486	1230.0879	14958.9	14052.45
869.2932	1232.0016	14978	14074.55
869.4377	1233.9146	14986.7	14080.15
869.5823	1235.8269	14933.45	14028.3
869.7269	1237.7384	14928.6	14023.5
869.8715	1239.6492	14827.95	13922.25
870.016	1241.5592	14788.5	13880.6
870.1606	1243.4686	14768.3	13861.75
870.3051	1245.3772	14818.35	13913.75
870.4496	1247.285	14847	13940.65
870.5941	1249.1922	14842	13936.35
870.7387	1251.0986	14902.8	13999.85
870.8832	1253.0042	14863.2	13954.75
871.0277	1254.9092	14894.05	13987.5
871.1722	1256.8134	14894	13988.8
871.3167	1258.7169	14903.35	13998.05
871.4611	1260.6196	14912.3	14008.85
871.6056	1262.5216	14943.2	14036.5
871.7501	1264.4229	14933.6	14029.35
871.8945	1266.3234	14962.25	14055.85
872.039	1268.2232	14971.6	14064.4
872.1834	1270.1223	14936.6	14029.7
872.3278	1272.0207	14892.9	13987.2
872.4723	1273.9183	14874.95	13964.5
872.6167	1275.8151	14822.65	13917.95
872.7611	1277.7113	14794.95	13890.05
872.9055	1279.6067	14782.8	13876.75
873.0499	1281.5014	14803	13896.95
873.1943	1283.3953	14887.95	13978.7
873.3386	1285.2885	15093	14188.45
873.483	1287.181	15239.5	14335.65
873.6274	1289.0727	15381.6	14476.1
873.7717	1290.9637	15404.15	14497.35
873.9161	1292.854	15479.55	14573.7
874.0604	1294.7435	15416.35	14508.85
874.2047	1296.6323	15358.95	14454.5
874.349	1298.5204	15278.6	14371.25
874.4933	1300.4077	15179.05	14272.45
874.6376	1302.2943	15053.25	14147.55
874.7819	1304.1802	14965.05	14059.55
874.9262	1306.0653	14788.75	13880.95
875.0705	1307.9497	14669.4	13763.65
875.2147	1309.8333	14497.95	13591.2
875.359	1311.7162	14416.75	13507.7
875.5032	1313.5984	14338.7	13432.65
875.6475	1315.4798	14257.65	13340.5
875.7917	1317.3605	14185.45	13273.2
875.9359	1319.2405	14188.7	13282.45
876.0801	1321.1197	14090.2	13182
876.2243	1322.9982	13971.3	13059.2
876.3685	1324.876	13897.6	12991.2
876.5127	1326.753	13778.2	12870.35
876.6569	1328.6293	13669.9	12760.6
876.801	1330.5048	13594.45	12689.9
876.9452	1332.3796	13508.25	12604.65
877.0893	1334.2537	13477.4	12548.9
877.2335	1336.127	13389.6	12482.6
877.3776	1337.9996	13339.65	12432.55
877.5217	1339.8714	13295.6	12387.5
877.6658	1341.7426	13279.4	12326.75
877.8099	1343.6129	13278	12372.1
877.954	1345.4826	13188.9	12282.4
878.0981	1347.3515	13218.4	12308.75
878.2422	1349.2196	13149.2	12243.9
878.3862	1351.087	13189.95	12281.9
878.5303	1352.9537	13155.4	12246.15
878.6743	1354.8197	13153.8	12249.5
878.8184	1356.6849	13185.75	12279.45
878.9624	1358.5493	13164	12258.1
879.1064	1360.4131	13214.7	12305.35
879.2504	1362.276	13215.6	12309.95
879.3944	1364.1383	13175.3	12270.45
879.5384	1365.9998	13167.4	12254.95
879.6823	1367.8606	13064.55	12156.9
879.8263	1369.7206	12938.55	12030.8
879.9702	1371.5799	12875.55	11968.85
880.1142	1373.4384	12771.8	11863.65
880.2581	1375.2962	12697.9	11791.25
880.402	1377.1533	12560.4	11654.9
880.5459	1379.0096	12426.95	11519.3
880.6898	1380.8652	12314.55	11409.05
880.8337	1382.7201	12227.3	11322.1
880.9776	1384.5742	12124.55	11220.6
881.1215	1386.4275	12051.45	11146.1
881.2653	1388.2802	11938.7	11034.35
881.4092	1390.132	11899.9	10993.95
881.553	1391.9832	11841.95	10936.85
881.6968	1393.8336	11787.55	10879.35
881.8406	1395.6832	11760.75	10851.2
881.9844	1397.5322	11698.25	10791.3
882.1282	1399.3803	11655.9	10747.1
882.272	1401.2278	11600.55	10695.15
882.4158	1403.0745	11565.9	10659.2
882.5595	1404.9204	11507.9	10601.35
882.7033	1406.7656	11494.85	10591.1
882.847	1408.6101	11438.5	10530.7
882.9908	1410.4538	11411.85	10507.35
883.1345	1412.2968	11380.5	10475.05
883.2782	1414.139	11342.1	10437.5
883.4219	1415.9805	11373.3	10467.95
883.5656	1417.8213	11361.65	10436.15
883.7092	1419.6613	11319.3	10413.2
883.8529	1421.5006	11351.75	10445.3
883.9965	1423.3391	11356.55	10449.25
884.1402	1425.1769	11390.35	10484.1
884.2838	1427.0139	11475	10569.6
884.4274	1428.8502	11566.4	10658.75
884.571	1430.6858	11660.45	10755.45
884.7146	1432.5206	11703.95	10798.9
884.8582	1434.3547	11738.1	10832.5
885.0018	1436.188	11744.3	10839.85
885.1453	1438.0206	11722.9	10816.35
885.2889	1439.8524	11638.35	10734
885.4324	1441.6835	11584.9	10680.55
885.5759	1443.5139	11544.1	10636.95
885.7194	1445.3435	11493.85	10588.45
885.8629	1447.1724	11493.2	10591.05
886.0064	1449.0005	11450.3	10546.8
886.1499	1450.8279	11413.65	10507.35
886.2933	1452.6545	11407.1	10503.5
886.4368	1454.4804	11409.85	10506
886.5802	1456.3056	11386.5	10475.55
886.7237	1458.13	11338.6	10436.4
886.8671	1459.9536	11314.55	10408.8
887.0105	1461.7766	11227.9	10326.95
887.1539	1463.5987	11155	10249.3
887.2972	1465.4202	11043.9	10138.55
887.4406	1467.2409	10927.35	10024.2
887.584	1469.0608	10859	9955.6
887.7273	1470.88	10788	9884.05
887.8706	1472.6984	10692.9	9791.8
888.0139	1474.5161	10609.05	9701.55
888.1572	1476.3331	10551.15	9647.15
888.3005	1478.1493	10518.2	9612.6
888.4438	1479.9648	10509.45	9604.1
888.5871	1481.7795	10463.35	9560.75
888.7303	1483.5935	10433.65	9530.9
888.8736	1485.4067	10409.5	9504.35
889.0168	1487.2192	10383.95	9481.05
889.16	1489.031	10355.35	9450.95
889.3032	1490.842	10346.35	9443.1
889.4464	1492.6522	10313.45	9408.45
889.5896	1494.4618	10271.3	9365.15
889.7327	1496.2705	10254.5	9350.8
889.8759	1498.0785	10225.35	9321.9
890.019	1499.8858	10179.1	9275.55
890.1622	1501.6924	10191.45	9290.4
890.3053	1503.4981	10136.55	9234.5
890.4484	1505.3032	10111.25	9208.9
890.5914	1507.1075	10115.45	9210.65
890.7345	1508.911	10079.1	9175.5
890.8776	1510.7138	10019.25	9114.9
891.0206	1512.5159	10000.1	9095.1
891.1637	1514.3172	9964.1	9060.95
891.3067	1516.1178	9911.65	9010.85
891.4497	1517.9176	9906.4	8999.85
891.5927	1519.7166	9849.95	8949.75
891.7357	1521.515	9840.85	8932.7
891.8786	1523.3126	9802.45	8898.8
892.0216	1525.1094	9745.7	8842.45
892.1645	1526.9055	9727.45	8824.4
892.3074	1528.7008	9686.15	8783.6
892.4503	1530.4954	9647	8744.4
892.5932	1532.2893	9624.5	8723.7
892.7361	1534.0824	9585.8	8681.8
892.879	1535.8747	9574.6	8674.85
893.0218	1537.6663	9543.2	8642.05
893.1647	1539.4572	9496.6	8593.3
893.3075	1541.2473	9491	8589.05
893.4503	1543.0367	9464.8	8564.3
893.5931	1544.8253	9444.15	8539.15
893.7359	1546.6132	9439.95	8537.65
893.8787	1548.4003	9420.45	8510.8
894.0214	1550.1867	9410.85	8502
894.1642	1551.9723	9399.45	8496.55
894.3069	1553.7572	9413.95	8513.4
894.4496	1555.5414	9394.85	8495.1
894.5923	1557.3247	9418.3	8522
894.735	1559.1074	9396.75	8499.8
894.8777	1560.8893	9438.65	8542.35
895.0204	1562.6705	9451.15	8552.85
895.163	1564.4509	9465.55	8567.45
895.3056	1566.2305	9480.35	8584.4
895.4482	1568.0094	9516.1	8620.85
895.5908	1569.7876	9490.1	8595.15
895.7334	1571.565	9465.05	8568.2
895.876	1573.3417	9444.9	8549.05
896.0186	1575.1176	9424.4	8527.8
896.1611	1576.8928	9397.65	8501.15
896.3036	1578.6672	9384.8	8490.6
896.4461	1580.4409	9349.8	8459.15
896.5886	1582.2138	9358.6	8462.45
896.7311	1583.986	9335.65	8439.55
896.8736	1585.7575	9355.7	8461.15
897.0161	1587.5282	9365.2	8471.75
897.1585	1589.2981	9407.7	8513.65
897.3009	1591.0673	9372.95	8479.2
897.4433	1592.8358	9386.55	8492.8
897.5857	1594.6035	9415.1	8516.2
897.7281	1596.3704	9388.25	8491.5
897.8705	1598.1366	9362.6	8468.1
898.0128	1599.9021	9374.05	8480.2
898.1551	1601.6668	9326.6	8430.8
898.2975	1603.4308	9339.4	8445.95
898.4398	1605.194	9355.8	8456.45
898.5821	1606.9564	9375	8483.35
898.7243	1608.7182	9416.9	8521.5
898.8666	1610.4791	9459.1	8568.55
899.0088	1612.2394	9535.2	8646.3
899.1511	1613.9988	9628.2	8737.7
899.2933	1615.7576	9701	8811.3
899.4355	1617.5156	9738.4	8839.05
899.5776	1619.2728	9744.05	8847.9
899.7198	1621.0293	9713.5	8819.3
899.862	1622.785	9622.95	8729.1
900.0041	1624.54	9509.85	8619.15
900.1462	1626.2942	9358.4	8467.7
900.2883	1628.0477	9209.35	8315.15
900.4304	1629.8005	9093.65	8197.5
900.5725	1631.5525	8973.7	8083.35
900.7145	1633.3037	8864.95	7972.2
900.8566	1635.0542	8777.75	7886.7
900.9986	1636.804	8720.45	7825.95
901.1406	1638.553	8722.1	7755.35
901.2826	1640.3013	8629.65	7737.55
901.4245	1642.0488	8570.35	7676.3
901.5665	1643.7955	8556.4	7667.25
901.7085	1645.5416	8542.7	7651.85
901.8504	1647.2868	8523.25	7631.35
901.9923	1649.0313	8502.9	7609.3
902.1342	1650.7751	8520.1	7624.9
902.2761	1652.5181	8526.5	7636.8
902.4179	1654.2604	8521.7	7629.65
902.5598	1656.0019	8550	7660.35
902.7016	1657.7427	8592.9	7702.4
902.8434	1659.4828	8650.35	7755.65
902.9852	1661.222	8643.5	7749.6
903.127	1662.9606	8659.45	7767.65
903.2687	1664.6984	8624.55	7734.25
903.4105	1666.4354	8546.7	7654.15
903.5522	1668.1717	8385.5	7489.4
903.6939	1669.9072	8246.35	7353.4
903.8356	1671.642	8117.25	7223.15
903.9773	1673.3761	8026.55	7135.75
904.119	1675.1094	7900.1	7007.5
904.2606	1676.8419	7849.1	6957.2
904.4022	1678.5737	7788.85	6895.55
904.5439	1680.3048	7739.3	6846.85
904.6855	1682.0351	7705.3	6812.7
904.827	1683.7646	7636.4	6740.75
904.9686	1685.4934	7611.7	6719.75
905.1101	1687.2215	7582.05	6691.45
905.2517	1688.9488	7490.1	6601.15
905.3932	1690.6754	7474.15	6582.2
905.5347	1692.4012	7458.05	6566.35
905.6761	1694.1263	7443.1	6552.85
905.8176	1695.8506	7415.15	6524.85
905.9591	1697.5742	7380.9	6491.5
906.1005	1699.297	7362.8	6474.1
906.2419	1701.0191	7317.35	6428.6
906.3833	1702.7404	7301.05	6411.65
906.5246	1704.461	7237.6	6345.9
906.666	1706.1808	7225.55	6335.05
906.8073	1707.8999	7195.9	6303.3
906.9487	1709.6182	7177.25	6287.95
907.09	1711.3358	7145.2	6255.6
907.2313	1713.0527	7120	6232.9
907.3725	1714.7688	7089.5	6194.6
907.5138	1716.4841	7070.35	6178.5
907.655	1718.1987	7054.05	6160.05
907.7962	1719.9126	7050.55	6161.65
907.9374	1721.6257	7019.2	6128.5
908.0786	1723.338	7001.15	6112.1
908.2198	1725.0496	6972	6082.75
908.3609	1726.7605	6977.45	6087.55
908.502	1728.4706	6938.55	6047.45
908.6431	1730.18	6930.15	6039.25
908.7842	1731.8886	6884.8	5994.65
908.9253	1733.5964	6880.05	5986.2
909.0664	1735.3036	6874.1	5981.75
909.2074	1737.0099	6850.25	5960.3
909.3484	1738.7156	6851.45	5963.35
909.4894	1740.4204	6815.15	5923.4
909.6304	1742.1246	6807.1	5917.7
909.7714	1743.8279	6786.15	5897.75
909.9123	1745.5306	6777.35	5886.2
910.0532	1747.2325	6750.2	5861.7
910.1941	1748.9336	6725.05	5838.7
910.335	1750.634	6695.65	5803.6
910.4759	1752.3336	6687.1	5798.65
910.6168	1754.0325	6665.95	5779.65
910.7576	1755.7307	6669.9	5781.45
910.8984	1757.4281	6659.3	5770.15
911.0392	1759.1247	6658	5759.25
911.18	1760.8206	6627	5732.5
911.3208	1762.5158	6628.25	5735.4
911.4615	1764.2102	6591.25	5704.55
911.6022	1765.9039	6578.15	5691.15
911.7429	1767.5968	6573.4	5683.95
911.8836	1769.289	6555.45	5666.65
912.0243	1770.9804	6537.6	5647.3
912.1649	1772.6711	6511.55	5622.3
912.3056	1774.361	6533.05	5644.35
912.4462	1776.0502	6513.25	5622.75
912.5868	1777.7386	6490.55	5598.2
912.7274	1779.4263	6457.65	5570
912.8679	1781.1132	6460.95	5575.85
913.0084	1782.7994	6438.6	5549.25
913.149	1784.4849	6432.7	5545.25
913.2895	1786.1696	6407.65	5513.65
913.4299	1787.8535	6410	5521.95
913.5704	1789.5367	6389.6	5502.55
913.7108	1791.2192	6368.5	5480.5
913.8513	1792.9009	6370.8	5453.7
913.9917	1794.5818	6324.95	5435.95
914.132	1796.2621	6316.25	5427.25
914.2724	1797.9415	6316.45	5426
914.4128	1799.6202	6295.75	5409
914.5531	1801.2982	6271.6	5384.25
914.6934	1802.9755	6280.7	5389.55
914.8337	1804.6519	6250.5	5359.7
914.9739	1806.3277	6233.35	5345.45
915.1142	1808.0027	6203	5315.65
915.2544	1809.6769	6212.4	5325.4
915.3946	1811.3504	6179	5289
915.5348	1813.0231	6177.3	5289.75
915.675	1814.6951	6169.95	5283
915.8151	1816.3664	6174.2	5284.35
915.9553	1818.0369	6151.15	5262.45
916.0954	1819.7067	6130.7	5242.75
916.2355	1821.3757	6114.75	5224
916.3755	1823.044	6109.25	5220.75
916.5156	1824.7115	6096.95	5208
916.6556	1826.3783	6088.8	5200.6
916.7956	1828.0443	6083.1	5196.6
916.9356	1829.7096	6069.2	5177.65
917.0756	1831.3741	6061.4	5171.75
917.2155	1833.0379	6047.3	5158.55
917.3555	1834.701	6032.4	5142.2
917.4954	1836.3633	6012.85	5125.5
917.6353	1838.0248	5967.65	5077.1
917.7751	1839.6856	5977.05	5090.05
917.915	1841.3457	5977.9	5090.9
918.0548	1843.005	5963.5	5074.65
918.1946	1844.6636	5932.4	5045.85
918.3344	1846.3214	5931.05	5044.6
918.4742	1847.9785	5918.5	5033.3
918.6139	1849.6349	5887.95	4997.9
918.7537	1851.2904	5927.4	5029.2
918.8934	1852.9453	5898.7	5008.35
919.0331	1854.5994	5893.1	5001.5
919.1727	1856.2528	5874.2	4980.8
919.3124	1857.9054	5871.9	4984
919.452	1859.5572	5852.45	4964.4
919.5916	1861.2083	5842.65	4953.75
919.7312	1862.8587	5853.45	4965
919.8708	1864.5084	5840.2	4949.95
920.0103	1866.1572	5811.35	4923.9
920.1498	1867.8054	5802.45	4913.4
920.2893	1869.4528	5783.25	4894.35
920.4288	1871.0994	5767.65	4879.2
920.5683	1872.7453	5768.35	4876.8
920.7077	1874.3905	5748.9	4850.75
920.8471	1876.0349	5721.05	4831.7
920.9865	1877.6786	5747.6	4858.35
921.1259	1879.3215	5713.45	4827.3
921.2653	1880.9637	5711.2	4822.9
921.4046	1882.6051	5701.9	4814.9
921.5439	1884.2458	5683.75	4793.45
921.6832	1885.8858	5653.95	4765.15
921.8225	1887.525	5648.95	4758
921.9617	1889.1634	5634.3	4743.95
922.101	1890.8011	5618	4728.8
922.2402	1892.4381	5610.65	4723.05
922.3794	1894.0743	5602.55	4715.95
922.5185	1895.7098	5607.3	4719.15
922.6577	1897.3446	5580.8	4692.3
922.7968	1898.9786	5564.8	4672.75
922.9359	1900.6118	5553.65	4666
923.075	1902.2443	5531.1	4639.5
923.214	1903.8761	5513.2	4625.1
923.3531	1905.5071	5492.95	4602.9
923.4921	1907.1374	5471	4582.6
923.6311	1908.7669	5479.1	4591.55
923.77	1910.3957	5464.85	4576.85
923.909	1912.0237	5445	4557.1
924.0479	1913.651	5426.7	4539
924.1868	1915.2776	5442.65	4557.8
924.3257	1916.9034	5423.6	4537.8
924.4646	1918.5285	5396.5	4510.15
924.6034	1920.1528	5375.7	4485.45
924.7422	1921.7764	5372.45	4484.85
924.881	1923.3992	5332.2	4445.8
925.0198	1925.0213	5309.3	4419.8
925.1586	1926.6427	5301.7	4413.35
925.2973	1928.2633	5340.35	4384.15
925.436	1929.8832	5293.75	4405.1
925.5747	1931.5023	5274.3	4385.7
925.7134	1933.1207	5244.3	4355.45
925.852	1934.7383	5242.45	4352.7
925.9906	1936.3552	5217.3	4328.9
926.1292	1937.9714	5223.55	4336.05
926.2678	1939.5868	5192.75	4306.7
926.4064	1941.2015	5175.2	4285.95
926.5449	1942.8154	5158.2	4269.25
926.6834	1944.4286	5134.75	4246.1
926.8219	1946.041	5140.75	4227.9
926.9604	1947.6528	5118.75	4224.4
927.0988	1949.2637	5088.3	4200.6
927.2372	1950.8739	5094.85	4208.5
927.3756	1952.4834	5076.85	4189.5
927.514	1954.0921	5066.1	4177.7
927.6523	1955.7001	5066.45	4171.75
927.7907	1957.3074	5034.9	4148.35
927.929	1958.9139	5012	4127.25
928.0673	1960.5197	5005.5	4117
928.2055	1962.1247	4997.15	4110.85
928.3438	1963.729	4964.55	4078.65
928.482	1965.3325	4969	4056.25
928.6202	1966.9353	4946	4059.05
928.7584	1968.5374	4924.4	4037.05
928.8965	1970.1387	4917	4030.15
929.0346	1971.7393	4930.55	4044.4
929.1727	1973.3392	4894.1	4006.2
929.3108	1974.9383	4877.9	3991.05
929.4489	1976.5366	4855.75	3971.1
929.5869	1978.1342	4861.7	3974.7
929.7249	1979.7311	4829.05	3941.7
929.8629	1981.3273	4842	3954.8
930.0009	1982.9227	4807.15	3921.65
930.1388	1984.5173	4795.3	3908.85
930.2767	1986.1112	4783.15	3897.85
930.4146	1987.7044	4766.75	3880.6
930.5525	1989.2968	4768.45	3881.95
930.6904	1990.8885	4751.65	3862.65
930.8282	1992.4795	4741.45	3854.4
930.966	1994.0697	4721.55	3836.2
931.1038	1995.6592	4724.7	3841.05
931.2415	1997.2479	4720.65	3834.8
931.3793	1998.8359	4706.15	3820.65
931.517	2000.4232	4676.9	3793
931.6547	2002.0097	4661.5	3777.35
931.7923	2003.5955	4658.95	3774.3
931.93	2005.1805	4666.85	3780.15
932.0676	2006.7648	4633.7	3748.9
932.2052	2008.3484	4630.9	3746.4
932.3427	2009.9312	4634.95	3748.95
932.4803	2011.5133	4597.45	3714
932.6178	2013.0946	4591.4	3705.8
932.7553	2014.6752	4584.35	3699.2
932.8928	2016.2551	4568.5	3681.05
933.0302	2017.8342	4568.3	3682.65
933.1676	2019.4126	4554.95	3671.2
933.305	2020.9902	4539.55	3655.15
933.4424	2022.5672	4531.6	3647.8
933.5798	2024.1433	4527.3	3637.65
933.7171	2025.7188	4512.6	3628.85
933.8544	2027.2935	4487.9	3601.65
933.9917	2028.8674	4493.75	3611.9
934.129	2030.4406	4481.6	3599.6
934.2662	2032.0131	4448.3	3562.9
934.4034	2033.5849	4439.65	3548.9
934.5406	2035.1559	4431.15	3548.55
934.6778	2036.7261	4428.6	3543.7
934.8149	2038.2957	4429.15	3542
934.952	2039.8645	4422.85	3536.55
935.0891	2041.4325	4408.95	3519.9
935.2262	2042.9998	4385.35	3502.8
935.3632	2044.5664	4391.5	3504.9
935.5002	2046.1323	4379.45	3495.5
935.6372	2047.6974	4347.8	3464.65
935.7742	2049.2617	4351.1	3468.5
935.9111	2050.8254	4346.7	3458.25
936.048	2052.3883	4353.2	3468.2
936.1849	2053.9504	4338.35	3451.35
936.3218	2055.5118	4314.8	3429.55
936.4586	2057.0725	4304.65	3414.85
936.5955	2058.6325	4304.05	3419.1
936.7323	2060.1917	4282	3397.9
936.869	2061.7502	4292.7	3405.3
937.0058	2063.3079	4279.05	3394.55
937.1425	2064.8649	4254.95	3364.55
937.2792	2066.4212	4253.1	3367
937.4159	2067.9767	4262.8	3378.25
937.5525	2069.5315	4241.25	3357
937.6891	2071.0856	4211.4	3326.95
937.8257	2072.6389	4198.65	3313.6
937.9623	2074.1915	4177.5	3294.95
938.0989	2075.7433	4163.4	3276.85
938.2354	2077.2945	4161.6	3277.9
938.3719	2078.8448	4170.05	3282.7
938.5084	2080.3945	4154.1	3269.2
938.6448	2081.9434	4127.6	3243.35
938.7812	2083.4916	4129.2	3243.25
938.9176	2085.039	4120.5	3230.25
939.054	2086.5857	4113.7	3225.45
939.1903	2088.1317	4108.45	3222.75
939.3267	2089.677	4089.4	3200.3
939.463	2091.2215	4099	3209.65
939.5992	2092.7652	4084.45	3193.5
939.7355	2094.3083	4063.55	3176.05
939.8717	2095.8506	4057.25	3172.05
940.0079	2097.3921	4045.35	3159.35
940.1441	2098.933	4030.55	3143.05
940.2802	2100.4731	4045.95	3159.85
940.4163	2102.0124	4027	3131.8
940.5524	2103.5511	4017.2	3130.05
940.6885	2105.089	4009.6	3123.95
940.8245	2106.6261	3997.65	3110.2
940.9606	2108.1626	3991.1	3103.6
941.0965	2109.6983	4015.25	3101.35
941.2325	2111.2332	3992.25	3105.25
941.3684	2112.7675	3975.8	3086.9
941.5044	2114.301	3980.1	3090.3
941.6403	2115.8337	3981.5	3093.35
941.7761	2117.3657	3957.95	3072.7
941.912	2118.897	3955	3067.4
942.0478	2120.4276	3944.75	3051.6
942.1835	2121.9575	3934.75	3044.85
942.3193	2123.4866	3925.3	3037.1
942.455	2125.0149	3911.1	3021.6
942.5907	2126.5426	3892.15	3006.75
942.7264	2128.0695	3894.25	3003.85
942.8621	2129.5956	3880.75	2997.65
942.9977	2131.1211	3878.05	2988.25
943.1333	2132.6458	3873	2987.75
943.2689	2134.1698	3852.6	2965.6
943.4044	2135.693	3849.9	2959.7
943.54	2137.2155	3850.55	2960.3
943.6755	2138.7373	3842.65	2954.45
943.8109	2140.2584	3827.1	2941.8
943.9464	2141.7787	3822.85	2933.7
944.0818	2143.2983	3801.8	2918.2
944.2172	2144.8171	3783.95	2901.1
944.3526	2146.3353	3787.05	2900.4
944.4879	2147.8527	3772.95	2886.75
944.6232	2149.3693	3769.35	2881.1
944.7585	2150.8853	3765.85	2878
944.8938	2152.4005	3732.7	2844.6
945.029	2153.9149	3737.45	2849
945.1642	2155.4287	3810.95	2817.45
945.2994	2156.9417	3739.45	2849.05
945.4346	2158.454	3720.9	2832.7
945.5697	2159.9655	3722.2	2834.95
945.7048	2161.4764	3702.7	2816.3
945.8399	2162.9865	3686.2	2798.9
945.9749	2164.4958	3685.55	2797.5
946.1099	2166.0045	3666.3	2777.05
946.2449	2167.5124	3672.15	2784.9
946.3799	2169.0195	3670.8	2784.5
946.5148	2170.526	3658.6	2771.45
946.6498	2172.0317	3657.7	2769.1
946.7846	2173.5367	3662.65	2775.7
946.9195	2175.0409	3631	2744.2
947.0543	2176.5445	3642.45	2755.85
947.1891	2178.0473	3617.55	2729.3
947.3239	2179.5494	3592.55	2703.85
947.4587	2181.0507	3598.5	2709.5
947.5934	2182.5513	3595.65	2708.4
947.7281	2184.0512	3586.9	2699.2
947.8628	2185.5504	3565.3	2677.35
947.9974	2187.0488	3561.85	2676.9
948.132	2188.5465	3540.5	2654.4
948.2666	2190.0435	3548.15	2660.05
948.4012	2191.5397	3543.1	2655.95
948.5357	2193.0353	3525.6	2638
948.6702	2194.5301	3511.05	2622.1
948.8047	2196.0241	3504.65	2616.2
948.9392	2197.5175	3495.8	2605.2
949.0736	2199.0101	3484.75	2593.05
949.208	2200.502	3475.6	2589.2
949.3424	2201.9931	3449.45	2561.05
949.4767	2203.4835	3465.65	2576.4
949.611	2204.9733	3459.45	2557.1
949.7453	2206.4622	3441.8	2553.9
949.8796	2207.9505	3436.1	2549.35
950.0138	2209.438	3403.35	2520.25
950.148	2210.9248	3397.05	2508.6
950.2822	2212.4109	3394.3	2509
950.4164	2213.8962	3401.2	2510.85
950.5505	2215.3809	3388.65	2498.6
950.6846	2216.8648	3379.2	2488.55
950.8186	2218.3479	3391.05	2496.6
950.9527	2219.8304	3376.85	2485.95
951.0867	2221.3121	3364.7	2471.6
951.2207	2222.7931	3357.6	2470.15
951.3546	2224.2733	3338.55	2449.4
951.4886	2225.7529	3321.9	2432.85
951.6225	2227.2317	3329.15	2439.65
951.7563	2228.7098	3322.9	2435.7
951.8902	2230.1872	3304.75	2417.7
952.024	2231.6638	3291.45	2407.35
952.1578	2233.1397	3297	2408.8
952.2916	2234.6149	3292.15	2405
952.4253	2236.0894	3271.65	2384.7
952.559	2237.5632	3282.8	2392.25
952.6927	2239.0362	3249.45	2361.25
952.8263	2240.5085	3246.2	2358.15
952.9599	2241.9801	3248.25	2360.8
953.0935	2243.4509	3227.9	2339.45
953.2271	2244.921	3228.65	2339.65
953.3606	2246.3904	3198	2305.15
953.4941	2247.8591	3209.15	2322.35
953.6276	2249.3271	3203.4	2314.45
953.7611	2250.7943	3185.85	2297.05
953.8945	2252.2608	3194.7	2308.05
954.0279	2253.7266	3175.6	2286.55
954.1612	2255.1917	3158.95	2271.3
954.2946	2256.656	3165.9	2276.2
954.4279	2258.1197	3161.2	2273.85
954.5612	2259.5826	3148.05	2258.85
954.6944	2261.0447	3134.15	2244.95
954.8276	2262.5062	3141.3	2252.1
954.9608	2263.9669	3142.3	2250.6
955.094	2265.4269	3140.35	2253.7
955.2271	2266.8862	3116.95	2228.6
955.3602	2268.3448	3105.45	2218.6
955.4933	2269.8026	3113.6	2226.8
955.6264	2271.2598	3094.45	2207.8
955.7594	2272.7162	3091.5	2204.45
955.8924	2274.1719	3081.75	2192.3
956.0253	2275.6268	3085.1	2195.15
956.1583	2277.0811	3073.2	2182.5
956.2912	2278.5346	3087.5	2199.65
956.4241	2279.9874	3063.8	2177.1
956.5569	2281.4395	3050.2	2163.25
956.6897	2282.8908	3058.8	2167.1
956.8225	2284.3414	3055.55	2165.05
956.9553	2285.7914	3039.35	2154.85
957.088	2287.2406	3029.65	2140.35
957.2207	2288.689	3037.1	2147.35
957.3534	2290.1368	3017.45	2128.35
957.486	2291.5838	3021.45	2128.8
957.6186	2293.0302	3017.3	2125.3
957.7512	2294.4758	2990.95	2102.25
957.8838	2295.9206	2982.4	2091.1
958.0163	2297.3648	2977.2	2090.15
958.1488	2298.8082	2987.45	2096.3
958.2813	2300.251	2965	2074.85
958.4137	2301.693	2977.6	2087.2
958.5461	2303.1343	2964.7	2074.35
958.6785	2304.5748	2956.35	2069.15
958.8108	2306.0147	2941.1	2053.9
958.9432	2307.4538	2938.95	2049.45
959.0754	2308.8922	2926.7	2043.45
959.2077	2310.3299	2925.05	2039.35
959.3399	2311.7669	2915	2028.1
959.4721	2313.2031	2911.4	2023.15
959.6043	2314.6387	2905.75	2016.55
959.7365	2316.0735	2896.45	2007.4
959.8686	2317.5076	2901.45	2011.1
960.0006	2318.941	2890.2	2000.7
960.1327	2320.3737	2887.45	1999.45
960.2647	2321.8056	2872.45	1984.55
960.3967	2323.2369	2860.85	1970.1
960.5287	2324.6674	2867.2	1978.45
960.6606	2326.0972	2856.65	1966.8
960.7925	2327.5263	2857.4	1968.95
960.9244	2328.9547	2845	1956.1
961.0562	2330.3823	2840.45	1950.7
961.1881	2331.8092	2837.55	1946.5
961.3198	2333.2355	2821.15	1931.1
961.4516	2334.661	2820.4	1929.4
961.5833	2336.0858	2814.95	1924
961.715	2337.5098	2808.75	1921.15
961.8467	2338.9332	2801.2	1912.6
961.9783	2340.3558	2803.3	1912.1
962.1099	2341.7778	2798.25	1909.4
962.2415	2343.199	2794.8	1906.5
962.373	2344.6195	2770.3	1881.75
962.5045	2346.0393	2768.25	1880.15
962.636	2347.4583	2770.6	1878.95
962.7675	2348.8767	2772.45	1883.1
962.8989	2350.2943	2751.65	1860.55
963.0303	2351.7113	2761.8	1869.8
963.1617	2353.1275	2752.6	1862.05
963.293	2354.543	2751.1	1835.7
963.4243	2355.9578	2736.7	1848.1
963.5556	2357.3718	2717.95	1830.6
963.6868	2358.7852	2706.45	1815.6
963.818	2360.1978	2715.1	1826.65
963.9492	2361.6098	2700.3	1811.4
964.0803	2363.021	2699.25	1806.2
964.2114	2364.4315	2701.8	1814.35
964.3425	2365.8413	2688.9	1795.3
964.4736	2367.2504	2672.95	1785.75
964.6046	2368.6587	2664.45	1777
964.7356	2370.0664	2659.75	1771.6
964.8666	2371.4733	2651.55	1763.7
964.9975	2372.8795	2645.4	1757.65
965.1284	2374.285	2647.2	1759.7
965.2593	2375.6899	2639.5	1750.7
965.3901	2377.0939	2618.35	1732.4
965.5209	2378.4973	2616.3	1728.95
965.6517	2379.9	2605.05	1716.45
965.7825	2381.3019	2598.65	1709.8
965.9132	2382.7032	2596.15	1708.9
966.0439	2384.1037	2595.9	1708.8
966.1745	2385.5035	2580.2	1693.7
966.3051	2386.9027	2573.75	1686.95
966.4357	2388.3011	2573.75	1684.65
966.5663	2389.6987	2568.8	1680.6
966.6968	2391.0957	2560.5	1673.85
966.8273	2392.492	2551.2	1664.95
966.9578	2393.8876	2545.9	1658.2
967.0882	2395.2824	2545.6	1659.4
967.2186	2396.6765	2530.6	1643.15
967.349	2398.07	2529.9	1643.3
967.4793	2399.4627	2521.1	1631
967.6097	2400.8547	2505.75	1615.55
967.7399	2402.246	2511.2	1618.3
967.8702	2403.6366	2495.9	1607
968.0004	2405.0265	2486.65	1599.3
968.1306	2406.4156	2489.75	1596.2
968.2607	2407.8041	2472.65	1579.15
968.3909	2409.1918	2472.85	1582.35
968.521	2410.5789	2472.4	1585.25
968.651	2411.9652	2477.8	1585.65
968.781	2413.3508	2457.3	1567.95
968.911	2414.7358	2459.65	1567.6
969.041	2416.12	2435.25	1549.2
969.1709	2417.5035	2429.25	1542.4
969.3008	2418.8863	2431.7	1543.2
969.4307	2420.2684	2436.25	1549.1
969.5606	2421.6497	2416.35	1526.7
969.6904	2423.0304	2415.05	1527.9
969.8201	2424.4104	2394.85	1504.95
969.9499	2425.7896	2405.75	1514.1
970.0796	2427.1682	2396.25	1508.3
970.2093	2428.546	2392.75	1503.4
970.3389	2429.9232	2395.95	1505.95
970.4685	2431.2996	2382.8	1494.1
970.5981	2432.6753	2380	1490.3
970.7277	2434.0503	2381.35	1491.85
970.8572	2435.4246	2366.9	1479.15
970.9867	2436.7982	2364.1	1475.35
971.1161	2438.1711	2362.7	1476.9
971.2456	2439.5433	2346.75	1457.95
971.375	2440.9148	2354.9	1460.65
971.5043	2442.2856	2343.6	1455.7
971.6336	2443.6557	2330.3	1440.5
971.7629	2445.025	2331.3	1443.25
971.8922	2446.3937	2327.25	1437.55
972.0214	2447.7617	2318.35	1429
972.1506	2449.1289	2329.55	1442.6
972.2798	2450.4955	2325.6	1435.6
972.4089	2451.8613	2300.4	1413.45
972.538	2453.2265	2301.9	1414.05
972.6671	2454.5909	2304.15	1414.05
972.7961	2455.9546	2305.1	1417.05
972.9251	2457.3177	2296	1406.8
973.0541	2458.68	2296.25	1406.7
973.1831	2460.0416	2301.65	1413.5
973.312	2461.4025	2293.65	1405.15
973.4408	2462.7627	2289.65	1389.85
973.5697	2464.1222	2274.4	1389.2
973.6985	2465.4811	2266.3	1378.15
973.8273	2466.8392	2261.45	1372.9
973.956	2468.1966	2270.5	1380.05
974.0847	2469.5533	2267.4	1377.4
974.2134	2470.9093	2258.15	1368.95
974.3421	2472.2645	2242.8	1353.7
974.4707	2473.6191	2253.45	1364.65
974.5993	2474.973	2230.95	1342.9
974.7278	2476.3262	2241.9	1351.95
974.8563	2477.6787	2228.65	1341.85
974.9848	2479.0305	2216.6	1328.9
975.1132	2480.3816	2217.15	1327.25
975.2417	2481.7319	2209.2	1321.3
975.37	2483.0816	2215.15	1324.3
975.4984	2484.4306	2203.6	1314.65
975.6267	2485.7789	2186.25	1297.8
975.755	2487.1264	2196.15	1307
975.8833	2488.4733	2181.55	1293.55
976.0115	2489.8195	2199.6	1291.3
976.1397	2491.165	2176.6	1284.9
976.2678	2492.5097	2162.1	1273.55
976.3959	2493.8538	2160.35	1274.3
976.524	2495.1972	2156.9	1269.45
976.6521	2496.5398	2154.1	1264.75
976.7801	2497.8818	2163.2	1275.55
976.9081	2499.2231	2153.2	1264.65
977.036	2500.5637	2152.15	1261.55
977.164	2501.9035	2137.85	1246.15
977.2918	2503.2427	2143.9	1252.3
977.4197	2504.5812	2131.1	1243.6
977.5475	2505.919	2135.85	1245.2
977.6753	2507.256	2116.55	1229.3
977.8031	2508.5924	2113	1224.25
977.9308	2509.9281	2121.05	1226.1
978.0585	2511.2631	2114.4	1228.3
978.1861	2512.5974	2110.55	1223.35
978.3137	2513.9309	2104.45	1216.9
978.4413	2515.2638	2118.15	1201.95
978.5689	2516.596	2092.7	1203.55
978.6964	2517.9275	2087.1	1197.7
978.8239	2519.2583	2084.4	1195.35
978.9513	2520.5884	2082.45	1193.75
979.0788	2521.9178	2073.5	1183.6
979.2062	2523.2465	2069.1	1181.6
979.3335	2524.5745	2055.2	1168.4
979.4608	2525.9018	2066.35	1178.3
979.5881	2527.2284	2054.65	1167.5
979.7154	2528.5543	2064.85	1178.75
979.8426	2529.8796	2058.2	1169.25
979.9698	2531.2041	2059.25	1170.8
980.0969	2532.5279	2035.55	1149.95
980.224	2533.851	2040.45	1152.75
980.3511	2535.1735	2029.1	1141.4
980.4781	2536.4952	2032.25	1143.2
980.6052	2537.8163	2032.65	1142
980.7321	2539.1366	2033.75	1146.1
980.8591	2540.4562	2036.85	1147.2
980.986	2541.7752	2021.5	1133.2
981.1129	2543.0935	2014.4	1125.7
981.2397	2544.411	2020.4	1132.95
981.3665	2545.7279	2018.35	1132.7
981.4933	2547.0441	2012.6	1123.9
981.62	2548.3596	2011	1120.6
981.7467	2549.6744	2007.15	1118.3
981.8734	2550.9885	2001.9	1111.5
982.0001	2552.3019	1995.5	1107.1
982.1267	2553.6146	1989.35	1102.1
982.2532	2554.9266	1994.6	1105.6
982.3798	2556.2379	1988.85	1098.75
982.5063	2557.5485	1982.05	1095.45
982.6327	2558.8585	1992	1095.9
982.7592	2560.1677	1978.95	1085.15
982.8856	2561.4762	1983.9	1096.35
983.0119	2562.7841	1972.2	1083.7
983.1383	2564.0913	1966.3	1079.2
983.2646	2565.3977	1972.05	1086
983.3908	2566.7035	1964.1	1076.95
983.517	2568.0086	1960.6	1069.4
983.6432	2569.313	1964.05	1074.05
983.7694	2570.6167	1953.55	1062.45
983.8955	2571.9197	1951.9	1064.45
984.0216	2573.222	1958.2	1066.85
984.1476	2574.5236	1954.5	1064.35
984.2737	2575.8246	1952.85	1062
984.3996	2577.1248	1943.7	1051.6
984.5256	2578.4244	1946.55	1056
984.6515	2579.7232	1931.1	1043.9
984.7774	2581.0214	1969.2	1049.15
984.9032	2582.3189	1939.85	1052.95
985.029	2583.6157	1937.2	1045.05
985.1548	2584.9118	1931.9	1043.65
985.2806	2586.2072	1915.9	1026.75
985.4063	2587.5019	1923.55	1034.9
985.5319	2588.7959	1920.85	1031.8
985.6576	2590.0893	1925.1	1035.65
985.7832	2591.3819	1909.7	1023
985.9087	2592.6739	1903.95	1016.5
986.0343	2593.9652	1910.6	1022.4
986.1597	2595.2557	1901.15	1012.35
986.2852	2596.5456	1906.8	1016.9
986.4106	2597.8348	1891.65	1004.1
986.536	2599.1234	1889.65	1001.9
986.6614	2600.4112	1886.55	999.6
986.7867	2601.6983	1885.9	994.55
986.912	2602.9848	1879.6	991.7
987.0372	2604.2705	1881.05	986.1
987.1624	2605.5556	1871.1	983.15
987.2876	2606.84	1864.8	979.65
987.4128	2608.1237	1871.7	982.45
987.5379	2609.4067	1864.2	974.15
987.6629	2610.689	1867.45	969.4
987.788	2611.9707	1852.4	961.1
987.913	2613.2516	1850.2	959.25
988.0379	2614.5319	1847.55	961
988.1629	2615.8115	1836.8	948.65
988.2878	2617.0903	1836.75	948.65
988.4126	2618.3685	1838.15	951.35
988.5375	2619.6461	1831.15	942.55
988.6622	2620.9229	1819	929.65
988.787	2622.199	1819.75	931.4
988.9117	2623.4745	1820.65	930.65
989.0364	2624.7493	1820.15	932.9
989.161	2626.0234	1811.05	925
989.2857	2627.2968	1806.15	919.9
989.4102	2628.5695	1815.25	927.85
989.5348	2629.8415	1798.25	911.75
989.6593	2631.1128	1795.6	907.3
989.7837	2632.3835	1794.3	909
989.9082	2633.6535	1791.35	904.25
990.0326	2634.9228	1784.35	897.45
990.1569	2636.1914	1784.45	898.5
990.2812	2637.4593	1779.85	891.85
990.4055	2638.7265	1776.35	889.35
990.5298	2639.9931	1768	881.65
990.654	2641.259	1769.2	882.25
990.7782	2642.5242	1769.15	881.8
990.9023	2643.7887	1765	878.7
991.0264	2645.0525	1764.1	877.4
991.1505	2646.3156	1772.5	867.6
991.2745	2647.5781	1751.55	863.35
991.3985	2648.8398	1750.05	864
991.5225	2650.1009	1765.45	853.55
991.6464	2651.3613	1755.4	869
991.7703	2652.6211	1732.15	845.45
991.8942	2653.8801	1743.5	857.7
992.018	2655.1385	1740.45	850.2
992.1418	2656.3961	1750.85	862.95
992.2655	2657.6531	1736.6	849.1
992.3892	2658.9094	1736.75	849.55
992.5129	2660.1651	1719.9	833.75
992.6366	2661.42	1724.75	837.2
992.7602	2662.6743	1735.45	847.2
992.8837	2663.9279	1723.15	834.85
993.0073	2665.1808	1720.35	834.75
993.1307	2666.433	1713.05	823.8
993.2542	2667.6846	1714.65	826.85
993.3776	2668.9354	1717.05	825.6
993.501	2670.1856	1711.65	823.75
993.6244	2671.4351	1710.7	825.2
993.7477	2672.6839	1720.25	832
993.8709	2673.9321	1711.25	825.4
993.9942	2675.1795	1711.35	823.3
994.1174	2676.4263	1698.75	812.3
994.2405	2677.6724	1693.55	806.35
994.3637	2678.9179	1691.95	804.45
994.4868	2680.1626	1697.75	811.35
994.6098	2681.4067	1690.15	802.55
994.7328	2682.6501	1695.5	808.65
994.8558	2683.8928	1688.95	801.25
994.9788	2685.1348	1680.8	795.05
995.1017	2686.3761	1674.6	788.45
995.2245	2687.6168	1669.95	781.55
995.3474	2688.8568	1671.2	785.6
995.4702	2690.0961	1667.65	782.2
995.5929	2691.3348	1667.85	781.35
995.7156	2692.5727	1668.2	780.35
995.8383	2693.81	1654.75	766.1
995.961	2695.0466	1647.45	762.2
996.0836	2696.2826	1658.1	769.75
996.2062	2697.5178	1652	765.2
996.3287	2698.7524	1648.2	763.35
996.4512	2699.9863	1654.2	765.3
996.5737	2701.2195	1643.45	757.5
996.6961	2702.452	1650.05	760.45
996.8185	2703.6839	1643.4	755.5
996.9408	2704.9151	1640.85	753.75
997.0631	2706.1456	1640.85	753.8
997.1854	2707.3755	1634.15	747.1
997.3077	2708.6046	1638.35	748.15
997.4299	2709.8331	1638.05	751.55
997.552	2711.0609	1640.85	755.05
997.6742	2712.2881	1633.6	747.5
997.7963	2713.5145	1629.35	739.45
997.9183	2714.7403	1631.3	746.05
998.0403	2715.9654	1630.4	742.2
998.1623	2717.1899	1647.55	745.4
998.2842	2718.4136	1630.5	742.25
998.4062	2719.6367	1629.85	742.6
998.528	2720.8591	1636.1	743.7
998.6498	2722.0809	1622	735.9
998.7716	2723.3019	1625.85	736.15
998.8934	2724.5223	1631.85	742.9
999.0151	2725.7421	1620.55	732.4
999.1368	2726.9611	1621.5	732.5
999.2584	2728.1795	1624.7	734.3
999.38	2729.3972	1614.55	728.5
999.5016	2730.6142	1613.15	721.5
999.6231	2731.8306	1604.8	717.45
999.7446	2733.0462	1600.95	713.2
999.8661	2734.2612	1597.95	706.6
999.9875	2735.4756	1580.85	692.9
1000.1089	2736.6892	1584.7	698.1
1000.2302	2737.9022	1566.35	682.15
1000.3515	2739.1145	1570.5	683.3
1000.4728	2740.3262	1579.45	684.3
1000.594	2741.5372	1564.9	679.55
1000.7152	2742.7475	1553	664.75
1000.8363	2743.9571	1555.5	667.2
1000.9575	2745.1661	1555.75	663.85
1001.0785	2746.3744	1550.65	662.95
1001.1996	2747.582	1541.6	654.75
1001.3206	2748.7889	1546.25	658.1
1001.4415	2749.9952	1536.55	651.6
1001.5625	2751.2008	1537.25	650.05
1001.6833	2752.4057	1529.95	641.7
1001.8042	2753.61	1528.7	639.6
1001.925	2754.8136	1523.25	634.7
1002.0458	2756.0165	1522.25	637.55
1002.1665	2757.2188	1523.2	638.65
1002.2872	2758.4204	1518.2	631.65
1002.4078	2759.6213	1514.25	625.1
1002.5285	2760.8215	1514.9	625.1
1002.649	2762.0211	1511.6	621.95
1002.7696	2763.22	1508	616.85
1002.8901	2764.4182	1512.45	624.4
1003.0106	2765.6158	1512.5	626.6
1003.131	2766.8127	1500.1	615.4
1003.2514	2768.009	1496.05	610.7
1003.3717	2769.2045	1497.6	612.7
1003.492	2770.3994	1498.15	608.85
1003.6123	2771.5936	1491.35	604.4
1003.7325	2772.7872	1489.75	605.8
1003.8527	2773.9801	1480	592.35
1003.9729	2775.1723	1498	596.45
1004.093	2776.3639	1475.7	589.6
1004.2131	2777.5548	1484.6	596.9
1004.3331	2778.745	1475.45	586.6
1004.4531	2779.9346	1472.8	589.2
1004.5731	2781.1235	1474.8	585.85
1004.693	2782.3117	1466.6	580.35
1004.8129	2783.4992	1468.65	582.55
1004.9328	2784.6861	1465.35	579.65
1005.0526	2785.8723	1471.85	584.05
1005.1723	2787.0579	1465.55	578.8
1005.2921	2788.2428	1460.45	574.15
1005.4118	2789.427	1461.75	576.85
1005.5314	2790.6106	1464.8	578.55
1005.651	2791.7935	1462.15	573.35
1005.7706	2792.9757	1455.9	571.3
1005.8902	2794.1573	1460.65	572.2
1006.0097	2795.3382	1452.55	566.95
1006.1291	2796.5184	1446.5	561.75
1006.2485	2797.698	1454.15	567.05
1006.3679	2798.8769	1459	574.45
1006.4873	2800.0551	1450.25	565.2
1006.6066	2801.2327	1454.5	565.6
1006.7258	2802.4096	1453.45	567.85
1006.8451	2803.5859	1465.65	579.45
1006.9642	2804.7615	1459.7	572
1007.0834	2805.9364	1462.15	578.25
1007.2025	2807.1106	1459.75	574.2
1007.3216	2808.2842	1467.6	581.2
1007.4406	2809.4572	1469.05	583.1
1007.5596	2810.6294	1479.9	592.6
1007.6785	2811.801	1478.5	592.25
1007.7975	2812.972	1485.25	600.2
1007.9163	2814.1423	1484.45	598.55
1008.0352	2815.3119	1496.15	608.5
1008.154	2816.4808	1515.95	631.35
1008.2727	2817.6491	1514.4	627.8
1008.3914	2818.8167	1524.25	638.5
1008.5101	2819.9837	1540.35	649.1
1008.6288	2821.15	1547	661.25
1008.7474	2822.3157	1549.95	665.5
1008.8659	2823.4807	1569.4	682.7
1008.9844	2824.645	1580.85	694.1
1009.1029	2825.8086	1587.4	702
1009.2214	2826.9716	1601.75	716.75
1009.3398	2828.134	1616.1	730.75
1009.4581	2829.2957	1626.6	740.5
1009.5764	2830.4567	1635.4	751.2
1009.6947	2831.617	1634.95	749.25
1009.813	2832.7767	1638.65	754.6
1009.9312	2833.9358	1628.65	742.5
1010.0493	2835.0941	1633.2	744.15
1010.1675	2836.2519	1624.8	738.7
1010.2855	2837.4089	1617.55	731.2
1010.4036	2838.5653	1617.55	733.75
1010.5216	2839.7211	1614.5	730.2
1010.6396	2840.8761	1614.2	725.8
1010.7575	2842.0306	1608.75	724.5
1010.8754	2843.1843	1615.3	729.55
1010.9932	2844.3374	1621.35	736.95
1011.111	2845.4899	1626.15	741.3
1011.2288	2846.6417	1628.15	743.6
1011.3465	2847.7928	1642.1	753.9
1011.4642	2848.9433	1657.85	771.55
1011.5818	2850.0931	1660.65	773.85
1011.6995	2851.2422	1686.75	799.4
1011.817	2852.3907	1695.05	808.5
1011.9345	2853.5385	1703.05	816.4
1012.052	2854.6857	1713	816.8
1012.1695	2855.8323	1710.05	825.2
1012.2869	2856.9781	1722.4	837.6
1012.4042	2858.1233	1732.35	847.55
1012.5216	2859.2679	1735.45	849.7
1012.6389	2860.4118	1750.95	866.2
1012.7561	2861.555	1760.65	871.2
1012.8733	2862.6976	1764.85	875.35
1012.9905	2863.8395	1768.35	884.2
1013.1076	2864.9808	1778.15	893.65
1013.2247	2866.1214	1776.9	892.55
1013.3417	2867.2614	1785.5	898.05
1013.4587	2868.4007	1795.35	908.65
1013.5757	2869.5393	1783.7	899
1013.6926	2870.6773	1781.2	892.65
1013.8095	2871.8146	1790.9	902.75
1013.9263	2872.9513	1789.2	902.55
1014.0431	2874.0874	1784.1	897.95
1014.1599	2875.2227	1781.15	897.65
1014.2766	2876.3574	1783.35	897.75
1014.3933	2877.4915	1771.65	886.1
1014.51	2878.6249	1756	871.1
1014.6266	2879.7577	1756.7	868.35
1014.7431	2880.8898	1755.55	860
1014.8596	2882.0212	1745.8	862
1014.9761	2883.152	1746.4	860.95
1015.0925	2884.2821	1728.65	844.4
1015.2089	2885.4116	1741.6	858.55
1015.3253	2886.5405	1736.3	851.2
1015.4416	2887.6686	1747.9	858.9
1015.5579	2888.7962	1743	858.4
1015.6741	2889.923	1745.95	862.7
1015.7903	2891.0493	1745.05	861.5
1015.9065	2892.1748	1741.4	853.95
1016.0226	2893.2997	1740.1	853.5
1016.1387	2894.424	1739.6	856.5
1016.2547	2895.5476	1745	859.05
1016.3707	2896.6706	1745.9	863.9
1016.4866	2897.7929	1744.45	857.9
1016.6025	2898.9145	1750.8	866.95
1016.7184	2900.0355	1762	876.9
1016.8342	2901.1559	1762.85	876.25
1016.95	2902.2756	1761.45	875.45
1017.0658	2903.3946	1771.9	886.4
1017.1815	2904.513	1773.6	887.05
1017.2971	2905.6308	1770.75	887.9
1017.4127	2906.7479	1785.9	899.55
1017.5283	2907.8643	1782.3	895.8
1017.6439	2908.9801	1780.05	892.85
1017.7594	2910.0953	1775.7	889.65
1017.8748	2911.2098	1777.1	888.05
1017.9902	2912.3236	1781.05	887.3
1018.1056	2913.4368	1773.3	887.9
1018.2209	2914.5494	1767.65	881.9
1018.3362	2915.6613	1760.1	870.9
1018.4515	2916.7725	1757.15	867.9
1018.5667	2917.8831	1748.05	863.5
1018.6819	2918.9931	1736.55	848.3
1018.797	2920.1024	1729.5	844.9
1018.9121	2921.211	1717.65	832.35
1019.0271	2922.319	1705.05	819.85
1019.1421	2923.4264	1707.6	824.7
1019.2571	2924.5331	1699.45	816.2
1019.372	2925.6391	1717.65	831.35
1019.4869	2926.7445	1702.85	819.6
1019.6017	2927.8493	1700.9	816.1
1019.7165	2928.9534	1710.05	824.55
1019.8313	2930.0569	1701.55	813
1019.946	2931.1597	1701.15	814.35
1020.0606	2932.2619	1693.75	808.65
1020.1753	2933.3634	1703	818.35
1020.2899	2934.4643	1710.8	819.8
1020.4044	2935.5645	1714.4	823.8
1020.5189	2936.6641	1705.25	815.75
1020.6334	2937.763	1685.7	802.65
1020.7478	2938.8613	1678.3	795.8
1020.8622	2939.959	1678.8	789.05
1020.9765	2941.056	1647.35	763.15
1021.0908	2942.1523	1644.85	756.7
1021.2051	2943.248	1625.8	740.6
1021.3193	2944.3431	1601.95	718.5
1021.4334	2945.4375	1587.35	702.85
1021.5476	2946.5313	1557.8	674.7
1021.6617	2947.6244	1541.95	656.7
1021.7757	2948.7169	1520.6	634.65
1021.8897	2949.8087	1498.7	614.4
1022.0037	2950.8999	1480.8	595.15
1022.1176	2951.9904	1456.7	571.55
1022.2315	2953.0803	1447.8	562.35
1022.3453	2954.1696	1429.6	544.65
1022.4591	2955.2582	1416	532.45
1022.5728	2956.3462	1403.1	517
1022.6865	2957.4335	1397.95	514.25
1022.8002	2958.5202	1393.7	507.15
1022.9138	2959.6062	1386.35	501.15
1023.0274	2960.6916	1379.65	495.3
1023.141	2961.7764	1381.2	494.8
1023.2545	2962.8605	1374.65	490.75
1023.3679	2963.9439	1362.7	478.5
1023.4813	2965.0267	1360.9	475.5
1023.5947	2966.1089	1383.05	476.6
1023.708	2967.1905	1354.8	470.2
1023.8213	2968.2714	1353.7	470.45
1023.9346	2969.3516	1355.2	471.4
1024.0478	2970.4312	1360.8	469.05
1024.1609	2971.5102	1353.2	468.55
1024.274	2972.5885	1353.9	469.1
1024.3871	2973.6662	1359.1	470.25
1024.5002	2974.7432	1353.2	468.55
1024.6132	2975.8196	1355.65	469.65
1024.7261	2976.8954	1350.7	468.65
1024.839	2977.9705	1352	466.6
1024.9519	2979.045	1347.35	464.2
1025.0647	2980.1188	1340.5	454.9
1025.1775	2981.192	1342.45	457
1025.2902	2982.2645	1336.35	450.35
1025.4029	2983.3364	1323.25	440
1025.5156	2984.4077	1318.6	435.5
1025.6282	2985.4783	1322.4	432.8
1025.7407	2986.5483	1302.8	419
1025.8532	2987.6177	1297.45	413.9
1025.9657	2988.6864	1290.6	406.05
1026.0782	2989.7545	1286.5	400.7
1026.1906	2990.8219	1272.7	389.2
1026.3029	2991.8887	1271.35	384.7
1026.4152	2992.9548	1256.7	369.9
1026.5275	2994.0204	1252.3	369.45
1026.6397	2995.0852	1242.25	357.9
1026.7519	2996.1495	1245.3	360.9
1026.864	2997.2131	1229.55	345
1026.9761	2998.276	1225.9	341.55
1027.0882	2999.3383	1213.75	328.3
1027.2002	3000.4	1213.9	328.55
1027.3122	3001.4611	1209.55	325.4
1027.4241	3002.5215	1199.95	315.55
1027.536	3003.5812	1194.15	309.4
1027.6478	3004.6404	1193.2	309.4
1027.7596	3005.6989	1191.05	304.5
1027.8714	3006.7567	1183.05	298.45
1027.9831	3007.8139	1198.5	296.35
1028.0947	3008.8705	1182.55	299.1
1028.2064	3009.9264	1195.2	294.25
1028.3179	3010.9818	1169.8	285.7
1028.4295	3012.0364	1178.6	294.5
1028.541	3013.0905	1164	279.15
1028.6524	3014.1439	1166.45	281.55
1028.7638	3015.1966	1166.9	283.95
1028.8752	3016.2487	1164.95	279.75
1028.9865	3017.3002	1166.2	279.25
1029.0978	3018.3511	1159.65	276.65
1029.209	3019.4013	1159.85	275.4
1029.3202	3020.4509	1156.5	273.2
1029.4314	3021.4998	1158.65	272.5
1029.5425	3022.5481	1154.9	270.8
1029.6535	3023.5958	1157.1	273.95
1029.7645	3024.6428	1153.2	268.85
1029.8755	3025.6892	1151.5	270.05
1029.9864	3026.735	1150.35	264.4
1030.0973	3027.7802	1153.1	269.85
1030.2082	3028.8247	1150	267.15
1030.319	3029.8685	1149	263.6
1030.4297	3030.9118	1149.85	264.5
1030.5404	3031.9544	1145.25	263.05
1030.6511	3032.9963	1146.85	262.25
1030.7617	3034.0376	1138.6	255.35
1030.8723	3035.0783	1149.9	262.55
1030.9829	3036.1184	1146.2	258.95
1031.0934	3037.1578	1139.1	255.75
1031.2038	3038.1966	1142.25	258.1
1031.3142	3039.2348	1139.9	257.75
1031.4246	3040.2723	1157.25	265.5
1031.5349	3041.3092	1144.85	260.05
1031.6452	3042.3455	1138.1	253.7
1031.7554	3043.3811	1141.25	255.95
1031.8656	3044.4161	1138.8	254.15
1031.9758	3045.4505	1133.55	248.6
1032.0859	3046.4842	1142.5	259.05
1032.1959	3047.5173	1144.15	260.95
1032.3059	3048.5498	1134.2	249
1032.4159	3049.5816	1134.15	251.25
1032.5258	3050.6128	1134.6	249.9
1032.6357	3051.6434	1132.4	245.3
1032.7455	3052.6734	1127.45	240.05
1032.8553	3053.7027	1129.65	246
1032.9651	3054.7314	1128.95	245.85
1033.0748	3055.7594	1124.65	240.8
1033.1845	3056.7868	1128.25	242.6
1033.2941	3057.8136	1122.65	239.3
1033.4037	3058.8398	1118.45	235.75
1033.5132	3059.8653	1120.05	236.9
1033.6227	3060.8902	1123.6	241.35
1033.7321	3061.9145	1119	235.3
1033.8415	3062.9381	1120.8	236.25
1033.9509	3063.9612	1136.1	236.25
1034.0602	3064.9835	1121.6	235.5
1034.1694	3066.0053	1116.95	231.7
1034.2787	3067.0264	1109.85	226.2
1034.3878	3068.0469	1109.9	225.1
1034.497	3069.0668	1112	223.75
1034.6061	3070.086	1109.1	226.05
1034.7151	3071.1046	1109.8	222.5
1034.8241	3072.1226	1111.35	226.7
1034.9331	3073.1399	1103.2	219.25
1035.042	3074.1567	1104.5	220.35
1035.1508	3075.1727	1107.05	220.45
1035.2597	3076.1882	1102.05	217.3
1035.3684	3077.203	1094.75	211.75
1035.4772	3078.2173	1097.25	211.85
1035.5859	3079.2308	1094	205.8
1035.6945	3080.2438	1090	203.9
1035.8031	3081.2561	1092.35	208.4
1035.9117	3082.2678	1086.45	203.1
1036.0202	3083.2789	1084.45	202.2
1036.1286	3084.2893	1079	195.1
1036.2371	3085.2991	1084.95	201
1036.3454	3086.3083	1083.55	197.05
1036.4538	3087.3169	1078.8	193.35
1036.562	3088.3248	1081.5	197.05
1036.6703	3089.3321	1074	187.4
1036.7785	3090.3388	1070.75	188.25
1036.8866	3091.3449	1067.25	182.9
1036.9948	3092.3503	1075.15	189.35
1037.1028	3093.3551	1067.7	186.2
1037.2108	3094.3593	1073.65	192.15
1037.3188	3095.3629	1065.5	184.15
1037.4267	3096.3658	1066.2	180.45
1037.5346	3097.3681	1063.8	180.35
1037.6425	3098.3698	1067.05	181.05
1037.7503	3099.3708	1067.25	178.35
1037.858	3100.3713	1057.55	174.25
1037.9657	3101.3711	1062.3	178
1038.0734	3102.3702	1200.85	176.6
1038.181	3103.3688	1058.7	172.9
1038.2886	3104.3667	1054	171.95
1038.3961	3105.364	1055.6	173.15
1038.5036	3106.3607	1056.3	171.15
1038.611	3107.3568	1048.1	164.15
1038.7184	3108.3522	1048.3	166.15
1038.8257	3109.347	1054.05	167.75
1038.933	3110.3412	1051.4	164.2
1039.0403	3111.3348	1045.8	162.6
1039.1475	3112.3277	1041.7	156.35
1039.2547	3113.32	1048.45	166.65
1039.3618	3114.3117	1041.85	157.25
1039.4689	3115.3028	1042.9	159.05
1039.5759	3116.2932	1048	160.75
1039.6829	3117.2831	1048.4	160.3
1039.7898	3118.2723	1040.65	156.7
1039.8967	3119.2608	1038.25	154.15
1040.0035	3120.2488	1038.85	154.45
1040.1103	3121.2361	1036.9	153.05
1040.2171	3122.2229	1033.8	150
1040.3238	3123.209	1039.45	154.35
1040.4305	3124.1944	1035.7	152.05
1040.5371	3125.1793	1034.4	149.15
1040.6437	3126.1635	1033.7	150.25
1040.7502	3127.1471	1030.2	146
1040.8567	3128.1301	1032.8	149.6
1040.9631	3129.1125	1027.85	143.9
1041.0695	3130.0942	1030.55	145.9
1041.1759	3131.0753	1039.75	149.95
1041.2822	3132.0558	1030.45	142.85
1041.3884	3133.0357	1027.6	144.35
1041.4946	3134.015	1030.9	145.3
1041.6008	3134.9936	1027	142.55
1041.7069	3135.9716	1043.3	138.75
1041.813	3136.949	1021.4	137.55
1041.919	3137.9258	1038.85	136.15
1042.025	3138.902	1028.5	139.8
1042.1309	3139.8775	1019.15	133.6
1042.2368	3140.8524	1017.45	134.9
1042.3427	3141.8267	1024.25	140.1
1042.4485	3142.8004	1021.8	138.5
1042.5542	3143.7735	1026.4	138.45
1042.6599	3144.7459	1023.85	137.7
1042.7656	3145.7178	1018.1	134.2
1042.8712	3146.689	1015.1	134.25
1042.9768	3147.6596	1015.75	128.9
1043.0823	3148.6295	1015.2	132.45
1043.1878	3149.5989	1018.55	135.85
1043.2932	3150.5676	1011.35	129.75
1043.3986	3151.5357	1011.25	130.05
1043.5039	3152.5032	1011	127.5
1043.6092	3153.4701	1013.7	132.2
1043.7145	3154.4364	1013.5	127.9
1043.8197	3155.402	1011.85	128.85
1043.9248	3156.367	1013	126.25
1044.03	3157.3315	1035.5	127.75
1044.135	3158.2952	1008.95	125.65
1044.24	3159.2584	1008	124.3
1044.345	3160.221	1007.85	125.2
1044.4499	3161.1829	1002.4	117.65
1044.5548	3162.1442	1004.7	121.35
1044.6596	3163.105	1005.5	122.25
1044.7644	3164.065	1004.9	121.75
1044.8692	3165.0245	1004.55	117.5
1044.9739	3165.9834	998.85	115.95
1045.0785	3166.9416	1003.45	119.55
1045.1831	3167.8993	1000.6	117.3
1045.2877	3168.8563	1002.45	118.3
1045.3922	3169.8127	999.4	116.35
1045.4966	3170.7684	999.55	116.45
1045.6011	3171.7236	995.55	110.6
1045.7054	3172.6782	994.75	108.85
1045.8098	3173.6321	997.85	114.85
1045.914	3174.5854	998.7	111.6
1046.0183	3175.5381	998.25	115.35
1046.1224	3176.4902	999.8	117.4
1046.2266	3177.4417	994	110.6
1046.3307	3178.3926	994.5	110.6
1046.4347	3179.3428	988.3	106.65
1046.5387	3180.2924	993.2	110
1046.6427	3181.2415	991.25	106.9
1046.7466	3182.1899	993.5	108.4
1046.8504	3183.1377	988.7	106.55
1046.9542	3184.0848	990.75	103.45
1047.058	3185.0314	991.6	106.75
1047.1617	3185.9773	990.9	104.5
1047.2654	3186.9227	990.15	104.05
1047.369	3187.8674	987.3	102.9
1047.4726	3188.8115	986.3	97.7
1047.5761	3189.755	989.15	107.6
1047.6796	3190.6979	988.15	104.1
1047.783	3191.6402	984.65	102.7
1047.8864	3192.5818	982.05	100.65
1047.9898	3193.5229	989.8	99.15
1048.0931	3194.4633	985.95	101.85
1048.1963	3195.4031	985.7	102.1
1048.2995	3196.3423	984.45	101
1048.4027	3197.2809	982.2	99.1
1048.5058	3198.2189	982.45	98.55
1048.6089	3199.1563	989	98.6
1048.7119	3200.0931	980.1	95.9
1048.8148	3201.0292	976.3	94
1048.9178	3201.9648	979.75	97.35
1049.0206	3202.8997	982.75	96.4
1049.1235	3203.834	979.5	97.25
1049.2262	3204.7677	981.25	96.05
1049.329	3205.7008	978.2	93.8
1049.4317	3206.6333	977.9	97.2
1049.5343	3207.5652	977.65	91.1
1049.6369	3208.4964	978.55	94.85
1049.7394	3209.4271	975.3	92.05
1049.8419	3210.3571	976.5	93.9
1049.9444	3211.2865	976.65	93.2
1050.0468	3212.2154	976	91.75
1050.1491	3213.1436	979	92.4
1050.2514	3214.0712	980.55	90.25
1050.3537	3214.9982	972.55	88.65
1050.4559	3215.9246	977.2	92.95
1050.5581	3216.8503	972.8	89.7
1050.6602	3217.7755	968.9	85.6
1050.7623	3218.7001	970.35	86.25
1050.8643	3219.624	971.85	88.15
1050.9663	3220.5473	973.25	91.75
1051.0682	3221.4701	973.15	86.95
1051.1701	3222.3922	970.8	85
1051.2719	3223.3137	971.75	87.9
1051.3737	3224.2346	970.95	88.5
1051.4754	3225.1549	966.9	85
1051.5771	3226.0746	970.1	87.55
1051.6788	3226.9937	967.3	83.5
1051.7804	3227.9121	966.2	83.35
1051.8819	3228.83	967.8	86.1
1051.9834	3229.7473	964.45	80.7
1052.0849	3230.6639	968.95	86.75
1052.1863	3231.5799	967.1	84.1
1052.2876	3232.4954	966.25	81.5
1052.3889	3233.4102	963.4	79.8
1052.4902	3234.3244	964.55	82.2
1052.5914	3235.238	965.6	81.65
1052.6926	3236.151	986.8	78.45
1052.7937	3237.0634	963.7	81.5
1052.8948	3237.9752	960.3	76.35
1052.9958	3238.8864	962.1	78.65
1053.0968	3239.797	961.2	79.55
1053.1977	3240.7069	962.4	77.7
1053.2986	3241.6163	959.25	74.1
1053.3994	3242.5251	962.7	80.1
1053.5002	3243.4332	956.75	73.95
1053.6009	3244.3408	957.35	74.05
1053.7016	3245.2477	955.95	74.85
1053.8022	3246.154	955.9	72.2
1053.9028	3247.0598	956.95	73
1054.0034	3247.9649	957.15	75.6
1054.1039	3248.8694	953.8	69.4
1054.2043	3249.7733	954.35	70.15
1054.3047	3250.6766	954.1	70.2
1054.4051	3251.5793	952.2	67.35
1054.5054	3252.4814	952.35	71.75
1054.6056	3253.3829	954.65	70.7
1054.7058	3254.2838	953.1	71.05
1054.806	3255.1841	954	71.15
1054.9061	3256.0838	953.9	70.45
1055.0061	3256.9829	948.95	67.7
1055.1062	3257.8814	951.3	65.3
1055.2061	3258.7792	951.75	66.2
1055.306	3259.6765	951.6	67.25
1055.4059	3260.5731	951.35	68.2
1055.5057	3261.4692	949.15	64.25
1055.6055	3262.3647	946.35	63.55
1055.7052	3263.2595	943.85	58
1055.8049	3264.1538	944	61.9
1055.9045	3265.0474	946.35	62.75
1056.0041	3265.9404	943.8	61.65
1056.1036	3266.8329	940.25	57.35
1056.2031	3267.7247	947.35	53.4
1056.3025	3268.616	939.7	56.95
1056.4019	3269.5066	938	53.45
1056.5013	3270.3966	938.4	54.2
1056.6005	3271.286	937.05	55.95
