Software Version:	3.9.2.0
Unit SN:	10000200
Spectrometer SN:	6960
Date:	3/26/2024 2:08:05 PM
Data Line Index:	25
Spectral Points:	2048
Integration time (ms):	125
Averages:	20
Delay (ms):	30000
Sequence Number:	1
Processing:	dark subtract
Laser Power (mW):	300
Laser Current (mA):	820
Laser Diode Temp (C):	25.1
Laser Case Temp (C):	27.5
System Temp (C):	27.5
Spectrometer Temp (C):	25.4
CCD Temp (C):	0.008
Secondary Temp (C):	20.006
Heatsink Temp (C):	23.05
CCDPCB Temp (C):	36.651
SecondaryPCB Temp (C):	34.617

Wavelength	RamanShift	Raw Counts	Dark Subtracted
787.061	30.1047	660.9	250
787.2016	32.3739	675	266.8
787.3422	34.6426	696.15	285.5
787.4828	36.9109	710.25	298.8
787.6235	39.1787	739.25	324.75
787.7642	41.4461	763.25	341.8
787.9049	43.7131	786.7	362.75
788.0456	45.9796	809.9	381.5
788.1863	48.2456	838.1	405.1
788.3271	50.5112	871.2	436.85
788.4679	52.7764	901.85	464.4
788.6087	55.0411	930.8	491.65
788.7496	57.3054	965	517.4
788.8904	59.5692	1003.4	554.1
789.0313	61.8326	1039.45	587
789.1722	64.0955	1088.85	630.65
789.3132	66.3579	1132.4	671.65
789.4541	68.6199	1193.7	728.25
789.5951	70.8815	1304.15	835.6
789.7361	73.1426	1513.15	1042.05
789.8771	75.4032	2057.7	1578.5
790.0181	77.6634	3423.2	2939.05
790.1592	79.9231	6826.45	6332.9
790.3003	82.1824	14667.65	14153.1
790.4414	84.4412	34351	33801.1
790.5825	86.6995	61547	60943.65
790.7237	88.9574	65467.1	64816.85
790.8648	91.2148	65535	64853.4
791.006	93.4717	65535	64829.5
791.1472	95.7282	65535	64822
791.2885	97.9842	65535	64810.75
791.4297	100.2398	65535	64812
791.571	102.4949	65535	64809.2
791.7123	104.7495	65535	64805.85
791.8536	107.0036	65535	64807.1
791.9949	109.2573	65535	64808.45
792.1363	111.5105	65535	64805.1
792.2777	113.7632	65535	64800.4
792.4191	116.0154	65535	64790.4
792.5605	118.2672	65535	64793.8
792.7019	120.5185	65535	64797.5
792.8434	122.7693	65535	64798.2
792.9849	125.0197	65535	64791.5
793.1264	127.2696	65535	64787.9
793.2679	129.519	65535	64783.75
793.4094	131.7679	65535	64776.75
793.551	134.0163	65535	64771.9
793.6926	136.2642	65535	64774.5
793.8342	138.5117	65535	64766.65
793.9758	140.7587	65535	64768.3
794.1175	143.0052	65535	64766.05
794.2591	145.2512	65535	64769.35
794.4008	147.4967	65535	64769.15
794.5425	149.7417	65535	64766.25
794.6842	151.9863	65535	64760.3
794.826	154.2304	65535	64756.6
794.9677	156.4739	65535	64746
795.1095	158.717	65535	64752.3
795.2513	160.9596	65535	64746.85
795.3931	163.2017	65535	64741
795.535	165.4433	65535	64741.8
795.6768	167.6844	65535	64743.65
795.8187	169.925	65535	64740.3
795.9606	172.1651	65535	64737.7
796.1025	174.4047	65535	64740.35
796.2445	176.6439	65535	64738.65
796.3864	178.8825	65535	64732.25
796.5284	181.1206	65535	64725.7
796.6704	183.3582	65535	64717.35
796.8124	185.5954	65535	64715.7
796.9544	187.832	65535	64718.1
797.0965	190.0681	65535	64714.8
797.2386	192.3037	65535	64708.6
797.3806	194.5388	65535	64707.1
797.5228	196.7734	65535	64708.15
797.6649	199.0075	65535	64700.05
797.807	201.2411	65535	64695
797.9492	203.4742	65535	64694.95
798.0914	205.7068	65535	64698.25
798.2336	207.9389	65535	64692.25
798.3758	210.1704	65535	64693.6
798.518	212.4015	65535	64693.95
798.6603	214.632	65535	64696.05
798.8025	216.862	65535	64698.85
798.9448	219.0915	65535	64707.45
799.0871	221.3205	65535	64706.35
799.2294	223.549	65535	64712.5
799.3718	225.777	65535	64715.6
799.5141	228.0044	65535	64707.8
799.6565	230.2314	65535	64714.15
799.7989	232.4578	65535	64718.35
799.9413	234.6837	65535	64709.95
800.0837	236.909	65535	64709.65
800.2262	239.1339	65535	64675.4
800.3687	241.3582	65535	64690.8
800.5111	243.582	65535	64667.05
800.6536	245.8053	65535	64676
800.7961	248.0281	65535	64682.95
800.9387	250.2503	65535	64674.25
801.0812	252.472	65535	64669.2
801.2238	254.6932	65535	64668.95
801.3664	256.9139	65535	64670.15
801.509	259.134	65535	64660.1
801.6516	261.3536	65535	64663.1
801.7942	263.5727	65535	64658.95
801.9369	265.7912	65535	64663.4
802.0795	268.0092	65535	64661.4
802.2222	270.2267	65535	64662.65
802.3649	272.4436	65535	64663.15
802.5076	274.6601	65535	64654.7
802.6504	276.8759	65535	64662.5
802.7931	279.0913	65535	64657.45
802.9359	281.3061	65535	64654.75
803.0787	283.5204	65535	64654.55
803.2215	285.7341	65535	64650.6
803.3643	287.9473	65535	64639.25
803.5071	290.16	65535	64644.35
803.6499	292.3721	65535	64645.35
803.7928	294.5837	65535	64648.8
803.9357	296.7947	65535	64644.25
804.0786	299.0052	65535	64643.35
804.2215	301.2152	65535	64647.6
804.3644	303.4246	65535	64653.8
804.5074	305.6334	65535	64650.3
804.6503	307.8418	65535	64648.9
804.7933	310.0495	65535	64648.25
804.9363	312.2568	65535	64644.3
805.0793	314.4635	65535	64639.2
805.2223	316.6696	65535	64639.9
805.3653	318.8752	65535	64631.95
805.5084	321.0802	65535	64637.4
805.6514	323.2847	65535	64641.1
805.7945	325.4887	65535	64636.25
805.9376	327.692	65535	64637.55
806.0807	329.8949	65535	64638.65
806.2238	332.0972	65535	64636.4
806.367	334.2989	65535	64630.55
806.5101	336.5001	65535	64632.25
806.6533	338.7007	65535	64628.95
806.7965	340.9008	65535	64631.1
806.9397	343.1003	65535	64626.95
807.0829	345.2992	65535	64625.2
807.2261	347.4976	65535	64627.3
807.3693	349.6955	65535	64624.3
807.5126	351.8927	65535	64619.15
807.6559	354.0895	65535	64612.75
807.7991	356.2856	65535	64621.85
807.9424	358.4812	65535	64618.95
808.0857	360.6763	65535	64618.75
808.2291	362.8707	65535	64617.85
808.3724	365.0646	65535	64622.8
808.5158	367.258	65535	64615.1
808.6591	369.4508	65535	64616.4
808.8025	371.643	65535	64611.1
808.9459	373.8346	65535	64608.15
809.0893	376.0257	65535	64610.9
809.2327	378.2162	65535	64609.9
809.3762	380.4062	65535	64608.65
809.5196	382.5956	65535	64607.05
809.6631	384.7844	65535	64611.5
809.8066	386.9726	65535	64608.35
809.9501	389.1603	65535	64607.2
810.0936	391.3474	65535	64582.6
810.2371	393.5339	65535	64613.55
810.3806	395.7199	65535	64613.8
810.5241	397.9052	65535	64617.75
810.6677	400.09	65535	64618.6
810.8113	402.2743	65535	64618.2
810.9548	404.4579	65535	64618.75
811.0984	406.641	65535	64615.65
811.2421	408.8235	65535	64620.5
811.3857	411.0054	65535	64619.9
811.5293	413.1868	65535	64609.8
811.673	415.3675	65535	64616.05
811.8166	417.5477	65535	64611.7
811.9603	419.7273	65535	64608.4
812.104	421.9064	65535	64604.45
812.2477	424.0848	65535	64606.65
812.3914	426.2627	65535	64604.85
812.5351	428.4399	65535	64603.85
812.6788	430.6166	65535	64600.1
812.8226	432.7928	65535	64599.7
812.9663	434.9683	65535	64608.15
813.1101	437.1432	65535	64608.95
813.2539	439.3176	65535	64610.5
813.3977	441.4914	65535	64611.1
813.5415	443.6645	65535	64608.35
813.6853	445.8371	65535	64597.4
813.8291	448.0091	65535	64610.3
813.973	450.1806	65535	64604.5
814.1168	452.3514	65535	64606.15
814.2607	454.5216	65535	64599.15
814.4046	456.6913	65535	64602.85
814.5485	458.8603	65535	64605.8
814.6924	461.0288	65535	64608.1
814.8363	463.1967	65535	64615.9
814.9802	465.3639	65535	64610.7
815.1241	467.5306	65535	64608.05
815.2681	469.6967	65535	64612.9
815.412	471.8622	65535	64614.65
815.556	474.0271	65535	64609.75
815.7	476.1914	65535	64604.45
815.844	478.3551	65535	64601.9
815.988	480.5182	65535	64609.75
816.132	482.6807	65535	64616
816.276	484.8426	65535	64622.3
816.4201	487.0039	65535	64617.15
816.5641	489.1647	65535	64607.75
816.7082	491.3248	65535	64601.45
816.8522	493.4843	65535	64612.85
816.9963	495.6432	65535	64609.85
817.1404	497.8015	65535	64600.2
817.2845	499.9592	65535	64593.65
817.4286	502.1163	65535	64595.8
817.5727	504.2728	65535	64603.45
817.7168	506.4287	65535	64618.25
817.861	508.5839	65535	64615.95
818.0051	510.7386	65535	64608.1
818.1493	512.8927	65535	64590.55
818.2935	515.0461	65535	64598.85
818.4377	517.199	65535	64599
818.5818	519.3512	65535	64594.5
818.726	521.5029	65535	64595.45
818.8703	523.6539	65535	64602.1
819.0145	525.8043	65535	64597.2
819.1587	527.9541	65535	64593.6
819.303	530.1033	65535	64598.9
819.4472	532.2519	65535	64597.6
819.5915	534.3999	65535	64597.4
819.7357	536.5472	65535	64600.4
819.88	538.694	65535	64599.5
820.0243	540.8401	65535	64596.05
820.1686	542.9856	65535	64588.35
820.3129	545.1305	65535	64579.85
820.4572	547.2748	65535	64570
820.6016	549.4185	65535	64574
820.7459	551.5615	65535	64578.9
820.8902	553.704	65535	64581.8
821.0346	555.8458	65535	64582.9
821.1789	557.987	65535	64587.45
821.3233	560.1276	65535	64579.5
821.4677	562.2675	65535	64577.85
821.6121	564.4069	65535	64583.4
821.7565	566.5456	65535	64584.4
821.9009	568.6837	65535	64590.15
822.0453	570.8212	65535	64591.5
822.1897	572.958	65535	64585.2
822.3342	575.0942	65535	64591.05
822.4786	577.2299	65535	64594.6
822.6231	579.3648	65535	64612
822.7675	581.4992	65535	64620.95
822.912	583.6329	65535	64618.8
823.0565	585.766	65535	64613.85
823.201	587.8985	65535	64603.5
823.3454	590.0304	65535	64584.35
823.4899	592.1616	65535	64590.15
823.6345	594.2922	65535	64585.4
823.779	596.4222	65535	64582.65
823.9235	598.5515	65535	64581.2
824.068	600.6802	65535	64580.4
824.2126	602.8083	65535	64587.95
824.3571	604.9358	65535	64581.6
824.5017	607.0626	65535	64582.55
824.6462	609.1888	65535	64574.3
824.7908	611.3144	65535	64570.7
824.9354	613.4393	65535	64574.95
825.08	615.5636	65535	64575.25
825.2246	617.6873	65535	64576
825.3692	619.8103	65535	64579.15
825.5138	621.9327	65535	64584
825.6584	624.0544	65535	64587.25
825.803	626.1756	65535	64590.2
825.9477	628.2961	65535	64580.85
826.0923	630.4159	65535	64579.75
826.237	632.5351	65535	64578.15
826.3816	634.6537	65535	64574.3
826.5263	636.7716	65535	64573.95
826.6709	638.8889	65535	64574.15
826.8156	641.0056	65535	64572
826.9603	643.1216	65535	64574.2
827.105	645.237	65535	64576.65
827.2497	647.3518	65535	64581.2
827.3944	649.4659	65535	64586.5
827.5391	651.5793	65535	64589.35
827.6838	653.6922	65535	64581.7
827.8285	655.8043	65535	64582.2
827.9733	657.9159	65535	64579.85
828.118	660.0268	65535	64582.5
828.2627	662.137	65535	64575.55
828.4075	664.2466	65535	64570.6
828.5522	666.3556	65535	64567.9
828.697	668.4639	65535	64576.55
828.8418	670.5716	65535	64584.3
828.9865	672.6786	65535	64575.7
829.1313	674.785	65535	64572.35
829.2761	676.8907	65535	64576.4
829.4209	678.9958	65535	64581.75
829.5657	681.1002	65535	64580.7
829.7105	683.204	65535	64569.65
829.8553	685.3072	65535	64570.2
830.0001	687.4097	65535	64570.7
830.1449	689.5115	65535	64569.6
830.2898	691.6127	65535	64577
830.4346	693.7132	65535	64577.85
830.5794	695.8131	65535	64553.2
830.7243	697.9123	65535	64568.8
830.8691	700.0109	65535	64570.55
831.014	702.1089	65535	64570.3
831.1588	704.2061	65535	64575.1
831.3037	706.3028	65535	64568.65
831.4486	708.3987	65535	64570.4
831.5935	710.4941	65535	64575.6
831.7383	712.5887	65535	64574.05
831.8832	714.6827	65535	64568
832.0281	716.7761	65535	64581.5
832.173	718.8688	65535	64571.5
832.3179	720.9608	65535	64564.55
832.4628	723.0522	65535	64558.75
832.6077	725.1429	65535	64569.25
832.7527	727.233	65535	64570.05
832.8976	729.3224	65535	64564.5
833.0425	731.4112	65535	64571.7
833.1874	733.4993	65535	64567.3
833.3324	735.5867	65535	64571.6
833.4773	737.6735	65535	64569.85
833.6222	739.7596	65535	64570.5
833.7672	741.845	65535	64575.35
833.9122	743.9298	65535	64568.65
834.0571	746.014	65535	64571.2
834.2021	748.0974	65535	64560.05
834.347	750.1802	65535	64559.65
834.492	752.2624	65535	64563
834.637	754.3439	65535	64559.4
834.782	756.4247	65535	64556.95
834.9269	758.5048	65535	64564.55
835.0719	760.5843	65535	64563.4
835.2169	762.6631	65535	64564
835.3619	764.7413	65535	64563.6
835.5069	766.8188	65535	64565.8
835.6519	768.8956	65535	64566.6
835.7969	770.9718	65535	64562.15
835.9419	773.0473	65535	64565
836.0869	775.1221	65535	64569.25
836.232	777.1962	65535	64566.7
836.377	779.2697	65525.8	64554.6
836.522	781.3426	65535	64544
836.667	783.4147	65535	64559.45
836.8121	785.4862	65535	64568
836.9571	787.557	65524.65	64552.1
837.1021	789.6271	65535	64562.45
837.2472	791.6966	65527.6	64551.6
837.3922	793.7654	65501.45	64528.2
837.5373	795.8335	65506.35	64534.5
837.6823	797.901	65520.4	64548.2
837.8274	799.9678	65515	64541
837.9724	802.0339	65504.5	64532.65
838.1175	804.0993	65508.7	64524.6
838.2626	806.1641	65485.6	64513
838.4076	808.2282	65475.85	64504.9
838.5527	810.2916	65458.2	64487.9
838.6978	812.3544	65504.5	64535.55
838.8428	814.4164	65439.6	64473.05
838.9879	816.4778	65435.55	64460.1
839.133	818.5385	65450	64473.1
839.2781	820.5986	65439	64467.75
839.4232	822.658	65449.2	64470.3
839.5682	824.7166	65462.75	64490.45
839.7133	826.7747	65401.1	64426.4
839.8584	828.832	65420.05	64445.5
840.0035	830.8886	65467.6	64488.25
840.1486	832.9446	65465.6	64491.25
840.2937	834.9999	65334.45	64358.3
840.4388	837.0545	65406.7	64427.75
840.5839	839.1085	65449.4	64479.1
840.729	841.1618	65420.6	64446.5
840.8741	843.2143	65328.35	64353.75
841.0192	845.2662	65335.5	64361.2
841.1643	847.3175	65379.85	64406.2
841.3095	849.368	65225.2	64248.45
841.4546	851.4179	65349.05	64376.45
841.5997	853.467	65258.9	64281.7
841.7448	855.5155	65322.75	64348.05
841.8899	857.5633	65207.75	64234.65
842.0351	859.6105	65185.65	64211
842.1802	861.6569	65228.85	64254.4
842.3253	863.7027	65089.05	64111.45
842.4704	865.7478	65160.2	64185.25
842.6156	867.7922	65134.2	64158.65
842.7607	869.8359	65195.45	64219.15
842.9058	871.8789	65041.2	64061.55
843.0509	873.9212	65151.35	64137.7
843.1961	875.9629	65169.85	64194.8
843.3412	878.0039	65136.35	64158.85
843.4863	880.0441	65081.9	64108.1
843.6315	882.0837	65083.4	64110.35
843.7766	884.1226	65071.6	64092.9
843.9218	886.1609	65046.5	64074.45
844.0669	888.1984	64962.6	63988.55
844.212	890.2352	65086.9	64112.4
844.3572	892.2714	64928.35	63944.05
844.5023	894.3069	64992.9	64015.95
844.6475	896.3416	64916.5	63941.7
844.7926	898.3757	64897.45	63919.05
844.9377	900.4091	64667.6	63690.2
845.0829	902.4418	64955.7	63973.55
845.228	904.4739	64809.8	63828.05
845.3732	906.5052	64839.1	63860.9
845.5183	908.5358	64733.4	63754.15
845.6635	910.5658	64660.7	63680.45
845.8086	912.595	64665.3	63689.35
845.9538	914.6236	64420.75	63443.85
846.0989	916.6515	64783.65	63804.65
846.2441	918.6786	64421.2	63440.55
846.3892	920.7051	64492.4	63512.25
846.5344	922.7309	64453.75	63479.05
846.6795	924.756	64522	63546.65
846.8246	926.7804	64403.25	63426.75
846.9698	928.8041	64119.75	63139.1
847.1149	930.8272	64323.05	63347.3
847.2601	932.8495	64333.45	63354.4
847.4052	934.8711	64129.45	63150.5
847.5504	936.892	63960.2	62983.1
847.6955	938.9123	64057.55	63078.25
847.8407	940.9318	63874.7	62894.2
847.9858	942.9506	63840.15	62862.65
848.131	944.9688	63873.25	62893.7
848.2761	946.9862	63469.55	62494.9
848.4213	949.003	63659.05	62681.15
848.5664	951.019	63281.95	62300.65
848.7115	953.0344	63370.35	62396.3
848.8567	955.0491	63306.3	62328.15
849.0018	957.063	63431.8	62454.8
849.147	959.0763	63480.45	62494.95
849.2921	961.0888	63206.65	62231.3
849.4373	963.1007	63436.05	62462.15
849.5824	965.1119	63408.15	62440
849.7275	967.1223	63213.35	62253.5
849.8727	969.1321	63471.25	62512.5
850.0178	971.1412	63115.6	62152.25
850.1629	973.1495	62972.75	62003.05
850.3081	975.1572	63132.65	62103.9
850.4532	977.1641	63001.85	62023.05
850.5983	979.1704	62965.15	61988.6
850.7435	981.1759	62968.15	61992.2
850.8886	983.1808	62780.4	61799.15
851.0337	985.1849	62791.65	61804.7
851.1788	987.1884	62868.9	61889.6
851.324	989.1911	63023.75	62047
851.4691	991.1932	62485.3	61508.35
851.6142	993.1945	62660.5	61686.7
851.7593	995.1951	62794.75	61820.45
851.9045	997.1951	62448.65	61461.9
852.0496	999.1943	62322.75	61348.15
852.1947	1001.1928	62204.2	61225.25
852.3398	1003.1906	62312.85	61336.4
852.4849	1005.1877	61842.3	60866.65
852.63	1007.1841	61693.35	60724.1
852.7751	1009.1798	61673.95	60704.5
852.9202	1011.1748	61607.1	60636.75
853.0653	1013.1691	61477.65	60506.85
853.2104	1015.1627	60102.75	59127.65
853.3555	1017.1556	60723.8	59751.65
853.5006	1019.1477	60864.6	59891.1
853.6457	1021.1392	60238.35	59277.2
853.7908	1023.1299	59319.45	58358.7
853.9359	1025.12	59926.45	58972
854.081	1027.1093	59465.1	58523.25
854.2261	1029.0979	59447.6	58508
854.3712	1031.0859	59348.6	58403.05
854.5163	1033.0731	58650.35	57694.25
854.6613	1035.0596	58946.2	57985.7
854.8064	1037.0454	58685	57723.05
854.9515	1039.0304	58277.75	57310.75
855.0965	1041.0148	57279	56308.9
855.2416	1042.9985	57477.65	56506.95
855.3867	1044.9814	58010.9	57041.5
855.5317	1046.9636	57030.05	56056.35
855.6768	1048.9452	57095.4	56127.2
855.8219	1050.926	56952.9	55983.5
855.9669	1052.9061	56864.7	55896.45
856.112	1054.8855	56879	55907
856.257	1056.8642	56468	55495.7
856.4021	1058.8421	56145.9	55170.45
856.5471	1060.8194	56231.75	55261.6
856.6921	1062.7959	55822.65	54849.8
856.8372	1064.7717	56227.5	55255.55
856.9822	1066.7469	55872.4	54902.15
857.1272	1068.7213	55786.45	54816.1
857.2723	1070.695	55438	54468.5
857.4173	1072.6679	54956.15	53988.1
857.5623	1074.6402	55254.85	54285.75
857.7073	1076.6117	54807.4	53828.7
857.8523	1078.5826	54816.65	53847.4
857.9973	1080.5527	54780	53804.9
858.1423	1082.5221	54535.25	53563.55
858.2873	1084.4908	54703	53733.75
858.4323	1086.4587	54626.95	53657.35
858.5773	1088.426	54686.45	53716.7
858.7223	1090.3925	54531.5	53555.65
858.8673	1092.3584	54395.35	53426.9
859.0123	1094.3235	53784.75	52815.8
859.1573	1096.2879	53696.3	52729.45
859.3022	1098.2515	53723.1	52753.75
859.4472	1100.2145	53499.75	52531.05
859.5922	1102.1767	53399.45	52427.95
859.7371	1104.1382	53571.4	52607.05
859.8821	1106.099	53444.5	52473.95
860.027	1108.0591	53378	52410.7
860.172	1110.0185	52922.65	51956.1
860.3169	1111.9771	53405.55	52441.05
860.4619	1113.9351	52888.55	51918.8
860.6068	1115.8923	52415.75	51448.25
860.7517	1117.8488	51873.4	50904.75
860.8967	1119.8045	51342.7	50377.2
861.0416	1121.7596	51336.15	50370.3
861.1865	1123.7139	51047.85	50085.95
861.3314	1125.6675	50972.3	50005.55
861.4763	1127.6204	50922.3	49957
861.6212	1129.5726	50584.65	49614.1
861.7661	1131.524	50687.45	49719.75
861.911	1133.4748	50646.55	49679.35
862.0559	1135.4248	50400.8	49432.8
862.2008	1137.3741	50293.75	49327.25
862.3457	1139.3226	50106.15	49138.9
862.4905	1141.2705	50118.3	49151.25
862.6354	1143.2176	49788.4	48815.6
862.7803	1145.164	49633.2	48667.65
862.9251	1147.1097	49588.35	48622.45
863.07	1149.0546	49484.8	48515.7
863.2148	1150.9989	49392.35	48425.75
863.3597	1152.9424	49085.15	48118.6
863.5045	1154.8852	48889.8	47918.7
863.6493	1156.8272	48612.15	47642.05
863.7942	1158.7686	48632.6	47659.8
863.939	1160.7092	48204.8	47232.95
864.0838	1162.6491	48052.4	47081.2
864.2286	1164.5883	48121.8	47157.4
864.3734	1166.5267	47959.2	46993.7
864.5182	1168.4644	48051.6	47086.7
864.663	1170.4014	48130.35	47155.55
864.8078	1172.3377	48331.35	47369.15
864.9526	1174.2732	48494.8	47530.2
865.0974	1176.2081	48464.65	47500.7
865.2421	1178.1421	48454.45	47486.25
865.3869	1180.0755	48650.5	47687.75
865.5317	1182.0082	48456.2	47494.8
865.6764	1183.9401	48343.1	47383.3
865.8212	1185.8713	47930.9	46970.6
865.9659	1187.8017	47687.25	46739.7
866.1106	1189.7315	47474.6	46533.3
866.2554	1191.6605	46968	46026.4
866.4001	1193.5888	46590.65	45644.7
866.5448	1195.5163	46386	45431.05
866.6895	1197.4432	46146.2	45186.45
866.8342	1199.3693	46000.3	45040.7
866.9789	1201.2947	45721.85	44753.05
867.1236	1203.2193	45634.3	44672.3
867.2683	1205.1432	45468.75	44504.6
867.413	1207.0664	45372.65	44410.9
867.5576	1208.9889	45293.5	44332.75
867.7023	1210.9106	45099.15	44137.5
867.847	1212.8316	45054.55	44096.3
867.9916	1214.7519	44992	44020.55
868.1363	1216.6715	44780.55	43817.05
868.2809	1218.5903	44725.7	43765.6
868.4255	1220.5084	44529.1	43568.6
868.5701	1222.4257	44476.5	43517.1
868.7148	1224.3424	44136.95	43180.8
868.8594	1226.2583	44160.45	43199.15
869.004	1228.1735	44095.9	43136.25
869.1486	1230.0879	43977.35	43013.75
869.2932	1232.0016	43954.7	42993.9
869.4377	1233.9146	43900.25	42938.7
869.5823	1235.8269	43701.9	42739.1
869.7269	1237.7384	43472.5	42512.25
869.8715	1239.6492	43087.35	42127
870.016	1241.5592	43043	42084.25
870.1606	1243.4686	42734.35	41771.2
870.3051	1245.3772	42633.65	41676.4
870.4496	1247.285	42440.85	41481.55
870.5941	1249.1922	42234.3	41272.7
870.7387	1251.0986	42121.15	41162.6
870.8832	1253.0042	41933.7	40975.8
871.0277	1254.9092	41911.15	40956.1
871.1722	1256.8134	41853.05	40898.55
871.3167	1258.7169	41885.55	40930.75
871.4611	1260.6196	41911.9	40956.55
871.6056	1262.5216	42053	41091.2
871.7501	1264.4229	42026.45	41072.9
871.8945	1266.3234	42124.7	41164.2
872.039	1268.2232	42146.55	41186.9
872.1834	1270.1223	42026.25	41066.05
872.3278	1272.0207	41923.35	40965.4
872.4723	1273.9183	41734.9	40774.55
872.6167	1275.8151	41550.95	40595.35
872.7611	1277.7113	41404	40445.9
872.9055	1279.6067	41042.25	40086.2
873.0499	1281.5014	40954.15	39997.75
873.1943	1283.3953	40740.1	39779.45
873.3386	1285.2885	40584.65	39630.25
873.483	1287.181	40466.75	39510.25
873.6274	1289.0727	40503.55	39550.55
873.7717	1290.9637	40376.95	39425.45
873.9161	1292.854	40478.05	39522.15
874.0604	1294.7435	40407.75	39454
874.2047	1296.6323	40517.6	39559.25
874.349	1298.5204	40650.3	39692.2
874.4933	1300.4077	40827.9	39871.55
874.6376	1302.2943	40884.4	39926.2
874.7819	1304.1802	40969.85	40013.5
874.9262	1306.0653	40735.6	39781.2
875.0705	1307.9497	40506.2	39553.85
875.2147	1309.8333	40349.05	39394.65
875.359	1311.7162	40244.75	39291.8
875.5032	1313.5984	40272.65	39315.5
875.6475	1315.4798	40226.8	39260.6
875.7917	1317.3605	40218.9	39258.25
875.9359	1319.2405	40308.85	39346.5
876.0801	1321.1197	40288.7	39330.7
876.2243	1322.9982	40069.9	39108.95
876.3685	1324.876	40014.75	39056.75
876.5127	1326.753	39881.45	38927.6
876.6569	1328.6293	39862.05	38908.9
876.801	1330.5048	39815.85	38857.3
876.9452	1332.3796	39702.4	38749
877.0893	1334.2537	39647.5	38665.1
877.2335	1336.127	39488.15	38533.75
877.3776	1337.9996	39398.45	38446.35
877.5217	1339.8714	39275.45	38322.5
877.6658	1341.7426	39163.65	38165.45
877.8099	1343.6129	39035.55	38075.5
877.954	1345.4826	38838	37881.05
878.0981	1347.3515	38835.75	37876.5
878.2422	1349.2196	38699.05	37742.3
878.3862	1351.087	38707.65	37750.85
878.5303	1352.9537	38664.85	37708.85
878.6743	1354.8197	38733.2	37776.7
878.8184	1356.6849	38849.4	37894.55
878.9624	1358.5493	38767.85	37812.15
879.1064	1360.4131	38722.65	37771.55
879.2504	1362.276	38566.15	37612.6
879.3944	1364.1383	38333.3	37381.15
879.5384	1365.9998	37999.05	37035.85
879.6823	1367.8606	37686.55	36728.75
879.8263	1369.7206	37296.7	36344
879.9702	1371.5799	37036.1	36080.55
880.1142	1373.4384	36807.25	35852.25
880.2581	1375.2962	36603.95	35650.45
880.402	1377.1533	36259.7	35306.1
880.5459	1379.0096	35755.65	34809.05
880.6898	1380.8652	35480.95	34531.3
880.8337	1382.7201	35188.55	34238.85
880.9776	1384.5742	34837.45	33884.7
881.1215	1386.4275	34534.9	33575.8
881.2653	1388.2802	34338.9	33384.35
881.4092	1390.132	34148.15	33195.7
881.553	1391.9832	34079.55	33123.95
881.6968	1393.8336	33796.3	32841.55
881.8406	1395.6832	33686.1	32731.35
881.9844	1397.5322	33588.1	32636.5
882.1282	1399.3803	33412.3	32457.55
882.272	1401.2278	33236.65	32287.95
882.4158	1403.0745	33186.8	32235.3
882.5595	1404.9204	33003.2	32054.3
882.7033	1406.7656	32936.35	31981.95
882.847	1408.6101	32833.8	31880.15
882.9908	1410.4538	32748.5	31799.15
883.1345	1412.2968	32663.15	31715.4
883.2782	1414.139	32612.5	31659.7
883.4219	1415.9805	32605	31655.2
883.5656	1417.8213	32529.7	31557.55
883.7092	1419.6613	32522.2	31572.95
883.8529	1421.5006	32661.25	31711.5
883.9965	1423.3391	32794.95	31844.5
884.1402	1425.1769	32955.3	32001.6
884.2838	1427.0139	33396.6	32447
884.4274	1428.8502	33815.95	32864.3
884.571	1430.6858	34325.75	33374.2
884.7146	1432.5206	34543.75	33593.1
884.8582	1434.3547	34771.2	33819.25
885.0018	1436.188	34742.1	33791.1
885.1453	1438.0206	34630.5	33677.7
885.2889	1439.8524	34360	33408.85
885.4324	1441.6835	34231.4	33282.8
885.5759	1443.5139	34099.1	33150
885.7194	1445.3435	33904.3	32955.1
885.8629	1447.1724	33837.7	32890.2
886.0064	1449.0005	33719.4	32772.2
886.1499	1450.8279	33510.65	32565.45
886.2933	1452.6545	33463.15	32517.75
886.4368	1454.4804	33464.85	32520.35
886.5802	1456.3056	33381.2	32430.1
886.7237	1458.13	33238.25	32293.7
886.8671	1459.9536	33048.85	32102.05
887.0105	1461.7766	32650.1	31701.7
887.1539	1463.5987	32187.95	31237.05
887.2972	1465.4202	31763.85	30815.45
887.4406	1467.2409	31333.2	30385.75
887.584	1469.0608	31110.85	30160.8
887.7273	1470.88	30780.3	29831.55
887.8706	1472.6984	30522.45	29576.05
888.0139	1474.5161	30228.8	29278.45
888.1572	1476.3331	30033.25	29085.95
888.3005	1478.1493	29871.95	28923
888.4438	1479.9648	29772	28827.3
888.5871	1481.7795	29615.5	28667.45
888.7303	1483.5935	29520.95	28576.25
888.8736	1485.4067	29415	28469
889.0168	1487.2192	29308.95	28359.8
889.16	1489.031	29231.4	28282.7
889.3032	1490.842	29101.95	28155.95
889.4464	1492.6522	29021.85	28075.75
889.5896	1494.4618	28918.2	27971.75
889.7327	1496.2705	28887.65	27939.9
889.8759	1498.0785	28833.1	27889.55
890.019	1499.8858	28707.2	27761.3
890.1622	1501.6924	28652.6	27708.05
890.3053	1503.4981	28587.8	27641.35
890.4484	1505.3032	28475.85	27527.2
890.5914	1507.1075	28415.4	27467.2
890.7345	1508.911	28341.35	27395.9
890.8776	1510.7138	28235	27288.5
891.0206	1512.5159	28141.45	27198.75
891.1637	1514.3172	28028.5	27085.65
891.3067	1516.1178	27902.8	26958
891.4497	1517.9176	27879.1	26935.5
891.5927	1519.7166	27724.05	26779.5
891.7357	1521.515	27636.55	26686.45
891.8786	1523.3126	27626.7	26684.3
892.0216	1525.1094	27471.9	26526.7
892.1645	1526.9055	27359	26418.95
892.3074	1528.7008	27253.35	26312.8
892.4503	1530.4954	27105.35	26157.35
892.5932	1532.2893	27074.75	26135.9
892.7361	1534.0824	26889.25	25947.4
892.879	1535.8747	26910.15	25974.45
893.0218	1537.6663	26785.25	25848.65
893.1647	1539.4572	26678.7	25739.1
893.3075	1541.2473	26635.9	25697
893.4503	1543.0367	26541	25607.1
893.5931	1544.8253	26414.15	25470.6
893.7359	1546.6132	26413.65	25469.6
893.8787	1548.4003	26307.5	25358.9
894.0214	1550.1867	26245.65	25302.55
894.1642	1551.9723	26235.45	25294.1
894.3069	1553.7572	26171.15	25238.05
894.4496	1555.5414	26090.65	25155.4
894.5923	1557.3247	26090.75	25157
894.735	1559.1074	26053.05	25124.15
894.8777	1560.8893	26051.45	25120.3
895.0204	1562.6705	26022.1	25088.45
895.163	1564.4509	26001.95	25070.9
895.3056	1566.2305	25992.45	25067.95
895.4482	1568.0094	26088.3	25163.9
895.5908	1569.7876	26137	25207.15
895.7334	1571.565	26065.45	25131.5
895.876	1573.3417	26066.4	25137.3
896.0186	1575.1176	26029.45	25101.15
896.1611	1576.8928	25980.9	25055.3
896.3036	1578.6672	25799.15	24878.5
896.4461	1580.4409	25650	24733.15
896.5886	1582.2138	25470.75	24545.95
896.7311	1583.986	25249.65	24323.5
896.8736	1585.7575	25127.75	24199.95
897.0161	1587.5282	25004.2	24080.3
897.1585	1589.2981	24924.95	24005.6
897.3009	1591.0673	24740.15	23820.8
897.4433	1592.8358	24709.45	23785.55
897.5857	1594.6035	24657.4	23732.15
897.7281	1596.3704	24590.15	23663.75
897.8705	1598.1366	24487.05	23562.4
898.0128	1599.9021	24493.85	23570.9
898.1551	1601.6668	24453.7	23526.2
898.2975	1603.4308	24433.25	23506.55
898.4398	1605.194	24466.35	23536.2
898.5821	1606.9564	24461.5	23547.9
898.7243	1608.7182	24522.8	23608.75
898.8666	1610.4791	24620.05	23712.95
899.0088	1612.2394	24679.9	23774.75
899.1511	1613.9988	24750.9	23843
899.2933	1615.7576	24910.25	23996.1
899.4355	1617.5156	25132.05	24204.15
899.5776	1619.2728	25303.3	24375.9
899.7198	1621.0293	25370.8	24447.45
899.862	1622.785	25365.9	24446.75
900.0041	1624.54	25199.05	24282.3
900.1462	1626.2942	25068.85	24153.9
900.2883	1628.0477	24709.7	23792.65
900.4304	1629.8005	24469.75	23552.25
900.5725	1631.5525	24178.25	23265.5
900.7145	1633.3037	23986.65	23073.5
900.8566	1635.0542	23831.8	22917.8
900.9986	1636.804	23652.15	22738
901.1406	1638.553	23544.2	22577.55
901.2826	1640.3013	23390	22474.05
901.4245	1642.0488	23256.45	22340.05
901.5665	1643.7955	23244.6	22334.4
901.7085	1645.5416	23263.7	22350.5
901.8504	1647.2868	23258.9	22342.6
901.9923	1649.0313	23221.1	22303.75
902.1342	1650.7751	23303.65	22385.85
902.2761	1652.5181	23492.6	22581.95
902.4179	1654.2604	23574.9	22664.2
902.5598	1656.0019	23810	22896
902.7016	1657.7427	24025.15	23112.7
902.8434	1659.4828	24315.4	23398.75
902.9852	1661.222	24500	23580.3
903.127	1662.9606	24475.6	23559.05
903.2687	1664.6984	24314.45	23395.9
903.4105	1666.4354	23941.95	23020.9
903.5522	1668.1717	23462.25	22540
903.6939	1669.9072	22961.65	22039.65
903.8356	1671.642	22549.5	21623.05
903.9773	1673.3761	22233.2	21317.7
904.119	1675.1094	21955.55	21041.1
904.2606	1676.8419	21657.45	20741.25
904.4022	1678.5737	21471.3	20553.9
904.5439	1680.3048	21347.25	20428.85
904.6855	1682.0351	21173.3	20255.5
904.827	1683.7646	20991.35	20070.55
904.9686	1685.4934	20915.1	19998.4
905.1101	1687.2215	20809	19894.4
905.2517	1688.9488	20690.4	19774.45
905.3932	1690.6754	20557.15	19642.75
905.5347	1692.4012	20509.7	19593.95
905.6761	1694.1263	20442.35	19525.45
905.8176	1695.8506	20340.35	19423.5
905.9591	1697.5742	20298.35	19385.55
906.1005	1699.297	20197.65	19287.45
906.2419	1701.0191	20082.15	19173.65
906.3833	1702.7404	20040.1	19129.4
906.5246	1704.461	19897	18983.85
906.666	1706.1808	19833.75	18920.3
906.8073	1707.8999	19777.5	18866.05
906.9487	1709.6182	19683.4	18776.95
907.09	1711.3358	19623.8	18721.45
907.2313	1713.0527	19552.55	18646.1
907.3725	1714.7688	19459.65	18548.15
907.5138	1716.4841	19407.1	18494.35
907.655	1718.1987	19380.95	18468.5
907.7962	1719.9126	19307.25	18399.3
907.9374	1721.6257	19217.55	18311.55
908.0786	1723.338	19212.85	18309.05
908.2198	1725.0496	19085.2	18177.1
908.3609	1726.7605	19044.3	18135.4
908.502	1728.4706	18962.45	18052.25
908.6431	1730.18	18852.15	17942.35
908.7842	1731.8886	18831.7	17927.75
908.9253	1733.5964	18813.8	17888.2
909.0664	1735.3036	18739.75	17834.15
909.2074	1737.0099	18687.3	17782.9
909.3484	1738.7156	18650.35	17744.65
909.4894	1740.4204	18552.9	17644.15
909.6304	1742.1246	18475.85	17568.25
909.7714	1743.8279	18471.2	17564.85
909.9123	1745.5306	18412.4	17508
910.0532	1747.2325	18351.8	17448.95
910.1941	1748.9336	18293.3	17389.85
910.335	1750.634	18214.9	17305.05
910.4759	1752.3336	18178.85	17276
910.6168	1754.0325	18128.45	17226.6
910.7576	1755.7307	18080.5	17176.5
910.8984	1757.4281	18092.5	17188.05
911.0392	1759.1247	18058.35	17141.55
911.18	1760.8206	18012.9	17098.55
911.3208	1762.5158	17957.45	17044.4
911.4615	1764.2102	17872	16962.55
911.6022	1765.9039	17792	16885.9
911.7429	1767.5968	17787.4	16887.45
911.8836	1769.289	17758.9	16857.45
912.0243	1770.9804	17668	16764.3
912.1649	1772.6711	17697.7	16786.95
912.3056	1774.361	17630.65	16722
912.4462	1776.0502	17603.35	16695.85
912.5868	1777.7386	17569.7	16657.8
912.7274	1779.4263	17478.9	16572.85
912.8679	1781.1132	17458.45	16557.1
913.0084	1782.7994	17408.4	16506.9
913.149	1784.4849	17391.15	16491.85
913.2895	1786.1696	17276.8	16371.3
913.4299	1787.8535	17236	16336.7
913.5704	1789.5367	17214.55	16319.4
913.7108	1791.2192	17152.35	16251.35
913.8513	1792.9009	17118.4	16188
913.9917	1794.5818	17056.8	16148.7
914.132	1796.2621	17040.35	16134.4
914.2724	1797.9415	17012.7	16107.25
914.4128	1799.6202	16930.55	16025.25
914.5531	1801.2982	16897.3	15993.45
914.6934	1802.9755	16860.3	15953.9
914.8337	1804.6519	16838.55	15933.05
914.9739	1806.3277	16737.75	15836.6
915.1142	1808.0027	16692.75	15794.6
915.2544	1809.6769	16649.35	15753.55
915.3946	1811.3504	16616.6	15718.9
915.5348	1813.0231	16589.3	15690.75
915.675	1814.6951	16565.8	15664.85
915.8151	1816.3664	16598.4	15694
915.9553	1818.0369	16528	15625.95
916.0954	1819.7067	16487.55	15587.2
916.2355	1821.3757	16415.8	15510.4
916.3755	1823.044	16388.95	15484.05
916.5156	1824.7115	16394	15487.85
916.6556	1826.3783	16288.45	15383.9
916.7956	1828.0443	16275.25	15375.6
916.9356	1829.7096	16213.25	15307.95
917.0756	1831.3741	16196.45	15291.35
917.2155	1833.0379	16154	15252.75
917.3555	1834.701	16100.25	15201.6
917.4954	1836.3633	16057.9	15160.95
917.6353	1838.0248	16010.25	15110.35
917.7751	1839.6856	15988.05	15088.05
917.915	1841.3457	15982.8	15082.15
918.0548	1843.005	15937.45	15035.5
918.1946	1844.6636	15873.5	14972.95
918.3344	1846.3214	15866.05	14965.05
918.4742	1847.9785	15830.75	14929.8
918.6139	1849.6349	15780.15	14874.05
918.7537	1851.2904	15753.75	14841.1
918.8934	1852.9453	15719.45	14813.95
919.0331	1854.5994	15683.05	14778.05
919.1727	1856.2528	15672.6	14763.95
919.3124	1857.9054	15621.7	14719
919.452	1859.5572	15615.05	14713.65
919.5916	1861.2083	15584	14679.4
919.7312	1862.8587	15597.15	14692.65
919.8708	1864.5084	15538.55	14631.35
920.0103	1866.1572	15466.6	14561.35
920.1498	1867.8054	15391.6	14484.55
920.2893	1869.4528	15361.7	14457.85
920.4288	1871.0994	15303.8	14398.5
920.5683	1872.7453	15329.75	14426.5
920.7077	1874.3905	15270.05	14361
920.8471	1876.0349	15233.85	14329.4
920.9865	1877.6786	15205.45	14301.25
921.1259	1879.3215	15216	14313.2
921.2653	1880.9637	15144.15	14239.9
921.4046	1882.6051	15110.45	14207.55
921.5439	1884.2458	15083.85	14182.2
921.6832	1885.8858	14997.15	14094.3
921.8225	1887.525	14979.05	14075.3
921.9617	1889.1634	14905.4	14001.7
922.101	1890.8011	14872.95	13968.05
922.2402	1892.4381	14836.6	13933.2
922.3794	1894.0743	14838.55	13935.5
922.5185	1895.7098	14796.25	13894.35
922.6577	1897.3446	14736.15	13832.4
922.7968	1898.9786	14720.45	13811.3
922.9359	1900.6118	14695.95	13794.65
923.075	1902.2443	14631.25	13726.75
923.214	1903.8761	14580.45	13677.85
923.3531	1905.5071	14490.15	13585.75
923.4921	1907.1374	14458.55	13555.45
923.6311	1908.7669	14439.65	13539.25
923.77	1910.3957	14374.45	13473.7
923.909	1912.0237	14327.35	13428.55
924.0479	1913.651	14288.5	13385.2
924.1868	1915.2776	14279.8	13379.65
924.3257	1916.9034	14199.4	13299.25
924.4646	1918.5285	14127.85	13229.5
924.6034	1920.1528	14074.2	13171
924.7422	1921.7764	14083.15	13181.75
924.881	1923.3992	14029.35	13127.95
925.0198	1925.0213	13955.85	13055.95
925.1586	1926.6427	13864.9	12964.75
925.2973	1928.2633	13906	12934.1
925.436	1929.8832	13809.3	12906.85
925.5747	1931.5023	13753.85	12853.25
925.7134	1933.1207	13737.65	12838.85
925.852	1934.7383	13669.4	12765.6
925.9906	1936.3552	13640.8	12741.1
926.1292	1937.9714	13634.1	12734.6
926.2678	1939.5868	13572.6	12670.4
926.4064	1941.2015	13503.7	12600.95
926.5449	1942.8154	13453.6	12549.8
926.6834	1944.4286	13383.3	12480.7
926.8219	1946.041	13351.8	12433.55
926.9604	1947.6528	13263.6	12358.95
927.0988	1949.2637	13244.95	12343.25
927.2372	1950.8739	13207.75	12305.7
927.3756	1952.4834	13199.35	12298.8
927.514	1954.0921	13156.5	12256.5
927.6523	1955.7001	13123.6	12221.2
927.7907	1957.3074	13090.95	12196.7
927.929	1958.9139	13019.5	12124.85
928.0673	1960.5197	12983.05	12083.2
928.2055	1962.1247	12916.6	12019.95
928.3438	1963.729	12865.35	11969
928.482	1965.3325	12820.95	11902.4
928.6202	1966.9353	12790.35	11897.25
928.7584	1968.5374	12745.55	11851.1
928.8965	1970.1387	12671.6	11776
929.0346	1971.7393	12657.6	11760.65
929.1727	1973.3392	12611.65	11717.3
929.3108	1974.9383	12572.85	11678.15
929.4489	1976.5366	12494.4	11600.25
929.5869	1978.1342	12457.3	11563.15
929.7249	1979.7311	12480.4	11587.6
929.8629	1981.3273	12441.45	11549
930.0009	1982.9227	12371.95	11476.9
930.1388	1984.5173	12347.25	11454.6
930.2767	1986.1112	12284.1	11393.2
930.4146	1987.7044	12259.45	11368
930.5525	1989.2968	12230.05	11336.1
930.6904	1990.8885	12200.65	11306.25
930.8282	1992.4795	12166.05	11274.25
930.966	1994.0697	12121.75	11231.35
931.1038	1995.6592	12083.95	11193.05
931.2415	1997.2479	12037.55	11145
931.3793	1998.8359	12016.9	11125.3
931.517	2000.4232	11982.55	11095.4
931.6547	2002.0097	11939.8	11054.65
931.7923	2003.5955	11884.8	10997.65
931.93	2005.1805	11857.85	10967.65
932.0676	2006.7648	11810.55	10921.25
932.2052	2008.3484	11783.15	10895.25
932.3427	2009.9312	11797.75	10907.3
932.4803	2011.5133	11765.55	10881.8
932.6178	2013.0946	11711	10824.7
932.7553	2014.6752	11699.45	10812.45
932.8928	2016.2551	11664.8	10774.95
933.0302	2017.8342	11613.55	10726.05
933.1676	2019.4126	11560.55	10674.5
933.305	2020.9902	11527.95	10640.95
933.4424	2022.5672	11486.15	10600.95
933.5798	2024.1433	11465.45	10574.65
933.7171	2025.7188	11437.2	10551.3
933.8544	2027.2935	11424.4	10536.8
933.9917	2028.8674	11388.9	10504.95
934.129	2030.4406	11330.3	10446.85
934.2662	2032.0131	11293.25	10409.35
934.4034	2033.5849	11252.3	10365.7
934.5406	2035.1559	11203.05	10320.8
934.6778	2036.7261	11203.65	10318.1
934.8149	2038.2957	11164.85	10274.15
934.952	2039.8645	11138.55	10247.8
935.0891	2041.4325	11121.25	10227.7
935.2262	2042.9998	11085.95	10198.75
935.3632	2044.5664	11058.65	10171.5
935.5002	2046.1323	11030.85	10144.65
935.6372	2047.6974	11009.5	10126.2
935.7742	2049.2617	10963.15	10079.4
935.9111	2050.8254	10941.85	10051.35
936.048	2052.3883	10910.6	10023.8
936.1849	2053.9504	10909.6	10019.15
936.3218	2055.5118	10865.85	9976
936.4586	2057.0725	10792.5	9902.1
936.5955	2058.6325	10782.45	9896.9
936.7323	2060.1917	10739.05	9853.25
936.869	2061.7502	10725	9838.55
937.0058	2063.3079	10686.85	9803.45
937.1425	2064.8649	10643.1	9754.35
937.2792	2066.4212	10622.3	9733.9
937.4159	2067.9767	10606.2	9719.4
937.5525	2069.5315	10548	9660.5
937.6891	2071.0856	10512.1	9624.55
937.8257	2072.6389	10466.15	9578.2
937.9623	2074.1915	10425.85	9542.45
938.0989	2075.7433	10382.5	9493.65
938.2354	2077.2945	10345.6	9461.3
938.3719	2078.8448	10334.2	9443.2
938.5084	2080.3945	10301.95	9414.45
938.6448	2081.9434	10268.1	9379.25
938.7812	2083.4916	10248.15	9357.8
938.9176	2085.039	10206.55	9311.75
939.054	2086.5857	10217.65	9320.3
939.1903	2088.1317	10199.25	9303.4
939.3267	2089.677	10178.75	9281.75
939.463	2091.2215	10117	9220.7
939.5992	2092.7652	10096.6	9201.15
939.7355	2094.3083	10050.15	9151.55
939.8717	2095.8506	10054.95	9162.05
940.0079	2097.3921	10047.95	9156.65
940.1441	2098.933	10022.25	9132.4
940.2802	2100.4731	9981.4	9088.95
940.4163	2102.0124	9945.65	9045.95
940.5524	2103.5511	9940.9	9047.95
940.6885	2105.089	9915.3	9022.1
940.8245	2106.6261	9881.5	8989.75
940.9606	2108.1626	9857.25	8965.05
941.0965	2109.6983	9866	8945.25
941.2325	2111.2332	9824.75	8931
941.3684	2112.7675	9788.3	8895.7
941.5044	2114.301	9740.75	8845.9
941.6403	2115.8337	9746.6	8853.5
941.7761	2117.3657	9714.6	8820.6
941.912	2118.897	9700.5	8808.65
942.0478	2120.4276	9654.15	8753.9
942.1835	2121.9575	9633.25	8738.25
942.3193	2123.4866	9629.65	8734.05
942.455	2125.0149	9593.8	8699.55
942.5907	2126.5426	9533.35	8646.4
942.7264	2128.0695	9508.8	8617.35
942.8621	2129.5956	9486.25	8603.25
942.9977	2131.1211	9469.5	8578.7
943.1333	2132.6458	9424.95	8537.25
943.2689	2134.1698	9440.8	8546
943.4044	2135.693	9407.85	8510.55
943.54	2137.2155	9405.05	8506
943.6755	2138.7373	9361.25	8468.45
943.8109	2140.2584	9342.3	8453
943.9464	2141.7787	9313.25	8423.8
944.0818	2143.2983	9252.8	8368.85
944.2172	2144.8171	9206.85	8323.95
944.3526	2146.3353	9206.85	8317.8
944.4879	2147.8527	9184.45	8295.2
944.6232	2149.3693	9171.05	8280.9
944.7585	2150.8853	9131.55	8237.95
944.8938	2152.4005	9085.2	8189.3
945.029	2153.9149	9077.05	8182.95
945.1642	2155.4287	9157.6	8158.6
945.2994	2156.9417	9053.25	8158.4
945.4346	2158.454	9033.95	8142.55
945.5697	2159.9655	8971.75	8083.8
945.7048	2161.4764	8971.5	8082.75
945.8399	2162.9865	8932.35	8043.7
945.9749	2164.4958	8903.8	8014.25
946.1099	2166.0045	8867.7	7974.6
946.2449	2167.5124	8839.7	7950.05
946.3799	2169.0195	8830.15	7938.25
946.5148	2170.526	8825.95	7930.75
946.6498	2172.0317	8793.65	7899.65
946.7846	2173.5367	8782.55	7891.85
946.9195	2175.0409	8763.4	7872.75
947.0543	2176.5445	8752.8	7860.1
947.1891	2178.0473	8713.45	7818.65
947.3239	2179.5494	8661.3	7764.5
947.4587	2181.0507	8643.35	7752.35
947.5934	2182.5513	8617.7	7724.5
947.7281	2184.0512	8598.15	7704.7
947.8628	2185.5504	8562.3	7668.55
947.9974	2187.0488	8528.05	7637.9
948.132	2188.5465	8490.05	7600.95
948.2666	2190.0435	8483.15	7592.15
948.4012	2191.5397	8465.45	7573.55
948.5357	2193.0353	8419.25	7526.55
948.6702	2194.5301	8385.15	7489.55
948.8047	2196.0241	8373.55	7475.25
948.9392	2197.5175	8350.65	7450.85
949.0736	2199.0101	8317	7416.7
949.208	2200.502	8276.65	7381.15
949.3424	2201.9931	8246.15	7357.3
949.4767	2203.4835	8222.5	7335.2
949.611	2204.9733	8215.5	7312.6
949.7453	2206.4622	8201.95	7313
949.8796	2207.9505	8157	7265.7
950.0138	2209.438	8118.5	7232.15
950.148	2210.9248	8100	7210.65
950.2822	2212.4109	8064	7173.55
950.4164	2213.8962	8045.55	7149.8
950.5505	2215.3809	8035.3	7140.6
950.6846	2216.8648	8014.75	7116.85
950.8186	2218.3479	7966.7	7062.65
950.9527	2219.8304	7963.15	7062.15
951.0867	2221.3121	7951.1	7052.85
951.2207	2222.7931	7917.2	7020.3
951.3546	2224.2733	7861.1	6965.05
951.4886	2225.7529	7842.15	6949.6
951.6225	2227.2317	7811.55	6918.55
951.7563	2228.7098	7805.45	6918.4
951.8902	2230.1872	7746.2	6860.1
952.024	2231.6638	7741.95	6853.8
952.1578	2233.1397	7719.9	6827.9
952.2916	2234.6149	7686.6	6797.15
952.4253	2236.0894	7675.85	6787.05
952.559	2237.5632	7649.55	6756.75
952.6927	2239.0362	7625.8	6733.95
952.8263	2240.5085	7614.1	6722.35
952.9599	2241.9801	7572.35	6680.4
953.0935	2243.4509	7563.7	6671.4
953.2271	2244.921	7523.7	6627.8
953.3606	2246.3904	7513.55	6616.3
953.4941	2247.8591	7475.4	6581.75
953.6276	2249.3271	7456.55	6561.8
953.7611	2250.7943	7442.15	6547
953.8945	2252.2608	7407.05	6512.05
954.0279	2253.7266	7407.45	6513.5
954.1612	2255.1917	7380.4	6486.95
954.2946	2256.656	7362.6	6470.5
954.4279	2258.1197	7323.5	6431.5
954.5612	2259.5826	7298.15	6405.5
954.6944	2261.0447	7314.35	6419.85
954.8276	2262.5062	7264.95	6370.75
954.9608	2263.9669	7279.55	6382.5
955.094	2265.4269	7255.35	6362.2
955.2271	2266.8862	7233.45	6341.35
955.3602	2268.3448	7222.75	6331.55
955.4933	2269.8026	7201	6312.3
955.6264	2271.2598	7167.05	6277.25
955.7594	2272.7162	7132.8	6240.2
955.8924	2274.1719	7114.25	6219.5
956.0253	2275.6268	7083.95	6188.4
956.1583	2277.0811	7096.45	6203.5
956.2912	2278.5346	7067.65	6175.15
956.4241	2279.9874	7059.9	6170.55
956.5569	2281.4395	7054.7	6168.35
956.6897	2282.8908	7021.1	6124.3
956.8225	2284.3414	7011.25	6119.5
956.9553	2285.7914	6980.35	6087.15
957.088	2287.2406	6956.1	6060.1
957.2207	2288.689	6936.1	6040.1
957.3534	2290.1368	6910.15	6011.25
957.486	2291.5838	6898.8	5997.9
957.6186	2293.0302	6886.05	5985.25
957.7512	2294.4758	6858	5961.8
957.8838	2295.9206	6828.8	5933.45
958.0163	2297.3648	6807.2	5916.4
958.1488	2298.8082	6810.55	5916.95
958.2813	2300.251	6788.55	5897.05
958.4137	2301.693	6772.3	5874.4
958.5461	2303.1343	6764.8	5869.3
958.6785	2304.5748	6719.95	5826.05
958.8108	2306.0147	6704.05	5812.65
958.9432	2307.4538	6679.2	5785.1
959.0754	2308.8922	6667.4	5780.95
959.2077	2310.3299	6627.6	5737.05
959.3399	2311.7669	6616.3	5726.6
959.4721	2313.2031	6606.35	5713.3
959.6043	2314.6387	6570.2	5674.95
959.7365	2316.0735	6559.95	5667.2
959.8686	2317.5076	6535.05	5640.45
960.0006	2318.941	6550.9	5658.35
960.1327	2320.3737	6521.3	5624.9
960.2647	2321.8056	6493.5	5595.8
960.3967	2323.2369	6461.9	5567.45
960.5287	2324.6674	6468.95	5572.9
960.6606	2326.0972	6428.6	5533.05
960.7925	2327.5263	6421.65	5528.8
960.9244	2328.9547	6418	5523.4
961.0562	2330.3823	6392.65	5496.85
961.1881	2331.8092	6364.55	5464.35
961.3198	2333.2355	6341.75	5446.7
961.4516	2334.661	6332.4	5436.7
961.5833	2336.0858	6311.55	5414.15
961.715	2337.5098	6292.6	5397.9
961.8467	2338.9332	6299.2	5403.95
961.9783	2340.3558	6279.1	5385.55
962.1099	2341.7778	6238.65	5346.2
962.2415	2343.199	6227.55	5334.1
962.373	2344.6195	6210	5318.05
962.5045	2346.0393	6199.95	5307.7
962.636	2347.4583	6187.5	5293.8
962.7675	2348.8767	6167.15	5271.8
962.8989	2350.2943	6174.55	5277.05
963.0303	2351.7113	6146.7	5248.15
963.1617	2353.1275	6135.45	5238.2
963.293	2354.543	6122.7	5216.45
963.4243	2355.9578	6096.9	5201.1
963.5556	2357.3718	6053.5	5159.85
963.6868	2358.7852	6024.5	5131.5
963.818	2360.1978	6030.1	5137.95
963.9492	2361.6098	5995.45	5105.9
964.0803	2363.021	5981.15	5083.65
964.2114	2364.4315	5974.7	5079.15
964.3425	2365.8413	5954.25	5057.65
964.4736	2367.2504	5933.6	5043.75
964.6046	2368.6587	5896.9	5005
964.7356	2370.0664	5902	5011.3
964.8666	2371.4733	5859.45	4968.65
964.9975	2372.8795	5842.15	4948.35
965.1284	2374.285	5842.95	4950.8
965.2593	2375.6899	5814.15	4924.4
965.3901	2377.0939	5776.25	4886.2
965.5209	2378.4973	5768.6	4876.95
965.6517	2379.9	5747.35	4855.4
965.7825	2381.3019	5720.55	4828.5
965.9132	2382.7032	5720.1	4830.45
966.0439	2384.1037	5691.5	4803.4
966.1745	2385.5035	5677.4	4788.65
966.3051	2386.9027	5644.3	4755.65
966.4357	2388.3011	5642.95	4750.45
966.5663	2389.6987	5629.25	4740.9
966.6968	2391.0957	5610.85	4720.05
966.8273	2392.492	5583.1	4693.3
966.9578	2393.8876	5545.3	4654.95
967.0882	2395.2824	5527.35	4636.9
967.2186	2396.6765	5515.05	4623.65
967.349	2398.07	5502.7	4611.8
967.4793	2399.4627	5497.35	4603.05
967.6097	2400.8547	5482.2	4588.55
967.7399	2402.246	5464.95	4565.85
967.8702	2403.6366	5433.9	4541.75
968.0004	2405.0265	5412.9	4521.45
968.1306	2406.4156	5408.05	4515.3
968.2607	2407.8041	5379.3	4483.45
968.3909	2409.1918	5354.15	4461.6
968.521	2410.5789	5344.8	4452.1
968.651	2411.9652	5338.1	4442.85
968.781	2413.3508	5324.15	4430.15
968.911	2414.7358	5295.65	4402.2
969.041	2416.12	5290.35	4399.5
969.1709	2417.5035	5267.8	4377.25
969.3008	2418.8863	5236.3	4342.65
969.4307	2420.2684	5219.8	4326.8
969.5606	2421.6497	5201.25	4307.65
969.6904	2423.0304	5171.4	4279.4
969.8201	2424.4104	5171.55	4279.5
969.9499	2425.7896	5152.2	4260.05
970.0796	2427.1682	5138.35	4247
970.2093	2428.546	5116.95	4223.1
970.3389	2429.9232	5110.05	4215.55
970.4685	2431.2996	5093.05	4201.8
970.5981	2432.6753	5087.85	4195.1
970.7277	2434.0503	5079.75	4184.5
970.8572	2435.4246	5040.75	4148.3
970.9867	2436.7982	5030.3	4136
971.1161	2438.1711	5039.55	4146.3
971.2456	2439.5433	5017.75	4122.5
971.375	2440.9148	5019.05	4119.95
971.5043	2442.2856	4962.7	4069.55
971.6336	2443.6557	4960.35	4069.05
971.7629	2445.025	4954.45	4061.1
971.8922	2446.3937	4944.35	4050.85
972.0214	2447.7617	4916.9	4024.55
972.1506	2449.1289	4913.75	4023.3
972.2798	2450.4955	4904.7	4010.9
972.4089	2451.8613	4875	3984.55
972.538	2453.2265	4859.95	3969.05
972.6671	2454.5909	4875.15	3981.65
972.7961	2455.9546	4849.7	3956.5
972.9251	2457.3177	4839.9	3948.05
973.0541	2458.68	4824.05	3933
973.1831	2460.0416	4825.35	3930.9
973.312	2461.4025	4818	3924.35
973.4408	2462.7627	4796.85	3895.3
973.5697	2464.1222	4783.75	3895.9
973.6985	2465.4811	4766.5	3876.2
973.8273	2466.8392	4752.35	3861.45
973.956	2468.1966	4742.3	3847.35
974.0847	2469.5533	4738.65	3842.7
974.2134	2470.9093	4727.05	3835.7
974.3421	2472.2645	4709.25	3815.2
974.4707	2473.6191	4712.15	3823.45
974.5993	2474.973	4695.55	3804.55
974.7278	2476.3262	4669.4	3776.9
974.8563	2477.6787	4648.9	3757.85
974.9848	2479.0305	4629.6	3738.55
975.1132	2480.3816	4630.35	3736
975.2417	2481.7319	4617.35	3723.5
975.37	2483.0816	4585.7	3692.3
975.4984	2484.4306	4581.8	3689.7
975.6267	2485.7789	4559.55	3670.15
975.755	2487.1264	4538.05	3646.65
975.8833	2488.4733	4535.8	3647.6
976.0115	2489.8195	4535.55	3627.05
976.1397	2491.165	4512.9	3617.8
976.2678	2492.5097	4486.15	3595.7
976.3959	2493.8538	4465.8	3574.45
976.524	2495.1972	4454.65	3562.4
976.6521	2496.5398	4441.95	3547.7
976.7801	2497.8818	4423.2	3528.05
976.9081	2499.2231	4427.3	3535.45
977.036	2500.5637	4406.5	3511
977.164	2501.9035	4401.25	3509
977.2918	2503.2427	4378.1	3481.35
977.4197	2504.5812	4370.95	3478
977.5475	2505.919	4365.8	3471.75
977.6753	2507.256	4359.95	3467.35
977.8031	2508.5924	4324.4	3432.55
977.9308	2509.9281	4323.1	3427.35
978.0585	2511.2631	4306.85	3414.5
978.1861	2512.5974	4299.75	3411
978.3137	2513.9309	4297.4	3403.25
978.4413	2515.2638	4293.25	3376.2
978.5689	2516.596	4274.2	3381.15
978.6964	2517.9275	4252.9	3360.1
978.8239	2519.2583	4235.8	3342.05
978.9513	2520.5884	4229.2	3336.6
979.0788	2521.9178	4182.7	3291.5
979.2062	2523.2465	4195.4	3304.05
979.3335	2524.5745	4183.1	3291
979.4608	2525.9018	4166.8	3273.75
979.5881	2527.2284	4166.1	3273.8
979.7154	2528.5543	4141.9	3250.8
979.8426	2529.8796	4130.65	3238.4
979.9698	2531.2041	4127.85	3234.7
980.0969	2532.5279	4115.85	3225.95
980.224	2533.851	4090.8	3200.15
980.3511	2535.1735	4096.75	3208.05
980.4781	2536.4952	4107.25	3215.45
980.6052	2537.8163	4092.8	3198.6
980.7321	2539.1366	4080	3185.55
980.8591	2540.4562	4058.85	3162.3
980.986	2541.7752	4054.4	3158.75
981.1129	2543.0935	4052.7	3158.9
981.2397	2544.411	4045.55	3151
981.3665	2545.7279	4054.95	3163.95
981.4933	2547.0441	4023.85	3131
981.62	2548.3596	4021.4	3125.45
981.7467	2549.6744	4015.45	3121.95
981.8734	2550.9885	4004.55	3110.55
982.0001	2552.3019	3993.3	3100.65
982.1267	2553.6146	3981.3	3088.05
982.2532	2554.9266	3965.25	3072.5
982.3798	2556.2379	3951.5	3056.85
982.5063	2557.5485	3949.25	3060.2
982.6327	2558.8585	3963.25	3064.35
982.7592	2560.1677	3941.1	3043.6
982.8856	2561.4762	3919.6	3026.7
983.0119	2562.7841	3932.05	3038.95
983.1383	2564.0913	3914.75	3020.7
983.2646	2565.3977	3903.3	3011.65
983.3908	2566.7035	3891.6	2999
983.517	2568.0086	3889.15	2992.9
983.6432	2569.313	3883.35	2989.65
983.7694	2570.6167	3879.85	2981.55
983.8955	2571.9197	3858	2963.4
984.0216	2573.222	3863.6	2967.6
984.1476	2574.5236	3844.2	2949.55
984.2737	2575.8246	3841.1	2945.75
984.3996	2577.1248	3836.4	2941.2
984.5256	2578.4244	3842.25	2951.35
984.6515	2579.7232	3837.45	2944.8
984.7774	2581.0214	3844.95	2922.55
984.9032	2582.3189	3798.15	2904.6
985.029	2583.6157	3813.85	2916.65
985.1548	2584.9118	3792.6	2899
985.2806	2586.2072	3784.8	2891.1
985.4063	2587.5019	3771.7	2877.3
985.5319	2588.7959	3781.45	2889.5
985.6576	2590.0893	3764.25	2869.35
985.7832	2591.3819	3777.35	2882.4
985.9087	2592.6739	3756.25	2863.9
986.0343	2593.9652	3742.05	2847.1
986.1597	2595.2557	3747.65	2853.55
986.2852	2596.5456	3732.45	2839.15
986.4106	2597.8348	3722.65	2829.95
986.536	2599.1234	3707.95	2816.6
986.6614	2600.4112	3695.45	2800.75
986.7867	2601.6983	3691.5	2795.85
986.912	2602.9848	3672.6	2778.65
987.0372	2604.2705	3667.75	2768.3
987.1624	2605.5556	3667.75	2774.2
987.2876	2606.84	3655.2	2762.8
987.4128	2608.1237	3648.3	2753.25
987.5379	2609.4067	3625.55	2731.75
987.6629	2610.689	3621	2720.9
987.788	2611.9707	3606.45	2709.75
987.913	2613.2516	3588.8	2691.05
988.0379	2614.5319	3588.55	2697.15
988.1629	2615.8115	3574.9	2678.55
988.2878	2617.0903	3573.05	2679.1
988.4126	2618.3685	3550.2	2658.5
988.5375	2619.6461	3543.05	2649.6
988.6622	2620.9229	3531.95	2639.95
988.787	2622.199	3534.2	2640.2
988.9117	2623.4745	3520.15	2625.4
989.0364	2624.7493	3495.5	2603.2
989.161	2626.0234	3494.65	2601.4
989.2857	2627.2968	3483.3	2591.25
989.4102	2628.5695	3472.45	2578.9
989.5348	2629.8415	3461.2	2567.15
989.6593	2631.1128	3455.05	2561.4
989.7837	2632.3835	3446.2	2555
989.9082	2633.6535	3416.6	2525.4
990.0326	2634.9228	3412.4	2521.05
990.1569	2636.1914	3416.55	2522.85
990.2812	2637.4593	3412.35	2514.45
990.4055	2638.7265	3396.3	2502.05
990.5298	2639.9931	3399.95	2504.15
990.654	2641.259	3391.05	2498.7
990.7782	2642.5242	3381	2489.2
990.9023	2643.7887	3379.55	2489.25
991.0264	2645.0525	3360.7	2467.55
991.1505	2646.3156	3363.2	2455.8
991.2745	2647.5781	3351.55	2460.45
991.3985	2648.8398	3336.7	2445.45
991.5225	2650.1009	3344.2	2445.75
991.6464	2651.3613	3321.8	2428.4
991.7703	2652.6211	3322.55	2429.4
991.8942	2653.8801	3302.65	2409.9
992.018	2655.1385	3284	2390.55
992.1418	2656.3961	3287.2	2392.9
992.2655	2657.6531	3288.3	2396.85
992.3892	2658.9094	3276.4	2382.85
992.5129	2660.1651	3271.45	2380.85
992.6366	2661.42	3254.35	2362.05
992.7602	2662.6743	3257.2	2368.2
992.8837	2663.9279	3249.4	2358.2
993.0073	2665.1808	3244.65	2351.15
993.1307	2666.433	3248.15	2354.2
993.2542	2667.6846	3233.8	2341.05
993.3776	2668.9354	3235.4	2340.15
993.501	2670.1856	3226.45	2333.05
993.6244	2671.4351	3211.4	2319.35
993.7477	2672.6839	3219.1	2325.9
993.8709	2673.9321	3205.4	2312.55
993.9942	2675.1795	3207.95	2314.8
994.1174	2676.4263	3197.8	2305.85
994.2405	2677.6724	3198.15	2305.45
994.3637	2678.9179	3195.75	2305
994.4868	2680.1626	3174.45	2284.8
994.6098	2681.4067	3182.55	2291.35
994.7328	2682.6501	3168.3	2276.2
994.8558	2683.8928	3171.85	2279.45
994.9788	2685.1348	3160.9	2269.9
995.1017	2686.3761	3139.25	2247.55
995.2245	2687.6168	3128.15	2234.9
995.3474	2688.8568	3127.6	2236.25
995.4702	2690.0961	3103.25	2211.45
995.5929	2691.3348	3108.75	2218.3
995.7156	2692.5727	3094.65	2203.25
995.8383	2693.81	3085	2194.5
995.961	2695.0466	3073	2183.05
996.0836	2696.2826	3075	2180.85
996.2062	2697.5178	3069.15	2176.1
996.3287	2698.7524	3058.6	2166.9
996.4512	2699.9863	3072.15	2178.7
996.5737	2701.2195	3052.25	2161.7
996.6961	2702.452	3050.1	2156.05
996.8185	2703.6839	3041	2148.4
996.9408	2704.9151	3034.75	2144.25
997.0631	2706.1456	3043.55	2152.15
997.1854	2707.3755	3033.1	2141.2
997.3077	2708.6046	3027.75	2132.9
997.4299	2709.8331	3032.9	2139.95
997.552	2711.0609	3022.9	2133.15
997.6742	2712.2881	3031.6	2142.1
997.7963	2713.5145	3033.6	2139.7
997.9183	2714.7403	3038.1	2147.35
998.0403	2715.9654	3044.6	2150.75
998.1623	2717.1899	3050.7	2145.85
998.2842	2718.4136	3050	2159.3
998.4062	2719.6367	3047.45	2157.15
998.528	2720.8591	3053.4	2156.6
998.6498	2722.0809	3042.3	2151.45
998.7716	2723.3019	3045.9	2151.65
998.8934	2724.5223	3061.25	2170.55
999.0151	2725.7421	3054.7	2162.35
999.1368	2726.9611	3046.3	2152.9
999.2584	2728.1795	3039.35	2141.35
999.38	2729.3972	3033.1	2143.95
999.5016	2730.6142	3014.95	2118.3
999.6231	2731.8306	2992.4	2098.45
999.7446	2733.0462	2966.7	2075.55
999.8661	2734.2612	2946.6	2051.6
999.9875	2735.4756	2914.95	2023.35
1000.1089	2736.6892	2903.15	2012.95
1000.2302	2737.9022	2883.7	1994.4
1000.3515	2739.1145	2872.1	1982.5
1000.4728	2740.3262	2862.05	1963.35
1000.594	2741.5372	2832.9	1943.9
1000.7152	2742.7475	2826.45	1935.95
1000.8363	2743.9571	2800.9	1909.35
1000.9575	2745.1661	2804.5	1910.4
1001.0785	2746.3744	2783.7	1891.8
1001.1996	2747.582	2754.9	1865.2
1001.3206	2748.7889	2748.9	1856.3
1001.4415	2749.9952	2740.85	1850.1
1001.5625	2751.2008	2727.15	1837.25
1001.6833	2752.4057	2707.95	1817.35
1001.8042	2753.61	2710.95	1820.2
1001.925	2754.8136	2705.9	1815.3
1002.0458	2756.0165	2698.85	1810.9
1002.1665	2757.2188	2696.65	1809.75
1002.2872	2758.4204	2686.9	1797.4
1002.4078	2759.6213	2688.25	1793.5
1002.5285	2760.8215	2683.05	1791.45
1002.649	2762.0211	2671.7	1780.65
1002.7696	2763.22	2644.6	1750.4
1002.8901	2764.4182	2656.15	1764.95
1003.0106	2765.6158	2638.8	1749.5
1003.131	2766.8127	2646.3	1758.5
1003.2514	2768.009	2626.35	1735.1
1003.3717	2769.2045	2623.25	1732.35
1003.492	2770.3994	2632.2	1740
1003.6123	2771.5936	2612.1	1722
1003.7325	2772.7872	2599	1711.05
1003.8527	2773.9801	2594.8	1704.1
1003.9729	2775.1723	2604.55	1696.55
1004.093	2776.3639	2576.7	1687.5
1004.2131	2777.5548	2576.75	1686.6
1004.3331	2778.745	2563	1675
1004.4531	2779.9346	2575.05	1684.9
1004.5731	2781.1235	2560.6	1671.35
1004.693	2782.3117	2564.15	1678.55
1004.8129	2783.4992	2573.15	1685.8
1004.9328	2784.6861	2552.05	1664.9
1005.0526	2785.8723	2567.25	1676.85
1005.1723	2787.0579	2549.05	1658.7
1005.2921	2788.2428	2559.8	1671.05
1005.4118	2789.427	2564.1	1675.1
1005.5314	2790.6106	2568.45	1679.75
1005.651	2791.7935	2572.05	1682.55
1005.7706	2792.9757	2581.45	1693.65
1005.8902	2794.1573	2586.3	1695.95
1006.0097	2795.3382	2593.05	1704.85
1006.1291	2796.5184	2584.4	1697.7
1006.2485	2797.698	2591.65	1702.05
1006.3679	2798.8769	2598.5	1710.6
1006.4873	2800.0551	2623	1734.2
1006.6066	2801.2327	2628.85	1736.45
1006.7258	2802.4096	2636.15	1749.35
1006.8451	2803.5859	2662.8	1773.2
1006.9642	2804.7615	2659.45	1770.35
1007.0834	2805.9364	2688.4	1802.4
1007.2025	2807.1106	2718.6	1830.25
1007.3216	2808.2842	2728.05	1838.5
1007.4406	2809.4572	2750.3	1863.1
1007.5596	2810.6294	2786.25	1898.7
1007.6785	2811.801	2816.35	1929.6
1007.7975	2812.972	2850.1	1961.9
1007.9163	2814.1423	2889.95	2000.7
1008.0352	2815.3119	2916.9	2030.55
1008.154	2816.4808	2958.9	2071.6
1008.2727	2817.6491	3004.45	2114.8
1008.3914	2818.8167	3033.45	2147
1008.5101	2819.9837	3096.9	2207.1
1008.6288	2821.15	3137.4	2247.45
1008.7474	2822.3157	3177.1	2288.2
1008.8659	2823.4807	3212.45	2324.6
1008.9844	2824.645	3247.7	2358.85
1009.1029	2825.8086	3276.2	2390.7
1009.2214	2826.9716	3303.75	2416.85
1009.3398	2828.134	3349.35	2463.25
1009.4581	2829.2957	3376.65	2487.6
1009.5764	2830.4567	3400.6	2514.05
1009.6947	2831.617	3413.15	2524
1009.813	2832.7767	3420.85	2535.35
1009.9312	2833.9358	3425.15	2540.4
1010.0493	2835.0941	3417.2	2526.75
1010.1675	2836.2519	3411.65	2523.35
1010.2855	2837.4089	3384.85	2497.1
1010.4036	2838.5653	3375.4	2488.05
1010.5216	2839.7211	3370	2484.85
1010.6396	2840.8761	3384.25	2494.45
1010.7575	2842.0306	3411.1	2525.15
1010.8754	2843.1843	3426.2	2540.25
1010.9932	2844.3374	3463.9	2578.55
1011.111	2845.4899	3492.5	2603.4
1011.2288	2846.6417	3572.3	2685.6
1011.3465	2847.7928	3655.15	2767.95
1011.4642	2848.9433	3712.35	2824.6
1011.5818	2850.0931	3768.8	2881.55
1011.6995	2851.2422	3842.95	2954.15
1011.817	2852.3907	3907.55	3020.5
1011.9345	2853.5385	3969.75	3081.95
1012.052	2854.6857	4037.95	3144.1
1012.1695	2855.8323	4069.25	3184.45
1012.2869	2856.9781	4108.25	3223.05
1012.4042	2858.1233	4141.6	3255.5
1012.5216	2859.2679	4177.25	3287.7
1012.6389	2860.4118	4229.45	3342.5
1012.7561	2861.555	4248.5	3355.9
1012.8733	2862.6976	4283.25	3394.25
1012.9905	2863.8395	4302.1	3416.25
1013.1076	2864.9808	4318.4	3430.7
1013.2247	2866.1214	4328.15	3441.5
1013.3417	2867.2614	4335.95	3448.7
1013.4587	2868.4007	4359.15	3470.05
1013.5757	2869.5393	4363.7	3475
1013.6926	2870.6773	4366.65	3475.75
1013.8095	2871.8146	4380.35	3490.35
1013.9263	2872.9513	4374.85	3485.4
1014.0431	2874.0874	4373.9	3488.55
1014.1599	2875.2227	4350.35	3463.35
1014.2766	2876.3574	4343.65	3456.85
1014.3933	2877.4915	4320.85	3434.75
1014.51	2878.6249	4291.35	3408.35
1014.6266	2879.7577	4256.55	3368.05
1014.7431	2880.8898	4232.45	3335.55
1014.8596	2882.0212	4204.5	3318.8
1014.9761	2883.152	4193.6	3306.3
1015.0925	2884.2821	4186.4	3300.45
1015.2089	2885.4116	4170.2	3285.3
1015.3253	2886.5405	4175.45	3289.65
1015.4416	2887.6686	4185.5	3298
1015.5579	2888.7962	4181.4	3295.55
1015.6741	2889.923	4178.85	3293.6
1015.7903	2891.0493	4171.25	3286.55
1015.9065	2892.1748	4197.75	3315.05
1016.0226	2893.2997	4205.15	3318.45
1016.1387	2894.424	4203.95	3319.65
1016.2547	2895.5476	4209.95	3325.1
1016.3707	2896.6706	4249.6	3366.65
1016.4866	2897.7929	4252.75	3366.4
1016.6025	2898.9145	4287	3399.05
1016.7184	2900.0355	4291.85	3403.9
1016.8342	2901.1559	4321.8	3434.4
1016.95	2902.2756	4351.1	3464.75
1017.0658	2903.3946	4384.75	3499.5
1017.1815	2904.513	4399.2	3511.9
1017.2971	2905.6308	4429.7	3544.15
1017.4127	2906.7479	4433.1	3547.55
1017.5283	2907.8643	4466.5	3583.2
1017.6439	2908.9801	4471.95	3584.6
1017.7594	2910.0953	4472	3585.4
1017.8748	2911.2098	4459.9	3572.1
1017.9902	2912.3236	4465.7	3571.75
1018.1056	2913.4368	4445.95	3555.7
1018.2209	2914.5494	4427.8	3541.4
1018.3362	2915.6613	4394	3504.2
1018.4515	2916.7725	4351.65	3463.45
1018.5667	2917.8831	4346.9	3460.8
1018.6819	2918.9931	4308.3	3422
1018.797	2920.1024	4283.4	3397.8
1018.9121	2921.211	4252.7	3369.1
1019.0271	2922.319	4238.45	3351.45
1019.1421	2923.4264	4225.95	3340.2
1019.2571	2924.5331	4214.25	3329.45
1019.372	2925.6391	4174.9	3289.15
1019.4869	2926.7445	4173.2	3288.65
1019.6017	2927.8493	4177.35	3292.15
1019.7165	2928.9534	4153.85	3270.2
1019.8313	2930.0569	4143.2	3254.5
1019.946	2931.1597	4149.2	3261.55
1020.0606	2932.2619	4132.4	3248.15
1020.1753	2933.3634	4132.15	3246.75
1020.2899	2934.4643	4123.7	3232.65
1020.4044	2935.5645	4102.55	3210.5
1020.5189	2936.6641	4070.2	3181
1020.6334	2937.763	4025.35	3142
1020.7478	2938.8613	3972.95	3087.6
1020.8622	2939.959	3913.6	3024.3
1020.9765	2941.056	3848.4	2964.7
1021.0908	2942.1523	3770.3	2883.25
1021.2051	2943.248	3681.9	2793.7
1021.3193	2944.3431	3588.25	2703.35
1021.4334	2945.4375	3504.4	2618.9
1021.5476	2946.5313	3415.8	2532.15
1021.6617	2947.6244	3307.4	2420.75
1021.7757	2948.7169	3207.2	2322.65
1021.8897	2949.8087	3113.5	2228.1
1022.0037	2950.8999	3034.95	2150.3
1022.1176	2951.9904	2956	2073.1
1022.2315	2953.0803	2887.35	2002.55
1022.3453	2954.1696	2837.4	1952.25
1022.4591	2955.2582	2773.9	1889.9
1022.5728	2956.3462	2725.8	1841.9
1022.6865	2957.4335	2687.9	1801.25
1022.8002	2958.5202	2653.15	1766.75
1022.9138	2959.6062	2617.75	1734.5
1023.0274	2960.6916	2595.35	1710.2
1023.141	2961.7764	2581.4	1695.5
1023.2545	2962.8605	2566.55	1682.15
1023.3679	2963.9439	2540.65	1656.95
1023.4813	2965.0267	2528.85	1641.8
1023.5947	2966.1089	2537.95	1630.95
1023.708	2967.1905	2529.1	1645.7
1023.8213	2968.2714	2509.2	1625.5
1023.9346	2969.3516	2495.2	1612.9
1024.0478	2970.4312	2505.15	1610.95
1024.1609	2971.5102	2493.65	1608.05
1024.274	2972.5885	2494.3	1613.55
1024.3871	2973.6662	2497.25	1608.1
1024.5002	2974.7432	2475.35	1590.65
1024.6132	2975.8196	2475.3	1591.5
1024.7261	2976.8954	2464.4	1582.8
1024.839	2977.9705	2437.15	1553.15
1024.9519	2979.045	2449.4	1566.95
1025.0647	2980.1188	2421.65	1539.05
1025.1775	2981.192	2403.5	1520.4
1025.2902	2982.2645	2377.1	1490.95
1025.4029	2983.3364	2360	1477.45
1025.5156	2984.4077	2323.15	1441.9
1025.6282	2985.4783	2296.1	1406.55
1025.7407	2986.5483	2261.7	1377.65
1025.8532	2987.6177	2229.45	1345.85
1025.9657	2988.6864	2201.5	1316.9
1026.0782	2989.7545	2171.35	1286.65
1026.1906	2990.8219	2137.5	1255.35
1026.3029	2991.8887	2104.55	1217.3
1026.4152	2992.9548	2073.9	1188.9
1026.5275	2994.0204	2032.1	1148.1
1026.6397	2995.0852	2015.45	1133.1
1026.7519	2996.1495	1989.5	1103.65
1026.864	2997.2131	1965.65	1082.5
1026.9761	2998.276	1937.65	1053.45
1027.0882	2999.3383	1925.6	1041.75
1027.2002	3000.4	1906.4	1020.45
1027.3122	3001.4611	1886.35	1003.05
1027.4241	3002.5215	1868.75	984
1027.536	3003.5812	1854.9	972.6
1027.6478	3004.6404	1840.75	957.55
1027.7596	3005.6989	1828.2	942
1027.8714	3006.7567	1827.85	943.2
1027.9831	3007.8139	1828.2	926.95
1028.0947	3008.8705	1799.1	915.8
1028.2064	3009.9264	1814.05	913.95
1028.3179	3010.9818	1782.8	898.45
1028.4295	3012.0364	1784.75	900.55
1028.541	3013.0905	1774.85	891.1
1028.6524	3014.1439	1772.25	887.45
1028.7638	3015.1966	1769.05	886.85
1028.8752	3016.2487	1761.9	877.4
1028.9865	3017.3002	1770.4	881.6
1029.0978	3018.3511	1758	875.75
1029.209	3019.4013	1757.35	874.95
1029.3202	3020.4509	1750.85	865.65
1029.4314	3021.4998	1762.85	878.75
1029.5425	3022.5481	1748.05	864.25
1029.6535	3023.5958	1754.6	871.7
1029.7645	3024.6428	1752.05	867.75
1029.8755	3025.6892	1756.5	871.6
1029.9864	3026.735	1745.75	861.7
1030.0973	3027.7802	1749.85	866.15
1030.2082	3028.8247	1747.5	863.4
1030.319	3029.8685	1755.1	873.65
1030.4297	3030.9118	1758.85	875.75
1030.5404	3031.9544	1741.6	857.9
1030.6511	3032.9963	1752.7	869.1
1030.7617	3034.0376	1756.75	874.5
1030.8723	3035.0783	1759.25	872.95
1030.9829	3036.1184	1761.25	876.05
1031.0934	3037.1578	1757.05	877.1
1031.2038	3038.1966	1766.5	880.65
1031.3142	3039.2348	1765.4	882.7
1031.4246	3040.2723	1764.6	872.9
1031.5349	3041.3092	1753.75	871.7
1031.6452	3042.3455	1750.5	868.35
1031.7554	3043.3811	1751.7	868.05
1031.8656	3044.4161	1737.5	854.35
1031.9758	3045.4505	1744.5	863.3
1032.0859	3046.4842	1730	847.35
1032.1959	3047.5173	1716.15	833.95
1032.3059	3048.5498	1710.7	828.5
1032.4159	3049.5816	1708.9	824.85
1032.5258	3050.6128	1700.1	814.15
1032.6357	3051.6434	1690.65	807.5
1032.7455	3052.6734	1684.5	799.6
1032.8553	3053.7027	1677.3	793.75
1032.9651	3054.7314	1668.75	786.2
1033.0748	3055.7594	1667.6	785.85
1033.1845	3056.7868	1656.25	771.25
1033.2941	3057.8136	1662.2	781.2
1033.4037	3058.8398	1644.8	762.2
1033.5132	3059.8653	1636.5	753.35
1033.6227	3060.8902	1634.55	753.15
1033.7321	3061.9145	1625.55	744.9
1033.8415	3062.9381	1628.5	744.6
1033.9509	3063.9612	1629.45	733.75
1034.0602	3064.9835	1607.45	725.8
1034.1694	3066.0053	1599.25	714.4
1034.2787	3067.0264	1600.6	721.2
1034.3878	3068.0469	1583.35	699.5
1034.497	3069.0668	1580.55	694.6
1034.6061	3070.086	1568	685.9
1034.7151	3071.1046	1558.2	674.05
1034.8241	3072.1226	1551.95	668.7
1034.9331	3073.1399	1540.05	659.4
1035.042	3074.1567	1526.4	644.15
1035.1508	3075.1727	1519.85	636.75
1035.2597	3076.1882	1512.25	631.2
1035.3684	3077.203	1503.75	621.25
1035.4772	3078.2173	1497.45	612.35
1035.5859	3079.2308	1487.4	601.85
1035.6945	3080.2438	1480	593.65
1035.8031	3081.2561	1469.55	586.1
1035.9117	3082.2678	1468.3	585.8
1036.0202	3083.2789	1449.1	567.05
1036.1286	3084.2893	1441.85	559.2
1036.2371	3085.2991	1436.55	554.85
1036.3454	3086.3083	1437.9	549.65
1036.4538	3087.3169	1432.3	549.8
1036.562	3088.3248	1413.7	528.75
1036.6703	3089.3321	1419.65	534.2
1036.7785	3090.3388	1408	527.05
1036.8866	3091.3449	1406.3	522.75
1036.9948	3092.3503	1401.25	514.95
1037.1028	3093.3551	1397.95	517.75
1037.2108	3094.3593	1386.9	504.95
1037.3188	3095.3629	1385	503.55
1037.4267	3096.3658	1385.65	501.55
1037.5346	3097.3681	1376.95	496.4
1037.6425	3098.3698	1377.05	492.6
1037.7503	3099.3708	1378.8	489.95
1037.858	3100.3713	1361.95	479.8
1037.9657	3101.3711	1367.65	485.05
1038.0734	3102.3702	1489.75	473.25
1038.181	3103.3688	1361.35	479.8
1038.2886	3104.3667	1349.85	469.6
1038.3961	3105.364	1349.95	468.25
1038.5036	3106.3607	1348.6	463.7
1038.611	3107.3568	1338	453.95
1038.7184	3108.3522	1340.75	459.55
1038.8257	3109.347	1333.1	452.75
1038.933	3110.3412	1336.9	450.95
1039.0403	3111.3348	1327.45	444.7
1039.1475	3112.3277	1324.15	442.3
1039.2547	3113.32	1324.6	443.7
1039.3618	3114.3117	1321.25	437.55
1039.4689	3115.3028	1319.15	436.65
1039.5759	3116.2932	1312.9	430.25
1039.6829	3117.2831	1316.85	428.25
1039.7898	3118.2723	1317	436.25
1039.8967	3119.2608	1298.7	416.1
1040.0035	3120.2488	1305.45	423.3
1040.1103	3121.2361	1298.5	416
1040.2171	3122.2229	1295.55	413
1040.3238	3123.209	1290.55	407.05
1040.4305	3124.1944	1295.4	414.45
1040.5371	3125.1793	1297.85	414.3
1040.6437	3126.1635	1294.5	414.8
1040.7502	3127.1471	1282.6	401.55
1040.8567	3128.1301	1283.55	403.25
1040.9631	3129.1125	1278.95	395.4
1041.0695	3130.0942	1282.05	400.45
1041.1759	3131.0753	1283.9	393.55
1041.2822	3132.0558	1272.8	387.15
1041.3884	3133.0357	1268.2	384.3
1041.4946	3134.015	1269.25	387.15
1041.6008	3134.9936	1267.6	382.4
1041.7069	3135.9716	1287.4	383.4
1041.813	3136.949	1263.5	382.5
1041.919	3137.9258	1279.35	378.85
1042.025	3138.902	1265.05	378.45
1042.1309	3139.8775	1254.5	372.15
1042.2368	3140.8524	1252.1	371.8
1042.3427	3141.8267	1254	371.15
1042.4485	3142.8004	1248.55	366.3
1042.5542	3143.7735	1252.75	363.2
1042.6599	3144.7459	1249.8	367
1042.7656	3145.7178	1243.75	362.5
1042.8712	3146.689	1240.8	359.6
1042.9768	3147.6596	1244.2	361.2
1043.0823	3148.6295	1239.9	357.9
1043.1878	3149.5989	1237.05	356.95
1043.2932	3150.5676	1224.35	344.2
1043.3986	3151.5357	1227.85	348.2
1043.5039	3152.5032	1229.4	346.55
1043.6092	3153.4701	1230.15	349.5
1043.7145	3154.4364	1226.75	343.55
1043.8197	3155.402	1218.7	338.8
1043.9248	3156.367	1223.25	341.7
1044.03	3157.3315	1260.8	335.75
1044.135	3158.2952	1217.1	336.25
1044.24	3159.2584	1207.55	326.35
1044.345	3160.221	1208.35	325.1
1044.4499	3161.1829	1214.75	332.45
1044.5548	3162.1442	1204.2	322.95
1044.6596	3163.105	1205.8	324.5
1044.7644	3164.065	1205.6	324.1
1044.8692	3165.0245	1202.05	317.85
1044.9739	3165.9834	1199.55	319.55
1045.0785	3166.9416	1196.2	316.45
1045.1831	3167.8993	1198.35	316.85
1045.2877	3168.8563	1189.2	308.3
1045.3922	3169.8127	1191.2	312.2
1045.4966	3170.7684	1186.95	305.7
1045.6011	3171.7236	1188.4	307.4
1045.7054	3172.6782	1188	306.45
1045.8098	3173.6321	1186.8	304.55
1045.914	3174.5854	1188.65	302.25
1046.0183	3175.5381	1182.75	303
1046.1224	3176.4902	1182.8	302.85
1046.2266	3177.4417	1177.35	298.6
1046.3307	3178.3926	1170.7	291.3
1046.4347	3179.3428	1172.75	290.95
1046.5387	3180.2924	1176.65	294.2
1046.6427	3181.2415	1178.05	298.4
1046.7466	3182.1899	1175.9	292.1
1046.8504	3183.1377	1171.7	291.55
1046.9542	3184.0848	1172.65	287.85
1047.058	3185.0314	1167.75	287
1047.1617	3185.9773	1168	285.5
1047.2654	3186.9227	1164.9	283.25
1047.369	3187.8674	1159	279.1
1047.4726	3188.8115	1160.3	274.3
1047.5761	3189.755	1156.5	276.3
1047.6796	3190.6979	1150.55	270.35
1047.783	3191.6402	1153.1	273.9
1047.8864	3192.5818	1157.9	276.7
1047.9898	3193.5229	1160.65	274.5
1048.0931	3194.4633	1153.8	273.25
1048.1963	3195.4031	1152	270.85
1048.2995	3196.3423	1147.9	267.5
1048.4027	3197.2809	1146.4	265.45
1048.5058	3198.2189	1142.35	259.85
1048.6089	3199.1563	1151.3	264.6
1048.7119	3200.0931	1140.45	260.15
1048.8148	3201.0292	1136.95	259.25
1048.9178	3201.9648	1141.15	259.9
1049.0206	3202.8997	1135	250.5
1049.1235	3203.834	1133.7	254.05
1049.2262	3204.7677	1139.5	258.55
1049.329	3205.7008	1138.15	257.3
1049.4317	3206.6333	1134.25	253.95
1049.5343	3207.5652	1133.5	249.85
1049.6369	3208.4964	1130.5	250.7
1049.7394	3209.4271	1127.7	247.55
1049.8419	3210.3571	1127.25	246.15
1049.9444	3211.2865	1125.55	242.85
1050.0468	3212.2154	1124.15	241.75
1050.1491	3213.1436	1129.15	243.7
1050.2514	3214.0712	1128.9	240.65
1050.3537	3214.9982	1121.1	241.1
1050.4559	3215.9246	1120.7	241.1
1050.5581	3216.8503	1118.35	239.1
1050.6602	3217.7755	1116.3	234.2
1050.7623	3218.7001	1111.05	230.65
1050.8643	3219.624	1113.45	232.45
1050.9663	3220.5473	1111.5	231.25
1051.0682	3221.4701	1113.4	232.15
1051.1701	3222.3922	1110.7	227.5
1051.2719	3223.3137	1110.3	231
1051.3737	3224.2346	1107.2	226.85
1051.4754	3225.1549	1110.1	230.2
1051.5771	3226.0746	1106.4	226.15
1051.6788	3226.9937	1104.45	224.95
1051.7804	3227.9121	1103.5	223.1
1051.8819	3228.83	1101.95	222.05
1051.9834	3229.7473	1101.3	219.2
1052.0849	3230.6639	1105.4	225.05
1052.1863	3231.5799	1098.2	219.4
1052.2876	3232.4954	1099	217.65
1052.3889	3233.4102	1100.2	220.55
1052.4902	3234.3244	1094.75	215.2
1052.5914	3235.238	1092.3	213.45
1052.6926	3236.151	1121.55	217.6
1052.7937	3237.0634	1091.9	211.45
1052.8948	3237.9752	1091.95	213.05
1052.9958	3238.8864	1092.1	210.15
1053.0968	3239.797	1087.05	207.25
1053.1977	3240.7069	1088.85	208.8
1053.2986	3241.6163	1084.6	202.85
1053.3994	3242.5251	1084.6	207.4
1053.5002	3243.4332	1082.65	203.55
1053.6009	3244.3408	1085.4	204.45
1053.7016	3245.2477	1081.1	202.25
1053.8022	3246.154	1080.55	199.35
1053.9028	3247.0598	1082	201.05
1054.0034	3247.9649	1074.8	194.2
1054.1039	3248.8694	1074.75	192.35
1054.2043	3249.7733	1074.15	194.7
1054.3047	3250.6766	1070.95	191.25
1054.4051	3251.5793	1077.2	195.45
1054.5054	3252.4814	1069.15	187
1054.6056	3253.3829	1069.45	190.2
1054.7058	3254.2838	1064.9	185.15
1054.806	3255.1841	1064.25	185.05
1054.9061	3256.0838	1069.3	188.1
1055.0061	3256.9829	1060.95	181.65
1055.1062	3257.8814	1061.5	179.85
1055.2061	3258.7792	1060.65	178.6
1055.306	3259.6765	1056.5	176.5
1055.4059	3260.5731	1052.7	172.55
1055.5057	3261.4692	1052.15	172.25
1055.6055	3262.3647	1049.6	170.1
1055.7052	3263.2595	1047.8	167.9
1055.8049	3264.1538	1049.15	169.55
1055.9045	3265.0474	1041.75	160.85
1056.0041	3265.9404	1042.3	163.3
1056.1036	3266.8329	1039	160.15
1056.2031	3267.7247	1046.25	155.15
1056.3025	3268.616	1031.65	152.9
1056.4019	3269.5066	1025.95	145.2
1056.5013	3270.3966	1028.75	147.35
1056.6005	3271.286	1023.95	145.9
