Software Version:	3.9.2.0
Unit SN:	10000200
Spectrometer SN:	6960
Date:	3/26/2024 1:29:57 PM
Data Line Index:	25
Spectral Points:	2048
Integration time (ms):	125
Averages:	20
Delay (ms):	30000
Sequence Number:	1
Processing:	dark subtract
Laser Power (mW):	305
Laser Current (mA):	820
Laser Diode Temp (C):	25
Laser Case Temp (C):	26.9
System Temp (C):	26.8
Spectrometer Temp (C):	24.6
CCD Temp (C):	0.008
Secondary Temp (C):	20.011
Heatsink Temp (C):	22.393
CCDPCB Temp (C):	36.563
SecondaryPCB Temp (C):	33.984

Wavelength	RamanShift	Raw Counts	Dark Subtracted
787.061	30.1047	542.9	131.75
787.2016	32.3739	542	131.85
787.3422	34.6426	558.75	148.4
787.4828	36.9109	568.8	156
787.6235	39.1787	581.6	165.45
787.7642	41.4461	600.3	179.15
787.9049	43.7131	613.3	187.2
788.0456	45.9796	625.85	198.05
788.1863	48.2456	642.8	210.75
788.3271	50.5112	664.05	228.6
788.4679	52.7764	678.35	239.1
788.6087	55.0411	690.15	247.6
788.7496	57.3054	711.85	266.45
788.8904	59.5692	734.65	285.15
789.0313	61.8326	758.4	305.6
789.1722	64.0955	777.35	320.5
789.3132	66.3579	813.25	351.05
789.4541	68.6199	846.5	383.6
789.5951	70.8815	909.1	442.4
789.7361	73.1426	1044.05	573.4
789.8771	75.4032	1391.85	917.45
790.0181	77.6634	2236.8	1753.4
790.1592	79.9231	4291.4	3804.5
790.3003	82.1824	8933.75	8434.05
790.4414	84.4412	17514.65	16993.1
790.5825	86.6995	30655.6	30102.85
790.7237	88.9574	42658.35	42082.8
790.8648	91.2148	50911.9	50316.8
791.006	93.4717	53356	52751.7
791.1472	95.7282	54370.25	53759.85
791.2885	97.9842	54752.95	54137.65
791.4297	100.2398	54433.9	53814.65
791.571	102.4949	54061.35	53439.6
791.7123	104.7495	53858.8	53232.45
791.8536	107.0036	53148.65	52522.3
791.9949	109.2573	53504.7	52880.2
792.1363	111.5105	52696	52067.2
792.2777	113.7632	52679.25	52048.95
792.4191	116.0154	52696.95	52057.35
792.5605	118.2672	52954.75	52320.25
792.7019	120.5185	52781.9	52146.75
792.8434	122.7693	52621.85	51985.35
792.9849	125.0197	51982.45	51345.1
793.1264	127.2696	53025	52381.1
793.2679	129.519	52754.75	52108.15
793.4094	131.7679	53173.05	52524.95
793.551	134.0163	51767.8	51113.65
793.6926	136.2642	52155.6	51499.9
793.8342	138.5117	52761.65	52100.55
793.9758	140.7587	52300.1	51640.45
794.1175	143.0052	52191.9	51525.95
794.2591	145.2512	51446.15	50782.95
794.4008	147.4967	52166.15	51501.2
794.5425	149.7417	51784.65	51117.35
794.6842	151.9863	51707.15	51034.45
794.826	154.2304	51095.4	50420.35
794.9677	156.4739	51436.8	50756.85
795.1095	158.717	51848.5	51170.45
795.2513	160.9596	51468.65	50782.35
795.3931	163.2017	50773.3	50088
795.535	165.4433	51317.6	50630
795.6768	167.6844	50781	50092.9
795.8187	169.925	50988.4	50298.55
795.9606	172.1651	50557.3	49861.8
796.1025	174.4047	50457.9	49760.95
796.2445	176.6439	50416.4	49716.8
796.3864	178.8825	50276.55	49572.75
796.5284	181.1206	50560.85	49853.5
796.6704	183.3582	50426.6	49716.35
796.8124	185.5954	50043.7	49330.2
796.9544	187.832	50176.9	49461.25
797.0965	190.0681	49837.95	49119.25
797.2386	192.3037	50467.25	49745.25
797.3806	194.5388	51138.4	50413.1
797.5228	196.7734	49587.75	48861.1
797.6649	199.0075	50976.1	50243.5
797.807	201.2411	50536	49802.65
797.9492	203.4742	51316.7	50581.75
798.0914	205.7068	51216.95	50483.2
798.2336	207.9389	51189.65	50455.7
798.3758	210.1704	51155.75	50414.85
798.518	212.4015	51813.15	51070.65
798.6603	214.632	51031.55	50291.4
798.8025	216.862	51875.6	51147.8
798.9448	219.0915	51661.5	50937.3
799.0871	221.3205	51500.5	50778.15
799.2294	223.549	52176.15	51457.1
799.3718	225.777	52101.65	51384.7
799.5141	228.0044	52417.9	51694.35
799.6565	230.2314	52279.8	51561.65
799.7989	232.4578	52267.55	51545.85
799.9413	234.6837	52418.85	51690.9
800.0837	236.909	53634.85	52904.3
800.2262	239.1339	51924.2	51173.7
800.3687	241.3582	52600.6	51855.7
800.5111	243.582	52638.1	51862.75
800.6536	245.8053	52592.35	51831.45
800.7961	248.0281	52557.35	51803.05
800.9387	250.2503	52831.9	52072.65
801.0812	252.472	52355.3	51589.3
801.2238	254.6932	52714.4	51950.95
801.3664	256.9139	52597.25	51830.3
801.509	259.134	53697.6	52923.45
801.6516	261.3536	52540.9	51771.9
801.7942	263.5727	53457.3	52684.8
801.9369	265.7912	53136.2	52365.55
802.0795	268.0092	53406.25	52637.5
802.2222	270.2267	53555.65	52781.95
802.3649	272.4436	53121.75	52346.95
802.5076	274.6601	53594.5	52812.45
802.6504	276.8759	53778.1	53002.65
802.7931	279.0913	53514.3	52733.85
802.9359	281.3061	53535.5	52756
803.0787	283.5204	53614.15	52830.9
803.2215	285.7341	53534.3	52747.7
803.3643	287.9473	54036.35	53233.45
803.5071	290.16	53585.7	52792.9
803.6499	292.3721	53996	53207.65
803.7928	294.5837	53501.75	52713.4
803.9357	296.7947	53280.9	52492.2
804.0786	299.0052	54078.5	53289.95
804.2215	301.2152	53770.1	52982.65
804.3644	303.4246	54074.7	53287.45
804.5074	305.6334	53882.7	53094.6
804.6503	307.8418	53060.2	52269.5
804.7933	310.0495	53013.25	52220.8
804.9363	312.2568	52737.25	51946.1
805.0793	314.4635	52510.65	51713.75
805.2223	316.6696	52639.95	51845.05
805.3653	318.8752	52857.6	52054.4
805.5084	321.0802	51708.45	50908.75
805.6514	323.2847	52140.9	51341.35
805.7945	325.4887	52157.75	51357.7
805.9376	327.692	51844.7	51041.6
806.0807	329.8949	52117.9	51318.4
806.2238	332.0972	51824.05	51020.1
806.367	334.2989	51894.35	51084.45
806.5101	336.5001	52141.7	51333.45
806.6533	338.7007	51317.35	50507.75
806.7965	340.9008	51656.95	50845.6
806.9397	343.1003	51615.6	50807.5
807.0829	345.2992	51774.25	50964.1
807.2261	347.4976	51353.35	50539.9
807.3693	349.6955	51471.05	50653.35
807.5126	351.8927	51255.6	50435.95
807.6559	354.0895	51465.5	50637.4
807.7991	356.2856	51343.45	50524.3
807.9424	358.4812	51644.9	50823.55
808.0857	360.6763	51121.35	50299.55
808.2291	362.8707	51479.55	50657.1
808.3724	365.0646	51200.2	50376.35
808.5158	367.258	51223.1	50400.15
808.6591	369.4508	50954.3	50124.35
808.8025	371.643	51485.55	50657.15
808.9459	373.8346	51229.7	50398.95
809.0893	376.0257	51272.8	50434.5
809.2327	378.2162	51103.1	50270.75
809.3762	380.4062	50701.8	49868
809.5196	382.5956	50999.85	50164.7
809.6631	384.7844	50968.2	50135.2
809.8066	386.9726	51007.1	50168.4
809.9501	389.1603	50960.3	50124.1
810.0936	391.3474	50428.2	49558.8
810.2371	393.5339	50856.5	50017.2
810.3806	395.7199	50210.4	49380.3
810.5241	397.9052	50303.55	49475.8
810.6677	400.09	50448.6	49621.65
810.8113	402.2743	50776.7	49945.7
810.9548	404.4579	50465.6	49635.35
811.0984	406.641	50493.25	49667.35
811.2421	408.8235	50841.7	50011.3
811.3857	411.0054	50939.7	50109.45
811.5293	413.1868	51043.6	50211
811.673	415.3675	50930.75	50095.95
811.8166	417.5477	50976.85	50140.45
811.9603	419.7273	50934.05	50096.6
812.104	421.9064	50747.75	49904.5
812.2477	424.0848	50829.1	49988.45
812.3914	426.2627	50990.4	50147
812.5351	428.4399	50277.7	49432.8
812.6788	430.6166	49819.9	48970.7
812.8226	432.7928	50052.45	49203.4
812.9663	434.9683	49526.6	48678.5
813.1101	437.1432	49436.7	48588.1
813.2539	439.3176	49555.5	48711.15
813.3977	441.4914	48953.3	48106.5
813.5415	443.6645	49039.3	48190.05
813.6853	445.8371	49003.8	48156.5
813.8291	448.0091	48693.15	47842.4
813.973	450.1806	48540.05	47689.45
814.1168	452.3514	48463.5	47612.05
814.2607	454.5216	48354.35	47500.25
814.4046	456.6913	48441.25	47589.8
814.5485	458.8603	48532	47680.65
814.6924	461.0288	48307.8	47458.45
814.8363	463.1967	48496.75	47646.95
814.9802	465.3639	48513.5	47660.9
815.1241	467.5306	47988.05	47137
815.2681	469.6967	48175.95	47324.3
815.412	471.8622	48267.5	47419.55
815.556	474.0271	48129	47278.8
815.7	476.1914	48189.4	47335.2
815.844	478.3551	48180.75	47325.4
815.988	480.5182	48557.05	47702.7
816.132	482.6807	48127	47278.35
816.276	484.8426	48340.15	47492.75
816.4201	487.0039	48867.2	48017.6
816.5641	489.1647	48971.4	48116.7
816.7082	491.3248	48705.35	47847.55
816.8522	493.4843	49205.65	48350.9
816.9963	495.6432	49152.85	48300.3
817.1404	497.8015	48573.5	47710.25
817.2845	499.9592	48814.9	47951.85
817.4286	502.1163	48651.45	47788
817.5727	504.2728	48412.6	47551.35
817.7168	506.4287	48350.6	47497.45
817.861	508.5839	47860.1	47002.75
818.0051	510.7386	47864.15	47006.5
818.1493	512.8927	47942.5	47074.6
818.2935	515.0461	47857.95	46994.05
818.4377	517.199	48096.85	47234.15
818.5818	519.3512	48000.2	47136
818.726	521.5029	47970.2	47101.15
818.8703	523.6539	48200.1	47335.2
819.0145	525.8043	47912.4	47043.7
819.1587	527.9541	48118.6	47251.25
819.303	530.1033	47949.15	47080.3
819.4472	532.2519	47708.95	46841.4
819.5915	534.3999	47826.95	46955.35
819.7357	536.5472	48028.65	47161
819.88	538.694	47726.4	46860.95
820.0243	540.8401	48194.35	47322.25
820.1686	542.9856	48201.95	47327
820.3129	545.1305	48281.25	47400.65
820.4572	547.2748	48069.8	47190.85
820.6016	549.4185	47973.85	47091.2
820.7459	551.5615	48014.9	47133.75
820.8902	553.704	47946.75	47071.95
821.0346	555.8458	47731.6	46856.35
821.1789	557.987	47955.95	47080.55
821.3233	560.1276	48133.45	47257.1
821.4677	562.2675	48165.4	47288.3
821.6121	564.4069	48455.45	47580.95
821.7565	566.5456	48825.75	47951.15
821.9009	568.6837	48563.65	47689.1
822.0453	570.8212	48431.1	47559.05
822.1897	572.958	47635.95	46758.8
822.3342	575.0942	47520.35	46649.05
822.4786	577.2299	47041.2	46169.65
822.6231	579.3648	46895.2	46031.7
822.7675	581.4992	46678.8	45813.55
822.912	583.6329	46679.65	45818.35
823.0565	585.766	46690.7	45826.6
823.201	587.8985	46929.35	46062.45
823.3454	590.0304	46568.25	45682.9
823.4899	592.1616	46660.35	45777.7
823.6345	594.2922	46418.25	45540.95
823.779	596.4222	46196.6	45313.05
823.9235	598.5515	46086.1	45202.2
824.068	600.6802	45982.1	45097.8
824.2126	602.8083	45606.5	44725.5
824.3571	604.9358	45570	44687
824.5017	607.0626	45675.6	44793.45
824.6462	609.1888	45492.45	44607.35
824.7908	611.3144	45685.95	44797
824.9354	613.4393	45554.75	44668.35
825.08	615.5636	45593.35	44706.85
825.2246	617.6873	45657.9	44773.15
825.3692	619.8103	45553.1	44669.55
825.5138	621.9327	45489.15	44602.5
825.6584	624.0544	45392.15	44508.05
825.803	626.1756	45186.85	44302.85
825.9477	628.2961	45064.3	44176.95
826.0923	630.4159	44892.2	44006.35
826.237	632.5351	44885.85	44000.85
826.3816	634.6537	45046.85	44158.7
826.5263	636.7716	44835.35	43946.45
826.6709	638.8889	44818.4	43926.4
826.8156	641.0056	44826.5	43931.85
826.9603	643.1216	44841.55	43953.45
827.105	645.237	44879.4	43986.2
827.2497	647.3518	44620.35	43735.85
827.3944	649.4659	44647.75	43762.2
827.5391	651.5793	44579.4	43692.6
827.6838	653.6922	44492.1	43603.95
827.8285	655.8043	44330.8	43442.55
827.9733	657.9159	44527.9	43640.65
828.118	660.0268	44094.1	43204.05
828.2627	662.137	44197.8	43307.85
828.4075	664.2466	44241.25	43346.15
828.5522	666.3556	44106.6	43215.15
828.697	668.4639	44006.5	43113.7
828.8418	670.5716	44002.7	43114.55
828.9865	672.6786	44003.4	43111.5
829.1313	674.785	43733.95	42839.8
829.2761	676.8907	43712.5	42819.65
829.4209	678.9958	43738.1	42850.85
829.5657	681.1002	43717.35	42823.05
829.7105	683.204	43552.4	42652.65
829.8553	685.3072	43411.25	42513.5
830.0001	687.4097	43399.6	42502.3
830.1449	689.5115	43391.85	42492.8
830.2898	691.6127	43396.9	42503.3
830.4346	693.7132	43217.4	42324.75
830.5794	695.8131	43323.65	42414.15
830.7243	697.9123	43358.8	42460.3
830.8691	700.0109	43306.4	42408.85
831.014	702.1089	43175.3	42278.25
831.1588	704.2061	43175.4	42278.55
831.3037	706.3028	43248.3	42350.15
831.4486	708.3987	43155.85	42254.3
831.5935	710.4941	43107.95	42210.75
831.7383	712.5887	43193.55	42294.05
831.8832	714.6827	43212.1	42310.6
832.0281	716.7761	43237.95	42343.6
832.173	718.8688	43298.15	42400.9
832.3179	720.9608	43202.3	42298.2
832.4628	723.0522	43368.4	42462.9
832.6077	725.1429	43280.9	42380.45
832.7527	727.233	43391.85	42493.1
832.8976	729.3224	43243.75	42341.3
833.0425	731.4112	43102.4	42199.35
833.1874	733.4993	42991.35	42089.2
833.3324	735.5867	42771.7	41871.05
833.4773	737.6735	42544.95	41643.05
833.6222	739.7596	42338.6	41438.9
833.7672	741.845	42211.1	41309.65
833.9122	743.9298	42169.8	41265.6
834.0571	746.014	42049.35	41145.85
834.2021	748.0974	41984.7	41076.6
834.347	750.1802	41913.8	41008.6
834.492	752.2624	41678.55	40773.5
834.637	754.3439	41620.55	40714
834.782	756.4247	41650.2	40734.6
834.9269	758.5048	41607.2	40703.5
835.0719	760.5843	41672.25	40767.6
835.2169	762.6631	41802.9	40895.65
835.3619	764.7413	42068.05	41158.65
835.5069	766.8188	42453.2	41548.15
835.6519	768.8956	42655	41749.25
835.7969	770.9718	42895.5	41991.85
835.9419	773.0473	42639.15	41733.3
836.0869	775.1221	42469.45	41563.75
836.232	777.1962	42200.3	41295.1
836.377	779.2697	42035.85	41130.25
836.522	781.3426	42056.35	41129.2
836.667	783.4147	42071.85	41164.4
836.8121	785.4862	42111.75	41204.45
836.9571	787.557	41888.3	40977.9
837.1021	789.6271	41559.9	40653.15
837.2472	791.6966	41119	40210.65
837.3922	793.7654	40611.8	39703.8
837.5373	795.8335	40388.65	39480.8
837.6823	797.901	40148.4	39242.9
837.8274	799.9678	39976.1	39070.3
837.9724	802.0339	39843.05	38933.45
838.1175	804.0993	39819.7	38897.5
838.2626	806.1641	39695.95	38787.2
838.4076	808.2282	39548.2	38637.35
838.5527	810.2916	39532.85	38620.45
838.6978	812.3544	39425.65	38516.8
838.8428	814.4164	39276.55	38368.7
838.9879	816.4778	39308.85	38397.7
839.133	818.5385	39198.7	38287.75
839.2781	820.5986	39253.65	38345.05
839.4232	822.658	39339.75	38428.6
839.5682	824.7166	39404.3	38490.15
839.7133	826.7747	39762.65	38854.85
839.8584	828.832	39943.55	39031.65
840.0035	830.8886	39993.3	39079.85
840.1486	832.9446	40124.6	39210.15
840.2937	834.9999	39938.95	39026.9
840.4388	837.0545	39686.7	38771.25
840.5839	839.1085	39507.35	38592.9
840.729	841.1618	39265.15	38350.75
840.8741	843.2143	39015.95	38104.45
841.0192	845.2662	38811.9	37899.45
841.1643	847.3175	38704.95	37794.6
841.3095	849.368	38481.2	37569.1
841.4546	851.4179	38396	37482.85
841.5997	853.467	38179.85	37266.8
841.7448	855.5155	38106	37192.5
841.8899	857.5633	38008.5	37096.6
842.0351	859.6105	37837.45	36924.1
842.1802	861.6569	37751.1	36837.55
842.3253	863.7027	37693.55	36780.95
842.4704	865.7478	37636.85	36721.7
842.6156	867.7922	37594.8	36680.6
842.7607	869.8359	37421.2	36507.8
842.9058	871.8789	37454.9	36541.6
843.0509	873.9212	37517.85	36573.55
843.1961	875.9629	37359.6	36446.15
843.3412	878.0039	37402	36489.9
843.4863	880.0441	37375.6	36462.55
843.6315	882.0837	37435.95	36523.95
843.7766	884.1226	37397.65	36482.45
843.9218	886.1609	37313.65	36401.75
844.0669	888.1984	37360.7	36447.2
844.212	890.2352	37480.9	36566.7
844.3572	892.2714	37377.1	36456.8
844.5023	894.3069	37330.65	36413.85
844.6475	896.3416	37055.6	36136.35
844.7926	898.3757	36929.75	36013.75
844.9377	900.4091	36810.85	35892.7
845.0829	902.4418	36767.65	35849.3
845.228	904.4739	36633.5	35718.35
845.3732	906.5052	36623.2	35707.35
845.5183	908.5358	36542.65	35625.7
845.6635	910.5658	36426.1	35507.65
845.8086	912.595	36190.05	35274.35
845.9538	914.6236	35967.15	35051.2
846.0989	916.6515	35909.5	34994.1
846.2441	918.6786	35801.2	34881.75
846.3892	920.7051	35699.75	34779.65
846.5344	922.7309	35726.45	34805.35
846.6795	924.756	35572.5	34657.4
846.8246	926.7804	35634.3	34715.15
846.9698	928.8041	35327.45	34409.8
847.1149	930.8272	35358.75	34440.35
847.2601	932.8495	35230.75	34312.3
847.4052	934.8711	35226.4	34309.5
847.5504	936.892	35031.4	34113.8
847.6955	938.9123	34935.65	34019.05
847.8407	940.9318	34897.9	33980.9
847.9858	942.9506	34756.15	33836.95
848.131	944.9688	34626.8	33709.2
848.2761	946.9862	34484.8	33565.4
848.4213	949.003	34250.1	33332.75
848.5664	951.019	34157.5	33239.75
848.7115	953.0344	34020	33101.1
848.8567	955.0491	33983.4	33063.5
849.0018	957.063	33977.4	33056.95
849.147	959.0763	34001.25	33079.95
849.2921	961.0888	33940.25	33019.7
849.4373	963.1007	33893.95	32978.3
849.5824	965.1119	33837	32924.05
849.7275	967.1223	33811.75	32901.2
849.8727	969.1321	33709.6	32798.3
850.0178	971.1412	33676.9	32762.3
850.1629	973.1495	33518.75	32602.65
850.3081	975.1572	33502.55	32568.2
850.4532	977.1641	33468.4	32551.5
850.5983	979.1704	33330.05	32408.25
850.7435	981.1759	33236.2	32312.6
850.8886	983.1808	33218.1	32297.45
851.0337	985.1849	33140.1	32208.05
851.1788	987.1884	33081.55	32161.4
851.324	989.1911	33078.2	32159.65
851.4691	991.1932	33076.9	32161.5
851.6142	993.1945	32956.75	32040
851.7593	995.1951	32772.8	31852.3
851.9045	997.1951	32738.75	31812.25
852.0496	999.1943	32604.25	31687.8
852.1947	1001.1928	32448.75	31530.55
852.3398	1003.1906	32352.65	31434.75
852.4849	1005.1877	32358.5	31439.2
852.63	1007.1841	32259.2	31342.5
852.7751	1009.1798	32131.05	31212.95
852.9202	1011.1748	31995.45	31078.65
853.0653	1013.1691	31867.8	30948.4
853.2104	1015.1627	31631	30713.55
853.3555	1017.1556	31316.7	30400.65
853.5006	1019.1477	31195.5	30277.45
853.6457	1021.1392	30948.45	30036.65
853.7908	1023.1299	30855.15	29943.1
853.9359	1025.12	30744.9	29834.75
854.081	1027.1093	30657.45	29752.25
854.2261	1029.0979	30667.8	29766.25
854.3712	1031.0859	30578.5	29672.1
854.5163	1033.0731	30554.6	29642.8
854.6613	1035.0596	30450.75	29540.25
854.8064	1037.0454	30248.75	29336
854.9515	1039.0304	30132.2	29214.5
855.0965	1041.0148	30007.6	29092
855.2416	1042.9985	29784.85	28865.7
855.3867	1044.9814	29697.45	28780.7
855.5317	1046.9636	29540.4	28620.15
855.6768	1048.9452	29422.3	28506.3
855.8219	1050.926	29406.35	28489.85
855.9669	1052.9061	29353.05	28436.45
856.112	1054.8855	29313.25	28399.8
856.257	1056.8642	29284.45	28365.9
856.4021	1058.8421	29310.05	28385.75
856.5471	1060.8194	29242.15	28324.2
856.6921	1062.7959	29182.95	28264.6
856.8372	1064.7717	29141.95	28223.75
856.9822	1066.7469	29100.5	28180.65
857.1272	1068.7213	29081.3	28161.6
857.2723	1070.695	29102.3	28186.9
857.4173	1072.6679	28942.5	28024.8
857.5623	1074.6402	28961.3	28043.55
857.7073	1076.6117	28945.65	28021.8
857.8523	1078.5826	28783.55	27865.05
857.9973	1080.5527	28610.85	27694
858.1423	1082.5221	28473.05	27558
858.2873	1084.4908	28447.7	27533
858.4323	1086.4587	28412.85	27496.3
858.5773	1088.426	28353	27436.35
858.7223	1090.3925	28234.15	27309.75
858.8673	1092.3584	28215.95	27298.05
859.0123	1094.3235	28072.3	27157.6
859.1573	1096.2879	28013.85	27096.55
859.3022	1098.2515	28078.35	27161.2
859.4472	1100.2145	28190.15	27272.55
859.5922	1102.1767	28213.65	27294.7
859.7371	1104.1382	28271.35	27354.7
859.8821	1106.099	28390.95	27471.1
860.027	1108.0591	28415.75	27501.4
860.172	1110.0185	28429.1	27511.15
860.3169	1111.9771	28465.45	27547.4
860.4619	1113.9351	28321.9	27403.25
860.6068	1115.8923	28146.95	27227.85
860.7517	1117.8488	27948.9	27031.5
860.8967	1119.8045	27766.35	26846.45
861.0416	1121.7596	27677.5	26761.2
861.1865	1123.7139	27458.55	26544.85
861.3314	1125.6675	27359.6	26441.65
861.4763	1127.6204	27416.35	26500.25
861.6212	1129.5726	27288.25	26372.4
861.7661	1131.524	27215.95	26297.75
861.911	1133.4748	27095.9	26180.05
862.0559	1135.4248	26901.65	25985.05
862.2008	1137.3741	26804.4	25890.1
862.3457	1139.3226	26612.9	25692.2
862.4905	1141.2705	26588.1	25667.75
862.6354	1143.2176	26393	25470.85
862.7803	1145.164	26372.15	25450.6
862.9251	1147.1097	26240.25	25325.75
863.07	1149.0546	26144.85	25225.9
863.2148	1150.9989	26058.65	25140.15
863.3597	1152.9424	25969.85	25053.15
863.5045	1154.8852	25847.7	24929.6
863.6493	1156.8272	25764.95	24846.45
863.7942	1158.7686	25798.45	24873.1
863.939	1160.7092	25688.05	24771.95
864.0838	1162.6491	25611.9	24692.05
864.2286	1164.5883	25670.1	24751.35
864.3734	1166.5267	25635.95	24717.8
864.5182	1168.4644	25714.65	24795.95
864.663	1170.4014	25767.8	24847.7
864.8078	1172.3377	25954.25	25038.7
864.9526	1174.2732	26070.35	25152.45
865.0974	1176.2081	26280.3	25364.05
865.2421	1178.1421	26578.1	25657.8
865.3869	1180.0755	26907.55	25993.1
865.5317	1182.0082	26998.5	26084.2
865.6764	1183.9401	27030.5	26114.5
865.8212	1185.8713	26861.05	25948.75
865.9659	1187.8017	26610.3	25701.75
866.1106	1189.7315	26342.25	25436.5
866.2554	1191.6605	25954.45	25050.8
866.4001	1193.5888	25676	24767.8
866.5448	1195.5163	25576.35	24661.95
866.6895	1197.4432	25411.15	24498.1
866.8342	1199.3693	25309.85	24396
866.9789	1201.2947	25220.6	24301.9
867.1236	1203.2193	25052.7	24139.55
867.2683	1205.1432	25043.85	24128.75
867.413	1207.0664	24947.15	24032.25
867.5576	1208.9889	24876.95	23958.15
867.7023	1210.9106	24784.2	23870
867.847	1212.8316	24703.9	23790.55
867.9916	1214.7519	24682.6	23756.7
868.1363	1216.6715	24646.05	23733.05
868.2809	1218.5903	24673.65	23759.95
868.4255	1220.5084	24614.35	23700.75
868.5701	1222.4257	24678.85	23766.7
868.7148	1224.3424	24604.9	23694.05
868.8594	1226.2583	24636.1	23721.75
869.004	1228.1735	24673.4	23758.75
869.1486	1230.0879	24685.65	23770.1
869.2932	1232.0016	24788.1	23870.5
869.4377	1233.9146	24826.6	23912.8
869.5823	1235.8269	24736.3	23820
869.7269	1237.7384	24705.35	23791.1
869.8715	1239.6492	24556.7	23643.85
870.016	1241.5592	24481.15	23566.7
870.1606	1243.4686	24452.05	23536.25
870.3051	1245.3772	24531.3	23616.45
870.4496	1247.285	24602.1	23687
870.5941	1249.1922	24660.3	23747.2
870.7387	1251.0986	24758.15	23847.3
870.8832	1253.0042	24731.3	23817.45
871.0277	1254.9092	24827.95	23915.4
871.1722	1256.8134	24778.95	23868.1
871.3167	1258.7169	24859	23944.35
871.4611	1260.6196	24867.85	23956.8
871.6056	1262.5216	24974.35	24060.65
871.7501	1264.4229	25058.65	24145.05
871.8945	1266.3234	25170.8	24259.55
872.039	1268.2232	25183.8	24267.5
872.1834	1270.1223	25186.2	24272.5
872.3278	1272.0207	25188.8	24274.6
872.4723	1273.9183	25117.15	24198.15
872.6167	1275.8151	24984.55	24073.05
872.7611	1277.7113	24939.1	24023.85
872.9055	1279.6067	24920.85	24008.6
873.0499	1281.5014	25095.55	24179.65
873.1943	1283.3953	25273.15	24358.2
873.3386	1285.2885	25604.35	24692.15
873.483	1287.181	25924.55	25010.5
873.6274	1289.0727	26268.9	25356.35
873.7717	1290.9637	26410.15	25495.2
873.9161	1292.854	26583.2	25667.4
874.0604	1294.7435	26520.6	25603.75
874.2047	1296.6323	26387.65	25474.65
874.349	1298.5204	26227.75	25311.05
874.4933	1300.4077	26066.4	25149.15
874.6376	1302.2943	25809	24893.15
874.7819	1304.1802	25611.75	24699.65
874.9262	1306.0653	25240.75	24323.75
875.0705	1307.9497	24888.85	23976.8
875.2147	1309.8333	24615.9	23702.35
875.359	1311.7162	24326.8	23412.85
875.5032	1313.5984	24201.45	23286.1
875.6475	1315.4798	24045.6	23114.75
875.7917	1317.3605	23946.5	23025.75
875.9359	1319.2405	23891.8	22977.25
876.0801	1321.1197	23705.85	22792.85
876.2243	1322.9982	23444.8	22528.95
876.3685	1324.876	23251.2	22335.9
876.5127	1326.753	22991.35	22077.6
876.6569	1328.6293	22842.05	21926.25
876.801	1330.5048	22692.25	21774.8
876.9452	1332.3796	22520.15	21606.75
877.0893	1334.2537	22450.1	21513.55
877.2335	1336.127	22352.8	21437.15
877.3776	1337.9996	22263.95	21352.45
877.5217	1339.8714	22172.95	21259.45
877.6658	1341.7426	22184.05	21227.35
877.8099	1343.6129	22102.55	21188.05
877.954	1345.4826	22083.05	21166.8
878.0981	1347.3515	22098.55	21180.7
878.2422	1349.2196	22019.85	21105.85
878.3862	1351.087	22028.7	21115.5
878.5303	1352.9537	22018.1	21104.55
878.6743	1354.8197	22077.85	21163.55
878.8184	1356.6849	22148.15	21235.65
878.9624	1358.5493	22199.85	21284.7
879.1064	1360.4131	22294.95	21381.2
879.2504	1362.276	22344.1	21431.15
879.3944	1364.1383	22316.1	21403.5
879.5384	1365.9998	22185.85	21268.15
879.6823	1367.8606	21925.2	21011.45
879.8263	1369.7206	21712.1	20798
879.9702	1371.5799	21456.7	20540.7
880.1142	1373.4384	21197.6	20280.9
880.2581	1375.2962	21071.8	20154.45
880.402	1377.1533	20790.45	19876.45
880.5459	1379.0096	20460.4	19550.95
880.6898	1380.8652	20230.7	19319.3
880.8337	1382.7201	20001.1	19089.1
880.9776	1384.5742	19794.8	18881.05
881.1215	1386.4275	19600.1	18686.35
881.2653	1388.2802	19439.65	18524.75
881.4092	1390.132	19320.75	18406.9
881.553	1391.9832	19244.65	18330.5
881.6968	1393.8336	19126.9	18214.15
881.8406	1395.6832	19074	18159.7
881.9844	1397.5322	18990.4	18076.45
882.1282	1399.3803	18914.05	17995.4
882.272	1401.2278	18796.9	17884.7
882.4158	1403.0745	18779.95	17869.05
882.5595	1404.9204	18649.5	17738.6
882.7033	1406.7656	18641.9	17729.05
882.847	1408.6101	18570.55	17657
882.9908	1410.4538	18546.4	17634.1
883.1345	1412.2968	18517.15	17604.35
883.2782	1414.139	18537.6	17624.9
883.4219	1415.9805	18532.1	17620.1
883.5656	1417.8213	18489.65	17557.4
883.7092	1419.6613	18538.95	17628.1
883.8529	1421.5006	18572.1	17658.35
883.9965	1423.3391	18623.45	17711.2
884.1402	1425.1769	18764.5	17851.45
884.2838	1427.0139	19003.25	18090.3
884.4274	1428.8502	19294.75	18380.65
884.571	1430.6858	19586.4	18673.5
884.7146	1432.5206	19797.7	18883.75
884.8582	1434.3547	19902.65	18991.1
885.0018	1436.188	19859.3	18948.2
885.1453	1438.0206	19803.85	18893.4
885.2889	1439.8524	19627.5	18717.45
885.4324	1441.6835	19563.95	18653.45
885.5759	1443.5139	19501.15	18585.7
885.7194	1445.3435	19379.6	18464.6
885.8629	1447.1724	19346.95	18436.3
886.0064	1449.0005	19273.8	18363.55
886.1499	1450.8279	19266.8	18356.35
886.2933	1452.6545	19166.45	18254.05
886.4368	1454.4804	19170.5	18258.8
886.5802	1456.3056	19142.25	18226.6
886.7237	1458.13	19094.2	18185.95
886.8671	1459.9536	18980.35	18070.05
887.0105	1461.7766	18780.85	17869.3
887.1539	1463.5987	18555.25	17641.4
887.2972	1465.4202	18300.75	17387.4
887.4406	1467.2409	18081.5	17171.05
887.584	1469.0608	17910.5	17001
887.7273	1470.88	17721.25	16810.05
887.8706	1472.6984	17565.75	16656.7
888.0139	1474.5161	17378.15	16466.25
888.1572	1476.3331	17221.85	16308.45
888.3005	1478.1493	17117.4	16207.3
888.4438	1479.9648	17084.65	16178.1
888.5871	1481.7795	17010.15	16098
888.7303	1483.5935	16976.8	16065.65
888.8736	1485.4067	16889.15	15977.65
889.0168	1487.2192	16839.35	15930.7
889.16	1489.031	16834.6	15921.05
889.3032	1490.842	16780.8	15872.75
889.4464	1492.6522	16749.9	15838.3
889.5896	1494.4618	16679.95	15769.05
889.7327	1496.2705	16629.55	15722.45
889.8759	1498.0785	16581.9	15670.45
890.019	1499.8858	16507.6	15597.4
890.1622	1501.6924	16469.9	15559.25
890.3053	1503.4981	16425.75	15515.75
890.4484	1505.3032	16406.5	15495.45
890.5914	1507.1075	16334.5	15425.4
890.7345	1508.911	16262.15	15353.65
890.8776	1510.7138	16262.55	15353.35
891.0206	1512.5159	16156.15	15246.55
891.1637	1514.3172	16085.45	15177.2
891.3067	1516.1178	15984.2	15076.8
891.4497	1517.9176	15954.8	15043.45
891.5927	1519.7166	15952.95	15043.7
891.7357	1521.515	15867.35	14953.95
891.8786	1523.3126	15856.4	14947.9
892.0216	1525.1094	15791.3	14882.7
892.1645	1526.9055	15730.25	14822.85
892.3074	1528.7008	15670.1	14761.35
892.4503	1530.4954	15574.3	14659.55
892.5932	1532.2893	15531.45	14624.5
892.7361	1534.0824	15460.3	14550.3
892.879	1535.8747	15479.65	14573.15
893.0218	1537.6663	15423.75	14518.2
893.1647	1539.4572	15353.5	14448.55
893.3075	1541.2473	15353.2	14446.3
893.4503	1543.0367	15306.35	14401.85
893.5931	1544.8253	15253.7	14343.1
893.7359	1546.6132	15250.95	14340.2
893.8787	1548.4003	15231.95	14315.35
894.0214	1550.1867	15219.35	14306.3
894.1642	1551.9723	15215.95	14309.35
894.3069	1553.7572	15270.45	14362.7
894.4496	1555.5414	15308.35	14401.7
894.5923	1557.3247	15363.05	14458.55
894.735	1559.1074	15405	14505.2
894.8777	1560.8893	15477.6	14575.95
895.0204	1562.6705	15558.5	14655.3
895.163	1564.4509	15612.45	14707.05
895.3056	1566.2305	15635.9	14736.55
895.4482	1568.0094	15672.6	14772.65
895.5908	1569.7876	15645.95	14746.15
895.7334	1571.565	15618.7	14714.15
895.876	1573.3417	15623.15	14720.45
896.0186	1575.1176	15547.55	14644.7
896.1611	1576.8928	15532.55	14630.9
896.3036	1578.6672	15504.45	14608.95
896.4461	1580.4409	15462.05	14564.3
896.5886	1582.2138	15479.05	14576.1
896.7311	1583.986	15459.2	14558.4
896.8736	1585.7575	15486.4	14586.85
897.0161	1587.5282	15493.05	14596.65
897.1585	1589.2981	15565.25	14669.85
897.3009	1591.0673	15618.45	14721.25
897.4433	1592.8358	15639.85	14742.05
897.5857	1594.6035	15659.65	14759
897.7281	1596.3704	15649.35	14748.65
897.8705	1598.1366	15667.85	14766.7
898.0128	1599.9021	15693.55	14795.5
898.1551	1601.6668	15703.1	14803.8
898.2975	1603.4308	15765.95	14866.5
898.4398	1605.194	15796.75	14890.85
898.5821	1606.9564	15878.8	14984.1
898.7243	1608.7182	16013.4	15118.4
898.8666	1610.4791	16195.1	15302.1
899.0088	1612.2394	16354.9	15461.45
899.1511	1613.9988	16514.9	15620.85
899.2933	1615.7576	16721.5	15827.15
899.4355	1617.5156	16844	15940.35
899.5776	1619.2728	16913.4	16012.65
899.7198	1621.0293	16818.45	15920.85
899.862	1622.785	16630.85	15733.45
900.0041	1624.54	16350.95	15456.95
900.1462	1626.2942	16110.5	15213.85
900.2883	1628.0477	15770.2	14872.95
900.4304	1629.8005	15500.35	14601.15
900.5725	1631.5525	15249.8	14354.55
900.7145	1633.3037	15039.5	14142.2
900.8566	1635.0542	14874.75	13981.6
900.9986	1636.804	14709.8	13815.45
901.1406	1638.553	14660.55	13693.25
901.2826	1640.3013	14518.9	13624.25
901.4245	1642.0488	14437.45	13540.05
901.5665	1643.7955	14436.8	13543.1
901.7085	1645.5416	14400.55	13505.3
901.8504	1647.2868	14451.1	13553.8
901.9923	1649.0313	14417.9	13523.3
902.1342	1650.7751	14521.1	13623.1
902.2761	1652.5181	14558.25	13666.55
902.4179	1654.2604	14602.45	13707.25
902.5598	1656.0019	14715.4	13821.7
902.7016	1657.7427	14844.25	13948.5
902.8434	1659.4828	14970.15	14073.1
902.9852	1661.222	15052.55	14154.25
903.127	1662.9606	15026.55	14132.55
903.2687	1664.6984	14889.8	13994
903.4105	1666.4354	14650.3	13751.25
903.5522	1668.1717	14305.2	13408.9
903.6939	1669.9072	13913.95	13016.8
903.8356	1671.642	13599.25	12700.15
903.9773	1673.3761	13349.25	12453.2
904.119	1675.1094	13136.85	12240.2
904.2606	1676.8419	12951.9	12056.85
904.4022	1678.5737	12784.15	11888
904.5439	1680.3048	12668.45	11772.6
904.6855	1682.0351	12538.65	11643.55
904.827	1683.7646	12465.4	11566.65
904.9686	1685.4934	12405.7	11509.05
905.1101	1687.2215	12316.7	11419.75
905.2517	1688.9488	12207.8	11315.15
905.3932	1690.6754	12149.15	11254.75
905.5347	1692.4012	12090.7	11196.45
905.6761	1694.1263	12053.6	11157.7
905.8176	1695.8506	12010	11116.25
905.9591	1697.5742	11960.2	11065.25
906.1005	1699.297	11936.8	11043.85
906.2419	1701.0191	11841.95	10948.7
906.3833	1702.7404	11776.95	10886.1
906.5246	1704.461	11704.2	10809.95
906.666	1706.1808	11653.9	10758.4
906.8073	1707.8999	11609.7	10714.8
906.9487	1709.6182	11555.15	10661.9
907.09	1711.3358	11552.2	10663.25
907.2313	1713.0527	11500.75	10610.65
907.3725	1714.7688	11446.75	10550
907.5138	1716.4841	11399.05	10504.35
907.655	1718.1987	11389.1	10492.2
907.7962	1719.9126	11352.3	10461.05
907.9374	1721.6257	11288.55	10395.85
908.0786	1723.338	11310.25	10420.15
908.2198	1725.0496	11241.3	10348.85
908.3609	1726.7605	11211.65	10318.9
908.502	1728.4706	11180.8	10288.55
908.6431	1730.18	11085.25	10191.1
908.7842	1731.8886	11098.8	10208.25
908.9253	1733.5964	11075.45	10178.2
909.0664	1735.3036	11012.15	10117.9
909.2074	1737.0099	10981.8	10089.05
909.3484	1738.7156	10985.5	10094.1
909.4894	1740.4204	10906.85	10012.85
909.6304	1742.1246	10895.75	10001.15
909.7714	1743.8279	10854.8	9963.65
909.9123	1745.5306	10864.15	9973.15
910.0532	1747.2325	10816.85	9924.9
910.1941	1748.9336	10781.85	9892.55
910.335	1750.634	10729.85	9838.9
910.4759	1752.3336	10699.15	9807.35
910.6168	1754.0325	10700.5	9809.6
910.7576	1755.7307	10669.2	9778.8
910.8984	1757.4281	10680	9786.55
911.0392	1759.1247	10637.15	9736.95
911.18	1760.8206	10656	9757
911.3208	1762.5158	10621.1	9724.45
911.4615	1764.2102	10554.65	9662.4
911.6022	1765.9039	10519.8	9628.65
911.7429	1767.5968	10499.8	9610.9
911.8836	1769.289	10474.95	9583.1
912.0243	1770.9804	10464.3	9572.35
912.1649	1772.6711	10443.35	9548.95
912.3056	1774.361	10417.45	9526.05
912.4462	1776.0502	10382.2	9487.95
912.5868	1777.7386	10373.9	9479.85
912.7274	1779.4263	10324.85	9433.9
912.8679	1781.1132	10319.75	9429.2
913.0084	1782.7994	10314.25	9424.7
913.149	1784.4849	10260.45	9372.6
913.2895	1786.1696	10258.8	9361.6
913.4299	1787.8535	10234.65	9345.65
913.5704	1789.5367	10207.45	9318.15
913.7108	1791.2192	10186.05	9297.6
913.8513	1792.9009	10160.5	9245.9
913.9917	1794.5818	10106.05	9214.1
914.132	1796.2621	10105.15	9213.85
914.2724	1797.9415	10065.8	9172.4
914.4128	1799.6202	10046.85	9155.15
914.5531	1801.2982	10030.85	9140.5
914.6934	1802.9755	10030.9	9138.3
914.8337	1804.6519	10005.35	9116.2
914.9739	1806.3277	9947.4	9057.8
915.1142	1808.0027	9904.2	9015.4
915.2544	1809.6769	9908.7	9018.95
915.3946	1811.3504	9895.8	9004.7
915.5348	1813.0231	9873.8	8983.05
915.675	1814.6951	9864.95	8975.65
915.8151	1816.3664	9866.25	8974
915.9553	1818.0369	9817.6	8925.75
916.0954	1819.7067	9800.6	8910.45
916.2355	1821.3757	9757.9	8864.75
916.3755	1823.044	9740.5	8847.6
916.5156	1824.7115	9729.4	8837.2
916.6556	1826.3783	9680.45	8790.2
916.7956	1828.0443	9695.1	8806.7
916.9356	1829.7096	9653.75	8762.35
917.0756	1831.3741	9647.3	8753.25
917.2155	1833.0379	9642.95	8751.5
917.3555	1834.701	9586.4	8694.45
917.4954	1836.3633	9591.05	8700.85
917.6353	1838.0248	9570.6	8679.15
917.7751	1839.6856	9533.8	8643.8
917.915	1841.3457	9547.35	8657
918.0548	1843.005	9499.5	8609.25
918.1946	1844.6636	9498.65	8609.45
918.3344	1846.3214	9482.7	8592.3
918.4742	1847.9785	9461.8	8572.5
918.6139	1849.6349	9445.05	8552.55
918.7537	1851.2904	9415.2	8514.6
918.8934	1852.9453	9409.35	8517
919.0331	1854.5994	9388.35	8493.3
919.1727	1856.2528	9386.7	8490.95
919.3124	1857.9054	9345.45	8453.35
919.452	1859.5572	9352.25	8463.35
919.5916	1861.2083	9323.05	8433.45
919.7312	1862.8587	9309.1	8418.4
919.8708	1864.5084	9316.15	8424.75
920.0103	1866.1572	9247.65	8354.85
920.1498	1867.8054	9224.85	8332.55
920.2893	1869.4528	9221.8	8333
920.4288	1871.0994	9186.1	8295.55
920.5683	1872.7453	9209.85	8317.8
920.7077	1874.3905	9155.7	8257.6
920.8471	1876.0349	9114.5	8222.3
920.9865	1877.6786	9114.5	8223.4
921.1259	1879.3215	9112.5	8222.4
921.2653	1880.9637	9088.55	8197.45
921.4046	1882.6051	9071.9	8181.3
921.5439	1884.2458	9064.8	8172.85
921.6832	1885.8858	9028.6	8138.8
921.8225	1887.525	8995	8102.9
921.9617	1889.1634	8959.75	8069.4
922.101	1890.8011	8955.2	8063.5
922.2402	1892.4381	8916	8026
922.3794	1894.0743	8950.9	8060.6
922.5185	1895.7098	8893.25	8003.65
922.6577	1897.3446	8896.05	8003.1
922.7968	1898.9786	8863.85	7969.2
922.9359	1900.6118	8845.6	7956.05
923.075	1902.2443	8829.25	7937.6
923.214	1903.8761	8792.2	7903.4
923.3531	1905.5071	8730.05	7841.35
923.4921	1907.1374	8726.9	7835.9
923.6311	1908.7669	8726.05	7835.2
923.77	1910.3957	8705.5	7814.1
923.909	1912.0237	8655.25	7766
924.0479	1913.651	8652.9	7760.9
924.1868	1915.2776	8625.8	7738.6
924.3257	1916.9034	8600.75	7713.25
924.4646	1918.5285	8546.25	7657.25
924.6034	1920.1528	8537.8	7646.55
924.7422	1921.7764	8540.95	7652.5
924.881	1923.3992	8485.6	7597.85
925.0198	1925.0213	8447.2	7554.55
925.1586	1926.6427	8421.1	7531.45
925.2973	1928.2633	8440.1	7481.2
925.436	1929.8832	8392.55	7502.2
925.5747	1931.5023	8351.6	7461.4
925.7134	1933.1207	8360.05	7470.95
925.852	1934.7383	8311.55	7420.4
925.9906	1936.3552	8283.1	7393.45
926.1292	1937.9714	8283.75	7394.5
926.2678	1939.5868	8246.6	7353.75
926.4064	1941.2015	8218.65	7329.85
926.5449	1942.8154	8191.5	7299.8
926.6834	1944.4286	8139.55	7247.3
926.8219	1946.041	8130.2	7215.95
926.9604	1947.6528	8090.55	7196.1
927.0988	1949.2637	8086.05	7197.1
927.2372	1950.8739	8021	7131.4
927.3756	1952.4834	7994.55	7104
927.514	1954.0921	8008.85	7118.85
927.6523	1955.7001	7990.45	7097.65
927.7907	1957.3074	7989.85	7101.2
927.929	1958.9139	7925.6	7038.3
928.0673	1960.5197	7930.9	7040.8
928.2055	1962.1247	7878.3	6989.6
928.3438	1963.729	7862.3	6975.05
928.482	1965.3325	7850.1	6938.75
928.6202	1966.9353	7803.8	6917
928.7584	1968.5374	7780.2	6890.55
928.8965	1970.1387	7758.95	6869.35
929.0346	1971.7393	7738.75	6849.35
929.1727	1973.3392	7702.45	6814.75
929.3108	1974.9383	7690	6803.2
929.4489	1976.5366	7639.05	6751.2
929.5869	1978.1342	7644.7	6757.35
929.7249	1979.7311	7617.1	6728.9
929.8629	1981.3273	7604.6	6718.15
930.0009	1982.9227	7588.4	6701.3
930.1388	1984.5173	7564.8	6678.6
930.2767	1986.1112	7531.95	6643.65
930.4146	1987.7044	7516.8	6631
930.5525	1989.2968	7511.75	6621.15
930.6904	1990.8885	7499.7	6608.85
930.8282	1992.4795	7471.9	6582.65
930.966	1994.0697	7444.8	6556.3
931.1038	1995.6592	7436.05	6551.75
931.2415	1997.2479	7395.65	6508.65
931.3793	1998.8359	7371.05	6483.95
931.517	2000.4232	7344.15	6458.75
931.6547	2002.0097	7337.85	6453.15
931.7923	2003.5955	7306.1	6418.65
931.93	2005.1805	7308.15	6420.65
932.0676	2006.7648	7286.05	6400.2
932.2052	2008.3484	7262.6	6375.35
932.3427	2009.9312	7270.1	6384.4
932.4803	2011.5133	7234.35	6350.3
932.6178	2013.0946	7235.1	6349.1
932.7553	2014.6752	7206.95	6322.8
932.8928	2016.2551	7180.75	6293.9
933.0302	2017.8342	7155.45	6269.15
933.1676	2019.4126	7139.9	6255.35
933.305	2020.9902	7109.4	6224.3
933.4424	2022.5672	7118.45	6233.3
933.5798	2024.1433	7087.95	6197.05
933.7171	2025.7188	7058.4	6175.5
933.8544	2027.2935	7042.4	6157.55
933.9917	2028.8674	7021.15	6137.1
934.129	2030.4406	6998.7	6114.25
934.2662	2032.0131	6972.2	6089.85
934.4034	2033.5849	6952.35	6062.95
934.5406	2035.1559	6913.8	6029.5
934.6778	2036.7261	6946.4	6060.1
934.8149	2038.2957	6919.85	6032.6
934.952	2039.8645	6904.75	6019.05
935.0891	2041.4325	6908.1	6019.8
935.2262	2042.9998	6871.75	5987.8
935.3632	2044.5664	6859.9	5972.55
935.5002	2046.1323	6830.85	5946.45
935.6372	2047.6974	6823.6	5939.2
935.7742	2049.2617	6795.65	5910.05
935.9111	2050.8254	6793.55	5903.85
936.048	2052.3883	6797.2	5908.2
936.1849	2053.9504	6764.5	5877.4
936.3218	2055.5118	6732.4	5845.4
936.4586	2057.0725	6713.8	5822.25
936.5955	2058.6325	6709.65	5825.4
936.7323	2060.1917	6670.25	5785.6
936.869	2061.7502	6667.7	5781.1
937.0058	2063.3079	6668.75	5786.1
937.1425	2064.8649	6637.3	5749.15
937.2792	2066.4212	6630.25	5742.85
937.4159	2067.9767	6590.65	5703.8
937.5525	2069.5315	6581.5	5695.9
937.6891	2071.0856	6560.45	5674.9
937.8257	2072.6389	6532.9	5647.65
937.9623	2074.1915	6503.65	5620.5
938.0989	2075.7433	6466.7	5579.35
938.2354	2077.2945	6473.15	5588.85
938.3719	2078.8448	6444.25	5560.25
938.5084	2080.3945	6444.3	5557.5
938.6448	2081.9434	6431.4	5544.95
938.7812	2083.4916	6392.4	5504.75
938.9176	2085.039	6387.15	5497.55
939.054	2086.5857	6396.65	5505.7
939.1903	2088.1317	6386.85	5497.2
939.3267	2089.677	6371.7	5481.75
939.463	2091.2215	6351.7	5464.85
939.5992	2092.7652	6325.85	5434.4
939.7355	2094.3083	6299.5	5409.7
939.8717	2095.8506	6295.45	5408.5
940.0079	2097.3921	6291.9	5404.85
940.1441	2098.933	6276.9	5390.6
940.2802	2100.4731	6269.15	5381.6
940.4163	2102.0124	6271.2	5375.65
940.5524	2103.5511	6237.4	5349.65
940.6885	2105.089	6230.15	5341.15
940.8245	2106.6261	6220.9	5333.65
940.9606	2108.1626	6202.85	5315.05
941.0965	2109.6983	6218.2	5299.95
941.2325	2111.2332	6192.15	5302.15
941.3684	2112.7675	6166.95	5279.7
941.5044	2114.301	6133.5	5244.55
941.6403	2115.8337	6142.95	5254.05
941.7761	2117.3657	6120.05	5232.65
941.912	2118.897	6118.7	5231.2
942.0478	2120.4276	6095.2	5200.4
942.1835	2121.9575	6068.2	5177.55
942.3193	2123.4866	6076.4	5184.7
942.455	2125.0149	6042	5152.35
942.5907	2126.5426	6011.85	5127.4
942.7264	2128.0695	6009.5	5120.25
942.8621	2129.5956	5978	5094.55
942.9977	2131.1211	5970.4	5079.35
943.1333	2132.6458	5970.15	5082.75
943.2689	2134.1698	5994.7	5105.1
943.4044	2135.693	5937	5045.75
943.54	2137.2155	5924.5	5033.45
943.6755	2138.7373	5908.95	5021.85
943.8109	2140.2584	5890.15	5003.2
943.9464	2141.7787	5870.25	4979.75
944.0818	2143.2983	5850.65	4966.85
944.2172	2144.8171	5821.3	4936.6
944.3526	2146.3353	5823.1	4936
944.4879	2147.8527	5813.75	4926.4
944.6232	2149.3693	5795.35	4907.45
944.7585	2150.8853	5779.5	4890.75
944.8938	2152.4005	5767.8	4878.65
945.029	2153.9149	5750.65	4862.2
945.1642	2155.4287	5820.85	4823.25
945.2994	2156.9417	5759.1	4870.1
945.4346	2158.454	5717.1	4829.45
945.5697	2159.9655	5702.6	4818.15
945.7048	2161.4764	5705.9	4818.6
945.8399	2162.9865	5657.65	4768.75
945.9749	2164.4958	5657.2	4769.9
946.1099	2166.0045	5637.05	4748.25
946.2449	2167.5124	5646.85	4759.05
946.3799	2169.0195	5616.45	4727.35
946.5148	2170.526	5629.2	4743.5
946.6498	2172.0317	5606.95	4718.05
946.7846	2173.5367	5600.5	4712
946.9195	2175.0409	5574.6	4687.5
947.0543	2176.5445	5585.4	4697.4
947.1891	2178.0473	5574.5	4684.85
947.3239	2179.5494	5514.3	4621.15
947.4587	2181.0507	5510.2	4621.15
947.5934	2182.5513	5511.15	4621.1
947.7281	2184.0512	5484.2	4594.35
947.8628	2185.5504	5457.05	4569.95
947.9974	2187.0488	5435.8	4549.6
948.132	2188.5465	5415.65	4529.8
948.2666	2190.0435	5404.65	4515.6
948.4012	2191.5397	5410.35	4521
948.5357	2193.0353	5378.7	4491.4
948.6702	2194.5301	5362.9	4471.3
948.8047	2196.0241	5357.1	4467
948.9392	2197.5175	5347.85	4458.25
949.0736	2199.0101	5326.7	4432.6
949.208	2200.502	5295.85	4407.55
949.3424	2201.9931	5274.05	4385.1
949.4767	2203.4835	5277.9	4389.05
949.611	2204.9733	5270.75	4366.55
949.7453	2206.4622	5259.1	4372
949.8796	2207.9505	5224.05	4335.05
950.0138	2209.438	5200.95	4316.35
950.148	2210.9248	5189.35	4302.2
950.2822	2212.4109	5178.95	4292.6
950.4164	2213.8962	5166.85	4274.5
950.5505	2215.3809	5155.7	4264.4
950.6846	2216.8648	5153.85	4264.55
950.8186	2218.3479	5138.95	4244.9
950.9527	2219.8304	5116.65	4224.55
951.0867	2221.3121	5114.55	4220.25
951.2207	2222.7931	5091.55	4200.95
951.3546	2224.2733	5073.55	4185.05
951.4886	2225.7529	5055.2	4166.4
951.6225	2227.2317	5033.2	4140.5
951.7563	2228.7098	5027.65	4142.75
951.8902	2230.1872	5014.55	4127.4
952.024	2231.6638	5005.55	4117.1
952.1578	2233.1397	4972.65	4083.8
952.2916	2234.6149	4973.2	4085.5
952.4253	2236.0894	4954.85	4068.7
952.559	2237.5632	4954.5	4066.45
952.6927	2239.0362	4935.75	4047.8
952.8263	2240.5085	4932.45	4044.8
952.9599	2241.9801	4887.2	3997.95
953.0935	2243.4509	4899.65	4010.45
953.2271	2244.921	4884.55	3995.75
953.3606	2246.3904	4878.8	3987.55
953.4941	2247.8591	4860.35	3970.6
953.6276	2249.3271	4844.55	3955.1
953.7611	2250.7943	4820.45	3930.65
953.8945	2252.2608	4811.55	3922.3
954.0279	2253.7266	4797.8	3910.3
954.1612	2255.1917	4782.15	3893.95
954.2946	2256.656	4761.1	3872.65
954.4279	2258.1197	4756.95	3869
954.5612	2259.5826	4738.75	3849.25
954.6944	2261.0447	4740.15	3850.3
954.8276	2262.5062	4736.25	3844.6
954.9608	2263.9669	4703.8	3813.15
955.094	2265.4269	4725.95	3837.2
955.2271	2266.8862	4702.2	3815.2
955.3602	2268.3448	4678.8	3790.9
955.4933	2269.8026	4676.1	3787.5
955.6264	2271.2598	4672.2	3785.55
955.7594	2272.7162	4661.75	3774.3
955.8924	2274.1719	4651.1	3761.8
956.0253	2275.6268	4632.4	3742.9
956.1583	2277.0811	4630.55	3741.4
956.2912	2278.5346	4617.6	3729.9
956.4241	2279.9874	4613	3725.2
956.5569	2281.4395	4601.1	3714.95
956.6897	2282.8908	4568.3	3677.65
956.8225	2284.3414	4576.75	3688.45
956.9553	2285.7914	4555.75	3667.55
957.088	2287.2406	4543.6	3651.4
957.2207	2288.689	4534.6	3644.6
957.3534	2290.1368	4516.1	3623.9
957.486	2291.5838	4526.45	3634.2
957.6186	2293.0302	4520.3	3628.65
957.7512	2294.4758	4488.75	3596.75
957.8838	2295.9206	4470.25	3580.55
958.0163	2297.3648	4452.1	3561.9
958.1488	2298.8082	4466.55	3577.4
958.2813	2300.251	4454.25	3563.8
958.4137	2301.693	4446.95	3556.35
958.5461	2303.1343	4435.9	3544.6
958.6785	2304.5748	4417.2	3528.65
958.8108	2306.0147	4407.5	3517.45
958.9432	2307.4538	4386.1	3496.75
959.0754	2308.8922	4378.8	3493.45
959.2077	2310.3299	4376.3	3489.4
959.3399	2311.7669	4356.4	3468.2
959.4721	2313.2031	4356.95	3468.3
959.6043	2314.6387	4333.2	3444.35
959.7365	2316.0735	4325.3	3435.3
959.8686	2317.5076	4310.35	3420.85
960.0006	2318.941	4301.55	3410.4
960.1327	2320.3737	4282.1	3392.65
960.2647	2321.8056	4284	3393.85
960.3967	2323.2369	4262.25	3372.85
960.5287	2324.6674	4265.45	3375.8
960.6606	2326.0972	4253.7	3364
960.7925	2327.5263	4238.2	3348.9
960.9244	2328.9547	4247.3	3357.9
961.0562	2330.3823	4222.05	3330.8
961.1881	2331.8092	4228	3333.55
961.3198	2333.2355	4210.9	3321.95
961.4516	2334.661	4201.65	3311.85
961.5833	2336.0858	4187.45	3296.4
961.715	2337.5098	4176.2	3285.25
961.8467	2338.9332	4169.7	3277.8
961.9783	2340.3558	4151.3	3259.25
962.1099	2341.7778	4135.35	3248.2
962.2415	2343.199	4122.75	3231.15
962.373	2344.6195	4115.5	3227.95
962.5045	2346.0393	4107.2	3220.35
962.636	2347.4583	4114.75	3224.25
962.7675	2348.8767	4089.6	3199.6
962.8989	2350.2943	4075.7	3183.95
963.0303	2351.7113	4076.2	3184.2
963.1617	2353.1275	4085.3	3192.55
963.293	2354.543	4077.8	3160
963.4243	2355.9578	4050.35	3159.6
963.5556	2357.3718	4018.3	3129.1
963.6868	2358.7852	4021.3	3132.6
963.818	2360.1978	4013	3123.8
963.9492	2361.6098	4002.2	3113.95
964.0803	2363.021	3985.35	3090.25
964.2114	2364.4315	3963.45	3073.8
964.3425	2365.8413	3955.4	3063.15
964.4736	2367.2504	3945.6	3057.8
964.6046	2368.6587	3934.5	3047.1
964.7356	2370.0664	3917.4	3029.3
964.8666	2371.4733	3913.3	3022.8
964.9975	2372.8795	3915.5	3026.8
965.1284	2374.285	3892.8	3003.35
965.2593	2375.6899	3885.55	2996
965.3901	2377.0939	3855.65	2965.75
965.5209	2378.4973	3849.75	2962.05
965.6517	2379.9	3848.1	2958.25
965.7825	2381.3019	3829.6	2941.75
965.9132	2382.7032	3815.7	2928.55
966.0439	2384.1037	3821.4	2936.85
966.1745	2385.5035	3798.4	2910.5
966.3051	2386.9027	3785.6	2897.4
966.4357	2388.3011	3786.2	2895.75
966.5663	2389.6987	3780.5	2892.75
966.6968	2391.0957	3751.3	2864.7
966.8273	2392.492	3756.9	2868.8
966.9578	2393.8876	3745.2	2856.35
967.0882	2395.2824	3729.8	2841.2
967.2186	2396.6765	3724.1	2837.2
967.349	2398.07	3717	2829.05
967.4793	2399.4627	3713.45	2822.7
967.6097	2400.8547	3700.7	2811.95
967.7399	2402.246	3693	2797.05
967.8702	2403.6366	3671.45	2782
968.0004	2405.0265	3657	2767.6
968.1306	2406.4156	3655.95	2764.45
968.2607	2407.8041	3638.25	2745.7
968.3909	2409.1918	3626.2	2737.7
968.521	2410.5789	3605.65	2717.9
968.651	2411.9652	3606.15	2714.95
968.781	2413.3508	3593.05	2706.1
968.911	2414.7358	3583.25	2693.05
969.041	2416.12	3586.2	2697
969.1709	2417.5035	3570.15	2681.9
969.3008	2418.8863	3553.6	2662
969.4307	2420.2684	3556.25	2666.45
969.5606	2421.6497	3533.85	2644.65
969.6904	2423.0304	3518.8	2631.35
969.8201	2424.4104	3503.65	2613.4
969.9499	2425.7896	3500.85	2610.15
970.0796	2427.1682	3492.35	2604.45
970.2093	2428.546	3490.5	2600.7
970.3389	2429.9232	3484.1	2594.75
970.4685	2431.2996	3477.3	2588.65
970.5981	2432.6753	3445.05	2554.5
970.7277	2434.0503	3466.85	2577
970.8572	2435.4246	3441.3	2552.3
970.9867	2436.7982	3435.5	2543.4
971.1161	2438.1711	3428.7	2541.35
971.2456	2439.5433	3424.25	2533.45
971.375	2440.9148	3416.05	2523.7
971.5043	2442.2856	3394.85	2506.15
971.6336	2443.6557	3387.65	2498.4
971.7629	2445.025	3384.5	2495.5
971.8922	2446.3937	3380.95	2490.1
972.0214	2447.7617	3367.1	2477.5
972.1506	2449.1289	3355.7	2466.9
972.2798	2450.4955	3340.7	2447.85
972.4089	2451.8613	3349.15	2462.25
972.538	2453.2265	3341.9	2451.65
972.6671	2454.5909	3324	2434.35
972.7961	2455.9546	3310.3	2421.8
972.9251	2457.3177	3305.45	2415.8
973.0541	2458.68	3317.65	2427.8
973.1831	2460.0416	3305.15	2416.1
973.312	2461.4025	3301.15	2408.8
973.4408	2462.7627	3288.7	2390.35
973.5697	2464.1222	3284.1	2397.3
973.6985	2465.4811	3275.35	2386.45
973.8273	2466.8392	3263.7	2375.4
973.956	2468.1966	3253.95	2362.8
974.0847	2469.5533	3255.55	2363.3
974.2134	2470.9093	3261.8	2372.7
974.3421	2472.2645	3254.35	2367
974.4707	2473.6191	3226.8	2338.5
974.5993	2474.973	3227.2	2338.45
974.7278	2476.3262	3215.25	2327
974.8563	2477.6787	3203.65	2315.15
974.9848	2479.0305	3183	2293.95
975.1132	2480.3816	3189.55	2297.2
975.2417	2481.7319	3170.3	2281.8
975.37	2483.0816	3161.3	2270.95
975.4984	2484.4306	3150.55	2260.9
975.6267	2485.7789	3143.3	2254.5
975.755	2487.1264	3139.85	2250.65
975.8833	2488.4733	3133.5	2246.05
976.0115	2489.8195	3136	2230.7
976.1397	2491.165	3125.75	2231.75
976.2678	2492.5097	3109.6	2220.25
976.3959	2493.8538	3104.8	2217
976.524	2495.1972	3080.75	2193.5
976.6521	2496.5398	3091.65	2201.95
976.7801	2497.8818	3074	2180.05
976.9081	2499.2231	3068.4	2178.8
977.036	2500.5637	3072.7	2179.15
977.164	2501.9035	3057.55	2167.7
977.2918	2503.2427	3053	2160.65
977.4197	2504.5812	3044.55	2154.9
977.5475	2505.919	3030.5	2142
977.6753	2507.256	3020.6	2132.2
977.8031	2508.5924	3017.45	2127
977.9308	2509.9281	3020.1	2124.1
978.0585	2511.2631	3005.85	2116.8
978.1861	2512.5974	2987.1	2100.8
978.3137	2513.9309	2989.7	2101.6
978.4413	2515.2638	2992.2	2076.25
978.5689	2516.596	2964.55	2077.65
978.6964	2517.9275	2958.45	2068.35
978.8239	2519.2583	2952.75	2061.7
978.9513	2520.5884	2946.6	2055.25
979.0788	2521.9178	2941.1	2051.8
979.2062	2523.2465	2931.8	2044.55
979.3335	2524.5745	2929.7	2040.4
979.4608	2525.9018	2915.45	2027.4
979.5881	2527.2284	2905.5	2018.45
979.7154	2528.5543	2902	2014.4
979.8426	2529.8796	2908.85	2019.25
979.9698	2531.2041	2903.75	2016.3
980.0969	2532.5279	2889.05	2000.95
980.224	2533.851	2890.3	2002.4
980.3511	2535.1735	2879.2	1989.9
980.4781	2536.4952	2878.8	1989
980.6052	2537.8163	2864.4	1972.85
980.7321	2539.1366	2846.5	1958.3
980.8591	2540.4562	2860.65	1969.2
980.986	2541.7752	2853	1963.9
981.1129	2543.0935	2850.75	1961.6
981.2397	2544.411	2849.85	1961.25
981.3665	2545.7279	2838.85	1949.85
981.4933	2547.0441	2838.7	1951
981.62	2548.3596	2829.45	1937.15
981.7467	2549.6744	2829.7	1941.9
981.8734	2550.9885	2831.35	1941.1
982.0001	2552.3019	2821.9	1933.75
982.1267	2553.6146	2812.45	1919.75
982.2532	2554.9266	2803.5	1913.3
982.3798	2556.2379	2792.2	1903.05
982.5063	2557.5485	2791.7	1904.85
982.6327	2558.8585	2791.15	1895.4
982.7592	2560.1677	2784.25	1891.45
982.8856	2561.4762	2780.75	1888.95
983.0119	2562.7841	2775.35	1884.85
983.1383	2564.0913	2769.95	1884.4
983.2646	2565.3977	2771.3	1881.9
983.3908	2566.7035	2751.9	1864.25
983.517	2568.0086	2750.55	1859.55
983.6432	2569.313	2748	1858.4
983.7694	2570.6167	2756.9	1864.05
983.8955	2571.9197	2743.2	1852
984.0216	2573.222	2748.1	1856.2
984.1476	2574.5236	2736.5	1846.45
984.2737	2575.8246	2731.55	1840.45
984.3996	2577.1248	2717.65	1824.05
984.5256	2578.4244	2715.45	1827.75
984.6515	2579.7232	2723.75	1833.2
984.7774	2581.0214	2730.75	1810.8
984.9032	2582.3189	2704.2	1816.2
985.029	2583.6157	2714.45	1821.05
985.1548	2584.9118	2695.65	1807.8
985.2806	2586.2072	2701.85	1813.95
985.4063	2587.5019	2680.25	1792.05
985.5319	2588.7959	2685.25	1795.55
985.6576	2590.0893	2683.35	1795.55
985.7832	2591.3819	2668.25	1781.25
985.9087	2592.6739	2670.95	1782.8
986.0343	2593.9652	2666.1	1773.85
986.1597	2595.2557	2668.35	1779.25
986.2852	2596.5456	2658.6	1768.35
986.4106	2597.8348	2649.8	1761.1
986.536	2599.1234	2647.9	1759.05
986.6614	2600.4112	2637.55	1748.5
986.7867	2601.6983	2639.35	1748.45
986.912	2602.9848	2625.6	1738.25
987.0372	2604.2705	2618.05	1722.25
987.1624	2605.5556	2615.9	1726.65
987.2876	2606.84	2602.65	1715.4
987.4128	2608.1237	2606.4	1718.4
987.5379	2609.4067	2590.2	1701.95
987.6629	2610.689	2583.75	1684.4
987.788	2611.9707	2574.1	1681.8
987.913	2613.2516	2571.15	1677.7
988.0379	2614.5319	2563.9	1675.4
988.1629	2615.8115	2553.05	1664.8
988.2878	2617.0903	2551.7	1662.05
988.4126	2618.3685	2542.1	1653.85
988.5375	2619.6461	2547.6	1659.4
988.6622	2620.9229	2523.15	1634.7
988.787	2622.199	2532.9	1643.8
988.9117	2623.4745	2532.35	1644.25
989.0364	2624.7493	2516.55	1628.5
989.161	2626.0234	2512.1	1625.65
989.2857	2627.2968	2505.1	1616.85
989.4102	2628.5695	2505.05	1614.7
989.5348	2629.8415	2481.35	1593.6
989.6593	2631.1128	2488	1599.55
989.7837	2632.3835	2465.65	1577.45
989.9082	2633.6535	2467.45	1580.6
990.0326	2634.9228	2451.95	1564.35
990.1569	2636.1914	2461.15	1572.85
990.2812	2637.4593	2460.55	1573.95
990.4055	2638.7265	2457.6	1568.25
990.5298	2639.9931	2437.45	1548.1
990.654	2641.259	2442.85	1554.85
990.7782	2642.5242	2444.9	1556.65
990.9023	2643.7887	2429.75	1540.5
991.0264	2645.0525	2432.05	1545
991.1505	2646.3156	2432	1528.4
991.2745	2647.5781	2411.75	1524.6
991.3985	2648.8398	2404.1	1517.2
991.5225	2650.1009	2410.9	1500.5
991.6464	2651.3613	2401.15	1513.6
991.7703	2652.6211	2395.95	1509.55
991.8942	2653.8801	2381.05	1493.95
992.018	2655.1385	2383.8	1494.65
992.1418	2656.3961	2376.15	1488.15
992.2655	2657.6531	2382.65	1496.7
992.3892	2658.9094	2377.45	1489.85
992.5129	2660.1651	2369.85	1482.3
992.6366	2661.42	2372.15	1485.1
992.7602	2662.6743	2361.7	1473.55
992.8837	2663.9279	2355.75	1468.2
993.0073	2665.1808	2356.05	1466.35
993.1307	2666.433	2356.4	1466.1
993.2542	2667.6846	2347.2	1460.6
993.3776	2668.9354	2354	1464.05
993.501	2670.1856	2344.65	1456.45
993.6244	2671.4351	2346.85	1462.15
993.7477	2672.6839	2335.85	1447.45
993.8709	2673.9321	2328.55	1440.7
993.9942	2675.1795	2324.4	1436.7
994.1174	2676.4263	2322.5	1433.45
994.2405	2677.6724	2330.1	1442.55
994.3637	2678.9179	2329.9	1441.35
994.4868	2680.1626	2314.05	1428.6
994.6098	2681.4067	2316.1	1427.75
994.7328	2682.6501	2309.6	1423.55
994.8558	2683.8928	2306.05	1418.5
994.9788	2685.1348	2300.5	1413.3
995.1017	2686.3761	2287.15	1401.95
995.2245	2687.6168	2276.85	1390.1
995.3474	2688.8568	2281.5	1393.3
995.4702	2690.0961	2273	1387.2
995.5929	2691.3348	2273.05	1384.95
995.7156	2692.5727	2266.05	1377
995.8383	2693.81	2259.4	1370.7
995.961	2695.0466	2247.95	1363.2
996.0836	2696.2826	2250.65	1361.15
996.2062	2697.5178	2250.3	1363.05
996.3287	2698.7524	2249.7	1361.7
996.4512	2699.9863	2242.7	1352.4
996.5737	2701.2195	2229.95	1344.2
996.6961	2702.452	2246.6	1357.85
996.8185	2703.6839	2231.55	1343.35
996.9408	2704.9151	2233.8	1346.1
997.0631	2706.1456	2237.8	1349.85
997.1854	2707.3755	2233.3	1345.1
997.3077	2708.6046	2232.85	1345.2
997.4299	2709.8331	2232.45	1344.85
997.552	2711.0609	2224.05	1334.45
997.6742	2712.2881	2213.95	1326.35
997.7963	2713.5145	2233.2	1343.4
997.9183	2714.7403	2226.75	1339.5
998.0403	2715.9654	2222.45	1334.45
998.1623	2717.1899	2249.45	1347.65
998.2842	2718.4136	2236.25	1347.75
998.4062	2719.6367	2235.35	1348.35
998.528	2720.8591	2242.35	1350.1
998.6498	2722.0809	2232.1	1342.05
998.7716	2723.3019	2239.8	1349.2
998.8934	2724.5223	2243.05	1353.8
999.0151	2725.7421	2235.15	1347.45
999.1368	2726.9611	2239.8	1351.05
999.2584	2728.1795	2239.15	1348.25
999.38	2729.3972	2221.45	1333.8
999.5016	2730.6142	2210.4	1315.4
999.6231	2731.8306	2198.75	1310.5
999.7446	2733.0462	2195.6	1308.15
999.8661	2734.2612	2190.65	1299.3
999.9875	2735.4756	2166.3	1277.9
1000.1089	2736.6892	2145.65	1257.95
1000.2302	2737.9022	2125.6	1240.15
1000.3515	2739.1145	2126.15	1236.85
1000.4728	2740.3262	2127.45	1232.95
1000.594	2741.5372	2107.7	1219.9
1000.7152	2742.7475	2089.55	1201.2
1000.8363	2743.9571	2096.35	1207
1000.9575	2745.1661	2085.1	1194.1
1001.0785	2746.3744	2077.15	1189.55
1001.1996	2747.582	2060.7	1174.05
1001.3206	2748.7889	2054.5	1166.25
1001.4415	2749.9952	2042.9	1155.15
1001.5625	2751.2008	2049.9	1162.7
1001.6833	2752.4057	2046.9	1158.65
1001.8042	2753.61	2030.5	1141.5
1001.925	2754.8136	2030	1141.7
1002.0458	2756.0165	2028.35	1141.55
1002.1665	2757.2188	2016.1	1130.65
1002.2872	2758.4204	2006.3	1118.55
1002.4078	2759.6213	2006.25	1117.2
1002.5285	2760.8215	2010.35	1119.6
1002.649	2762.0211	2003.2	1115.15
1002.7696	2763.22	2007.7	1118.55
1002.8901	2764.4182	2005.6	1118.05
1003.0106	2765.6158	1987.7	1099.85
1003.131	2766.8127	1986.75	1100.8
1003.2514	2768.009	1976.4	1089
1003.3717	2769.2045	1973.4	1086
1003.492	2770.3994	1970.15	1081.6
1003.6123	2771.5936	1965.8	1078.55
1003.7325	2772.7872	1965.05	1080.25
1003.8527	2773.9801	1955.7	1064.35
1003.9729	2775.1723	1974.4	1071.35
1004.093	2776.3639	1945.7	1058.35
1004.2131	2777.5548	1953.3	1066.05
1004.3331	2778.745	1943.85	1058.4
1004.4531	2779.9346	1941	1054.55
1004.5731	2781.1235	1937.6	1050.55
1004.693	2782.3117	1934.25	1049.1
1004.8129	2783.4992	1939.2	1053.55
1004.9328	2784.6861	1935.25	1051.65
1005.0526	2785.8723	1924.1	1036.15
1005.1723	2787.0579	1919.95	1032.25
1005.2921	2788.2428	1924.75	1036
1005.4118	2789.427	1923.45	1037.5
1005.5314	2790.6106	1922.2	1036.3
1005.651	2791.7935	1930.45	1043.4
1005.7706	2792.9757	1915.5	1031.6
1005.8902	2794.1573	1935.6	1047.05
1006.0097	2795.3382	1920.05	1034.2
1006.1291	2796.5184	1927.9	1043.1
1006.2485	2797.698	1935.1	1045.85
1006.3679	2798.8769	1931.95	1045.2
1006.4873	2800.0551	1939.5	1052.5
1006.6066	2801.2327	1946.85	1057.5
1006.7258	2802.4096	1941.05	1055.35
1006.8451	2803.5859	1960.45	1073.9
1006.9642	2804.7615	1958.3	1072.8
1007.0834	2805.9364	1967.9	1082.65
1007.2025	2807.1106	1969.85	1084.35
1007.3216	2808.2842	1975.05	1088
1007.4406	2809.4572	1994.3	1108.4
1007.5596	2810.6294	2013.9	1126.15
1007.6785	2811.801	2033.45	1149
1007.7975	2812.972	2049.35	1163.5
1007.9163	2814.1423	2075.2	1189.2
1008.0352	2815.3119	2087.4	1199.35
1008.154	2816.4808	2115.55	1230.55
1008.2727	2817.6491	2147.8	1261.3
1008.3914	2818.8167	2162.1	1276.95
1008.5101	2819.9837	2204.75	1313.85
1008.6288	2821.15	2229.35	1342.3
1008.7474	2822.3157	2253.75	1367
1008.8659	2823.4807	2297.45	1412.65
1008.9844	2824.645	2325.05	1439.85
1009.1029	2825.8086	2361.1	1475.2
1009.2214	2826.9716	2388.7	1504.35
1009.3398	2828.134	2417.4	1530.05
1009.4581	2829.2957	2453.4	1568.8
1009.5764	2830.4567	2459.15	1573.3
1009.6947	2831.617	2469.65	1583.35
1009.813	2832.7767	2485.9	1599.75
1009.9312	2833.9358	2482.3	1598.65
1010.0493	2835.0941	2470.05	1579.5
1010.1675	2836.2519	2465.75	1580.65
1010.2855	2837.4089	2451.95	1567.35
1010.4036	2838.5653	2429.65	1545.7
1010.5216	2839.7211	2419.95	1534.55
1010.6396	2840.8761	2419.3	1531.45
1010.7575	2842.0306	2426.15	1541.3
1010.8754	2843.1843	2428.25	1544.45
1010.9932	2844.3374	2450.15	1563.7
1011.111	2845.4899	2477	1591.15
1011.2288	2846.6417	2488.2	1602.95
1011.3465	2847.7928	2527.65	1642.4
1011.4642	2848.9433	2572.05	1686.2
1011.5818	2850.0931	2590.2	1705.15
1011.6995	2851.2422	2632.6	1745.55
1011.817	2852.3907	2659.25	1774.15
1011.9345	2853.5385	2690.2	1804.25
1012.052	2854.6857	2720.75	1827.2
1012.1695	2855.8323	2739.5	1854.9
1012.2869	2856.9781	2766.05	1881.5
1012.4042	2858.1233	2797.65	1914.15
1012.5216	2859.2679	2826.25	1939.6
1012.6389	2860.4118	2846.3	1960.45
1012.7561	2861.555	2894.4	2005.2
1012.8733	2862.6976	2899.15	2012.55
1012.9905	2863.8395	2901.6	2017.65
1013.1076	2864.9808	2940	2056.3
1013.2247	2866.1214	2927.6	2042.75
1013.3417	2867.2614	2945.25	2059.7
1013.4587	2868.4007	2959.4	2072.9
1013.5757	2869.5393	2966.25	2077.65
1013.6926	2870.6773	2974.7	2086.5
1013.8095	2871.8146	2975.2	2086.25
1013.9263	2872.9513	2966.2	2077.95
1014.0431	2874.0874	2968.25	2084.25
1014.1599	2875.2227	2963.2	2079.35
1014.2766	2876.3574	2950.5	2062.75
1014.3933	2877.4915	2924.4	2038.8
1014.51	2878.6249	2895.85	2010.95
1014.6266	2879.7577	2893.7	2006.4
1014.7431	2880.8898	2889.1	1992.65
1014.8596	2882.0212	2873.15	1989.05
1014.9761	2883.152	2869.4	1982.85
1015.0925	2884.2821	2835.35	1952.45
1015.2089	2885.4116	2851.45	1968.55
1015.3253	2886.5405	2846.7	1960.95
1015.4416	2887.6686	2858.25	1967.8
1015.5579	2888.7962	2835.6	1953.5
1015.6741	2889.923	2840	1957.75
1015.7903	2891.0493	2852.65	1966.65
1015.9065	2892.1748	2849.55	1964.45
1016.0226	2893.2997	2868.55	1982.9
1016.1387	2894.424	2856.65	1973.85
1016.2547	2895.5476	2876.9	1991.55
1016.3707	2896.6706	2885.3	2000.85
1016.4866	2897.7929	2875.55	1990.1
1016.6025	2898.9145	2905.45	2018.3
1016.7184	2900.0355	2926	2039.8
1016.8342	2901.1559	2917.35	2030.6
1016.95	2902.2756	2949.85	2062.6
1017.0658	2903.3946	2955.85	2069.5
1017.1815	2904.513	2969.75	2080.4
1017.2971	2905.6308	2982.05	2094.85
1017.4127	2906.7479	2993.5	2109.6
1017.5283	2907.8643	3007.55	2121.45
1017.6439	2908.9801	3000.15	2116.15
1017.7594	2910.0953	3005.25	2122.05
1017.8748	2911.2098	2998.4	2110.5
1017.9902	2912.3236	2984.5	2091.6
1018.1056	2913.4368	2980.75	2091.75
1018.2209	2914.5494	2966.35	2080.45
1018.3362	2915.6613	2962.5	2070.7
1018.4515	2916.7725	2941	2053.55
1018.5667	2917.8831	2911.15	2026.45
1018.6819	2918.9931	2888.45	2000.9
1018.797	2920.1024	2882.4	1995.9
1018.9121	2921.211	2860.85	1976.45
1019.0271	2922.319	2847.35	1960.9
1019.1421	2923.4264	2833.55	1948.8
1019.2571	2924.5331	2834.2	1949.6
1019.372	2925.6391	2827	1942.25
1019.4869	2926.7445	2828.05	1944.55
1019.6017	2927.8493	2818.35	1932.05
1019.7165	2928.9534	2828.3	1942.65
1019.8313	2930.0569	2826.15	1938.55
1019.946	2931.1597	2831.95	1945.95
1020.0606	2932.2619	2820.5	1936.5
1020.1753	2933.3634	2820.55	1934.8
1020.2899	2934.4643	2842.95	1951.55
1020.4044	2935.5645	2829.45	1936.95
1020.5189	2936.6641	2817.7	1927.95
1020.6334	2937.763	2793.6	1910.3
1020.7478	2938.8613	2774.25	1886.8
1020.8622	2939.959	2746.3	1856.7
1020.9765	2941.056	2702.9	1819.6
1021.0908	2942.1523	2668.45	1782.2
1021.2051	2943.248	2614.75	1729.55
1021.3193	2944.3431	2569.35	1685.4
1021.4334	2945.4375	2512.95	1628.2
1021.5476	2946.5313	2455	1573.1
1021.6617	2947.6244	2387	1501.05
1021.7757	2948.7169	2331.55	1445.8
1021.8897	2949.8087	2281.05	1397.2
1022.0037	2950.8999	2228.85	1343.65
1022.1176	2951.9904	2179	1294.6
1022.2315	2953.0803	2130.7	1244.05
1022.3453	2954.1696	2084.75	1201.5
1022.4591	2955.2582	2063.25	1180.3
1022.5728	2956.3462	2032.7	1146.65
1022.6865	2957.4335	2007.6	1123
1022.8002	2958.5202	1985	1096.4
1022.9138	2959.6062	1964	1080.9
1023.0274	2960.6916	1950.6	1066.95
1023.141	2961.7764	1942.45	1057.1
1023.2545	2962.8605	1938.4	1053.2
1023.3679	2963.9439	1921	1037.15
1023.4813	2965.0267	1909.35	1022.9
1023.5947	2966.1089	1929.55	1020.5
1023.708	2967.1905	1903.6	1019.05
1023.8213	2968.2714	1903.85	1021
1023.9346	2969.3516	1902.8	1018.35
1024.0478	2970.4312	1902.65	1009.9
1024.1609	2971.5102	1899.2	1015.85
1024.274	2972.5885	1897.25	1014.05
1024.3871	2973.6662	1914.25	1023.45
1024.5002	2974.7432	1898.95	1014.55
1024.6132	2975.8196	1901.8	1016.1
1024.7261	2976.8954	1894.2	1010.65
1024.839	2977.9705	1883.45	998.7
1024.9519	2979.045	1874.25	991.8
1025.0647	2980.1188	1866.15	982.3
1025.1775	2981.192	1854.5	970.45
1025.2902	2982.2645	1837.55	952.5
1025.4029	2983.3364	1835.3	949.25
1025.5156	2984.4077	1814.45	930.45
1025.6282	2985.4783	1811.9	921.35
1025.7407	2986.5483	1788.6	905.2
1025.8532	2987.6177	1761.2	877.8
1025.9657	2988.6864	1736.6	852.55
1026.0782	2989.7545	1724	839.45
1026.1906	2990.8219	1696.55	813.7
1026.3029	2991.8887	1670.6	783.75
1026.4152	2992.9548	1651.6	768.3
1026.5275	2994.0204	1629.4	744.8
1026.6397	2995.0852	1611.5	728.1
1026.7519	2996.1495	1601.25	715.3
1026.864	2997.2131	1574.45	690.3
1026.9761	2998.276	1566.85	683.3
1027.0882	2999.3383	1553.85	667.6
1027.2002	3000.4	1544.9	657.85
1027.3122	3001.4611	1526.05	642.45
1027.4241	3002.5215	1510.35	626.95
1027.536	3003.5812	1499.2	615
1027.6478	3004.6404	1496.25	610.6
1027.7596	3005.6989	1485.4	599.9
1027.8714	3006.7567	1480.35	596.85
1027.9831	3007.8139	1487.05	580.7
1028.0947	3008.8705	1460.8	574.7
1028.2064	3009.9264	1477.65	576.55
1028.3179	3010.9818	1455	569.7
1028.4295	3012.0364	1444.6	559.95
1028.541	3013.0905	1433.35	549.65
1028.6524	3014.1439	1433.15	546.4
1028.7638	3015.1966	1424.9	540.6
1028.8752	3016.2487	1431.15	546.6
1028.9865	3017.3002	1426.7	537.95
1029.0978	3018.3511	1414.75	532.8
1029.209	3019.4013	1418.4	533.3
1029.3202	3020.4509	1412	527.9
1029.4314	3021.4998	1411.7	527.15
1029.5425	3022.5481	1409.55	524.7
1029.6535	3023.5958	1408.7	525.75
1029.7645	3024.6428	1410.5	524.7
1029.8755	3025.6892	1402.1	520.3
1029.9864	3026.735	1394.05	511.1
1030.0973	3027.7802	1403.7	518.3
1030.2082	3028.8247	1392.55	508.3
1030.319	3029.8685	1391.9	507.5
1030.4297	3030.9118	1398.75	513.45
1030.5404	3031.9544	1396.3	511.2
1030.6511	3032.9963	1396.1	512.45
1030.7617	3034.0376	1387.6	503.35
1030.8723	3035.0783	1397.95	512.65
1030.9829	3036.1184	1394.9	511.2
1031.0934	3037.1578	1397.65	514.9
1031.2038	3038.1966	1397.2	513.3
1031.3142	3039.2348	1393.45	510.15
1031.4246	3040.2723	1402.95	510.1
1031.5349	3041.3092	1388.75	504.65
1031.6452	3042.3455	1390.2	506.35
1031.7554	3043.3811	1383.4	498
1031.8656	3044.4161	1387.4	501.25
1031.9758	3045.4505	1387	501.95
1032.0859	3046.4842	1388.35	504.3
1032.1959	3047.5173	1381.5	497.75
1032.3059	3048.5498	1377.45	493.5
1032.4159	3049.5816	1374.4	492.1
1032.5258	3050.6128	1377.15	490.9
1032.6357	3051.6434	1369.55	486.05
1032.7455	3052.6734	1362.5	477.3
1032.8553	3053.7027	1362.05	477.55
1032.9651	3054.7314	1360.5	478.35
1033.0748	3055.7594	1360.25	478
1033.1845	3056.7868	1361.45	476.45
1033.2941	3057.8136	1349.2	465.65
1033.4037	3058.8398	1348.5	466.75
1033.5132	3059.8653	1344.85	460.85
1033.6227	3060.8902	1345.2	461.1
1033.7321	3061.9145	1342.9	457.25
1033.8415	3062.9381	1340.65	456.1
1033.9509	3063.9612	1348.95	449.5
1034.0602	3064.9835	1337	451.55
1034.1694	3066.0053	1333.7	447.6
1034.2787	3067.0264	1335.3	449.85
1034.3878	3068.0469	1330.5	446.2
1034.497	3069.0668	1328.4	441.25
1034.6061	3070.086	1317.7	435.1
1034.7151	3071.1046	1322.8	436.55
1034.8241	3072.1226	1313.9	428.9
1034.9331	3073.1399	1310.1	426.8
1035.042	3074.1567	1306.95	423.9
1035.1508	3075.1727	1300.7	412.85
1035.2597	3076.1882	1290.7	406.55
1035.3684	3077.203	1288.15	402.15
1035.4772	3078.2173	1286.5	402.35
1035.5859	3079.2308	1283	395.5
1035.6945	3080.2438	1271.6	383.6
1035.8031	3081.2561	1272.25	388.35
1035.9117	3082.2678	1266.2	383.05
1036.0202	3083.2789	1260.6	378.55
1036.1286	3084.2893	1252.55	369.9
1036.2371	3085.2991	1254.15	370.35
1036.3454	3086.3083	1254.3	364.5
1036.4538	3087.3169	1244.2	358.8
1036.562	3088.3248	1242.85	357.85
1036.6703	3089.3321	1238.65	353.1
1036.7785	3090.3388	1236.75	354.6
1036.8866	3091.3449	1228.9	343.9
1036.9948	3092.3503	1229.35	343.65
1037.1028	3093.3551	1222.75	338.6
1037.2108	3094.3593	1228.7	345
1037.3188	3095.3629	1213.85	330.2
1037.4267	3096.3658	1217.4	334
1037.5346	3097.3681	1212.8	330.55
1037.6425	3098.3698	1210.65	325.8
1037.7503	3099.3708	1211.6	322.85
1037.858	3100.3713	1205.3	321.9
1037.9657	3101.3711	1203.7	318.05
1038.0734	3102.3702	1334.65	313.55
1038.181	3103.3688	1205.95	318.9
1038.2886	3104.3667	1197.25	313.35
1038.3961	3105.364	1188.6	307.5
1038.5036	3106.3607	1193.85	309.4
1038.611	3107.3568	1192.05	307.15
1038.7184	3108.3522	1185.3	303.4
1038.8257	3109.347	1185.95	300.75
1038.933	3110.3412	1187.75	299.8
1039.0403	3111.3348	1177.35	293
1039.1475	3112.3277	1173.45	288.2
1039.2547	3113.32	1176.85	294.1
1039.3618	3114.3117	1170.75	286.6
1039.4689	3115.3028	1175.05	294.35
1039.5759	3116.2932	1163.85	278.05
1039.6829	3117.2831	1175.65	286.85
1039.7898	3118.2723	1166	281.45
1039.8967	3119.2608	1165.65	283.2
1040.0035	3120.2488	1164.1	279
1040.1103	3121.2361	1161.8	276.25
1040.2171	3122.2229	1156.65	273.9
1040.3238	3123.209	1154.45	269.7
1040.4305	3124.1944	1156.55	273.55
1040.5371	3125.1793	1153.7	268.2
1040.6437	3126.1635	1151.45	268.85
1040.7502	3127.1471	1151.1	268.75
1040.8567	3128.1301	1145.95	263.65
1040.9631	3129.1125	1142.75	261.05
1041.0695	3130.0942	1144.95	260.45
1041.1759	3131.0753	1154.05	262.1
1041.2822	3132.0558	1144.7	257.4
1041.3884	3133.0357	1139.45	255.1
1041.4946	3134.015	1139	254.75
1041.6008	3134.9936	1137.3	252.65
1041.7069	3135.9716	1150.5	247.25
1041.813	3136.949	1136.4	252
1041.919	3137.9258	1151	247.9
1042.025	3138.902	1138	249.25
1042.1309	3139.8775	1130.4	246.3
1042.2368	3140.8524	1125.75	241.85
1042.3427	3141.8267	1129.65	245.6
1042.4485	3142.8004	1127.2	243.35
1042.5542	3143.7735	1129.4	239.8
1042.6599	3144.7459	1129.35	242.95
1042.7656	3145.7178	1124.25	238.4
1042.8712	3146.689	1121.5	239.05
1042.9768	3147.6596	1119.85	232.8
1043.0823	3148.6295	1116.55	234.2
1043.1878	3149.5989	1122.3	237.3
1043.2932	3150.5676	1111.4	230.05
1043.3986	3151.5357	1115.7	231.95
1043.5039	3152.5032	1112.15	228.25
1043.6092	3153.4701	1107.35	225.25
1043.7145	3154.4364	1112.15	226
1043.8197	3155.402	1103.4	220.25
1043.9248	3156.367	1108.2	221
1044.03	3157.3315	1126.05	217.85
1044.135	3158.2952	1102.95	218.3
1044.24	3159.2584	1104.25	221.4
1044.345	3160.221	1102.85	217.1
1044.4499	3161.1829	1098.55	215.9
1044.5548	3162.1442	1097.85	214.6
1044.6596	3163.105	1096.85	213.45
1044.7644	3164.065	1101.3	218.3
1044.8692	3165.0245	1100	213.25
1044.9739	3165.9834	1093.3	212.15
1045.0785	3166.9416	1090.45	209.2
1045.1831	3167.8993	1087.95	202.8
1045.2877	3168.8563	1094.55	209.85
1045.3922	3169.8127	1085	202.4
1045.4966	3170.7684	1081.1	197.25
1045.6011	3171.7236	1089.6	205.9
1045.7054	3172.6782	1086.5	202.6
1045.8098	3173.6321	1090.4	205.55
1045.914	3174.5854	1088.2	201.1
1046.0183	3175.5381	1082	198.6
1046.1224	3176.4902	1084.75	204.7
1046.2266	3177.4417	1077.55	194.75
1046.3307	3178.3926	1077.55	194.55
1046.4347	3179.3428	1078.4	196.7
1046.5387	3180.2924	1073.5	190.45
1046.6427	3181.2415	1078.95	195.35
1046.7466	3182.1899	1081.3	199.25
1046.8504	3183.1377	1070.2	187.3
1046.9542	3184.0848	1077.15	190.6
1047.058	3185.0314	1070.45	185.15
1047.1617	3185.9773	1071.85	189.25
1047.2654	3186.9227	1074.55	189.65
1047.369	3187.8674	1069.5	185.95
1047.4726	3188.8115	1072.5	188
1047.5761	3189.755	1066.15	184
1047.6796	3190.6979	1062.9	179.2
1047.783	3191.6402	1062.85	180.95
1047.8864	3192.5818	1063.6	180.4
1047.9898	3193.5229	1065.85	176.45
1048.0931	3194.4633	1063.15	179.3
1048.1963	3195.4031	1058.8	174.8
1048.2995	3196.3423	1059.8	176.35
1048.4027	3197.2809	1061.15	177.5
1048.5058	3198.2189	1057.75	172.7
1048.6089	3199.1563	1064.3	173.55
1048.7119	3200.0931	1057.65	173.95
1048.8148	3201.0292	1052.25	172.05
1048.9178	3201.9648	1054.4	173.25
1049.0206	3202.8997	1055.9	170.4
1049.1235	3203.834	1052.65	169.55
1049.2262	3204.7677	1053.35	169.45
1049.329	3205.7008	1048.1	164
1049.4317	3206.6333	1047	164.45
1049.5343	3207.5652	1051.15	166.5
1049.6369	3208.4964	1051.7	167.8
1049.7394	3209.4271	1043.8	162.95
1049.8419	3210.3571	1043.8	160.8
1049.9444	3211.2865	1046.8	163.85
1050.0468	3212.2154	1044	161.15
1050.1491	3213.1436	1049.55	164.45
1050.2514	3214.0712	1051.75	162.4
1050.3537	3214.9982	1041.6	159.1
1050.4559	3215.9246	1040.7	156
1050.5581	3216.8503	1039.7	157.55
1050.6602	3217.7755	1041.65	159.2
1050.7623	3218.7001	1041.15	157.3
1050.8643	3219.624	1036.45	153.95
1050.9663	3220.5473	1037.65	154.3
1051.0682	3221.4701	1038.15	153.8
1051.1701	3222.3922	1043.1	156.5
1051.2719	3223.3137	1035.15	149.75
1051.3737	3224.2346	1031.15	145.2
1051.4754	3225.1549	1033.7	152.05
1051.5771	3226.0746	1030.45	148.55
1051.6788	3226.9937	1032	147.65
1051.7804	3227.9121	1029	147.2
1051.8819	3228.83	1030.05	148.15
1051.9834	3229.7473	1033.45	149.25
1052.0849	3230.6639	1026.9	143.45
1052.1863	3231.5799	1024.95	142
1052.2876	3232.4954	1026.35	143.1
1052.3889	3233.4102	1023.8	140.1
1052.4902	3234.3244	1022.8	138.6
1052.5914	3235.238	1025.15	143.15
1052.6926	3236.151	1051.6	142.75
1052.7937	3237.0634	1020.2	137.05
1052.8948	3237.9752	1022.05	138.95
1052.9958	3238.8864	1018.9	133.25
1053.0968	3239.797	1019.55	136.75
1053.1977	3240.7069	1016.05	133
1053.2986	3241.6163	1018.95	135.05
1053.3994	3242.5251	1014.45	133.2
1053.5002	3243.4332	1013.85	131.45
1053.6009	3244.3408	1016.15	130.8
1053.7016	3245.2477	1015.3	133.05
1053.8022	3246.154	1017.15	130.9
1053.9028	3247.0598	1012	129.5
1054.0034	3247.9649	1010.1	127.5
1054.1039	3248.8694	1010.4	127.45
1054.2043	3249.7733	1008.35	125.6
1054.3047	3250.6766	1012.6	130.1
1054.4051	3251.5793	1011.95	127.85
1054.5054	3252.4814	1007.15	123.7
1054.6056	3253.3829	1005.4	122
1054.7058	3254.2838	1006.55	124.5
1054.806	3255.1841	1007.6	126.45
1054.9061	3256.0838	1004.85	121.7
1055.0061	3256.9829	1003.25	121.4
1055.1062	3257.8814	1003.5	117.85
1055.2061	3258.7792	1002.4	118.3
1055.306	3259.6765	999.65	115.3
1055.4059	3260.5731	997.2	114.95
1055.5057	3261.4692	1000	116.15
1055.6055	3262.3647	998.35	115.35
1055.7052	3263.2595	995.9	112.45
1055.8049	3264.1538	994.8	112.55
1055.9045	3265.0474	991.15	107.5
1056.0041	3265.9404	986.2	102.5
1056.1036	3266.8329	983.9	102.15
1056.2031	3267.7247	995.7	103.65
1056.3025	3268.616	980.8	96.75
1056.4019	3269.5066	979.45	96.85
1056.5013	3270.3966	981.9	95.9
1056.6005	3271.286	974.2	92
