Software Version:	3.9.2.0
Unit SN:	10000200
Spectrometer SN:	6960
Date:	3/26/2024 1:18:04 PM
Data Line Index:	25
Spectral Points:	2048
Integration time (ms):	125
Averages:	20
Delay (ms):	30000
Sequence Number:	1
Processing:	dark subtract
Laser Power (mW):	305
Laser Current (mA):	819
Laser Diode Temp (C):	25
Laser Case Temp (C):	26.5
System Temp (C):	26.4
Spectrometer Temp (C):	24.1
CCD Temp (C):	0.004
Secondary Temp (C):	20.004
Heatsink Temp (C):	21.886
CCDPCB Temp (C):	35.951
SecondaryPCB Temp (C):	33.039

Wavelength	RamanShift	Raw Counts	Dark Subtracted
787.061	30.1047	428.3	17.75
787.2016	32.3739	428.05	18.6
787.3422	34.6426	431.15	21.05
787.4828	36.9109	434	21
787.6235	39.1787	440	24.5
787.7642	41.4461	445.9	23.2
787.9049	43.7131	448.7	23.55
788.0456	45.9796	454.35	26.4
788.1863	48.2456	459.95	28.15
788.3271	50.5112	464.9	29.15
788.4679	52.7764	469.1	31.3
788.6087	55.0411	474.4	34.35
788.7496	57.3054	482.1	36.9
788.8904	59.5692	485.5	37.45
789.0313	61.8326	493.2	41.65
789.1722	64.0955	498.1	42.35
789.3132	66.3579	510.7	50.15
789.4541	68.6199	518.85	56.15
789.5951	70.8815	530.2	64.15
789.7361	73.1426	556.55	87.9
789.8771	75.4032	618.6	144.1
790.0181	77.6634	754.2	273.55
790.1592	79.9231	1089.8	608.95
790.3003	82.1824	1782.7	1296.7
790.4414	84.4412	3001.35	2510.85
790.5825	86.6995	4684.5	4189.7
790.7237	88.9574	6376	5875.15
790.8648	91.2148	7642.55	7138.4
791.006	93.4717	8330.8	7822.45
791.1472	95.7282	8608.65	8095.5
791.2885	97.9842	8744.35	8231.9
791.4297	100.2398	8762.55	8246.05
791.571	102.4949	8746.7	8227.95
791.7123	104.7495	8729.7	8206.75
791.8536	107.0036	8690.5	8165.85
791.9949	109.2573	8645.8	8122.95
792.1363	111.5105	8613.05	8087.85
792.2777	113.7632	8546.7	8019.1
792.4191	116.0154	8493.3	7957
792.5605	118.2672	8457.3	7926.15
792.7019	120.5185	8381.95	7850.8
792.8434	122.7693	8350.15	7814.95
792.9849	125.0197	8324.85	7788.85
793.1264	127.2696	8272	7731.7
793.2679	129.519	8274.65	7729.4
793.4094	131.7679	8243.45	7697.75
793.551	134.0163	8245.15	7693.25
793.6926	136.2642	8210	7654.6
793.8342	138.5117	8220.55	7657.65
793.9758	140.7587	8178.3	7621.95
794.1175	143.0052	8173.35	7613.65
794.2591	145.2512	8135.05	7572.8
794.4008	147.4967	8097.7	7535.1
794.5425	149.7417	8083.1	7517.6
794.6842	151.9863	8028.7	7459.6
794.826	154.2304	8025.05	7452.35
794.9677	156.4739	7983.05	7405.45
795.1095	158.717	7983.1	7406.15
795.2513	160.9596	7992.6	7410.4
795.3931	163.2017	7985.25	7400.2
795.535	165.4433	7976.25	7390.25
795.6768	167.6844	7977.2	7389.05
795.8187	169.925	7954.85	7361.85
795.9606	172.1651	7894.85	7297.85
796.1025	174.4047	7861	7261.7
796.2445	176.6439	7811.65	7207.6
796.3864	178.8825	7798.95	7194.2
796.5284	181.1206	7782.65	7175.1
796.6704	183.3582	7769.6	7157
796.8124	185.5954	7763.05	7151.55
796.9544	187.832	7753.5	7135.95
797.0965	190.0681	7787.2	7168.65
797.2386	192.3037	7768.15	7144.6
797.3806	194.5388	7767.3	7140
797.5228	196.7734	7763.55	7136.05
797.6649	199.0075	7786.95	7155.1
797.807	201.2411	7807.55	7173.8
797.9492	203.4742	7819.05	7184.2
798.0914	205.7068	7846.4	7211.85
798.2336	207.9389	7830.25	7193.05
798.3758	210.1704	7849	7209.4
798.518	212.4015	7826.65	7183.2
798.6603	214.632	7863.9	7224.2
798.8025	216.862	7839.9	7209.45
798.9448	219.0915	7841.9	7215.25
799.0871	221.3205	7832.85	7205.85
799.2294	223.549	7848.05	7227.85
799.3718	225.777	7838.1	7216.95
799.5141	228.0044	7835.7	7211.5
799.6565	230.2314	7836.05	7213.4
799.7989	232.4578	7806.4	7183.95
799.9413	234.6837	7775.85	7142.45
800.0837	236.909	7773.5	7140.15
800.2262	239.1339	7779.2	7120.2
800.3687	241.3582	7766.45	7123.3
800.5111	243.582	7761.3	7088.3
800.6536	245.8053	7747.9	7085
800.7961	248.0281	7739.95	7084.4
800.9387	250.2503	7751.8	7089.95
801.0812	252.472	7753.95	7086.6
801.2238	254.6932	7768.45	7098.85
801.3664	256.9139	7744.5	7072.35
801.509	259.134	7771.95	7098.6
801.6516	261.3536	7749.3	7075.35
801.7942	263.5727	7773.3	7097.2
801.9369	265.7912	7762.95	7088.45
802.0795	268.0092	7808.85	7134.7
802.2222	270.2267	7845	7167.6
802.3649	272.4436	7845.05	7166.7
802.5076	274.6601	7883.5	7196.15
802.6504	276.8759	7870.1	7189.1
802.7931	279.0913	7907.4	7223.2
802.9359	281.3061	7886.75	7201.8
803.0787	283.5204	7906.5	7220.4
803.2215	285.7341	7897.35	7206.95
803.3643	287.9473	7923.8	7218.75
803.5071	290.16	7905.5	7208.1
803.6499	292.3721	7866.2	7173.15
803.7928	294.5837	7849.35	7154.05
803.9357	296.7947	7821.2	7126.15
804.0786	299.0052	7795.95	7102.5
804.2215	301.2152	7760.15	7062.8
804.3644	303.4246	7746.5	7052.9
804.5074	305.6334	7733.4	7040.45
804.6503	307.8418	7696.5	6997.45
804.7933	310.0495	7681.25	6980.9
804.9363	312.2568	7652.85	6954.2
805.0793	314.4635	7612.25	6911.6
805.2223	316.6696	7556.1	6854.45
805.3653	318.8752	7493.45	6780.45
805.5084	321.0802	7485.55	6780.65
805.6514	323.2847	7453.4	6747.95
805.7945	325.4887	7444.35	6738
805.9376	327.692	7446.6	6740
806.0807	329.8949	7496.6	6788.4
806.2238	332.0972	7490.75	6781
806.367	334.2989	7521.55	6807.4
806.5101	336.5001	7498.7	6783
806.6533	338.7007	7480.45	6764.7
806.7965	340.9008	7463.1	6744.4
806.9397	343.1003	7403.15	6683.15
807.0829	345.2992	7366.45	6646.05
807.2261	347.4976	7334.55	6612.45
807.3693	349.6955	7312.75	6587.7
807.5126	351.8927	7304.45	6578
807.6559	354.0895	7267	6530.8
807.7991	356.2856	7271.35	6540.75
807.9424	358.4812	7239.3	6512.5
808.0857	360.6763	7226.65	6497.35
808.2291	362.8707	7211.75	6481.6
808.3724	365.0646	7240.15	6504
808.5158	367.258	7200.15	6464.45
808.6591	369.4508	7206.95	6467.65
808.8025	371.643	7228.8	6491.7
808.9459	373.8346	7200.15	6458.9
809.0893	376.0257	7227.5	6484.2
809.2327	378.2162	7253.85	6509.45
809.3762	380.4062	7247.2	6499.05
809.5196	382.5956	7220.5	6472.1
809.6631	384.7844	7193.3	6447.35
809.8066	386.9726	7143.65	6394.15
809.9501	389.1603	7085.45	6336.6
810.0936	391.3474	7105.1	6322.15
810.2371	393.5339	7065.2	6313.15
810.3806	395.7199	7026.95	6282.5
810.5241	397.9052	7054.25	6313.1
810.6677	400.09	7053.5	6312.55
810.8113	402.2743	7105.35	6364.4
810.9548	404.4579	7080.8	6338.2
811.0984	406.641	7117.45	6372.85
811.2421	408.8235	7148.45	6404.2
811.3857	411.0054	7197.7	6451.1
811.5293	413.1868	7284.8	6536.35
811.673	415.3675	7367.25	6616.5
811.8166	417.5477	7394.2	6642.35
811.9603	419.7273	7329.2	6574.65
812.104	421.9064	7177.3	6416.95
812.2477	424.0848	7094.4	6335.7
812.3914	426.2627	7034.1	6274.55
812.5351	428.4399	7002	6240.9
812.6788	430.6166	6931.7	6164.35
812.8226	432.7928	6902.45	6134.05
812.9663	434.9683	6849.35	6081.4
813.1101	437.1432	6819.9	6051.2
813.2539	439.3176	6786.1	6017.3
813.3977	441.4914	6755.7	5985.7
813.5415	443.6645	6754.15	5982.1
813.6853	445.8371	6714.9	5943.05
813.8291	448.0091	6701.7	5930.15
813.973	450.1806	6681.45	5910.3
814.1168	452.3514	6677.65	5902.8
814.2607	454.5216	6679.2	5899.75
814.4046	456.6913	6638.75	5861.6
814.5485	458.8603	6631.75	5855.7
814.6924	461.0288	6633.75	5858.8
814.8363	463.1967	6616.65	5839.95
814.9802	465.3639	6632.15	5854.35
815.1241	467.5306	6618.65	5840.85
815.2681	469.6967	6592.05	5811.35
815.412	471.8622	6583.85	5805.15
815.556	474.0271	6583.15	5805.15
815.7	476.1914	6553.05	5770.15
815.844	478.3551	6560.65	5781.6
815.988	480.5182	6536.85	5755.85
816.132	482.6807	6557.15	5774.8
816.276	484.8426	6585.35	5802.75
816.4201	487.0039	6609.65	5827.3
816.5641	489.1647	6631.25	5847.45
816.7082	491.3248	6675.8	5892.95
816.8522	493.4843	6661.85	5878.05
816.9963	495.6432	6666.95	5882
817.1404	497.8015	6639.75	5850.15
817.2845	499.9592	6620.3	5833.75
817.4286	502.1163	6552.85	5764.5
817.5727	504.2728	6520.85	5728.55
817.7168	506.4287	6511.7	5722
817.861	508.5839	6505.75	5717.7
818.0051	510.7386	6481.7	5691.85
818.1493	512.8927	6469.15	5672.65
818.2935	515.0461	6491.3	5700.2
818.4377	517.199	6481.15	5688.85
818.5818	519.3512	6504.85	5713.9
818.726	521.5029	6550.1	5751.3
818.8703	523.6539	6575.8	5782.65
819.0145	525.8043	6590.6	5797.45
819.1587	527.9541	6556.8	5760.7
819.303	530.1033	6507.15	5710.85
819.4472	532.2519	6463.85	5668.65
819.5915	534.3999	6425.1	5626.9
819.7357	536.5472	6427.3	5630.2
819.88	538.694	6421.35	5624.25
820.0243	540.8401	6442.5	5644.4
820.1686	542.9856	6457.7	5657.95
820.3129	545.1305	6460.05	5657.55
820.4572	547.2748	6485.2	5684.55
820.6016	549.4185	6458.75	5655.4
820.7459	551.5615	6452.85	5650.75
820.8902	553.704	6466.35	5663.25
821.0346	555.8458	6458.85	5656.7
821.1789	557.987	6495.3	5692.7
821.3233	560.1276	6496.9	5691.35
821.4677	562.2675	6540.25	5737
821.6121	564.4069	6569.4	5767.4
821.7565	566.5456	6609.05	5806
821.9009	568.6837	6591.85	5787.45
822.0453	570.8212	6524.1	5721.3
822.1897	572.958	6469.9	5664.05
822.3342	575.0942	6441.65	5638.75
822.4786	577.2299	6411.4	5604.3
822.6231	579.3648	6343.4	5537.95
822.7675	581.4992	6344.05	5537.95
822.912	583.6329	6315.2	5509.15
823.0565	585.766	6311.6	5504.3
823.201	587.8985	6327.55	5521.25
823.3454	590.0304	6356.1	5535.85
823.4899	592.1616	6366.45	5553.95
823.6345	594.2922	6349.3	5538.05
823.779	596.4222	6332.15	5521.45
823.9235	598.5515	6284.2	5471.8
824.068	600.6802	6230.5	5420.05
824.2126	602.8083	6198.75	5385.8
824.3571	604.9358	6190.95	5373.35
824.5017	607.0626	6147.55	5332.35
824.6462	609.1888	6156.25	5338.7
824.7908	611.3144	6163.2	5346.65
824.9354	613.4393	6172	5357.15
825.08	615.5636	6213.05	5398
825.2246	617.6873	6245.85	5432
825.3692	619.8103	6296.2	5476.2
825.5138	621.9327	6274.8	5456.85
825.6584	624.0544	6245.8	5428.4
825.803	626.1756	6221.15	5404.95
825.9477	628.2961	6174.5	5355.85
826.0923	630.4159	6140.35	5323.05
826.237	632.5351	6135	5315
826.3816	634.6537	6120.55	5301.4
826.5263	636.7716	6102.2	5279.7
826.6709	638.8889	6107.3	5284.05
826.8156	641.0056	6122.25	5301.4
826.9603	643.1216	6111	5288.85
827.105	645.237	6129	5304.45
827.2497	647.3518	6120.85	5297.2
827.3944	649.4659	6092.5	5269.15
827.5391	651.5793	6083.9	5258.95
827.6838	653.6922	6058.25	5235.8
827.8285	655.8043	6049.05	5224.6
827.9733	657.9159	6029.5	5204.75
828.118	660.0268	6003.25	5176.15
828.2627	662.137	6017.95	5191.45
828.4075	664.2466	6002.7	5174.15
828.5522	666.3556	5996.95	5170.5
828.697	668.4639	5980.3	5149.15
828.8418	670.5716	5969.1	5141.85
828.9865	672.6786	5984.95	5157.8
829.1313	674.785	5954.5	5125.3
829.2761	676.8907	5945.25	5117.85
829.4209	678.9958	5939.85	5113.6
829.5657	681.1002	5933.45	5103.35
829.7105	683.204	5926.85	5094.05
829.8553	685.3072	5930	5100.05
830.0001	687.4097	5908.25	5078.45
830.1449	689.5115	5908.45	5074.4
830.2898	691.6127	5904.85	5073.65
830.4346	693.7132	5891.45	5058.55
830.5794	695.8131	5911.8	5058.1
830.7243	697.9123	5908.15	5076.35
830.8691	700.0109	5900.05	5065.4
831.014	702.1089	5911.25	5079.85
831.1588	704.2061	5902.85	5070.85
831.3037	706.3028	5923.5	5089.45
831.4486	708.3987	5929.4	5096.5
831.5935	710.4941	5929.25	5095.15
831.7383	712.5887	5929.7	5093.2
831.8832	714.6827	5920.2	5082.6
832.0281	716.7761	5917.35	5079.7
832.173	718.8688	5899.2	5062.35
832.3179	720.9608	5909.6	5069.55
832.4628	723.0522	5914.35	5073.5
832.6077	725.1429	5912.35	5075.95
832.7527	727.233	5934.25	5095.85
832.8976	729.3224	5996.95	5158.6
833.0425	731.4112	5999.6	5161.65
833.1874	733.4993	6022.75	5182.45
833.3324	735.5867	5992.75	5151.7
833.4773	737.6735	5937.35	5096.7
833.6222	739.7596	5906.45	5064.1
833.7672	741.845	5855.15	5013.8
833.9122	743.9298	5856.2	5013.55
834.0571	746.014	5859.7	5018
834.2021	748.0974	5870.95	5028.6
834.347	750.1802	5880.25	5040.25
834.492	752.2624	5833.85	4992.75
834.637	754.3439	5809.4	4965.35
834.782	756.4247	5788.7	4938.5
834.9269	758.5048	5746.95	4903.75
835.0719	760.5843	5758.9	4915.15
835.2169	762.6631	5736.05	4892.85
835.3619	764.7413	5757.6	4914.45
835.5069	766.8188	5816.8	4972.9
835.6519	768.8956	5851.05	5004.3
835.7969	770.9718	5878.15	5034.4
835.9419	773.0473	5848.5	5005.5
836.0869	775.1221	5837.4	4993.35
836.232	777.1962	5819.95	4974.95
836.377	779.2697	5848.15	5003.55
836.522	781.3426	5888.35	5023.65
836.667	783.4147	5939.5	5093.25
836.8121	785.4862	5943.95	5098.5
836.9571	787.557	5872.9	5027.05
837.1021	789.6271	5772.5	4924.9
837.2472	791.6966	5688.4	4839.75
837.3922	793.7654	5612.6	4762.05
837.5373	795.8335	5573.5	4727.5
837.6823	797.901	5532.05	4685.95
837.8274	799.9678	5512.3	4664.5
837.9724	802.0339	5521.15	4674.3
838.1175	804.0993	5522.6	4663.95
838.2626	806.1641	5490.7	4640.5
838.4076	808.2282	5482.8	4633.8
838.5527	810.2916	5453.95	4604.35
838.6978	812.3544	5435.6	4585.9
838.8428	814.4164	5433.5	4588.1
838.9879	816.4778	5428.05	4576.95
839.133	818.5385	5421.25	4571.6
839.2781	820.5986	5434.35	4586.1
839.4232	822.658	5468.3	4617
839.5682	824.7166	5487.85	4637.35
839.7133	826.7747	5570.15	4720.6
839.8584	828.832	5603.9	4754
840.0035	830.8886	5609.6	4757.6
840.1486	832.9446	5630.35	4778.45
840.2937	834.9999	5598.1	4748.9
840.4388	837.0545	5534.9	4680.9
840.5839	839.1085	5469.6	4617.7
840.729	841.1618	5438.95	4584.7
840.8741	843.2143	5393.45	4541.95
841.0192	845.2662	5346.25	4495.25
841.1643	847.3175	5334.6	4483.6
841.3095	849.368	5293.3	4443.15
841.4546	851.4179	5291.9	4440.55
841.5997	853.467	5280.6	4428.65
841.7448	855.5155	5272.05	4417.1
841.8899	857.5633	5266.3	4414.4
842.0351	859.6105	5239.65	4385.9
842.1802	861.6569	5235.35	4381.8
842.3253	863.7027	5234.2	4379.4
842.4704	865.7478	5214.4	4359.55
842.6156	867.7922	5188.55	4335.05
842.7607	869.8359	5178.4	4323.95
842.9058	871.8789	5167.9	4313.2
843.0509	873.9212	5198.2	4313.15
843.1961	875.9629	5158.3	4302.65
843.3412	878.0039	5160.6	4303.25
843.4863	880.0441	5171.9	4316.6
843.6315	882.0837	5164.15	4306.95
843.7766	884.1226	5183.1	4324.95
843.9218	886.1609	5170.25	4315.55
844.0669	888.1984	5207.05	4352.15
844.212	890.2352	5249.1	4395.4
844.3572	892.2714	5247.75	4388.2
844.5023	894.3069	5235.2	4376.5
844.6475	896.3416	5173	4316.65
844.7926	898.3757	5132.7	4275.3
844.9377	900.4091	5110.75	4250
845.0829	902.4418	5099.3	4237.2
845.228	904.4739	5100.85	4240.35
845.3732	906.5052	5103.85	4245.25
845.5183	908.5358	5103.8	4246.55
845.6635	910.5658	5097.05	4237.7
845.8086	912.595	5060.15	4203.3
845.9538	914.6236	5020.95	4160.95
846.0989	916.6515	4988.65	4131.05
846.2441	918.6786	4954	4094.7
846.3892	920.7051	4947.65	4088.35
846.5344	922.7309	4929.9	4071.1
846.6795	924.756	4926.35	4066.85
846.8246	926.7804	4917.45	4055.9
846.9698	928.8041	4881.85	4019.15
847.1149	930.8272	4910.6	4051
847.2601	932.8495	4878.75	4016.95
847.4052	934.8711	4882.35	4021.15
847.5504	936.892	4878.2	4017.15
847.6955	938.9123	4864.5	4003.55
847.8407	940.9318	4890.55	4030.4
847.9858	942.9506	4868.55	4006.45
848.131	944.9688	4867.35	4005.35
848.2761	946.9862	4846.8	3985.35
848.4213	949.003	4794.55	3933.15
848.5664	951.019	4767.75	3906.85
848.7115	953.0344	4757.75	3893.7
848.8567	955.0491	4745.5	3883.2
849.0018	957.063	4724.8	3861.9
849.147	959.0763	4735.3	3865.25
849.2921	961.0888	4707.55	3843.2
849.4373	963.1007	4698.85	3834.85
849.5824	965.1119	4688.45	3826.65
849.7275	967.1223	4673.25	3811.7
849.8727	969.1321	4658.7	3798.3
850.0178	971.1412	4628.65	3766.05
850.1629	973.1495	4627.3	3763.85
850.3081	975.1572	4644.75	3748.55
850.4532	977.1641	4622.6	3761.05
850.5983	979.1704	4606.65	3742.4
850.7435	981.1759	4600.45	3733.35
850.8886	983.1808	4569.3	3702.9
851.0337	985.1849	4574.25	3699.15
851.1788	987.1884	4552.85	3686.65
851.324	989.1911	4531.55	3665.05
851.4691	991.1932	4544.95	3680.2
851.6142	993.1945	4524.8	3660.75
851.7593	995.1951	4501.3	3634.75
851.9045	997.1951	4481.4	3610.55
852.0496	999.1943	4480.15	3617.65
852.1947	1001.1928	4459.45	3594.3
852.3398	1003.1906	4442.15	3576.7
852.4849	1005.1877	4468.35	3601.85
852.63	1007.1841	4437.75	3571.15
852.7751	1009.1798	4442.55	3576.7
852.9202	1011.1748	4419.25	3553.05
853.0653	1013.1691	4398.55	3531.25
853.2104	1015.1627	4363.65	3495.35
853.3555	1017.1556	4330.85	3463.3
853.5006	1019.1477	4303.3	3435.65
853.6457	1021.1392	4244.1	3378.5
853.7908	1023.1299	4258.6	3391.2
853.9359	1025.12	4242.15	3373.95
854.081	1027.1093	4218.3	3353.4
854.2261	1029.0979	4217.35	3354.6
854.3712	1031.0859	4219.2	3353
854.5163	1033.0731	4217.75	3350.85
854.6613	1035.0596	4210.5	3345.25
854.8064	1037.0454	4177.05	3309.1
854.9515	1039.0304	4151.85	3283.05
855.0965	1041.0148	4133.3	3266.3
855.2416	1042.9985	4095.8	3227.25
855.3867	1044.9814	4069.8	3201.35
855.5317	1046.9636	4072.2	3199.85
855.6768	1048.9452	4045.2	3177.5
855.8219	1050.926	4059.8	3191.4
855.9669	1052.9061	4071.05	3204
856.112	1054.8855	4053.95	3186.85
856.257	1056.8642	4042.85	3175.1
856.4021	1058.8421	4042.8	3170.65
856.5471	1060.8194	4030.7	3163.05
856.6921	1062.7959	4015.65	3146.6
856.8372	1064.7717	4006.15	3135.5
856.9822	1066.7469	3983.45	3113.75
857.1272	1068.7213	3985.85	3113.5
857.2723	1070.695	3986.8	3117.75
857.4173	1072.6679	3985.4	3114.85
857.5623	1074.6402	4005.2	3134.8
857.7073	1076.6117	4010.1	3137.3
857.8523	1078.5826	3988.6	3119.85
857.9973	1080.5527	3936.85	3063.5
858.1423	1082.5221	3915.4	3043
858.2873	1084.4908	3878.2	3009.45
858.4323	1086.4587	3860	2988.45
858.5773	1088.426	3839.75	2968.95
858.7223	1090.3925	3823.75	2944
858.8673	1092.3584	3825.75	2956
859.0123	1094.3235	3796.25	2926.9
859.1573	1096.2879	3812.45	2941.35
859.3022	1098.2515	3821.25	2951.5
859.4472	1100.2145	3825.45	2956.55
859.5922	1102.1767	3846.65	2974.1
859.7371	1104.1382	3844.15	2974.4
859.8821	1106.099	3878.65	3005.2
860.027	1108.0591	3906	3034.7
860.172	1110.0185	3926.05	3052.95
860.3169	1111.9771	3951.3	3080
860.4619	1113.9351	3969.3	3098.9
860.6068	1115.8923	3987.7	3116.5
860.7517	1117.8488	3994.95	3121.3
860.8967	1119.8045	3970.55	3097.9
861.0416	1121.7596	3895.5	3022.35
861.1865	1123.7139	3813.25	2942.6
861.3314	1125.6675	3757.55	2883.7
861.4763	1127.6204	3760.05	2889
861.6212	1129.5726	3764.9	2888.1
861.7661	1131.524	3742.3	2871.4
861.911	1133.4748	3712.25	2840
862.0559	1135.4248	3681.25	2806.65
862.2008	1137.3741	3626.3	2752.95
862.3457	1139.3226	3611.4	2736.85
862.4905	1141.2705	3593.4	2723.05
862.6354	1143.2176	3582.8	2704.3
862.7803	1145.164	3593.25	2718.85
862.9251	1147.1097	3576.75	2704.55
863.07	1149.0546	3559.15	2684.45
863.2148	1150.9989	3533.3	2657.4
863.3597	1152.9424	3525.95	2653.45
863.5045	1154.8852	3499.25	2626.95
863.6493	1156.8272	3490.95	2618.45
863.7942	1158.7686	3492.8	2612.25
863.939	1160.7092	3475.2	2601.85
864.0838	1162.6491	3446.4	2569.35
864.2286	1164.5883	3462.15	2590.1
864.3734	1166.5267	3466.75	2590.3
864.5182	1168.4644	3470.1	2596.65
864.663	1170.4014	3485.35	2605.7
864.8078	1172.3377	3505.1	2633.85
864.9526	1174.2732	3541.9	2669
865.0974	1176.2081	3584.4	2709.7
865.2421	1178.1421	3654.7	2775.15
865.3869	1180.0755	3739.1	2864.9
865.5317	1182.0082	3783.2	2909.45
865.6764	1183.9401	3771.8	2895.95
865.8212	1185.8713	3692.4	2819.15
865.9659	1187.8017	3613.8	2739.95
866.1106	1189.7315	3512	2639.15
866.2554	1191.6605	3445.6	2570.9
866.4001	1193.5888	3394.45	2520.65
866.5448	1195.5163	3365.25	2491.25
866.6895	1197.4432	3352.85	2477.9
866.8342	1199.3693	3325.75	2452.6
866.9789	1201.2947	3315.25	2438.1
867.1236	1203.2193	3301.2	2425.15
867.2683	1205.1432	3279.95	2404.65
867.413	1207.0664	3264.15	2388.7
867.5576	1208.9889	3260.25	2380.25
867.7023	1210.9106	3266.75	2392.4
867.847	1212.8316	3220.45	2344.5
867.9916	1214.7519	3252.5	2366.2
868.1363	1216.6715	3227.45	2354.25
868.2809	1218.5903	3230.25	2355.95
868.4255	1220.5084	3242.15	2366.8
868.5701	1222.4257	3242.1	2369.15
868.7148	1224.3424	3229.1	2355.6
868.8594	1226.2583	3252.95	2371.55
869.004	1228.1735	3271.85	2394.35
869.1486	1230.0879	3276.65	2398.3
869.2932	1232.0016	3293.85	2417.7
869.4377	1233.9146	3305.8	2426.7
869.5823	1235.8269	3309.25	2435.3
869.7269	1237.7384	3322.95	2447
869.8715	1239.6492	3302.2	2424.85
870.016	1241.5592	3297.15	2418.75
870.1606	1243.4686	3317.35	2441.5
870.3051	1245.3772	3370.75	2495.5
870.4496	1247.285	3409.1	2534.15
870.5941	1249.1922	3480	2601.85
870.7387	1251.0986	3501.35	2626.35
870.8832	1253.0042	3552.15	2673.4
871.0277	1254.9092	3610.4	2734.95
871.1722	1256.8134	3667.65	2790.5
871.3167	1258.7169	3704.9	2827.65
871.4611	1260.6196	3750.95	2875.25
871.6056	1262.5216	3752.75	2874.05
871.7501	1264.4229	3737.45	2861.95
871.8945	1266.3234	3715.95	2837.5
872.039	1268.2232	3678.6	2801.95
872.1834	1270.1223	3631.55	2753.15
872.3278	1272.0207	3599.1	2722.15
872.4723	1273.9183	3582.3	2699.4
872.6167	1275.8151	3565.3	2687
872.7611	1277.7113	3586.55	2708.8
872.9055	1279.6067	3637.4	2759.55
873.0499	1281.5014	3719.7	2840.9
873.1943	1283.3953	3847.7	2967.8
873.3386	1285.2885	3988	3113.65
873.483	1287.181	4074.65	3195.3
873.6274	1289.0727	4115.35	3236.95
873.7717	1290.9637	4107.05	3228.3
873.9161	1292.854	4029.8	3154.15
874.0604	1294.7435	3936.2	3056.45
874.2047	1296.6323	3856.05	2978.35
874.349	1298.5204	3777.4	2895.3
874.4933	1300.4077	3712.05	2831.15
874.6376	1302.2943	3659.9	2782.85
874.7819	1304.1802	3635.95	2758.35
874.9262	1306.0653	3611.3	2731.55
875.0705	1307.9497	3577.05	2697.2
875.2147	1309.8333	3561.7	2683.2
875.359	1311.7162	3536.4	2660.25
875.5032	1313.5984	3526.8	2644.45
875.6475	1315.4798	3487.75	2595.85
875.7917	1317.3605	3478.6	2592.25
875.9359	1319.2405	3472.5	2594.1
876.0801	1321.1197	3475.1	2594.2
876.2243	1322.9982	3431.55	2548.25
876.3685	1324.876	3383.05	2505.05
876.5127	1326.753	3310	2432.5
876.6569	1328.6293	3246.05	2367.2
876.801	1330.5048	3180.1	2299.1
876.9452	1332.3796	3136.7	2257.7
877.0893	1334.2537	3086.5	2185.3
877.2335	1336.127	3045.95	2167.25
877.3776	1337.9996	3034.55	2155.9
877.5217	1339.8714	3004.35	2124.7
877.6658	1341.7426	3010	2086.05
877.8099	1343.6129	2976.85	2099.75
877.954	1345.4826	2941.65	2062.45
878.0981	1347.3515	2941.4	2059.55
878.2422	1349.2196	2923.1	2043.9
878.3862	1351.087	2909.45	2030.95
878.5303	1352.9537	2910.65	2031.45
878.6743	1354.8197	2904.2	2023.9
878.8184	1356.6849	2915.85	2037.9
878.9624	1358.5493	2930.3	2051.2
879.1064	1360.4131	2932.75	2055.1
879.2504	1362.276	2944.15	2065.55
879.3944	1364.1383	2976.15	2098.35
879.5384	1365.9998	2992.1	2106.25
879.6823	1367.8606	2965.6	2086.55
879.8263	1369.7206	2952.6	2073.8
879.9702	1371.5799	2949.7	2066.6
880.1142	1373.4384	2948.55	2067.5
880.2581	1375.2962	2906.3	2024
880.402	1377.1533	2878.4	1998.1
880.5459	1379.0096	2832.7	1950.8
880.6898	1380.8652	2808.85	1928.9
880.8337	1382.7201	2772.05	1893.1
880.9776	1384.5742	2757.05	1878.3
881.1215	1386.4275	2730.4	1849.95
881.2653	1388.2802	2723.65	1845.55
881.4092	1390.132	2690.2	1811.8
881.553	1391.9832	2695.15	1813.45
881.6968	1393.8336	2677.25	1797.65
881.8406	1395.6832	2659.05	1779.05
881.9844	1397.5322	2649.75	1770.45
882.1282	1399.3803	2644.1	1756.95
882.272	1401.2278	2621.5	1739.8
882.4158	1403.0745	2613.9	1734.4
882.5595	1404.9204	2597.2	1716.95
882.7033	1406.7656	2585.7	1704.7
882.847	1408.6101	2583	1703.45
882.9908	1410.4538	2573.8	1694.95
883.1345	1412.2968	2567.3	1687.55
883.2782	1414.139	2553.05	1673.2
883.4219	1415.9805	2554.3	1674.8
883.5656	1417.8213	2570.95	1668.85
883.7092	1419.6613	2573.65	1694.6
883.8529	1421.5006	2591.35	1711.55
883.9965	1423.3391	2604.25	1724.6
884.1402	1425.1769	2628.85	1748.45
884.2838	1427.0139	2681.55	1800.15
884.4274	1428.8502	2730.75	1847.85
884.571	1430.6858	2768.55	1887.85
884.7146	1432.5206	2797.9	1916.85
884.8582	1434.3547	2788.45	1907.5
885.0018	1436.188	2769.25	1889.85
885.1453	1438.0206	2742.25	1859.9
885.2889	1439.8524	2734.95	1855.95
885.4324	1441.6835	2730.75	1849.15
885.5759	1443.5139	2741.1	1857.75
885.7194	1445.3435	2735.1	1854.65
885.8629	1447.1724	2726.7	1847.8
886.0064	1449.0005	2720.1	1840.15
886.1499	1450.8279	2719	1835.75
886.2933	1452.6545	2726.75	1845.1
886.4368	1454.4804	2712.15	1831.7
886.5802	1456.3056	2696.6	1809.35
886.7237	1458.13	2678.1	1798.95
886.8671	1459.9536	2662.65	1781.4
887.0105	1461.7766	2625.6	1745.65
887.1539	1463.5987	2597.1	1716.95
887.2972	1465.4202	2580.85	1698.7
887.4406	1467.2409	2540.1	1657.95
887.584	1469.0608	2509.75	1629.25
887.7273	1470.88	2494.65	1614.3
887.8706	1472.6984	2457.55	1574.05
888.0139	1474.5161	2448.15	1563.35
888.1572	1476.3331	2426.3	1546.4
888.3005	1478.1493	2422.2	1539.7
888.4438	1479.9648	2411.25	1531.6
888.5871	1481.7795	2401.45	1521.6
888.7303	1483.5935	2407.4	1527.75
888.8736	1485.4067	2400.8	1520
889.0168	1487.2192	2392.2	1509
889.16	1489.031	2404	1518.85
889.3032	1490.842	2394.7	1513.25
889.4464	1492.6522	2392.35	1512.2
889.5896	1494.4618	2382.65	1499.55
889.7327	1496.2705	2369.65	1488.3
889.8759	1498.0785	2367.25	1486.4
890.019	1499.8858	2354.75	1474.2
890.1622	1501.6924	2352.35	1473.2
890.3053	1503.4981	2345.8	1465.9
890.4484	1505.3032	2333.45	1451.65
890.5914	1507.1075	2326.7	1447.2
890.7345	1508.911	2321.8	1439.95
890.8776	1510.7138	2315.6	1434.5
891.0206	1512.5159	2288.7	1406.9
891.1637	1514.3172	2299.2	1417.3
891.3067	1516.1178	2274.6	1394.8
891.4497	1517.9176	2277.8	1393.75
891.5927	1519.7166	2259.65	1379.45
891.7357	1521.515	2249.6	1360.65
891.8786	1523.3126	2241.85	1359.4
892.0216	1525.1094	2243.3	1360.4
892.1645	1526.9055	2237.45	1357.35
892.3074	1528.7008	2221.85	1340.1
892.4503	1530.4954	2215.3	1333.2
892.5932	1532.2893	2213.5	1334.15
892.7361	1534.0824	2197.55	1312.1
892.879	1535.8747	2195.1	1314.8
893.0218	1537.6663	2182.55	1300.25
893.1647	1539.4572	2183.45	1300.25
893.3075	1541.2473	2180.8	1296.4
893.4503	1543.0367	2168.9	1290.05
893.5931	1544.8253	2169.15	1283.7
893.7359	1546.6132	2162.3	1277.5
893.8787	1548.4003	2166.65	1276.4
894.0214	1550.1867	2173	1284.45
894.1642	1551.9723	2172.05	1284.15
894.3069	1553.7572	2169.7	1286.55
894.4496	1555.5414	2175.4	1293.2
894.5923	1557.3247	2199.3	1317.05
894.735	1559.1074	2217.95	1337.1
894.8777	1560.8893	2225.35	1346.5
895.0204	1562.6705	2246.6	1364.2
895.163	1564.4509	2272.25	1390.45
895.3056	1566.2305	2277.45	1399.15
895.4482	1568.0094	2286.5	1406.25
895.5908	1569.7876	2278	1397.45
895.7334	1571.565	2267.8	1387.05
895.876	1573.3417	2267.4	1383.25
896.0186	1575.1176	2260	1377.15
896.1611	1576.8928	2271	1389.8
896.3036	1578.6672	2272.3	1391.1
896.4461	1580.4409	2286.35	1405.05
896.5886	1582.2138	2316.25	1430.85
896.7311	1583.986	2342.3	1461.55
896.8736	1585.7575	2360.15	1479.5
897.0161	1587.5282	2382.35	1502.15
897.1585	1589.2981	2395.6	1516.65
897.3009	1591.0673	2393.4	1513.2
897.4433	1592.8358	2400.65	1520.95
897.5857	1594.6035	2420.35	1537.2
897.7281	1596.3704	2397.5	1514.25
897.8705	1598.1366	2379.25	1497.7
898.0128	1599.9021	2355.7	1473.95
898.1551	1601.6668	2326.75	1443.35
898.2975	1603.4308	2311.65	1428.5
898.4398	1605.194	2316.1	1430.85
898.5821	1606.9564	2315.75	1434.4
898.7243	1608.7182	2352	1467.5
898.8666	1610.4791	2414.05	1531.65
899.0088	1612.2394	2477	1597.1
899.1511	1613.9988	2546.35	1662.7
899.2933	1615.7576	2602.1	1722.05
899.4355	1617.5156	2632	1744.55
899.5776	1619.2728	2613.75	1731.35
899.7198	1621.0293	2560.25	1679.65
899.862	1622.785	2471.75	1589.9
900.0041	1624.54	2369.65	1485.8
900.1462	1626.2942	2282.4	1400.75
900.2883	1628.0477	2199.45	1314.35
900.4304	1629.8005	2145.4	1260.9
900.5725	1631.5525	2089.05	1206.25
900.7145	1633.3037	2055.85	1173.6
900.8566	1635.0542	2013.25	1132.3
900.9986	1636.804	1978.35	1096.9
901.1406	1638.553	2008.75	1071.5
901.2826	1640.3013	1926.2	1043.6
901.4245	1642.0488	1912.45	1032.1
901.5665	1643.7955	1904.25	1022.8
901.7085	1645.5416	1887.1	1005.25
901.8504	1647.2868	1883.55	1001.35
901.9923	1649.0313	1871.6	989.65
902.1342	1650.7751	1867.5	981.75
902.2761	1652.5181	1851.8	971.35
902.4179	1654.2604	1855.2	972.65
902.5598	1656.0019	1854.05	973.05
902.7016	1657.7427	1862.8	980.6
902.8434	1659.4828	1871.15	990.9
902.9852	1661.222	1887.55	1005.55
903.127	1662.9606	1906.95	1027.1
903.2687	1664.6984	1936	1054.05
903.4105	1666.4354	1945.75	1061.3
903.5522	1668.1717	1925.2	1042.45
903.6939	1669.9072	1889.05	1007.6
903.8356	1671.642	1855.15	971.35
903.9773	1673.3761	1822.5	941.95
904.119	1675.1094	1796	914.9
904.2606	1676.8419	1779.05	898.75
904.4022	1678.5737	1761.1	879.7
904.5439	1680.3048	1731.25	849.05
904.6855	1682.0351	1732.7	853
904.827	1683.7646	1725.7	839.9
904.9686	1685.4934	1722.05	841.1
905.1101	1687.2215	1712.2	829.65
905.2517	1688.9488	1716.4	835.05
905.3932	1690.6754	1698.05	816.1
905.5347	1692.4012	1689	807.2
905.6761	1694.1263	1689.8	806.5
905.8176	1695.8506	1690	808.7
905.9591	1697.5742	1678.15	795.6
906.1005	1699.297	1679.15	797.2
906.2419	1701.0191	1675.6	793.85
906.3833	1702.7404	1664.95	783.9
906.5246	1704.461	1653.45	771.45
906.666	1706.1808	1659.8	775.5
906.8073	1707.8999	1662.55	779.2
906.9487	1709.6182	1644	763.15
907.09	1711.3358	1644.25	762
907.2313	1713.0527	1641.25	761.2
907.3725	1714.7688	1644.45	754.05
907.5138	1716.4841	1635.4	752.25
907.655	1718.1987	1636.65	750.25
907.7962	1719.9126	1629.5	746.95
907.9374	1721.6257	1626.45	740.45
908.0786	1723.338	1626.6	745.5
908.2198	1725.0496	1628	744.5
908.3609	1726.7605	1614.6	731.9
908.502	1728.4706	1617.4	735.2
908.6431	1730.18	1613.35	730.3
908.7842	1731.8886	1610.45	728.85
908.9253	1733.5964	1616.15	728.05
909.0664	1735.3036	1614.9	730.75
909.2074	1737.0099	1604.95	723.2
909.3484	1738.7156	1598.85	718.8
909.4894	1740.4204	1601.25	717.25
909.6304	1742.1246	1597.2	714.95
909.7714	1743.8279	1599.8	720.95
909.9123	1745.5306	1602.75	719.25
910.0532	1747.2325	1596.75	713.9
910.1941	1748.9336	1596.15	714.35
910.335	1750.634	1589.2	705.9
910.4759	1752.3336	1591.8	710.5
910.6168	1754.0325	1582	700.9
910.7576	1755.7307	1593.8	713.5
910.8984	1757.4281	1594.4	711.8
911.0392	1759.1247	1597.3	706.8
911.18	1760.8206	1597.8	712.05
911.3208	1762.5158	1590.7	703.3
911.4615	1764.2102	1578.6	696.65
911.6022	1765.9039	1572.25	689.45
911.7429	1767.5968	1578.3	695.55
911.8836	1769.289	1567.4	685
912.0243	1770.9804	1573.35	690.1
912.1649	1772.6711	1573.65	692.7
912.3056	1774.361	1564.2	684.45
912.4462	1776.0502	1574	691.7
912.5868	1777.7386	1569.4	686.3
912.7274	1779.4263	1560.25	678.35
912.8679	1781.1132	1563.65	679.3
913.0084	1782.7994	1557.95	674.35
913.149	1784.4849	1558.95	676.15
913.2895	1786.1696	1561.35	674.8
913.4299	1787.8535	1555.65	673.25
913.5704	1789.5367	1545.7	664.65
913.7108	1791.2192	1545.35	661.4
913.8513	1792.9009	1568.2	659.55
913.9917	1794.5818	1546.15	664.05
914.132	1796.2621	1539.75	659.45
914.2724	1797.9415	1544.65	663.6
914.4128	1799.6202	1535.55	652.65
914.5531	1801.2982	1537.75	655.9
914.6934	1802.9755	1534.5	651.55
914.8337	1804.6519	1535.3	652.3
914.9739	1806.3277	1528.55	645.75
915.1142	1808.0027	1516.45	637.7
915.2544	1809.6769	1519.3	636
915.3946	1811.3504	1518.95	634.6
915.5348	1813.0231	1526	643.9
915.675	1814.6951	1527	646.65
915.8151	1816.3664	1520.55	637.6
915.9553	1818.0369	1514.8	630.8
916.0954	1819.7067	1512.6	632.05
916.2355	1821.3757	1516.1	631.7
916.3755	1823.044	1511.65	629.6
916.5156	1824.7115	1508.1	625.55
916.6556	1826.3783	1508.45	626.6
916.7956	1828.0443	1502.35	620.75
916.9356	1829.7096	1504.9	621.55
917.0756	1831.3741	1501.1	615.25
917.2155	1833.0379	1494.1	611.8
917.3555	1834.701	1498.65	613.7
917.4954	1836.3633	1498.05	613.9
917.6353	1838.0248	1493.6	609.6
917.7751	1839.6856	1492.5	611.85
917.915	1841.3457	1496.85	615.35
918.0548	1843.005	1486.2	604.85
918.1946	1844.6636	1486.7	604.55
918.3344	1846.3214	1484.8	602.75
918.4742	1847.9785	1483.6	603.45
918.6139	1849.6349	1483.65	600.65
918.7537	1851.2904	1494.05	603.5
918.8934	1852.9453	1482.5	600.15
919.0331	1854.5994	1479.45	599.1
919.1727	1856.2528	1482.7	595.7
919.3124	1857.9054	1476.95	594.05
919.452	1859.5572	1465.1	583
919.5916	1861.2083	1471.85	587.55
919.7312	1862.8587	1474.65	591.05
919.8708	1864.5084	1470.5	587.05
920.0103	1866.1572	1463.5	581.85
920.1498	1867.8054	1465.2	583.85
920.2893	1869.4528	1464.65	581.75
920.4288	1871.0994	1462.25	580.1
920.5683	1872.7453	1463.3	581.2
920.7077	1874.3905	1466.5	578.3
920.8471	1876.0349	1457.5	573.6
920.9865	1877.6786	1459.7	576.25
921.1259	1879.3215	1459.75	578.15
921.2653	1880.9637	1454	571.5
921.4046	1882.6051	1456.65	572.65
921.5439	1884.2458	1454.55	570.5
921.6832	1885.8858	1450.4	566.85
921.8225	1887.525	1437.9	554.55
921.9617	1889.1634	1436.15	554.55
922.101	1890.8011	1438.25	554.2
922.2402	1892.4381	1439.9	559.8
922.3794	1894.0743	1449.3	566.2
922.5185	1895.7098	1434.25	553
922.6577	1897.3446	1439.45	557.25
922.7968	1898.9786	1442.05	555.9
922.9359	1900.6118	1434.45	554.55
923.075	1902.2443	1427.8	545
923.214	1903.8761	1432.2	552
923.3531	1905.5071	1430.75	549.65
923.4921	1907.1374	1431.5	548.8
923.6311	1908.7669	1429.15	547.85
923.77	1910.3957	1430.1	548.3
923.909	1912.0237	1421	538
924.0479	1913.651	1423.9	540.25
924.1868	1915.2776	1420.2	538.85
924.3257	1916.9034	1417.3	537.45
924.4646	1918.5285	1414.35	533.8
924.6034	1920.1528	1406.15	522.05
924.7422	1921.7764	1411.25	529.4
924.881	1923.3992	1406.7	523.35
925.0198	1925.0213	1402.95	519.75
925.1586	1926.6427	1402.9	521.9
925.2973	1928.2633	1469.45	515.65
925.436	1929.8832	1407.05	522.95
925.5747	1931.5023	1394.9	512.15
925.7134	1933.1207	1398.6	515.7
925.852	1934.7383	1405.2	521.45
925.9906	1936.3552	1395.3	513.85
926.1292	1937.9714	1394.95	511.95
926.2678	1939.5868	1390.25	505.65
926.4064	1941.2015	1387.95	504.05
926.5449	1942.8154	1384	502.3
926.6834	1944.4286	1382.25	499.3
926.8219	1946.041	1410.65	503.3
926.9604	1947.6528	1386.35	498.3
927.0988	1949.2637	1384.55	503
927.2372	1950.8739	1386.15	501.95
927.3756	1952.4834	1377.65	495.65
927.514	1954.0921	1384.7	501.45
927.6523	1955.7001	1382.2	495.4
927.7907	1957.3074	1378.2	497.25
927.929	1958.9139	1370.5	486.9
928.0673	1960.5197	1377.55	491.7
928.2055	1962.1247	1367.1	485.65
928.3438	1963.729	1367.55	485.15
928.482	1965.3325	1393.8	487.15
928.6202	1966.9353	1363.6	481.75
928.7584	1968.5374	1369.4	487.7
928.8965	1970.1387	1363.2	480.95
929.0346	1971.7393	1360.75	479.25
929.1727	1973.3392	1359.4	477.05
929.3108	1974.9383	1359.3	478.3
929.4489	1976.5366	1353.3	468.9
929.5869	1978.1342	1359.5	478
929.7249	1979.7311	1356.05	472.45
929.8629	1981.3273	1353.75	471.35
930.0009	1982.9227	1346.5	461.9
930.1388	1984.5173	1354.7	471.4
930.2767	1986.1112	1347.8	464.2
930.4146	1987.7044	1348.95	467
930.5525	1989.2968	1342.3	459.3
930.6904	1990.8885	1354.05	468.4
930.8282	1992.4795	1353.25	468.85
930.966	1994.0697	1341.85	460.85
931.1038	1995.6592	1346	464.35
931.2415	1997.2479	1344.4	461.75
931.3793	1998.8359	1346.1	465.45
931.517	2000.4232	1340.35	458.2
931.6547	2002.0097	1336.45	455.8
931.7923	2003.5955	1341.85	459.3
931.93	2005.1805	1336.65	453.3
932.0676	2006.7648	1336.85	455.5
932.2052	2008.3484	1336.55	453.8
932.3427	2009.9312	1337	452.25
932.4803	2011.5133	1331	450.2
932.6178	2013.0946	1331.75	450.1
932.7553	2014.6752	1331.35	448.95
932.8928	2016.2551	1332.45	451.6
933.0302	2017.8342	1328.25	447.25
933.1676	2019.4126	1321.55	439.85
933.305	2020.9902	1328.45	448.4
933.4424	2022.5672	1328	445.8
933.5798	2024.1433	1341	450.2
933.7171	2025.7188	1320.25	437
933.8544	2027.2935	1326.55	443.3
933.9917	2028.8674	1319.05	436.15
934.129	2030.4406	1317.15	438.45
934.2662	2032.0131	1320.45	439.25
934.4034	2033.5849	1323.55	432
934.5406	2035.1559	1318.35	437.7
934.6778	2036.7261	1316.75	434.1
934.8149	2038.2957	1313.65	430.25
934.952	2039.8645	1313.5	430.9
935.0891	2041.4325	1317.3	433.7
935.2262	2042.9998	1313.7	432
935.3632	2044.5664	1312.1	428.95
935.5002	2046.1323	1310.85	429.75
935.6372	2047.6974	1306.55	422.95
935.7742	2049.2617	1310.8	428.15
935.9111	2050.8254	1319.4	432.05
936.048	2052.3883	1313.05	429.4
936.1849	2053.9504	1308.65	425.7
936.3218	2055.5118	1307.15	425.2
936.4586	2057.0725	1305.65	419.4
936.5955	2058.6325	1311.5	427.8
936.7323	2060.1917	1309.9	429.6
936.869	2061.7502	1315.7	430.5
937.0058	2063.3079	1311	429.65
937.1425	2064.8649	1302.1	416.6
937.2792	2066.4212	1313.1	430.7
937.4159	2067.9767	1308.6	426.2
937.5525	2069.5315	1303.9	422.05
937.6891	2071.0856	1302.2	420.3
937.8257	2072.6389	1308.2	426.55
937.9623	2074.1915	1293.5	413.65
938.0989	2075.7433	1292.45	408.3
938.2354	2077.2945	1296.2	415.15
938.3719	2078.8448	1292.8	410.05
938.5084	2080.3945	1297.1	414.7
938.6448	2081.9434	1296.65	413.45
938.7812	2083.4916	1295.25	413.8
938.9176	2085.039	1287.75	403.65
939.054	2086.5857	1298.3	413.9
939.1903	2088.1317	1299.55	417.2
939.3267	2089.677	1295.1	412.6
939.463	2091.2215	1290.15	408.75
939.5992	2092.7652	1294.95	411.7
939.7355	2094.3083	1288.95	407.95
939.8717	2095.8506	1294.25	412.95
940.0079	2097.3921	1286.8	404.15
940.1441	2098.933	1291.15	409.5
940.2802	2100.4731	1290.25	407.8
940.4163	2102.0124	1298	409.4
940.5524	2103.5511	1281.45	400.25
940.6885	2105.089	1285.85	405.6
940.8245	2106.6261	1290.05	408.35
940.9606	2108.1626	1292	409
941.0965	2109.6983	1313.25	402.35
941.2325	2111.2332	1289.15	407.15
941.3684	2112.7675	1282.75	398
941.5044	2114.301	1284.15	400.4
941.6403	2115.8337	1284.1	403.9
941.7761	2117.3657	1288.25	406.55
941.912	2118.897	1284.1	403
942.0478	2120.4276	1284.7	397.85
942.1835	2121.9575	1279.6	395.85
942.3193	2123.4866	1297.55	402.3
942.455	2125.0149	1280.95	395.15
942.5907	2126.5426	1276.65	393.55
942.7264	2128.0695	1282.3	394.1
942.8621	2129.5956	1271.35	389.4
942.9977	2131.1211	1277.9	390.85
943.1333	2132.6458	1277.55	396.25
943.2689	2134.1698	1279.65	395.85
943.4044	2135.693	1273.4	391.3
943.54	2137.2155	1280.1	395.6
943.6755	2138.7373	1277.75	395.5
943.8109	2140.2584	1270.45	386.8
943.9464	2141.7787	1272.05	384.5
944.0818	2143.2983	1274.95	393.2
944.2172	2144.8171	1271.65	390.5
944.3526	2146.3353	1269.65	384.2
944.4879	2147.8527	1264.95	384.55
944.6232	2149.3693	1267.3	383.85
944.7585	2150.8853	1264.3	383.5
944.8938	2152.4005	1271.7	389.8
945.029	2153.9149	1263.05	381.15
945.1642	2155.4287	1365.15	386.9
945.2994	2156.9417	1260.75	375.95
945.4346	2158.454	1272.9	390.75
945.5697	2159.9655	1256.55	374.5
945.7048	2161.4764	1261.5	378.35
945.8399	2162.9865	1255.4	371.55
945.9749	2164.4958	1255.25	371.15
946.1099	2166.0045	1263.55	377.65
946.2449	2167.5124	1257.4	374.95
946.3799	2169.0195	1257.55	377
946.5148	2170.526	1262.55	381.05
946.6498	2172.0317	1251.55	370.05
946.7846	2173.5367	1258.05	373.95
946.9195	2175.0409	1257.95	375.6
947.0543	2176.5445	1249.55	368.8
947.1891	2178.0473	1250.15	368.7
947.3239	2179.5494	1253.05	367.95
947.4587	2181.0507	1249.85	365.5
947.5934	2182.5513	1250.05	368.5
947.7281	2184.0512	1247.55	365.65
947.8628	2185.5504	1245.5	364.95
947.9974	2187.0488	1244	360.55
948.132	2188.5465	1248.05	364.05
948.2666	2190.0435	1244.25	362.25
948.4012	2191.5397	1247	365.1
948.5357	2193.0353	1242.2	360.85
948.6702	2194.5301	1243.8	359.65
948.8047	2196.0241	1240.85	357.55
948.9392	2197.5175	1239.95	358.05
949.0736	2199.0101	1244.6	358.9
949.208	2200.502	1231.9	352.15
949.3424	2201.9931	1233.95	350.95
949.4767	2203.4835	1237.05	353.9
949.611	2204.9733	1246.45	346.7
949.7453	2206.4622	1241.15	360.25
949.8796	2207.9505	1235.7	350.55
950.0138	2209.438	1228.45	349.35
950.148	2210.9248	1229.8	345
950.2822	2212.4109	1234.5	351.95
950.4164	2213.8962	1233.35	346.65
950.5505	2215.3809	1231.4	347.75
950.6846	2216.8648	1229.55	346.3
950.8186	2218.3479	1227	338.15
950.9527	2219.8304	1228.4	344.2
951.0867	2221.3121	1225.85	343.1
951.2207	2222.7931	1217	336.2
951.3546	2224.2733	1217.6	335.95
951.4886	2225.7529	1219.7	336.05
951.6225	2227.2317	1221.8	334.6
951.7563	2228.7098	1215.65	334.65
951.8902	2230.1872	1213.95	331.4
952.024	2231.6638	1215.7	333.85
952.1578	2233.1397	1216.7	331.1
952.2916	2234.6149	1220.3	338.4
952.4253	2236.0894	1208.9	326.05
952.559	2237.5632	1212.4	328.6
952.6927	2239.0362	1212.3	329.75
952.8263	2240.5085	1210.8	326
952.9599	2241.9801	1210.65	325.55
953.0935	2243.4509	1211.65	329
953.2271	2244.921	1204.55	320.85
953.3606	2246.3904	1208.85	325.4
953.4941	2247.8591	1206.5	327.6
953.6276	2249.3271	1197.85	315.7
953.7611	2250.7943	1203.25	322
953.8945	2252.2608	1201.7	320
954.0279	2253.7266	1205.05	325.1
954.1612	2255.1917	1202.2	319.7
954.2946	2256.656	1200.8	316.8
954.4279	2258.1197	1191	309.95
954.5612	2259.5826	1200.35	316.6
954.6944	2261.0447	1199.05	316.55
954.8276	2262.5062	1196.45	313.6
954.9608	2263.9669	1194	308.4
955.094	2265.4269	1192.65	311.7
955.2271	2266.8862	1195.25	313.4
955.3602	2268.3448	1191.3	307.3
955.4933	2269.8026	1192.6	311.3
955.6264	2271.2598	1191.25	309.55
955.7594	2272.7162	1189.9	308.7
955.8924	2274.1719	1191.65	307.15
956.0253	2275.6268	1185.2	304.15
956.1583	2277.0811	1187.65	305.75
956.2912	2278.5346	1185.3	303.2
956.4241	2279.9874	1184.75	302.7
956.5569	2281.4395	1186.3	306.55
956.6897	2282.8908	1184.45	297.65
956.8225	2284.3414	1185.5	302.5
956.9553	2285.7914	1181.85	300.95
957.088	2287.2406	1181.65	298.05
957.2207	2288.689	1182.95	300.6
957.3534	2290.1368	1182.2	298.75
957.486	2291.5838	1180.65	297.75
957.6186	2293.0302	1184.8	301.95
957.7512	2294.4758	1173.75	291.65
957.8838	2295.9206	1174.55	289.4
958.0163	2297.3648	1171.35	288.5
958.1488	2298.8082	1174.1	291.65
958.2813	2300.251	1179.4	295.55
958.4137	2301.693	1171.85	288.45
958.5461	2303.1343	1177.7	293.4
958.6785	2304.5748	1166.65	284.75
958.8108	2306.0147	1173.65	291.45
958.9432	2307.4538	1171.6	285.2
959.0754	2308.8922	1167.8	286.5
959.2077	2310.3299	1170.4	288.65
959.3399	2311.7669	1165.85	282.15
959.4721	2313.2031	1167	285.65
959.6043	2314.6387	1163.6	279.85
959.7365	2316.0735	1165.3	282.55
959.8686	2317.5076	1164.05	280.4
960.0006	2318.941	1161.2	278.5
960.1327	2320.3737	1166.6	286.35
960.2647	2321.8056	1166.25	282.2
960.3967	2323.2369	1164	281.95
960.5287	2324.6674	1158.8	275.6
960.6606	2326.0972	1161.75	278.95
960.7925	2327.5263	1166	284.3
960.9244	2328.9547	1167.2	283.25
961.0562	2330.3823	1165.1	284.25
961.1881	2331.8092	1166.1	280.95
961.3198	2333.2355	1158.85	276.25
961.4516	2334.661	1158.45	274.75
961.5833	2336.0858	1155.15	270.6
961.715	2337.5098	1156.4	273.55
961.8467	2338.9332	1153.9	271.1
961.9783	2340.3558	1157.85	271.35
962.1099	2341.7778	1155.45	272.35
962.2415	2343.199	1150.85	266.75
962.373	2344.6195	1146	262.85
962.5045	2346.0393	1148.45	267.7
962.636	2347.4583	1148.05	265.15
962.7675	2348.8767	1141.45	256.45
962.8989	2350.2943	1146.5	263.1
963.0303	2351.7113	1151.55	269.1
963.1617	2353.1275	1145	261.9
963.293	2354.543	1165.2	257.35
963.4243	2355.9578	1140.65	257.35
963.5556	2357.3718	1142.45	259.05
963.6868	2358.7852	1141.6	256.3
963.818	2360.1978	1140.85	258.4
963.9492	2361.6098	1140.15	258.1
964.0803	2363.021	1140.8	254.5
964.2114	2364.4315	1134.4	252.9
964.3425	2365.8413	1142.35	254.65
964.4736	2367.2504	1132.35	253.15
964.6046	2368.6587	1137.1	253.2
964.7356	2370.0664	1136.65	253.6
964.8666	2371.4733	1131.4	248.4
964.9975	2372.8795	1136.45	253.35
965.1284	2374.285	1133.8	250.3
965.2593	2375.6899	1129.3	246.05
965.3901	2377.0939	1126	241.75
965.5209	2378.4973	1124.05	243.6
965.6517	2379.9	1124.4	241.75
965.7825	2381.3019	1130.65	248.2
965.9132	2382.7032	1124.6	242.45
966.0439	2384.1037	1123.2	242.4
966.1745	2385.5035	1122.3	239.4
966.3051	2386.9027	1123.45	240.4
966.4357	2388.3011	1127.9	242.85
966.5663	2389.6987	1121.55	237.2
966.6968	2391.0957	1117.25	233.25
966.8273	2392.492	1114.6	231.65
966.9578	2393.8876	1113.65	230.4
967.0882	2395.2824	1113.5	230.85
967.2186	2396.6765	1114.7	233.7
967.349	2398.07	1118.3	237.2
967.4793	2399.4627	1116.3	231.9
967.6097	2400.8547	1117.35	235.35
967.7399	2402.246	1114.65	227.05
967.8702	2403.6366	1108.65	226.3
968.0004	2405.0265	1107.35	222.3
968.1306	2406.4156	1113.5	226.75
968.2607	2407.8041	1110.7	222.95
968.3909	2409.1918	1111.05	225.7
968.521	2410.5789	1105.8	224.05
968.651	2411.9652	1112.7	227.6
968.781	2413.3508	1106.55	221.3
968.911	2414.7358	1107.1	223.85
969.041	2416.12	1100.2	218.55
969.1709	2417.5035	1100.8	218.7
969.3008	2418.8863	1098.8	213.2
969.4307	2420.2684	1107.7	226.7
969.5606	2421.6497	1098.5	214.5
969.6904	2423.0304	1093.6	212.1
969.8201	2424.4104	1096.55	213.65
969.9499	2425.7896	1101.9	214.05
970.0796	2427.1682	1097.2	214.85
970.2093	2428.546	1098.85	214.05
970.3389	2429.9232	1098.6	213.8
970.4685	2431.2996	1093.05	210.6
970.5981	2432.6753	1093.35	210.7
970.7277	2434.0503	1091.2	207.95
970.8572	2435.4246	1092.3	208.6
970.9867	2436.7982	1095.3	209.25
971.1161	2438.1711	1087.6	205.65
971.2456	2439.5433	1092.55	208.6
971.375	2440.9148	1094.15	205.65
971.5043	2442.2856	1085.55	203.05
971.6336	2443.6557	1090.55	206.35
971.7629	2445.025	1085.8	203.15
971.8922	2446.3937	1084	201.1
972.0214	2447.7617	1084.35	200.85
972.1506	2449.1289	1086.35	204.75
972.2798	2450.4955	1087.3	203.1
972.4089	2451.8613	1085.9	204.75
972.538	2453.2265	1083.75	201.8
972.6671	2454.5909	1081.65	197.45
972.7961	2455.9546	1088.3	207.35
972.9251	2457.3177	1081.3	198.85
973.0541	2458.68	1082.85	197.45
973.1831	2460.0416	1082.9	198.3
973.312	2461.4025	1082.15	198.3
973.4408	2462.7627	1090.35	194.15
973.5697	2464.1222	1074.55	192.3
973.6985	2465.4811	1076.4	193.15
973.8273	2466.8392	1080.6	197.85
973.956	2468.1966	1081.75	197.75
974.0847	2469.5533	1079.1	192.15
974.2134	2470.9093	1082.05	198.55
974.3421	2472.2645	1077.35	193.8
974.4707	2473.6191	1073.9	191.35
974.5993	2474.973	1075.65	190.8
974.7278	2476.3262	1078.5	193.95
974.8563	2477.6787	1072.2	190.6
974.9848	2479.0305	1070.5	188.3
975.1132	2480.3816	1076.15	191.1
975.2417	2481.7319	1068.35	185.6
975.37	2483.0816	1074.15	190.1
975.4984	2484.4306	1066.45	179.8
975.6267	2485.7789	1070.65	188.05
975.755	2487.1264	1072.25	187.6
975.8833	2488.4733	1067.2	186.55
976.0115	2489.8195	1084.75	185.65
976.1397	2491.165	1069.4	183.05
976.2678	2492.5097	1068.65	183.75
976.3959	2493.8538	1059.3	177.65
976.524	2495.1972	1063.6	180.15
976.6521	2496.5398	1065.25	181.85
976.7801	2497.8818	1066.55	182.4
976.9081	2499.2231	1063.2	179.3
977.036	2500.5637	1060.4	174.55
977.164	2501.9035	1062.5	176.9
977.2918	2503.2427	1064	177.1
977.4197	2504.5812	1058.65	174.75
977.5475	2505.919	1062.55	177.95
977.6753	2507.256	1059.25	176.5
977.8031	2508.5924	1061	177.7
977.9308	2509.9281	1064.65	176.55
978.0585	2511.2631	1061.25	179.6
978.1861	2512.5974	1057.75	176.9
978.3137	2513.9309	1057.05	172.35
978.4413	2515.2638	1083.65	170.5
978.5689	2516.596	1054.4	172.2
978.6964	2517.9275	1056.2	171.65
978.8239	2519.2583	1054	168.8
978.9513	2520.5884	1056.85	171.2
979.0788	2521.9178	1051.2	167.6
979.2062	2523.2465	1053.6	171.6
979.3335	2524.5745	1053.1	171.05
979.4608	2525.9018	1052.05	168.45
979.5881	2527.2284	1048.45	167
979.7154	2528.5543	1046.15	167.7
979.8426	2529.8796	1048	165.8
979.9698	2531.2041	1049.8	166.75
980.0969	2532.5279	1045.7	163.95
980.224	2533.851	1051.05	168.95
980.3511	2535.1735	1044.3	162.5
980.4781	2536.4952	1044.5	161.7
980.6052	2537.8163	1046.7	160.85
980.7321	2539.1366	1042	158.7
980.8591	2540.4562	1047.65	162.7
980.986	2541.7752	1044.8	161.35
981.1129	2543.0935	1044.65	162.75
981.2397	2544.411	1041.7	157.8
981.3665	2545.7279	1043.05	162.3
981.4933	2547.0441	1039	157.15
981.62	2548.3596	1044.1	157.4
981.7467	2549.6744	1042.25	158.9
981.8734	2550.9885	1040.8	154.3
982.0001	2552.3019	1041	159
982.1267	2553.6146	1042.1	158.15
982.2532	2554.9266	1040.45	156.55
982.3798	2556.2379	1043.35	158.6
982.5063	2557.5485	1036.05	154.85
982.6327	2558.8585	1043.65	153.1
982.7592	2560.1677	1042.25	155.1
982.8856	2561.4762	1038.7	154.5
983.0119	2562.7841	1038.6	153.7
983.1383	2564.0913	1034.2	154.25
983.2646	2565.3977	1037.2	155.4
983.3908	2566.7035	1037.2	155.05
983.517	2568.0086	1034.35	149.4
983.6432	2569.313	1032	148.55
983.7694	2570.6167	1041.25	154.3
983.8955	2571.9197	1030.5	147
984.0216	2573.222	1039.4	153.8
984.1476	2574.5236	1030.55	146.95
984.2737	2575.8246	1032.65	148.55
984.3996	2577.1248	1033.2	147.9
984.5256	2578.4244	1035.1	151.7
984.6515	2579.7232	1032.55	148.85
984.7774	2581.0214	1061.7	148.1
984.9032	2582.3189	1030.6	149.1
985.029	2583.6157	1043.8	148.35
985.1548	2584.9118	1028.3	144.4
985.2806	2586.2072	1028.35	147.15
985.4063	2587.5019	1026.4	145.25
985.5319	2588.7959	1029.75	146.4
985.6576	2590.0893	1027.75	142.1
985.7832	2591.3819	1030.05	147.6
985.9087	2592.6739	1025.45	144.05
986.0343	2593.9652	1026.95	142.5
986.1597	2595.2557	1024.55	141.8
986.2852	2596.5456	1029.5	144.3
986.4106	2597.8348	1026.6	144.7
986.536	2599.1234	1023.95	141.25
986.6614	2600.4112	1030.05	147.1
986.7867	2601.6983	1025.15	137.8
986.912	2602.9848	1021.95	140.85
987.0372	2604.2705	1032	141.8
987.1624	2605.5556	1023.85	141.25
987.2876	2606.84	1018.15	135.95
987.4128	2608.1237	1023.5	139.2
987.5379	2609.4067	1021.65	136.45
987.6629	2610.689	1029.5	136.8
987.788	2611.9707	1023.2	137.4
987.913	2613.2516	1022.1	136.95
988.0379	2614.5319	1014.75	130.4
988.1629	2615.8115	1017.3	133.45
988.2878	2617.0903	1015.95	132.9
988.4126	2618.3685	1016.05	133.6
988.5375	2619.6461	1012.6	128.15
988.6622	2620.9229	1011.8	129.55
988.787	2622.199	1014.7	130.65
988.9117	2623.4745	1015.35	130.4
989.0364	2624.7493	1011.75	129.9
989.161	2626.0234	1015.7	134.5
989.2857	2627.2968	1010.3	127.05
989.4102	2628.5695	1009.85	126.6
989.5348	2629.8415	1009.45	125.5
989.6593	2631.1128	1014.4	129.95
989.7837	2632.3835	1007.25	125.55
989.9082	2633.6535	1009.8	128.7
990.0326	2634.9228	1010.2	126.4
990.1569	2636.1914	1011.1	128.7
990.2812	2637.4593	1008.85	125.35
990.4055	2638.7265	1006.4	122.5
990.5298	2639.9931	1007.5	124.65
990.654	2641.259	1002.9	119.85
990.7782	2642.5242	1004.8	121.75
990.9023	2643.7887	1006.85	122.3
991.0264	2645.0525	1004.85	123.45
991.1505	2646.3156	1019.3	123.2
991.2745	2647.5781	1000.25	119.3
991.3985	2648.8398	1001.5	118.5
991.5225	2650.1009	1023.65	115.5
991.6464	2651.3613	1000.7	115.35
991.7703	2652.6211	998.55	115.9
991.8942	2653.8801	1000.5	117.2
992.018	2655.1385	1005.5	121.05
992.1418	2656.3961	997.65	113.7
992.2655	2657.6531	1000.1	118.9
992.3892	2658.9094	1000.95	116.9
992.5129	2660.1651	996.65	114.5
992.6366	2661.42	998.4	114.75
992.7602	2662.6743	1000.95	117.15
992.8837	2663.9279	996.75	114
993.0073	2665.1808	999.15	114.8
993.1307	2666.433	998.4	114.05
993.2542	2667.6846	998.3	117.05
993.3776	2668.9354	1005.65	118.7
993.501	2670.1856	997.2	113.85
993.6244	2671.4351	997.4	113.35
993.7477	2672.6839	1002.95	118
993.8709	2673.9321	995.25	114.3
993.9942	2675.1795	1000.05	115.7
994.1174	2676.4263	994.7	112.45
994.2405	2677.6724	998.9	116.75
994.3637	2678.9179	994.45	111.65
994.4868	2680.1626	998.25	115.6
994.6098	2681.4067	998.25	115.2
994.7328	2682.6501	990.8	107.65
994.8558	2683.8928	994.1	111.05
994.9788	2685.1348	991	109
995.1017	2686.3761	993.2	109.55
995.2245	2687.6168	992.9	111.25
995.3474	2688.8568	991.25	108
995.4702	2690.0961	987.75	105.75
995.5929	2691.3348	987.75	104.6
995.7156	2692.5727	986.8	104.6
995.8383	2693.81	989.5	107.35
995.961	2695.0466	984.9	105.75
996.0836	2696.2826	994.5	110.3
996.2062	2697.5178	992.1	105.55
996.3287	2698.7524	990.15	108
996.4512	2699.9863	988.9	104.45
996.5737	2701.2195	984.15	102.05
996.6961	2702.452	989.55	104.9
996.8185	2703.6839	988.05	104.4
996.9408	2704.9151	985.35	103
997.0631	2706.1456	987.1	102.1
997.1854	2707.3755	985.7	104.25
997.3077	2708.6046	988.15	102.1
997.4299	2709.8331	988.3	103.85
997.552	2711.0609	988.1	106.2
997.6742	2712.2881	988.95	104.95
997.7963	2713.5145	992	107.1
997.9183	2714.7403	985.8	103.75
998.0403	2715.9654	991.55	108.7
998.1623	2717.1899	1002.05	104.6
998.2842	2718.4136	987	105.7
998.4062	2719.6367	985.9	101.65
998.528	2720.8591	995.1	105.4
998.6498	2722.0809	988.4	104
998.7716	2723.3019	992.95	108.2
998.8934	2724.5223	989.05	105.4
999.0151	2725.7421	992	109.9
999.1368	2726.9611	990.75	105.9
999.2584	2728.1795	992.8	104.05
999.38	2729.3972	986.1	103.55
999.5016	2730.6142	993.7	104.35
999.6231	2731.8306	984.4	99.15
999.7446	2733.0462	988.2	103.35
999.8661	2734.2612	985.15	98.2
999.9875	2735.4756	983.25	99
1000.1089	2736.6892	981	98.9
1000.2302	2737.9022	976.25	94.45
1000.3515	2739.1145	980	97.3
1000.4728	2740.3262	985.9	95
1000.594	2741.5372	977	95.3
1000.7152	2742.7475	975.35	91.55
1000.8363	2743.9571	976.85	90.65
1000.9575	2745.1661	977.95	92.1
1001.0785	2746.3744	972	88.7
1001.1996	2747.582	975.5	93.25
1001.3206	2748.7889	971.35	88.35
1001.4415	2749.9952	970.45	87.45
1001.5625	2751.2008	973.85	90.7
1001.6833	2752.4057	973.2	88.4
1001.8042	2753.61	971.3	87.6
1001.925	2754.8136	970.45	86.1
1002.0458	2756.0165	966.95	85.25
1002.1665	2757.2188	967.95	86.7
1002.2872	2758.4204	965.45	84.35
1002.4078	2759.6213	968.55	83.7
1002.5285	2760.8215	972.7	85
1002.649	2762.0211	971.1	85.8
1002.7696	2763.22	971.05	86.15
1002.8901	2764.4182	971.05	86.75
1003.0106	2765.6158	966.65	82.15
1003.131	2766.8127	963.2	80.7
1003.2514	2768.009	966.9	85.5
1003.3717	2769.2045	965.6	82.65
1003.492	2770.3994	965	78.9
1003.6123	2771.5936	965.85	83.6
1003.7325	2772.7872	964.3	80.6
1003.8527	2773.9801	965.4	80.25
1003.9729	2775.1723	980.6	81.55
1004.093	2776.3639	965.65	82.5
1004.2131	2777.5548	965.1	82
1004.3331	2778.745	962.15	78.65
1004.4531	2779.9346	958.75	77.25
1004.5731	2781.1235	963.1	79.75
1004.693	2782.3117	961.55	78.4
1004.8129	2783.4992	962.4	79.5
1004.9328	2784.6861	959.95	78.55
1005.0526	2785.8723	963.95	76.85
1005.1723	2787.0579	961.4	78.1
1005.2921	2788.2428	962.1	79.6
1005.4118	2789.427	961.3	76.7
1005.5314	2790.6106	960.5	79.3
1005.651	2791.7935	961.4	74.65
1005.7706	2792.9757	961.15	78.7
1005.8902	2794.1573	959.2	75.35
1006.0097	2795.3382	961.6	80.4
1006.1291	2796.5184	958.8	77.95
1006.2485	2797.698	960.65	75.3
1006.3679	2798.8769	958.75	78
1006.4873	2800.0551	960.3	76.35
1006.6066	2801.2327	964.7	79.4
1006.7258	2802.4096	960.3	79.45
1006.8451	2803.5859	961.4	77.75
1006.9642	2804.7615	957.75	74.35
1007.0834	2805.9364	957.55	75.25
1007.2025	2807.1106	960.05	77.3
1007.3216	2808.2842	962.25	79.45
1007.4406	2809.4572	963	77.85
1007.5596	2810.6294	965.05	80.65
1007.6785	2811.801	961.2	79.7
1007.7975	2812.972	964.45	83.2
1007.9163	2814.1423	967.1	83.85
1008.0352	2815.3119	969.2	88.65
1008.154	2816.4808	968.75	87.75
1008.2727	2817.6491	971.25	88.3
1008.3914	2818.8167	970.3	88.6
1008.5101	2819.9837	979.85	93.45
1008.6288	2821.15	976.55	93.65
1008.7474	2822.3157	980.5	97.95
1008.8659	2823.4807	990.7	108.45
1008.9844	2824.645	992.55	108.1
1009.1029	2825.8086	991.6	110.55
1009.2214	2826.9716	1004.15	120.55
1009.3398	2828.134	1010.1	128.45
1009.4581	2829.2957	1015.65	132.4
1009.5764	2830.4567	1012.8	130.6
1009.6947	2831.617	1026	140.55
1009.813	2832.7767	1024.1	142.3
1009.9312	2833.9358	1023.7	142.65
1010.0493	2835.0941	1024.05	140.65
1010.1675	2836.2519	1023.8	139.55
1010.2855	2837.4089	1017.4	133.2
1010.4036	2838.5653	1015	132.9
1010.5216	2839.7211	1009.2	129.25
1010.6396	2840.8761	1013.3	128.4
1010.7575	2842.0306	1006.15	125.05
1010.8754	2843.1843	1008.1	125.55
1010.9932	2844.3374	1010.9	129.65
1011.111	2845.4899	1012	126.6
1011.2288	2846.6417	1010.95	129
1011.3465	2847.7928	1011.55	129.85
1011.4642	2848.9433	1017.15	135.35
1011.5818	2850.0931	1019.25	137.95
1011.6995	2851.2422	1018.15	134.65
1011.817	2852.3907	1017.4	133.15
1011.9345	2853.5385	1014.3	130.25
1012.052	2854.6857	1025.15	133.65
1012.1695	2855.8323	1020.85	140.4
1012.2869	2856.9781	1019	135.35
1012.4042	2858.1233	1023.8	141.15
1012.5216	2859.2679	1023.6	139.85
1012.6389	2860.4118	1024.75	141.7
1012.7561	2861.555	1033.9	146.05
1012.8733	2862.6976	1030.25	147.2
1012.9905	2863.8395	1035.1	153.05
1013.1076	2864.9808	1031.55	148.8
1013.2247	2866.1214	1032.35	150.55
1013.3417	2867.2614	1036.8	154
1013.4587	2868.4007	1038.95	156.05
1013.5757	2869.5393	1040.1	156.05
1013.6926	2870.6773	1041.15	157.15
1013.8095	2871.8146	1040	154.4
1013.9263	2872.9513	1044.4	159
1014.0431	2874.0874	1042.5	160.65
1014.1599	2875.2227	1047.05	163.35
1014.2766	2876.3574	1048.05	165.8
1014.3933	2877.4915	1046.65	163.8
1014.51	2878.6249	1045.95	166.25
1014.6266	2879.7577	1050	166.35
1014.7431	2880.8898	1059.95	167
1014.8596	2882.0212	1054.75	171.8
1014.9761	2883.152	1054.2	173.3
1015.0925	2884.2821	1054.85	173
1015.2089	2885.4116	1059.6	177.05
1015.3253	2886.5405	1060.6	177.6
1015.4416	2887.6686	1065.7	180.65
1015.5579	2888.7962	1056.05	175.4
1015.6741	2889.923	1061.3	179.5
1015.7903	2891.0493	1058.95	175.85
1015.9065	2892.1748	1062.05	177.9
1016.0226	2893.2997	1058.05	174.15
1016.1387	2894.424	1059	178.95
1016.2547	2895.5476	1060.5	177.9
1016.3707	2896.6706	1058.75	176.3
1016.4866	2897.7929	1064.3	181.9
1016.6025	2898.9145	1065.5	182.75
1016.7184	2900.0355	1058.75	176.35
1016.8342	2901.1559	1060.1	176.15
1016.95	2902.2756	1060.9	175.55
1017.0658	2903.3946	1057.7	176.75
1017.1815	2904.513	1060.65	173.7
1017.2971	2905.6308	1055	170.2
1017.4127	2906.7479	1055.35	172.1
1017.5283	2907.8643	1053.15	169.6
1017.6439	2908.9801	1055.75	171.85
1017.7594	2910.0953	1057.55	175.5
1017.8748	2911.2098	1059.85	174.6
1017.9902	2912.3236	1062	170.65
1018.1056	2913.4368	1054.75	170.55
1018.2209	2914.5494	1050.7	167.85
1018.3362	2915.6613	1054.75	165.4
1018.4515	2916.7725	1051	166.2
1018.5667	2917.8831	1049.1	165
1018.6819	2918.9931	1046.6	162.9
1018.797	2920.1024	1043.25	159.6
1018.9121	2921.211	1042.05	157.2
1019.0271	2922.319	1042.6	160.25
1019.1421	2923.4264	1038.45	156.55
1019.2571	2924.5331	1035.1	154.1
1019.372	2925.6391	1036.05	153.15
1019.4869	2926.7445	1037.2	156.9
1019.6017	2927.8493	1037.8	153.95
1019.7165	2928.9534	1037.55	153.9
1019.8313	2930.0569	1042.3	155.9
1019.946	2931.1597	1037.95	154.45
1020.0606	2932.2619	1032.8	150.25
1020.1753	2933.3634	1042.2	160.3
1020.2899	2934.4643	1047.8	156.6
1020.4044	2935.5645	1050.35	164.95
1020.5189	2936.6641	1048.45	160.8
1020.6334	2937.763	1041.5	159.95
1020.7478	2938.8613	1045.45	164.2
1020.8622	2939.959	1041.65	155.15
1020.9765	2941.056	1037.2	156.45
1021.0908	2942.1523	1042	156.95
1021.2051	2943.248	1030.75	147.6
1021.3193	2944.3431	1022.05	139.8
1021.4334	2945.4375	1013.15	129
1021.5476	2946.5313	1007.95	127.35
1021.6617	2947.6244	1008.15	125.9
1021.7757	2948.7169	999.25	116.55
1021.8897	2949.8087	992.9	111
1022.0037	2950.8999	987.8	104.75
1022.1176	2951.9904	984.4	102.55
1022.2315	2953.0803	980.8	97.7
1022.3453	2954.1696	978.1	95.3
1022.4591	2955.2582	973.9	93.15
1022.5728	2956.3462	972.3	88.7
1022.6865	2957.4335	975.45	91.8
1022.8002	2958.5202	974.8	90.2
1022.9138	2959.6062	969.6	86.2
1023.0274	2960.6916	968	86.55
1023.141	2961.7764	971.6	87.65
1023.2545	2962.8605	970.7	86.1
1023.3679	2963.9439	968.95	86.8
1023.4813	2965.0267	973.8	87.75
1023.5947	2966.1089	992.3	87.1
1023.708	2967.1905	969.1	85.95
1023.8213	2968.2714	969.8	87.3
1023.9346	2969.3516	967.35	87.15
1024.0478	2970.4312	978.9	89.7
1024.1609	2971.5102	966.65	84.35
1024.274	2972.5885	967.5	86.5
1024.3871	2973.6662	972	83.95
1024.5002	2974.7432	966.9	83.85
1024.6132	2975.8196	965.2	83.3
1024.7261	2976.8954	967.6	85.9
1024.839	2977.9705	966.75	83.75
1024.9519	2979.045	968.3	86.5
1025.0647	2980.1188	964.7	82.6
1025.1775	2981.192	962.35	83.05
1025.2902	2982.2645	967.75	83.05
1025.4029	2983.3364	965.4	82.65
1025.5156	2984.4077	960.05	77.2
1025.6282	2985.4783	966.05	77.75
1025.7407	2986.5483	955.75	73.35
1025.8532	2987.6177	958.45	77.5
1025.9657	2988.6864	953.25	69.6
1026.0782	2989.7545	950.9	66.15
1026.1906	2990.8219	952	71.55
1026.3029	2991.8887	951.85	66.85
1026.4152	2992.9548	949.55	64.5
1026.5275	2994.0204	944.5	61.95
1026.6397	2995.0852	944.6	64.95
1026.7519	2996.1495	942.8	58.65
1026.864	2997.2131	939.1	56.5
1026.9761	2998.276	936.5	53.85
1027.0882	2999.3383	934.75	50.6
1027.2002	3000.4	935	51.35
1027.3122	3001.4611	934.7	54.2
1027.4241	3002.5215	931.9	48.15
1027.536	3003.5812	928.4	45.95
1027.6478	3004.6404	929.35	46.3
1027.7596	3005.6989	930.5	47.15
1027.8714	3006.7567	927.05	45.5
1027.9831	3007.8139	946.85	45.05
1028.0947	3008.8705	927.15	44.4
1028.2064	3009.9264	942.05	43.3
1028.3179	3010.9818	923.65	41.65
1028.4295	3012.0364	927.1	43.75
1028.541	3013.0905	924.3	41.05
1028.6524	3014.1439	923.35	41.35
1028.7638	3015.1966	925.65	44.05
1028.8752	3016.2487	921.9	41.65
1028.9865	3017.3002	926.6	38.4
1029.0978	3018.3511	921.75	41.4
1029.209	3019.4013	918.95	37.15
1029.3202	3020.4509	919.95	39.95
1029.4314	3021.4998	922.05	39.1
1029.5425	3022.5481	923.2	41.45
1029.6535	3023.5958	918.35	35.7
1029.7645	3024.6428	920.9	38.6
1029.8755	3025.6892	919.35	37.95
1029.9864	3026.735	921.6	39.6
1030.0973	3027.7802	920.75	38.65
1030.2082	3028.8247	921.25	37.1
1030.319	3029.8685	919.7	35.95
1030.4297	3030.9118	920.45	38.45
1030.5404	3031.9544	919.9	36.5
1030.6511	3032.9963	920.75	38.95
1030.7617	3034.0376	919.9	36.3
1030.8723	3035.0783	923.15	37.05
1030.9829	3036.1184	921.3	38.55
1031.0934	3037.1578	918.85	37.75
1031.2038	3038.1966	920.85	37.45
1031.3142	3039.2348	919	35.7
1031.4246	3040.2723	929.25	37.75
1031.5349	3041.3092	917.95	36.85
1031.6452	3042.3455	918.4	35.6
1031.7554	3043.3811	919.4	37.25
1031.8656	3044.4161	921.65	38.95
1031.9758	3045.4505	919.85	40.45
1032.0859	3046.4842	917.85	34.5
1032.1959	3047.5173	916.8	35.1
1032.3059	3048.5498	921	39.1
1032.4159	3049.5816	920.1	38.75
1032.5258	3050.6128	921.45	38.45
1032.6357	3051.6434	921.7	36.25
1032.7455	3052.6734	919.05	34.85
1032.8553	3053.7027	916.75	34.95
1032.9651	3054.7314	917.55	35.6
1033.0748	3055.7594	919.3	37.4
1033.1845	3056.7868	920.2	35.75
1033.2941	3057.8136	918.55	36.2
1033.4037	3058.8398	918.75	37.9
1033.5132	3059.8653	919.55	38.05
1033.6227	3060.8902	918.15	35
1033.7321	3061.9145	919.15	37.15
1033.8415	3062.9381	920.3	36.65
1033.9509	3063.9612	936.8	37.9
1034.0602	3064.9835	919.6	36.25
1034.1694	3066.0053	922.85	39.05
1034.2787	3067.0264	920.05	39.4
1034.3878	3068.0469	921.65	37.5
1034.497	3069.0668	923.1	38.25
1034.6061	3070.086	919.6	39.3
1034.7151	3071.1046	923.45	38.45
1034.8241	3072.1226	917.75	33.55
1034.9331	3073.1399	916.5	33.4
1035.042	3074.1567	916.25	34.45
1035.1508	3075.1727	919.8	35.25
1035.2597	3076.1882	916.15	33.95
1035.3684	3077.203	915.4	33.35
1035.4772	3078.2173	919.25	34.55
1035.5859	3079.2308	917.85	33.7
1035.6945	3080.2438	919.05	33.45
1035.8031	3081.2561	917.25	33.2
1035.9117	3082.2678	914.85	32.95
1036.0202	3083.2789	914.2	32.35
1036.1286	3084.2893	912.6	31.6
1036.2371	3085.2991	913.85	30.9
1036.3454	3086.3083	915.65	29.45
1036.4538	3087.3169	915	31.25
1036.562	3088.3248	913.6	27.85
1036.6703	3089.3321	915.05	30.55
1036.7785	3090.3388	909.9	26.55
1036.8866	3091.3449	913.25	32
1036.9948	3092.3503	916.25	30.2
1037.1028	3093.3551	910.05	30.7
1037.2108	3094.3593	909.8	29.15
1037.3188	3095.3629	912.75	31.35
1037.4267	3096.3658	910.9	26.65
1037.5346	3097.3681	909.5	26.65
1037.6425	3098.3698	911.5	27.75
1037.7503	3099.3708	918.45	31.2
1037.858	3100.3713	908.4	27.05
1037.9657	3101.3711	910	26.7
1038.0734	3102.3702	1045.3	29.05
1038.181	3103.3688	910.05	26.35
1038.2886	3104.3667	906.85	25.25
1038.3961	3105.364	908.2	27
1038.5036	3106.3607	909.8	26.75
1038.611	3107.3568	909.55	27.05
1038.7184	3108.3522	906.15	26.25
1038.8257	3109.347	908	26.2
1038.933	3110.3412	911.7	24.75
1039.0403	3111.3348	907.3	24.55
1039.1475	3112.3277	904.9	23.8
1039.2547	3113.32	904.8	22.75
1039.3618	3114.3117	906.05	22.65
1039.4689	3115.3028	906.65	23.7
1039.5759	3116.2932	906.5	23.5
1039.6829	3117.2831	911.3	26
1039.7898	3118.2723	905.25	23.95
1039.8967	3119.2608	905.1	23.5
1040.0035	3120.2488	907.2	24.05
1040.1103	3121.2361	904.2	21.9
1040.2171	3122.2229	903.6	21.4
1040.3238	3123.209	904.75	21.45
1040.4305	3124.1944	904.15	21.05
1040.5371	3125.1793	905.3	19.1
1040.6437	3126.1635	901.25	20.95
1040.7502	3127.1471	902.95	20.35
1040.8567	3128.1301	904.2	23.95
1040.9631	3129.1125	903.1	20.25
1041.0695	3130.0942	904.55	23.5
1041.1759	3131.0753	913.8	22.45
1041.2822	3132.0558	906.9	23.7
1041.3884	3133.0357	904.8	20.65
1041.4946	3134.015	902.65	18.85
1041.6008	3134.9936	905.4	20.8
1041.7069	3135.9716	925.6	21
1041.813	3136.949	904.05	20.85
1041.919	3137.9258	919.95	19.95
1042.025	3138.902	907.1	20.8
1042.1309	3139.8775	900.75	17.8
1042.2368	3140.8524	903.35	19.05
1042.3427	3141.8267	902.6	18.6
1042.4485	3142.8004	904	23.55
1042.5542	3143.7735	908.5	19.95
1042.6599	3144.7459	903.4	18
1042.7656	3145.7178	903.45	19.7
1042.8712	3146.689	899.45	19.95
1042.9768	3147.6596	903.6	20.1
1043.0823	3148.6295	899.9	16.45
1043.1878	3149.5989	900.9	18.3
1043.2932	3150.5676	898.6	17.65
1043.3986	3151.5357	901.85	19.9
1043.5039	3152.5032	902	19.3
1043.6092	3153.4701	900.05	18.5
1043.7145	3154.4364	904.7	19.75
1043.8197	3155.402	899.6	20.2
1043.9248	3156.367	902.65	18.85
1044.03	3157.3315	936.75	19
1044.135	3158.2952	900.3	19.3
1044.24	3159.2584	899.5	19
1044.345	3160.221	901.85	20.95
1044.4499	3161.1829	897.7	14.8
1044.5548	3162.1442	898.95	17.65
1044.6596	3163.105	899.95	16.75
1044.7644	3164.065	901.05	19.6
1044.8692	3165.0245	903.85	20.25
1044.9739	3165.9834	898.95	18.35
1045.0785	3166.9416	900.35	21.1
1045.1831	3167.8993	901.4	18.5
1045.2877	3168.8563	899.35	15.35
1045.3922	3169.8127	897.4	15.65
1045.4966	3170.7684	899	16.25
1045.6011	3171.7236	901.3	16.15
1045.7054	3172.6782	898.8	15.4
1045.8098	3173.6321	898.95	16.55
1045.914	3174.5854	902.9	15.65
1046.0183	3175.5381	898.4	17.75
1046.1224	3176.4902	894.95	12.3
1046.2266	3177.4417	899.7	17.1
1046.3307	3178.3926	898.05	16.95
1046.4347	3179.3428	898.2	18.6
1046.5387	3180.2924	896.6	13.8
1046.6427	3181.2415	898.85	15.65
1046.7466	3182.1899	899.15	14.6
1046.8504	3183.1377	897.7	16.2
1046.9542	3184.0848	901.35	14.85
1047.058	3185.0314	897.4	16.6
1047.1617	3185.9773	897.55	14.05
1047.2654	3186.9227	897.35	13.1
1047.369	3187.8674	898.8	15.75
1047.4726	3188.8115	900.7	12.95
1047.5761	3189.755	897.2	15.5
1047.6796	3190.6979	896.9	16.15
1047.783	3191.6402	897.2	15.75
1047.8864	3192.5818	895.6	14.05
1047.9898	3193.5229	903.35	15.85
1048.0931	3194.4633	896.7	15.25
1048.1963	3195.4031	896.75	13.7
1048.2995	3196.3423	896.85	14
1048.4027	3197.2809	894.6	13.7
1048.5058	3198.2189	896.65	13.05
1048.6089	3199.1563	902.7	13.65
1048.7119	3200.0931	894.85	13.2
1048.8148	3201.0292	896.65	15.55
1048.9178	3201.9648	896.7	14.05
1049.0206	3202.8997	899.35	14.2
1049.1235	3203.834	894.9	11.6
1049.2262	3204.7677	895.7	15.5
1049.329	3205.7008	896.95	12
1049.4317	3206.6333	892.65	10.7
1049.5343	3207.5652	898.9	12.6
1049.6369	3208.4964	896.5	13.2
1049.7394	3209.4271	896	14.25
1049.8419	3210.3571	894.85	12.85
1049.9444	3211.2865	896.95	14.4
1050.0468	3212.2154	895	11.45
1050.1491	3213.1436	899.1	14.15
1050.2514	3214.0712	903.25	14.1
1050.3537	3214.9982	894.35	12.65
1050.4559	3215.9246	895.95	13.15
1050.5581	3216.8503	894.45	12.8
1050.6602	3217.7755	895.15	11.45
1050.7623	3218.7001	894.25	13.6
1050.8643	3219.624	895.2	12.4
1050.9663	3220.5473	894.2	12.5
1051.0682	3221.4701	899.1	15.5
1051.1701	3222.3922	896.95	12.9
1051.2719	3223.3137	896	14.1
1051.3737	3224.2346	894.9	11.9
1051.4754	3225.1549	895.25	13.15
1051.5771	3226.0746	893.95	11.75
1051.6788	3226.9937	893.25	10.1
1051.7804	3227.9121	893.65	14.05
1051.8819	3228.83	895.3	13.25
1051.9834	3229.7473	894.7	12.4
1052.0849	3230.6639	893.65	11.35
1052.1863	3231.5799	892.65	8.5
1052.2876	3232.4954	893.85	8.25
1052.3889	3233.4102	893.65	10.75
1052.4902	3234.3244	894.75	10.55
1052.5914	3235.238	891.3	10.65
1052.6926	3236.151	917.85	9.65
1052.7937	3237.0634	891.7	9.75
1052.8948	3237.9752	891.6	9.65
1052.9958	3238.8864	892.4	8.05
1053.0968	3239.797	893.35	13.35
1053.1977	3240.7069	893.5	8.9
1053.2986	3241.6163	894.6	12.25
1053.3994	3242.5251	891.75	10.9
1053.5002	3243.4332	891.45	10.4
1053.6009	3244.3408	892.25	9.6
1053.7016	3245.2477	892.95	10.6
1053.8022	3246.154	892.35	11.1
1053.9028	3247.0598	892.35	9.85
1054.0034	3247.9649	892.7	10.55
1054.1039	3248.8694	894.95	12.6
1054.2043	3249.7733	892.35	10.8
1054.3047	3250.6766	892.1	9.6
1054.4051	3251.5793	894.5	10.35
1054.5054	3252.4814	889.9	7.3
1054.6056	3253.3829	892.3	7.85
1054.7058	3254.2838	892.7	10.8
1054.806	3255.1841	892.25	10.2
1054.9061	3256.0838	892.25	10.75
1055.0061	3256.9829	893	13.2
1055.1062	3257.8814	893.95	9.7
1055.2061	3258.7792	894.8	10.65
1055.306	3259.6765	891.8	7.2
1055.4059	3260.5731	890	9.7
1055.5057	3261.4692	891.05	8.2
1055.6055	3262.3647	891.6	8.25
1055.7052	3263.2595	890.9	8
1055.8049	3264.1538	891.7	10
1055.9045	3265.0474	891.8	7.4
1056.0041	3265.9404	890.55	8
1056.1036	3266.8329	891.2	8.85
1056.2031	3267.7247	899.85	6.2
1056.3025	3268.616	890.3	8.85
1056.4019	3269.5066	890.7	9.7
1056.5013	3270.3966	893.25	8.65
1056.6005	3271.286	888.05	7.5
