Software Version:	3.9.2.0
Unit SN:	10000200
Spectrometer SN:	6960
Date:	3/26/2024 2:13:37 PM
Data Line Index:	25
Spectral Points:	2048
Integration time (ms):	125
Averages:	20
Delay (ms):	30000
Sequence Number:	1
Processing:	dark subtract
Laser Power (mW):	305
Laser Current (mA):	819
Laser Diode Temp (C):	25.1
Laser Case Temp (C):	27.6
System Temp (C):	27.6
Spectrometer Temp (C):	25.4
CCD Temp (C):	0.007
Secondary Temp (C):	20.007
Heatsink Temp (C):	22.839
CCDPCB Temp (C):	37.029
SecondaryPCB Temp (C):	34.606

Wavelength	RamanShift	Raw Counts	Dark Subtracted
787.061	30.1047	680.95	269.95
787.2016	32.3739	692.35	282.8
787.3422	34.6426	709.4	299.45
787.4828	36.9109	731.9	320.55
787.6235	39.1787	758.1	342.85
787.7642	41.4461	785.5	364.85
787.9049	43.7131	814.85	392.05
788.0456	45.9796	840.95	413.35
788.1863	48.2456	869.3	438.4
788.3271	50.5112	902.4	466.55
788.4679	52.7764	935.9	499.55
788.6087	55.0411	964.4	521.45
788.7496	57.3054	1000.5	554
788.8904	59.5692	1039.15	590.75
789.0313	61.8326	1081.45	628.5
789.1722	64.0955	1122.6	666
789.3132	66.3579	1188.85	728.4
789.4541	68.6199	1242.1	778.1
789.5951	70.8815	1358.65	890.9
789.7361	73.1426	1592.6	1121
789.8771	75.4032	2163.15	1686.15
790.0181	77.6634	3612.5	3128.4
790.1592	79.9231	7233.7	6739.8
790.3003	82.1824	15612.9	15098.55
790.4414	84.4412	38114.05	37568.05
790.5825	86.6995	64494.3	63900.3
790.7237	88.9574	65535	64893.6
790.8648	91.2148	65535	64865.4
791.006	93.4717	65535	64848
791.1472	95.7282	65535	64831.5
791.2885	97.9842	65535	64829
791.4297	100.2398	65535	64822.75
791.571	102.4949	65535	64823.7
791.7123	104.7495	65535	64824.25
791.8536	107.0036	65535	64821.2
791.9949	109.2573	65535	64817.2
792.1363	111.5105	65535	64817.15
792.2777	113.7632	65535	64814.85
792.4191	116.0154	65535	64806
792.5605	118.2672	65535	64811.25
792.7019	120.5185	65535	64806.05
792.8434	122.7693	65535	64802.85
792.9849	125.0197	65535	64807.1
793.1264	127.2696	65535	64800.6
793.2679	129.519	65535	64795.5
793.4094	131.7679	65535	64794.9
793.551	134.0163	65535	64787.4
793.6926	136.2642	65535	64789.05
793.8342	138.5117	65535	64785.45
793.9758	140.7587	65535	64784.45
794.1175	143.0052	65535	64780.7
794.2591	145.2512	65535	64779.65
794.4008	147.4967	65535	64780.95
794.5425	149.7417	65535	64778.65
794.6842	151.9863	65535	64770.75
794.826	154.2304	65535	64770.1
794.9677	156.4739	65535	64763.9
795.1095	158.717	65535	64763.35
795.2513	160.9596	65535	64758.7
795.3931	163.2017	65535	64760.3
795.535	165.4433	65535	64755.25
795.6768	167.6844	65535	64757.1
795.8187	169.925	65535	64754.85
795.9606	172.1651	65535	64756.55
796.1025	174.4047	65535	64749.65
796.2445	176.6439	65535	64752.15
796.3864	178.8825	65535	64747.95
796.5284	181.1206	65535	64739.3
796.6704	183.3582	65535	64734.35
796.8124	185.5954	65535	64739.05
796.9544	187.832	65535	64733.3
797.0965	190.0681	65535	64729.85
797.2386	192.3037	65535	64723.85
797.3806	194.5388	65535	64725.2
797.5228	196.7734	65535	64716.7
797.6649	199.0075	65535	64717.9
797.807	201.2411	65535	64711.25
797.9492	203.4742	65535	64709.3
798.0914	205.7068	65535	64712.3
798.2336	207.9389	65535	64711.55
798.3758	210.1704	65535	64708.45
798.518	212.4015	65535	64705.65
798.6603	214.632	65535	64706.95
798.8025	216.862	65535	64715.45
798.9448	219.0915	65535	64720.25
799.0871	221.3205	65535	64718.05
799.2294	223.549	65535	64732.25
799.3718	225.777	65535	64730.35
799.5141	228.0044	65535	64721.8
799.6565	230.2314	65535	64728.35
799.7989	232.4578	65535	64729.45
799.9413	234.6837	65535	64721
800.0837	236.909	65535	64722.6
800.2262	239.1339	65535	64692.3
800.3687	241.3582	65535	64709.05
800.5111	243.582	65535	64679.3
800.6536	245.8053	65535	64689.35
800.7961	248.0281	65535	64695.3
800.9387	250.2503	65535	64689.5
801.0812	252.472	65535	64686.5
801.2238	254.6932	65535	64686.2
801.3664	256.9139	65535	64680.05
801.509	259.134	65535	64677.6
801.6516	261.3536	65535	64677.75
801.7942	263.5727	65535	64676.4
801.9369	265.7912	65535	64675.75
802.0795	268.0092	65535	64679.35
802.2222	270.2267	65535	64677.4
802.3649	272.4436	65535	64674.6
802.5076	274.6601	65535	64674.4
802.6504	276.8759	65535	64679.5
802.7931	279.0913	65535	64672.35
802.9359	281.3061	65535	64672.75
803.0787	283.5204	65535	64668.5
803.2215	285.7341	65535	64662.95
803.3643	287.9473	65535	64655.35
803.5071	290.16	65535	64660.7
803.6499	292.3721	65535	64666.45
803.7928	294.5837	65535	64661.35
803.9357	296.7947	65535	64664.9
804.0786	299.0052	65535	64660.55
804.2215	301.2152	65535	64660.25
804.3644	303.4246	65535	64663.15
804.5074	305.6334	65535	64668.1
804.6503	307.8418	65535	64666.75
804.7933	310.0495	65535	64662.9
804.9363	312.2568	65535	64660.55
805.0793	314.4635	65535	64659.75
805.2223	316.6696	65535	64652.05
805.3653	318.8752	65535	64650.65
805.5084	321.0802	65535	64652.85
805.6514	323.2847	65535	64650.9
805.7945	325.4887	65535	64654.1
805.9376	327.692	65535	64653.9
806.0807	329.8949	65535	64653.95
806.2238	332.0972	65535	64649.7
806.367	334.2989	65535	64648.3
806.5101	336.5001	65535	64647.5
806.6533	338.7007	65535	64643.25
806.7965	340.9008	65535	64647.45
806.9397	343.1003	65535	64647.9
807.0829	345.2992	65535	64644.45
807.2261	347.4976	65535	64640.35
807.3693	349.6955	65535	64637.4
807.5126	351.8927	65535	64634.4
807.6559	354.0895	65535	64627.6
807.7991	356.2856	65535	64633.4
807.9424	358.4812	65535	64639.3
808.0857	360.6763	65535	64633.05
808.2291	362.8707	65535	64633.2
808.3724	365.0646	65535	64631.45
808.5158	367.258	65535	64636.25
808.6591	369.4508	65535	64629.8
808.8025	371.643	65535	64625.45
808.9459	373.8346	65535	64629.8
809.0893	376.0257	65535	64622.8
809.2327	378.2162	65535	64629.8
809.3762	380.4062	65535	64618.3
809.5196	382.5956	65535	64624.1
809.6631	384.7844	65535	64626.3
809.8066	386.9726	65535	64626.9
809.9501	389.1603	65535	64621.05
810.0936	391.3474	65535	64601.05
810.2371	393.5339	65535	64616.6
810.3806	395.7199	65535	64624.55
810.5241	397.9052	65535	64628.45
810.6677	400.09	65535	64635.7
810.8113	402.2743	65535	64634.35
810.9548	404.4579	65535	64635.95
811.0984	406.641	65535	64637.55
811.2421	408.8235	65535	64635.15
811.3857	411.0054	65535	64632.35
811.5293	413.1868	65535	64631.1
811.673	415.3675	65535	64627.6
811.8166	417.5477	65535	64624.6
811.9603	419.7273	65535	64627.9
812.104	421.9064	65535	64619.35
812.2477	424.0848	65535	64625.4
812.3914	426.2627	65535	64622.1
812.5351	428.4399	65535	64617.9
812.6788	430.6166	65535	64613.95
812.8226	432.7928	65535	64613
812.9663	434.9683	65535	64620.75
813.1101	437.1432	65535	64619.1
813.2539	439.3176	65535	64625.65
813.3977	441.4914	65535	64623.35
813.5415	443.6645	65535	64617.1
813.6853	445.8371	65535	64619.35
813.8291	448.0091	65535	64623
813.973	450.1806	65535	64620.7
814.1168	452.3514	65535	64621.35
814.2607	454.5216	65535	64614.4
814.4046	456.6913	65535	64619.1
814.5485	458.8603	65535	64623.35
814.6924	461.0288	65535	64621.1
814.8363	463.1967	65535	64626.45
814.9802	465.3639	65535	64624.1
815.1241	467.5306	65535	64619.75
815.2681	469.6967	65535	64624.75
815.412	471.8622	65535	64630.15
815.556	474.0271	65535	64622.8
815.7	476.1914	65535	64613.9
815.844	478.3551	65535	64615.25
815.988	480.5182	65535	64621.45
816.132	482.6807	65535	64624.55
816.276	484.8426	65535	64637.5
816.4201	487.0039	65535	64626.5
816.5641	489.1647	65535	64620.85
816.7082	491.3248	65535	64619.8
816.8522	493.4843	65535	64624.7
816.9963	495.6432	65535	64623.6
817.1404	497.8015	65535	64609.85
817.2845	499.9592	65535	64607.25
817.4286	502.1163	65535	64607.25
817.5727	504.2728	65535	64615
817.7168	506.4287	65535	64628.1
817.861	508.5839	65535	64625.8
818.0051	510.7386	65535	64620.6
818.1493	512.8927	65535	64606.25
818.2935	515.0461	65535	64610.7
818.4377	517.199	65535	64612.05
818.5818	519.3512	65535	64612
818.726	521.5029	65535	64607.3
818.8703	523.6539	65535	64612.65
819.0145	525.8043	65535	64609.75
819.1587	527.9541	65535	64610
819.303	530.1033	65535	64607.15
819.4472	532.2519	65535	64610.8
819.5915	534.3999	65535	64608.9
819.7357	536.5472	65535	64609
819.88	538.694	65535	64616.5
820.0243	540.8401	65535	64608.65
820.1686	542.9856	65535	64597.25
820.3129	545.1305	65535	64595.25
820.4572	547.2748	65535	64586.35
820.6016	549.4185	65535	64588.8
820.7459	551.5615	65535	64592.8
820.8902	553.704	65535	64594.45
821.0346	555.8458	65535	64599.75
821.1789	557.987	65535	64601.2
821.3233	560.1276	65535	64596.1
821.4677	562.2675	65535	64602.3
821.6121	564.4069	65535	64596.75
821.7565	566.5456	65535	64601.05
821.9009	568.6837	65535	64602.95
822.0453	570.8212	65535	64604.55
822.1897	572.958	65535	64597.75
822.3342	575.0942	65535	64603
822.4786	577.2299	65535	64613.15
822.6231	579.3648	65535	64619.5
822.7675	581.4992	65535	64631.35
822.912	583.6329	65535	64629.55
823.0565	585.766	65535	64624.35
823.201	587.8985	65535	64616.5
823.3454	590.0304	65535	64600.85
823.4899	592.1616	65535	64601.55
823.6345	594.2922	65535	64599
823.779	596.4222	65535	64590.55
823.9235	598.5515	65535	64591.2
824.068	600.6802	65535	64596.9
824.2126	602.8083	65535	64598.6
824.3571	604.9358	65535	64599.2
824.5017	607.0626	65535	64594.1
824.6462	609.1888	65535	64588.1
824.7908	611.3144	65535	64587.25
824.9354	613.4393	65535	64588.75
825.08	615.5636	65535	64586.4
825.2246	617.6873	65535	64592.15
825.3692	619.8103	65535	64594.45
825.5138	621.9327	65535	64597.1
825.6584	624.0544	65535	64601
825.803	626.1756	65535	64602.75
825.9477	628.2961	65535	64594.85
826.0923	630.4159	65535	64589.6
826.237	632.5351	65535	64594.8
826.3816	634.6537	65535	64591.7
826.5263	636.7716	65535	64586.7
826.6709	638.8889	65535	64584.5
826.8156	641.0056	65535	64588.65
826.9603	643.1216	65535	64580.4
827.105	645.237	65535	64587.3
827.2497	647.3518	65535	64598.6
827.3944	649.4659	65535	64599.1
827.5391	651.5793	65535	64597.35
827.6838	653.6922	65535	64597.95
827.8285	655.8043	65535	64597.25
827.9733	657.9159	65535	64594.65
828.118	660.0268	65535	64594.2
828.2627	662.137	65535	64592.15
828.4075	664.2466	65535	64585.45
828.5522	666.3556	65535	64587.7
828.697	668.4639	65535	64593.45
828.8418	670.5716	65535	64597.75
828.9865	672.6786	65535	64591.1
829.1313	674.785	65535	64585.35
829.2761	676.8907	65535	64589.4
829.4209	678.9958	65535	64596.45
829.5657	681.1002	65535	64588.85
829.7105	683.204	65535	64583.55
829.8553	685.3072	65535	64584.65
830.0001	687.4097	65535	64586
830.1449	689.5115	65535	64586.9
830.2898	691.6127	65535	64587.4
830.4346	693.7132	65535	64593.3
830.5794	695.8131	65535	64572.85
830.7243	697.9123	65535	64580.8
830.8691	700.0109	65535	64579.65
831.014	702.1089	65535	64589.05
831.1588	704.2061	65535	64586.35
831.3037	706.3028	65535	64584.45
831.4486	708.3987	65535	64585.1
831.5935	710.4941	65535	64588.7
831.7383	712.5887	65535	64588.45
831.8832	714.6827	65535	64583.25
832.0281	716.7761	65535	64592.6
832.173	718.8688	65535	64588.35
832.3179	720.9608	65535	64581.45
832.4628	723.0522	65535	64574.3
832.6077	725.1429	65535	64576.85
832.7527	727.233	65535	64584.05
832.8976	729.3224	65535	64586.15
833.0425	731.4112	65535	64582.7
833.1874	733.4993	65535	64581
833.3324	735.5867	65535	64588.75
833.4773	737.6735	65535	64586.4
833.6222	739.7596	65535	64581.85
833.7672	741.845	65535	64583.4
833.9122	743.9298	65535	64581.25
834.0571	746.014	65535	64583.35
834.2021	748.0974	65535	64576.65
834.347	750.1802	65535	64573.3
834.492	752.2624	65535	64579.8
834.637	754.3439	65535	64577.75
834.782	756.4247	65535	64569.7
834.9269	758.5048	65535	64577.95
835.0719	760.5843	65535	64581.4
835.2169	762.6631	65535	64577.65
835.3619	764.7413	65535	64578.85
835.5069	766.8188	65535	64580.75
835.6519	768.8956	65535	64578.5
835.7969	770.9718	65535	64580.85
835.9419	773.0473	65535	64581.4
836.0869	775.1221	65535	64579.1
836.232	777.1962	65535	64582.15
836.377	779.2697	65535	64573.85
836.522	781.3426	65535	64565.15
836.667	783.4147	65535	64576.95
836.8121	785.4862	65535	64579.2
836.9571	787.557	65535	64576.5
837.1021	789.6271	65535	64577.15
837.2472	791.6966	65535	64576.2
837.3922	793.7654	65535	64580.85
837.5373	795.8335	65535	64578.25
837.6823	797.901	65535	64577.45
837.8274	799.9678	65535	64571.35
837.9724	802.0339	65535	64575.25
838.1175	804.0993	65535	64569.15
838.2626	806.1641	65535	64579.95
838.4076	808.2282	65535	64572.9
838.5527	810.2916	65535	64577.3
838.6978	812.3544	65535	64582.25
838.8428	814.4164	65535	64579.75
838.9879	816.4778	65535	64574.2
839.133	818.5385	65535	64573.3
839.2781	820.5986	65535	64573.75
839.4232	822.658	65535	64570
839.5682	824.7166	65535	64578.2
839.7133	826.7747	65535	64575.3
839.8584	828.832	65535	64571.95
840.0035	830.8886	65535	64576.35
840.1486	832.9446	65535	64571.5
840.2937	834.9999	65535	64573.95
840.4388	837.0545	65535	64570.1
840.5839	839.1085	65535	64575.6
840.729	841.1618	65535	64572.3
840.8741	843.2143	65535	64576.4
841.0192	845.2662	65535	64573.9
841.1643	847.3175	65535	64575.65
841.3095	849.368	65535	64578.1
841.4546	851.4179	65535	64577.35
841.5997	853.467	65535	64573
841.7448	855.5155	65535	64576.05
841.8899	857.5633	65535	64574.6
842.0351	859.6105	65535	64572.4
842.1802	861.6569	65535	64573.25
842.3253	863.7027	65535	64569.15
842.4704	865.7478	65535	64572.3
842.6156	867.7922	65535	64577.25
842.7607	869.8359	65535	64572.1
842.9058	871.8789	65535	64572.65
843.0509	873.9212	65535	64541.55
843.1961	875.9629	65535	64572.5
843.3412	878.0039	65535	64572.85
843.4863	880.0441	65535	64576.65
843.6315	882.0837	65535	64573.35
843.7766	884.1226	65535	64572.8
843.9218	886.1609	65535	64574.25
844.0669	888.1984	65535	64573.35
844.212	890.2352	65535	64571.3
844.3572	892.2714	65535	64564.2
844.5023	894.3069	65535	64572
844.6475	896.3416	65535	64576.3
844.7926	898.3757	65535	64572.45
844.9377	900.4091	65535	64570.25
845.0829	902.4418	65535	64566.6
845.228	904.4739	65535	64571.3
845.3732	906.5052	65535	64570.3
845.5183	908.5358	65535	64570
845.6635	910.5658	65535	64571.75
845.8086	912.595	65535	64568.5
845.9538	914.6236	65535	64572.9
846.0989	916.6515	65535	64572.55
846.2441	918.6786	65535	64571.7
846.3892	920.7051	65535	64567.9
846.5344	922.7309	65535	64575.4
846.6795	924.756	65535	64568.75
846.8246	926.7804	65535	64566.6
846.9698	928.8041	65516.2	64552.95
847.1149	930.8272	65532.8	64569.95
847.2601	932.8495	65534.75	64572.9
847.4052	934.8711	65523.6	64558.4
847.5504	936.892	65488.7	64519.6
847.6955	938.9123	65511.5	64546.45
847.8407	940.9318	65488.75	64530.8
847.9858	942.9506	65475.95	64514.95
848.131	944.9688	65475.7	64514.45
848.2761	946.9862	65293.65	64331.05
848.4213	949.003	65403.4	64439.65
848.5664	951.019	65183.35	64223.1
848.7115	953.0344	65229.15	64265
848.8567	955.0491	65182.55	64219.9
849.0018	957.063	65293.2	64327.5
849.147	959.0763	65322.45	64353.4
849.2921	961.0888	65108.2	64145.55
849.4373	963.1007	65279.05	64319.7
849.5824	965.1119	65279.7	64327.85
849.7275	967.1223	65117.1	64168.1
849.8727	969.1321	65324.95	64377.35
850.0178	971.1412	65004.7	64048.4
850.1629	973.1495	64889	63928.9
850.3081	975.1572	65066.25	64051.15
850.4532	977.1641	64910.05	63947.35
850.5983	979.1704	64914.6	63950.05
850.7435	981.1759	64916.45	63950.35
850.8886	983.1808	64727.15	63763.35
851.0337	985.1849	64742.05	63770.4
851.1788	987.1884	64856.55	63890.8
851.324	989.1911	65002	64041.85
851.4691	991.1932	64503.95	63543.1
851.6142	993.1945	64655.25	63695.75
851.7593	995.1951	64800.2	63840.55
851.9045	997.1951	64501	63531
852.0496	999.1943	64463.4	63505.55
852.1947	1001.1928	64300.75	63339.1
852.3398	1003.1906	64403.95	63442.45
852.4849	1005.1877	63938.55	62977
852.63	1007.1841	63820.45	62862.85
852.7751	1009.1798	63821.45	62866
852.9202	1011.1748	63770	62810.15
853.0653	1013.1691	63669.45	62709.6
853.2104	1015.1627	62339.55	61378.15
853.3555	1017.1556	63039.65	62082.5
853.5006	1019.1477	63190.4	62231.6
853.6457	1021.1392	62630.1	61677.3
853.7908	1023.1299	61663.8	60714.45
853.9359	1025.12	62323.8	61378.35
854.081	1027.1093	61882	60950.85
854.2261	1029.0979	61868.15	60938
854.3712	1031.0859	61767	60829.75
854.5163	1033.0731	60938.5	59989.75
854.6613	1035.0596	61384.85	60435.8
854.8064	1037.0454	61047.65	60094.65
854.9515	1039.0304	60524.5	59567.85
855.0965	1041.0148	59367.05	58411.15
855.2416	1042.9985	59654.4	58696.6
855.3867	1044.9814	60365.6	59413.05
855.5317	1046.9636	59149.65	58193.05
855.6768	1048.9452	59364.8	58412.8
855.8219	1050.926	59051.15	58094.9
855.9669	1052.9061	59049.65	58093.85
856.112	1054.8855	59061.05	58103.8
856.257	1056.8642	58547.75	57589.7
856.4021	1058.8421	58176.7	57215.3
856.5471	1060.8194	58258.3	57300.65
856.6921	1062.7959	57787.9	56826
856.8372	1064.7717	58294.55	57337.45
856.9822	1066.7469	57909.2	56953.25
857.1272	1068.7213	57924.55	56967.9
857.2723	1070.695	57492.75	56535.2
857.4173	1072.6679	56950.45	55994.15
857.5623	1074.6402	57227.15	56268.4
857.7073	1076.6117	56719.55	55754.9
857.8523	1078.5826	56708.7	55750.3
857.9973	1080.5527	56784.95	55826.1
858.1423	1082.5221	56508.7	55552.1
858.2873	1084.4908	56671.2	55717.3
858.4323	1086.4587	56632.9	55672.15
858.5773	1088.426	56676.15	55719.7
858.7223	1090.3925	56554.2	55589.5
858.8673	1092.3584	56355.4	55401.25
859.0123	1094.3235	55692.2	54737.45
859.1573	1096.2879	55557.7	54599.45
859.3022	1098.2515	55564.9	54611.5
859.4472	1100.2145	55301.1	54346.35
859.5922	1102.1767	55160.5	54206.1
859.7371	1104.1382	55347.85	54392.65
859.8821	1106.099	55271	54312.55
860.027	1108.0591	55243.15	54288.05
860.172	1110.0185	54688.65	53728.85
860.3169	1111.9771	55163.15	54205.55
860.4619	1113.9351	54648.65	53694.7
860.6068	1115.8923	54093.65	53140.25
860.7517	1117.8488	53573.35	52616.25
860.8967	1119.8045	52933.5	51979.8
861.0416	1121.7596	52914	51962
861.1865	1123.7139	52593.05	51643.7
861.3314	1125.6675	52493	51541.65
861.4763	1127.6204	52424.4	51471.55
861.6212	1129.5726	52086.4	51130.6
861.7661	1131.524	52260.1	51307.25
861.911	1133.4748	52255.55	51301.05
862.0559	1135.4248	51939.95	50985.05
862.2008	1137.3741	51920.8	50967.9
862.3457	1139.3226	51725	50770.9
862.4905	1141.2705	51733.85	50778.1
862.6354	1143.2176	51379.7	50421.25
862.7803	1145.164	51210.9	50256.9
862.9251	1147.1097	51103.95	50150.45
863.07	1149.0546	51071.05	50114.15
863.2148	1150.9989	50970.05	50017.05
863.3597	1152.9424	50597.75	49643.25
863.5045	1154.8852	50341.1	49386.85
863.6493	1156.8272	50082.6	49126.85
863.7942	1158.7686	50123.35	49162.55
863.939	1160.7092	49658.3	48704.9
864.0838	1162.6491	49368.15	48415
864.2286	1164.5883	49451.5	48496.65
864.3734	1166.5267	49280.55	48325.95
864.5182	1168.4644	49402.05	48450.1
864.663	1170.4014	49422.35	48464.1
864.8078	1172.3377	49622.9	48674.2
864.9526	1174.2732	49780.1	48834.8
865.0974	1176.2081	49710.05	48760.35
865.2421	1178.1421	49730.85	48775.8
865.3869	1180.0755	49914	48960.95
865.5317	1182.0082	49592.55	48645.8
865.6764	1183.9401	49541	48590.8
865.8212	1185.8713	49066.15	48121.4
865.9659	1187.8017	48790.8	47849.6
866.1106	1189.7315	48472.7	47540.95
866.2554	1191.6605	48024.35	47092.15
866.4001	1193.5888	47659	46722.2
866.5448	1195.5163	47408.8	46466.2
866.6895	1197.4432	47184.75	46239.85
866.8342	1199.3693	46958.3	46010.35
866.9789	1201.2947	46690.15	45731.45
867.1236	1203.2193	46523.85	45575.25
867.2683	1205.1432	46410.1	45461
867.413	1207.0664	46310.6	45363.4
867.5576	1208.9889	46224	45273.55
867.7023	1210.9106	46150.6	45205.4
867.847	1212.8316	45950.2	45002.55
867.9916	1214.7519	45965.3	45006.4
868.1363	1216.6715	45785.9	44837.15
868.2809	1218.5903	45648.75	44698.15
868.4255	1220.5084	45479.6	44527.7
868.5701	1222.4257	45361.75	44415.1
868.7148	1224.3424	45052.3	44106.95
868.8594	1226.2583	45024.65	44072.45
869.004	1228.1735	44986.55	44034.45
869.1486	1230.0879	44839.4	43890.05
869.2932	1232.0016	44922.9	43975.4
869.4377	1233.9146	44775.2	43827.15
869.5823	1235.8269	44481.9	43533.5
869.7269	1237.7384	44369	43423.45
869.8715	1239.6492	43985.55	43036.65
870.016	1241.5592	43878.95	42933.85
870.1606	1243.4686	43528.2	42582.6
870.3051	1245.3772	43353.5	42404.75
870.4496	1247.285	43137.2	42188.9
870.5941	1249.1922	42957.5	42010.25
870.7387	1251.0986	42828.65	41881.5
870.8832	1253.0042	42633.9	41687.65
871.0277	1254.9092	42584.3	41640.7
871.1722	1256.8134	42587.35	41642.75
871.3167	1258.7169	42670.15	41723.55
871.4611	1260.6196	42665.35	41719
871.6056	1262.5216	42795.3	41846.4
871.7501	1264.4229	42807.45	41863.3
871.8945	1266.3234	42850.15	41904.5
872.039	1268.2232	42830.75	41883.15
872.1834	1270.1223	42627.5	41677.9
872.3278	1272.0207	42520.6	41575.55
872.4723	1273.9183	42375.35	41422.55
872.6167	1275.8151	42192.55	41244
872.7611	1277.7113	42062.25	41115.35
872.9055	1279.6067	41768.6	40827.4
873.0499	1281.5014	41417.6	40471.25
873.1943	1283.3953	41258.65	40313.25
873.3386	1285.2885	41063.3	40120.2
873.483	1287.181	40887.95	39942.5
873.6274	1289.0727	40866.35	39921.85
873.7717	1290.9637	40788.7	39842.45
873.9161	1292.854	40908.8	39963.8
874.0604	1294.7435	40838.6	39895.5
874.2047	1296.6323	40990.5	40047.75
874.349	1298.5204	41117.15	40167.2
874.4933	1300.4077	41314.4	40367.45
874.6376	1302.2943	41339.8	40395.2
874.7819	1304.1802	41429.7	40482.35
874.9262	1306.0653	41226.15	40281.2
875.0705	1307.9497	40987.5	40045.5
875.2147	1309.8333	40852.75	39911.65
875.359	1311.7162	40794.95	39849.6
875.5032	1313.5984	40864.95	39919.2
875.6475	1315.4798	40800	39840.15
875.7917	1317.3605	40882.5	39931.4
875.9359	1319.2405	40999.8	40053.55
876.0801	1321.1197	40970	40023.7
876.2243	1322.9982	40758.95	39810.8
876.3685	1324.876	40752.55	39811.2
876.5127	1326.753	40599.25	39654.9
876.6569	1328.6293	40644.2	39698
876.801	1330.5048	40611.05	39664.3
876.9452	1332.3796	40432.35	39487.65
877.0893	1334.2537	40385.9	39419.1
877.2335	1336.127	40203.95	39262.15
877.3776	1337.9996	40089.15	39143.95
877.5217	1339.8714	39958.85	39017.2
877.6658	1341.7426	39762.5	38774.8
877.8099	1343.6129	39686.45	38740.95
877.954	1345.4826	39534.25	38586.35
878.0981	1347.3515	39471.65	38523.9
878.2422	1349.2196	39293	38347
878.3862	1351.087	39244.4	38301.95
878.5303	1352.9537	39197.2	38248.65
878.6743	1354.8197	39264.2	38316.35
878.8184	1356.6849	39371.8	38426.9
878.9624	1358.5493	39319.15	38374
879.1064	1360.4131	39246.1	38302.25
879.2504	1362.276	39083.6	38142.6
879.3944	1364.1383	38815.95	37875.65
879.5384	1365.9998	38474.3	37522.6
879.6823	1367.8606	38080.35	37136
879.8263	1369.7206	37773.35	36827.8
879.9702	1371.5799	37500.15	36553.05
880.1142	1373.4384	37265.1	36320.35
880.2581	1375.2962	37111.65	36168.25
880.402	1377.1533	36638.85	35698.95
880.5459	1379.0096	36253.5	35315.85
880.6898	1380.8652	35931.3	34994.1
880.8337	1382.7201	35600.45	34658.45
880.9776	1384.5742	35252.85	34309.35
881.1215	1386.4275	34970.05	34025.85
881.2653	1388.2802	34757.35	33811.85
881.4092	1390.132	34532.55	33590.15
881.553	1391.9832	34468.8	33522.95
881.6968	1393.8336	34252	33309.85
881.8406	1395.6832	34099.4	33152.45
881.9844	1397.5322	33948.55	33002.5
882.1282	1399.3803	33818.65	32870.35
882.272	1401.2278	33572.55	32634.15
882.4158	1403.0745	33533.95	32593.45
882.5595	1404.9204	33359.3	32418.4
882.7033	1406.7656	33349.65	32407.75
882.847	1408.6101	33200.25	32259
882.9908	1410.4538	33069.2	32127.8
883.1345	1412.2968	32976.95	32036.6
883.2782	1414.139	32904.7	31964.4
883.4219	1415.9805	32880.1	31940.6
883.5656	1417.8213	32823.65	31861.95
883.7092	1419.6613	32864	31925.8
883.8529	1421.5006	32990.8	32050.65
883.9965	1423.3391	33132.5	32193.1
884.1402	1425.1769	33323.8	32384.35
884.2838	1427.0139	33746.85	32808.4
884.4274	1428.8502	34313.5	33370.95
884.571	1430.6858	34801.3	33859.75
884.7146	1432.5206	35014.5	34074.9
884.8582	1434.3547	35271.55	34331.15
885.0018	1436.188	35270.9	34331.6
885.1453	1438.0206	35192.1	34252.65
885.2889	1439.8524	34941.6	34001.75
885.4324	1441.6835	34790.1	33850.75
885.5759	1443.5139	34563.35	33621.15
885.7194	1445.3435	34472	33532.9
885.8629	1447.1724	34390.8	33451.8
886.0064	1449.0005	34225.35	33286.2
886.1499	1450.8279	34042.3	33107.3
886.2933	1452.6545	33958.4	33022.2
886.4368	1454.4804	33900.05	32968.95
886.5802	1456.3056	33892.15	32951
886.7237	1458.13	33735.1	32801.6
886.8671	1459.9536	33514.6	32577.2
887.0105	1461.7766	33071.1	32133.4
887.1539	1463.5987	32532.6	31591.45
887.2972	1465.4202	32125.8	31186.35
887.4406	1467.2409	31677.1	30738.45
887.584	1469.0608	31389.9	30453.65
887.7273	1470.88	31093.4	30158
887.8706	1472.6984	30833.15	29899.9
888.0139	1474.5161	30502.6	29561.85
888.1572	1476.3331	30280.7	29342.7
888.3005	1478.1493	30126.35	29191.55
888.4438	1479.9648	30014.35	29076.05
888.5871	1481.7795	29848.5	28910.7
888.7303	1483.5935	29751.65	28814.2
888.8736	1485.4067	29602.8	28662.8
889.0168	1487.2192	29499.75	28561.65
889.16	1489.031	29406.65	28466.6
889.3032	1490.842	29295.3	28357.95
889.4464	1492.6522	29239.05	28302.7
889.5896	1494.4618	29101.2	28164.2
889.7327	1496.2705	29101.3	28164.95
889.8759	1498.0785	28974.9	28042
890.019	1499.8858	28904.4	27970.4
890.1622	1501.6924	28788.9	27853.5
890.3053	1503.4981	28771.25	27832.8
890.4484	1505.3032	28692.85	27755.35
890.5914	1507.1075	28572.05	27634.9
890.7345	1508.911	28532.85	27597.25
890.8776	1510.7138	28411.05	27475.1
891.0206	1512.5159	28346.35	27411.45
891.1637	1514.3172	28206.95	27271.55
891.3067	1516.1178	28053.6	27121.35
891.4497	1517.9176	28037.65	27101.4
891.5927	1519.7166	27875.1	26940.5
891.7357	1521.515	27825.55	26886.1
891.8786	1523.3126	27712.75	26779.05
892.0216	1525.1094	27580.25	26647.95
892.1645	1526.9055	27510.75	26577.8
892.3074	1528.7008	27389.65	26455.3
892.4503	1530.4954	27206.7	26267.7
892.5932	1532.2893	27158.2	26229.45
892.7361	1534.0824	27038.75	26106.5
892.879	1535.8747	27013.6	26086.3
893.0218	1537.6663	26942.6	26015.55
893.1647	1539.4572	26842.6	25911.35
893.3075	1541.2473	26760.4	25831.15
893.4503	1543.0367	26659.25	25729.75
893.5931	1544.8253	26604.4	25671
893.7359	1546.6132	26522.95	25590.05
893.8787	1548.4003	26354.85	25417.65
894.0214	1550.1867	26326.7	25387.05
894.1642	1551.9723	26264.45	25335.45
894.3069	1553.7572	26246.6	25319.9
894.4496	1555.5414	26170.9	25245.9
894.5923	1557.3247	26141.2	25215.8
894.735	1559.1074	26112.3	25188.7
894.8777	1560.8893	26096.05	25175.65
895.0204	1562.6705	26041.3	25116.5
895.163	1564.4509	26056.35	25135.7
895.3056	1566.2305	26055.25	25137.25
895.4482	1568.0094	26139.4	25220.8
895.5908	1569.7876	26152.45	25232.55
895.7334	1571.565	26188.35	25263.65
895.876	1573.3417	26188.6	25265.55
896.0186	1575.1176	26072.65	25153.1
896.1611	1576.8928	26045.2	25127.4
896.3036	1578.6672	25867.35	24953.65
896.4461	1580.4409	25664.4	24752.3
896.5886	1582.2138	25504.7	24587.55
896.7311	1583.986	25286.4	24366.55
896.8736	1585.7575	25167.35	24247.9
897.0161	1587.5282	24979.1	24065.05
897.1585	1589.2981	24930.55	24017.75
897.3009	1591.0673	24755.45	23842.95
897.4433	1592.8358	24685	23773.8
897.5857	1594.6035	24640.25	23721.35
897.7281	1596.3704	24578.1	23658.95
897.8705	1598.1366	24468.4	23548.2
898.0128	1599.9021	24430.85	23516.6
898.1551	1601.6668	24395.85	23478.2
898.2975	1603.4308	24353.8	23434.95
898.4398	1605.194	24386.85	23465.4
898.5821	1606.9564	24399.55	23488.95
898.7243	1608.7182	24448.9	23538.35
898.8666	1610.4791	24466.25	23564.25
899.0088	1612.2394	24522.2	23618.7
899.1511	1613.9988	24620.2	23716.35
899.2933	1615.7576	24742.45	23833.75
899.4355	1617.5156	24992.95	24069.55
899.5776	1619.2728	25203.95	24286.2
899.7198	1621.0293	25339.9	24424.95
899.862	1622.785	25323.05	24409.6
900.0041	1624.54	25199.1	24289.1
900.1462	1626.2942	25025.45	24117.05
900.2883	1628.0477	24707.2	23797.15
900.4304	1629.8005	24451.6	23539.55
900.5725	1631.5525	24107.15	23200.1
900.7145	1633.3037	23932.4	23024.9
900.8566	1635.0542	23683	22774.8
900.9986	1636.804	23451.2	22540.55
901.1406	1638.553	23334.6	22378.95
901.2826	1640.3013	23183.2	22272.05
901.4245	1642.0488	23063.75	22152.35
901.5665	1643.7955	23033.65	22125
901.7085	1645.5416	22968.95	22059.65
901.8504	1647.2868	22999.2	22091.7
901.9923	1649.0313	22981.9	22072.6
902.1342	1650.7751	23099.95	22188.55
902.2761	1652.5181	23195.8	22287.95
902.4179	1654.2604	23327.3	22420.25
902.5598	1656.0019	23561.55	22656.45
902.7016	1657.7427	23868.1	22959.8
902.8434	1659.4828	24179.05	23269.95
902.9852	1661.222	24355.45	23445.4
903.127	1662.9606	24382.35	23470.2
903.2687	1664.6984	24232.15	23319.55
903.4105	1666.4354	23882.95	22968.9
903.5522	1668.1717	23391.15	22477.45
903.6939	1669.9072	22904.9	21990.35
903.8356	1671.642	22493.15	21575.7
903.9773	1673.3761	22163.85	21249.85
904.119	1675.1094	21836.45	20929.65
904.2606	1676.8419	21618.55	20707.35
904.4022	1678.5737	21367.8	20456.45
904.5439	1680.3048	21232.4	20317.15
904.6855	1682.0351	21070.95	20159.15
904.827	1683.7646	20943.2	20030.15
904.9686	1685.4934	20840.9	19931.45
905.1101	1687.2215	20731.05	19821.05
905.2517	1688.9488	20596.6	19687.2
905.3932	1690.6754	20501.7	19595
905.5347	1692.4012	20462.55	19550.05
905.6761	1694.1263	20381.8	19472.35
905.8176	1695.8506	20339.35	19429.2
905.9591	1697.5742	20225.9	19318.4
906.1005	1699.297	20121.15	19217.05
906.2419	1701.0191	20024.45	19122.5
906.3833	1702.7404	19929.55	19026.3
906.5246	1704.461	19830.45	18921.55
906.666	1706.1808	19748.95	18840.25
906.8073	1707.8999	19726.15	18822.55
906.9487	1709.6182	19623.45	18721.6
907.09	1711.3358	19585.55	18686.15
907.2313	1713.0527	19521.25	18622.2
907.3725	1714.7688	19424.9	18516.4
907.5138	1716.4841	19302.5	18397.45
907.655	1718.1987	19303.55	18393.5
907.7962	1719.9126	19220.5	18320.8
907.9374	1721.6257	19142.2	18238.15
908.0786	1723.338	19103.05	18201
908.2198	1725.0496	18983.7	18079
908.3609	1726.7605	18984.05	18080.6
908.502	1728.4706	18898.2	17993.65
908.6431	1730.18	18769.1	17867.15
908.7842	1731.8886	18733.9	17832.95
908.9253	1733.5964	18688.15	17766.65
909.0664	1735.3036	18661.55	17755.75
909.2074	1737.0099	18591.8	17691
909.3484	1738.7156	18552	17652
909.4894	1740.4204	18448	17543.9
909.6304	1742.1246	18441.4	17539.3
909.7714	1743.8279	18374.15	17473.75
909.9123	1745.5306	18339.25	17441
910.0532	1747.2325	18269.15	17370.45
910.1941	1748.9336	18193.8	17294.1
910.335	1750.634	18136.6	17232.6
910.4759	1752.3336	18071.7	17170.45
910.6168	1754.0325	18053.95	17158.4
910.7576	1755.7307	18011	17113.95
910.8984	1757.4281	17982.45	17081.9
911.0392	1759.1247	17946.8	17036.55
911.18	1760.8206	17917.35	17005.75
911.3208	1762.5158	17900.9	16993.65
911.4615	1764.2102	17804.65	16901.85
911.6022	1765.9039	17745.4	16845.2
911.7429	1767.5968	17684.9	16787.35
911.8836	1769.289	17646.75	16751
912.0243	1770.9804	17615.25	16713.55
912.1649	1772.6711	17601.55	16698.95
912.3056	1774.361	17523.25	16619.3
912.4462	1776.0502	17493.35	16590.9
912.5868	1777.7386	17470.25	16564.55
912.7274	1779.4263	17397.2	16496.55
912.8679	1781.1132	17389.4	16492.2
913.0084	1782.7994	17301.75	16405.1
913.149	1784.4849	17312.2	16416.65
913.2895	1786.1696	17210.9	16293.35
913.4299	1787.8535	17181.85	16285.75
913.5704	1789.5367	17150.5	16255.5
913.7108	1791.2192	17105.6	16210.55
913.8513	1792.9009	17028.1	16102.05
913.9917	1794.5818	16984.35	16080.35
914.132	1796.2621	16936.75	16035.7
914.2724	1797.9415	16902.65	16002.2
914.4128	1799.6202	16836.65	15937.45
914.5531	1801.2982	16791.9	15892.15
914.6934	1802.9755	16762.4	15861.25
914.8337	1804.6519	16735.3	15835.55
914.9739	1806.3277	16642.5	15742.55
915.1142	1808.0027	16566.65	15672.55
915.2544	1809.6769	16542.55	15647.75
915.3946	1811.3504	16498.8	15602.7
915.5348	1813.0231	16487.2	15590.25
915.675	1814.6951	16451.55	15556.65
915.8151	1816.3664	16448.65	15547.8
915.9553	1818.0369	16397.2	15497.85
916.0954	1819.7067	16351.95	15455.35
916.2355	1821.3757	16316.95	15416.25
916.3755	1823.044	16256.3	15358.75
916.5156	1824.7115	16244.1	15340.65
916.6556	1826.3783	16146.75	15249.25
916.7956	1828.0443	16139.15	15242.15
916.9356	1829.7096	16080.45	15181.3
917.0756	1831.3741	16084.8	15183.7
917.2155	1833.0379	16058.9	15163.55
917.3555	1834.701	15969.9	15073.55
917.4954	1836.3633	15954.5	15061.95
917.6353	1838.0248	15903.85	15006.8
917.7751	1839.6856	15870.25	14971.65
917.915	1841.3457	15860.2	14961.95
918.0548	1843.005	15794.05	14894.4
918.1946	1844.6636	15798.15	14900.4
918.3344	1846.3214	15710.7	14811.75
918.4742	1847.9785	15724.05	14826.65
918.6139	1849.6349	15665.4	14764.25
918.7537	1851.2904	15621.5	14713.1
918.8934	1852.9453	15612.3	14710.65
919.0331	1854.5994	15542.95	14640
919.1727	1856.2528	15579.05	14675.8
919.3124	1857.9054	15463.7	14567.5
919.452	1859.5572	15504.25	14606.3
919.5916	1861.2083	15465.3	14567.5
919.7312	1862.8587	15432.25	14531.25
919.8708	1864.5084	15395.85	14492.85
920.0103	1866.1572	15360.35	14458.6
920.1498	1867.8054	15266.35	14363.35
920.2893	1869.4528	15263.9	14360.8
920.4288	1871.0994	15196.2	14294.15
920.5683	1872.7453	15181.75	14281.85
920.7077	1874.3905	15127.15	14223.65
920.8471	1876.0349	15088.15	14188.55
920.9865	1877.6786	15049.05	14150.4
921.1259	1879.3215	15056.65	14156.1
921.2653	1880.9637	15001.3	14102.8
921.4046	1882.6051	14988.5	14091.5
921.5439	1884.2458	14933.2	14032.95
921.6832	1885.8858	14894.8	13997
921.8225	1887.525	14850.2	13951.1
921.9617	1889.1634	14768.35	13868.95
922.101	1890.8011	14727.85	13826.8
922.2402	1892.4381	14688.8	13788.1
922.3794	1894.0743	14677.5	13780.3
922.5185	1895.7098	14655.75	13757.75
922.6577	1897.3446	14630.7	13732.3
922.7968	1898.9786	14575.05	13673.8
922.9359	1900.6118	14564	13665.95
923.075	1902.2443	14464.35	13565.6
923.214	1903.8761	14439.75	13541.35
923.3531	1905.5071	14357.55	13459.5
923.4921	1907.1374	14297.35	13395.8
923.6311	1908.7669	14311.55	13413.7
923.77	1910.3957	14250	13353.15
923.909	1912.0237	14192.45	13296.7
924.0479	1913.651	14174.7	13275.8
924.1868	1915.2776	14121.65	13223.8
924.3257	1916.9034	14073.15	13176.95
924.4646	1918.5285	13984.3	13088.3
924.6034	1920.1528	13935.95	13037.45
924.7422	1921.7764	13944.55	13048.35
924.881	1923.3992	13895.05	12998.3
925.0198	1925.0213	13769.85	12872.5
925.1586	1926.6427	13711.8	12816.55
925.2973	1928.2633	13782	12817.1
925.436	1929.8832	13671.5	12775.35
925.5747	1931.5023	13620.65	12724.5
925.7134	1933.1207	13604.6	12707.95
925.852	1934.7383	13583.75	12688.7
925.9906	1936.3552	13511.15	12614.9
926.1292	1937.9714	13447.45	12550.05
926.2678	1939.5868	13432.15	12533.9
926.4064	1941.2015	13367.35	12469.3
926.5449	1942.8154	13297.3	12399.3
926.6834	1944.4286	13255.7	12359.2
926.8219	1946.041	13236.05	12318.4
926.9604	1947.6528	13148.65	12245.8
927.0988	1949.2637	13115.3	12219.3
927.2372	1950.8739	13070.7	12175.25
927.3756	1952.4834	13039.5	12143.55
927.514	1954.0921	12990.05	12093.95
927.6523	1955.7001	12952.8	12054.1
927.7907	1957.3074	12949.65	12056.1
927.929	1958.9139	12877.55	11988.45
928.0673	1960.5197	12813.45	11918.6
928.2055	1962.1247	12766.3	11873.3
928.3438	1963.729	12704.8	11815.15
928.482	1965.3325	12691.35	11777.25
928.6202	1966.9353	12645.45	11755.85
928.7584	1968.5374	12571.8	11676.9
928.8965	1970.1387	12549.35	11655.95
929.0346	1971.7393	12519	11625.55
929.1727	1973.3392	12492.2	11597.65
929.3108	1974.9383	12418.05	11527.5
929.4489	1976.5366	12380.1	11489.1
929.5869	1978.1342	12318.25	11425.85
929.7249	1979.7311	12287.4	11397.8
929.8629	1981.3273	12276.65	11386.45
930.0009	1982.9227	12245.3	11356.4
930.1388	1984.5173	12165.15	11276.9
930.2767	1986.1112	12137.6	11246.75
930.4146	1987.7044	12139.6	11249.45
930.5525	1989.2968	12072.05	11181
930.6904	1990.8885	12046.75	11152.45
930.8282	1992.4795	12018	11125.7
930.966	1994.0697	11951.95	11063.1
931.1038	1995.6592	11912.8	11024.8
931.2415	1997.2479	11906.05	11017
931.3793	1998.8359	11863.15	10976.9
931.517	2000.4232	11822.5	10937.75
931.6547	2002.0097	11777.3	10893.3
931.7923	2003.5955	11708.2	10822.45
931.93	2005.1805	11700.2	10810.75
932.0676	2006.7648	11673.4	10784.8
932.2052	2008.3484	11651.9	10765.95
932.3427	2009.9312	11667.5	10778.45
932.4803	2011.5133	11595.9	10712
932.6178	2013.0946	11575.2	10690.35
932.7553	2014.6752	11535.45	10652.1
932.8928	2016.2551	11492.65	10606.95
933.0302	2017.8342	11453.2	10566.45
933.1676	2019.4126	11405.8	10519
933.305	2020.9902	11374.3	10491.65
933.4424	2022.5672	11335.85	10449.15
933.5798	2024.1433	11321	10431.85
933.7171	2025.7188	11282	10399.1
933.8544	2027.2935	11227.75	10343.8
933.9917	2028.8674	11186.4	10304.75
934.129	2030.4406	11162.85	10280.65
934.2662	2032.0131	11121.35	10239.3
934.4034	2033.5849	11058.65	10171.9
934.5406	2035.1559	11062.5	10178.2
934.6778	2036.7261	11031.3	10147.55
934.8149	2038.2957	11030.7	10142.25
934.952	2039.8645	11002.15	10114.35
935.0891	2041.4325	11009	10117.05
935.2262	2042.9998	10908.4	10023.2
935.3632	2044.5664	10918.95	10030.8
935.5002	2046.1323	10871.25	9986.65
935.6372	2047.6974	10829.65	9947.6
935.7742	2049.2617	10825.3	9941.45
935.9111	2050.8254	10806.2	9916.65
936.048	2052.3883	10793.1	9906.85
936.1849	2053.9504	10737.55	9849.15
936.3218	2055.5118	10716.05	9828.15
936.4586	2057.0725	10635.55	9745.2
936.5955	2058.6325	10618.3	9731.55
936.7323	2060.1917	10618.7	9736.4
936.869	2061.7502	10567.35	9678.3
937.0058	2063.3079	10529.25	9647.5
937.1425	2064.8649	10514.05	9625.1
937.2792	2066.4212	10483.7	9596.75
937.4159	2067.9767	10462.55	9573.75
937.5525	2069.5315	10394.5	9508.25
937.6891	2071.0856	10361.5	9474.15
937.8257	2072.6389	10307	9421
937.9623	2074.1915	10249.35	9366.75
938.0989	2075.7433	10241.5	9354.9
938.2354	2077.2945	10231.85	9346
938.3719	2078.8448	10161.95	9275.55
938.5084	2080.3945	10145.75	9259.1
938.6448	2081.9434	10144.5	9255.05
938.7812	2083.4916	10109.55	9219.05
938.9176	2085.039	10066.25	9172.5
939.054	2086.5857	10032.45	9137.65
939.1903	2088.1317	10021.65	9128.85
939.3267	2089.677	9990.55	9097.9
939.463	2091.2215	9950.8	9058.55
939.5992	2092.7652	9954.85	9059.65
939.7355	2094.3083	9911.1	9016.95
939.8717	2095.8506	9915.25	9024.45
940.0079	2097.3921	9911.1	9020.2
940.1441	2098.933	9888.65	9000.05
940.2802	2100.4731	9856.05	8967.6
940.4163	2102.0124	9825.5	8928.6
940.5524	2103.5511	9797.15	8906.65
940.6885	2105.089	9761.65	8870.95
940.8245	2106.6261	9719.45	8830.8
940.9606	2108.1626	9690.25	8801.25
941.0965	2109.6983	9714.25	8795.15
941.2325	2111.2332	9641.2	8751.15
941.3684	2112.7675	9628.25	8736.9
941.5044	2114.301	9601.25	8708.8
941.6403	2115.8337	9587	8696.3
941.7761	2117.3657	9545.55	8655.3
941.912	2118.897	9521.8	8629.3
942.0478	2120.4276	9508.65	8612.45
942.1835	2121.9575	9443.2	8551.95
942.3193	2123.4866	9456.85	8563.7
942.455	2125.0149	9442.45	8549.75
942.5907	2126.5426	9386.85	8500.75
942.7264	2128.0695	9364.1	8473.05
942.8621	2129.5956	9334.9	8452.3
942.9977	2131.1211	9322.9	8431.45
943.1333	2132.6458	9288.2	8398.5
943.2689	2134.1698	9281.15	8389.55
943.4044	2135.693	9237.05	8340.05
943.54	2137.2155	9204.2	8310.15
943.6755	2138.7373	9197.85	8308.05
943.8109	2140.2584	9161.55	8274.25
943.9464	2141.7787	9144.05	8255.95
944.0818	2143.2983	9076	8192.7
944.2172	2144.8171	9060.4	8175.7
944.3526	2146.3353	9037.7	8150.75
944.4879	2147.8527	9017.65	8131.1
944.6232	2149.3693	8996.05	8106.45
944.7585	2150.8853	8948	8054.55
944.8938	2152.4005	8916.15	8024.45
945.029	2153.9149	8925.15	8033.4
945.1642	2155.4287	8984.05	7977.95
945.2994	2156.9417	8917.75	8024.5
945.4346	2158.454	8853.9	7964.05
945.5697	2159.9655	8831.55	7945.6
945.7048	2161.4764	8791.2	7905.55
945.8399	2162.9865	8747.1	7859.5
945.9749	2164.4958	8779.35	7892
946.1099	2166.0045	8729.5	7839.3
946.2449	2167.5124	8718.15	7829.2
946.3799	2169.0195	8687.35	7799
946.5148	2170.526	8677.5	7785.7
946.6498	2172.0317	8644.4	7754.6
946.7846	2173.5367	8632.45	7742.15
946.9195	2175.0409	8606.35	7716.8
947.0543	2176.5445	8603	7716.15
947.1891	2178.0473	8554.75	7663.7
947.3239	2179.5494	8526.4	7632.35
947.4587	2181.0507	8494.65	7603.2
947.5934	2182.5513	8463.9	7573
947.7281	2184.0512	8452.65	7563.1
947.8628	2185.5504	8412.9	7522.1
947.9974	2187.0488	8346.9	7457.7
948.132	2188.5465	8321.4	7435.15
948.2666	2190.0435	8313.65	7425.55
948.4012	2191.5397	8291	7401.8
948.5357	2193.0353	8281.65	7389.3
948.6702	2194.5301	8271	7377.8
948.8047	2196.0241	8213.75	7318.85
948.9392	2197.5175	8195.4	7302.9
949.0736	2199.0101	8171.35	7278.45
949.208	2200.502	8118.6	7228.8
949.3424	2201.9931	8077.5	7189.25
949.4767	2203.4835	8064.65	7175.1
949.611	2204.9733	8055.8	7150.95
949.7453	2206.4622	8040.9	7151.7
949.8796	2207.9505	8007.15	7119.2
950.0138	2209.438	7948.45	7061.55
950.148	2210.9248	7928.15	7040.95
950.2822	2212.4109	7914.8	7025.45
950.4164	2213.8962	7890.6	6998.3
950.5505	2215.3809	7870.8	6978
950.6846	2216.8648	7879.35	6983.45
950.8186	2218.3479	7849.6	6948.8
950.9527	2219.8304	7811.25	6912.3
951.0867	2221.3121	7789.3	6892.65
951.2207	2222.7931	7736.4	6844.7
951.3546	2224.2733	7749.35	6857.55
951.4886	2225.7529	7716.85	6827.85
951.6225	2227.2317	7659.75	6768.05
951.7563	2228.7098	7676.05	6789.4
951.8902	2230.1872	7609.7	6723
952.024	2231.6638	7613.55	6725.35
952.1578	2233.1397	7555.9	6666.75
952.2916	2234.6149	7580.45	6693.7
952.4253	2236.0894	7520.6	6632.55
952.559	2237.5632	7520.15	6629.7
952.6927	2239.0362	7472.15	6582.6
952.8263	2240.5085	7448.7	6559.75
952.9599	2241.9801	7430.1	6538.4
953.0935	2243.4509	7437.15	6547.5
953.2271	2244.921	7394.2	6501.95
953.3606	2246.3904	7359.6	6465.4
953.4941	2247.8591	7335.2	6442.95
953.6276	2249.3271	7336.05	6444.4
953.7611	2250.7943	7298.5	6406.4
953.8945	2252.2608	7277.7	6388.7
954.0279	2253.7266	7245.85	6354.3
954.1612	2255.1917	7252.45	6362.4
954.2946	2256.656	7212.25	6320.75
954.4279	2258.1197	7178.9	6291.15
954.5612	2259.5826	7179.85	6287.65
954.6944	2261.0447	7180.55	6287.5
954.8276	2262.5062	7138.3	6245.3
954.9608	2263.9669	7122.75	6229.55
955.094	2265.4269	7124.8	6233.95
955.2271	2266.8862	7066.65	6175.7
955.3602	2268.3448	7080.6	6192.7
955.4933	2269.8026	7034.95	6146.85
955.6264	2271.2598	7027.15	6138.25
955.7594	2272.7162	7024.55	6138.05
955.8924	2274.1719	6990.7	6099.5
956.0253	2275.6268	6973.65	6080.1
956.1583	2277.0811	6961.1	6069
956.2912	2278.5346	6954	6064.45
956.4241	2279.9874	6941.6	6053.45
956.5569	2281.4395	6923.8	6037.6
956.6897	2282.8908	6881	5988.05
956.8225	2284.3414	6863.35	5971.35
956.9553	2285.7914	6830	5940.3
957.088	2287.2406	6813.6	5920.85
957.2207	2288.689	6798.15	5904.35
957.3534	2290.1368	6772.95	5875.7
957.486	2291.5838	6762.8	5866.1
957.6186	2293.0302	6753	5855.6
957.7512	2294.4758	6707.45	5812.1
957.8838	2295.9206	6688.45	5793.6
958.0163	2297.3648	6677.65	5785.95
958.1488	2298.8082	6681.35	5790.4
958.2813	2300.251	6638.65	5747.95
958.4137	2301.693	6619.8	5724.65
958.5461	2303.1343	6611.1	5718.45
958.6785	2304.5748	6605.9	5715.35
958.8108	2306.0147	6574.85	5683.8
958.9432	2307.4538	6557.95	5669.25
959.0754	2308.8922	6531.05	5646.15
959.2077	2310.3299	6514	5627.55
959.3399	2311.7669	6495.1	5607.75
959.4721	2313.2031	6482.75	5591.4
959.6043	2314.6387	6455.9	5565.1
959.7365	2316.0735	6430.1	5540.75
959.8686	2317.5076	6430.2	5538.35
960.0006	2318.941	6399	5507.2
960.1327	2320.3737	6381.35	5486.75
960.2647	2321.8056	6356.7	5462.65
960.3967	2323.2369	6331.9	5441
960.5287	2324.6674	6330.6	5439.2
960.6606	2326.0972	6291.8	5398.6
960.7925	2327.5263	6281.85	5389.7
960.9244	2328.9547	6269.65	5376.75
961.0562	2330.3823	6265.95	5371.9
961.1881	2331.8092	6279	5381.9
961.3198	2333.2355	6225.2	5330.55
961.4516	2334.661	6204	5310.55
961.5833	2336.0858	6201.95	5308.7
961.715	2337.5098	6165.75	5272.1
961.8467	2338.9332	6162.4	5269.45
961.9783	2340.3558	6135.75	5240.4
962.1099	2341.7778	6116.25	5226.55
962.2415	2343.199	6089.45	5199.5
962.373	2344.6195	6068.25	5178.3
962.5045	2346.0393	6061.2	5173.35
962.636	2347.4583	6043.5	5151.7
962.7675	2348.8767	6033.95	5143.3
962.8989	2350.2943	6015.35	5121.5
963.0303	2351.7113	5986.8	5093.05
963.1617	2353.1275	5972.4	5078.2
963.293	2354.543	5977.85	5077.35
963.4243	2355.9578	5971.75	5078
963.5556	2357.3718	5926.15	5036.55
963.6868	2358.7852	5920	5030.55
963.818	2360.1978	5889.5	4998.25
963.9492	2361.6098	5880.55	4991.55
964.0803	2363.021	5858.05	4962.95
964.2114	2364.4315	5834.7	4942.7
964.3425	2365.8413	5808.35	4916.15
964.4736	2367.2504	5782	4893.85
964.6046	2368.6587	5759.5	4872.25
964.7356	2370.0664	5748.9	4859.75
964.8666	2371.4733	5746.6	4854.85
964.9975	2372.8795	5730.75	4841.75
965.1284	2374.285	5704.85	4813.45
965.2593	2375.6899	5664.7	4775.7
965.3901	2377.0939	5650.75	4763.2
965.5209	2378.4973	5620.75	4730.5
965.6517	2379.9	5603.6	4715.3
965.7825	2381.3019	5587.7	4698.6
965.9132	2382.7032	5583.75	4696.85
966.0439	2384.1037	5572.55	4686.55
966.1745	2385.5035	5550.4	4662.1
966.3051	2386.9027	5533.4	4646.8
966.4357	2388.3011	5517.1	4625.9
966.5663	2389.6987	5482.8	4595.4
966.6968	2391.0957	5477.7	4590.75
966.8273	2392.492	5466.2	4578.4
966.9578	2393.8876	5440.65	4554.35
967.0882	2395.2824	5421.75	4532.8
967.2186	2396.6765	5384.85	4497.4
967.349	2398.07	5363.25	4469.4
967.4793	2399.4627	5347.4	4454.8
967.6097	2400.8547	5345.6	4457
967.7399	2402.246	5358	4462.85
967.8702	2403.6366	5319.8	4429.6
968.0004	2405.0265	5272.8	4385.2
968.1306	2406.4156	5266	4374.75
968.2607	2407.8041	5244.15	4354.05
968.3909	2409.1918	5252.3	4359.15
968.521	2410.5789	5214.65	4326.55
968.651	2411.9652	5190.9	4298.9
968.781	2413.3508	5194.05	4304.35
968.911	2414.7358	5157.8	4266.8
969.041	2416.12	5151	4260.75
969.1709	2417.5035	5135.25	4245.6
969.3008	2418.8863	5121.25	4231.2
969.4307	2420.2684	5116.6	4225.45
969.5606	2421.6497	5082.15	4191.2
969.6904	2423.0304	5059.25	4170.15
969.8201	2424.4104	5051.15	4161.4
969.9499	2425.7896	5046.85	4157.9
970.0796	2427.1682	5017.45	4128.5
970.2093	2428.546	5021.15	4130
970.3389	2429.9232	4993.85	4103.15
970.4685	2431.2996	4976.5	4086.25
970.5981	2432.6753	4966.25	4075.05
970.7277	2434.0503	4951.65	4062.4
970.8572	2435.4246	4941.15	4050.7
970.9867	2436.7982	4917.2	4024.7
971.1161	2438.1711	4907.1	4016.45
971.2456	2439.5433	4888.5	3995.55
971.375	2440.9148	4880	3982.65
971.5043	2442.2856	4862.4	3973.65
971.6336	2443.6557	4859.9	3967.45
971.7629	2445.025	4831.7	3941.05
971.8922	2446.3937	4824.7	3934.25
972.0214	2447.7617	4810.85	3919.1
972.1506	2449.1289	4811.25	3921.65
972.2798	2450.4955	4779	3885.1
972.4089	2451.8613	4773.5	3883.95
972.538	2453.2265	4755.3	3866.85
972.6671	2454.5909	4748.85	3858.5
972.7961	2455.9546	4723.55	3833.45
972.9251	2457.3177	4718.95	3830
973.0541	2458.68	4721.6	3828.15
973.1831	2460.0416	4718.6	3830.25
973.312	2461.4025	4704.9	3813.5
973.4408	2462.7627	4686.6	3785.95
973.5697	2464.1222	4661.15	3774.05
973.6985	2465.4811	4654.15	3766.4
973.8273	2466.8392	4646.85	3756.15
973.956	2468.1966	4638.2	3743.8
974.0847	2469.5533	4636.75	3745.9
974.2134	2470.9093	4622.65	3731
974.3421	2472.2645	4602.35	3710.95
974.4707	2473.6191	4585.45	3695.3
974.5993	2474.973	4577.25	3689.75
974.7278	2476.3262	4577.15	3685.5
974.8563	2477.6787	4539.5	3649.2
974.9848	2479.0305	4515.7	3625.65
975.1132	2480.3816	4492.75	3600.8
975.2417	2481.7319	4500.45	3611.9
975.37	2483.0816	4477.05	3587.05
975.4984	2484.4306	4472.15	3581.4
975.6267	2485.7789	4446.1	3557.85
975.755	2487.1264	4425.35	3536.3
975.8833	2488.4733	4418.85	3532.05
976.0115	2489.8195	4415	3510.3
976.1397	2491.165	4395.45	3503.85
976.2678	2492.5097	4390.45	3500.1
976.3959	2493.8538	4374.05	3485.55
976.524	2495.1972	4337.6	3446.75
976.6521	2496.5398	4329.85	3440.55
976.7801	2497.8818	4336.05	3443
976.9081	2499.2231	4329.1	3436.95
977.036	2500.5637	4313.75	3420.95
977.164	2501.9035	4300.75	3408.9
977.2918	2503.2427	4285.1	3389.25
977.4197	2504.5812	4257.45	3367.95
977.5475	2505.919	4254.7	3361
977.6753	2507.256	4255.9	3368.35
977.8031	2508.5924	4241.65	3353.35
977.9308	2509.9281	4237.15	3342.25
978.0585	2511.2631	4202.15	3312.1
978.1861	2512.5974	4196.4	3307.6
978.3137	2513.9309	4195.05	3306.1
978.4413	2515.2638	4194.7	3278.55
978.5689	2516.596	4165.8	3275.25
978.6964	2517.9275	4153.8	3262.2
978.8239	2519.2583	4128.6	3237.15
978.9513	2520.5884	4109.45	3220.25
979.0788	2521.9178	4109.4	3219.8
979.2062	2523.2465	4092.9	3206.2
979.3335	2524.5745	4080.85	3192.85
979.4608	2525.9018	4063.6	3173
979.5881	2527.2284	4051.8	3160.8
979.7154	2528.5543	4048.75	3158.6
979.8426	2529.8796	4031.45	3140
979.9698	2531.2041	4026.9	3137.8
980.0969	2532.5279	4004.3	3116.3
980.224	2533.851	4021.4	3132.4
980.3511	2535.1735	4015.45	3125.5
980.4781	2536.4952	3993.05	3102.6
980.6052	2537.8163	3993.3	3102.7
980.7321	2539.1366	3979.2	3089.2
980.8591	2540.4562	3974.85	3082.65
980.986	2541.7752	3965.2	3072.8
981.1129	2543.0935	3948.15	3056.6
981.2397	2544.411	3942.8	3050.8
981.3665	2545.7279	3928.8	3035.85
981.4933	2547.0441	3936.9	3046.05
981.62	2548.3596	3926.1	3033.65
981.7467	2549.6744	3916.5	3027.75
981.8734	2550.9885	3903.8	3011.25
982.0001	2552.3019	3912.15	3021.2
982.1267	2553.6146	3889.8	2999.95
982.2532	2554.9266	3865.4	2974.4
982.3798	2556.2379	3849.05	2956.8
982.5063	2557.5485	3859.05	2970.75
982.6327	2558.8585	3847.45	2950.35
982.7592	2560.1677	3855.05	2958.25
982.8856	2561.4762	3845.95	2956.7
983.0119	2562.7841	3825.95	2931.8
983.1383	2564.0913	3811.95	2923.55
983.2646	2565.3977	3820	2931.55
983.3908	2566.7035	3809.65	2920.1
983.517	2568.0086	3798.25	2907.15
983.6432	2569.313	3783	2890.65
983.7694	2570.6167	3776.2	2881.55
983.8955	2571.9197	3772.9	2882.85
984.0216	2573.222	3770.1	2874.6
984.1476	2574.5236	3749.7	2857.9
984.2737	2575.8246	3753.25	2859.9
984.3996	2577.1248	3749.45	2856.7
984.5256	2578.4244	3743.15	2853.45
984.6515	2579.7232	3735.55	2845.8
984.7774	2581.0214	3751.45	2830.5
984.9032	2582.3189	3724.6	2836
985.029	2583.6157	3725.2	2827.6
985.1548	2584.9118	3707.7	2817.4
985.2806	2586.2072	3691.9	2800.75
985.4063	2587.5019	3701	2808
985.5319	2588.7959	3679.1	2785.45
985.6576	2590.0893	3688.35	2796.35
985.7832	2591.3819	3686.95	2795.85
985.9087	2592.6739	3667.35	2777.05
986.0343	2593.9652	3648.5	2755.45
986.1597	2595.2557	3653.25	2762.5
986.2852	2596.5456	3633.6	2740.6
986.4106	2597.8348	3629.4	2739.75
986.536	2599.1234	3618.4	2727.75
986.6614	2600.4112	3605.05	2714.15
986.7867	2601.6983	3609.05	2713
986.912	2602.9848	3594.6	2703
987.0372	2604.2705	3583.05	2684.7
987.1624	2605.5556	3570.5	2677.75
987.2876	2606.84	3576.55	2688.6
987.4128	2608.1237	3544.05	2654.1
987.5379	2609.4067	3540.45	2647.95
987.6629	2610.689	3530.5	2630.9
987.788	2611.9707	3519.2	2623.9
987.913	2613.2516	3510.15	2615.15
988.0379	2614.5319	3509	2620.05
988.1629	2615.8115	3491.4	2597.9
988.2878	2617.0903	3475.7	2584.4
988.4126	2618.3685	3456.1	2565
988.5375	2619.6461	3457.55	2566.45
988.6622	2620.9229	3454.75	2565.15
988.787	2622.199	3450.45	2559.15
988.9117	2623.4745	3452.55	2560.5
989.0364	2624.7493	3429.95	2537.3
989.161	2626.0234	3426.75	2536.3
989.2857	2627.2968	3406.85	2516.2
989.4102	2628.5695	3418.2	2524.2
989.5348	2629.8415	3380.65	2492.85
989.6593	2631.1128	3374.8	2482.35
989.7837	2632.3835	3367.3	2477.1
989.9082	2633.6535	3361.25	2472.75
990.0326	2634.9228	3358.45	2467.05
990.1569	2636.1914	3343.25	2453.4
990.2812	2637.4593	3340.9	2443.95
990.4055	2638.7265	3325.85	2436.15
990.5298	2639.9931	3312.65	2423.45
990.654	2641.259	3313.4	2421.6
990.7782	2642.5242	3299.05	2408.9
990.9023	2643.7887	3292	2400.25
991.0264	2645.0525	3279.4	2389.4
991.1505	2646.3156	3284.25	2380.15
991.2745	2647.5781	3267.15	2376.7
991.3985	2648.8398	3251.15	2361.85
991.5225	2650.1009	3253.3	2353.55
991.6464	2651.3613	3242.3	2351.95
991.7703	2652.6211	3226.3	2335.65
991.8942	2653.8801	3223.8	2333
992.018	2655.1385	3230.05	2337.35
992.1418	2656.3961	3216.8	2328.65
992.2655	2657.6531	3205.85	2315.65
992.3892	2658.9094	3210.3	2320.5
992.5129	2660.1651	3194.25	2305.2
992.6366	2661.42	3199.75	2308.45
992.7602	2662.6743	3182.45	2290.35
992.8837	2663.9279	3188.55	2297.2
993.0073	2665.1808	3170.85	2281.45
993.1307	2666.433	3174.3	2281.05
993.2542	2667.6846	3158.2	2269
993.3776	2668.9354	3179	2287.05
993.501	2670.1856	3158.3	2268.45
993.6244	2671.4351	3146.9	2257.6
993.7477	2672.6839	3135	2244.95
993.8709	2673.9321	3132.75	2243.05
993.9942	2675.1795	3126.75	2235.95
994.1174	2676.4263	3124.25	2233.6
994.2405	2677.6724	3130.55	2242.3
994.3637	2678.9179	3118.6	2226.35
994.4868	2680.1626	3102.5	2212.45
994.6098	2681.4067	3101.4	2210.75
994.7328	2682.6501	3114.25	2224.9
994.8558	2683.8928	3092.9	2203.9
994.9788	2685.1348	3089.6	2199.85
995.1017	2686.3761	3077.7	2188.95
995.2245	2687.6168	3062.25	2172.4
995.3474	2688.8568	3053.15	2162.35
995.4702	2690.0961	3049.15	2160.6
995.5929	2691.3348	3028.45	2140.3
995.7156	2692.5727	3034.75	2144.7
995.8383	2693.81	3027.95	2139.45
995.961	2695.0466	3018.4	2128.8
996.0836	2696.2826	3011.6	2121.3
996.2062	2697.5178	3002.05	2112.3
996.3287	2698.7524	3007.95	2117.85
996.4512	2699.9863	2994.2	2103.55
996.5737	2701.2195	2990.15	2100.25
996.6961	2702.452	2993.9	2104.35
996.8185	2703.6839	2976.5	2086.55
996.9408	2704.9151	2976.85	2087.5
997.0631	2706.1456	2983.8	2094.2
997.1854	2707.3755	2979	2087.8
997.3077	2708.6046	2976.75	2086.3
997.4299	2709.8331	2967.25	2076
997.552	2711.0609	2971.3	2082.95
997.6742	2712.2881	2972	2083.8
997.7963	2713.5145	2978.25	2085.4
997.9183	2714.7403	2971.55	2083.7
998.0403	2715.9654	2983.75	2093.8
998.1623	2717.1899	2999.8	2094.9
998.2842	2718.4136	2996.4	2107.45
998.4062	2719.6367	2986.05	2097.85
998.528	2720.8591	3002.45	2106.7
998.6498	2722.0809	3003.45	2114.35
998.7716	2723.3019	2997.65	2106.05
998.8934	2724.5223	2997.3	2109
999.0151	2725.7421	2994.45	2104.5
999.1368	2726.9611	3000.35	2109.4
999.2584	2728.1795	2995.4	2102.4
999.38	2729.3972	2988.5	2098
999.5016	2730.6142	2966.7	2070.6
999.6231	2731.8306	2948.4	2057.2
999.7446	2733.0462	2920.05	2028.65
999.8661	2734.2612	2901.1	2008.85
999.9875	2735.4756	2880.45	1990.2
1000.1089	2736.6892	2848.3	1957.6
1000.2302	2737.9022	2828.8	1943.2
1000.3515	2739.1145	2818.85	1930.35
1000.4728	2740.3262	2808.7	1911.95
1000.594	2741.5372	2787.2	1897.8
1000.7152	2742.7475	2758.5	1871.45
1000.8363	2743.9571	2750.9	1861.65
1000.9575	2745.1661	2733.5	1841.85
1001.0785	2746.3744	2728.2	1839.1
1001.1996	2747.582	2713.35	1823.95
1001.3206	2748.7889	2693.65	1804.65
1001.4415	2749.9952	2682.65	1796.1
1001.5625	2751.2008	2680.6	1792.15
1001.6833	2752.4057	2669.4	1779.55
1001.8042	2753.61	2654.3	1765.95
1001.925	2754.8136	2652.75	1761.35
1002.0458	2756.0165	2640.05	1751.65
1002.1665	2757.2188	2646.8	1759
1002.2872	2758.4204	2642.55	1754.85
1002.4078	2759.6213	2630.8	1742
1002.5285	2760.8215	2620.25	1728.2
1002.649	2762.0211	2621.45	1730.65
1002.7696	2763.22	2620.8	1728.85
1002.8901	2764.4182	2599.9	1710.1
1003.0106	2765.6158	2607.3	1719.85
1003.131	2766.8127	2586.85	1697.75
1003.2514	2768.009	2571.3	1683.45
1003.3717	2769.2045	2584.75	1697.7
1003.492	2770.3994	2576.55	1687.65
1003.6123	2771.5936	2569.1	1679.55
1003.7325	2772.7872	2544.45	1657.85
1003.8527	2773.9801	2542.9	1652.65
1003.9729	2775.1723	2560.05	1653.6
1004.093	2776.3639	2527.3	1639.55
1004.2131	2777.5548	2531.45	1640.55
1004.3331	2778.745	2519.15	1631.3
1004.4531	2779.9346	2534.3	1647.4
1004.5731	2781.1235	2524.45	1635.15
1004.693	2782.3117	2502.15	1616.95
1004.8129	2783.4992	2513.85	1625.55
1004.9328	2784.6861	2507.8	1619.3
1005.0526	2785.8723	2518.65	1630.55
1005.1723	2787.0579	2519.3	1628
1005.2921	2788.2428	2520.8	1632.4
1005.4118	2789.427	2517.9	1629.55
1005.5314	2790.6106	2523.65	1637.25
1005.651	2791.7935	2532.25	1645.25
1005.7706	2792.9757	2545.3	1659.65
1005.8902	2794.1573	2534.25	1644.35
1006.0097	2795.3382	2541.55	1654.5
1006.1291	2796.5184	2559.6	1672.6
1006.2485	2797.698	2569.65	1683.05
1006.3679	2798.8769	2574.9	1690.45
1006.4873	2800.0551	2578.85	1689.35
1006.6066	2801.2327	2604	1713.35
1006.7258	2802.4096	2623.45	1736.55
1006.8451	2803.5859	2633.7	1748.2
1006.9642	2804.7615	2635.4	1748.95
1007.0834	2805.9364	2661.7	1776.05
1007.2025	2807.1106	2689.95	1804.35
1007.3216	2808.2842	2721.15	1835.1
1007.4406	2809.4572	2741.8	1854.9
1007.5596	2810.6294	2773.5	1885.35
1007.6785	2811.801	2796.95	1911.8
1007.7975	2812.972	2848.7	1960.55
1007.9163	2814.1423	2897.8	2008.1
1008.0352	2815.3119	2930.35	2042.9
1008.154	2816.4808	2969.95	2082.85
1008.2727	2817.6491	3015.55	2130.25
1008.3914	2818.8167	3050.7	2163.55
1008.5101	2819.9837	3102.6	2212.4
1008.6288	2821.15	3140.2	2253.65
1008.7474	2822.3157	3172	2286.95
1008.8659	2823.4807	3224.75	2337.3
1008.9844	2824.645	3258.35	2371.6
1009.1029	2825.8086	3296.8	2409.6
1009.2214	2826.9716	3348.7	2461.5
1009.3398	2828.134	3378.15	2493.5
1009.4581	2829.2957	3424.05	2537.15
1009.5764	2830.4567	3428.75	2542.7
1009.6947	2831.617	3452.2	2565.85
1009.813	2832.7767	3462.5	2576.8
1009.9312	2833.9358	3454.45	2568.2
1010.0493	2835.0941	3440.85	2550.85
1010.1675	2836.2519	3439.35	2555.55
1010.2855	2837.4089	3425.9	2538.5
1010.4036	2838.5653	3401.15	2514.5
1010.5216	2839.7211	3407.1	2523.95
1010.6396	2840.8761	3418.15	2530.3
1010.7575	2842.0306	3426.85	2543.95
1010.8754	2843.1843	3462.9	2576.65
1010.9932	2844.3374	3505.2	2620.25
1011.111	2845.4899	3565.1	2678.1
1011.2288	2846.6417	3633.65	2746.4
1011.3465	2847.7928	3708.7	2821.85
1011.4642	2848.9433	3775.8	2891.15
1011.5818	2850.0931	3855.7	2971.4
1011.6995	2851.2422	3934.2	3045.35
1011.817	2852.3907	3987.85	3102.6
1011.9345	2853.5385	4052.8	3167.2
1012.052	2854.6857	4107.45	3213.75
1012.1695	2855.8323	4144.4	3260.55
1012.2869	2856.9781	4205.8	3319.5
1012.4042	2858.1233	4245.3	3358.85
1012.5216	2859.2679	4286.45	3402.35
1012.6389	2860.4118	4327.75	3442.75
1012.7561	2861.555	4372.95	3483.05
1012.8733	2862.6976	4400.2	3511.05
1012.9905	2863.8395	4422.85	3536.1
1013.1076	2864.9808	4441.4	3555.9
1013.2247	2866.1214	4436.75	3551.65
1013.3417	2867.2614	4446.15	3561.2
1013.4587	2868.4007	4466.95	3580.8
1013.5757	2869.5393	4469.6	3581.7
1013.6926	2870.6773	4487.55	3598.15
1013.8095	2871.8146	4491.8	3601.4
1013.9263	2872.9513	4506.5	3617.1
1014.0431	2874.0874	4486.5	3601.6
1014.1599	2875.2227	4483.65	3597.7
1014.2766	2876.3574	4452.1	3566.9
1014.3933	2877.4915	4431.2	3545.35
1014.51	2878.6249	4405.25	3518.35
1014.6266	2879.7577	4371.65	3485.85
1014.7431	2880.8898	4374.65	3476.8
1014.8596	2882.0212	4335.1	3453.2
1014.9761	2883.152	4318.3	3431.45
1015.0925	2884.2821	4286.35	3400.95
1015.2089	2885.4116	4272.65	3388.75
1015.3253	2886.5405	4275.8	3391.15
1015.4416	2887.6686	4295.35	3406.9
1015.5579	2888.7962	4281.15	3397.55
1015.6741	2889.923	4289.4	3405.2
1015.7903	2891.0493	4308	3423.15
1015.9065	2892.1748	4309.8	3424.8
1016.0226	2893.2997	4314.9	3431.2
1016.1387	2894.424	4327.95	3443
1016.2547	2895.5476	4336.4	3452.2
1016.3707	2896.6706	4353.55	3467.7
1016.4866	2897.7929	4398.05	3511.25
1016.6025	2898.9145	4413.65	3529.25
1016.7184	2900.0355	4429.4	3543.05
1016.8342	2901.1559	4468.8	3582.05
1016.95	2902.2756	4483.65	3600.4
1017.0658	2903.3946	4505.45	3621.45
1017.1815	2904.513	4546.15	3657.65
1017.2971	2905.6308	4545.1	3659.7
1017.4127	2906.7479	4597.45	3710.8
1017.5283	2907.8643	4607	3721.3
1017.6439	2908.9801	4606.3	3721.1
1017.7594	2910.0953	4624.9	3740.95
1017.8748	2911.2098	4616.35	3728.7
1017.9902	2912.3236	4611.2	3717.35
1018.1056	2913.4368	4592.9	3703.9
1018.2209	2914.5494	4576.5	3691
1018.3362	2915.6613	4543.65	3654.95
1018.4515	2916.7725	4510.3	3624.65
1018.5667	2917.8831	4484.45	3598.5
1018.6819	2918.9931	4453.6	3565.7
1018.797	2920.1024	4421.55	3533.95
1018.9121	2921.211	4386.3	3501.9
1019.0271	2922.319	4383.8	3498.8
1019.1421	2923.4264	4340.4	3455.2
1019.2571	2924.5331	4340.75	3457.25
1019.372	2925.6391	4323.55	3440.5
1019.4869	2926.7445	4306.45	3425.55
1019.6017	2927.8493	4295	3408.95
1019.7165	2928.9534	4292.45	3407.1
1019.8313	2930.0569	4281.95	3394.25
1019.946	2931.1597	4292.2	3405.75
1020.0606	2932.2619	4270.15	3384.1
1020.1753	2933.3634	4265.7	3382.3
1020.2899	2934.4643	4232.65	3339.2
1020.4044	2935.5645	4219.25	3330.3
1020.5189	2936.6641	4171.65	3284.2
1020.6334	2937.763	4127.2	3242.6
1020.7478	2938.8613	4082.7	3198.35
1020.8622	2939.959	4016.55	3126
1020.9765	2941.056	3955.85	3071.65
1021.0908	2942.1523	3880.2	2993.05
1021.2051	2943.248	3788	2903.6
1021.3193	2944.3431	3667.25	2782.5
1021.4334	2945.4375	3578.4	2693.7
1021.5476	2946.5313	3481.8	2599.05
1021.6617	2947.6244	3370.65	2486.7
1021.7757	2948.7169	3274.05	2388.55
1021.8897	2949.8087	3185.2	2302.6
1022.0037	2950.8999	3089.15	2204.65
1022.1176	2951.9904	2992.8	2109.15
1022.2315	2953.0803	2929.4	2046.1
1022.3453	2954.1696	2861.45	1978.15
1022.4591	2955.2582	2810.35	1929.05
1022.5728	2956.3462	2757.6	1872.85
1022.6865	2957.4335	2719.75	1832.4
1022.8002	2958.5202	2676.35	1791.9
1022.9138	2959.6062	2641.55	1757.35
1023.0274	2960.6916	2628.3	1745.85
1023.141	2961.7764	2605.05	1723
1023.2545	2962.8605	2576.5	1691.7
1023.3679	2963.9439	2561.45	1678
1023.4813	2965.0267	2544.9	1658.25
1023.5947	2966.1089	2558.6	1650.05
1023.708	2967.1905	2532.25	1648.95
1023.8213	2968.2714	2522.05	1638.8
1023.9346	2969.3516	2514.35	1632.6
1024.0478	2970.4312	2527.5	1636.55
1024.1609	2971.5102	2523.4	1639.75
1024.274	2972.5885	2514.25	1630.9
1024.3871	2973.6662	2524.45	1636.25
1024.5002	2974.7432	2505.1	1621.3
1024.6132	2975.8196	2499.75	1615.3
1024.7261	2976.8954	2483.05	1600.25
1024.839	2977.9705	2472.2	1589.65
1024.9519	2979.045	2457.7	1572.85
1025.0647	2980.1188	2439.2	1555.6
1025.1775	2981.192	2423.85	1538.85
1025.2902	2982.2645	2398.35	1514.7
1025.4029	2983.3364	2363.1	1480
1025.5156	2984.4077	2339.2	1455.85
1025.6282	2985.4783	2316.4	1429.05
1025.7407	2986.5483	2275.7	1394.45
1025.8532	2987.6177	2248.45	1366.05
1025.9657	2988.6864	2206.55	1323.65
1026.0782	2989.7545	2177.3	1290.95
1026.1906	2990.8219	2137.65	1255.55
1026.3029	2991.8887	2111.45	1227.25
1026.4152	2992.9548	2067.9	1183.55
1026.5275	2994.0204	2042.35	1157.95
1026.6397	2995.0852	2012.3	1129.45
1026.7519	2996.1495	1982.05	1099.6
1026.864	2997.2131	1956.7	1074.15
1026.9761	2998.276	1929.65	1046.85
1027.0882	2999.3383	1919.7	1035.95
1027.2002	3000.4	1895.4	1010.45
1027.3122	3001.4611	1874.7	992.05
1027.4241	3002.5215	1862.45	979.15
1027.536	3003.5812	1845.8	960.3
1027.6478	3004.6404	1838.95	955.85
1027.7596	3005.6989	1827.8	942.05
1027.8714	3006.7567	1816.25	933.3
1027.9831	3007.8139	1817.35	912.95
1028.0947	3008.8705	1803.4	920.65
1028.2064	3009.9264	1796.6	895.45
1028.3179	3010.9818	1781.7	899.4
1028.4295	3012.0364	1785.05	903.4
1028.541	3013.0905	1771.85	887.85
1028.6524	3014.1439	1766.1	883.05
1028.7638	3015.1966	1774.85	890.2
1028.8752	3016.2487	1766.1	883.85
1028.9865	3017.3002	1757.5	867.7
1029.0978	3018.3511	1755.95	875.25
1029.209	3019.4013	1764.05	882.05
1029.3202	3020.4509	1758.25	877.25
1029.4314	3021.4998	1756.75	872.9
1029.5425	3022.5481	1755.4	872.65
1029.6535	3023.5958	1752.9	869.25
1029.7645	3024.6428	1757.15	870.95
1029.8755	3025.6892	1746.9	863.4
1029.9864	3026.735	1746.65	865.6
1030.0973	3027.7802	1744.5	861.85
1030.2082	3028.8247	1748.05	866.1
1030.319	3029.8685	1747.75	865.7
1030.4297	3030.9118	1745.45	863.1
1030.5404	3031.9544	1756	873.5
1030.6511	3032.9963	1764.2	882.55
1030.7617	3034.0376	1760.55	879.3
1030.8723	3035.0783	1764.8	879.05
1030.9829	3036.1184	1772.1	888.85
1031.0934	3037.1578	1760.45	877.5
1031.2038	3038.1966	1770.8	885.75
1031.3142	3039.2348	1772.6	892.8
1031.4246	3040.2723	1766.8	873.9
1031.5349	3041.3092	1767.3	884.35
1031.6452	3042.3455	1757.3	873.7
1031.7554	3043.3811	1754.85	870.05
1031.8656	3044.4161	1748.35	866.35
1031.9758	3045.4505	1742.65	860.6
1032.0859	3046.4842	1730.2	847.35
1032.1959	3047.5173	1720.7	841.05
1032.3059	3048.5498	1713.6	830.95
1032.4159	3049.5816	1712.15	829.85
1032.5258	3050.6128	1708.75	827.25
1032.6357	3051.6434	1693.1	811.55
1032.7455	3052.6734	1682.05	798.55
1032.8553	3053.7027	1678.85	796.35
1032.9651	3054.7314	1668.25	787.05
1033.0748	3055.7594	1663.05	780.25
1033.1845	3056.7868	1657	773.6
1033.2941	3057.8136	1648.65	767
1033.4037	3058.8398	1636.6	754.8
1033.5132	3059.8653	1635.05	751.55
1033.6227	3060.8902	1629.85	747.7
1033.7321	3061.9145	1623.95	740.95
1033.8415	3062.9381	1612.05	730.15
1033.9509	3063.9612	1613.95	715.1
1034.0602	3064.9835	1599.4	719.2
1034.1694	3066.0053	1603.9	719.8
1034.2787	3067.0264	1591.6	711.5
1034.3878	3068.0469	1579.3	696.45
1034.497	3069.0668	1573.8	690.55
1034.6061	3070.086	1563.45	682
1034.7151	3071.1046	1545.3	662.9
1034.8241	3072.1226	1545.1	659.9
1034.9331	3073.1399	1536.1	655.45
1035.042	3074.1567	1520.9	638.8
1035.1508	3075.1727	1507.3	625.05
1035.2597	3076.1882	1502.9	621.25
1035.3684	3077.203	1496.4	615.05
1035.4772	3078.2173	1485.4	602
1035.5859	3079.2308	1474.2	588.85
1035.6945	3080.2438	1463.05	579.15
1035.8031	3081.2561	1454.35	571.15
1035.9117	3082.2678	1447	566.6
1036.0202	3083.2789	1439	556.6
1036.1286	3084.2893	1431.55	551.05
1036.2371	3085.2991	1423.2	541.5
1036.3454	3086.3083	1426.8	539.65
1036.4538	3087.3169	1411.85	528.85
1036.562	3088.3248	1405	521.95
1036.6703	3089.3321	1396.85	512.35
1036.7785	3090.3388	1384.85	504.75
1036.8866	3091.3449	1385.8	504.95
1036.9948	3092.3503	1397.75	512.7
1037.1028	3093.3551	1376.7	496.15
1037.2108	3094.3593	1370.6	488.25
1037.3188	3095.3629	1369.45	487.7
1037.4267	3096.3658	1364.8	482.1
1037.5346	3097.3681	1360	478.4
1037.6425	3098.3698	1351.8	468.35
1037.7503	3099.3708	1357	467.8
1037.858	3100.3713	1344.2	462.6
1037.9657	3101.3711	1346.4	464.1
1038.0734	3102.3702	1472.25	453.4
1038.181	3103.3688	1346.9	462.9
1038.2886	3104.3667	1331.85	450.8
1038.3961	3105.364	1329.7	448.45
1038.5036	3106.3607	1325.4	442.65
1038.611	3107.3568	1323.05	439.8
1038.7184	3108.3522	1315.15	434.9
1038.8257	3109.347	1315.2	432.5
1038.933	3110.3412	1324.75	438.4
1039.0403	3111.3348	1303.35	420.5
1039.1475	3112.3277	1309.15	427.9
1039.2547	3113.32	1303.95	423.35
1039.3618	3114.3117	1298.35	414.4
1039.4689	3115.3028	1298.5	416.1
1039.5759	3116.2932	1293.75	410.55
1039.6829	3117.2831	1301.05	414.45
1039.7898	3118.2723	1295.6	415.45
1039.8967	3119.2608	1288.35	407.95
1040.0035	3120.2488	1287.9	404.75
1040.1103	3121.2361	1281.05	399.55
1040.2171	3122.2229	1283.55	401.75
1040.3238	3123.209	1279.3	396.25
1040.4305	3124.1944	1275.1	395.25
1040.5371	3125.1793	1272.65	391.8
1040.6437	3126.1635	1272.45	391.8
1040.7502	3127.1471	1267.65	386.45
1040.8567	3128.1301	1269.75	388.2
1040.9631	3129.1125	1263	383.55
1041.0695	3130.0942	1265.2	382.4
1041.1759	3131.0753	1273.4	383.25
1041.2822	3132.0558	1261.65	376.7
1041.3884	3133.0357	1258.3	375.95
1041.4946	3134.015	1250.5	370.25
1041.6008	3134.9936	1250.65	367.2
1041.7069	3135.9716	1267.8	365.55
1041.813	3136.949	1245.35	361.6
1041.919	3137.9258	1263.35	363.2
1042.025	3138.902	1252.15	365.9
1042.1309	3139.8775	1239.7	359.9
1042.2368	3140.8524	1239.75	358.6
1042.3427	3141.8267	1238.55	355.95
1042.4485	3142.8004	1236.15	355.75
1042.5542	3143.7735	1237.8	349.2
1042.6599	3144.7459	1230.2	346.45
1042.7656	3145.7178	1233.25	352.8
1042.8712	3146.689	1225.65	344.45
1042.9768	3147.6596	1221.85	337
1043.0823	3148.6295	1225.7	344.35
1043.1878	3149.5989	1222.4	341.1
1043.2932	3150.5676	1213.65	333.35
1043.3986	3151.5357	1208.85	328.85
1043.5039	3152.5032	1213.1	334.9
1043.6092	3153.4701	1212.4	330.8
1043.7145	3154.4364	1213.85	331.15
1043.8197	3155.402	1204	324.8
1043.9248	3156.367	1210.6	326.2
1044.03	3157.3315	1247.5	324.05
1044.135	3158.2952	1205.05	324.8
1044.24	3159.2584	1198.05	317.2
1044.345	3160.221	1193.2	312
1044.4499	3161.1829	1195.35	314.45
1044.5548	3162.1442	1191.1	308.75
1044.6596	3163.105	1191.8	311.75
1044.7644	3164.065	1191.85	311.4
1044.8692	3165.0245	1194.45	311
1044.9739	3165.9834	1186.15	305.2
1045.0785	3166.9416	1186.8	305.45
1045.1831	3167.8993	1181.85	300.75
1045.2877	3168.8563	1178.4	296.3
1045.3922	3169.8127	1181.5	301.05
1045.4966	3170.7684	1172.6	292.15
1045.6011	3171.7236	1171.95	289.95
1045.7054	3172.6782	1175.75	294.8
1045.8098	3173.6321	1174.85	292.55
1045.914	3174.5854	1176.1	292.45
1046.0183	3175.5381	1170	289.55
1046.1224	3176.4902	1163.6	284.45
1046.2266	3177.4417	1168.25	287.15
1046.3307	3178.3926	1160.2	281.65
1046.4347	3179.3428	1159.35	280.8
1046.5387	3180.2924	1159.2	277.35
1046.6427	3181.2415	1157.65	276.9
1046.7466	3182.1899	1155.05	271.75
1046.8504	3183.1377	1158.2	275.95
1046.9542	3184.0848	1158.2	273.65
1047.058	3185.0314	1150.75	270.9
1047.1617	3185.9773	1151.35	270
1047.2654	3186.9227	1156.65	274.25
1047.369	3187.8674	1143.35	262.6
1047.4726	3188.8115	1151.3	267.2
1047.5761	3189.755	1145.35	264.75
1047.6796	3190.6979	1148.2	267.95
1047.783	3191.6402	1146.85	266.8
1047.8864	3192.5818	1143.85	263.4
1047.9898	3193.5229	1144.75	257.15
1048.0931	3194.4633	1140.9	260.3
1048.1963	3195.4031	1136.6	255
1048.2995	3196.3423	1138.55	256
1048.4027	3197.2809	1135.9	255.05
1048.5058	3198.2189	1131.1	250.1
1048.6089	3199.1563	1136	251.05
1048.7119	3200.0931	1124.6	244.7
1048.8148	3201.0292	1129.3	250.2
1048.9178	3201.9648	1129.15	248.95
1049.0206	3202.8997	1131.8	247.85
1049.1235	3203.834	1130.35	251.5
1049.2262	3204.7677	1124.4	243.5
1049.329	3205.7008	1121.15	237.6
1049.4317	3206.6333	1120.65	241.35
1049.5343	3207.5652	1121.55	236.3
1049.6369	3208.4964	1118.8	239.85
1049.7394	3209.4271	1116.6	237.9
1049.8419	3210.3571	1113.05	232.95
1049.9444	3211.2865	1111.9	232.1
1050.0468	3212.2154	1117.85	237
1050.1491	3213.1436	1110.9	227
1050.2514	3214.0712	1118.9	231.15
1050.3537	3214.9982	1112.75	231.7
1050.4559	3215.9246	1114.95	233.7
1050.5581	3216.8503	1108.2	229
1050.6602	3217.7755	1106.8	226.05
1050.7623	3218.7001	1106	226.2
1050.8643	3219.624	1110.35	228.45
1050.9663	3220.5473	1103.35	225.3
1051.0682	3221.4701	1103.55	220.3
1051.1701	3222.3922	1104.8	222.95
1051.2719	3223.3137	1103.3	223.6
1051.3737	3224.2346	1094.8	214.7
1051.4754	3225.1549	1101.7	222.55
1051.5771	3226.0746	1094.5	211.75
1051.6788	3226.9937	1095.45	217.2
1051.7804	3227.9121	1093.4	214.4
1051.8819	3228.83	1089.95	210.45
1051.9834	3229.7473	1096.4	215.6
1052.0849	3230.6639	1091.55	208.05
1052.1863	3231.5799	1090.7	212.8
1052.2876	3232.4954	1093.8	212.5
1052.3889	3233.4102	1087.05	207.45
1052.4902	3234.3244	1088.85	208.25
1052.5914	3235.238	1086	204.95
1052.6926	3236.151	1110.4	206.35
1052.7937	3237.0634	1080.65	200.25
1052.8948	3237.9752	1081.3	199.8
1052.9958	3238.8864	1079.85	198.15
1053.0968	3239.797	1078.6	198.4
1053.1977	3240.7069	1077.9	197.8
1053.2986	3241.6163	1079.3	196.55
1053.3994	3242.5251	1076.2	197.15
1053.5002	3243.4332	1078.3	199.7
1053.6009	3244.3408	1072.4	189.65
1053.7016	3245.2477	1073.25	192.95
1053.8022	3246.154	1073.55	194.1
1053.9028	3247.0598	1069.05	187.15
1054.0034	3247.9649	1071.9	192.1
1054.1039	3248.8694	1067.7	188.55
1054.2043	3249.7733	1065.05	185.2
1054.3047	3250.6766	1065.05	185.6
1054.4051	3251.5793	1061.35	179.55
1054.5054	3252.4814	1060.45	180.95
1054.6056	3253.3829	1062.5	180.9
1054.7058	3254.2838	1057.6	177.75
1054.806	3255.1841	1057.2	177.55
1054.9061	3256.0838	1056.05	174.3
1055.0061	3256.9829	1051.1	172.5
1055.1062	3257.8814	1055.7	173.5
1055.2061	3258.7792	1055.25	172.9
1055.306	3259.6765	1053.5	172.45
1055.4059	3260.5731	1048.5	168.85
1055.5057	3261.4692	1045.9	167.1
1055.6055	3262.3647	1042.65	160.25
1055.7052	3263.2595	1040.2	160.55
1055.8049	3264.1538	1035	154.5
1055.9045	3265.0474	1033.4	153.05
1056.0041	3265.9404	1034.4	154.8
1056.1036	3266.8329	1032	152.25
1056.2031	3267.7247	1038.25	148.4
1056.3025	3268.616	1029.05	148.8
1056.4019	3269.5066	1025.8	145.2
1056.5013	3270.3966	1018.4	133.8
1056.6005	3271.286	1012.3	135.35
