Software Version:	3.9.2.0
Unit SN:	10000200
Spectrometer SN:	6960
Date:	3/26/2024 2:18:21 PM
Data Line Index:	25
Spectral Points:	2048
Integration time (ms):	125
Averages:	20
Delay (ms):	30000
Sequence Number:	1
Processing:	dark subtract
Laser Power (mW):	300
Laser Current (mA):	820
Laser Diode Temp (C):	25.1
Laser Case Temp (C):	27.6
System Temp (C):	27.6
Spectrometer Temp (C):	25.5
CCD Temp (C):	0.002
Secondary Temp (C):	20.007
Heatsink Temp (C):	23.117
CCDPCB Temp (C):	37.074
SecondaryPCB Temp (C):	34.573

Wavelength	RamanShift	Raw Counts	Dark Subtracted
787.061	30.1047	673.3	262.3
787.2016	32.3739	692.3	284.8
787.3422	34.6426	707.8	297.7
787.4828	36.9109	726.55	313.7
787.6235	39.1787	753.75	338.65
787.7642	41.4461	778.15	356.05
787.9049	43.7131	803.1	378.15
788.0456	45.9796	834.2	406.7
788.1863	48.2456	862.95	430.35
788.3271	50.5112	893.2	457.35
788.4679	52.7764	918.1	481
788.6087	55.0411	951.25	512.1
788.7496	57.3054	996.85	552.85
788.8904	59.5692	1026.2	576.9
789.0313	61.8326	1070.75	619.4
789.1722	64.0955	1105.55	649.4
789.3132	66.3579	1167.15	704.55
789.4541	68.6199	1232.65	769.3
789.5951	70.8815	1344.5	876.5
789.7361	73.1426	1559.55	1088.7
789.8771	75.4032	2139.25	1661.25
790.0181	77.6634	3555.95	3071.4
790.1592	79.9231	7130.5	6635.95
790.3003	82.1824	15385.55	14872.1
790.4414	84.4412	37053.05	36507.9
790.5825	86.6995	64001.4	63406.95
790.7237	88.9574	65535	64896.65
790.8648	91.2148	65535	64864.3
791.006	93.4717	65535	64844.2
791.1472	95.7282	65535	64832.2
791.2885	97.9842	65535	64827.25
791.4297	100.2398	65535	64829.15
791.571	102.4949	65535	64822.6
791.7123	104.7495	65535	64820.5
791.8536	107.0036	65535	64822.85
791.9949	109.2573	65535	64820.85
792.1363	111.5105	65535	64815.35
792.2777	113.7632	65535	64818.2
792.4191	116.0154	65535	64807.55
792.5605	118.2672	65535	64808.95
792.7019	120.5185	65535	64811.55
792.8434	122.7693	65535	64807.65
792.9849	125.0197	65535	64803
793.1264	127.2696	65535	64800.75
793.2679	129.519	65535	64798.2
793.4094	131.7679	65535	64792
793.551	134.0163	65535	64788.8
793.6926	136.2642	65535	64789.3
793.8342	138.5117	65535	64782.3
793.9758	140.7587	65535	64781.2
794.1175	143.0052	65535	64780.8
794.2591	145.2512	65535	64781
794.4008	147.4967	65535	64781.35
794.5425	149.7417	65535	64779
794.6842	151.9863	65535	64775.1
794.826	154.2304	65535	64770.75
794.9677	156.4739	65535	64767.35
795.1095	158.717	65535	64764.05
795.2513	160.9596	65535	64760.1
795.3931	163.2017	65535	64758.35
795.535	165.4433	65535	64754.85
795.6768	167.6844	65535	64754.4
795.8187	169.925	65535	64755.05
795.9606	172.1651	65535	64754
796.1025	174.4047	65535	64748.1
796.2445	176.6439	65535	64750.3
796.3864	178.8825	65535	64744.85
796.5284	181.1206	65535	64736.6
796.6704	183.3582	65535	64737.75
796.8124	185.5954	65535	64732.3
796.9544	187.832	65535	64728.65
797.0965	190.0681	65535	64726.2
797.2386	192.3037	65535	64728.85
797.3806	194.5388	65535	64722.95
797.5228	196.7734	65535	64723.4
797.6649	199.0075	65535	64712.25
797.807	201.2411	65535	64709.3
797.9492	203.4742	65535	64712.3
798.0914	205.7068	65535	64709.95
798.2336	207.9389	65535	64711.8
798.3758	210.1704	65535	64709.05
798.518	212.4015	65535	64708.65
798.6603	214.632	65535	64706.95
798.8025	216.862	65535	64721
798.9448	219.0915	65535	64724.1
799.0871	221.3205	65535	64724.35
799.2294	223.549	65535	64731.3
799.3718	225.777	65535	64729.85
799.5141	228.0044	65535	64726.4
799.6565	230.2314	65535	64730.3
799.7989	232.4578	65535	64729.2
799.9413	234.6837	65535	64720.7
800.0837	236.909	65535	64718.9
800.2262	239.1339	65535	64689.25
800.3687	241.3582	65535	64703.35
800.5111	243.582	65535	64676.5
800.6536	245.8053	65535	64689.65
800.7961	248.0281	65535	64699
800.9387	250.2503	65535	64688.85
801.0812	252.472	65535	64685.6
801.2238	254.6932	65535	64683.2
801.3664	256.9139	65535	64685.35
801.509	259.134	65535	64677.7
801.6516	261.3536	65535	64678
801.7942	263.5727	65535	64676.9
801.9369	265.7912	65535	64680.3
802.0795	268.0092	65535	64676.75
802.2222	270.2267	65535	64675.3
802.3649	272.4436	65535	64678.2
802.5076	274.6601	65535	64669.55
802.6504	276.8759	65535	64677.9
802.7931	279.0913	65535	64676.05
802.9359	281.3061	65535	64672.1
803.0787	283.5204	65535	64667.25
803.2215	285.7341	65535	64665.1
803.3643	287.9473	65535	64653.8
803.5071	290.16	65535	64658.35
803.6499	292.3721	65535	64663.45
803.7928	294.5837	65535	64664.35
803.9357	296.7947	65535	64665.9
804.0786	299.0052	65535	64665.75
804.2215	301.2152	65535	64661.6
804.3644	303.4246	65535	64671.15
804.5074	305.6334	65535	64668.95
804.6503	307.8418	65535	64663.75
804.7933	310.0495	65535	64660
804.9363	312.2568	65535	64658.1
805.0793	314.4635	65535	64657.95
805.2223	316.6696	65535	64653.6
805.3653	318.8752	65535	64648.55
805.5084	321.0802	65535	64660.2
805.6514	323.2847	65535	64653.8
805.7945	325.4887	65535	64652.4
805.9376	327.692	65535	64652.05
806.0807	329.8949	65535	64649.6
806.2238	332.0972	65535	64651.1
806.367	334.2989	65535	64644.05
806.5101	336.5001	65535	64646.45
806.6533	338.7007	65535	64648.05
806.7965	340.9008	65535	64644.15
806.9397	343.1003	65535	64638.65
807.0829	345.2992	65535	64642.6
807.2261	347.4976	65535	64640.7
807.3693	349.6955	65535	64640.7
807.5126	351.8927	65535	64636.95
807.6559	354.0895	65535	64628.9
807.7991	356.2856	65535	64636.95
807.9424	358.4812	65535	64637.25
808.0857	360.6763	65535	64637.75
808.2291	362.8707	65535	64633.3
808.3724	365.0646	65535	64634.65
808.5158	367.258	65535	64631.5
808.6591	369.4508	65535	64626.15
808.8025	371.643	65535	64625
808.9459	373.8346	65535	64623.15
809.0893	376.0257	65535	64621.9
809.2327	378.2162	65535	64623.75
809.3762	380.4062	65535	64623.75
809.5196	382.5956	65535	64623.75
809.6631	384.7844	65535	64627
809.8066	386.9726	65535	64627.35
809.9501	389.1603	65535	64623.7
810.0936	391.3474	65535	64593.9
810.2371	393.5339	65535	64621.45
810.3806	395.7199	65535	64629.2
810.5241	397.9052	65535	64631.9
810.6677	400.09	65535	64633.65
810.8113	402.2743	65535	64633.05
810.9548	404.4579	65535	64635.45
811.0984	406.641	65535	64629.7
811.2421	408.8235	65535	64630.8
811.3857	411.0054	65535	64631.3
811.5293	413.1868	65535	64629.75
811.673	415.3675	65535	64622.75
811.8166	417.5477	65535	64624.6
811.9603	419.7273	65535	64623.9
812.104	421.9064	65535	64618.1
812.2477	424.0848	65535	64621.35
812.3914	426.2627	65535	64621.15
812.5351	428.4399	65535	64618.75
812.6788	430.6166	65535	64617.55
812.8226	432.7928	65535	64614.95
812.9663	434.9683	65535	64619.5
813.1101	437.1432	65535	64617.25
813.2539	439.3176	65535	64620.8
813.3977	441.4914	65535	64628.1
813.5415	443.6645	65535	64622
813.6853	445.8371	65535	64616.4
813.8291	448.0091	65535	64621.05
813.973	450.1806	65535	64618.55
814.1168	452.3514	65535	64623.5
814.2607	454.5216	65535	64613.55
814.4046	456.6913	65535	64615.75
814.5485	458.8603	65535	64621.6
814.6924	461.0288	65535	64626.4
814.8363	463.1967	65535	64625.5
814.9802	465.3639	65535	64623.15
815.1241	467.5306	65535	64623.6
815.2681	469.6967	65535	64623.5
815.412	471.8622	65535	64627.7
815.556	474.0271	65535	64621.1
815.7	476.1914	65535	64619.25
815.844	478.3551	65535	64616.8
815.988	480.5182	65535	64621.1
816.132	482.6807	65535	64629.25
816.276	484.8426	65535	64634.45
816.4201	487.0039	65535	64626.75
816.5641	489.1647	65535	64620.2
816.7082	491.3248	65535	64613.7
816.8522	493.4843	65535	64622.15
816.9963	495.6432	65535	64624.35
817.1404	497.8015	65535	64609.55
817.2845	499.9592	65535	64611.8
817.4286	502.1163	65535	64607.05
817.5727	504.2728	65535	64618.5
817.7168	506.4287	65535	64624.8
817.861	508.5839	65535	64624.75
818.0051	510.7386	65535	64621.55
818.1493	512.8927	65535	64610.2
818.2935	515.0461	65535	64615.75
818.4377	517.199	65535	64608.95
818.5818	519.3512	65535	64612.45
818.726	521.5029	65535	64610.65
818.8703	523.6539	65535	64609.9
819.0145	525.8043	65535	64607.75
819.1587	527.9541	65535	64604
819.303	530.1033	65535	64608.4
819.4472	532.2519	65535	64606.7
819.5915	534.3999	65535	64609.2
819.7357	536.5472	65535	64609.15
819.88	538.694	65535	64616.45
820.0243	540.8401	65535	64607.4
820.1686	542.9856	65535	64604.3
820.3129	545.1305	65535	64589.85
820.4572	547.2748	65535	64591.85
820.6016	549.4185	65535	64588.75
820.7459	551.5615	65535	64592.65
820.8902	553.704	65535	64594.1
821.0346	555.8458	65535	64600.9
821.1789	557.987	65535	64600
821.3233	560.1276	65535	64595.85
821.4677	562.2675	65535	64595.05
821.6121	564.4069	65535	64600.4
821.7565	566.5456	65535	64599.75
821.9009	568.6837	65535	64603.25
822.0453	570.8212	65535	64604.15
822.1897	572.958	65535	64597.8
822.3342	575.0942	65535	64610.05
822.4786	577.2299	65535	64610.95
822.6231	579.3648	65535	64619.95
822.7675	581.4992	65535	64630.85
822.912	583.6329	65535	64629.2
823.0565	585.766	65535	64621.1
823.201	587.8985	65535	64619.65
823.3454	590.0304	65535	64595.35
823.4899	592.1616	65535	64604.15
823.6345	594.2922	65535	64598
823.779	596.4222	65535	64599.2
823.9235	598.5515	65535	64595.55
824.068	600.6802	65535	64598.45
824.2126	602.8083	65535	64598.25
824.3571	604.9358	65535	64597.9
824.5017	607.0626	65535	64597.35
824.6462	609.1888	65535	64587.5
824.7908	611.3144	65535	64588.7
824.9354	613.4393	65535	64594.85
825.08	615.5636	65535	64590
825.2246	617.6873	65535	64593.55
825.3692	619.8103	65535	64595.2
825.5138	621.9327	65535	64595.05
825.6584	624.0544	65535	64601.85
825.803	626.1756	65535	64600.6
825.9477	628.2961	65535	64592.7
826.0923	630.4159	65535	64592.6
826.237	632.5351	65535	64591.75
826.3816	634.6537	65535	64591.4
826.5263	636.7716	65535	64586.8
826.6709	638.8889	65535	64585.15
826.8156	641.0056	65535	64587.25
826.9603	643.1216	65535	64587.85
827.105	645.237	65535	64588.9
827.2497	647.3518	65535	64599.2
827.3944	649.4659	65535	64601.7
827.5391	651.5793	65535	64601.15
827.6838	653.6922	65535	64597.2
827.8285	655.8043	65535	64598.35
827.9733	657.9159	65535	64596.2
828.118	660.0268	65535	64597.5
828.2627	662.137	65535	64592.15
828.4075	664.2466	65535	64584.15
828.5522	666.3556	65535	64590.2
828.697	668.4639	65535	64591.55
828.8418	670.5716	65535	64596.9
828.9865	672.6786	65535	64592.95
829.1313	674.785	65535	64585.9
829.2761	676.8907	65535	64592.25
829.4209	678.9958	65535	64595.9
829.5657	681.1002	65535	64592.05
829.7105	683.204	65535	64578.5
829.8553	685.3072	65535	64584.7
830.0001	687.4097	65535	64588.15
830.1449	689.5115	65535	64584.4
830.2898	691.6127	65535	64588.25
830.4346	693.7132	65535	64591.05
830.5794	695.8131	65535	64570.55
830.7243	697.9123	65535	64580.75
830.8691	700.0109	65535	64579.9
831.014	702.1089	65535	64583
831.1588	704.2061	65535	64587.25
831.3037	706.3028	65535	64583
831.4486	708.3987	65535	64584.15
831.5935	710.4941	65535	64592.4
831.7383	712.5887	65535	64585.85
831.8832	714.6827	65535	64585.3
832.0281	716.7761	65535	64592.5
832.173	718.8688	65535	64587.55
832.3179	720.9608	65535	64577.8
832.4628	723.0522	65535	64576.15
832.6077	725.1429	65535	64582.85
832.7527	727.233	65535	64579.2
832.8976	729.3224	65535	64586.5
833.0425	731.4112	65535	64587.3
833.1874	733.4993	65535	64584.85
833.3324	735.5867	65535	64585.6
833.4773	737.6735	65535	64582.3
833.6222	739.7596	65535	64580.45
833.7672	741.845	65535	64584.25
833.9122	743.9298	65535	64583.95
834.0571	746.014	65535	64584.2
834.2021	748.0974	65535	64575.3
834.347	750.1802	65535	64578.4
834.492	752.2624	65535	64577.8
834.637	754.3439	65535	64577.05
834.782	756.4247	65535	64567
834.9269	758.5048	65535	64575.75
835.0719	760.5843	65535	64578.9
835.2169	762.6631	65535	64575.35
835.3619	764.7413	65535	64580.15
835.5069	766.8188	65535	64574.25
835.6519	768.8956	65535	64577.75
835.7969	770.9718	65535	64580.55
835.9419	773.0473	65535	64580.55
836.0869	775.1221	65535	64578.8
836.232	777.1962	65535	64577.9
836.377	779.2697	65535	64572.8
836.522	781.3426	65535	64560.2
836.667	783.4147	65535	64578.55
836.8121	785.4862	65535	64580.55
836.9571	787.557	65535	64576.5
837.1021	789.6271	65535	64573.6
837.2472	791.6966	65535	64577.45
837.3922	793.7654	65535	64577.75
837.5373	795.8335	65535	64578.05
837.6823	797.901	65535	64580.15
837.8274	799.9678	65535	64575.8
837.9724	802.0339	65535	64577.1
838.1175	804.0993	65535	64563.2
838.2626	806.1641	65535	64575.65
838.4076	808.2282	65535	64579.7
838.5527	810.2916	65535	64578.65
838.6978	812.3544	65535	64578.9
838.8428	814.4164	65535	64578.7
838.9879	816.4778	65535	64568.9
839.133	818.5385	65535	64571.6
839.2781	820.5986	65535	64574.7
839.4232	822.658	65535	64573.75
839.5682	824.7166	65535	64575.1
839.7133	826.7747	65535	64575.4
839.8584	828.832	65535	64574.9
840.0035	830.8886	65535	64569.2
840.1486	832.9446	65535	64572.3
840.2937	834.9999	65535	64576.55
840.4388	837.0545	65535	64569.75
840.5839	839.1085	65535	64572.6
840.729	841.1618	65535	64569.7
840.8741	843.2143	65535	64572.45
841.0192	845.2662	65535	64578.2
841.1643	847.3175	65535	64573.2
841.3095	849.368	65535	64572.75
841.4546	851.4179	65535	64576.65
841.5997	853.467	65535	64576.85
841.7448	855.5155	65535	64573.1
841.8899	857.5633	65535	64577
842.0351	859.6105	65535	64572.65
842.1802	861.6569	65535	64575
842.3253	863.7027	65527.2	64567.2
842.4704	865.7478	65534.35	64573.6
842.6156	867.7922	65531.3	64567.25
842.7607	869.8359	65535	64573.7
842.9058	871.8789	65525.55	64562.1
843.0509	873.9212	65532.25	64538.65
843.1961	875.9629	65535	64573
843.3412	878.0039	65532.6	64570.35
843.4863	880.0441	65528.5	64569.35
843.6315	882.0837	65530.05	64564.8
843.7766	884.1226	65527.8	64564.65
843.9218	886.1609	65526.1	64567.8
844.0669	888.1984	65516.9	64555.55
844.212	890.2352	65528.3	64571.35
844.3572	892.2714	65515.65	64546.9
844.5023	894.3069	65521.45	64561.8
844.6475	896.3416	65507.55	64543.6
844.7926	898.3757	65499.05	64533.8
844.9377	900.4091	65438.85	64473.6
845.0829	902.4418	65518.55	64547.6
845.228	904.4739	65470.15	64504.15
845.3732	906.5052	65473.65	64507.95
845.5183	908.5358	65444	64478.45
845.6635	910.5658	65437	64471.6
845.8086	912.595	65430.4	64464.75
845.9538	914.6236	65335.8	64374.25
846.0989	916.6515	65462	64494.4
846.2441	918.6786	65337	64372.95
846.3892	920.7051	65371.6	64407.1
846.5344	922.7309	65342.3	64376.1
846.6795	924.756	65379.05	64414.35
846.8246	926.7804	65338.4	64371.4
846.9698	928.8041	65156.5	64190.85
847.1149	930.8272	65313.65	64350.25
847.2601	932.8495	65308	64341.9
847.4052	934.8711	65180.05	64212.1
847.5504	936.892	64979.45	64017.6
847.6955	938.9123	65104.75	64141.3
847.8407	940.9318	64945.45	63980
847.9858	942.9506	64895.5	63928.15
848.131	944.9688	64955.9	63991.15
848.2761	946.9862	64459.35	63496.5
848.4213	949.003	64710.95	63745.75
848.5664	951.019	64181.35	63215.35
848.7115	953.0344	64325	63360.05
848.8567	955.0491	64251.1	63287.05
849.0018	957.063	64462.6	63497.4
849.147	959.0763	64529.8	63559.05
849.2921	961.0888	64073.3	63112
849.4373	963.1007	64400.4	63444.25
849.5824	965.1119	64382.95	63429.1
849.7275	967.1223	64023.6	63076.75
849.8727	969.1321	64454.55	63505.3
850.0178	971.1412	63855.9	62903.8
850.1629	973.1495	63673.8	62712.15
850.3081	975.1572	63935.8	62918.75
850.4532	977.1641	63686.35	62722.6
850.5983	979.1704	63674.35	62710.3
850.7435	981.1759	63726.4	62758.55
850.8886	983.1808	63400.15	62437.05
851.0337	985.1849	63426.4	62450.35
851.1788	987.1884	63566.35	62599.05
851.324	989.1911	63850.45	62884.6
851.4691	991.1932	62962.65	62000.8
851.6142	993.1945	63163.75	62201.4
851.7593	995.1951	63479.75	62516.65
851.9045	997.1951	62948.75	61978.4
852.0496	999.1943	62791.9	61828.45
852.1947	1001.1928	62574.3	61611
852.3398	1003.1906	62730.4	61771.05
852.4849	1005.1877	61995.95	61033.8
852.63	1007.1841	61800.1	60838.7
852.7751	1009.1798	61791.05	60830.7
852.9202	1011.1748	61706.7	60747.35
853.0653	1013.1691	61524.05	60566
853.2104	1015.1627	59918.3	58958.5
853.3555	1017.1556	60480.75	59522.9
853.5006	1019.1477	60717.95	59758.1
853.6457	1021.1392	59960.4	59010.35
853.7908	1023.1299	59020.7	58069.05
853.9359	1025.12	59629.3	58684.85
854.081	1027.1093	59074.7	58141.05
854.2261	1029.0979	58996.05	58064.25
854.3712	1031.0859	58922.95	57986.35
854.5163	1033.0731	58131.2	57185.45
854.6613	1035.0596	58444.05	57492.5
854.8064	1037.0454	58172.55	57219.4
854.9515	1039.0304	57664.1	56708
855.0965	1041.0148	56741.8	55782.65
855.2416	1042.9985	56844.25	55883.9
855.3867	1044.9814	57291.1	56337.75
855.5317	1046.9636	56350.2	55389.5
855.6768	1048.9452	56403.05	55449.05
855.8219	1050.926	56212.05	55256.65
855.9669	1052.9061	56148.8	55195.55
856.112	1054.8855	56094.95	55139.3
856.257	1056.8642	55643.3	54685.35
856.4021	1058.8421	55398.4	54434.95
856.5471	1060.8194	55441.8	54481.15
856.6921	1062.7959	55088.95	54132.1
856.8372	1064.7717	55326.95	54370.3
856.9822	1066.7469	54993.9	54036.15
857.1272	1068.7213	55034.65	54072.75
857.2723	1070.695	54663.2	53705.85
857.4173	1072.6679	54163.7	53207
857.5623	1074.6402	54288.8	53334.75
857.7073	1076.6117	53891.4	52926.6
857.8523	1078.5826	53903.7	52945.25
857.9973	1080.5527	53931.1	52969.2
858.1423	1082.5221	53713.9	52758.8
858.2873	1084.4908	53868.9	52911.1
858.4323	1086.4587	53855.9	52898.25
858.5773	1088.426	53935.2	52974.65
858.7223	1090.3925	53739.95	52777.3
858.8673	1092.3584	53561.75	52603.45
859.0123	1094.3235	52951.85	51995.1
859.1573	1096.2879	52750.8	51792.55
859.3022	1098.2515	52726.8	51769.55
859.4472	1100.2145	52588.85	51636.1
859.5922	1102.1767	52389.1	51434.5
859.7371	1104.1382	52510.45	51554.95
859.8821	1106.099	52444.6	51486.6
860.027	1108.0591	52367.7	51412.55
860.172	1110.0185	52080.75	51122.95
860.3169	1111.9771	52361.85	51406.25
860.4619	1113.9351	51859.15	50904.25
860.6068	1115.8923	51311.3	50352.55
860.7517	1117.8488	50729.45	49771.35
860.8967	1119.8045	50216.15	49262.5
861.0416	1121.7596	50059.9	49104
861.1865	1123.7139	49782.15	48827.7
861.3314	1125.6675	49674.65	48720.65
861.4763	1127.6204	49673.75	48718.85
861.6212	1129.5726	49385.6	48428.2
861.7661	1131.524	49421.3	48468.25
861.911	1133.4748	49423.25	48467.45
862.0559	1135.4248	49185.3	48226.95
862.2008	1137.3741	49147	48193.4
862.3457	1139.3226	48997	48037.9
862.4905	1141.2705	48956.6	48003.3
862.6354	1143.2176	48612.95	47651.6
862.7803	1145.164	48471	47512.95
862.9251	1147.1097	48385.25	47428.45
863.07	1149.0546	48271.9	47315.3
863.2148	1150.9989	48151.55	47197.8
863.3597	1152.9424	47880.45	46923.75
863.5045	1154.8852	47591.1	46637.85
863.6493	1156.8272	47328.15	46374.8
863.7942	1158.7686	47261.35	46299
863.939	1160.7092	46928.9	45975.45
864.0838	1162.6491	46633.1	45672.6
864.2286	1164.5883	46753.75	45800.9
864.3734	1166.5267	46595.7	45638.65
864.5182	1168.4644	46701.05	45747.3
864.663	1170.4014	46767.65	45809.5
864.8078	1172.3377	46913.9	45963.55
864.9526	1174.2732	47073.3	46122.4
865.0974	1176.2081	47111.9	46155.8
865.2421	1178.1421	47070.4	46111.2
865.3869	1180.0755	47182.3	46228.95
865.5317	1182.0082	46927.6	45976.4
865.6764	1183.9401	46800.8	45851.85
865.8212	1185.8713	46370.15	45422.9
865.9659	1187.8017	46102.2	45158.85
866.1106	1189.7315	45748.15	44818.7
866.2554	1191.6605	45291.6	44359.65
866.4001	1193.5888	44915.15	43978.05
866.5448	1195.5163	44707.9	43763.7
866.6895	1197.4432	44469.6	43519
866.8342	1199.3693	44221.25	43275.35
866.9789	1201.2947	43977.1	43019.9
867.1236	1203.2193	43828.3	42875.8
867.2683	1205.1432	43699.6	42749.2
867.413	1207.0664	43607.75	42658.55
867.5576	1208.9889	43549.45	42598.25
867.7023	1210.9106	43412.2	42459.55
867.847	1212.8316	43303.85	42353.55
867.9916	1214.7519	43301.75	42341.5
868.1363	1216.6715	43141.25	42189.85
868.2809	1218.5903	43059.6	42112.65
868.4255	1220.5084	42880	41928.35
868.5701	1222.4257	42758.45	41810.05
868.7148	1224.3424	42421.25	41474.5
868.8594	1226.2583	42359.7	41409.6
869.004	1228.1735	42362.9	41415.5
869.1486	1230.0879	42311.15	41360.25
869.2932	1232.0016	42261.35	41310.55
869.4377	1233.9146	42228.55	41279.75
869.5823	1235.8269	41964.05	41015.4
869.7269	1237.7384	41763.5	40817.85
869.8715	1239.6492	41416.75	40470.85
870.016	1241.5592	41206.7	40259.8
870.1606	1243.4686	40924.6	39977.6
870.3051	1245.3772	40753.9	39802.75
870.4496	1247.285	40537.8	39587.3
870.5941	1249.1922	40375.1	39424.45
870.7387	1251.0986	40294	39348.5
870.8832	1253.0042	40094.3	39148.4
871.0277	1254.9092	40091.35	39144.25
871.1722	1256.8134	40056.7	39110.2
871.3167	1258.7169	40148.8	39199.15
871.4611	1260.6196	40120.15	39173.75
871.6056	1262.5216	40234.85	39285.65
871.7501	1264.4229	40267.55	39323.25
871.8945	1266.3234	40364.85	39418.45
872.039	1268.2232	40326.65	39380.95
872.1834	1270.1223	40172.8	39224.15
872.3278	1272.0207	40031.65	39084.65
872.4723	1273.9183	39904.65	38953.4
872.6167	1275.8151	39735.2	38789.35
872.7611	1277.7113	39515.35	38568.15
872.9055	1279.6067	39196.75	38254
873.0499	1281.5014	38981.7	38033.8
873.1943	1283.3953	38711.1	37761.5
873.3386	1285.2885	38559.4	37615.95
873.483	1287.181	38374.05	37429.25
873.6274	1289.0727	38313.8	37369.2
873.7717	1290.9637	38219.25	37271.6
873.9161	1292.854	38268.25	37322.55
874.0604	1294.7435	38271.55	37325.75
874.2047	1296.6323	38465.35	37522.15
874.349	1298.5204	38665.4	37716.4
874.4933	1300.4077	38819.6	37870.55
874.6376	1302.2943	38919.35	37973
874.7819	1304.1802	38959.85	38015
874.9262	1306.0653	38748.55	37799.7
875.0705	1307.9497	38529.85	37583.65
875.2147	1309.8333	38437.7	37493.55
875.359	1311.7162	38347.15	37402.55
875.5032	1313.5984	38387	37438.2
875.6475	1315.4798	38359.2	37399.3
875.7917	1317.3605	38474.3	37524.1
875.9359	1319.2405	38614.75	37666.15
876.0801	1321.1197	38535.15	37588.25
876.2243	1322.9982	38388.7	37442.6
876.3685	1324.876	38365.55	37425.15
876.5127	1326.753	38185.4	37242.25
876.6569	1328.6293	38248.05	37303.45
876.801	1330.5048	38248.8	37300.05
876.9452	1332.3796	38088.4	37142.45
877.0893	1334.2537	38012.55	37042.4
877.2335	1336.127	37789.05	36845.05
877.3776	1337.9996	37689.25	36746.45
877.5217	1339.8714	37591.25	36645.9
877.6658	1341.7426	37445.4	36454.4
877.8099	1343.6129	37274.35	36329.35
877.954	1345.4826	37194.45	36248.8
878.0981	1347.3515	37134.25	36184.3
878.2422	1349.2196	36886.95	35942.15
878.3862	1351.087	36917.65	35972.65
878.5303	1352.9537	36831.45	35887.25
878.6743	1354.8197	36900.65	35957.05
878.8184	1356.6849	37010.4	36067.55
878.9624	1358.5493	36998.7	36053.95
879.1064	1360.4131	36888.05	35943.5
879.2504	1362.276	36702.1	35757.15
879.3944	1364.1383	36432.45	35487.85
879.5384	1365.9998	36103.4	35156.2
879.6823	1367.8606	35756.15	34810.55
879.8263	1369.7206	35397.55	34453.75
879.9702	1371.5799	35086	34140.55
880.1142	1373.4384	34920.35	33973.4
880.2581	1375.2962	34746.4	33800.25
880.402	1377.1533	34358.7	33412
880.5459	1379.0096	33932.2	32992.6
880.6898	1380.8652	33613.05	32674.35
880.8337	1382.7201	33307	32365.85
880.9776	1384.5742	32980.2	32041.6
881.1215	1386.4275	32705.45	31763.8
881.2653	1388.2802	32464	31521.55
881.4092	1390.132	32259.65	31312.6
881.553	1391.9832	32221.65	31275
881.6968	1393.8336	31947.75	31002.3
881.8406	1395.6832	31807.9	30865.5
881.9844	1397.5322	31677.85	30737.5
882.1282	1399.3803	31576.9	30630.35
882.272	1401.2278	31360.7	30419.65
882.4158	1403.0745	31299.95	30360.5
882.5595	1404.9204	31123.85	30181.8
882.7033	1406.7656	31096.5	30154.4
882.847	1408.6101	30983.8	30041.35
882.9908	1410.4538	30826.8	29885.45
883.1345	1412.2968	30776.15	29833.05
883.2782	1414.139	30709.4	29766.75
883.4219	1415.9805	30692.4	29750.75
883.5656	1417.8213	30662.95	29697.4
883.7092	1419.6613	30704.65	29764.65
883.8529	1421.5006	30794.8	29853.15
883.9965	1423.3391	30987.9	30049.05
884.1402	1425.1769	31263.4	30321.2
884.2838	1427.0139	31630.4	30687.75
884.4274	1428.8502	32260.65	31318.2
884.571	1430.6858	32779.7	31841.4
884.7146	1432.5206	33085.75	32143.8
884.8582	1434.3547	33257.6	32315.95
885.0018	1436.188	33285.85	32346.65
885.1453	1438.0206	33151.1	32212.95
885.2889	1439.8524	32865	31925.95
885.4324	1441.6835	32709.6	31772.8
885.5759	1443.5139	32570.5	31627.6
885.7194	1445.3435	32397.9	31460.05
885.8629	1447.1724	32350.1	31412.5
886.0064	1449.0005	32222.4	31286.15
886.1499	1450.8279	32031.6	31092.6
886.2933	1452.6545	31927.8	30987
886.4368	1454.4804	31937.2	31000.2
886.5802	1456.3056	31807.2	30865.5
886.7237	1458.13	31644.25	30706.2
886.8671	1459.9536	31449	30512.15
887.0105	1461.7766	31003.65	30068.3
887.1539	1463.5987	30552.35	29610.85
887.2972	1465.4202	30127.65	29188.55
887.4406	1467.2409	29614.3	28677.3
887.584	1469.0608	29337.75	28400.9
887.7273	1470.88	29028.45	28090.1
887.8706	1472.6984	28750.5	27815.5
888.0139	1474.5161	28446.5	27505.9
888.1572	1476.3331	28219.75	27280.65
888.3005	1478.1493	28086.2	27149.65
888.4438	1479.9648	27911.95	26972.45
888.5871	1481.7795	27777.85	26839.9
888.7303	1483.5935	27672.6	26734.75
888.8736	1485.4067	27565.8	26627.3
889.0168	1487.2192	27504.8	26567.2
889.16	1489.031	27367.15	26428.35
889.3032	1490.842	27284.8	26348.7
889.4464	1492.6522	27214.95	26279.55
889.5896	1494.4618	27116	26179.65
889.7327	1496.2705	27014.4	26077.95
889.8759	1498.0785	27001.65	26062.95
890.019	1499.8858	26908.05	25971.85
890.1622	1501.6924	26821.9	25885.9
890.3053	1503.4981	26769.35	25833.45
890.4484	1505.3032	26680.8	25747.35
890.5914	1507.1075	26600.8	25664
890.7345	1508.911	26532.05	25594.35
890.8776	1510.7138	26431.25	25495.3
891.0206	1512.5159	26296.15	25358.6
891.1637	1514.3172	26192	25258.05
891.3067	1516.1178	26073.25	25138.2
891.4497	1517.9176	26076.2	25140.15
891.5927	1519.7166	25898.8	24966.45
891.7357	1521.515	25774.95	24832.5
891.8786	1523.3126	25745.2	24813
892.0216	1525.1094	25643.15	24706.3
892.1645	1526.9055	25499.95	24568
892.3074	1528.7008	25390.7	24459.65
892.4503	1530.4954	25282.15	24343
892.5932	1532.2893	25242.1	24314.3
892.7361	1534.0824	25090.05	24156.1
892.879	1535.8747	25062.65	24138.25
893.0218	1537.6663	25004.55	24075.35
893.1647	1539.4572	24870.7	23938.95
893.3075	1541.2473	24850.1	23921.8
893.4503	1543.0367	24718.6	23789.85
893.5931	1544.8253	24658	23720.8
893.7359	1546.6132	24608.85	23676.25
893.8787	1548.4003	24518.7	23575.55
894.0214	1550.1867	24473	23533.95
894.1642	1551.9723	24395.15	23461.2
894.3069	1553.7572	24413.35	23487.45
894.4496	1555.5414	24330.65	23404.35
894.5923	1557.3247	24286.9	23362
894.735	1559.1074	24221.8	23297.55
894.8777	1560.8893	24195.95	23272.25
895.0204	1562.6705	24125.3	23201
895.163	1564.4509	24158.6	23236.3
895.3056	1566.2305	24181.65	23262.45
895.4482	1568.0094	24279	23362.1
895.5908	1569.7876	24337.5	23418.25
895.7334	1571.565	24342.25	23418.45
895.876	1573.3417	24367.4	23443.2
896.0186	1575.1176	24326	23406.75
896.1611	1576.8928	24229.75	23309.75
896.3036	1578.6672	24042.3	23128.35
896.4461	1580.4409	23872.85	22957.85
896.5886	1582.2138	23694.35	22777.9
896.7311	1583.986	23479.75	22561.4
896.8736	1585.7575	23366.6	22446.3
897.0161	1587.5282	23212.45	22297.5
897.1585	1589.2981	23089.7	22173.95
897.3009	1591.0673	22957.8	22046.75
897.4433	1592.8358	22903.45	21991
897.5857	1594.6035	22836	21917.65
897.7281	1596.3704	22736.85	21819.3
897.8705	1598.1366	22713.15	21797.15
898.0128	1599.9021	22692	21775.4
898.1551	1601.6668	22568.5	21650.7
898.2975	1603.4308	22555.35	21635.85
898.4398	1605.194	22583.9	21662.55
898.5821	1606.9564	22582.4	21672.6
898.7243	1608.7182	22649.2	21738.7
898.8666	1610.4791	22732.85	21831
899.0088	1612.2394	22787.75	21887.4
899.1511	1613.9988	22905	22001
899.2933	1615.7576	23073.1	22162.4
899.4355	1617.5156	23290.1	22370
899.5776	1619.2728	23524.8	22608.55
899.7198	1621.0293	23628.35	22711.1
899.862	1622.785	23651.4	22736.7
900.0041	1624.54	23494.1	22586
900.1462	1626.2942	23372.7	22462.5
900.2883	1628.0477	22994	22082.55
900.4304	1629.8005	22682	21768.6
900.5725	1631.5525	22388.35	21480.2
900.7145	1633.3037	22125.05	21216.45
900.8566	1635.0542	21901.95	20993.95
900.9986	1636.804	21712.3	20804
901.1406	1638.553	21643	20657.6
901.2826	1640.3013	21440.35	20529.1
901.4245	1642.0488	21332.35	20418.25
901.5665	1643.7955	21290.9	20383.1
901.7085	1645.5416	21282.7	20374.15
901.8504	1647.2868	21259.45	20350.1
901.9923	1649.0313	21236.1	20324.65
902.1342	1650.7751	21346.65	20435.95
902.2761	1652.5181	21452.4	20543.8
902.4179	1654.2604	21638.9	20732.55
902.5598	1656.0019	21873.2	20966.25
902.7016	1657.7427	22204.3	21294.25
902.8434	1659.4828	22516.3	21605.7
902.9852	1661.222	22747.6	21836.9
903.127	1662.9606	22738.95	21829.85
903.2687	1664.6984	22584.85	21671.15
903.4105	1666.4354	22258.65	21344.85
903.5522	1668.1717	21713.85	20799.25
903.6939	1669.9072	21249.3	20335.1
903.8356	1671.642	20851.85	19936.8
903.9773	1673.3761	20468.3	19558.55
904.119	1675.1094	20217.25	19308.15
904.2606	1676.8419	19962.7	19052.25
904.4022	1678.5737	19768.7	18856.3
904.5439	1680.3048	19616.85	18703.3
904.6855	1682.0351	19449.7	18540.4
904.827	1683.7646	19369.75	18452.25
904.9686	1685.4934	19294.8	18386.2
905.1101	1687.2215	19121.65	18212.65
905.2517	1688.9488	19043.65	18135.05
905.3932	1690.6754	18940.65	18031.1
905.5347	1692.4012	18896.4	17985.45
905.6761	1694.1263	18807.55	17896.7
905.8176	1695.8506	18763	17854.1
905.9591	1697.5742	18692.9	17785.45
906.1005	1699.297	18598.85	17695.25
906.2419	1701.0191	18453.9	17551.75
906.3833	1702.7404	18408.75	17507.65
906.5246	1704.461	18276.9	17366.95
906.666	1706.1808	18253.5	17346.2
906.8073	1707.8999	18164.45	17258.45
906.9487	1709.6182	18092.05	17191.6
907.09	1711.3358	18034.35	17135.25
907.2313	1713.0527	17972.8	17072.75
907.3725	1714.7688	17931.65	17022.45
907.5138	1716.4841	17824.35	16917.55
907.655	1718.1987	17797.8	16887.7
907.7962	1719.9126	17742.6	16839.05
907.9374	1721.6257	17651.8	16748.2
908.0786	1723.338	17641.95	16742.95
908.2198	1725.0496	17526.25	16626.1
908.3609	1726.7605	17483.3	16578.5
908.502	1728.4706	17422.6	16519.75
908.6431	1730.18	17298.25	16394.05
908.7842	1731.8886	17295.55	16395.05
908.9253	1733.5964	17247.65	16326.3
909.0664	1735.3036	17193.55	16289.25
909.2074	1737.0099	17155.3	16254.85
909.3484	1738.7156	17107.5	16210.7
909.4894	1740.4204	17044.4	16142.25
909.6304	1742.1246	16992.45	16090.35
909.7714	1743.8279	16952.2	16050.3
909.9123	1745.5306	16938.6	16038.2
910.0532	1747.2325	16837.5	15940.7
910.1941	1748.9336	16806.9	15906.95
910.335	1750.634	16725.25	15821.15
910.4759	1752.3336	16670.25	15768.8
910.6168	1754.0325	16648.05	15753.6
910.7576	1755.7307	16612.45	15718.05
910.8984	1757.4281	16585.3	15685.1
911.0392	1759.1247	16534	15623.5
911.18	1760.8206	16514.6	15605.7
911.3208	1762.5158	16471.75	15565.45
911.4615	1764.2102	16384.4	15481.1
911.6022	1765.9039	16326.25	15425.5
911.7429	1767.5968	16298.7	15401.35
911.8836	1769.289	16219.6	15323.8
912.0243	1770.9804	16220.6	15320.55
912.1649	1772.6711	16217.05	15312.95
912.3056	1774.361	16164.9	15261.35
912.4462	1776.0502	16135.9	15233.4
912.5868	1777.7386	16081.2	15178
912.7274	1779.4263	15995.1	15097.15
912.8679	1781.1132	15986.25	15090.1
913.0084	1782.7994	15914.7	15018.25
913.149	1784.4849	15872.55	14979.85
913.2895	1786.1696	15823.5	14906.85
913.4299	1787.8535	15775.05	14879.5
913.5704	1789.5367	15739.7	14847.2
913.7108	1791.2192	15728.7	14832.75
913.8513	1792.9009	15668.95	14743.1
913.9917	1794.5818	15643.75	14742.5
914.132	1796.2621	15572.35	14674.8
914.2724	1797.9415	15525.75	14626
914.4128	1799.6202	15502.15	14602.5
914.5531	1801.2982	15475.1	14575.35
914.6934	1802.9755	15449.3	14547.65
914.8337	1804.6519	15399.75	14500.7
914.9739	1806.3277	15309.25	14411.75
915.1142	1808.0027	15245.1	14354
915.2544	1809.6769	15267.5	14374.05
915.3946	1811.3504	15229.2	14334
915.5348	1813.0231	15163.7	14266.25
915.675	1814.6951	15152.4	14257.35
915.8151	1816.3664	15144.2	14244.75
915.9553	1818.0369	15094.7	14197.8
916.0954	1819.7067	15033	14134.7
916.2355	1821.3757	15022.5	14119.15
916.3755	1823.044	14993.25	14092.6
916.5156	1824.7115	14932.15	14031.95
916.6556	1826.3783	14911.25	14012.4
916.7956	1828.0443	14840.85	13944.25
916.9356	1829.7096	14805.95	13907.45
917.0756	1831.3741	14829.3	13928.7
917.2155	1833.0379	14764.5	13867.8
917.3555	1834.701	14690.8	13796.2
917.4954	1836.3633	14684.4	13791.45
917.6353	1838.0248	14659.35	13763.9
917.7751	1839.6856	14612.9	13716.25
917.915	1841.3457	14592.55	13695.95
918.0548	1843.005	14534.9	13637.25
918.1946	1844.6636	14502.35	13606.9
918.3344	1846.3214	14464.15	13564.85
918.4742	1847.9785	14462.75	13564.2
918.6139	1849.6349	14417.45	13516.4
918.7537	1851.2904	14392.6	13480.3
918.8934	1852.9453	14362.1	13462.75
919.0331	1854.5994	14290.35	13388.45
919.1727	1856.2528	14288.8	13384.35
919.3124	1857.9054	14251.7	13354.95
919.452	1859.5572	14229.35	13332.55
919.5916	1861.2083	14202.45	13304.35
919.7312	1862.8587	14199.35	13301.35
919.8708	1864.5084	14154.6	13254.75
920.0103	1866.1572	14114.6	13217.25
920.1498	1867.8054	14037.55	13136.9
920.2893	1869.4528	14008.9	13107.95
920.4288	1871.0994	13983.65	13084.3
920.5683	1872.7453	13942.95	13040.95
920.7077	1874.3905	13898.4	12994
920.8471	1876.0349	13860.75	12960.35
920.9865	1877.6786	13854.25	12953.3
921.1259	1879.3215	13827.9	12928.35
921.2653	1880.9637	13807.35	12907.8
921.4046	1882.6051	13766.2	12869.45
921.5439	1884.2458	13735.85	12835.5
921.6832	1885.8858	13656.15	12760.1
921.8225	1887.525	13654.25	12756.2
921.9617	1889.1634	13564.8	12668.4
922.101	1890.8011	13539.75	12640.55
922.2402	1892.4381	13510.7	12611.55
922.3794	1894.0743	13507.9	12609.45
922.5185	1895.7098	13449.25	12552.2
922.6577	1897.3446	13429	12531.35
922.7968	1898.9786	13407.3	12505.55
922.9359	1900.6118	13368.8	12471.45
923.075	1902.2443	13273.4	12373.6
923.214	1903.8761	13255.3	12358.25
923.3531	1905.5071	13164.45	12266.1
923.4921	1907.1374	13157.65	12259.8
923.6311	1908.7669	13131	12236.3
923.77	1910.3957	13090.4	12194.95
923.909	1912.0237	13017	12120.5
924.0479	1913.651	12988.4	12089.6
924.1868	1915.2776	12952.05	12054.6
924.3257	1916.9034	12912.1	12017.2
924.4646	1918.5285	12873.3	11977.65
924.6034	1920.1528	12804.4	11909.15
924.7422	1921.7764	12804.75	11909.6
924.881	1923.3992	12712.95	11816.9
925.0198	1925.0213	12651.55	11754
925.1586	1926.6427	12602.6	11705.7
925.2973	1928.2633	12660.45	11695.7
925.436	1929.8832	12575.7	11680.55
925.5747	1931.5023	12522.4	11626.3
925.7134	1933.1207	12477.35	11583.45
925.852	1934.7383	12465.9	11570.45
925.9906	1936.3552	12402.85	11508.7
926.1292	1937.9714	12373.05	11478.15
926.2678	1939.5868	12293.85	11395.2
926.4064	1941.2015	12246.55	11348.55
926.5449	1942.8154	12247.7	11348.55
926.6834	1944.4286	12174	11279.05
926.8219	1946.041	12144.45	11229.3
926.9604	1947.6528	12070.7	11171.35
927.0988	1949.2637	12036.95	11139.85
927.2372	1950.8739	11975.45	11078.5
927.3756	1952.4834	11952.5	11055.8
927.514	1954.0921	11955.3	11059.25
927.6523	1955.7001	11903.7	11005.35
927.7907	1957.3074	11899.1	11007.45
927.929	1958.9139	11797.5	10907.1
928.0673	1960.5197	11789.4	10895.45
928.2055	1962.1247	11748.6	10854.65
928.3438	1963.729	11673.35	10782.75
928.482	1965.3325	11652.95	10736
928.6202	1966.9353	11580.5	10690.45
928.7584	1968.5374	11555.65	10663.4
928.8965	1970.1387	11531.5	10637
929.0346	1971.7393	11460	10570.85
929.1727	1973.3392	11427.2	10533.25
929.3108	1974.9383	11389.8	10500.4
929.4489	1976.5366	11339.25	10449.25
929.5869	1978.1342	11322.65	10433.4
929.7249	1979.7311	11308.45	10419.5
929.8629	1981.3273	11257.55	10368.35
930.0009	1982.9227	11208.65	10318.9
930.1388	1984.5173	11177.6	10286.9
930.2767	1986.1112	11126.7	10238.1
930.4146	1987.7044	11105.1	10216.4
930.5525	1989.2968	11055.6	10162.65
930.6904	1990.8885	11069.3	10176.55
930.8282	1992.4795	11024.05	10134
930.966	1994.0697	10983	10095.4
931.1038	1995.6592	10935.05	10046.85
931.2415	1997.2479	10927.95	10037.2
931.3793	1998.8359	10861.75	9973.95
931.517	2000.4232	10825.55	9939.35
931.6547	2002.0097	10784	9898.15
931.7923	2003.5955	10770.5	9883.75
931.93	2005.1805	10755.95	9868.6
932.0676	2006.7648	10713.6	9826.9
932.2052	2008.3484	10687	9800.25
932.3427	2009.9312	10698.1	9811.9
932.4803	2011.5133	10662.7	9778.25
932.6178	2013.0946	10606.7	9721.7
932.7553	2014.6752	10581	9696.8
932.8928	2016.2551	10547.15	9659.65
933.0302	2017.8342	10507.75	9620.4
933.1676	2019.4126	10467	9582.1
933.305	2020.9902	10429.7	9543.2
933.4424	2022.5672	10407.55	9522.9
933.5798	2024.1433	10396.55	9505.3
933.7171	2025.7188	10345.25	9463.3
933.8544	2027.2935	10319.15	9435
933.9917	2028.8674	10263.85	9378.6
934.129	2030.4406	10243.05	9361.45
934.2662	2032.0131	10156.8	9274.35
934.4034	2033.5849	10174.45	9284.9
934.5406	2035.1559	10160.8	9278.95
934.6778	2036.7261	10146.6	9260.55
934.8149	2038.2957	10119.2	9230.85
934.952	2039.8645	10084.3	9196.3
935.0891	2041.4325	10100.35	9210.25
935.2262	2042.9998	10035.65	9148.85
935.3632	2044.5664	10008.45	9122.5
935.5002	2046.1323	9958.5	9074.5
935.6372	2047.6974	9939.1	9055.65
935.7742	2049.2617	9892.05	9006.8
935.9111	2050.8254	9919.85	9031.1
936.048	2052.3883	9885.05	8995.95
936.1849	2053.9504	9851.95	8963.25
936.3218	2055.5118	9841.35	8953.5
936.4586	2057.0725	9750.55	8862.3
936.5955	2058.6325	9757.25	8872.15
936.7323	2060.1917	9718.35	8833.85
936.869	2061.7502	9693.95	8806.3
937.0058	2063.3079	9646.35	8761.65
937.1425	2064.8649	9596.4	8709.05
937.2792	2066.4212	9611.85	8723.85
937.4159	2067.9767	9574.6	8690.95
937.5525	2069.5315	9526.75	8640.75
937.6891	2071.0856	9497.75	8615.15
937.8257	2072.6389	9470.75	8585.85
937.9623	2074.1915	9419.85	8536.45
938.0989	2075.7433	9380.7	8493.1
938.2354	2077.2945	9343.6	8458.6
938.3719	2078.8448	9324.8	8436.2
938.5084	2080.3945	9295.55	8407.45
938.6448	2081.9434	9279.25	8390
938.7812	2083.4916	9274.8	8387.25
938.9176	2085.039	9228.75	8336.1
939.054	2086.5857	9210.75	8316.8
939.1903	2088.1317	9194.5	8300.85
939.3267	2089.677	9148.55	8254.95
939.463	2091.2215	9140.3	8247.3
939.5992	2092.7652	9092.35	8198.05
939.7355	2094.3083	9056.45	8163.65
939.8717	2095.8506	9071.15	8180.9
940.0079	2097.3921	9091.7	8202.1
940.1441	2098.933	9041.35	8153
940.2802	2100.4731	9030.55	8142.6
940.4163	2102.0124	9001	8102.55
940.5524	2103.5511	8969.65	8080.6
940.6885	2105.089	8965.65	8074.2
940.8245	2106.6261	8942.9	8052
940.9606	2108.1626	8906.2	8017.8
941.0965	2109.6983	8895.25	7979.25
941.2325	2111.2332	8856	7965.05
941.3684	2112.7675	8817.95	7925.85
941.5044	2114.301	8793	7901.75
941.6403	2115.8337	8792.5	7902.45
941.7761	2117.3657	8791.05	7898.8
941.912	2118.897	8747.2	7855.8
942.0478	2120.4276	8712.3	7817.3
942.1835	2121.9575	8694.25	7804.65
942.3193	2123.4866	8678.55	7786.1
942.455	2125.0149	8657.6	7765.3
942.5907	2126.5426	8593.45	7703.55
942.7264	2128.0695	8579.5	7691.6
942.8621	2129.5956	8554.9	7670.35
942.9977	2131.1211	8543.5	7651.45
943.1333	2132.6458	8509.7	7617.95
943.2689	2134.1698	8488.95	7598.05
943.4044	2135.693	8466.6	7570.45
943.54	2137.2155	8470.85	7577.4
943.6755	2138.7373	8459.15	7569.15
943.8109	2140.2584	8410.35	7525.8
943.9464	2141.7787	8394.8	7505.8
944.0818	2143.2983	8344.1	7460.25
944.2172	2144.8171	8305.65	7420.9
944.3526	2146.3353	8285.6	7397.25
944.4879	2147.8527	8269.25	7383.4
944.6232	2149.3693	8265.65	7373.4
944.7585	2150.8853	8213.9	7324.7
944.8938	2152.4005	8204.7	7313.45
945.029	2153.9149	8183.35	7292.05
945.1642	2155.4287	8248.6	7250.7
945.2994	2156.9417	8159.6	7267.3
945.4346	2158.454	8117.1	7226.6
945.5697	2159.9655	8082.5	7196.55
945.7048	2161.4764	8072.4	7184.8
945.8399	2162.9865	8055.9	7167
945.9749	2164.4958	8032.05	7144.55
946.1099	2166.0045	8001.55	7113.2
946.2449	2167.5124	7981.55	7090.6
946.3799	2169.0195	7956	7065.6
946.5148	2170.526	7953.6	7063.45
946.6498	2172.0317	7903.95	7014.85
946.7846	2173.5367	7912.4	7022.55
946.9195	2175.0409	7871.95	6985.2
947.0543	2176.5445	7876.15	6986.45
947.1891	2178.0473	7829.1	6936.15
947.3239	2179.5494	7803.25	6908.7
947.4587	2181.0507	7772.9	6883
947.5934	2182.5513	7745.45	6856.75
947.7281	2184.0512	7726	6836.3
947.8628	2185.5504	7715.85	6825.15
947.9974	2187.0488	7699.55	6811.1
948.132	2188.5465	7667.1	6780.55
948.2666	2190.0435	7635.55	6747.3
948.4012	2191.5397	7607	6716.7
948.5357	2193.0353	7607.35	6718.3
948.6702	2194.5301	7557.15	6664.25
948.8047	2196.0241	7557.7	6661.45
948.9392	2197.5175	7531.25	6637.2
949.0736	2199.0101	7493.45	6595.85
949.208	2200.502	7442.6	6552.05
949.3424	2201.9931	7402.4	6513.3
949.4767	2203.4835	7382.1	6495.7
949.611	2204.9733	7393.95	6491.3
949.7453	2206.4622	7373	6488.4
949.8796	2207.9505	7320.1	6430.55
950.0138	2209.438	7305.6	6421.4
950.148	2210.9248	7277.7	6389.05
950.2822	2212.4109	7265.05	6375.85
950.4164	2213.8962	7244.65	6351.75
950.5505	2215.3809	7224.95	6331.4
950.6846	2216.8648	7206.35	6310.95
950.8186	2218.3479	7212.25	6314.85
950.9527	2219.8304	7176.35	6277.65
951.0867	2221.3121	7126.85	6230.1
951.2207	2222.7931	7108.4	6215.55
951.3546	2224.2733	7093.65	6201.5
951.4886	2225.7529	7054.8	6165.05
951.6225	2227.2317	7033.7	6143.65
951.7563	2228.7098	7024.15	6138.65
951.8902	2230.1872	7002.8	6115.1
952.024	2231.6638	6981.65	6095.7
952.1578	2233.1397	6966.3	6074.55
952.2916	2234.6149	6938.5	6052.1
952.4253	2236.0894	6908.55	6019.7
952.559	2237.5632	6898	6006.05
952.6927	2239.0362	6882.8	5993.6
952.8263	2240.5085	6858.3	5967.65
952.9599	2241.9801	6812.65	5921.05
953.0935	2243.4509	6799.1	5909.45
953.2271	2244.921	6780.7	5885.8
953.3606	2246.3904	6751.9	5854
953.4941	2247.8591	6748.8	5857.7
953.6276	2249.3271	6738.25	5847.55
953.7611	2250.7943	6702.8	5809.45
953.8945	2252.2608	6676.4	5782.4
954.0279	2253.7266	6646.05	5754.85
954.1612	2255.1917	6629.65	5737.8
954.2946	2256.656	6602.2	5711.45
954.4279	2258.1197	6600.4	5714.25
954.5612	2259.5826	6572.35	5683.3
954.6944	2261.0447	6562.95	5670.45
954.8276	2262.5062	6544.6	5649.1
954.9608	2263.9669	6528.4	5634.4
955.094	2265.4269	6510.05	5616.75
955.2271	2266.8862	6488.5	5597.3
955.3602	2268.3448	6490.7	5601.25
955.4933	2269.8026	6475.2	5586.6
955.6264	2271.2598	6449.95	5562.3
955.7594	2272.7162	6444.85	5553.85
955.8924	2274.1719	6422.7	5530.25
956.0253	2275.6268	6396.8	5503
956.1583	2277.0811	6376.7	5483.75
956.2912	2278.5346	6378.45	5488.3
956.4241	2279.9874	6369.25	5480.95
956.5569	2281.4395	6353.95	5463.85
956.6897	2282.8908	6326.35	5432.4
956.8225	2284.3414	6310.7	5417.7
956.9553	2285.7914	6279.5	5390.65
957.088	2287.2406	6275.15	5382.25
957.2207	2288.689	6237.35	5343.5
957.3534	2290.1368	6247.05	5350.65
957.486	2291.5838	6224.95	5325.6
957.6186	2293.0302	6200.9	5304.35
957.7512	2294.4758	6174.25	5278.05
957.8838	2295.9206	6147.85	5254.65
958.0163	2297.3648	6126.5	5235.3
958.1488	2298.8082	6120.4	5227.05
958.2813	2300.251	6109.1	5216
958.4137	2301.693	6095	5198.6
958.5461	2303.1343	6083.45	5191.05
958.6785	2304.5748	6054.2	5162.95
958.8108	2306.0147	6024.75	5134.05
958.9432	2307.4538	5998.85	5107.7
959.0754	2308.8922	5998.85	5113.75
959.2077	2310.3299	5959.35	5072.35
959.3399	2311.7669	5950.55	5061
959.4721	2313.2031	5942.8	5052.45
959.6043	2314.6387	5924.2	5030.9
959.7365	2316.0735	5898.2	5009.15
959.8686	2317.5076	5888.15	4998.8
960.0006	2318.941	5867.15	4976.05
960.1327	2320.3737	5852.45	4957.5
960.2647	2321.8056	5857.3	4961.85
960.3967	2323.2369	5825.15	4932.5
960.5287	2324.6674	5810.45	4915.95
960.6606	2326.0972	5801.9	4909.2
960.7925	2327.5263	5775.15	4883.8
960.9244	2328.9547	5754.5	4861.15
961.0562	2330.3823	5754.95	4860.15
961.1881	2331.8092	5751.15	4851.35
961.3198	2333.2355	5723.3	4829.95
961.4516	2334.661	5699.45	4805.4
961.5833	2336.0858	5703.15	4808.2
961.715	2337.5098	5674.75	4782.9
961.8467	2338.9332	5683.55	4790.45
961.9783	2340.3558	5643.5	4750.1
962.1099	2341.7778	5625	4733
962.2415	2343.199	5607.35	4714.4
962.373	2344.6195	5581.9	4691.4
962.5045	2346.0393	5572.95	4684.15
962.636	2347.4583	5565.55	4674.2
962.7675	2348.8767	5550.85	4659.45
962.8989	2350.2943	5536.7	4642.8
963.0303	2351.7113	5529.55	4632.25
963.1617	2353.1275	5500.25	4604.65
963.293	2354.543	5499.1	4598.7
963.4243	2355.9578	5474.95	4581.65
963.5556	2357.3718	5448.1	4558
963.6868	2358.7852	5424.25	4532.85
963.818	2360.1978	5424.25	4534.9
963.9492	2361.6098	5398.1	4507.45
964.0803	2363.021	5390.3	4492.85
964.2114	2364.4315	5373.1	4480.6
964.3425	2365.8413	5358.45	4465.25
964.4736	2367.2504	5320.7	4432.9
964.6046	2368.6587	5300.35	4411.45
964.7356	2370.0664	5279.1	4389.9
964.8666	2371.4733	5270.85	4378.9
964.9975	2372.8795	5251.9	4362.2
965.1284	2374.285	5238.8	4349.85
965.2593	2375.6899	5202.5	4313.2
965.3901	2377.0939	5172	4282.5
965.5209	2378.4973	5177	4288.6
965.6517	2379.9	5170.65	4279.45
965.7825	2381.3019	5147.05	4258.8
965.9132	2382.7032	5130.4	4245.2
966.0439	2384.1037	5106.5	4222.45
966.1745	2385.5035	5090.45	4203.9
966.3051	2386.9027	5065.75	4178.35
966.4357	2388.3011	5055.25	4165.1
966.5663	2389.6987	5044.95	4154.65
966.6968	2391.0957	5033.95	4145.05
966.8273	2392.492	5002.2	4115.15
966.9578	2393.8876	4983.4	4094.9
967.0882	2395.2824	4967.6	4078.85
967.2186	2396.6765	4950.3	4063
967.349	2398.07	4930.65	4040.15
967.4793	2399.4627	4939.4	4047.55
967.6097	2400.8547	4913.6	4021.1
967.7399	2402.246	4911.6	4014.1
967.8702	2403.6366	4898.15	4010.3
968.0004	2405.0265	4863.7	3975.85
968.1306	2406.4156	4855.2	3963.65
968.2607	2407.8041	4832.95	3940.65
968.3909	2409.1918	4804.1	3913.25
968.521	2410.5789	4800.4	3911.95
968.651	2411.9652	4782.25	3889.5
968.781	2413.3508	4783.35	3893.15
968.911	2414.7358	4749.95	3859.1
969.041	2416.12	4745.25	3857
969.1709	2417.5035	4735.7	3847.55
969.3008	2418.8863	4724.05	3834.05
969.4307	2420.2684	4704.4	3814.7
969.5606	2421.6497	4680.5	3790.65
969.6904	2423.0304	4665.5	3777.2
969.8201	2424.4104	4648.1	3758.1
969.9499	2425.7896	4638.7	3747.05
970.0796	2427.1682	4616.9	3727.85
970.2093	2428.546	4612.8	3722.75
970.3389	2429.9232	4587.55	3695.2
970.4685	2431.2996	4598.75	3709
970.5981	2432.6753	4587.05	3697.85
970.7277	2434.0503	4558.95	3669.25
970.8572	2435.4246	4547.65	3657.3
970.9867	2436.7982	4538.5	3644.65
971.1161	2438.1711	4519.55	3629.9
971.2456	2439.5433	4518.5	3625.9
971.375	2440.9148	4498.8	3604.9
971.5043	2442.2856	4479.55	3589.5
971.6336	2443.6557	4479.1	3586.75
971.7629	2445.025	4454.95	3564.9
971.8922	2446.3937	4446.5	3555.65
972.0214	2447.7617	4432.05	3541.35
972.1506	2449.1289	4419.8	3530.05
972.2798	2450.4955	4389.15	3496.05
972.4089	2451.8613	4390.4	3501.85
972.538	2453.2265	4380.2	3492.75
972.6671	2454.5909	4368.95	3479.05
972.7961	2455.9546	4364.6	3473.35
972.9251	2457.3177	4348.6	3459.75
973.0541	2458.68	4350.45	3458.8
973.1831	2460.0416	4342.95	3450.85
973.312	2461.4025	4325.2	3432.3
973.4408	2462.7627	4311.95	3411.05
973.5697	2464.1222	4305.55	3421.3
973.6985	2465.4811	4289	3399.1
973.8273	2466.8392	4272.4	3383.25
973.956	2468.1966	4270.35	3378.2
974.0847	2469.5533	4277.95	3384.95
974.2134	2470.9093	4268.05	3376.45
974.3421	2472.2645	4251.6	3358.45
974.4707	2473.6191	4232.9	3344.5
974.5993	2474.973	4223.35	3333.35
974.7278	2476.3262	4216.25	3325.1
974.8563	2477.6787	4190	3302.2
974.9848	2479.0305	4178.5	3288.8
975.1132	2480.3816	4167.75	3277.85
975.2417	2481.7319	4150.4	3259.1
975.37	2483.0816	4141.05	3250.55
975.4984	2484.4306	4128.95	3239.05
975.6267	2485.7789	4108.4	3219.7
975.755	2487.1264	4104.4	3216.25
975.8833	2488.4733	4084.65	3195.05
976.0115	2489.8195	4081.7	3174.95
976.1397	2491.165	4059.65	3166.45
976.2678	2492.5097	4040.85	3151.8
976.3959	2493.8538	4024.75	3138.3
976.524	2495.1972	4005.7	3116.35
976.6521	2496.5398	4010.85	3120.95
976.7801	2497.8818	4007.1	3114.95
976.9081	2499.2231	3974.9	3082.55
977.036	2500.5637	3969	3076.45
977.164	2501.9035	3958.65	3065
977.2918	2503.2427	3955.5	3062.55
977.4197	2504.5812	3935.8	3045.85
977.5475	2505.919	3936.15	3042.4
977.6753	2507.256	3923.6	3035.2
977.8031	2508.5924	3904.1	3014.55
977.9308	2509.9281	3899.9	3003.45
978.0585	2511.2631	3887.7	2999.45
978.1861	2512.5974	3881.05	2990.25
978.3137	2513.9309	3858.55	2967.6
978.4413	2515.2638	3882.2	2967.1
978.5689	2516.596	3857.1	2968.1
978.6964	2517.9275	3824.25	2931.9
978.8239	2519.2583	3812.65	2923
978.9513	2520.5884	3808.35	2917.7
979.0788	2521.9178	3788.35	2898.35
979.2062	2523.2465	3777.15	2889.55
979.3335	2524.5745	3766.15	2877.3
979.4608	2525.9018	3755.95	2865.35
979.5881	2527.2284	3736.65	2848.9
979.7154	2528.5543	3736.05	2847.45
979.8426	2529.8796	3739.55	2850
979.9698	2531.2041	3736.25	2845.65
980.0969	2532.5279	3715.15	2827.4
980.224	2533.851	3716.75	2826.85
980.3511	2535.1735	3714.4	2827
980.4781	2536.4952	3697.6	2808
980.6052	2537.8163	3699.45	2809.45
980.7321	2539.1366	3675.6	2785.45
980.8591	2540.4562	3667.95	2775.75
980.986	2541.7752	3664.5	2773.3
981.1129	2543.0935	3650.25	2757.65
981.2397	2544.411	3645.25	2752.9
981.3665	2545.7279	3634.25	2743.75
981.4933	2547.0441	3637.35	2745.05
981.62	2548.3596	3633.85	2741.55
981.7467	2549.6744	3632.6	2740.8
981.8734	2550.9885	3618.9	2727.15
982.0001	2552.3019	3594.45	2701.85
982.1267	2553.6146	3597.45	2706.2
982.2532	2554.9266	3581.85	2689.95
982.3798	2556.2379	3564.25	2674.05
982.5063	2557.5485	3558.3	2670.35
982.6327	2558.8585	3569	2672.4
982.7592	2560.1677	3560.1	2663.35
982.8856	2561.4762	3543.9	2652.95
983.0119	2562.7841	3545.25	2649.45
983.1383	2564.0913	3546.05	2656.25
983.2646	2565.3977	3534.1	2642
983.3908	2566.7035	3520.7	2630.45
983.517	2568.0086	3503.1	2611.35
983.6432	2569.313	3508.75	2615.4
983.7694	2570.6167	3502.1	2608.55
983.8955	2571.9197	3488.15	2597.95
984.0216	2573.222	3485.15	2591.3
984.1476	2574.5236	3473.9	2581.4
984.2737	2575.8246	3465.7	2569.6
984.3996	2577.1248	3471.9	2577.7
984.5256	2578.4244	3472.8	2583.8
984.6515	2579.7232	3461.2	2570.6
984.7774	2581.0214	3466.05	2544.55
984.9032	2582.3189	3456.25	2568.25
985.029	2583.6157	3445.85	2548.95
985.1548	2584.9118	3435.35	2544.35
985.2806	2586.2072	3426.05	2536.5
985.4063	2587.5019	3424.1	2532
985.5319	2588.7959	3420.25	2527.55
985.6576	2590.0893	3415.35	2521.75
985.7832	2591.3819	3404.55	2513.85
985.9087	2592.6739	3401.1	2511.45
986.0343	2593.9652	3399.35	2506.75
986.1597	2595.2557	3389.2	2497.8
986.2852	2596.5456	3375.75	2482.45
986.4106	2597.8348	3364.9	2474.25
986.536	2599.1234	3362.8	2472.15
986.6614	2600.4112	3348.9	2455.7
986.7867	2601.6983	3354	2457.9
986.912	2602.9848	3339	2447.75
987.0372	2604.2705	3320.75	2425.3
987.1624	2605.5556	3325.45	2432.6
987.2876	2606.84	3307.55	2417.25
987.4128	2608.1237	3306.75	2415.25
987.5379	2609.4067	3294.35	2402.6
987.6629	2610.689	3305.85	2406.65
987.788	2611.9707	3277.9	2382.8
987.913	2613.2516	3273.25	2376.15
988.0379	2614.5319	3235.6	2346.65
988.1629	2615.8115	3239.4	2346.5
988.2878	2617.0903	3231.05	2338.5
988.4126	2618.3685	3241.6	2350
988.5375	2619.6461	3215.75	2324.1
988.6622	2620.9229	3212.5	2321.45
988.787	2622.199	3212.85	2320.95
988.9117	2623.4745	3216.05	2322.35
989.0364	2624.7493	3200.85	2310.4
989.161	2626.0234	3180.1	2290.65
989.2857	2627.2968	3161.95	2270.05
989.4102	2628.5695	3159	2268.5
989.5348	2629.8415	3143.85	2254.65
989.6593	2631.1128	3127.65	2235.7
989.7837	2632.3835	3124.4	2233.2
989.9082	2633.6535	3126.15	2236.75
990.0326	2634.9228	3110.4	2221.25
990.1569	2636.1914	3111.6	2221.2
990.2812	2637.4593	3111.1	2214.25
990.4055	2638.7265	3105.65	2211.95
990.5298	2639.9931	3087.3	2197.45
990.654	2641.259	3087.55	2194.95
990.7782	2642.5242	3072.3	2180.2
990.9023	2643.7887	3074.8	2185.45
991.0264	2645.0525	3074.05	2184.85
991.1505	2646.3156	3068.6	2164.15
991.2745	2647.5781	3048.95	2160.55
991.3985	2648.8398	3026	2136.25
991.5225	2650.1009	3040.8	2124.3
991.6464	2651.3613	3026.75	2137.05
991.7703	2652.6211	3025.55	2133.65
991.8942	2653.8801	2995.5	2106.55
992.018	2655.1385	3006.2	2111.2
992.1418	2656.3961	3000.85	2112.5
992.2655	2657.6531	2988.2	2097.15
992.3892	2658.9094	2987.25	2095.85
992.5129	2660.1651	2984.75	2094.85
992.6366	2661.42	2982.15	2090.65
992.7602	2662.6743	2980.55	2088.1
992.8837	2663.9279	2964	2075.1
993.0073	2665.1808	2974.65	2082.5
993.1307	2666.433	2960	2068.55
993.2542	2667.6846	2952.35	2063.8
993.3776	2668.9354	2946.05	2053.7
993.501	2670.1856	2944.25	2054.05
993.6244	2671.4351	2936.9	2047.3
993.7477	2672.6839	2943.85	2052.9
993.8709	2673.9321	2937	2046.6
993.9942	2675.1795	2928.45	2036.9
994.1174	2676.4263	2922.85	2033.05
994.2405	2677.6724	2913.55	2022.6
994.3637	2678.9179	2919.05	2031.05
994.4868	2680.1626	2912.75	2023.65
994.6098	2681.4067	2915.2	2023.95
994.7328	2682.6501	2902.75	2012.4
994.8558	2683.8928	2900.65	2010.9
994.9788	2685.1348	2882.85	1993.6
995.1017	2686.3761	2881.95	1992
995.2245	2687.6168	2871.4	1982.15
995.3474	2688.8568	2863.55	1974.1
995.4702	2690.0961	2855.05	1965
995.5929	2691.3348	2835.55	1945.55
995.7156	2692.5727	2825.25	1934.7
995.8383	2693.81	2828.25	1938.45
995.961	2695.0466	2816.6	1928.5
996.0836	2696.2826	2811.35	1919.4
996.2062	2697.5178	2806.2	1914
996.3287	2698.7524	2800.5	1912.2
996.4512	2699.9863	2809.7	1916.95
996.5737	2701.2195	2791.45	1901.8
996.6961	2702.452	2789.1	1897.45
996.8185	2703.6839	2792.1	1903
996.9408	2704.9151	2795.05	1907
997.0631	2706.1456	2779.8	1889.4
997.1854	2707.3755	2784.25	1894.2
997.3077	2708.6046	2792.2	1901.15
997.4299	2709.8331	2794.3	1903.8
997.552	2711.0609	2784.7	1895.6
997.6742	2712.2881	2791.35	1900.8
997.7963	2713.5145	2800.2	1909.1
997.9183	2714.7403	2792.7	1905.1
998.0403	2715.9654	2807.6	1919.15
998.1623	2717.1899	2814.4	1910.75
998.2842	2718.4136	2826.15	1937.45
998.4062	2719.6367	2822.9	1931.7
998.528	2720.8591	2833.6	1938
998.6498	2722.0809	2830.05	1940.45
998.7716	2723.3019	2835.8	1944.6
998.8934	2724.5223	2831.8	1940.55
999.0151	2725.7421	2827.9	1937.05
999.1368	2726.9611	2826.8	1935.55
999.2584	2728.1795	2829.1	1935.65
999.38	2729.3972	2806.4	1917.45
999.5016	2730.6142	2792.9	1898.05
999.6231	2731.8306	2769.3	1878.7
999.7446	2733.0462	2767	1875.2
999.8661	2734.2612	2733.95	1838.5
999.9875	2735.4756	2709.1	1818.15
1000.1089	2736.6892	2677.65	1789.85
1000.2302	2737.9022	2665.7	1777.3
1000.3515	2739.1145	2643.65	1753
1000.4728	2740.3262	2634.65	1738.25
1000.594	2741.5372	2614.15	1725.3
1000.7152	2742.7475	2594.9	1706.1
1000.8363	2743.9571	2591.5	1700.4
1000.9575	2745.1661	2579.3	1686.95
1001.0785	2746.3744	2563.5	1672.8
1001.1996	2747.582	2550.9	1662.1
1001.3206	2748.7889	2530.8	1640.3
1001.4415	2749.9952	2525.85	1639.1
1001.5625	2751.2008	2509.4	1618.8
1001.6833	2752.4057	2513.85	1622.65
1001.8042	2753.61	2506.05	1617.45
1001.925	2754.8136	2480.55	1589.7
1002.0458	2756.0165	2491.55	1603.45
1002.1665	2757.2188	2481.15	1595.4
1002.2872	2758.4204	2471.05	1582.55
1002.4078	2759.6213	2468.75	1577.65
1002.5285	2760.8215	2478.55	1585.2
1002.649	2762.0211	2463.35	1572.9
1002.7696	2763.22	2459.65	1569.05
1002.8901	2764.4182	2449.65	1559.95
1003.0106	2765.6158	2437.05	1548.65
1003.131	2766.8127	2437.2	1551.05
1003.2514	2768.009	2422.1	1532.65
1003.3717	2769.2045	2421.6	1531.95
1003.492	2770.3994	2425.35	1534.35
1003.6123	2771.5936	2423.2	1534.1
1003.7325	2772.7872	2403.9	1517.15
1003.8527	2773.9801	2397.85	1509.65
1003.9729	2775.1723	2396.25	1490.4
1004.093	2776.3639	2383.5	1496.5
1004.2131	2777.5548	2378.55	1489.3
1004.3331	2778.745	2367	1478.6
1004.4531	2779.9346	2381.05	1493.4
1004.5731	2781.1235	2375.05	1490
1004.693	2782.3117	2370.9	1480.6
1004.8129	2783.4992	2374.5	1487.45
1004.9328	2784.6861	2377.9	1490.95
1005.0526	2785.8723	2382.25	1494.35
1005.1723	2787.0579	2378.35	1490.2
1005.2921	2788.2428	2374.55	1487.9
1005.4118	2789.427	2379	1492.25
1005.5314	2790.6106	2374.15	1487.9
1005.651	2791.7935	2391.45	1504.8
1005.7706	2792.9757	2394.05	1507.05
1005.8902	2794.1573	2400.15	1512.25
1006.0097	2795.3382	2423.35	1537.55
1006.1291	2796.5184	2423.6	1538.75
1006.2485	2797.698	2442.55	1551.3
1006.3679	2798.8769	2455.95	1567.2
1006.4873	2800.0551	2465.3	1576.55
1006.6066	2801.2327	2489.25	1600.35
1006.7258	2802.4096	2494	1607
1006.8451	2803.5859	2512.6	1626.9
1006.9642	2804.7615	2530.05	1641.9
1007.0834	2805.9364	2539.05	1655.05
1007.2025	2807.1106	2575.3	1687.45
1007.3216	2808.2842	2596.9	1707.2
1007.4406	2809.4572	2626.5	1737.95
1007.5596	2810.6294	2665.85	1777.95
1007.6785	2811.801	2686	1801.6
1007.7975	2812.972	2739.85	1855.55
1007.9163	2814.1423	2786.95	1899.85
1008.0352	2815.3119	2825.5	1937.75
1008.154	2816.4808	2862.6	1975.95
1008.2727	2817.6491	2922.05	2035.5
1008.3914	2818.8167	2949.4	2063.2
1008.5101	2819.9837	2993.3	2101.9
1008.6288	2821.15	3043	2156.75
1008.7474	2822.3157	3075.05	2187.8
1008.8659	2823.4807	3116.85	2230.4
1008.9844	2824.645	3164.2	2276.05
1009.1029	2825.8086	3203.75	2315.8
1009.2214	2826.9716	3233.3	2349.35
1009.3398	2828.134	3271.9	2385.3
1009.4581	2829.2957	3309	2421.7
1009.5764	2830.4567	3331.3	2444.75
1009.6947	2831.617	3349.8	2462.35
1009.813	2832.7767	3355.2	2468.2
1009.9312	2833.9358	3353.6	2469.05
1010.0493	2835.0941	3335.6	2446.9
1010.1675	2836.2519	3338.4	2452.8
1010.2855	2837.4089	3328	2439.5
1010.4036	2838.5653	3316.85	2431.45
1010.5216	2839.7211	3305.7	2419.9
1010.6396	2840.8761	3308.5	2419.1
1010.7575	2842.0306	3325.45	2440.25
1010.8754	2843.1843	3374.65	2489.9
1010.9932	2844.3374	3427.45	2541.85
1011.111	2845.4899	3475.8	2586.75
1011.2288	2846.6417	3547.35	2662.8
1011.3465	2847.7928	3622.05	2736.05
1011.4642	2848.9433	3711.25	2824.5
1011.5818	2850.0931	3785.4	2900.4
1011.6995	2851.2422	3855.05	2965.95
1011.817	2852.3907	3930.2	3044.2
1011.9345	2853.5385	3986.7	3098.9
1012.052	2854.6857	4045.7	3151.15
1012.1695	2855.8323	4082.3	3196.2
1012.2869	2856.9781	4124.45	3239.85
1012.4042	2858.1233	4183.8	3296.4
1012.5216	2859.2679	4214.55	3329.55
1012.6389	2860.4118	4256.6	3369.55
1012.7561	2861.555	4308.2	3416.8
1012.8733	2862.6976	4343.3	3456.3
1012.9905	2863.8395	4359	3473.45
1013.1076	2864.9808	4392.35	3506.05
1013.2247	2866.1214	4396.7	3510.4
1013.3417	2867.2614	4409.2	3521.75
1013.4587	2868.4007	4409.15	3523.8
1013.5757	2869.5393	4418.8	3531.8
1013.6926	2870.6773	4424.95	3538.1
1013.8095	2871.8146	4451.8	3562.3
1013.9263	2872.9513	4435.35	3547.7
1014.0431	2874.0874	4424.8	3538.45
1014.1599	2875.2227	4422.4	3537.1
1014.2766	2876.3574	4405	3520.3
1014.3933	2877.4915	4360.45	3475.95
1014.51	2878.6249	4344.65	3461.5
1014.6266	2879.7577	4314.2	3428.8
1014.7431	2880.8898	4309.15	3410.3
1014.8596	2882.0212	4263.6	3378.1
1014.9761	2883.152	4272.9	3386.05
1015.0925	2884.2821	4247.15	3363.7
1015.2089	2885.4116	4230.25	3345.2
1015.3253	2886.5405	4230.05	3343.5
1015.4416	2887.6686	4229.4	3339.65
1015.5579	2888.7962	4221.6	3336.8
1015.6741	2889.923	4241.3	3355.25
1015.7903	2891.0493	4257.15	3371
1015.9065	2892.1748	4256.1	3370.95
1016.0226	2893.2997	4274.3	3388.7
1016.1387	2894.424	4282.8	3398.7
1016.2547	2895.5476	4286.05	3403.05
1016.3707	2896.6706	4303.7	3419.3
1016.4866	2897.7929	4335.65	3448.4
1016.6025	2898.9145	4353.05	3467.5
1016.7184	2900.0355	4383.4	3497.9
1016.8342	2901.1559	4417	3531.8
1016.95	2902.2756	4448.35	3564.45
1017.0658	2903.3946	4470.4	3585.05
1017.1815	2904.513	4492.6	3606.2
1017.2971	2905.6308	4536.9	3653.45
1017.4127	2906.7479	4551.6	3666.45
1017.5283	2907.8643	4545.95	3660.85
1017.6439	2908.9801	4578.3	3695
1017.7594	2910.0953	4591.85	3706.25
1017.8748	2911.2098	4608.4	3720.15
1017.9902	2912.3236	4591.3	3697.4
1018.1056	2913.4368	4556.9	3668.5
1018.2209	2914.5494	4539.55	3654.95
1018.3362	2915.6613	4513	3622
1018.4515	2916.7725	4473.6	3586.45
1018.5667	2917.8831	4450.55	3566.45
1018.6819	2918.9931	4405.95	3518.85
1018.797	2920.1024	4379	3493.6
1018.9121	2921.211	4356.8	3473.8
1019.0271	2922.319	4333.9	3450.2
1019.1421	2923.4264	4327.35	3442.25
1019.2571	2924.5331	4307.8	3422.55
1019.372	2925.6391	4295.45	3410.4
1019.4869	2926.7445	4258.85	3375.95
1019.6017	2927.8493	4262.8	3378.25
1019.7165	2928.9534	4264.15	3377.55
1019.8313	2930.0569	4254.35	3367.45
1019.946	2931.1597	4233.3	3348.8
1020.0606	2932.2619	4220.25	3336.4
1020.1753	2933.3634	4213.15	3328.65
1020.2899	2934.4643	4210.85	3319.3
1020.4044	2935.5645	4205.5	3314.95
1020.5189	2936.6641	4133.7	3245.6
1020.6334	2937.763	4089.85	3206.7
1020.7478	2938.8613	4044.95	3162.1
1020.8622	2939.959	3985.25	3094.75
1020.9765	2941.056	3909.15	3025.3
1021.0908	2942.1523	3821.45	2935.55
1021.2051	2943.248	3736.35	2850.95
1021.3193	2944.3431	3630.8	2747.5
1021.4334	2945.4375	3524.6	2639.6
1021.5476	2946.5313	3432.7	2552.75
1021.6617	2947.6244	3312.4	2429.05
1021.7757	2948.7169	3216.15	2331.05
1021.8897	2949.8087	3110.2	2228.05
1022.0037	2950.8999	3007.6	2122.25
1022.1176	2951.9904	2934.7	2051.45
1022.2315	2953.0803	2858.55	1973.55
1022.3453	2954.1696	2804.35	1920
1022.4591	2955.2582	2745.35	1862.5
1022.5728	2956.3462	2694.8	1810.6
1022.6865	2957.4335	2661.35	1776.75
1022.8002	2958.5202	2621.95	1736.55
1022.9138	2959.6062	2585.8	1701.65
1023.0274	2960.6916	2560.95	1677.25
1023.141	2961.7764	2550.7	1666.8
1023.2545	2962.8605	2523	1638.7
1023.3679	2963.9439	2512.75	1631
1023.4813	2965.0267	2510.4	1627.45
1023.5947	2966.1089	2507.95	1601.6
1023.708	2967.1905	2475.4	1591.2
1023.8213	2968.2714	2475	1592.45
1023.9346	2969.3516	2470.25	1586.45
1024.0478	2970.4312	2471.85	1580.8
1024.1609	2971.5102	2462.95	1578.25
1024.274	2972.5885	2457.5	1573.65
1024.3871	2973.6662	2460.1	1572.55
1024.5002	2974.7432	2457.55	1575.55
1024.6132	2975.8196	2442.35	1557.2
1024.7261	2976.8954	2435	1551.75
1024.839	2977.9705	2420.15	1537.2
1024.9519	2979.045	2396.6	1513.1
1025.0647	2980.1188	2386.1	1503
1025.1775	2981.192	2363.9	1482.55
1025.2902	2982.2645	2338.85	1456
1025.4029	2983.3364	2313.15	1429.55
1025.5156	2984.4077	2276.5	1393.25
1025.6282	2985.4783	2247.9	1360.6
1025.7407	2986.5483	2215.85	1333.85
1025.8532	2987.6177	2188.3	1305.1
1025.9657	2988.6864	2152.2	1268.5
1026.0782	2989.7545	2123.35	1237.35
1026.1906	2990.8219	2074.05	1191.4
1026.3029	2991.8887	2045.25	1157.75
1026.4152	2992.9548	2023.1	1137.85
1026.5275	2994.0204	1977.35	1092.3
1026.6397	2995.0852	1944.95	1063.8
1026.7519	2996.1495	1918	1033.85
1026.864	2997.2131	1905.25	1022.45
1026.9761	2998.276	1882.5	998.85
1027.0882	2999.3383	1857.9	973.15
1027.2002	3000.4	1835.6	951.3
1027.3122	3001.4611	1821.2	938.2
1027.4241	3002.5215	1805.2	920.5
1027.536	3003.5812	1793.95	909.75
1027.6478	3004.6404	1770.9	889.95
1027.7596	3005.6989	1771.9	887.7
1027.8714	3006.7567	1760.75	879.35
1027.9831	3007.8139	1762.45	858.25
1028.0947	3008.8705	1733.55	851.3
1028.2064	3009.9264	1754.85	854.7
1028.3179	3010.9818	1724.65	840.4
1028.4295	3012.0364	1721.4	838.5
1028.541	3013.0905	1723.25	841.3
1028.6524	3014.1439	1721.8	837.6
1028.7638	3015.1966	1707.95	824.65
1028.8752	3016.2487	1708.2	827.3
1028.9865	3017.3002	1713.85	824.3
1029.0978	3018.3511	1708.05	826.7
1029.209	3019.4013	1702	819.95
1029.3202	3020.4509	1705.5	825.15
1029.4314	3021.4998	1700.95	816.45
1029.5425	3022.5481	1701.75	818.75
1029.6535	3023.5958	1703	821.6
1029.7645	3024.6428	1702	817.25
1029.8755	3025.6892	1702.5	821.2
1029.9864	3026.735	1705.2	825.05
1030.0973	3027.7802	1697.55	815.7
1030.2082	3028.8247	1697.35	814.3
1030.319	3029.8685	1707.6	823.85
1030.4297	3030.9118	1706.35	822.45
1030.5404	3031.9544	1712.05	830.15
1030.6511	3032.9963	1713.15	830.45
1030.7617	3034.0376	1711.1	827.6
1030.8723	3035.0783	1722.85	838.65
1030.9829	3036.1184	1721.4	837.85
1031.0934	3037.1578	1718.35	838
1031.2038	3038.1966	1726.95	843.15
1031.3142	3039.2348	1723.95	843.6
1031.4246	3040.2723	1721.05	831.1
1031.5349	3041.3092	1715.95	834.2
1031.6452	3042.3455	1707.6	823
1031.7554	3043.3811	1715.85	832.6
1031.8656	3044.4161	1701.55	816.55
1031.9758	3045.4505	1695.65	814.5
1032.0859	3046.4842	1693.55	809.35
1032.1959	3047.5173	1681.25	800.4
1032.3059	3048.5498	1669.4	787.05
1032.4159	3049.5816	1668.75	785.85
1032.5258	3050.6128	1665.9	782.6
1032.6357	3051.6434	1657.55	773.65
1032.7455	3052.6734	1640.25	755.8
1032.8553	3053.7027	1638.35	757.8
1032.9651	3054.7314	1625.95	744.3
1033.0748	3055.7594	1609.4	726.55
1033.1845	3056.7868	1619.55	736.65
1033.2941	3057.8136	1609.15	728.15
1033.4037	3058.8398	1596.8	716.65
1033.5132	3059.8653	1594.1	714.5
1033.6227	3060.8902	1588.55	705.65
1033.7321	3061.9145	1576.45	693.1
1033.8415	3062.9381	1575.2	691.85
1033.9509	3063.9612	1585.5	686.3
1034.0602	3064.9835	1555.5	673.9
1034.1694	3066.0053	1558.25	674
1034.2787	3067.0264	1540.05	658.65
1034.3878	3068.0469	1538.8	655.75
1034.497	3069.0668	1527.8	642.8
1034.6061	3070.086	1516.45	634.1
1034.7151	3071.1046	1510.6	626.65
1034.8241	3072.1226	1499.45	616
1034.9331	3073.1399	1491.1	609.1
1035.042	3074.1567	1478.85	596.5
1035.1508	3075.1727	1474.7	591.9
1035.2597	3076.1882	1454.25	571.4
1035.3684	3077.203	1448.85	567
1035.4772	3078.2173	1438.45	554.9
1035.5859	3079.2308	1425.9	542.1
1035.6945	3080.2438	1422.5	539.35
1035.8031	3081.2561	1409.4	528.9
1035.9117	3082.2678	1401.25	519.15
1036.0202	3083.2789	1392.3	512.45
1036.1286	3084.2893	1379.95	498.4
1036.2371	3085.2991	1380.4	497.7
1036.3454	3086.3083	1380.15	494.35
1036.4538	3087.3169	1371.35	487.3
1036.562	3088.3248	1368.95	486.7
1036.6703	3089.3321	1358.7	473.15
1036.7785	3090.3388	1348.95	468.4
1036.8866	3091.3449	1341.65	459.6
1036.9948	3092.3503	1339.15	455.7
1037.1028	3093.3551	1332.25	451.75
1037.2108	3094.3593	1329.8	448.65
1037.3188	3095.3629	1330.85	448.6
1037.4267	3096.3658	1327.9	445.35
1037.5346	3097.3681	1312.45	430.55
1037.6425	3098.3698	1315.9	433.75
1037.7503	3099.3708	1317.45	430.45
1037.858	3100.3713	1309.65	429.85
1037.9657	3101.3711	1308.3	426.55
1038.0734	3102.3702	1425.6	409.55
1038.181	3103.3688	1306.35	420.65
1038.2886	3104.3667	1290.75	410.15
1038.3961	3105.364	1289.75	409.75
1038.5036	3106.3607	1289	407.4
1038.611	3107.3568	1281.15	398.25
1038.7184	3108.3522	1283.2	403.35
1038.8257	3109.347	1281.2	398.75
1038.933	3110.3412	1280.65	395.7
1039.0403	3111.3348	1273.8	391.3
1039.1475	3112.3277	1262.65	381.4
1039.2547	3113.32	1261.5	381.15
1039.3618	3114.3117	1268.25	385.9
1039.4689	3115.3028	1268.2	386.05
1039.5759	3116.2932	1255.8	369.7
1039.6829	3117.2831	1258.5	370.3
1039.7898	3118.2723	1252.7	371.8
1039.8967	3119.2608	1250.15	369.3
1040.0035	3120.2488	1249.7	367.85
1040.1103	3121.2361	1245.25	365.7
1040.2171	3122.2229	1244.7	361.65
1040.3238	3123.209	1246.75	364.7
1040.4305	3124.1944	1241	359.95
1040.5371	3125.1793	1237.3	354.55
1040.6437	3126.1635	1235.9	355.9
1040.7502	3127.1471	1226.55	343.85
1040.8567	3128.1301	1231.95	352.45
1040.9631	3129.1125	1230.45	351.1
1041.0695	3130.0942	1228.45	347.1
1041.1759	3131.0753	1237.9	347.65
1041.2822	3132.0558	1230.2	347.35
1041.3884	3133.0357	1222.2	339.9
1041.4946	3134.015	1217.9	336.6
1041.6008	3134.9936	1216.95	334.45
1041.7069	3135.9716	1237.1	337.35
1041.813	3136.949	1218.25	336.1
1041.919	3137.9258	1228.65	329.5
1042.025	3138.902	1212.35	324.45
1042.1309	3139.8775	1210.1	328.85
1042.2368	3140.8524	1206.4	324.85
1042.3427	3141.8267	1204.6	321.95
1042.4485	3142.8004	1205.95	323.35
1042.5542	3143.7735	1209.4	321
1042.6599	3144.7459	1198.75	317.2
1042.7656	3145.7178	1195.8	316.35
1042.8712	3146.689	1195.2	314.2
1042.9768	3147.6596	1195.4	314
1043.0823	3148.6295	1190.6	309.2
1043.1878	3149.5989	1185.2	301.1
1043.2932	3150.5676	1180.8	299
1043.3986	3151.5357	1185.75	306.25
1043.5039	3152.5032	1183.35	303.9
1043.6092	3153.4701	1178.5	297.5
1043.7145	3154.4364	1177.6	294.4
1043.8197	3155.402	1171.5	292.3
1043.9248	3156.367	1178.95	296.95
1044.03	3157.3315	1214.65	289.6
1044.135	3158.2952	1174.3	292.95
1044.24	3159.2584	1166.35	286.2
1044.345	3160.221	1166.7	286.45
1044.4499	3161.1829	1168.8	287.85
1044.5548	3162.1442	1161.95	280.35
1044.6596	3163.105	1161.65	279.9
1044.7644	3164.065	1159.6	279.2
1044.8692	3165.0245	1162.8	278.05
1044.9739	3165.9834	1150.85	271.1
1045.0785	3166.9416	1151.75	268.2
1045.1831	3167.8993	1152.6	271.85
1045.2877	3168.8563	1152.6	272.75
1045.3922	3169.8127	1155.4	274.6
1045.4966	3170.7684	1147.3	266.7
1045.6011	3171.7236	1145.25	261.7
1045.7054	3172.6782	1145.2	263.85
1045.8098	3173.6321	1148.1	265.4
1045.914	3174.5854	1148.15	264.65
1046.0183	3175.5381	1140.4	260.55
1046.1224	3176.4902	1143.65	262.9
1046.2266	3177.4417	1137.45	258.9
1046.3307	3178.3926	1135.05	253.05
1046.4347	3179.3428	1139.1	261.3
1046.5387	3180.2924	1136.15	255.7
1046.6427	3181.2415	1136.2	255.5
1046.7466	3182.1899	1132.7	250.55
1046.8504	3183.1377	1135.55	253.45
1046.9542	3184.0848	1133.65	249.9
1047.058	3185.0314	1129.4	249.05
1047.1617	3185.9773	1124.95	241.5
1047.2654	3186.9227	1125.5	244.15
1047.369	3187.8674	1125.3	243.3
1047.4726	3188.8115	1123.85	242.15
1047.5761	3189.755	1124.8	245.45
1047.6796	3190.6979	1121.45	240.2
1047.783	3191.6402	1113.6	234.85
1047.8864	3192.5818	1117.1	235.7
1047.9898	3193.5229	1123.6	236.15
1048.0931	3194.4633	1115.25	232.5
1048.1963	3195.4031	1113.2	231.35
1048.2995	3196.3423	1110.15	229.1
1048.4027	3197.2809	1111.75	231.35
1048.5058	3198.2189	1110.95	230.25
1048.6089	3199.1563	1112.95	227.2
1048.7119	3200.0931	1102.75	221.45
1048.8148	3201.0292	1106.8	226.7
1048.9178	3201.9648	1101.7	219.95
1049.0206	3202.8997	1108.5	227.85
1049.1235	3203.834	1107.25	227.25
1049.2262	3204.7677	1102.6	222.85
1049.329	3205.7008	1100.55	216.65
1049.4317	3206.6333	1098.55	220.75
1049.5343	3207.5652	1097.05	211.95
1049.6369	3208.4964	1094.1	213.7
1049.7394	3209.4271	1097.1	215.85
1049.8419	3210.3571	1092	212.95
1049.9444	3211.2865	1095.25	214.85
1050.0468	3212.2154	1092.15	212.25
1050.1491	3213.1436	1091.05	207.4
1050.2514	3214.0712	1099.95	212.65
1050.3537	3214.9982	1082.3	202.9
1050.4559	3215.9246	1087.65	207.55
1050.5581	3216.8503	1086.1	206.7
1050.6602	3217.7755	1087.25	205.25
1050.7623	3218.7001	1086	206
1050.8643	3219.624	1086.45	206.25
1050.9663	3220.5473	1082.5	202.7
1051.0682	3221.4701	1085.85	203.95
1051.1701	3222.3922	1081.95	200.45
1051.2719	3223.3137	1081.25	201.8
1051.3737	3224.2346	1073.8	194.35
1051.4754	3225.1549	1075.05	194.05
1051.5771	3226.0746	1073.6	192.95
1051.6788	3226.9937	1077.75	197
1051.7804	3227.9121	1073.15	194
1051.8819	3228.83	1073.25	192
1051.9834	3229.7473	1071.45	190.25
1052.0849	3230.6639	1071.9	190.85
1052.1863	3231.5799	1065.15	186.85
1052.2876	3232.4954	1072	189.35
1052.3889	3233.4102	1069.2	190.25
1052.4902	3234.3244	1071.15	192.15
1052.5914	3235.238	1065.1	184.5
1052.6926	3236.151	1089.3	183.65
1052.7937	3237.0634	1062.7	183.45
1052.8948	3237.9752	1062.4	182.4
1052.9958	3238.8864	1059.8	178.6
1053.0968	3239.797	1057	177.3
1053.1977	3240.7069	1058.6	179.1
1053.2986	3241.6163	1062.25	178
1053.3994	3242.5251	1059.95	181.5
1053.5002	3243.4332	1059.15	179.6
1053.6009	3244.3408	1053.75	172.15
1053.7016	3245.2477	1053.25	173.75
1053.8022	3246.154	1055.85	174.1
1053.9028	3247.0598	1055.05	174
1054.0034	3247.9649	1054.45	173.55
1054.1039	3248.8694	1049.45	170.55
1054.2043	3249.7733	1050.2	169.9
1054.3047	3250.6766	1044.75	164.1
1054.4051	3251.5793	1049.35	168.65
1054.5054	3252.4814	1044.45	165.25
1054.6056	3253.3829	1042.6	162.55
1054.7058	3254.2838	1046.6	166.9
1054.806	3255.1841	1040.55	160.8
1054.9061	3256.0838	1036.3	157.15
1055.0061	3256.9829	1035.45	155.8
1055.1062	3257.8814	1038.9	156.85
1055.2061	3258.7792	1037.85	157.1
1055.306	3259.6765	1033.85	152.45
1055.4059	3260.5731	1031.8	151.45
1055.5057	3261.4692	1031.95	153.2
1055.6055	3262.3647	1029	147.3
1055.7052	3263.2595	1022.9	141.95
1055.8049	3264.1538	1025.2	145.35
1055.9045	3265.0474	1020.05	138.3
1056.0041	3265.9404	1019.2	140.1
1056.1036	3266.8329	1013.95	134.15
1056.2031	3267.7247	1026.35	136.85
1056.3025	3268.616	1011.55	133.75
1056.4019	3269.5066	1009.65	130
1056.5013	3270.3966	1005.9	124.5
1056.6005	3271.286	998.75	119.05
