Software Version:	3.9.2.0
Unit SN:	10000200
Spectrometer SN:	6960
Date:	3/26/2024 1:00:32 PM
Data Line Index:	25
Spectral Points:	2048
Integration time (ms):	125
Averages:	20
Delay (ms):	30000
Sequence Number:	1
Processing:	dark subtract
Laser Power (mW):	305
Laser Current (mA):	817
Laser Diode Temp (C):	25.1
Laser Case Temp (C):	25.6
System Temp (C):	25.5
Spectrometer Temp (C):	23.4
CCD Temp (C):	0.013
Secondary Temp (C):	20.007
Heatsink Temp (C):	21.46
CCDPCB Temp (C):	35.696
SecondaryPCB Temp (C):	29.482

Wavelength	RamanShift	Raw Counts	Dark Subtracted
787.061	30.1047	420.85	9.15
787.2016	32.3739	420.9	8.4
787.3422	34.6426	423.15	11.55
787.4828	36.9109	426.4	10.8
787.6235	39.1787	431.5	13.1
787.7642	41.4461	433.6	11.15
787.9049	43.7131	440.5	14.85
788.0456	45.9796	444.1	15.6
788.1863	48.2456	449.2	16.3
788.3271	50.5112	454.7	16.7
788.4679	52.7764	457.45	19
788.6087	55.0411	460.1	18.55
788.7496	57.3054	466.5	20.15
788.8904	59.5692	471.35	23.3
789.0313	61.8326	476	24
789.1722	64.0955	484.65	29.25
789.3132	66.3579	489.25	28.6
789.4541	68.6199	497.1	35.65
789.5951	70.8815	508.05	42.65
789.7361	73.1426	527	59.3
789.8771	75.4032	573.2	99.55
790.0181	77.6634	666.05	188.6
790.1592	79.9231	888.55	406.8
790.3003	82.1824	1369.15	881.15
790.4414	84.4412	2162.9	1670.75
790.5825	86.6995	3220.85	2718.9
790.7237	88.9574	4268.25	3761
790.8648	91.2148	5026.8	4517.8
791.006	93.4717	5431.6	4921.05
791.1472	95.7282	5564.25	5048.05
791.2885	97.9842	5619.5	5099.45
791.4297	100.2398	5594.7	5072.5
791.571	102.4949	5588.75	5062.05
791.7123	104.7495	5544.45	5016.1
791.8536	107.0036	5507.85	4976.25
791.9949	109.2573	5462.25	4932.1
792.1363	111.5105	5420.4	4887.05
792.2777	113.7632	5358.8	4823.75
792.4191	116.0154	5297.8	4752.75
792.5605	118.2672	5232.55	4695.4
792.7019	120.5185	5158.35	4617.7
792.8434	122.7693	5092.9	4552.15
792.9849	125.0197	5025.8	4482.95
793.1264	127.2696	4955.1	4409.3
793.2679	129.519	4949.05	4399.8
793.4094	131.7679	4915.6	4363.35
793.551	134.0163	4913.5	4355.7
793.6926	136.2642	4891.95	4330.55
793.8342	138.5117	4885.25	4314
793.9758	140.7587	4867.85	4303.25
794.1175	143.0052	4845.05	4276.25
794.2591	145.2512	4811.15	4241.25
794.4008	147.4967	4770	4200.5
794.5425	149.7417	4730.7	4159.95
794.6842	151.9863	4690.85	4117.2
794.826	154.2304	4687.1	4108.05
794.9677	156.4739	4646.95	4063.9
795.1095	158.717	4661.2	4078.35
795.2513	160.9596	4679.45	4091.2
795.3931	163.2017	4689.9	4100.85
795.535	165.4433	4697.25	4104.55
795.6768	167.6844	4710.25	4116.3
795.8187	169.925	4702.85	4106.65
795.9606	172.1651	4629.3	4026.8
796.1025	174.4047	4591.15	3985.5
796.2445	176.6439	4566.55	3958.55
796.3864	178.8825	4535.35	3925.4
796.5284	181.1206	4530.6	3915.6
796.6704	183.3582	4512.9	3894.15
796.8124	185.5954	4510.9	3890.7
796.9544	187.832	4501.35	3880.75
797.0965	190.0681	4524.8	3903.6
797.2386	192.3037	4526.4	3899.7
797.3806	194.5388	4505.05	3873.3
797.5228	196.7734	4512.15	3876.7
797.6649	199.0075	4537.7	3899.5
797.807	201.2411	4573.4	3932.85
797.9492	203.4742	4573.65	3934.4
798.0914	205.7068	4582.35	3942.15
798.2336	207.9389	4592.55	3950.8
798.3758	210.1704	4611.6	3965.95
798.518	212.4015	4607.25	3957.45
798.6603	214.632	4600.4	3949.15
798.8025	216.862	4603.55	3962.8
798.9448	219.0915	4588.05	3953.7
799.0871	221.3205	4596.85	3966.15
799.2294	223.549	4599.95	3972.5
799.3718	225.777	4607.55	3978.1
799.5141	228.0044	4609.2	3978
799.6565	230.2314	4594.45	3966.6
799.7989	232.4578	4600.95	3970.65
799.9413	234.6837	4586.65	3948.85
800.0837	236.909	4571.3	3932.85
800.2262	239.1339	4580.7	3918.1
800.3687	241.3582	4568.4	3920.65
800.5111	243.582	4575.2	3894.4
800.6536	245.8053	4578.15	3910.5
800.7961	248.0281	4580.1	3916.35
800.9387	250.2503	4559.1	3891.15
801.0812	252.472	4572.5	3900.8
801.2238	254.6932	4577.35	3901.15
801.3664	256.9139	4569.95	3891.5
801.509	259.134	4594.4	3914.5
801.6516	261.3536	4607.9	3930.9
801.7942	263.5727	4613.85	3929.85
801.9369	265.7912	4638.4	3956.8
802.0795	268.0092	4679.35	3997.1
802.2222	270.2267	4711.5	4028.45
802.3649	272.4436	4765.6	4079
802.5076	274.6601	4785.4	4091.4
802.6504	276.8759	4785.9	4100.95
802.7931	279.0913	4812.3	4123.75
802.9359	281.3061	4825.75	4133.5
803.0787	283.5204	4842.4	4149.2
803.2215	285.7341	4847.9	4152.05
803.3643	287.9473	4888.4	4180.65
803.5071	290.16	4877.35	4173.75
803.6499	292.3721	4846.9	4148.9
803.7928	294.5837	4815.35	4113.65
803.9357	296.7947	4763.55	4063.85
804.0786	299.0052	4740	4039.45
804.2215	301.2152	4719.6	4014.8
804.3644	303.4246	4726.25	4025.8
804.5074	305.6334	4726.6	4028.45
804.6503	307.8418	4724	4021
804.7933	310.0495	4690.4	3986.5
804.9363	312.2568	4667.1	3963.9
805.0793	314.4635	4625.5	3917.75
805.2223	316.6696	4581.65	3875.7
805.3653	318.8752	4546.8	3830.95
805.5084	321.0802	4524.6	3814.4
805.6514	323.2847	4510.1	3798.4
805.7945	325.4887	4498.4	3785.55
805.9376	327.692	4512.45	3798.8
806.0807	329.8949	4533	3818.05
806.2238	332.0972	4583.3	3868.45
806.367	334.2989	4607.05	3888.25
806.5101	336.5001	4618.2	3898.7
806.6533	338.7007	4603.65	3882.2
806.7965	340.9008	4570.4	3846.9
806.9397	343.1003	4513.6	3789
807.0829	345.2992	4487.95	3761.5
807.2261	347.4976	4434.55	3704.2
807.3693	349.6955	4411.35	3680.75
807.5126	351.8927	4406.2	3672.55
807.6559	354.0895	4383.3	3639.6
807.7991	356.2856	4365.35	3632.95
807.9424	358.4812	4362	3628.7
808.0857	360.6763	4346.25	3612.75
808.2291	362.8707	4337.7	3602.1
808.3724	365.0646	4357.6	3618.1
808.5158	367.258	4358.35	3619.9
808.6591	369.4508	4371.1	3624.15
808.8025	371.643	4373.6	3629.05
808.9459	373.8346	4395.15	3650
809.0893	376.0257	4433.75	3683.7
809.2327	378.2162	4476.55	3725.5
809.3762	380.4062	4481.3	3729.35
809.5196	382.5956	4454.5	3697.25
809.6631	384.7844	4401.1	3646.9
809.8066	386.9726	4361.1	3604.8
809.9501	389.1603	4322.65	3567.3
810.0936	391.3474	4323.2	3527.8
810.2371	393.5339	4307.3	3552.8
810.3806	395.7199	4290.15	3541.4
810.5241	397.9052	4306.15	3561.65
810.6677	400.09	4339.55	3593.8
810.8113	402.2743	4362.8	3617.35
810.9548	404.4579	4377.6	3629.45
811.0984	406.641	4430.1	3682.7
811.2421	408.8235	4482.4	3733.8
811.3857	411.0054	4528.05	3777.6
811.5293	413.1868	4632.7	3881.35
811.673	415.3675	4745.45	3991.3
811.8166	417.5477	4769.7	4013.7
811.9603	419.7273	4702.7	3943.6
812.104	421.9064	4565.5	3797.3
812.2477	424.0848	4470.8	3705.45
812.3914	426.2627	4398.35	3632.8
812.5351	428.4399	4368.7	3601.75
812.6788	430.6166	4318.25	3548.6
812.8226	432.7928	4274.5	3503.75
812.9663	434.9683	4229.5	3458.7
813.1101	437.1432	4198.7	3425.3
813.2539	439.3176	4171.65	3398.75
813.3977	441.4914	4150.4	3376.2
813.5415	443.6645	4172.25	3394.85
813.6853	445.8371	4143.95	3369.4
813.8291	448.0091	4145.45	3370.9
813.973	450.1806	4138.55	3363.4
814.1168	452.3514	4126.9	3347.5
814.2607	454.5216	4127.65	3339.95
814.4046	456.6913	4102.6	3320.5
814.5485	458.8603	4112.15	3332.15
814.6924	461.0288	4114.75	3334.3
814.8363	463.1967	4119.75	3340.05
814.9802	465.3639	4111.85	3330.95
815.1241	467.5306	4092.5	3309.5
815.2681	469.6967	4088.9	3307.4
815.412	471.8622	4075	3289.95
815.556	474.0271	4081.2	3297.1
815.7	476.1914	4093.25	3306.65
815.844	478.3551	4084.1	3299.3
815.988	480.5182	4076.25	3288.7
816.132	482.6807	4104.3	3317.4
816.276	484.8426	4101.4	3314.25
816.4201	487.0039	4145.45	3357.65
816.5641	489.1647	4182.15	3393
816.7082	491.3248	4190.8	3401.6
816.8522	493.4843	4218.45	3430.35
816.9963	495.6432	4219.2	3429.1
817.1404	497.8015	4195.75	3402.15
817.2845	499.9592	4165.3	3374.2
817.4286	502.1163	4113.25	3319.55
817.5727	504.2728	4076.1	3280.65
817.7168	506.4287	4065.55	3274.85
817.861	508.5839	4045.85	3252.75
818.0051	510.7386	4036.8	3243.8
818.1493	512.8927	4051	3247.9
818.2935	515.0461	4050.2	3254.35
818.4377	517.199	4058.85	3263.8
818.5818	519.3512	4086.1	3289.3
818.726	521.5029	4136	3332.55
818.8703	523.6539	4184.6	3387
819.0145	525.8043	4218.95	3420.95
819.1587	527.9541	4178.7	3377.15
819.303	530.1033	4109.5	3306.05
819.4472	532.2519	4064.4	3263.85
819.5915	534.3999	4043.3	3238.95
819.7357	536.5472	4050.95	3247.15
819.88	538.694	4054.65	3252.7
820.0243	540.8401	4050	3246
820.1686	542.9856	4074.85	3270.4
820.3129	545.1305	4086.9	3280.3
820.4572	547.2748	4092.3	3287.75
820.6016	549.4185	4116.65	3308.9
820.7459	551.5615	4111	3304.3
820.8902	553.704	4111.75	3304.15
821.0346	555.8458	4119.85	3312.75
821.1789	557.987	4152.55	3345.85
821.3233	560.1276	4157.6	3347.15
821.4677	562.2675	4213.35	3407.25
821.6121	564.4069	4273.85	3467.2
821.7565	566.5456	4312.15	3503.35
821.9009	568.6837	4291.3	3481.1
822.0453	570.8212	4234.2	3423.4
822.1897	572.958	4169.9	3357.55
822.3342	575.0942	4135.4	3327.35
822.4786	577.2299	4113.25	3300.55
822.6231	579.3648	4072.9	3262.25
822.7675	581.4992	4030.8	3219
822.912	583.6329	4015.35	3203.65
823.0565	585.766	4044.7	3233.85
823.201	587.8985	4067.5	3255.45
823.3454	590.0304	4097	3269.4
823.4899	592.1616	4134.95	3318.35
823.6345	594.2922	4135.55	3321
823.779	596.4222	4109.7	3293.7
823.9235	598.5515	4066.3	3249.4
824.068	600.6802	4019.7	3201.75
824.2126	602.8083	3962.85	3144.85
824.3571	604.9358	3954.35	3135.15
824.5017	607.0626	3943.15	3124.55
824.6462	609.1888	3939.4	3116.65
824.7908	611.3144	3966	3145.2
824.9354	613.4393	3979.45	3156.95
825.08	615.5636	4025.5	3204.05
825.2246	617.6873	4076.3	3255.85
825.3692	619.8103	4095.7	3273.35
825.5138	621.9327	4093.25	3269.15
825.6584	624.0544	4096.4	3275
825.803	626.1756	4039.5	3218
825.9477	628.2961	3987.9	3164.7
826.0923	630.4159	3963.05	3140.95
826.237	632.5351	3971.55	3147.15
826.3816	634.6537	3951.05	3126.5
826.5263	636.7716	3950.8	3125.1
826.6709	638.8889	3933.6	3107.65
826.8156	641.0056	3952.4	3125.9
826.9603	643.1216	3962.3	3134.95
827.105	645.237	3976.5	3146.6
827.2497	647.3518	3947.55	3119.2
827.3944	649.4659	3935.6	3108.6
827.5391	651.5793	3906.2	3074.25
827.6838	653.6922	3899.85	3073
827.8285	655.8043	3892.65	3065.55
827.9733	657.9159	3860.6	3029.8
828.118	660.0268	3846.1	3012.55
828.2627	662.137	3853.6	3022.1
828.4075	664.2466	3856.15	3022.75
828.5522	666.3556	3865.85	3035.8
828.697	668.4639	3845.4	3010.6
828.8418	670.5716	3841.95	3009.8
828.9865	672.6786	3855.5	3021.7
829.1313	674.785	3827.9	2993.6
829.2761	676.8907	3820.4	2987.5
829.4209	678.9958	3838.75	3006.4
829.5657	681.1002	3817.95	2985.85
829.7105	683.204	3831.25	2993.9
829.8553	685.3072	3816.65	2981
830.0001	687.4097	3806.95	2973.5
830.1449	689.5115	3802.05	2965.3
830.2898	691.6127	3808.75	2973.6
830.4346	693.7132	3804.95	2968.85
830.5794	695.8131	3824.6	2973.95
830.7243	697.9123	3806.9	2970.3
830.8691	700.0109	3809.8	2970.9
831.014	702.1089	3803.5	2968.95
831.1588	704.2061	3818.35	2980.8
831.3037	706.3028	3838.8	2998.95
831.4486	708.3987	3858.9	3019.45
831.5935	710.4941	3877.15	3040.8
831.7383	712.5887	3870.1	3029.55
831.8832	714.6827	3886.8	3043.3
832.0281	716.7761	3854.45	3013.9
832.173	718.8688	3866.5	3026.05
832.3179	720.9608	3854.25	3010.65
832.4628	723.0522	3879.75	3037.85
832.6077	725.1429	3871.05	3030.15
832.7527	727.233	3888.15	3044.1
832.8976	729.3224	3949.1	3107.6
833.0425	731.4112	4008	3164.95
833.1874	733.4993	3998.5	3154.25
833.3324	735.5867	3980.2	3135.7
833.4773	737.6735	3921.7	3076.9
833.6222	739.7596	3876.45	3032.25
833.7672	741.845	3850.8	3006.8
833.9122	743.9298	3848.4	3001.65
834.0571	746.014	3865.7	3021.7
834.2021	748.0974	3878.3	3031.3
834.347	750.1802	3879.65	3033.95
834.492	752.2624	3880.75	3035.3
834.637	754.3439	3840.05	2989.95
834.782	756.4247	3841.35	2985
834.9269	758.5048	3812.65	2965
835.0719	760.5843	3804.95	2958.25
835.2169	762.6631	3809.35	2962.65
835.3619	764.7413	3830.65	2986.1
835.5069	766.8188	3895.4	3045.6
835.6519	768.8956	3948.05	3099.55
835.7969	770.9718	4003.3	3156
835.9419	773.0473	3986.3	3138.75
836.0869	775.1221	3962.15	3115.5
836.232	777.1962	3928	3078.1
836.377	779.2697	3963.25	3111.5
836.522	781.3426	4071.15	3205.5
836.667	783.4147	4120.75	3268.25
836.8121	785.4862	4117.45	3267.7
836.9571	787.557	4061.85	3211.6
837.1021	789.6271	3956.95	3106.25
837.2472	791.6966	3855.2	3005.9
837.3922	793.7654	3744.65	2891.25
837.5373	795.8335	3694.65	2842.9
837.6823	797.901	3660.5	2808.6
837.8274	799.9678	3650.85	2796
837.9724	802.0339	3653	2801.45
838.1175	804.0993	3648.25	2786.15
838.2626	806.1641	3621.75	2769.45
838.4076	808.2282	3641.1	2789.45
838.5527	810.2916	3617.65	2762.25
838.6978	812.3544	3603.55	2750.55
838.8428	814.4164	3581.2	2729.25
838.9879	816.4778	3594.05	2739.75
839.133	818.5385	3576.75	2724.15
839.2781	820.5986	3602.15	2749.75
839.4232	822.658	3647.7	2792.65
839.5682	824.7166	3692.85	2839.9
839.7133	826.7747	3764.4	2909.3
839.8584	828.832	3812.6	2959.05
840.0035	830.8886	3854.1	2997.1
840.1486	832.9446	3887.2	3030.55
840.2937	834.9999	3851.75	2999
840.4388	837.0545	3812.95	2953.5
840.5839	839.1085	3729.1	2874
840.729	841.1618	3671.1	2811.6
840.8741	843.2143	3623.9	2770.55
841.0192	845.2662	3584.1	2729.3
841.1643	847.3175	3559.6	2704.45
841.3095	849.368	3552.7	2697.05
841.4546	851.4179	3536.35	2681.2
841.5997	853.467	3532.75	2675.2
841.7448	855.5155	3530.8	2671.25
841.8899	857.5633	3541.95	2683.6
842.0351	859.6105	3527.6	2669.5
842.1802	861.6569	3517.5	2660.65
842.3253	863.7027	3491.8	2634.5
842.4704	865.7478	3496.7	2637.45
842.6156	867.7922	3491.2	2633.55
842.7607	869.8359	3458.1	2599.2
842.9058	871.8789	3458.1	2599.55
843.0509	873.9212	3478.4	2588.2
843.1961	875.9629	3454.15	2596.9
843.3412	878.0039	3450.15	2589.85
843.4863	880.0441	3464.55	2605.8
843.6315	882.0837	3479	2619.05
843.7766	884.1226	3495.3	2632.5
843.9218	886.1609	3520.6	2660.75
844.0669	888.1984	3542.7	2682.2
844.212	890.2352	3595.7	2736
844.3572	892.2714	3602.55	2741
844.5023	894.3069	3589.6	2727.6
844.6475	896.3416	3523.4	2662.4
844.7926	898.3757	3494.15	2631.8
844.9377	900.4091	3449.95	2588.4
845.0829	902.4418	3459.6	2594.65
845.228	904.4739	3478.15	2613.75
845.3732	906.5052	3490.6	2629.8
845.5183	908.5358	3488.65	2628.05
845.6635	910.5658	3478.65	2614.25
845.8086	912.595	3426.55	2563.9
845.9538	914.6236	3409.4	2545.95
846.0989	916.6515	3363.2	2502
846.2441	918.6786	3344.55	2481.25
846.3892	920.7051	3347.7	2482.85
846.5344	922.7309	3339.65	2475.85
846.6795	924.756	3322.05	2457
846.8246	926.7804	3341.3	2475.35
846.9698	928.8041	3341	2474.3
847.1149	930.8272	3343.25	2477.45
847.2601	932.8495	3343.8	2478.9
847.4052	934.8711	3341.15	2474
847.5504	936.892	3336.1	2470.45
847.6955	938.9123	3361.4	2493.85
847.8407	940.9318	3375.3	2508.4
847.9858	942.9506	3375.25	2510.85
848.131	944.9688	3376.75	2513.45
848.2761	946.9862	3347.05	2480.35
848.4213	949.003	3328.85	2461.6
848.5664	951.019	3282.2	2416.3
848.7115	953.0344	3265.9	2401.05
848.8567	955.0491	3253.55	2387.55
849.0018	957.063	3231.75	2365.3
849.147	959.0763	3242.1	2369.55
849.2921	961.0888	3228.05	2358.1
849.4373	963.1007	3217.3	2350.3
849.5824	965.1119	3201.3	2334.55
849.7275	967.1223	3204.7	2339.5
849.8727	969.1321	3194.6	2328.75
850.0178	971.1412	3180.9	2315.25
850.1629	973.1495	3174	2306.75
850.3081	975.1572	3203.4	2288.8
850.4532	977.1641	3179	2309.45
850.5983	979.1704	3171.05	2302.2
850.7435	981.1759	3160.35	2288.75
850.8886	983.1808	3152.95	2282.35
851.0337	985.1849	3142.95	2264.55
851.1788	987.1884	3136.95	2265.35
851.324	989.1911	3130.55	2257.85
851.4691	991.1932	3133.35	2261.35
851.6142	993.1945	3113.45	2246
851.7593	995.1951	3115.1	2244.95
851.9045	997.1951	3109.35	2236.45
852.0496	999.1943	3095.25	2226.05
852.1947	1001.1928	3095.85	2223.85
852.3398	1003.1906	3081.7	2212.35
852.4849	1005.1877	3105.35	2233.6
852.63	1007.1841	3116.75	2246.7
852.7751	1009.1798	3121.15	2252.95
852.9202	1011.1748	3100.4	2228.15
853.0653	1013.1691	3078.1	2206.15
853.2104	1015.1627	3052.4	2183.5
853.3555	1017.1556	3024.7	2154.45
853.5006	1019.1477	3000.05	2131.35
853.6457	1021.1392	2974.2	2104.4
853.7908	1023.1299	2958.1	2086
853.9359	1025.12	2948.5	2075.95
854.081	1027.1093	2946.75	2077.65
854.2261	1029.0979	2967.55	2098.95
854.3712	1031.0859	2974.4	2107.1
854.5163	1033.0731	2979.6	2106.2
854.6613	1035.0596	2971.6	2100.65
854.8064	1037.0454	2962.55	2091.8
854.9515	1039.0304	2952.55	2083.05
855.0965	1041.0148	2927.6	2056.55
855.2416	1042.9985	2904.3	2031.55
855.3867	1044.9814	2879.1	2007.3
855.5317	1046.9636	2864.75	1989.9
855.6768	1048.9452	2876.45	2006.5
855.8219	1050.926	2887.75	2015.55
855.9669	1052.9061	2902.3	2031.65
856.112	1054.8855	2894.5	2022.35
856.257	1056.8642	2887.2	2013.85
856.4021	1058.8421	2899.2	2020.75
856.5471	1060.8194	2874.5	1999.9
856.6921	1062.7959	2864.05	1990.2
856.8372	1064.7717	2861.8	1986.55
856.9822	1066.7469	2854.1	1978.5
857.1272	1068.7213	2843.15	1968.3
857.2723	1070.695	2853.55	1978.35
857.4173	1072.6679	2873.55	1999.75
857.5623	1074.6402	2887.1	2013.25
857.7073	1076.6117	2902.15	2024.4
857.8523	1078.5826	2880.25	2008.8
857.9973	1080.5527	2845.4	1968.9
858.1423	1082.5221	2817.25	1943.5
858.2873	1084.4908	2786.7	1912.85
858.4323	1086.4587	2771.9	1898.2
858.5773	1088.426	2758.65	1884
858.7223	1090.3925	2741.95	1861.1
858.8673	1092.3584	2751.55	1876.5
859.0123	1094.3235	2743.35	1869.2
859.1573	1096.2879	2751.05	1875.9
859.3022	1098.2515	2776.55	1902.55
859.4472	1100.2145	2789.4	1913.7
859.5922	1102.1767	2798.45	1921.95
859.7371	1104.1382	2823.8	1945.9
859.8821	1106.099	2870.75	1993.15
860.027	1108.0591	2897.1	2023.65
860.172	1110.0185	2941.15	2065.65
860.3169	1111.9771	2951.35	2077.2
860.4619	1113.9351	2989.3	2115.3
860.6068	1115.8923	3043	2169.45
860.7517	1117.8488	3091.5	2212.3
860.8967	1119.8045	3066.8	2191.5
861.0416	1121.7596	2981.15	2103.05
861.1865	1123.7139	2877.25	2001.8
861.3314	1125.6675	2806.85	1930.95
861.4763	1127.6204	2800.4	1926.3
861.6212	1129.5726	2818.25	1940.1
861.7661	1131.524	2831.7	1954.35
861.911	1133.4748	2785.65	1910.4
862.0559	1135.4248	2735.15	1857.2
862.2008	1137.3741	2691.8	1815.25
862.3457	1139.3226	2666.3	1788.6
862.4905	1141.2705	2646.8	1771.35
862.6354	1143.2176	2639.95	1757.9
862.7803	1145.164	2665.4	1787.55
862.9251	1147.1097	2664.1	1786.1
863.07	1149.0546	2634.45	1756.05
863.2148	1150.9989	2630.1	1752.2
863.3597	1152.9424	2601	1723.25
863.5045	1154.8852	2579.9	1703.1
863.6493	1156.8272	2573.4	1698.05
863.7942	1158.7686	2577.8	1692.35
863.939	1160.7092	2551.5	1673.55
864.0838	1162.6491	2560.7	1684.05
864.2286	1164.5883	2571.1	1694.65
864.3734	1166.5267	2577.3	1697.25
864.5182	1168.4644	2586.75	1705.95
864.663	1170.4014	2605.25	1722
864.8078	1172.3377	2627	1751.5
864.9526	1174.2732	2664.15	1786.5
865.0974	1176.2081	2740	1861.5
865.2421	1178.1421	2830	1949.6
865.3869	1180.0755	2929.85	2052.75
865.5317	1182.0082	2999.55	2122.75
865.6764	1183.9401	3013.65	2134.25
865.8212	1185.8713	2940.45	2064.7
865.9659	1187.8017	2827.45	1950.9
866.1106	1189.7315	2716.15	1841.45
866.2554	1191.6605	2632.7	1754
866.4001	1193.5888	2588.4	1710.9
866.5448	1195.5163	2560.95	1685.75
866.6895	1197.4432	2530.5	1651.1
866.8342	1199.3693	2517.3	1640.1
866.9789	1201.2947	2504.7	1618.35
867.1236	1203.2193	2494.55	1617.2
867.2683	1205.1432	2485.5	1606.25
867.413	1207.0664	2476.2	1596.9
867.5576	1208.9889	2477.95	1596.1
867.7023	1210.9106	2462.95	1584.3
867.847	1212.8316	2455.25	1576.9
867.9916	1214.7519	2464.05	1576.25
868.1363	1216.6715	2471.3	1594.6
868.2809	1218.5903	2479.05	1599
868.4255	1220.5084	2483.2	1604.1
868.5701	1222.4257	2478.7	1598.55
868.7148	1224.3424	2497.05	1619.5
868.8594	1226.2583	2505.6	1620.65
869.004	1228.1735	2523.35	1642.55
869.1486	1230.0879	2541.35	1660.8
869.2932	1232.0016	2568.1	1690.6
869.4377	1233.9146	2602.65	1719.25
869.5823	1235.8269	2605	1725.05
869.7269	1237.7384	2603.25	1722.15
869.8715	1239.6492	2595.15	1715.65
870.016	1241.5592	2606.05	1724.8
870.1606	1243.4686	2637.9	1758.8
870.3051	1245.3772	2681.95	1803.25
870.4496	1247.285	2738.1	1859.2
870.5941	1249.1922	2817.4	1938.1
870.7387	1251.0986	2874.35	1995.2
870.8832	1253.0042	2920.7	2039.6
871.0277	1254.9092	2997.7	2117.45
871.1722	1256.8134	3051.1	2171.4
871.3167	1258.7169	3144.75	2263.25
871.4611	1260.6196	3212.75	2332.95
871.6056	1262.5216	3253	2371.85
871.7501	1264.4229	3260.85	2380.45
871.8945	1266.3234	3237.15	2356.15
872.039	1268.2232	3182.2	2301.65
872.1834	1270.1223	3133.7	2252.7
872.3278	1272.0207	3084.75	2202.6
872.4723	1273.9183	3065.4	2178.85
872.6167	1275.8151	3046.35	2164.15
872.7611	1277.7113	3075.35	2193.05
872.9055	1279.6067	3125.5	2243.7
873.0499	1281.5014	3244.6	2361.9
873.1943	1283.3953	3388.55	2506.75
873.3386	1285.2885	3571.9	2691.7
873.483	1287.181	3725.95	2842.55
873.6274	1289.0727	3813.15	2934.7
873.7717	1290.9637	3774.1	2892.45
873.9161	1292.854	3659.7	2776.65
874.0604	1294.7435	3523.3	2642.1
874.2047	1296.6323	3400.55	2518.35
874.349	1298.5204	3286.85	2402.6
874.4933	1300.4077	3205.05	2323.35
874.6376	1302.2943	3167.35	2285.5
874.7819	1304.1802	3117.95	2236.95
874.9262	1306.0653	3091.85	2207.1
875.0705	1307.9497	3062.7	2180.45
875.2147	1309.8333	3034.25	2153.3
875.359	1311.7162	3016.25	2134.1
875.5032	1313.5984	2997.85	2113.65
875.6475	1315.4798	2985.6	2088.25
875.7917	1317.3605	2989.1	2100.75
875.9359	1319.2405	3010.85	2127.25
876.0801	1321.1197	3004.05	2119.55
876.2243	1322.9982	2983.4	2097.45
876.3685	1324.876	2939.35	2056.75
876.5127	1326.753	2869.05	1986.8
876.6569	1328.6293	2786.35	1902.5
876.801	1330.5048	2684.05	1798.7
876.9452	1332.3796	2621.7	1740.3
877.0893	1334.2537	2583.1	1677.15
877.2335	1336.127	2512.1	1628.75
877.3776	1337.9996	2482.95	1599.5
877.5217	1339.8714	2461.65	1579.1
877.6658	1341.7426	2486.2	1560.6
877.8099	1343.6129	2423.8	1539.85
877.954	1345.4826	2400.75	1517.5
878.0981	1347.3515	2392.9	1506.85
878.2422	1349.2196	2375.9	1491.85
878.3862	1351.087	2370.4	1487.3
878.5303	1352.9537	2355.85	1472.45
878.6743	1354.8197	2364.55	1483.55
878.8184	1356.6849	2371.55	1488.1
878.9624	1358.5493	2365.7	1482.2
879.1064	1360.4131	2398.4	1518.8
879.2504	1362.276	2424.3	1541.85
879.3944	1364.1383	2451.7	1570.05
879.5384	1365.9998	2463.3	1571.95
879.6823	1367.8606	2461.2	1576.8
879.8263	1369.7206	2445.1	1563.05
879.9702	1371.5799	2455.65	1569.2
880.1142	1373.4384	2430.1	1547.35
880.2581	1375.2962	2426.8	1544.15
880.402	1377.1533	2371.95	1489
880.5459	1379.0096	2327.25	1442.2
880.6898	1380.8652	2306.1	1422.9
880.8337	1382.7201	2266.45	1381.85
880.9776	1384.5742	2245.3	1362.8
881.1215	1386.4275	2220	1334.5
881.2653	1388.2802	2197.85	1315.8
881.4092	1390.132	2191.25	1309
881.553	1391.9832	2190.05	1304.7
881.6968	1393.8336	2172.7	1290.95
881.8406	1395.6832	2173.5	1287.1
881.9844	1397.5322	2160.75	1276.6
882.1282	1399.3803	2149.75	1260
882.272	1401.2278	2135.4	1251.5
882.4158	1403.0745	2128	1243.75
882.5595	1404.9204	2109.8	1227.75
882.7033	1406.7656	2100.7	1218.1
882.847	1408.6101	2104.75	1221.3
882.9908	1410.4538	2094.45	1210.1
883.1345	1412.2968	2100.95	1217.9
883.2782	1414.139	2087.45	1202.4
883.4219	1415.9805	2094.2	1209.6
883.5656	1417.8213	2110.9	1208.05
883.7092	1419.6613	2106	1221.7
883.8529	1421.5006	2119.8	1237.45
883.9965	1423.3391	2163.6	1278.45
884.1402	1425.1769	2198.9	1314.55
884.2838	1427.0139	2254.75	1371.35
884.4274	1428.8502	2320.4	1435.35
884.571	1430.6858	2383.1	1498.8
884.7146	1432.5206	2395.65	1510.35
884.8582	1434.3547	2396.85	1512.05
885.0018	1436.188	2389.5	1504.2
885.1453	1438.0206	2369.75	1485.7
885.2889	1439.8524	2352	1467.65
885.4324	1441.6835	2351.9	1466.65
885.5759	1443.5139	2361.9	1473.35
885.7194	1445.3435	2357.5	1473.05
885.8629	1447.1724	2365.45	1481.2
886.0064	1449.0005	2353.9	1470.5
886.1499	1450.8279	2352.7	1466.3
886.2933	1452.6545	2347	1464.35
886.4368	1454.4804	2333.85	1452.15
886.5802	1456.3056	2323.1	1430.55
886.7237	1458.13	2314.45	1432.4
886.8671	1459.9536	2301.1	1417
887.0105	1461.7766	2265.25	1380.85
887.1539	1463.5987	2229.4	1345.3
887.2972	1465.4202	2201.15	1316.95
887.4406	1467.2409	2163.1	1277.2
887.584	1469.0608	2127.55	1242.55
887.7273	1470.88	2099.65	1213.9
887.8706	1472.6984	2079.35	1195.85
888.0139	1474.5161	2065	1177.25
888.1572	1476.3331	2036.25	1153.6
888.3005	1478.1493	2025.5	1141.5
888.4438	1479.9648	2027.1	1141.4
888.5871	1481.7795	2020.75	1137.05
888.7303	1483.5935	2026.05	1140.25
888.8736	1485.4067	2022.3	1137.45
889.0168	1487.2192	2031.6	1147.2
889.16	1489.031	2021.6	1135
889.3032	1490.842	2009.15	1126
889.4464	1492.6522	2026.55	1141.75
889.5896	1494.4618	2022.55	1135.65
889.7327	1496.2705	2006.4	1121.75
889.8759	1498.0785	2009	1122.5
890.019	1499.8858	1996.95	1112.15
890.1622	1501.6924	1993.2	1107.45
890.3053	1503.4981	1982.95	1099.8
890.4484	1505.3032	1982.25	1096.45
890.5914	1507.1075	1979	1093.15
890.7345	1508.911	1963.95	1077.55
890.8776	1510.7138	1957	1070.25
891.0206	1512.5159	1967.55	1081.7
891.1637	1514.3172	1945.8	1061.9
891.3067	1516.1178	1939.65	1057.35
891.4497	1517.9176	1935.7	1048.6
891.5927	1519.7166	1935.55	1052.05
891.7357	1521.515	1936.25	1044.75
891.8786	1523.3126	1915.3	1030.05
892.0216	1525.1094	1912.7	1025.65
892.1645	1526.9055	1898.65	1013.45
892.3074	1528.7008	1889.5	1005.35
892.4503	1530.4954	1887.05	1000.55
892.5932	1532.2893	1895.65	1016.15
892.7361	1534.0824	1873.15	983.4
892.879	1535.8747	1878.85	993.45
893.0218	1537.6663	1871	987.5
893.1647	1539.4572	1867.9	980.4
893.3075	1541.2473	1875.75	991.45
893.4503	1543.0367	1868.3	985.1
893.5931	1544.8253	1869.85	979.4
893.7359	1546.6132	1865.25	977
893.8787	1548.4003	1857	962.05
894.0214	1550.1867	1884.45	992.5
894.1642	1551.9723	1877.85	986.8
894.3069	1553.7572	1887.85	1002.3
894.4496	1555.5414	1896.2	1011.3
894.5923	1557.3247	1923.55	1038.3
894.735	1559.1074	1947.2	1064.2
894.8777	1560.8893	1973.95	1092.65
895.0204	1562.6705	2007.55	1122.9
895.163	1564.4509	2042	1154.55
895.3056	1566.2305	2047.55	1163.1
895.4482	1568.0094	2051.5	1166.85
895.5908	1569.7876	2042.95	1157.8
895.7334	1571.565	2043.45	1157.75
895.876	1573.3417	2041.25	1157.65
896.0186	1575.1176	2055.45	1172.65
896.1611	1576.8928	2058.6	1175.5
896.3036	1578.6672	2065.65	1182.55
896.4461	1580.4409	2096.25	1212.05
896.5886	1582.2138	2119	1232.1
896.7311	1583.986	2168	1281.35
896.8736	1585.7575	2200.15	1318.1
897.0161	1587.5282	2223.7	1339.6
897.1585	1589.2981	2244.65	1362.2
897.3009	1591.0673	2264.05	1378.4
897.4433	1592.8358	2267.6	1382.5
897.5857	1594.6035	2259.95	1373.2
897.7281	1596.3704	2263.3	1378.2
897.8705	1598.1366	2230.4	1346.5
898.0128	1599.9021	2203.6	1319.5
898.1551	1601.6668	2168.15	1281.55
898.2975	1603.4308	2138.4	1252.1
898.4398	1605.194	2155.85	1266.9
898.5821	1606.9564	2164.35	1280.8
898.7243	1608.7182	2203.15	1315.65
898.8666	1610.4791	2271.3	1386.1
899.0088	1612.2394	2366.65	1483.1
899.1511	1613.9988	2461.45	1575.8
899.2933	1615.7576	2566.3	1679.95
899.4355	1617.5156	2607.7	1715.1
899.5776	1619.2728	2604.2	1718.4
899.7198	1621.0293	2530.1	1647.4
899.862	1622.785	2432.8	1547.55
900.0041	1624.54	2303.45	1418.95
900.1462	1626.2942	2190.25	1304.45
900.2883	1628.0477	2082.55	1194.65
900.4304	1629.8005	2013.55	1125.35
900.5725	1631.5525	1931.95	1045.15
900.7145	1633.3037	1883.15	999
900.8566	1635.0542	1841.85	957.1
900.9986	1636.804	1818.75	934.15
901.1406	1638.553	1825.25	891.7
901.2826	1640.3013	1772.85	889.35
901.4245	1642.0488	1745.25	859.8
901.5665	1643.7955	1728.05	844.15
901.7085	1645.5416	1723.7	837.2
901.8504	1647.2868	1712.5	827.9
901.9923	1649.0313	1690.55	805.9
902.1342	1650.7751	1693.3	803.05
902.2761	1652.5181	1687.65	803.45
902.4179	1654.2604	1686.15	800.4
902.5598	1656.0019	1686.75	801.95
902.7016	1657.7427	1692.8	809.15
902.8434	1659.4828	1707	821
902.9852	1661.222	1739.8	854.3
903.127	1662.9606	1760.35	875.6
903.2687	1664.6984	1793.55	907.3
903.4105	1666.4354	1813.7	926.35
903.5522	1668.1717	1804.9	918.8
903.6939	1669.9072	1777.2	892.35
903.8356	1671.642	1738.4	849.35
903.9773	1673.3761	1697.4	813.9
904.119	1675.1094	1656.55	772.45
904.2606	1676.8419	1645.25	760.9
904.4022	1678.5737	1615.15	729.95
904.5439	1680.3048	1607.2	720.65
904.6855	1682.0351	1593.55	707.25
904.827	1683.7646	1593.35	707.25
904.9686	1685.4934	1582	696.5
905.1101	1687.2215	1581.45	697.65
905.2517	1688.9488	1561.85	675.65
905.3932	1690.6754	1562.15	678.5
905.5347	1692.4012	1567.2	682.7
905.6761	1694.1263	1556.4	671.45
905.8176	1695.8506	1561.05	677.75
905.9591	1697.5742	1553.9	669.6
906.1005	1699.297	1541	655
906.2419	1701.0191	1540.15	654.5
906.3833	1702.7404	1537.2	652.4
906.5246	1704.461	1532.8	645.75
906.666	1706.1808	1537.85	650.55
906.8073	1707.8999	1529.3	641.5
906.9487	1709.6182	1527.45	641.65
907.09	1711.3358	1523.9	637.3
907.2313	1713.0527	1514.35	632.7
907.3725	1714.7688	1520.7	629.7
907.5138	1716.4841	1512.25	623.75
907.655	1718.1987	1522.95	633.7
907.7962	1719.9126	1507.7	624
907.9374	1721.6257	1510.25	621.9
908.0786	1723.338	1510.25	625.05
908.2198	1725.0496	1495.15	607.95
908.3609	1726.7605	1498.05	613.15
908.502	1728.4706	1500.4	614.45
908.6431	1730.18	1492.8	606.2
908.7842	1731.8886	1494.45	610.3
908.9253	1733.5964	1500.6	608.85
909.0664	1735.3036	1491.45	606.8
909.2074	1737.0099	1486.1	601.95
909.3484	1738.7156	1484.35	600.05
909.4894	1740.4204	1485.05	598.25
909.6304	1742.1246	1490.85	604.85
909.7714	1743.8279	1481.15	597.7
909.9123	1745.5306	1487.6	601.6
910.0532	1747.2325	1479.6	594.85
910.1941	1748.9336	1479.2	595.4
910.335	1750.634	1469.85	582.75
910.4759	1752.3336	1463.4	579.5
910.6168	1754.0325	1468.95	585.75
910.7576	1755.7307	1469.95	585
910.8984	1757.4281	1474.1	586.75
911.0392	1759.1247	1480.1	583.65
911.18	1760.8206	1480.1	590.85
911.3208	1762.5158	1474.5	585.25
911.4615	1764.2102	1462.75	578.9
911.6022	1765.9039	1467.7	583.55
911.7429	1767.5968	1464.65	580.9
911.8836	1769.289	1461.25	575.85
912.0243	1770.9804	1456.25	569.35
912.1649	1772.6711	1457.7	572.8
912.3056	1774.361	1455.45	570.9
912.4462	1776.0502	1451.85	564.5
912.5868	1777.7386	1455.9	566.35
912.7274	1779.4263	1455.55	570.25
912.8679	1781.1132	1449.35	561.7
913.0084	1782.7994	1447.15	560.8
913.149	1784.4849	1441.85	555.9
913.2895	1786.1696	1457.1	566.3
913.4299	1787.8535	1440.35	554
913.5704	1789.5367	1438.75	554.25
913.7108	1791.2192	1442.95	557.95
913.8513	1792.9009	1461.3	548.85
913.9917	1794.5818	1449	560.5
914.132	1796.2621	1436.5	551.3
914.2724	1797.9415	1440.2	555.65
914.4128	1799.6202	1432.85	547.8
914.5531	1801.2982	1431.1	546.3
914.6934	1802.9755	1430.35	542.35
914.8337	1804.6519	1428.9	543.25
914.9739	1806.3277	1430.85	546.15
915.1142	1808.0027	1421.4	537.45
915.2544	1809.6769	1425.5	540.7
915.3946	1811.3504	1428.15	540.4
915.5348	1813.0231	1424.35	539.25
915.675	1814.6951	1419.6	534.8
915.8151	1816.3664	1421.2	533.55
915.9553	1818.0369	1421	535.6
916.0954	1819.7067	1411.35	526
916.2355	1821.3757	1421.95	538.1
916.3755	1823.044	1417	532.65
916.5156	1824.7115	1412.1	525.65
916.6556	1826.3783	1407.4	524.45
916.7956	1828.0443	1398.75	513.75
916.9356	1829.7096	1404.15	518.2
917.0756	1831.3741	1415.75	526.25
917.2155	1833.0379	1403.9	519.45
917.3555	1834.701	1401.85	514.85
917.4954	1836.3633	1399.45	514.2
917.6353	1838.0248	1395.55	508.9
917.7751	1839.6856	1403.7	517
917.915	1841.3457	1401.85	518.75
918.0548	1843.005	1402.25	517.55
918.1946	1844.6636	1402.7	517.5
918.3344	1846.3214	1387.9	504.6
918.4742	1847.9785	1395.5	509.45
918.6139	1849.6349	1388.85	502.1
918.7537	1851.2904	1397.05	502.7
918.8934	1852.9453	1393.35	507.25
919.0331	1854.5994	1396.75	508.3
919.1727	1856.2528	1391.8	500.85
919.3124	1857.9054	1386.7	501.3
919.452	1859.5572	1390.15	507.75
919.5916	1861.2083	1391.8	505.65
919.7312	1862.8587	1388.75	505
919.8708	1864.5084	1392.65	506.75
920.0103	1866.1572	1379.55	496.35
920.1498	1867.8054	1380.9	493.95
920.2893	1869.4528	1376.75	489.5
920.4288	1871.0994	1379.4	493.75
920.5683	1872.7453	1377.1	489.9
920.7077	1874.3905	1385.9	494
920.8471	1876.0349	1378.75	492.3
920.9865	1877.6786	1376.5	491.85
921.1259	1879.3215	1376.95	493.1
921.2653	1880.9637	1372.35	484.2
921.4046	1882.6051	1373.6	489.1
921.5439	1884.2458	1372.75	486.6
921.6832	1885.8858	1363.2	476.15
921.8225	1887.525	1371.85	483.8
921.9617	1889.1634	1365.9	479.35
922.101	1890.8011	1367.65	481.45
922.2402	1892.4381	1368.7	483.4
922.3794	1894.0743	1359.4	473
922.5185	1895.7098	1355.75	470.25
922.6577	1897.3446	1360.65	475.15
922.7968	1898.9786	1364.15	473.9
922.9359	1900.6118	1363.55	479.2
923.075	1902.2443	1358.55	475.2
923.214	1903.8761	1348.55	461.75
923.3531	1905.5071	1353.9	466.35
923.4921	1907.1374	1351.7	463.9
923.6311	1908.7669	1349.15	463.2
923.77	1910.3957	1354.95	469.65
923.909	1912.0237	1345.6	458.5
924.0479	1913.651	1354.7	468.6
924.1868	1915.2776	1341.55	458.5
924.3257	1916.9034	1339.3	454.5
924.4646	1918.5285	1340.25	456.1
924.6034	1920.1528	1341.85	456.5
924.7422	1921.7764	1343.8	460.15
924.881	1923.3992	1337.7	453.35
925.0198	1925.0213	1339.2	453.6
925.1586	1926.6427	1330.6	446.9
925.2973	1928.2633	1394.45	440.15
925.436	1929.8832	1335.95	448.85
925.5747	1931.5023	1329.1	443.2
925.7134	1933.1207	1331.35	445
925.852	1934.7383	1329.45	443.2
925.9906	1936.3552	1325.9	443.25
926.1292	1937.9714	1327.2	441.15
926.2678	1939.5868	1325.1	437.8
926.4064	1941.2015	1321.6	435.1
926.5449	1942.8154	1318.05	432.15
926.6834	1944.4286	1314.5	427.3
926.8219	1946.041	1341.3	435.1
926.9604	1947.6528	1325.95	434.4
927.0988	1949.2637	1316.9	432.6
927.2372	1950.8739	1311.3	425.25
927.3756	1952.4834	1314.1	429
927.514	1954.0921	1309	422.75
927.6523	1955.7001	1310.3	420.1
927.7907	1957.3074	1304.65	419.8
927.929	1958.9139	1308.7	422.55
928.0673	1960.5197	1303.3	415.3
928.2055	1962.1247	1304.2	418.2
928.3438	1963.729	1305.95	421.75
928.482	1965.3325	1327.1	417.3
928.6202	1966.9353	1297.8	412.7
928.7584	1968.5374	1296.2	409.25
928.8965	1970.1387	1291	405.9
929.0346	1971.7393	1299.4	412.7
929.1727	1973.3392	1291.75	408.05
929.3108	1974.9383	1290.05	404.65
929.4489	1976.5366	1291.2	404.75
929.5869	1978.1342	1294.6	409.5
929.7249	1979.7311	1294.45	407.2
929.8629	1981.3273	1294.4	407.65
930.0009	1982.9227	1291.6	405.45
930.1388	1984.5173	1281.05	395.3
930.2767	1986.1112	1282.4	399.05
930.4146	1987.7044	1282.45	399.05
930.5525	1989.2968	1280.95	393.9
930.6904	1990.8885	1281.9	393.45
930.8282	1992.4795	1282.35	397.15
930.966	1994.0697	1274.9	391.15
931.1038	1995.6592	1278.5	393.45
931.2415	1997.2479	1278.6	391.9
931.3793	1998.8359	1279	395.3
931.517	2000.4232	1275.4	390.3
931.6547	2002.0097	1265.5	380.65
931.7923	2003.5955	1276.05	390.55
931.93	2005.1805	1272.15	385.1
932.0676	2006.7648	1269.55	384.9
932.2052	2008.3484	1267.25	380.85
932.3427	2009.9312	1274	386.65
932.4803	2011.5133	1268.95	385.45
932.6178	2013.0946	1261.2	376.65
932.7553	2014.6752	1268.45	385.4
932.8928	2016.2551	1264.55	377.25
933.0302	2017.8342	1263.55	379.1
933.1676	2019.4126	1266.7	380.45
933.305	2020.9902	1259	375.3
933.4424	2022.5672	1262.85	376.45
933.5798	2024.1433	1265.55	375.55
933.7171	2025.7188	1258.05	375.4
933.8544	2027.2935	1261.15	374.3
933.9917	2028.8674	1256.7	371.55
934.129	2030.4406	1252.75	370.35
934.2662	2032.0131	1257.95	374.1
934.4034	2033.5849	1265.25	376.15
934.5406	2035.1559	1253.6	368.6
934.6778	2036.7261	1258.75	374.8
934.8149	2038.2957	1251.45	367.65
934.952	2039.8645	1248.2	362.75
935.0891	2041.4325	1255.05	368.2
935.2262	2042.9998	1251.1	368.1
935.3632	2044.5664	1248.8	363
935.5002	2046.1323	1248.55	364.7
935.6372	2047.6974	1252.7	370.25
935.7742	2049.2617	1243.95	360.4
935.9111	2050.8254	1264	357.9
936.048	2052.3883	1253.95	369.2
936.1849	2053.9504	1247.8	363.95
936.3218	2055.5118	1249.3	363.3
936.4586	2057.0725	1246	358.2
936.5955	2058.6325	1240.8	355.65
936.7323	2060.1917	1236.95	351.6
936.869	2061.7502	1245.55	358.45
937.0058	2063.3079	1238.8	354.6
937.1425	2064.8649	1246.15	358.85
937.2792	2066.4212	1241.6	356.1
937.4159	2067.9767	1242.75	359.35
937.5525	2069.5315	1239.35	353.2
937.6891	2071.0856	1235.85	351.1
937.8257	2072.6389	1239.2	355.25
937.9623	2074.1915	1232.5	349
938.0989	2075.7433	1227.95	342.15
938.2354	2077.2945	1222.7	340.75
938.3719	2078.8448	1226.3	344.25
938.5084	2080.3945	1226.15	343.1
938.6448	2081.9434	1229.3	344.95
938.7812	2083.4916	1235.4	351.45
938.9176	2085.039	1228.55	342.05
939.054	2086.5857	1226.65	339.7
939.1903	2088.1317	1227.15	343
939.3267	2089.677	1227.55	342.8
939.463	2091.2215	1227.7	342.55
939.5992	2092.7652	1229.5	342.3
939.7355	2094.3083	1223.85	340.9
939.8717	2095.8506	1223.7	338.85
940.0079	2097.3921	1227.05	344.5
940.1441	2098.933	1231	345.65
940.2802	2100.4731	1228.15	344.45
940.4163	2102.0124	1234.15	333.7
940.5524	2103.5511	1221.85	337.4
940.6885	2105.089	1224.75	341.3
940.8245	2106.6261	1221.55	336.75
940.9606	2108.1626	1222.15	337.3
941.0965	2109.6983	1252.75	340.65
941.2325	2111.2332	1220.65	332.8
941.3684	2112.7675	1214.5	326.95
941.5044	2114.301	1213.15	327.8
941.6403	2115.8337	1218.35	334.7
941.7761	2117.3657	1211	328.35
941.912	2118.897	1215.5	328.75
942.0478	2120.4276	1217.25	325.8
942.1835	2121.9575	1216.5	329.65
942.3193	2123.4866	1228.9	331.7
942.455	2125.0149	1215.85	328.25
942.5907	2126.5426	1212.9	328.85
942.7264	2128.0695	1222.75	334.35
942.8621	2129.5956	1211.3	328.2
942.9977	2131.1211	1210.35	321.4
943.1333	2132.6458	1209.55	323.7
943.2689	2134.1698	1213.7	328.4
943.4044	2135.693	1209.6	323.75
943.54	2137.2155	1208.05	319.75
943.6755	2138.7373	1204.45	319.05
943.8109	2140.2584	1207.75	322.45
943.9464	2141.7787	1208.9	319.45
944.0818	2143.2983	1203.95	323.15
944.2172	2144.8171	1201	316.4
944.3526	2146.3353	1205.55	318.6
944.4879	2147.8527	1203.1	320.4
944.6232	2149.3693	1203.8	318.15
944.7585	2150.8853	1199.9	314.45
944.8938	2152.4005	1202.95	318.4
945.029	2153.9149	1202.2	316.25
945.1642	2155.4287	1296.85	304.35
945.2994	2156.9417	1206.45	319.1
945.4346	2158.454	1197.6	311.5
945.5697	2159.9655	1193.25	307.55
945.7048	2161.4764	1194.9	307.8
945.8399	2162.9865	1192.35	308.25
945.9749	2164.4958	1191.6	305.45
946.1099	2166.0045	1194.2	305.7
946.2449	2167.5124	1197	315.05
946.3799	2169.0195	1183.05	297.15
946.5148	2170.526	1191.7	305.15
946.6498	2172.0317	1193.95	308.4
946.7846	2173.5367	1195.45	312.45
946.9195	2175.0409	1189.1	304.6
947.0543	2176.5445	1191.4	307.7
947.1891	2178.0473	1189.85	304.6
947.3239	2179.5494	1187.6	299.55
947.4587	2181.0507	1188.1	300.85
947.5934	2182.5513	1186.3	301.55
947.7281	2184.0512	1186.3	298.7
947.8628	2185.5504	1176.1	290
947.9974	2187.0488	1184.2	299.15
948.132	2188.5465	1179.2	294.1
948.2666	2190.0435	1183.85	299.75
948.4012	2191.5397	1179.85	294.3
948.5357	2193.0353	1176	293.25
948.6702	2194.5301	1180.2	294.45
948.8047	2196.0241	1180.7	298.35
948.9392	2197.5175	1179.3	295.05
949.0736	2199.0101	1178.75	291.6
949.208	2200.502	1172.1	289.55
949.3424	2201.9931	1171.1	288.75
949.4767	2203.4835	1173.05	286.95
949.611	2204.9733	1193.35	291.7
949.7453	2206.4622	1172.35	288.6
949.8796	2207.9505	1174.2	285.3
950.0138	2209.438	1164.7	282.1
950.148	2210.9248	1172.85	286.45
950.2822	2212.4109	1160.55	276.1
950.4164	2213.8962	1168.9	280.6
950.5505	2215.3809	1169.4	284.1
950.6846	2216.8648	1164.25	278.25
950.8186	2218.3479	1173.75	284
950.9527	2219.8304	1174.2	286.1
951.0867	2221.3121	1168	282
951.2207	2222.7931	1160.2	273.05
951.3546	2224.2733	1159.3	274.2
951.4886	2225.7529	1160.65	275.35
951.6225	2227.2317	1153.55	266.85
951.7563	2228.7098	1157.3	273.6
951.8902	2230.1872	1155.6	270.25
952.024	2231.6638	1154	270
952.1578	2233.1397	1159.25	270.6
952.2916	2234.6149	1157.1	270.95
952.4253	2236.0894	1155.3	270.25
952.559	2237.5632	1153.6	268.1
952.6927	2239.0362	1148.65	263.85
952.8263	2240.5085	1151	265.85
952.9599	2241.9801	1150.8	266.05
953.0935	2243.4509	1148.85	263.15
953.2271	2244.921	1152.2	267.95
953.3606	2246.3904	1144.05	257.6
953.4941	2247.8591	1148.7	262.85
953.6276	2249.3271	1146.45	261.65
953.7611	2250.7943	1147.4	262.5
953.8945	2252.2608	1143	257.8
954.0279	2253.7266	1142.65	258.5
954.1612	2255.1917	1144.3	257.8
954.2946	2256.656	1146.6	259.5
954.4279	2258.1197	1140.1	256.5
954.5612	2259.5826	1146.7	259.2
954.6944	2261.0447	1146.15	259.55
954.8276	2262.5062	1135.45	249.3
954.9608	2263.9669	1141.9	255.45
955.094	2265.4269	1139.95	256.55
955.2271	2266.8862	1137.8	253.15
955.3602	2268.3448	1138.5	252.7
955.4933	2269.8026	1139.2	253.95
955.6264	2271.2598	1132.5	249.05
955.7594	2272.7162	1138.55	252.45
955.8924	2274.1719	1133.7	247.8
956.0253	2275.6268	1134.1	250.4
956.1583	2277.0811	1133.4	250.3
956.2912	2278.5346	1131.75	246.5
956.4241	2279.9874	1129.3	245.45
956.5569	2281.4395	1132.15	247.5
956.6897	2282.8908	1139.2	250.95
956.8225	2284.3414	1129.15	243.4
956.9553	2285.7914	1128.65	245.15
957.088	2287.2406	1125.1	237.7
957.2207	2288.689	1129.55	243.6
957.3534	2290.1368	1131.75	245.6
957.486	2291.5838	1132.9	244.25
957.6186	2293.0302	1124.85	239.3
957.7512	2294.4758	1126.4	241.65
957.8838	2295.9206	1129.25	242.75
958.0163	2297.3648	1130.55	245.8
958.1488	2298.8082	1128.85	244.35
958.2813	2300.251	1122.75	237.05
958.4137	2301.693	1127.6	242.05
958.5461	2303.1343	1128.8	244
958.6785	2304.5748	1128.8	243.95
958.8108	2306.0147	1124.4	239.25
958.9432	2307.4538	1125.9	240
959.0754	2308.8922	1120.5	236.8
959.2077	2310.3299	1116.2	231.75
959.3399	2311.7669	1118.55	232.65
959.4721	2313.2031	1120.5	236.5
959.6043	2314.6387	1114.85	230.3
959.7365	2316.0735	1115.05	230.7
959.8686	2317.5076	1118.7	232.9
960.0006	2318.941	1115.55	230.3
960.1327	2320.3737	1111	225.65
960.2647	2321.8056	1122.35	234.25
960.3967	2323.2369	1114.8	228
960.5287	2324.6674	1118.95	229.65
960.6606	2326.0972	1114.7	228.6
960.7925	2327.5263	1113.7	230.3
960.9244	2328.9547	1123.25	239.05
961.0562	2330.3823	1116.25	231.2
961.1881	2331.8092	1116.85	229.45
961.3198	2333.2355	1115.05	230.15
961.4516	2334.661	1112.25	227.55
961.5833	2336.0858	1113.2	226.5
961.715	2337.5098	1106.35	221.8
961.8467	2338.9332	1105.45	220.3
961.9783	2340.3558	1107.5	219.55
962.1099	2341.7778	1105.55	222.1
962.2415	2343.199	1105.4	218
962.373	2344.6195	1102.9	218.2
962.5045	2346.0393	1105.6	220.8
962.636	2347.4583	1100.7	214.5
962.7675	2348.8767	1106.25	221.25
962.8989	2350.2943	1106.2	221.05
963.0303	2351.7113	1102.15	216.75
963.1617	2353.1275	1098.35	213.4
963.293	2354.543	1130.75	220.9
963.4243	2355.9578	1098.7	211.6
963.5556	2357.3718	1098.5	213.8
963.6868	2358.7852	1099.8	212.65
963.818	2360.1978	1097.05	211.2
963.9492	2361.6098	1094.65	211.2
964.0803	2363.021	1100.25	212.5
964.2114	2364.4315	1096	210.45
964.3425	2365.8413	1092.2	207
964.4736	2367.2504	1096	210.2
964.6046	2368.6587	1095.35	211.95
964.7356	2370.0664	1092	207.95
964.8666	2371.4733	1093.4	208.25
964.9975	2372.8795	1094.75	210.8
965.1284	2374.285	1089.9	205.15
965.2593	2375.6899	1091.3	205.45
965.3901	2377.0939	1087.85	201.05
965.5209	2378.4973	1089.8	204.35
965.6517	2379.9	1086.25	201.35
965.7825	2381.3019	1087.9	201.6
965.9132	2382.7032	1090.1	204.6
966.0439	2384.1037	1083.05	198.6
966.1745	2385.5035	1087.55	201.3
966.3051	2386.9027	1087.55	205.15
966.4357	2388.3011	1089.5	200.9
966.5663	2389.6987	1085.15	199.65
966.6968	2391.0957	1084.2	199.7
966.8273	2392.492	1078.65	193.35
966.9578	2393.8876	1082.1	196.65
967.0882	2395.2824	1080.4	192.95
967.2186	2396.6765	1081.1	196.2
967.349	2398.07	1077.65	191.55
967.4793	2399.4627	1078.55	190.7
967.6097	2400.8547	1078.55	192
967.7399	2402.246	1088.75	196.1
967.8702	2403.6366	1077.7	191
968.0004	2405.0265	1077.25	191.7
968.1306	2406.4156	1082.25	193.3
968.2607	2407.8041	1073.6	185.3
968.3909	2409.1918	1073.4	186
968.521	2410.5789	1074.85	187.75
968.651	2411.9652	1074.8	187.5
968.781	2413.3508	1069.7	181.85
968.911	2414.7358	1072.75	186.8
969.041	2416.12	1070.3	185.05
969.1709	2417.5035	1068.2	184.25
969.3008	2418.8863	1068.05	183.85
969.4307	2420.2684	1069.15	183.45
969.5606	2421.6497	1068.05	180.85
969.6904	2423.0304	1067.75	186.6
969.8201	2424.4104	1065.95	179.2
969.9499	2425.7896	1072.25	186
970.0796	2427.1682	1064.2	176.75
970.2093	2428.546	1065.85	178.55
970.3389	2429.9232	1060.2	172.75
970.4685	2431.2996	1067	181.55
970.5981	2432.6753	1063.7	177.9
970.7277	2434.0503	1065.95	178.65
970.8572	2435.4246	1061.95	177.8
970.9867	2436.7982	1062.1	175.55
971.1161	2438.1711	1060.5	175.2
971.2456	2439.5433	1063.45	177.15
971.375	2440.9148	1062.8	173
971.5043	2442.2856	1060.45	174.8
971.6336	2443.6557	1060.5	171.85
971.7629	2445.025	1056.2	171.95
971.8922	2446.3937	1059.5	174.2
972.0214	2447.7617	1059.1	172.75
972.1506	2449.1289	1057.95	174.05
972.2798	2450.4955	1058.55	171.5
972.4089	2451.8613	1052.15	169.45
972.538	2453.2265	1057.7	171.7
972.6671	2454.5909	1054.75	168.7
972.7961	2455.9546	1053.5	167.5
972.9251	2457.3177	1049.2	165.45
973.0541	2458.68	1059.8	173.3
973.1831	2460.0416	1059.65	174.85
973.312	2461.4025	1051.1	163.05
973.4408	2462.7627	1067.85	171.2
973.5697	2464.1222	1050.45	166.7
973.6985	2465.4811	1052.95	167.5
973.8273	2466.8392	1053.7	169.5
973.956	2468.1966	1050.4	162.1
974.0847	2469.5533	1056.3	169.25
974.2134	2470.9093	1048.2	162.15
974.3421	2472.2645	1047.2	160.65
974.4707	2473.6191	1049.3	163
974.5993	2474.973	1047.55	162.15
974.7278	2476.3262	1055.8	168.65
974.8563	2477.6787	1047.25	162.75
974.9848	2479.0305	1047.4	162.1
975.1132	2480.3816	1046.95	160.2
975.2417	2481.7319	1043.9	158.1
975.37	2483.0816	1050.7	164.15
975.4984	2484.4306	1051.6	165.15
975.6267	2485.7789	1044.8	159.7
975.755	2487.1264	1046	159.35
975.8833	2488.4733	1042.9	158
976.0115	2489.8195	1045.75	154.35
976.1397	2491.165	1048.7	162.25
976.2678	2492.5097	1046.85	159.7
976.3959	2493.8538	1043.1	157.75
976.524	2495.1972	1041.25	154
976.6521	2496.5398	1038.45	149.2
976.7801	2497.8818	1042.2	154.95
976.9081	2499.2231	1041.9	158.1
977.036	2500.5637	1044.15	158.65
977.164	2501.9035	1038.25	152.55
977.2918	2503.2427	1041.9	152.25
977.4197	2504.5812	1037.3	153.15
977.5475	2505.919	1041.75	155.1
977.6753	2507.256	1041.65	157.15
977.8031	2508.5924	1038.15	153
977.9308	2509.9281	1040.9	147.75
978.0585	2511.2631	1037.75	151.95
978.1861	2512.5974	1033.65	148.15
978.3137	2513.9309	1038.5	155.1
978.4413	2515.2638	1054.1	143.75
978.5689	2516.596	1034.9	149.7
978.6964	2517.9275	1031.65	144.4
978.8239	2519.2583	1031.35	145.95
978.9513	2520.5884	1033.05	146.75
979.0788	2521.9178	1032.3	145.85
979.2062	2523.2465	1029.15	144.6
979.3335	2524.5745	1032.05	145.65
979.4608	2525.9018	1029.25	142.6
979.5881	2527.2284	1029.8	146.4
979.7154	2528.5543	1027.7	144.2
979.8426	2529.8796	1031.2	144.3
979.9698	2531.2041	1028.15	143.55
980.0969	2532.5279	1024.95	140.6
980.224	2533.851	1030.2	145.05
980.3511	2535.1735	1027.55	142.5
980.4781	2536.4952	1028.6	143.95
980.6052	2537.8163	1028.95	143.25
980.7321	2539.1366	1027.15	141.85
980.8591	2540.4562	1026	140.35
980.986	2541.7752	1026.2	140.2
981.1129	2543.0935	1024.65	140.2
981.2397	2544.411	1028.4	141.45
981.3665	2545.7279	1024.4	138.45
981.4933	2547.0441	1021.5	136.4
981.62	2548.3596	1028.45	140.15
981.7467	2549.6744	1025.35	140.35
981.8734	2550.9885	1032.15	139.25
982.0001	2552.3019	1021.5	137.75
982.1267	2553.6146	1022.25	136.7
982.2532	2554.9266	1019.8	133.9
982.3798	2556.2379	1025.65	139.35
982.5063	2557.5485	1022.85	138.9
982.6327	2558.8585	1024.35	130.8
982.7592	2560.1677	1025.4	136.5
982.8856	2561.4762	1019.75	133.85
983.0119	2562.7841	1022.2	133.8
983.1383	2564.0913	1017	134.55
983.2646	2565.3977	1017.85	132.7
983.3908	2566.7035	1017.3	129.35
983.517	2568.0086	1019.45	134.65
983.6432	2569.313	1017.3	130.4
983.7694	2570.6167	1022.85	132.6
983.8955	2571.9197	1013.75	128.75
984.0216	2573.222	1020.05	130.95
984.1476	2574.5236	1024.6	140
984.2737	2575.8246	1021.15	134.15
984.3996	2577.1248	1016.75	128.6
984.5256	2578.4244	1016.4	132.75
984.6515	2579.7232	1015.95	131.2
984.7774	2581.0214	1047.25	132.9
984.9032	2582.3189	1016.65	133.2
985.029	2583.6157	1016.2	124.1
985.1548	2584.9118	1017	133.9
985.2806	2586.2072	1019.9	136
985.4063	2587.5019	1011.8	127.6
985.5319	2588.7959	1015.95	130.95
985.6576	2590.0893	1018.05	130.05
985.7832	2591.3819	1015.35	130
985.9087	2592.6739	1010.65	123.4
986.0343	2593.9652	1014	127.2
986.1597	2595.2557	1009.5	124
986.2852	2596.5456	1012.85	124.25
986.4106	2597.8348	1016.1	132.1
986.536	2599.1234	1008.95	124.8
986.6614	2600.4112	1013.2	128.75
986.7867	2601.6983	1017.95	128.45
986.912	2602.9848	1014.3	128.35
987.0372	2604.2705	1019.35	127.15
987.1624	2605.5556	1011.8	128.05
987.2876	2606.84	1007.95	123.9
987.4128	2608.1237	1011.55	126.65
987.5379	2609.4067	1010.35	125.2
987.6629	2610.689	1020.6	125.95
987.788	2611.9707	1013.25	124.35
987.913	2613.2516	1010.5	120.5
988.0379	2614.5319	1007.2	123.35
988.1629	2615.8115	1007.6	122.25
988.2878	2617.0903	1007.55	119.65
988.4126	2618.3685	1005.55	118.45
988.5375	2619.6461	1004.3	118.85
988.6622	2620.9229	1004.45	119.65
988.787	2622.199	1005.25	119.4
988.9117	2623.4745	1003.45	117.35
989.0364	2624.7493	1001.75	115.5
989.161	2626.0234	1000.05	116.25
989.2857	2627.2968	1003.25	117.9
989.4102	2628.5695	1005.1	119.2
989.5348	2629.8415	995.4	108.95
989.6593	2631.1128	1002.2	114.35
989.7837	2632.3835	999.6	114.95
989.9082	2633.6535	998.3	116.4
990.0326	2634.9228	998.85	115.4
990.1569	2636.1914	994.95	108.25
990.2812	2637.4593	1003.6	112.4
990.4055	2638.7265	998.3	114.5
990.5298	2639.9931	996.55	112.3
990.654	2641.259	1001	113.95
990.7782	2642.5242	996.75	113.45
990.9023	2643.7887	996.4	109.8
991.0264	2645.0525	997.55	114.15
991.1505	2646.3156	1013.15	112.45
991.2745	2647.5781	996.4	111.1
991.3985	2648.8398	995.15	113
991.5225	2650.1009	1002.6	112.9
991.6464	2651.3613	993.1	107.6
991.7703	2652.6211	997.2	112.35
991.8942	2653.8801	994.65	110.05
992.018	2655.1385	997.7	110.2
992.1418	2656.3961	993.6	109.95
992.2655	2657.6531	992.6	107.35
992.3892	2658.9094	992.75	108.15
992.5129	2660.1651	988.4	103.75
992.6366	2661.42	992.5	105.8
992.7602	2662.6743	992.85	107.05
992.8837	2663.9279	993	108.55
993.0073	2665.1808	992.95	106.45
993.1307	2666.433	990.95	103.75
993.2542	2667.6846	991.75	105.55
993.3776	2668.9354	995.4	108.05
993.501	2670.1856	992	105.35
993.6244	2671.4351	988.1	104.25
993.7477	2672.6839	994.05	108.05
993.8709	2673.9321	993.75	107.55
993.9942	2675.1795	991.1	106.9
994.1174	2676.4263	995.2	108.9
994.2405	2677.6724	987.55	104.65
994.3637	2678.9179	989.7	103.9
994.4868	2680.1626	987.7	103.8
994.6098	2681.4067	993.7	107.3
994.7328	2682.6501	989.35	102.75
994.8558	2683.8928	987.95	103.5
994.9788	2685.1348	983.7	99.85
995.1017	2686.3761	990	104.85
995.2245	2687.6168	984.2	98.1
995.3474	2688.8568	986.85	102.9
995.4702	2690.0961	987.15	102.6
995.5929	2691.3348	987.05	100.7
995.7156	2692.5727	986.9	102.7
995.8383	2693.81	982	96.05
995.961	2695.0466	984.9	100.75
996.0836	2696.2826	983.3	95.75
996.2062	2697.5178	984.15	96.85
996.3287	2698.7524	985.75	100.05
996.4512	2699.9863	984.6	96.15
996.5737	2701.2195	982.7	99.1
996.6961	2702.452	985.15	98.3
996.8185	2703.6839	987.05	101.8
996.9408	2704.9151	979.6	95.5
997.0631	2706.1456	983.8	99.7
997.1854	2707.3755	982.45	94.7
997.3077	2708.6046	985.05	99.5
997.4299	2709.8331	983.9	95.45
997.552	2711.0609	986.3	101.45
997.6742	2712.2881	983.5	97.55
997.7963	2713.5145	985.7	98.65
997.9183	2714.7403	983.85	99.4
998.0403	2715.9654	985.1	101.45
998.1623	2717.1899	996.85	95.55
998.2842	2718.4136	985.05	100.15
998.4062	2719.6367	985.6	99.25
998.528	2720.8591	995.15	102.8
998.6498	2722.0809	987.95	101.7
998.7716	2723.3019	991.65	104.65
998.8934	2724.5223	986.5	100.25
999.0151	2725.7421	991.85	105.3
999.1368	2726.9611	991.8	103.75
999.2584	2728.1795	989.05	100.85
999.38	2729.3972	986.45	103.6
999.5016	2730.6142	993.3	99.1
999.6231	2731.8306	978.65	93.75
999.7446	2733.0462	982.45	94.85
999.8661	2734.2612	983.25	92.25
999.9875	2735.4756	979.5	93.6
1000.1089	2736.6892	984.9	97.75
1000.2302	2737.9022	976.85	92.5
1000.3515	2739.1145	977.1	90.25
1000.4728	2740.3262	983.3	89.7
1000.594	2741.5372	972.4	87.3
1000.7152	2742.7475	975.8	91.3
1000.8363	2743.9571	973.9	87.5
1000.9575	2745.1661	980.75	93
1001.0785	2746.3744	974.2	88.8
1001.1996	2747.582	969.7	84
1001.3206	2748.7889	969.55	82.55
1001.4415	2749.9952	969.6	83.35
1001.5625	2751.2008	969.5	84.25
1001.6833	2752.4057	971.45	83.7
1001.8042	2753.61	970.25	83.5
1001.925	2754.8136	972.65	86.2
1002.0458	2756.0165	966.85	83.6
1002.1665	2757.2188	966.25	83.25
1002.2872	2758.4204	967.15	82.3
1002.4078	2759.6213	966.6	77.4
1002.5285	2760.8215	969.5	80.7
1002.649	2762.0211	969.55	82.8
1002.7696	2763.22	968.05	80.55
1002.8901	2764.4182	967.35	79.25
1003.0106	2765.6158	963.9	78.2
1003.131	2766.8127	965.65	79.65
1003.2514	2768.009	965.2	78.75
1003.3717	2769.2045	966.35	79.3
1003.492	2770.3994	967.35	81.9
1003.6123	2771.5936	966.6	79.9
1003.7325	2772.7872	963.8	80.55
1003.8527	2773.9801	959.75	72.3
1003.9729	2775.1723	977.65	74.35
1004.093	2776.3639	958.4	75
1004.2131	2777.5548	962.65	75.45
1004.3331	2778.745	962.5	77.65
1004.4531	2779.9346	960.35	74.85
1004.5731	2781.1235	959.8	73.85
1004.693	2782.3117	959.7	72.9
1004.8129	2783.4992	963.2	77.7
1004.9328	2784.6861	960.25	77.5
1005.0526	2785.8723	962.2	75
1005.1723	2787.0579	959	75
1005.2921	2788.2428	960.85	76.2
1005.4118	2789.427	959.25	74.95
1005.5314	2790.6106	959.9	75.3
1005.651	2791.7935	960.45	73.75
1005.7706	2792.9757	962.15	75.75
1005.8902	2794.1573	964.6	77.05
1006.0097	2795.3382	957.95	73.75
1006.1291	2796.5184	958.55	75.4
1006.2485	2797.698	961.7	74.6
1006.3679	2798.8769	957.9	73.4
1006.4873	2800.0551	961.15	76.75
1006.6066	2801.2327	962.9	73.9
1006.7258	2802.4096	959.15	74.45
1006.8451	2803.5859	957.8	72.35
1006.9642	2804.7615	959.55	73.35
1007.0834	2805.9364	960.15	75.5
1007.2025	2807.1106	960.5	74.3
1007.3216	2808.2842	965.6	79.7
1007.4406	2809.4572	964.5	78.85
1007.5596	2810.6294	962.6	76.8
1007.6785	2811.801	964.45	79.8
1007.7975	2812.972	962.45	76.55
1007.9163	2814.1423	963.6	78.65
1008.0352	2815.3119	970.35	85.7
1008.154	2816.4808	971.65	86.75
1008.2727	2817.6491	974.65	88.5
1008.3914	2818.8167	973.15	89.15
1008.5101	2819.9837	983.2	95.55
1008.6288	2821.15	984.25	99.25
1008.7474	2822.3157	986.1	102.25
1008.8659	2823.4807	995.45	110.85
1008.9844	2824.645	1001.2	117.1
1009.1029	2825.8086	1006.8	120.35
1009.2214	2826.9716	1015.6	132.2
1009.3398	2828.134	1022.5	136.9
1009.4581	2829.2957	1027.95	143.2
1009.5764	2830.4567	1028.7	145.65
1009.6947	2831.617	1036.65	151.65
1009.813	2832.7767	1036.3	153.05
1009.9312	2833.9358	1038.1	153.75
1010.0493	2835.0941	1039	151.5
1010.1675	2836.2519	1035.6	150.55
1010.2855	2837.4089	1031.45	145.15
1010.4036	2838.5653	1027.85	143.9
1010.5216	2839.7211	1021.7	136.45
1010.6396	2840.8761	1025.95	139.9
1010.7575	2842.0306	1020.5	136.35
1010.8754	2843.1843	1024.9	139.7
1010.9932	2844.3374	1025.85	142.1
1011.111	2845.4899	1025.95	140.4
1011.2288	2846.6417	1027.1	143.65
1011.3465	2847.7928	1027	142.4
1011.4642	2848.9433	1030.55	146
1011.5818	2850.0931	1029.3	145.2
1011.6995	2851.2422	1031.15	144.5
1011.817	2852.3907	1031.95	145.45
1011.9345	2853.5385	1033.25	147.35
1012.052	2854.6857	1039.35	143.85
1012.1695	2855.8323	1033.8	150.5
1012.2869	2856.9781	1032.15	148.45
1012.4042	2858.1233	1039.6	155.1
1012.5216	2859.2679	1042.1	160.05
1012.6389	2860.4118	1042.4	156.55
1012.7561	2861.555	1049.25	158.75
1012.8733	2862.6976	1046.65	160.9
1012.9905	2863.8395	1048.5	164.3
1013.1076	2864.9808	1057	175.05
1013.2247	2866.1214	1052	168.15
1013.3417	2867.2614	1054.2	170.6
1013.4587	2868.4007	1058.05	173.35
1013.5757	2869.5393	1056.95	168.4
1013.6926	2870.6773	1062.1	173.75
1013.8095	2871.8146	1064.15	176.2
1013.9263	2872.9513	1069.35	181.75
1014.0431	2874.0874	1068.8	184.9
1014.1599	2875.2227	1066.35	182.2
1014.2766	2876.3574	1070.75	185.05
1014.3933	2877.4915	1071.15	188.35
1014.51	2878.6249	1072.5	188.5
1014.6266	2879.7577	1076.4	190.95
1014.7431	2880.8898	1087.4	191.65
1014.8596	2882.0212	1079.35	195.9
1014.9761	2883.152	1082.95	197.65
1015.0925	2884.2821	1085.4	203.95
1015.2089	2885.4116	1084.2	199.75
1015.3253	2886.5405	1088.8	204.4
1015.4416	2887.6686	1093.85	204.8
1015.5579	2888.7962	1087.2	203.7
1015.6741	2889.923	1084.5	199
1015.7903	2891.0493	1086.75	203.15
1015.9065	2892.1748	1082.85	196.1
1016.0226	2893.2997	1088.4	203.3
1016.1387	2894.424	1083.55	199.85
1016.2547	2895.5476	1089.3	204.5
1016.3707	2896.6706	1084.2	200.35
1016.4866	2897.7929	1084.7	200.85
1016.6025	2898.9145	1089.35	205.1
1016.7184	2900.0355	1088.45	203.5
1016.8342	2901.1559	1085.15	199.05
1016.95	2902.2756	1092.35	204.85
1017.0658	2903.3946	1083.6	198
1017.1815	2904.513	1088.05	201.4
1017.2971	2905.6308	1078.25	193.05
1017.4127	2906.7479	1081.65	196.5
1017.5283	2907.8643	1082.9	199.3
1017.6439	2908.9801	1079.8	196
1017.7594	2910.0953	1078.35	194.8
1017.8748	2911.2098	1080.95	192.55
1017.9902	2912.3236	1088.85	194.65
1018.1056	2913.4368	1080.1	193
1018.2209	2914.5494	1074.3	187.85
1018.3362	2915.6613	1078.7	186.45
1018.4515	2916.7725	1074.25	186.7
1018.5667	2917.8831	1070.7	183.7
1018.6819	2918.9931	1069.45	181.8
1018.797	2920.1024	1063.3	178.65
1018.9121	2921.211	1063.7	178.7
1019.0271	2922.319	1060.95	175.75
1019.1421	2923.4264	1059.7	175.55
1019.2571	2924.5331	1059.75	176.8
1019.372	2925.6391	1058.8	173.35
1019.4869	2926.7445	1058.3	175.75
1019.6017	2927.8493	1056.9	170.6
1019.7165	2928.9534	1060.25	175.55
1019.8313	2930.0569	1062.25	174.5
1019.946	2931.1597	1065.7	178.9
1020.0606	2932.2619	1058	173.95
1020.1753	2933.3634	1059.15	174.15
1020.2899	2934.4643	1067.4	176.4
1020.4044	2935.5645	1075.05	182
1020.5189	2936.6641	1071.85	182.85
1020.6334	2937.763	1066.8	182.75
1020.7478	2938.8613	1068.15	182.1
1020.8622	2939.959	1069.5	180.85
1020.9765	2941.056	1064.25	180.4
1021.0908	2942.1523	1062.45	177.3
1021.2051	2943.248	1054.55	170.25
1021.3193	2944.3431	1041.8	158.45
1021.4334	2945.4375	1031.2	146.75
1021.5476	2946.5313	1030.7	148.95
1021.6617	2947.6244	1019.65	135.85
1021.7757	2948.7169	1017.2	132.7
1021.8897	2949.8087	1009.05	125.95
1022.0037	2950.8999	1004	117.5
1022.1176	2951.9904	998.05	114.25
1022.2315	2953.0803	994.75	108.95
1022.3453	2954.1696	991.6	106.8
1022.4591	2955.2582	987.6	102.95
1022.5728	2956.3462	984.7	98.8
1022.6865	2957.4335	985.85	101.7
1022.8002	2958.5202	986.7	100.45
1022.9138	2959.6062	986.4	101.05
1023.0274	2960.6916	981.95	97.85
1023.141	2961.7764	985.7	101
1023.2545	2962.8605	986.95	102.6
1023.3679	2963.9439	983.3	99.55
1023.4813	2965.0267	984.95	99.7
1023.5947	2966.1089	1006	98.1
1023.708	2967.1905	979.5	94.3
1023.8213	2968.2714	980.1	97.1
1023.9346	2969.3516	979.8	94.6
1024.0478	2970.4312	983.2	91.75
1024.1609	2971.5102	978.05	93.65
1024.274	2972.5885	976.25	93.8
1024.3871	2973.6662	983.1	94.85
1024.5002	2974.7432	978.1	94.25
1024.6132	2975.8196	978.75	93.65
1024.7261	2976.8954	976.9	94.8
1024.839	2977.9705	979.65	93.6
1024.9519	2979.045	976.65	93.1
1025.0647	2980.1188	976.95	93.15
1025.1775	2981.192	975.55	91.35
1025.2902	2982.2645	977.55	93.2
1025.4029	2983.3364	970.5	86.45
1025.5156	2984.4077	973.65	89.35
1025.6282	2985.4783	976.8	86.75
1025.7407	2986.5483	971.2	88.45
1025.8532	2987.6177	966.9	82.5
1025.9657	2988.6864	964.75	78.95
1026.0782	2989.7545	963.2	79.05
1026.1906	2990.8219	960.95	77.5
1026.3029	2991.8887	960.55	74.55
1026.4152	2992.9548	961.45	77.05
1026.5275	2994.0204	952.7	68.65
1026.6397	2995.0852	951.4	68.75
1026.7519	2996.1495	948.6	62.15
1026.864	2997.2131	944.05	59.5
1026.9761	2998.276	946.2	62
1027.0882	2999.3383	943.65	58.05
1027.2002	3000.4	942.45	56.65
1027.3122	3001.4611	939.65	55.4
1027.4241	3002.5215	938.25	54.55
1027.536	3003.5812	937.3	53.55
1027.6478	3004.6404	933.6	48.45
1027.7596	3005.6989	935.65	50
1027.8714	3006.7567	932.25	46.6
1027.9831	3007.8139	953.6	50.05
1028.0947	3008.8705	930.5	44.5
1028.2064	3009.9264	933.8	46.35
1028.3179	3010.9818	929.8	44.5
1028.4295	3012.0364	928.3	42.8
1028.541	3013.0905	928	42.3
1028.6524	3014.1439	928.15	44.1
1028.7638	3015.1966	925.1	41.2
1028.8752	3016.2487	927.45	43.2
1028.9865	3017.3002	931.95	42.85
1029.0978	3018.3511	925.9	43.9
1029.209	3019.4013	926.2	40.75
1029.3202	3020.4509	926.9	44.95
1029.4314	3021.4998	927.7	41.3
1029.5425	3022.5481	926.75	44
1029.6535	3023.5958	922.85	37.3
1029.7645	3024.6428	924.85	39.2
1029.8755	3025.6892	922.6	39.3
1029.9864	3026.735	924.35	40.65
1030.0973	3027.7802	923.8	38.25
1030.2082	3028.8247	925.55	40.1
1030.319	3029.8685	923.3	36.8
1030.4297	3030.9118	924.65	40.2
1030.5404	3031.9544	924.95	41.4
1030.6511	3032.9963	922.25	37.55
1030.7617	3034.0376	921.65	37.35
1030.8723	3035.0783	926.8	39.85
1030.9829	3036.1184	924.1	39.25
1031.0934	3037.1578	924	38.45
1031.2038	3038.1966	922.35	36.4
1031.3142	3039.2348	923.3	38.8
1031.4246	3040.2723	931.65	39
1031.5349	3041.3092	922.7	39.05
1031.6452	3042.3455	923.95	40.6
1031.7554	3043.3811	921.5	36.2
1031.8656	3044.4161	925.3	38.85
1031.9758	3045.4505	922	37.9
1032.0859	3046.4842	923.5	37.2
1032.1959	3047.5173	922	41.1
1032.3059	3048.5498	926.05	39.5
1032.4159	3049.5816	921.9	36.3
1032.5258	3050.6128	927.2	41.7
1032.6357	3051.6434	923.85	38.25
1032.7455	3052.6734	922.5	36.7
1032.8553	3053.7027	922.1	37.55
1032.9651	3054.7314	921.35	37.15
1033.0748	3055.7594	920.45	37.05
1033.1845	3056.7868	923	37.25
1033.2941	3057.8136	921.7	39
1033.4037	3058.8398	922.95	39.35
1033.5132	3059.8653	924	39.2
1033.6227	3060.8902	920.8	35.25
1033.7321	3061.9145	926.7	42.1
1033.8415	3062.9381	925.65	41.45
1033.9509	3063.9612	940.75	39.65
1034.0602	3064.9835	927.25	40.45
1034.1694	3066.0053	925.7	39.75
1034.2787	3067.0264	923.35	38.05
1034.3878	3068.0469	923.25	37.15
1034.497	3069.0668	926.15	39.2
1034.6061	3070.086	922.25	39.25
1034.7151	3071.1046	925.85	37.3
1034.8241	3072.1226	924.35	38.45
1034.9331	3073.1399	921.55	36.65
1035.042	3074.1567	920.55	35
1035.1508	3075.1727	923.7	37.3
1035.2597	3076.1882	921.1	36.5
1035.3684	3077.203	922.15	37.2
1035.4772	3078.2173	922.3	37.65
1035.5859	3079.2308	922.65	34.15
1035.6945	3080.2438	921.25	33.5
1035.8031	3081.2561	919.45	34.2
1035.9117	3082.2678	915.95	32.25
1036.0202	3083.2789	917.75	33.4
1036.1286	3084.2893	917.5	31.75
1036.2371	3085.2991	914.8	29.4
1036.3454	3086.3083	921.15	32.3
1036.4538	3087.3169	915.15	29.4
1036.562	3088.3248	916	29.55
1036.6703	3089.3321	918.4	32.2
1036.7785	3090.3388	912.6	30.25
1036.8866	3091.3449	915.45	31
1036.9948	3092.3503	915.5	29.1
1037.1028	3093.3551	912.75	31.45
1037.2108	3094.3593	912.25	28.05
1037.3188	3095.3629	911.65	29.7
1037.4267	3096.3658	913.35	28.2
1037.5346	3097.3681	912.35	27.95
1037.6425	3098.3698	913.55	27.5
1037.7503	3099.3708	918.55	25.6
1037.858	3100.3713	913.1	27.6
1037.9657	3101.3711	912.8	27.85
1038.0734	3102.3702	1048.15	25.35
1038.181	3103.3688	917.85	31.05
1038.2886	3104.3667	909.8	26.5
1038.3961	3105.364	910.35	26.05
1038.5036	3106.3607	911.35	24.85
1038.611	3107.3568	913.2	28.85
1038.7184	3108.3522	908.15	24.15
1038.8257	3109.347	909.3	25
1038.933	3110.3412	914.75	25.6
1039.0403	3111.3348	909.25	23.95
1039.1475	3112.3277	908.95	24.55
1039.2547	3113.32	909.4	26.35
1039.3618	3114.3117	908.35	23.85
1039.4689	3115.3028	910.15	25.5
1039.5759	3116.2932	908.45	23.4
1039.6829	3117.2831	914.4	25
1039.7898	3118.2723	908.05	25.1
1039.8967	3119.2608	909.8	24
1040.0035	3120.2488	908.85	25.2
1040.1103	3121.2361	906.8	20.95
1040.2171	3122.2229	906.55	21.1
1040.3238	3123.209	910	25.7
1040.4305	3124.1944	905.6	21.75
1040.5371	3125.1793	907.15	22.85
1040.6437	3126.1635	905.15	21.3
1040.7502	3127.1471	907.15	24.05
1040.8567	3128.1301	904.25	18.8
1040.9631	3129.1125	903.15	18.9
1041.0695	3130.0942	904.85	20.15
1041.1759	3131.0753	913.75	20.05
1041.2822	3132.0558	909.75	24.35
1041.3884	3133.0357	907.05	20.45
1041.4946	3134.015	903.7	18.6
1041.6008	3134.9936	908.25	24.15
1041.7069	3135.9716	925.7	19.5
1041.813	3136.949	902.3	17.45
1041.919	3137.9258	923.75	21.55
1042.025	3138.902	909.4	18.6
1042.1309	3139.8775	905.6	21.55
1042.2368	3140.8524	906.05	22.7
1042.3427	3141.8267	907.15	21.85
1042.4485	3142.8004	903.65	17.95
1042.5542	3143.7735	911.5	20.25
1042.6599	3144.7459	906.6	20.55
1042.7656	3145.7178	904.95	20.85
1042.8712	3146.689	902.4	18.95
1042.9768	3147.6596	903	16.3
1043.0823	3148.6295	901.7	16.25
1043.1878	3149.5989	903.85	18.55
1043.2932	3150.5676	900.3	15.5
1043.3986	3151.5357	901	17.6
1043.5039	3152.5032	905.05	21.05
1043.6092	3153.4701	903.3	19.9
1043.7145	3154.4364	903.7	15.95
1043.8197	3155.402	903	19.2
1043.9248	3156.367	902.5	16.45
1044.03	3157.3315	939.1	18.35
1044.135	3158.2952	901.2	16.55
1044.24	3159.2584	902.2	18.4
1044.345	3160.221	903.2	17.55
1044.4499	3161.1829	902.85	17.6
1044.5548	3162.1442	901.9	16.85
1044.6596	3163.105	900.6	15.55
1044.7644	3164.065	901.15	15.95
1044.8692	3165.0245	903.65	17.4
1044.9739	3165.9834	899.6	16
1045.0785	3166.9416	902.05	18.2
1045.1831	3167.8993	902.25	17.9
1045.2877	3168.8563	903.4	19.1
1045.3922	3169.8127	901.2	18
1045.4966	3170.7684	901.4	17.95
1045.6011	3171.7236	901.3	15.35
1045.7054	3172.6782	901.35	15.3
1045.8098	3173.6321	902.35	17.15
1045.914	3174.5854	906.05	18.15
1046.0183	3175.5381	901.85	17.7
1046.1224	3176.4902	901.05	16.5
1046.2266	3177.4417	901.15	18.35
1046.3307	3178.3926	898.7	16.8
1046.4347	3179.3428	899.1	15.55
1046.5387	3180.2924	900.85	17.85
1046.6427	3181.2415	900.55	16.1
1046.7466	3182.1899	903.35	17.6
1046.8504	3183.1377	900.7	16.7
1046.9542	3184.0848	902.95	16.55
1047.058	3185.0314	899.7	16.35
1047.1617	3185.9773	902.95	18.9
1047.2654	3186.9227	901.5	16.45
1047.369	3187.8674	898.3	14.15
1047.4726	3188.8115	903.7	17.1
1047.5761	3189.755	900.1	15.6
1047.6796	3190.6979	898.3	14.25
1047.783	3191.6402	898.75	14.75
1047.8864	3192.5818	899.85	15.95
1047.9898	3193.5229	905.75	15.9
1048.0931	3194.4633	898.05	12.4
1048.1963	3195.4031	898.2	13.75
1048.2995	3196.3423	899.9	17.5
1048.4027	3197.2809	898.25	13.7
1048.5058	3198.2189	898.95	14.15
1048.6089	3199.1563	916.45	15.2
1048.7119	3200.0931	899.9	15.9
1048.8148	3201.0292	898.15	15.1
1048.9178	3201.9648	897.05	12.75
1049.0206	3202.8997	901	13.9
1049.1235	3203.834	899.3	14.4
1049.2262	3204.7677	897.95	13.55
1049.329	3205.7008	899.6	14.85
1049.4317	3206.6333	895.75	10.85
1049.5343	3207.5652	900.75	16.8
1049.6369	3208.4964	898.75	14
1049.7394	3209.4271	897	13.4
1049.8419	3210.3571	898.5	13.75
1049.9444	3211.2865	898.05	15.2
1050.0468	3212.2154	896.45	12.2
1050.1491	3213.1436	899	11.5
1050.2514	3214.0712	902.05	10.9
1050.3537	3214.9982	898.15	13.75
1050.4559	3215.9246	898.9	14.85
1050.5581	3216.8503	896.45	12.9
1050.6602	3217.7755	897.6	12.4
1050.7623	3218.7001	895.6	10.6
1050.8643	3219.624	897.5	15.05
1050.9663	3220.5473	897.3	13.75
1051.0682	3221.4701	897.65	11.55
1051.1701	3222.3922	897.7	11
1051.2719	3223.3137	894.4	8.25
1051.3737	3224.2346	898.4	15.45
1051.4754	3225.1549	896.9	12.35
1051.5771	3226.0746	895.25	12.2
1051.6788	3226.9937	898.1	13.25
1051.7804	3227.9121	894.9	10.95
1051.8819	3228.83	894.4	10.05
1051.9834	3229.7473	895.95	11
1052.0849	3230.6639	896.05	10.6
1052.1863	3231.5799	896.9	14.2
1052.2876	3232.4954	896.05	10.8
1052.3889	3233.4102	896.15	13.35
1052.4902	3234.3244	895.65	11.05
1052.5914	3235.238	895.5	12.45
1052.6926	3236.151	910.05	10.9
1052.7937	3237.0634	895	10.9
1052.8948	3237.9752	895.15	11.95
1052.9958	3238.8864	894.65	10.65
1053.0968	3239.797	895.9	11.95
1053.1977	3240.7069	897.6	11.75
1053.2986	3241.6163	899.45	12.9
1053.3994	3242.5251	897.25	12.75
1053.5002	3243.4332	895.05	12.25
1053.6009	3244.3408	894.1	9.45
1053.7016	3245.2477	896.7	13.4
1053.8022	3246.154	894.4	7.45
1053.9028	3247.0598	895.9	10.25
1054.0034	3247.9649	894.85	10.7
1054.1039	3248.8694	894.35	10.4
1054.2043	3249.7733	894.45	10.05
1054.3047	3250.6766	893.8	10.25
1054.4051	3251.5793	895	11.25
1054.5054	3252.4814	895.9	10
1054.6056	3253.3829	893.05	9.05
1054.7058	3254.2838	895.35	10.85
1054.806	3255.1841	896.1	13.1
1054.9061	3256.0838	893.35	9.95
1055.0061	3256.9829	892.3	8.45
1055.1062	3257.8814	894.6	9.05
1055.2061	3258.7792	896.5	12.65
1055.306	3259.6765	893.6	9.55
1055.4059	3260.5731	892.15	7.6
1055.5057	3261.4692	894.75	9.4
1055.6055	3262.3647	894.25	9.55
1055.7052	3263.2595	894.5	11.25
1055.8049	3264.1538	892.1	7.9
1055.9045	3265.0474	893.65	9.1
1056.0041	3265.9404	892.65	10.5
1056.1036	3266.8329	892.55	6.55
1056.2031	3267.7247	903.7	8.85
1056.3025	3268.616	892.2	8.4
1056.4019	3269.5066	894.6	10.05
1056.5013	3270.3966	897.25	10.5
1056.6005	3271.286	890.85	7.95
