Software Version:	3.9.2.0
Unit SN:	10000200
Spectrometer SN:	6960
Date:	3/26/2024 2:16:46 PM
Data Line Index:	25
Spectral Points:	2048
Integration time (ms):	125
Averages:	20
Delay (ms):	30000
Sequence Number:	1
Processing:	dark subtract
Laser Power (mW):	305
Laser Current (mA):	820
Laser Diode Temp (C):	25
Laser Case Temp (C):	27.5
System Temp (C):	27.6
Spectrometer Temp (C):	25.5
CCD Temp (C):	0.004
Secondary Temp (C):	20.004
Heatsink Temp (C):	23.079
CCDPCB Temp (C):	36.985
SecondaryPCB Temp (C):	34.606

Wavelength	RamanShift	Raw Counts	Dark Subtracted
787.061	30.1047	669.25	259.35
787.2016	32.3739	676.65	267.05
787.3422	34.6426	697.5	287.15
787.4828	36.9109	716.4	300.7
787.6235	39.1787	738.05	321.7
787.7642	41.4461	769.35	347
787.9049	43.7131	796.5	372.5
788.0456	45.9796	819.9	392.9
788.1863	48.2456	849.3	419
788.3271	50.5112	884.65	450.7
788.4679	52.7764	907.6	469.85
788.6087	55.0411	932.55	490.9
788.7496	57.3054	972.3	523.9
788.8904	59.5692	1000.05	551.5
789.0313	61.8326	1053	599.4
789.1722	64.0955	1096.5	639.8
789.3132	66.3579	1149.15	687.95
789.4541	68.6199	1204.8	740.4
789.5951	70.8815	1314.3	848.05
789.7361	73.1426	1527.65	1057.6
789.8771	75.4032	2079.6	1601.4
790.0181	77.6634	3466.45	2982.45
790.1592	79.9231	6924.85	6430.45
790.3003	82.1824	14934.65	14421.6
790.4414	84.4412	35355.1	34807.7
790.5825	86.6995	63076.75	62479.4
790.7237	88.9574	65535	64892.6
790.8648	91.2148	65535	64861.15
791.006	93.4717	65535	64842.85
791.1472	95.7282	65535	64829
791.2885	97.9842	65535	64823.75
791.4297	100.2398	65535	64824.55
791.571	102.4949	65535	64818.15
791.7123	104.7495	65535	64819.35
791.8536	107.0036	65535	64812.85
791.9949	109.2573	65535	64810.55
792.1363	111.5105	65535	64812.95
792.2777	113.7632	65535	64811.55
792.4191	116.0154	65535	64799.2
792.5605	118.2672	65535	64805.95
792.7019	120.5185	65535	64807.15
792.8434	122.7693	65535	64801.25
792.9849	125.0197	65535	64804.4
793.1264	127.2696	65535	64798.8
793.2679	129.519	65535	64792.45
793.4094	131.7679	65535	64788.4
793.551	134.0163	65535	64785.7
793.6926	136.2642	65535	64778.35
793.8342	138.5117	65535	64773.95
793.9758	140.7587	65535	64772.3
794.1175	143.0052	65535	64775.65
794.2591	145.2512	65535	64778.5
794.4008	147.4967	65535	64780.25
794.5425	149.7417	65535	64771.9
794.6842	151.9863	65535	64772.15
794.826	154.2304	65535	64760.45
794.9677	156.4739	65535	64766.55
795.1095	158.717	65535	64762.05
795.2513	160.9596	65535	64758.4
795.3931	163.2017	65535	64755.3
795.535	165.4433	65535	64754.7
795.6768	167.6844	65535	64754.65
795.8187	169.925	65535	64747.3
795.9606	172.1651	65535	64750
796.1025	174.4047	65535	64744.05
796.2445	176.6439	65535	64744.35
796.3864	178.8825	65535	64745.65
796.5284	181.1206	65535	64734.75
796.6704	183.3582	65535	64732.55
796.8124	185.5954	65535	64730.1
796.9544	187.832	65535	64729.95
797.0965	190.0681	65535	64721.75
797.2386	192.3037	65535	64724.9
797.3806	194.5388	65535	64721.9
797.5228	196.7734	65535	64716.2
797.6649	199.0075	65535	64710.35
797.807	201.2411	65535	64711.45
797.9492	203.4742	65535	64711
798.0914	205.7068	65535	64703.2
798.2336	207.9389	65535	64708.45
798.3758	210.1704	65535	64706.55
798.518	212.4015	65535	64706.05
798.6603	214.632	65535	64701.5
798.8025	216.862	65535	64708.3
798.9448	219.0915	65535	64718.95
799.0871	221.3205	65535	64721.1
799.2294	223.549	65535	64724.1
799.3718	225.777	65535	64724.25
799.5141	228.0044	65535	64718.7
799.6565	230.2314	65535	64721.4
799.7989	232.4578	65535	64723.15
799.9413	234.6837	65535	64717.9
800.0837	236.909	65535	64716.85
800.2262	239.1339	65535	64689.2
800.3687	241.3582	65535	64701.55
800.5111	243.582	65535	64675
800.6536	245.8053	65535	64682.4
800.7961	248.0281	65535	64690.65
800.9387	250.2503	65535	64686.5
801.0812	252.472	65535	64677.05
801.2238	254.6932	65535	64684.6
801.3664	256.9139	65535	64681.8
801.509	259.134	65535	64671.9
801.6516	261.3536	65535	64678.5
801.7942	263.5727	65535	64670.4
801.9369	265.7912	65535	64674
802.0795	268.0092	65535	64675.2
802.2222	270.2267	65535	64676.75
802.3649	272.4436	65535	64677.7
802.5076	274.6601	65535	64670.8
802.6504	276.8759	65535	64673.15
802.7931	279.0913	65535	64670.6
802.9359	281.3061	65535	64663.7
803.0787	283.5204	65535	64664.25
803.2215	285.7341	65535	64662.2
803.3643	287.9473	65535	64650.3
803.5071	290.16	65535	64658.3
803.6499	292.3721	65535	64664.05
803.7928	294.5837	65535	64660.15
803.9357	296.7947	65535	64656.6
804.0786	299.0052	65535	64662.8
804.2215	301.2152	65535	64658.45
804.3644	303.4246	65535	64666.05
804.5074	305.6334	65535	64662.7
804.6503	307.8418	65535	64656.05
804.7933	310.0495	65535	64656.2
804.9363	312.2568	65535	64652.75
805.0793	314.4635	65535	64655.15
805.2223	316.6696	65535	64651.05
805.3653	318.8752	65535	64648.2
805.5084	321.0802	65535	64655.15
805.6514	323.2847	65535	64649.35
805.7945	325.4887	65535	64647.5
805.9376	327.692	65535	64647.25
806.0807	329.8949	65535	64649.1
806.2238	332.0972	65535	64645.4
806.367	334.2989	65535	64642.75
806.5101	336.5001	65535	64642.8
806.6533	338.7007	65535	64640.65
806.7965	340.9008	65535	64641.4
806.9397	343.1003	65535	64642.1
807.0829	345.2992	65535	64638.3
807.2261	347.4976	65535	64635.4
807.3693	349.6955	65535	64633.35
807.5126	351.8927	65535	64635.05
807.6559	354.0895	65535	64619.6
807.7991	356.2856	65535	64632.15
807.9424	358.4812	65535	64635.8
808.0857	360.6763	65535	64634.3
808.2291	362.8707	65535	64630.5
808.3724	365.0646	65535	64627.75
808.5158	367.258	65535	64627.1
808.6591	369.4508	65535	64626
808.8025	371.643	65535	64619.05
808.9459	373.8346	65535	64620.4
809.0893	376.0257	65535	64619.75
809.2327	378.2162	65535	64624.95
809.3762	380.4062	65535	64618.35
809.5196	382.5956	65535	64620.4
809.6631	384.7844	65535	64625.2
809.8066	386.9726	65535	64621.45
809.9501	389.1603	65535	64620.5
810.0936	391.3474	65535	64587.25
810.2371	393.5339	65535	64621.1
810.3806	395.7199	65535	64627.05
810.5241	397.9052	65535	64627.1
810.6677	400.09	65535	64626.1
810.8113	402.2743	65535	64628.65
810.9548	404.4579	65535	64628.75
811.0984	406.641	65535	64629.35
811.2421	408.8235	65535	64629.25
811.3857	411.0054	65535	64630.65
811.5293	413.1868	65535	64624.25
811.673	415.3675	65535	64623.55
811.8166	417.5477	65535	64624.1
811.9603	419.7273	65535	64616.95
812.104	421.9064	65535	64611.85
812.2477	424.0848	65535	64616.95
812.3914	426.2627	65535	64616.85
812.5351	428.4399	65535	64616.4
812.6788	430.6166	65535	64608.3
812.8226	432.7928	65535	64611.8
812.9663	434.9683	65535	64615.8
813.1101	437.1432	65535	64618.55
813.2539	439.3176	65535	64618.15
813.3977	441.4914	65535	64622.4
813.5415	443.6645	65535	64620.25
813.6853	445.8371	65535	64617.9
813.8291	448.0091	65535	64613.7
813.973	450.1806	65535	64620.1
814.1168	452.3514	65535	64618.85
814.2607	454.5216	65535	64609.7
814.4046	456.6913	65535	64613.45
814.5485	458.8603	65535	64616.5
814.6924	461.0288	65535	64619.45
814.8363	463.1967	65535	64622.2
814.9802	465.3639	65535	64618.05
815.1241	467.5306	65535	64620.95
815.2681	469.6967	65535	64620.85
815.412	471.8622	65535	64623.5
815.556	474.0271	65535	64620.6
815.7	476.1914	65535	64613.15
815.844	478.3551	65535	64613.15
815.988	480.5182	65535	64615.35
816.132	482.6807	65535	64621.35
816.276	484.8426	65535	64632.05
816.4201	487.0039	65535	64620
816.5641	489.1647	65535	64615.3
816.7082	491.3248	65535	64612.95
816.8522	493.4843	65535	64624.9
816.9963	495.6432	65535	64618.1
817.1404	497.8015	65535	64609.65
817.2845	499.9592	65535	64605.7
817.4286	502.1163	65535	64605.1
817.5727	504.2728	65535	64613
817.7168	506.4287	65535	64624.9
817.861	508.5839	65535	64622.8
818.0051	510.7386	65535	64620
818.1493	512.8927	65535	64606.35
818.2935	515.0461	65535	64610.9
818.4377	517.199	65535	64604.75
818.5818	519.3512	65535	64605.65
818.726	521.5029	65535	64603.9
818.8703	523.6539	65535	64609.5
819.0145	525.8043	65535	64610.6
819.1587	527.9541	65535	64601.45
819.303	530.1033	65535	64609.9
819.4472	532.2519	65535	64606.75
819.5915	534.3999	65535	64602.95
819.7357	536.5472	65535	64610.55
819.88	538.694	65535	64613.85
820.0243	540.8401	65535	64603.85
820.1686	542.9856	65535	64598.05
820.3129	545.1305	65535	64590.5
820.4572	547.2748	65535	64584.15
820.6016	549.4185	65535	64586.2
820.7459	551.5615	65535	64587.85
820.8902	553.704	65535	64591.55
821.0346	555.8458	65535	64594
821.1789	557.987	65535	64593.2
821.3233	560.1276	65535	64594.1
821.4677	562.2675	65535	64594.3
821.6121	564.4069	65535	64594.25
821.7565	566.5456	65535	64595.55
821.9009	568.6837	65535	64598.95
822.0453	570.8212	65535	64597
822.1897	572.958	65535	64597.85
822.3342	575.0942	65535	64602.1
822.4786	577.2299	65535	64609.8
822.6231	579.3648	65535	64619.2
822.7675	581.4992	65535	64627.2
822.912	583.6329	65535	64626.6
823.0565	585.766	65535	64622.5
823.201	587.8985	65535	64616.45
823.3454	590.0304	65535	64597.75
823.4899	592.1616	65535	64595.65
823.6345	594.2922	65535	64596.25
823.779	596.4222	65535	64588.15
823.9235	598.5515	65535	64593.95
824.068	600.6802	65535	64592.45
824.2126	602.8083	65535	64595.95
824.3571	604.9358	65535	64593.5
824.5017	607.0626	65535	64588.75
824.6462	609.1888	65535	64584.5
824.7908	611.3144	65535	64583.25
824.9354	613.4393	65535	64590.3
825.08	615.5636	65535	64588.95
825.2246	617.6873	65535	64590.1
825.3692	619.8103	65535	64588.8
825.5138	621.9327	65535	64590.75
825.6584	624.0544	65535	64594.65
825.803	626.1756	65535	64596
825.9477	628.2961	65535	64589.5
826.0923	630.4159	65535	64591.1
826.237	632.5351	65535	64587.65
826.3816	634.6537	65535	64590.75
826.5263	636.7716	65535	64581.45
826.6709	638.8889	65535	64578.65
826.8156	641.0056	65535	64583.05
826.9603	643.1216	65535	64584.75
827.105	645.237	65535	64582.75
827.2497	647.3518	65535	64596.5
827.3944	649.4659	65535	64599.5
827.5391	651.5793	65535	64597.15
827.6838	653.6922	65535	64595.15
827.8285	655.8043	65535	64590.5
827.9733	657.9159	65535	64588.75
828.118	660.0268	65535	64591.35
828.2627	662.137	65535	64587.2
828.4075	664.2466	65535	64583.15
828.5522	666.3556	65535	64590.1
828.697	668.4639	65535	64591.75
828.8418	670.5716	65535	64600.4
828.9865	672.6786	65535	64589.5
829.1313	674.785	65535	64581.65
829.2761	676.8907	65535	64588.35
829.4209	678.9958	65535	64592.6
829.5657	681.1002	65535	64586.95
829.7105	683.204	65535	64579.25
829.8553	685.3072	65535	64580
830.0001	687.4097	65535	64578.65
830.1449	689.5115	65535	64584.6
830.2898	691.6127	65535	64585.5
830.4346	693.7132	65535	64591.65
830.5794	695.8131	65535	64563.2
830.7243	697.9123	65535	64572.8
830.8691	700.0109	65535	64576.6
831.014	702.1089	65535	64584.3
831.1588	704.2061	65535	64579.55
831.3037	706.3028	65535	64580.15
831.4486	708.3987	65535	64578.75
831.5935	710.4941	65535	64580.8
831.7383	712.5887	65535	64583.15
831.8832	714.6827	65535	64581.85
832.0281	716.7761	65535	64588.3
832.173	718.8688	65535	64583.45
832.3179	720.9608	65535	64579.6
832.4628	723.0522	65535	64574.25
832.6077	725.1429	65535	64578.3
832.7527	727.233	65535	64581.25
832.8976	729.3224	65535	64581
833.0425	731.4112	65535	64580.3
833.1874	733.4993	65535	64577.15
833.3324	735.5867	65535	64582.15
833.4773	737.6735	65535	64583.65
833.6222	739.7596	65535	64578.1
833.7672	741.845	65535	64579.4
833.9122	743.9298	65535	64578.3
834.0571	746.014	65535	64579.1
834.2021	748.0974	65535	64575.3
834.347	750.1802	65535	64575.85
834.492	752.2624	65535	64570.15
834.637	754.3439	65535	64572.45
834.782	756.4247	65535	64566.4
834.9269	758.5048	65535	64574.1
835.0719	760.5843	65535	64572.15
835.2169	762.6631	65535	64575
835.3619	764.7413	65535	64574.6
835.5069	766.8188	65535	64578.7
835.6519	768.8956	65535	64575.2
835.7969	770.9718	65535	64577.55
835.9419	773.0473	65535	64575.55
836.0869	775.1221	65535	64578.7
836.232	777.1962	65535	64576.1
836.377	779.2697	65535	64572.1
836.522	781.3426	65535	64553.3
836.667	783.4147	65535	64572.3
836.8121	785.4862	65535	64575.4
836.9571	787.557	65535	64572.55
837.1021	789.6271	65535	64569.35
837.2472	791.6966	65535	64572.9
837.3922	793.7654	65535	64573.15
837.5373	795.8335	65535	64574.35
837.6823	797.901	65535	64573.85
837.8274	799.9678	65535	64573.1
837.9724	802.0339	65535	64571.35
838.1175	804.0993	65535	64560.8
838.2626	806.1641	65535	64573.05
838.4076	808.2282	65535	64574.6
838.5527	810.2916	65535	64570.85
838.6978	812.3544	65535	64575.3
838.8428	814.4164	65535	64573.1
838.9879	816.4778	65535	64569.3
839.133	818.5385	65535	64569.45
839.2781	820.5986	65535	64572.15
839.4232	822.658	65535	64573.55
839.5682	824.7166	65535	64570.75
839.7133	826.7747	65535	64575.6
839.8584	828.832	65535	64568.15
840.0035	830.8886	65535	64570.95
840.1486	832.9446	65535	64567.8
840.2937	834.9999	65535	64576
840.4388	837.0545	65535	64568.2
840.5839	839.1085	65535	64573.1
840.729	841.1618	65535	64569.5
840.8741	843.2143	65535	64569.2
841.0192	845.2662	65535	64571.8
841.1643	847.3175	65535	64571.3
841.3095	849.368	65535	64570.75
841.4546	851.4179	65535	64567.35
841.5997	853.467	65535	64571.75
841.7448	855.5155	65535	64572
841.8899	857.5633	65534.85	64570.1
842.0351	859.6105	65531.7	64566.5
842.1802	861.6569	65535	64575.1
842.3253	863.7027	65526.25	64558.55
842.4704	865.7478	65526.05	64559.05
842.6156	867.7922	65527.1	64563.5
842.7607	869.8359	65533.7	64566.85
842.9058	871.8789	65521.35	64555
843.0509	873.9212	65528.35	64531.3
843.1961	875.9629	65533.1	64567.4
843.3412	878.0039	65525.9	64558.7
843.4863	880.0441	65525.5	64561.65
843.6315	882.0837	65525.25	64562.15
843.7766	884.1226	65521.5	64557.65
843.9218	886.1609	65518.5	64556.15
844.0669	888.1984	65495.2	64529.95
844.212	890.2352	65519.65	64553
844.3572	892.2714	65479.9	64507.7
844.5023	894.3069	65502.2	64532.35
844.6475	896.3416	65470.15	64503.85
844.7926	898.3757	65471.75	64507.2
844.9377	900.4091	65364.55	64399.85
845.0829	902.4418	65502.6	64533.45
845.228	904.4739	65441.55	64474.55
845.3732	906.5052	65445.75	64478.5
845.5183	908.5358	65394	64428.2
845.6635	910.5658	65355.75	64387.1
845.8086	912.595	65368.05	64399.05
845.9538	914.6236	65144.55	64176
846.0989	916.6515	65420.05	64454.55
846.2441	918.6786	65116.85	64145.95
846.3892	920.7051	65235.65	64266.75
846.5344	922.7309	65185.85	64216.65
846.6795	924.756	65233	64269.6
846.8246	926.7804	65141.05	64172.5
846.9698	928.8041	64775.15	63807.1
847.1149	930.8272	65043.15	64075.85
847.2601	932.8495	65035.8	64067.65
847.4052	934.8711	64781.1	63810.95
847.5504	936.892	64539.95	63571.65
847.6955	938.9123	64719.35	63752.6
847.8407	940.9318	64488.35	63523.05
847.9858	942.9506	64433.9	63469.9
848.131	944.9688	64490.65	63522.15
848.2761	946.9862	63893.45	62923.95
848.4213	949.003	64198.25	63231.05
848.5664	951.019	63597.3	62632.45
848.7115	953.0344	63739.8	62774.6
848.8567	955.0491	63617.05	62651.7
849.0018	957.063	63900.45	62933.55
849.147	959.0763	63937.95	62966.2
849.2921	961.0888	63461.05	62496.1
849.4373	963.1007	63824.7	62860.25
849.5824	965.1119	63824.95	62868.05
849.7275	967.1223	63396.15	62448.4
849.8727	969.1321	63904.75	62954.25
850.0178	971.1412	63236.4	62278.3
850.1629	973.1495	62946.2	61981.4
850.3081	975.1572	63332.45	62312.4
850.4532	977.1641	63011.15	62042.8
850.5983	979.1704	62978.5	62011.95
850.7435	981.1759	63020.05	62045.2
850.8886	983.1808	62556.15	61589.4
851.0337	985.1849	62605.1	61625.4
851.1788	987.1884	62816	61849.95
851.324	989.1911	63227.75	62266
851.4691	991.1932	62076.5	61112.4
851.6142	993.1945	62374.95	61414.55
851.7593	995.1951	62694.25	61731.3
851.9045	997.1951	61990.15	61019.5
852.0496	999.1943	61814.65	60847.05
852.1947	1001.1928	61552	60585.05
852.3398	1003.1906	61713.55	60749.05
852.4849	1005.1877	60828.25	59864.7
852.63	1007.1841	60553.2	59593
852.7751	1009.1798	60596.05	59632.85
852.9202	1011.1748	60471.9	59509.2
853.0653	1013.1691	60210.9	59249.3
853.2104	1015.1627	58729.8	57764.6
853.3555	1017.1556	59132.3	58172.9
853.5006	1019.1477	59380.85	58421.95
853.6457	1021.1392	58670.4	57714
853.7908	1023.1299	57809.35	56857.45
853.9359	1025.12	58305.25	57361.9
854.081	1027.1093	57779.1	56844.6
854.2261	1029.0979	57733.45	56800.95
854.3712	1031.0859	57623.8	56683.2
854.5163	1033.0731	56915.05	55963.4
854.6613	1035.0596	57085	56131.3
854.8064	1037.0454	56836.05	55879.55
854.9515	1039.0304	56300.8	55344
855.0965	1041.0148	55568.4	54611.85
855.2416	1042.9985	55630.9	54670.05
855.3867	1044.9814	55919.4	54963.1
855.5317	1046.9636	55193.65	54232.2
855.6768	1048.9452	55119.55	54161.75
855.8219	1050.926	55039.15	54083.8
855.9669	1052.9061	54866.85	53908.1
856.112	1054.8855	54845.5	53883.15
856.257	1056.8642	54409.15	53451.6
856.4021	1058.8421	54203.05	53239.7
856.5471	1060.8194	54153.95	53192.8
856.6921	1062.7959	53973.05	53010.85
856.8372	1064.7717	54125	53165.65
856.9822	1066.7469	53831.3	52869.9
857.1272	1068.7213	53730.25	52768.6
857.2723	1070.695	53395.4	52438.7
857.4173	1072.6679	52948.25	51987.55
857.5623	1074.6402	53004.2	52041.95
857.7073	1076.6117	52795.5	51829.75
857.8523	1078.5826	52752.8	51791.65
857.9973	1080.5527	52707.25	51746.25
858.1423	1082.5221	52624.05	51662.75
858.2873	1084.4908	52770.25	51808.6
858.4323	1086.4587	52749.85	51790.35
858.5773	1088.426	52786.25	51821.75
858.7223	1090.3925	52631.75	51665.8
858.8673	1092.3584	52427.7	51470.9
859.0123	1094.3235	51897.25	50937.75
859.1573	1096.2879	51680.95	50722
859.3022	1098.2515	51565.55	50604.85
859.4472	1100.2145	51468.65	50509.85
859.5922	1102.1767	51322.95	50363.75
859.7371	1104.1382	51379.15	50423.6
859.8821	1106.099	51377.15	50417.35
860.027	1108.0591	51355.8	50397.05
860.172	1110.0185	51127.7	50166.75
860.3169	1111.9771	51256.75	50301.05
860.4619	1113.9351	50822.75	49861.8
860.6068	1115.8923	50304.6	49345
860.7517	1117.8488	49708	48749.5
860.8967	1119.8045	49196.5	48238.15
861.0416	1121.7596	49024.7	48064.75
861.1865	1123.7139	48726.65	47771.05
861.3314	1125.6675	48671.8	47713.3
861.4763	1127.6204	48692.9	47735.4
861.6212	1129.5726	48505.6	47545.85
861.7661	1131.524	48478.6	47522.35
861.911	1133.4748	48454.2	47494.4
862.0559	1135.4248	48260.5	47303.55
862.2008	1137.3741	48190.4	47231.85
862.3457	1139.3226	48057.85	47099.1
862.4905	1141.2705	47961.75	47002.6
862.6354	1143.2176	47667.25	46706.35
862.7803	1145.164	47576	46617.3
862.9251	1147.1097	47494.25	46537.95
863.07	1149.0546	47356.1	46396.6
863.2148	1150.9989	47256.85	46300.1
863.3597	1152.9424	46999.9	46038.9
863.5045	1154.8852	46645.65	45684.85
863.6493	1156.8272	46372.7	45413.9
863.7942	1158.7686	46353.75	45392
863.939	1160.7092	46037.7	45078.1
864.0838	1162.6491	45815.7	44859.2
864.2286	1164.5883	45813.8	44859
864.3734	1166.5267	45721.15	44763.7
864.5182	1168.4644	45861.3	44905.75
864.663	1170.4014	45833.85	44872.95
864.8078	1172.3377	46043.75	45087.35
864.9526	1174.2732	46144.1	45191.15
865.0974	1176.2081	46251.9	45293.45
865.2421	1178.1421	46165.6	45206.6
865.3869	1180.0755	46307.2	45355.3
865.5317	1182.0082	46062	45109
865.6764	1183.9401	45903.85	44951.55
865.8212	1185.8713	45567.4	44620.15
865.9659	1187.8017	45244.2	44302.5
866.1106	1189.7315	44997.25	44067.3
866.2554	1191.6605	44448.6	43512.3
866.4001	1193.5888	44018.8	43079.85
866.5448	1195.5163	43845.55	42900.35
866.6895	1197.4432	43645.1	42692.9
866.8342	1199.3693	43423.8	42475.3
866.9789	1201.2947	43166.1	42208.65
867.1236	1203.2193	43050.6	42095.6
867.2683	1205.1432	42973.2	42020.8
867.413	1207.0664	42855.05	41901.55
867.5576	1208.9889	42745.25	41790.35
867.7023	1210.9106	42653.25	41699.2
867.847	1212.8316	42606.8	41654.4
867.9916	1214.7519	42546.65	41583.05
868.1363	1216.6715	42412.7	41459.8
868.2809	1218.5903	42236.45	41285.2
868.4255	1220.5084	42083.95	41128.75
868.5701	1222.4257	42039.5	41086.25
868.7148	1224.3424	41698	40746.45
868.8594	1226.2583	41655.9	40702.1
869.004	1228.1735	41612.55	40663.85
869.1486	1230.0879	41540.85	40584.85
869.2932	1232.0016	41533.7	40580.3
869.4377	1233.9146	41461	40506.75
869.5823	1235.8269	41261.5	40313.2
869.7269	1237.7384	41068.25	40113.2
869.8715	1239.6492	40649.9	39702.05
870.016	1241.5592	40504.95	39553.25
870.1606	1243.4686	40244.25	39294.55
870.3051	1245.3772	40100.35	39148.55
870.4496	1247.285	39880.85	38927.85
870.5941	1249.1922	39699.85	38750.45
870.7387	1251.0986	39610.5	38661.55
870.8832	1253.0042	39387.35	38437.4
871.0277	1254.9092	39396.95	38446.25
871.1722	1256.8134	39363.65	38417.35
871.3167	1258.7169	39472.45	38522.95
871.4611	1260.6196	39493.75	38547.1
871.6056	1262.5216	39608.35	38656.65
871.7501	1264.4229	39606.9	38659.3
871.8945	1266.3234	39724.05	38778.55
872.039	1268.2232	39668	38718.3
872.1834	1270.1223	39547.2	38597.45
872.3278	1272.0207	39391.35	38442
872.4723	1273.9183	39242	38284.75
872.6167	1275.8151	39034.45	38086.85
872.7611	1277.7113	38897.8	37949.2
872.9055	1279.6067	38584.5	37639.7
873.0499	1281.5014	38338.1	37391.4
873.1943	1283.3953	38063.9	37112.05
873.3386	1285.2885	37906.2	36960.5
873.483	1287.181	37733.15	36784.8
873.6274	1289.0727	37690.25	36743.1
873.7717	1290.9637	37595.15	36648.35
873.9161	1292.854	37726.75	36780
874.0604	1294.7435	37740.55	36792.35
874.2047	1296.6323	37854.2	36909.75
874.349	1298.5204	38024.85	37071.75
874.4933	1300.4077	38220.95	37268.8
874.6376	1302.2943	38314.55	37370.5
874.7819	1304.1802	38380.45	37435
874.9262	1306.0653	38204.3	37254.15
875.0705	1307.9497	37976.8	37026.75
875.2147	1309.8333	37847	36902.15
875.359	1311.7162	37796.5	36847.9
875.5032	1313.5984	37844.9	36893
875.6475	1315.4798	37844.55	36882.15
875.7917	1317.3605	37902.2	36950.3
875.9359	1319.2405	38064.8	37116
876.0801	1321.1197	37974.95	37026.15
876.2243	1322.9982	37783.2	36830.6
876.3685	1324.876	37753.1	36806.6
876.5127	1326.753	37679.45	36734.4
876.6569	1328.6293	37675.95	36725.45
876.801	1330.5048	37649.35	36698.85
876.9452	1332.3796	37521.1	36572.5
877.0893	1334.2537	37471.4	36501.65
877.2335	1336.127	37250.2	36304.05
877.3776	1337.9996	37179	36235.6
877.5217	1339.8714	37020.9	36071.55
877.6658	1341.7426	36902.5	35909.05
877.8099	1343.6129	36764.25	35818.4
877.954	1345.4826	36585.15	35637.05
878.0981	1347.3515	36523	35573.3
878.2422	1349.2196	36395.85	35448.55
878.3862	1351.087	36374.05	35424.9
878.5303	1352.9537	36303.3	35354.3
878.6743	1354.8197	36396.4	35449.9
878.8184	1356.6849	36521.85	35573.65
878.9624	1358.5493	36459.8	35514.55
879.1064	1360.4131	36378.4	35431.45
879.2504	1362.276	36195.8	35252.8
879.3944	1364.1383	35927.95	34978.45
879.5384	1365.9998	35569.75	34620.45
879.6823	1367.8606	35164.55	34215.25
879.8263	1369.7206	34907.1	33960.6
879.9702	1371.5799	34645	33694.8
880.1142	1373.4384	34424.5	33477.05
880.2581	1375.2962	34302.95	33354.35
880.402	1377.1533	33879	32937.55
880.5459	1379.0096	33491.2	32547.25
880.6898	1380.8652	33111.45	32170.5
880.8337	1382.7201	32813.3	31872.4
880.9776	1384.5742	32511.05	31565.1
881.1215	1386.4275	32216.65	31271.9
881.2653	1388.2802	32053.4	31107.4
881.4092	1390.132	31852.1	30907.1
881.553	1391.9832	31734.8	30788.9
881.6968	1393.8336	31493.35	30546.35
881.8406	1395.6832	31382.85	30436.35
881.9844	1397.5322	31265.85	30320.85
882.1282	1399.3803	31140.1	30191.65
882.272	1401.2278	30959.85	30016.75
882.4158	1403.0745	30868.7	29925.8
882.5595	1404.9204	30702.75	29759.2
882.7033	1406.7656	30705.9	29759.3
882.847	1408.6101	30550.3	29602.8
882.9908	1410.4538	30426.7	29484.45
883.1345	1412.2968	30427.1	29481.9
883.2782	1414.139	30316.1	29372.5
883.4219	1415.9805	30313.4	29372.35
883.5656	1417.8213	30301.25	29337.2
883.7092	1419.6613	30322.4	29381.6
883.8529	1421.5006	30430.65	29490.8
883.9965	1423.3391	30626.5	29681.3
884.1402	1425.1769	30794.6	29852.7
884.2838	1427.0139	31267.1	30322.05
884.4274	1428.8502	31821.95	30878.75
884.571	1430.6858	32346.3	31406.2
884.7146	1432.5206	32614.35	31674.15
884.8582	1434.3547	32903.4	31959.45
885.0018	1436.188	32802.5	31859.1
885.1453	1438.0206	32690.2	31747.65
885.2889	1439.8524	32444.6	31502.7
885.4324	1441.6835	32300.1	31356
885.5759	1443.5139	32140.6	31193.9
885.7194	1445.3435	32003.3	31067.2
885.8629	1447.1724	31904.5	30964.2
886.0064	1449.0005	31777.6	30837.9
886.1499	1450.8279	31564.65	30624.45
886.2933	1452.6545	31494.75	30554.25
886.4368	1454.4804	31518	30578.7
886.5802	1456.3056	31395.25	30449.85
886.7237	1458.13	31270.5	30333.1
886.8671	1459.9536	31053.45	30113.05
887.0105	1461.7766	30629.65	29689.35
887.1539	1463.5987	30129.3	29188.15
887.2972	1465.4202	29654.25	28712.55
887.4406	1467.2409	29255.75	28313.4
887.584	1469.0608	28964.55	28026.85
887.7273	1470.88	28697.9	27755.8
887.8706	1472.6984	28419.7	27477.25
888.0139	1474.5161	28101.3	27160.75
888.1572	1476.3331	27842.85	26901.1
888.3005	1478.1493	27707.35	26765.2
888.4438	1479.9648	27585.85	26644.45
888.5871	1481.7795	27474.55	26534.9
888.7303	1483.5935	27362.65	26423.8
888.8736	1485.4067	27240.75	26302.05
889.0168	1487.2192	27145.45	26207
889.16	1489.031	27089.65	26149.55
889.3032	1490.842	26947.35	26005.05
889.4464	1492.6522	26912.7	25974.35
889.5896	1494.4618	26733.75	25790.55
889.7327	1496.2705	26734.15	25796.45
889.8759	1498.0785	26642.5	25700.15
890.019	1499.8858	26582.75	25643.95
890.1622	1501.6924	26479.6	25544.2
890.3053	1503.4981	26469.2	25531.35
890.4484	1505.3032	26366.05	25425.35
890.5914	1507.1075	26284.95	25346.95
890.7345	1508.911	26209.6	25268.1
890.8776	1510.7138	26148.15	25206.4
891.0206	1512.5159	26014.9	25075.4
891.1637	1514.3172	25933.65	24998.65
891.3067	1516.1178	25803.75	24866.05
891.4497	1517.9176	25731.8	24791.45
891.5927	1519.7166	25613	24677.95
891.7357	1521.515	25525.8	24583.35
891.8786	1523.3126	25446.2	24513.4
892.0216	1525.1094	25389.85	24452.6
892.1645	1526.9055	25286.1	24349.15
892.3074	1528.7008	25199.3	24262.65
892.4503	1530.4954	25032.45	24093.65
892.5932	1532.2893	25011.55	24080.05
892.7361	1534.0824	24836.15	23898.85
892.879	1535.8747	24821.55	23891.25
893.0218	1537.6663	24721.9	23790.3
893.1647	1539.4572	24610.75	23678.4
893.3075	1541.2473	24604.45	23672.3
893.4503	1543.0367	24453.3	23524.6
893.5931	1544.8253	24383.95	23450.55
893.7359	1546.6132	24358.6	23423.4
893.8787	1548.4003	24218.45	23278.7
894.0214	1550.1867	24200.45	23262.05
894.1642	1551.9723	24124.45	23188.5
894.3069	1553.7572	24080.55	23149.5
894.4496	1555.5414	24025.7	23098.25
894.5923	1557.3247	24034.25	23108.3
894.735	1559.1074	23982.75	23059.55
894.8777	1560.8893	23940.35	23017.6
895.0204	1562.6705	23941.85	23018.2
895.163	1564.4509	23918.4	22993.85
895.3056	1566.2305	23948.95	23028.95
895.4482	1568.0094	24043.5	23126.05
895.5908	1569.7876	24093.25	23170.65
895.7334	1571.565	24081.35	23157.7
895.876	1573.3417	24145.05	23220.9
896.0186	1575.1176	24021.5	23097.65
896.1611	1576.8928	23989.5	23070.1
896.3036	1578.6672	23820.2	22902.75
896.4461	1580.4409	23621.8	22710
896.5886	1582.2138	23439.8	22520.75
896.7311	1583.986	23291.4	22369.3
896.8736	1585.7575	23165.3	22245.15
897.0161	1587.5282	22999.35	22078.95
897.1585	1589.2981	22872.4	21957.55
897.3009	1591.0673	22732.8	21819.8
897.4433	1592.8358	22667.35	21752.6
897.5857	1594.6035	22653.1	21733
897.7281	1596.3704	22556.75	21635.3
897.8705	1598.1366	22494.2	21573.35
898.0128	1599.9021	22482.4	21566.8
898.1551	1601.6668	22418.05	21498.6
898.2975	1603.4308	22357.8	21436.35
898.4398	1605.194	22368	21445.6
898.5821	1606.9564	22387.3	21478.25
898.7243	1608.7182	22443	21532
898.8666	1610.4791	22524.65	21620.65
899.0088	1612.2394	22609	21706.3
899.1511	1613.9988	22700.55	21795.05
899.2933	1615.7576	22859.7	21950.7
899.4355	1617.5156	23049.6	22126.8
899.5776	1619.2728	23285.15	22367.5
899.7198	1621.0293	23391.65	22476.35
899.862	1622.785	23448.2	22534.2
900.0041	1624.54	23282.05	22372.25
900.1462	1626.2942	23113.55	22201.9
900.2883	1628.0477	22740	21825.5
900.4304	1629.8005	22478.9	21563.5
900.5725	1631.5525	22175.15	21263.55
900.7145	1633.3037	21934.25	21025.35
900.8566	1635.0542	21751.65	20843.1
900.9986	1636.804	21520.2	20611.95
901.1406	1638.553	21471.45	20496.8
901.2826	1640.3013	21283.35	20373.25
901.4245	1642.0488	21128.05	20216.6
901.5665	1643.7955	21103.3	20196.5
901.7085	1645.5416	21085.55	20176.3
901.8504	1647.2868	21100.95	20190.2
901.9923	1649.0313	21089.15	20178.25
902.1342	1650.7751	21175.45	20262
902.2761	1652.5181	21342.3	20435.65
902.4179	1654.2604	21465.8	20555.95
902.5598	1656.0019	21707.4	20803.35
902.7016	1657.7427	22007.7	21097.85
902.8434	1659.4828	22349.55	21436.05
902.9852	1661.222	22565.75	21652.85
903.127	1662.9606	22553.35	21640.95
903.2687	1664.6984	22361.4	21447.65
903.4105	1666.4354	22024.4	21109.8
903.5522	1668.1717	21572.55	20654.25
903.6939	1669.9072	21051.95	20134.75
903.8356	1671.642	20668.1	19750.3
903.9773	1673.3761	20336.6	19422.5
904.119	1675.1094	20047.15	19135.8
904.2606	1676.8419	19828	18917.25
904.4022	1678.5737	19633.75	18719.5
904.5439	1680.3048	19481.55	18568.05
904.6855	1682.0351	19325.6	18416.4
904.827	1683.7646	19190.55	18275.05
904.9686	1685.4934	19122.9	18212.7
905.1101	1687.2215	19010.85	18101.35
905.2517	1688.9488	18883.5	17976.1
905.3932	1690.6754	18787.5	17878.95
905.5347	1692.4012	18784.5	17875.65
905.6761	1694.1263	18709.1	17798.45
905.8176	1695.8506	18647.45	17736.6
905.9591	1697.5742	18560.75	17653.9
906.1005	1699.297	18459.4	17554.7
906.2419	1701.0191	18351.95	17447.3
906.3833	1702.7404	18261.4	17354
906.5246	1704.461	18171.25	17261.9
906.666	1706.1808	18098.9	17189.65
906.8073	1707.8999	18077.25	17172.7
906.9487	1709.6182	17967.25	17063.25
907.09	1711.3358	17921.6	17019.95
907.2313	1713.0527	17808.9	16907.05
907.3725	1714.7688	17776	16867.2
907.5138	1716.4841	17706.1	16799.1
907.655	1718.1987	17693.4	16784.35
907.7962	1719.9126	17611.7	16708.45
907.9374	1721.6257	17544.7	16641.85
908.0786	1723.338	17503.65	16601.9
908.2198	1725.0496	17388.55	16485.35
908.3609	1726.7605	17365.65	16460.35
908.502	1728.4706	17301.5	16397
908.6431	1730.18	17207.35	16304.75
908.7842	1731.8886	17165.8	16265.75
908.9253	1733.5964	17144.95	16222.65
909.0664	1735.3036	17093.35	16189
909.2074	1737.0099	17050.2	16149.1
909.3484	1738.7156	17006	16106.3
909.4894	1740.4204	16889.75	15987.75
909.6304	1742.1246	16863.1	15961.05
909.7714	1743.8279	16812.75	15912.3
909.9123	1745.5306	16800.3	15899.45
910.0532	1747.2325	16742.2	15843.3
910.1941	1748.9336	16672.35	15771.55
910.335	1750.634	16625.3	15720.2
910.4759	1752.3336	16586.5	15686.8
910.6168	1754.0325	16568.2	15670.35
910.7576	1755.7307	16479.95	15581.6
910.8984	1757.4281	16494.05	15592.75
911.0392	1759.1247	16458.05	15547.05
911.18	1760.8206	16393.15	15484.3
911.3208	1762.5158	16375.3	15468.1
911.4615	1764.2102	16272.45	15371.6
911.6022	1765.9039	16264.1	15366.4
911.7429	1767.5968	16212	15316.55
911.8836	1769.289	16205.6	15304.25
912.0243	1770.9804	16148.75	15247.3
912.1649	1772.6711	16110.95	15208.3
912.3056	1774.361	16064.9	15159.85
912.4462	1776.0502	16026.75	15122.25
912.5868	1777.7386	15972.3	15067.5
912.7274	1779.4263	15936.95	15037.9
912.8679	1781.1132	15895.65	14999
913.0084	1782.7994	15824.7	14927.95
913.149	1784.4849	15821.5	14925.55
913.2895	1786.1696	15724.05	14810.35
913.4299	1787.8535	15696.05	14800.35
913.5704	1789.5367	15663.8	14766.6
913.7108	1791.2192	15617.5	14718.5
913.8513	1792.9009	15620.35	14694.6
913.9917	1794.5818	15590.9	14688.6
914.132	1796.2621	15516.55	14617.2
914.2724	1797.9415	15479.3	14578
914.4128	1799.6202	15394	14492.8
914.5531	1801.2982	15391.95	14491
914.6934	1802.9755	15380.35	14476.9
914.8337	1804.6519	15347.2	14446.95
914.9739	1806.3277	15245.1	14345.5
915.1142	1808.0027	15180.05	14287.1
915.2544	1809.6769	15173.5	14279.3
915.3946	1811.3504	15127.85	14232.2
915.5348	1813.0231	15080.3	14183.55
915.675	1814.6951	15074.4	14178.85
915.8151	1816.3664	15093.45	14193.75
915.9553	1818.0369	15016.2	14117.9
916.0954	1819.7067	14971	14073.6
916.2355	1821.3757	14966.85	14065.25
916.3755	1823.044	14874.35	13974.55
916.5156	1824.7115	14874.55	13971.8
916.6556	1826.3783	14796.2	13898.1
916.7956	1828.0443	14743.6	13845.5
916.9356	1829.7096	14703.2	13802.8
917.0756	1831.3741	14704	13803.8
917.2155	1833.0379	14688.25	13793.75
917.3555	1834.701	14612.25	13716.75
917.4954	1836.3633	14601.55	13707.25
917.6353	1838.0248	14522.15	13624.95
917.7751	1839.6856	14502.9	13606.45
917.915	1841.3457	14502.1	13603.85
918.0548	1843.005	14445.95	13548.2
918.1946	1844.6636	14418.45	13520
918.3344	1846.3214	14407.55	13509.15
918.4742	1847.9785	14369.35	13472.4
918.6139	1849.6349	14355.6	13456.35
918.7537	1851.2904	14325.85	13416.5
918.8934	1852.9453	14276.35	13374.3
919.0331	1854.5994	14227	13325.75
919.1727	1856.2528	14244.75	13338.25
919.3124	1857.9054	14222.5	13321
919.452	1859.5572	14190.4	13292.3
919.5916	1861.2083	14168.15	13266.3
919.7312	1862.8587	14153.05	13253.8
919.8708	1864.5084	14115.95	13214.55
920.0103	1866.1572	14046.7	13146.05
920.1498	1867.8054	13959	13058.35
920.2893	1869.4528	13972.65	13072.15
920.4288	1871.0994	13921.1	13021.8
920.5683	1872.7453	13883.1	12981.2
920.7077	1874.3905	13860.65	12955.4
920.8471	1876.0349	13793.7	12894.75
920.9865	1877.6786	13799.9	12898.25
921.1259	1879.3215	13789.7	12890.85
921.2653	1880.9637	13758.45	12860
921.4046	1882.6051	13719.4	12820.95
921.5439	1884.2458	13693.15	12791.05
921.6832	1885.8858	13618.25	12722.05
921.8225	1887.525	13578.9	12680.7
921.9617	1889.1634	13532.95	12634.8
922.101	1890.8011	13472.3	12572.95
922.2402	1892.4381	13431.2	12533
922.3794	1894.0743	13434.05	12536.15
922.5185	1895.7098	13423.25	12523.55
922.6577	1897.3446	13373.4	12471.9
922.7968	1898.9786	13337.95	12433.2
922.9359	1900.6118	13322.05	12425.35
923.075	1902.2443	13239.25	12339.95
923.214	1903.8761	13216	12317.5
923.3531	1905.5071	13146.6	12248.25
923.4921	1907.1374	13105.55	12207.25
923.6311	1908.7669	13089.2	12191.45
923.77	1910.3957	13052.15	12155.85
923.909	1912.0237	12954.55	12058.35
924.0479	1913.651	12957.4	12059.7
924.1868	1915.2776	12922.7	12024.05
924.3257	1916.9034	12871.25	11973.85
924.4646	1918.5285	12814.15	11920.05
924.6034	1920.1528	12759.6	11862.45
924.7422	1921.7764	12738.3	11842.85
924.881	1923.3992	12688.3	11793.05
925.0198	1925.0213	12605.2	11709.35
925.1586	1926.6427	12595.05	11697.65
925.2973	1928.2633	12588.65	11625.4
925.436	1929.8832	12531.75	11630.65
925.5747	1931.5023	12482.35	11585.95
925.7134	1933.1207	12445.2	11547.95
925.852	1934.7383	12411.1	11515.15
925.9906	1936.3552	12392.4	11494.95
926.1292	1937.9714	12333.65	11436
926.2678	1939.5868	12277.1	11375.95
926.4064	1941.2015	12227.25	11327
926.5449	1942.8154	12177.35	11280.05
926.6834	1944.4286	12128.65	11230.6
926.8219	1946.041	12092.5	11175.65
926.9604	1947.6528	12030.55	11128.15
927.0988	1949.2637	12038.9	11143
927.2372	1950.8739	11977.25	11080.55
927.3756	1952.4834	11933.55	11038.4
927.514	1954.0921	11904.8	11009.4
927.6523	1955.7001	11867	10969.8
927.7907	1957.3074	11825.35	10932.7
927.929	1958.9139	11761.05	10869.15
928.0673	1960.5197	11759.2	10866.5
928.2055	1962.1247	11664.9	10771.15
928.3438	1963.729	11645.95	10753.5
928.482	1965.3325	11602.1	10685.3
928.6202	1966.9353	11580.05	10689.35
928.7584	1968.5374	11527.1	10632.65
928.8965	1970.1387	11476.95	10583.85
929.0346	1971.7393	11436.2	10541.75
929.1727	1973.3392	11412.15	10520.15
929.3108	1974.9383	11358.95	10468.85
929.4489	1976.5366	11307.05	10415.85
929.5869	1978.1342	11314.55	10421.15
929.7249	1979.7311	11296.75	10405.45
929.8629	1981.3273	11252.95	10363.25
930.0009	1982.9227	11212.55	10321.75
930.1388	1984.5173	11118.3	10228.85
930.2767	1986.1112	11107.5	10217.95
930.4146	1987.7044	11075.25	10186.6
930.5525	1989.2968	11037.65	10145.75
930.6904	1990.8885	11018.95	10127.15
930.8282	1992.4795	11011.3	10120.6
930.966	1994.0697	10920.95	10033.2
931.1038	1995.6592	10881.45	9993.55
931.2415	1997.2479	10885.55	9994.95
931.3793	1998.8359	10838.85	9952.15
931.517	2000.4232	10781.9	9897.55
931.6547	2002.0097	10750.35	9865.55
931.7923	2003.5955	10708.65	9821.3
931.93	2005.1805	10704.65	9816.45
932.0676	2006.7648	10707.05	9822.45
932.2052	2008.3484	10646.9	9759
932.3427	2009.9312	10650.15	9763.05
932.4803	2011.5133	10618.3	9735.65
932.6178	2013.0946	10581.15	9695.05
932.7553	2014.6752	10531.4	9645.1
932.8928	2016.2551	10557.55	9668.8
933.0302	2017.8342	10485.9	9600.15
933.1676	2019.4126	10460.8	9575.5
933.305	2020.9902	10415.3	9531.95
933.4424	2022.5672	10378.25	9492.95
933.5798	2024.1433	10345.25	9457.15
933.7171	2025.7188	10316.2	9433.75
933.8544	2027.2935	10298	9415.3
933.9917	2028.8674	10258.95	9375.25
934.129	2030.4406	10225.6	9342.2
934.2662	2032.0131	10175.05	9293.15
934.4034	2033.5849	10163.25	9275.85
934.5406	2035.1559	10146.95	9264.95
934.6778	2036.7261	10123.8	9238.8
934.8149	2038.2957	10078.5	9191.2
934.952	2039.8645	10083.95	9195
935.0891	2041.4325	10045.2	9154.1
935.2262	2042.9998	9992.1	9105.5
935.3632	2044.5664	9978.7	9093.45
935.5002	2046.1323	9957.9	9072.25
935.6372	2047.6974	9942.15	9057.85
935.7742	2049.2617	9910.85	9028
935.9111	2050.8254	9882.75	8991.95
936.048	2052.3883	9882.35	8994.15
936.1849	2053.9504	9833.6	8946.8
936.3218	2055.5118	9804.6	8916.45
936.4586	2057.0725	9743.55	8855.3
936.5955	2058.6325	9747.35	8861.55
936.7323	2060.1917	9714	8827.55
936.869	2061.7502	9705.8	8816.95
937.0058	2063.3079	9665.1	8782.35
937.1425	2064.8649	9628.8	8742.25
937.2792	2066.4212	9609.15	8721.55
937.4159	2067.9767	9570.8	8685.05
937.5525	2069.5315	9522.9	8636.9
937.6891	2071.0856	9462.05	8577.3
937.8257	2072.6389	9452.3	8569.05
937.9623	2074.1915	9398.65	8516.25
938.0989	2075.7433	9370.95	8484.95
938.2354	2077.2945	9371.5	8487.25
938.3719	2078.8448	9330.55	8441.55
938.5084	2080.3945	9272.5	8385.1
938.6448	2081.9434	9286.15	8396.15
938.7812	2083.4916	9237.55	8347.05
938.9176	2085.039	9223.95	8330.55
939.054	2086.5857	9221.6	8328.1
939.1903	2088.1317	9183.7	8290.75
939.3267	2089.677	9175.15	8280.35
939.463	2091.2215	9106.8	8213.05
939.5992	2092.7652	9095.9	8202.9
939.7355	2094.3083	9090.15	8196.65
939.8717	2095.8506	9060.9	8169.3
940.0079	2097.3921	9074.25	8186.6
940.1441	2098.933	9026.1	8138.8
940.2802	2100.4731	9002.25	8111.45
940.4163	2102.0124	8988.2	8091.9
940.5524	2103.5511	8972.55	8081
940.6885	2105.089	8957.25	8064.8
940.8245	2106.6261	8914.65	8026.1
940.9606	2108.1626	8899.2	8010
941.0965	2109.6983	8896.15	7977.35
941.2325	2111.2332	8860	7969.35
941.3684	2112.7675	8853.45	7961.3
941.5044	2114.301	8789.4	7897.45
941.6403	2115.8337	8804.6	7912.95
941.7761	2117.3657	8740.75	7849.55
941.912	2118.897	8751.75	7860.85
942.0478	2120.4276	8697.15	7798.35
942.1835	2121.9575	8657.2	7762.6
942.3193	2123.4866	8686.3	7793.3
942.455	2125.0149	8612	7717.95
942.5907	2126.5426	8606.95	7721.25
942.7264	2128.0695	8571.55	7680.6
942.8621	2129.5956	8544.1	7658.65
942.9977	2131.1211	8538.7	7646.7
943.1333	2132.6458	8497.55	7608.7
943.2689	2134.1698	8470.15	7578.4
943.4044	2135.693	8480.95	7584
943.54	2137.2155	8486.2	7591.2
943.6755	2138.7373	8439.85	7550.15
943.8109	2140.2584	8389.75	7501.65
943.9464	2141.7787	8388.25	7498
944.0818	2143.2983	8338.6	7454.35
944.2172	2144.8171	8295.6	7413.6
944.3526	2146.3353	8281.6	7392.7
944.4879	2147.8527	8269.1	7381.1
944.6232	2149.3693	8232.85	7342.45
944.7585	2150.8853	8210.95	7319.15
944.8938	2152.4005	8175.5	7280.65
945.029	2153.9149	8179	7288.7
945.1642	2155.4287	8228.45	7228.9
945.2994	2156.9417	8150.7	7257.85
945.4346	2158.454	8120.65	7228.95
945.5697	2159.9655	8096.65	7208.65
945.7048	2161.4764	8062.65	7174.95
945.8399	2162.9865	8037.65	7148.1
945.9749	2164.4958	8017.4	7128.05
946.1099	2166.0045	7987.3	7096.4
946.2449	2167.5124	7999.7	7111.3
946.3799	2169.0195	7960.8	7069.65
946.5148	2170.526	7958.25	7067.55
946.6498	2172.0317	7931.25	7042.95
946.7846	2173.5367	7900.85	7009.7
946.9195	2175.0409	7863.7	6975.45
947.0543	2176.5445	7872.85	6984.8
947.1891	2178.0473	7861.5	6967.6
947.3239	2179.5494	7798.8	6902.45
947.4587	2181.0507	7792.5	6902.1
947.5934	2182.5513	7758.35	6868.25
947.7281	2184.0512	7751.65	6861.35
947.8628	2185.5504	7706.65	6816.5
947.9974	2187.0488	7665.1	6776.75
948.132	2188.5465	7672.8	6785.8
948.2666	2190.0435	7638.15	6749.35
948.4012	2191.5397	7612.75	6721.15
948.5357	2193.0353	7586.35	6692.1
948.6702	2194.5301	7558.7	6663.3
948.8047	2196.0241	7543.3	6648.25
948.9392	2197.5175	7540.45	6645.35
949.0736	2199.0101	7478.75	6580.75
949.208	2200.502	7443.35	6552.85
949.3424	2201.9931	7413.25	6523.7
949.4767	2203.4835	7404.3	6516.55
949.611	2204.9733	7402.7	6495.7
949.7453	2206.4622	7393.65	6506.7
949.8796	2207.9505	7341.75	6453.4
950.0138	2209.438	7295.2	6411.7
950.148	2210.9248	7274.05	6386.4
950.2822	2212.4109	7280	6390.9
950.4164	2213.8962	7236.05	6343.65
950.5505	2215.3809	7220.8	6325.8
950.6846	2216.8648	7233	6334.9
950.8186	2218.3479	7191.5	6289.55
950.9527	2219.8304	7165.75	6264.55
951.0867	2221.3121	7147.7	6250.2
951.2207	2222.7931	7121.7	6228.5
951.3546	2224.2733	7108.2	6216.3
951.4886	2225.7529	7077.6	6186.7
951.6225	2227.2317	7058.7	6168.15
951.7563	2228.7098	7036.25	6147.65
951.8902	2230.1872	6966.3	6079.2
952.024	2231.6638	6976.85	6087.95
952.1578	2233.1397	6949.35	6059.15
952.2916	2234.6149	6921.5	6033.15
952.4253	2236.0894	6906.95	6018.05
952.559	2237.5632	6914.75	6023.8
952.6927	2239.0362	6870.65	5978.7
952.8263	2240.5085	6878.2	5987.3
952.9599	2241.9801	6832.15	5941.45
953.0935	2243.4509	6819.25	5927.3
953.2271	2244.921	6790	5897.3
953.3606	2246.3904	6766.55	5871.25
953.4941	2247.8591	6743.9	5852.7
953.6276	2249.3271	6710.7	5819.05
953.7611	2250.7943	6698.15	5804.4
953.8945	2252.2608	6670.35	5779.05
954.0279	2253.7266	6674.75	5783.25
954.1612	2255.1917	6651.9	5761.05
954.2946	2256.656	6620.2	5729.8
954.4279	2258.1197	6598.2	5710.6
954.5612	2259.5826	6591.3	5701.45
954.6944	2261.0447	6581.8	5690.75
954.8276	2262.5062	6535.75	5642.5
954.9608	2263.9669	6535.3	5640
955.094	2265.4269	6513.5	5622.3
955.2271	2266.8862	6501.65	5612.8
955.3602	2268.3448	6512.25	5622.65
955.4933	2269.8026	6476.4	5586
955.6264	2271.2598	6458.4	5569.65
955.7594	2272.7162	6428.7	5538.15
955.8924	2274.1719	6406.5	5515.6
956.0253	2275.6268	6409	5515.7
956.1583	2277.0811	6406	5513.5
956.2912	2278.5346	6361.9	5472.75
956.4241	2279.9874	6362.15	5472.9
956.5569	2281.4395	6332.6	5444.8
956.6897	2282.8908	6315.25	5422.1
956.8225	2284.3414	6297.05	5403
956.9553	2285.7914	6291.5	5403.95
957.088	2287.2406	6271.2	5378.15
957.2207	2288.689	6257.15	5363.85
957.3534	2290.1368	6236.1	5338.65
957.486	2291.5838	6230	5331.3
957.6186	2293.0302	6228.4	5330.75
957.7512	2294.4758	6175.5	5279.8
957.8838	2295.9206	6157.9	5264.9
958.0163	2297.3648	6141.6	5250.8
958.1488	2298.8082	6123.45	5232.65
958.2813	2300.251	6111.45	5219.5
958.4137	2301.693	6095.9	5197.55
958.5461	2303.1343	6099.2	5205.6
958.6785	2304.5748	6057.35	5166.6
958.8108	2306.0147	6047.65	5157.3
958.9432	2307.4538	6029.5	5137.05
959.0754	2308.8922	6008.05	5122.1
959.2077	2310.3299	5963.25	5074.8
959.3399	2311.7669	5964.9	5076.25
959.4721	2313.2031	5952.85	5062.75
959.6043	2314.6387	5927.65	5038.15
959.7365	2316.0735	5907.9	5016.15
959.8686	2317.5076	5904.25	5012.85
960.0006	2318.941	5892.45	4999.25
960.1327	2320.3737	5855.5	4960.2
960.2647	2321.8056	5835.9	4939.75
960.3967	2323.2369	5826.35	4931.9
960.5287	2324.6674	5813.5	4920.2
960.6606	2326.0972	5788.8	4894.95
960.7925	2327.5263	5784	4891.5
960.9244	2328.9547	5766.05	4874.15
961.0562	2330.3823	5757.8	4863.55
961.1881	2331.8092	5753.9	4856.65
961.3198	2333.2355	5724.55	4829.35
961.4516	2334.661	5713.4	4817.65
961.5833	2336.0858	5699.95	4804.45
961.715	2337.5098	5698.75	4806.05
961.8467	2338.9332	5669.4	4776.85
961.9783	2340.3558	5646.95	4753.55
962.1099	2341.7778	5617.65	4726.2
962.2415	2343.199	5614.15	4720.9
962.373	2344.6195	5603.75	4713.4
962.5045	2346.0393	5583.75	4695.4
962.636	2347.4583	5578.55	4687.45
962.7675	2348.8767	5550.45	4658
962.8989	2350.2943	5540.25	4645.5
963.0303	2351.7113	5548.55	4651.95
963.1617	2353.1275	5527.1	4632.6
963.293	2354.543	5508.15	4604.45
963.4243	2355.9578	5485.7	4591.95
963.5556	2357.3718	5453.9	4564.5
963.6868	2358.7852	5416.3	4525.65
963.818	2360.1978	5406.75	4514.85
963.9492	2361.6098	5400.85	4511
964.0803	2363.021	5389.85	4493.85
964.2114	2364.4315	5391.4	4499.45
964.3425	2365.8413	5364.4	4472.35
964.4736	2367.2504	5357.25	4467.45
964.6046	2368.6587	5308.75	4418.4
964.7356	2370.0664	5284	4394.85
964.8666	2371.4733	5272.95	4382.45
964.9975	2372.8795	5260.2	4369.05
965.1284	2374.285	5253	4363.5
965.2593	2375.6899	5231.75	4342.85
965.3901	2377.0939	5199.65	4308.65
965.5209	2378.4973	5181.3	4291
965.6517	2379.9	5170.85	4279.7
965.7825	2381.3019	5137.55	4248.85
965.9132	2382.7032	5143	4255.7
966.0439	2384.1037	5121.1	4234.95
966.1745	2385.5035	5107.65	4221.2
966.3051	2386.9027	5080.95	4194.85
966.4357	2388.3011	5080.7	4187.25
966.5663	2389.6987	5059.95	4173
966.6968	2391.0957	5029.45	4142
966.8273	2392.492	5025.9	4137.8
966.9578	2393.8876	4990.8	4102.15
967.0882	2395.2824	4979.25	4091.2
967.2186	2396.6765	4952.55	4065.5
967.349	2398.07	4949.3	4059.3
967.4793	2399.4627	4946	4052.9
967.6097	2400.8547	4935.5	4043.3
967.7399	2402.246	4912.7	4016.55
967.8702	2403.6366	4895.5	4005.15
968.0004	2405.0265	4861.4	3975.5
968.1306	2406.4156	4845.4	3951.45
968.2607	2407.8041	4856.3	3964.35
968.3909	2409.1918	4816.75	3925.85
968.521	2410.5789	4799.55	3910.6
968.651	2411.9652	4780.15	3888.1
968.781	2413.3508	4782.95	3891.8
968.911	2414.7358	4761.65	3869
969.041	2416.12	4738.6	3848.5
969.1709	2417.5035	4734.6	3846.9
969.3008	2418.8863	4718.8	3829.2
969.4307	2420.2684	4722.3	3830.8
969.5606	2421.6497	4690.35	3801.15
969.6904	2423.0304	4652.55	3763.35
969.8201	2424.4104	4666.95	3775.25
969.9499	2425.7896	4645.25	3754.05
970.0796	2427.1682	4624.35	3734.35
970.2093	2428.546	4611.25	3719.8
970.3389	2429.9232	4602.7	3708.5
970.4685	2431.2996	4613.5	3721
970.5981	2432.6753	4588.1	3695.15
970.7277	2434.0503	4585.85	3694.3
970.8572	2435.4246	4554.55	3665.7
970.9867	2436.7982	4542.7	3649.55
971.1161	2438.1711	4536.5	3644.7
971.2456	2439.5433	4517.4	3626.65
971.375	2440.9148	4506.5	3609.65
971.5043	2442.2856	4491.05	3600.8
971.6336	2443.6557	4491.65	3599.15
971.7629	2445.025	4450.6	3558.25
971.8922	2446.3937	4437.05	3546.05
972.0214	2447.7617	4417.85	3527.3
972.1506	2449.1289	4419.25	3528.3
972.2798	2450.4955	4421.8	3527.35
972.4089	2451.8613	4413.35	3525.2
972.538	2453.2265	4387.7	3497.45
972.6671	2454.5909	4385.8	3494.15
972.7961	2455.9546	4376.75	3487.35
972.9251	2457.3177	4371.55	3479.8
973.0541	2458.68	4352.45	3461.15
973.1831	2460.0416	4358.75	3468.95
973.312	2461.4025	4343.5	3450.05
973.4408	2462.7627	4322.4	3424.05
973.5697	2464.1222	4317.5	3428.75
973.6985	2465.4811	4315.85	3426.9
973.8273	2466.8392	4291.7	3401.6
973.956	2468.1966	4282.2	3390.1
974.0847	2469.5533	4280.75	3387.75
974.2134	2470.9093	4279.45	3387.9
974.3421	2472.2645	4255.25	3364.85
974.4707	2473.6191	4227.8	3338.4
974.5993	2474.973	4224.5	3335
974.7278	2476.3262	4210.05	3318.85
974.8563	2477.6787	4195.65	3306.5
974.9848	2479.0305	4173.75	3282.3
975.1132	2480.3816	4172.4	3281.55
975.2417	2481.7319	4150.25	3258
975.37	2483.0816	4128.9	3236.15
975.4984	2484.4306	4138.1	3249.8
975.6267	2485.7789	4123.5	3235.3
975.755	2487.1264	4108.2	3219.4
975.8833	2488.4733	4088.55	3199.15
976.0115	2489.8195	4096.95	3189.5
976.1397	2491.165	4067.5	3171.25
976.2678	2492.5097	4051.95	3160.55
976.3959	2493.8538	4036.05	3146.4
976.524	2495.1972	4020.8	3127.45
976.6521	2496.5398	4023.55	3132.3
976.7801	2497.8818	4004.1	3110.1
976.9081	2499.2231	3988.2	3095.45
977.036	2500.5637	3989	3096.95
977.164	2501.9035	3976.75	3082.1
977.2918	2503.2427	3959.25	3065.4
977.4197	2504.5812	3960.8	3070.9
977.5475	2505.919	3937.85	3044.1
977.6753	2507.256	3935.25	3044.45
977.8031	2508.5924	3924.15	3032.1
977.9308	2509.9281	3924.95	3027.75
978.0585	2511.2631	3901.2	3012.45
978.1861	2512.5974	3888.9	3000.65
978.3137	2513.9309	3874	2984.3
978.4413	2515.2638	3885.95	2965.2
978.5689	2516.596	3859.7	2969
978.6964	2517.9275	3841.15	2950
978.8239	2519.2583	3824.7	2932.85
978.9513	2520.5884	3825.25	2933.7
979.0788	2521.9178	3804.75	2916.75
979.2062	2523.2465	3778.6	2890
979.3335	2524.5745	3788.75	2899.35
979.4608	2525.9018	3780.35	2890.2
979.5881	2527.2284	3747.3	2856.5
979.7154	2528.5543	3746.65	2854.95
979.8426	2529.8796	3751.15	2860.1
979.9698	2531.2041	3738.65	2848.45
980.0969	2532.5279	3721.35	2833.5
980.224	2533.851	3714.65	2823.15
980.3511	2535.1735	3695.8	2805.85
980.4781	2536.4952	3698.85	2806.8
980.6052	2537.8163	3696.2	2803.9
980.7321	2539.1366	3699.05	2807.15
980.8591	2540.4562	3678	2786.3
980.986	2541.7752	3685.45	2793.95
981.1129	2543.0935	3670.95	2779.8
981.2397	2544.411	3660.75	2766.95
981.3665	2545.7279	3643.85	2752.45
981.4933	2547.0441	3658.35	2768.45
981.62	2548.3596	3648.3	2755.25
981.7467	2549.6744	3642.9	2749.25
981.8734	2550.9885	3627.75	2733.3
982.0001	2552.3019	3604.15	2712.85
982.1267	2553.6146	3603.75	2710.85
982.2532	2554.9266	3594.6	2702.65
982.3798	2556.2379	3580.8	2689.85
982.5063	2557.5485	3576.2	2687.4
982.6327	2558.8585	3579.95	2681.6
982.7592	2560.1677	3573.5	2676.9
982.8856	2561.4762	3557.25	2666.1
983.0119	2562.7841	3550.15	2654.9
983.1383	2564.0913	3548.3	2659
983.2646	2565.3977	3531.1	2641.25
983.3908	2566.7035	3516.15	2623.85
983.517	2568.0086	3524.85	2631.45
983.6432	2569.313	3511.7	2618.45
983.7694	2570.6167	3518.1	2623.55
983.8955	2571.9197	3496.25	2606.4
984.0216	2573.222	3493.25	2597.45
984.1476	2574.5236	3498.4	2606.7
984.2737	2575.8246	3482.4	2587.4
984.3996	2577.1248	3478.45	2583.1
984.5256	2578.4244	3470.9	2578.1
984.6515	2579.7232	3463.15	2571.5
984.7774	2581.0214	3482.45	2562.7
984.9032	2582.3189	3457.5	2566.1
985.029	2583.6157	3442.6	2543.1
985.1548	2584.9118	3432.85	2540.8
985.2806	2586.2072	3432.65	2541.7
985.4063	2587.5019	3426.55	2535.25
985.5319	2588.7959	3421.3	2529.15
985.6576	2590.0893	3426.55	2533.55
985.7832	2591.3819	3406.6	2514.95
985.9087	2592.6739	3397.65	2505.35
986.0343	2593.9652	3400.65	2507.6
986.1597	2595.2557	3395.35	2501.25
986.2852	2596.5456	3384.95	2490.75
986.4106	2597.8348	3386.25	2496.9
986.536	2599.1234	3361.55	2469.5
986.6614	2600.4112	3365.35	2473.9
986.7867	2601.6983	3353.3	2459.15
986.912	2602.9848	3343.65	2451.15
987.0372	2604.2705	3337.85	2438.8
987.1624	2605.5556	3331.7	2439.05
987.2876	2606.84	3325.25	2433.65
987.4128	2608.1237	3306.7	2414.55
987.5379	2609.4067	3289	2397.05
987.6629	2610.689	3302.2	2401.35
987.788	2611.9707	3291.85	2396.35
987.913	2613.2516	3286	2389.65
988.0379	2614.5319	3259.05	2367.3
988.1629	2615.8115	3248.8	2357.15
988.2878	2617.0903	3242.9	2349.5
988.4126	2618.3685	3231.15	2338.75
988.5375	2619.6461	3225	2333.5
988.6622	2620.9229	3208.85	2319.1
988.787	2622.199	3210.7	2318.8
988.9117	2623.4745	3205.55	2312.3
989.0364	2624.7493	3202.7	2310.15
989.161	2626.0234	3194.35	2304.1
989.2857	2627.2968	3162.75	2270.4
989.4102	2628.5695	3186.3	2293.1
989.5348	2629.8415	3153.05	2262
989.6593	2631.1128	3155.25	2260.25
989.7837	2632.3835	3147.8	2256.45
989.9082	2633.6535	3124.35	2232.95
990.0326	2634.9228	3133.3	2241.9
990.1569	2636.1914	3122.75	2231.75
990.2812	2637.4593	3131.5	2234.15
990.4055	2638.7265	3118.4	2226.85
990.5298	2639.9931	3098.65	2207
990.654	2641.259	3094.6	2203.2
990.7782	2642.5242	3091.75	2199.95
990.9023	2643.7887	3077.2	2186.75
991.0264	2645.0525	3075.6	2185.1
991.1505	2646.3156	3062.65	2156.95
991.2745	2647.5781	3055.25	2162
991.3985	2648.8398	3040.15	2148.8
991.5225	2650.1009	3040.8	2143.8
991.6464	2651.3613	3038.75	2150.1
991.7703	2652.6211	3023.1	2132.1
991.8942	2653.8801	3010.05	2120.3
992.018	2655.1385	3008.95	2115.25
992.1418	2656.3961	3001.9	2109.7
992.2655	2657.6531	2997.65	2106.75
992.3892	2658.9094	2990.45	2096.5
992.5129	2660.1651	2978.85	2089.9
992.6366	2661.42	2973.05	2083.1
992.7602	2662.6743	2966.5	2076.6
992.8837	2663.9279	2971.1	2080.8
993.0073	2665.1808	2960.8	2069.75
993.1307	2666.433	2974.2	2081.35
993.2542	2667.6846	2957.75	2066.5
993.3776	2668.9354	2962.6	2069.5
993.501	2670.1856	2953.85	2060.7
993.6244	2671.4351	2952.5	2063.5
993.7477	2672.6839	2950.75	2060.3
993.8709	2673.9321	2946.65	2056.5
993.9942	2675.1795	2942.2	2053.95
994.1174	2676.4263	2934.2	2042.7
994.2405	2677.6724	2939.65	2049.95
994.3637	2678.9179	2925.95	2032.2
994.4868	2680.1626	2914.65	2025
994.6098	2681.4067	2910.85	2019.95
994.7328	2682.6501	2915.75	2025.8
994.8558	2683.8928	2904.05	2013.5
994.9788	2685.1348	2882.1	1993.95
995.1017	2686.3761	2891.7	2002.35
995.2245	2687.6168	2878.05	1988.65
995.3474	2688.8568	2855.9	1965.55
995.4702	2690.0961	2844.4	1958.65
995.5929	2691.3348	2843.45	1954.1
995.7156	2692.5727	2849.4	1959
995.8383	2693.81	2844.5	1954
995.961	2695.0466	2822.95	1933.65
996.0836	2696.2826	2832.7	1941.7
996.2062	2697.5178	2815.65	1923.4
996.3287	2698.7524	2805.05	1914.25
996.4512	2699.9863	2807.75	1914.7
996.5737	2701.2195	2807.5	1920.85
996.6961	2702.452	2808.6	1917.9
996.8185	2703.6839	2792.8	1901.25
996.9408	2704.9151	2796.05	1906.15
997.0631	2706.1456	2789.4	1899.7
997.1854	2707.3755	2792.45	1900.4
997.3077	2708.6046	2800.35	1908.65
997.4299	2709.8331	2792.35	1901.45
997.552	2711.0609	2791.95	1900.95
997.6742	2712.2881	2811.65	1921.55
997.7963	2713.5145	2806.35	1913.65
997.9183	2714.7403	2797.8	1907.5
998.0403	2715.9654	2804.7	1913.7
998.1623	2717.1899	2820.6	1916.45
998.2842	2718.4136	2811.55	1922.4
998.4062	2719.6367	2818.45	1927.25
998.528	2720.8591	2829.6	1932.4
998.6498	2722.0809	2830.85	1941.05
998.7716	2723.3019	2844.1	1951.75
998.8934	2724.5223	2832.85	1942.2
999.0151	2725.7421	2831.15	1940.15
999.1368	2726.9611	2827.75	1938.15
999.2584	2728.1795	2823.45	1928.75
999.38	2729.3972	2811.45	1921.4
999.5016	2730.6142	2806.4	1910.3
999.6231	2731.8306	2774.85	1885.15
999.7446	2733.0462	2752.55	1861.55
999.8661	2734.2612	2735.35	1842.9
999.9875	2735.4756	2719.3	1829.1
1000.1089	2736.6892	2689.5	1799.2
1000.2302	2737.9022	2671.15	1783.35
1000.3515	2739.1145	2658.55	1769.35
1000.4728	2740.3262	2642.95	1744.75
1000.594	2741.5372	2614.65	1724.95
1000.7152	2742.7475	2607.45	1716.2
1000.8363	2743.9571	2607.15	1714.85
1000.9575	2745.1661	2578.95	1684.55
1001.0785	2746.3744	2571.1	1682.9
1001.1996	2747.582	2560.15	1671.6
1001.3206	2748.7889	2541.65	1652.2
1001.4415	2749.9952	2523.85	1636.45
1001.5625	2751.2008	2518.75	1629.85
1001.6833	2752.4057	2519.95	1629.85
1001.8042	2753.61	2498.4	1609.4
1001.925	2754.8136	2504.75	1613.75
1002.0458	2756.0165	2491	1603.2
1002.1665	2757.2188	2489.35	1602.15
1002.2872	2758.4204	2472.05	1583.4
1002.4078	2759.6213	2469.45	1578.5
1002.5285	2760.8215	2472.25	1577.7
1002.649	2762.0211	2473.95	1584.05
1002.7696	2763.22	2460.1	1567.15
1002.8901	2764.4182	2451.7	1562.1
1003.0106	2765.6158	2444	1554.8
1003.131	2766.8127	2443.65	1555
1003.2514	2768.009	2419	1530.95
1003.3717	2769.2045	2423.65	1534.8
1003.492	2770.3994	2425.5	1535.6
1003.6123	2771.5936	2417.25	1526.9
1003.7325	2772.7872	2403.85	1515.55
1003.8527	2773.9801	2387.15	1494.85
1003.9729	2775.1723	2404.85	1501.2
1004.093	2776.3639	2389	1502.35
1004.2131	2777.5548	2387.9	1496.85
1004.3331	2778.745	2382.65	1493.55
1004.4531	2779.9346	2375.85	1489.3
1004.5731	2781.1235	2385.3	1494.95
1004.693	2782.3117	2373.7	1486.7
1004.8129	2783.4992	2382	1494.75
1004.9328	2784.6861	2375.8	1488.6
1005.0526	2785.8723	2383.6	1493.7
1005.1723	2787.0579	2374.75	1485.8
1005.2921	2788.2428	2380.85	1494.1
1005.4118	2789.427	2401.55	1513.55
1005.5314	2790.6106	2401.2	1512.7
1005.651	2791.7935	2401.8	1513.5
1005.7706	2792.9757	2403.55	1516.85
1005.8902	2794.1573	2401.6	1510.5
1006.0097	2795.3382	2418.75	1530.55
1006.1291	2796.5184	2420	1531.35
1006.2485	2797.698	2442.3	1552.7
1006.3679	2798.8769	2453.45	1564.9
1006.4873	2800.0551	2475.95	1589.05
1006.6066	2801.2327	2472.55	1581.45
1006.7258	2802.4096	2487.45	1600.75
1006.8451	2803.5859	2505.45	1618.45
1006.9642	2804.7615	2529.9	1640.8
1007.0834	2805.9364	2544	1657.65
1007.2025	2807.1106	2570.95	1684.75
1007.3216	2808.2842	2596.4	1708.45
1007.4406	2809.4572	2631.5	1742.7
1007.5596	2810.6294	2659	1769.55
1007.6785	2811.801	2696.85	1812.4
1007.7975	2812.972	2727.65	1840.65
1007.9163	2814.1423	2767.1	1879.25
1008.0352	2815.3119	2828.1	1940.35
1008.154	2816.4808	2868.85	1981.05
1008.2727	2817.6491	2906	2018.8
1008.3914	2818.8167	2945.3	2059.75
1008.5101	2819.9837	3009.6	2117.85
1008.6288	2821.15	3040	2153.25
1008.7474	2822.3157	3068.2	2182.15
1008.8659	2823.4807	3116.5	2230.6
1008.9844	2824.645	3149.4	2261.7
1009.1029	2825.8086	3195.3	2308.65
1009.2214	2826.9716	3230.35	2344.25
1009.3398	2828.134	3266.4	2377.5
1009.4581	2829.2957	3295.15	2407.95
1009.5764	2830.4567	3330.6	2445.35
1009.6947	2831.617	3331	2444.7
1009.813	2832.7767	3343.25	2456.25
1009.9312	2833.9358	3335.05	2449
1010.0493	2835.0941	3316.2	2427.55
1010.1675	2836.2519	3312.6	2427.25
1010.2855	2837.4089	3292.9	2407.15
1010.4036	2838.5653	3280.1	2395.85
1010.5216	2839.7211	3285	2400.6
1010.6396	2840.8761	3293.5	2404.4
1010.7575	2842.0306	3328.7	2443.85
1010.8754	2843.1843	3358.35	2471.3
1010.9932	2844.3374	3410.8	2525.35
1011.111	2845.4899	3465.45	2577.25
1011.2288	2846.6417	3525.95	2639.85
1011.3465	2847.7928	3602.75	2718.8
1011.4642	2848.9433	3690.6	2803.35
1011.5818	2850.0931	3762	2875.5
1011.6995	2851.2422	3825.3	2936.05
1011.817	2852.3907	3910.9	3024.1
1011.9345	2853.5385	3977.5	3091.3
1012.052	2854.6857	4007.35	3112.85
1012.1695	2855.8323	4048.4	3162.4
1012.2869	2856.9781	4120.6	3234.4
1012.4042	2858.1233	4144.55	3258.5
1012.5216	2859.2679	4207.5	3321.5
1012.6389	2860.4118	4237.45	3349.25
1012.7561	2861.555	4269.25	3378.6
1012.8733	2862.6976	4297.9	3407.95
1012.9905	2863.8395	4331.8	3446.6
1013.1076	2864.9808	4346.4	3460.4
1013.2247	2866.1214	4357.6	3473.1
1013.3417	2867.2614	4377.95	3492.15
1013.4587	2868.4007	4375.45	3487.35
1013.5757	2869.5393	4386.15	3496.8
1013.6926	2870.6773	4407.55	3518.4
1013.8095	2871.8146	4406.15	3517.05
1013.9263	2872.9513	4391.75	3502.3
1014.0431	2874.0874	4377.2	3491.35
1014.1599	2875.2227	4368	3480.6
1014.2766	2876.3574	4358.45	3472.6
1014.3933	2877.4915	4331.25	3445.8
1014.51	2878.6249	4317.15	3431.95
1014.6266	2879.7577	4279.8	3391.25
1014.7431	2880.8898	4262.35	3365.8
1014.8596	2882.0212	4229.3	3344.95
1014.9761	2883.152	4239.8	3353.1
1015.0925	2884.2821	4201.9	3316.8
1015.2089	2885.4116	4197.3	3312.8
1015.3253	2886.5405	4180.8	3297.1
1015.4416	2887.6686	4199.8	3310.7
1015.5579	2888.7962	4186	3301.4
1015.6741	2889.923	4211.7	3326.55
1015.7903	2891.0493	4224.8	3341.1
1015.9065	2892.1748	4228.7	3342.35
1016.0226	2893.2997	4223.35	3337.4
1016.1387	2894.424	4247.2	3363.7
1016.2547	2895.5476	4245.6	3360
1016.3707	2896.6706	4291.85	3407
1016.4866	2897.7929	4302.35	3416.6
1016.6025	2898.9145	4337.35	3453.65
1016.7184	2900.0355	4351.2	3464.95
1016.8342	2901.1559	4390.85	3503.3
1016.95	2902.2756	4406.8	3522.65
1017.0658	2903.3946	4431.7	3547.3
1017.1815	2904.513	4459.9	3572.15
1017.2971	2905.6308	4474.45	3589.45
1017.4127	2906.7479	4499.45	3613.2
1017.5283	2907.8643	4535.3	3648.3
1017.6439	2908.9801	4528	3641.9
1017.7594	2910.0953	4541.25	3656.95
1017.8748	2911.2098	4526.45	3637.35
1017.9902	2912.3236	4533.75	3640.95
1018.1056	2913.4368	4532.45	3644.15
1018.2209	2914.5494	4498.15	3613.3
1018.3362	2915.6613	4470.65	3580.75
1018.4515	2916.7725	4442.35	3556.9
1018.5667	2917.8831	4418.4	3530.8
1018.6819	2918.9931	4378.05	3492.05
1018.797	2920.1024	4344.45	3459.05
1018.9121	2921.211	4315	3432
1019.0271	2922.319	4295.55	3412.15
1019.1421	2923.4264	4283.4	3397.85
1019.2571	2924.5331	4262.8	3378.95
1019.372	2925.6391	4229.2	3346.15
1019.4869	2926.7445	4253.55	3371.1
1019.6017	2927.8493	4219.45	3333.6
1019.7165	2928.9534	4209.8	3323.9
1019.8313	2930.0569	4207.4	3319.2
1019.946	2931.1597	4201.7	3314.95
1020.0606	2932.2619	4180.7	3295.65
1020.1753	2933.3634	4172.2	3289
1020.2899	2934.4643	4163.65	3272.45
1020.4044	2935.5645	4142.4	3251.05
1020.5189	2936.6641	4111.85	3223.05
1020.6334	2937.763	4065	3180.7
1020.7478	2938.8613	4006.95	3123.15
1020.8622	2939.959	3958.9	3070.7
1020.9765	2941.056	3879.3	2995.6
1021.0908	2942.1523	3787.75	2899.85
1021.2051	2943.248	3703.65	2818.25
1021.3193	2944.3431	3609.75	2726.15
1021.4334	2945.4375	3499.55	2615.75
1021.5476	2946.5313	3390.25	2506.95
1021.6617	2947.6244	3281.4	2396.8
1021.7757	2948.7169	3196	2311.4
1021.8897	2949.8087	3087.15	2202.6
1022.0037	2950.8999	3007.1	2122.05
1022.1176	2951.9904	2915.95	2032.35
1022.2315	2953.0803	2850.1	1963.1
1022.3453	2954.1696	2786.8	1903.25
1022.4591	2955.2582	2726.15	1842.4
1022.5728	2956.3462	2678.6	1794.8
1022.6865	2957.4335	2644.25	1758.9
1022.8002	2958.5202	2599.95	1714
1022.9138	2959.6062	2586.25	1701.4
1023.0274	2960.6916	2553.9	1670.2
1023.141	2961.7764	2526.35	1640.85
1023.2545	2962.8605	2501.75	1618.3
1023.3679	2963.9439	2484.4	1601.25
1023.4813	2965.0267	2480.9	1597.4
1023.5947	2966.1089	2486.6	1579.65
1023.708	2967.1905	2460.95	1576.2
1023.8213	2968.2714	2462.25	1579.8
1023.9346	2969.3516	2456.3	1572.85
1024.0478	2970.4312	2465.65	1572.95
1024.1609	2971.5102	2458.65	1573.7
1024.274	2972.5885	2447.25	1563.1
1024.3871	2973.6662	2453.2	1564.15
1024.5002	2974.7432	2445.85	1562.35
1024.6132	2975.8196	2435.95	1551.9
1024.7261	2976.8954	2424.6	1542.1
1024.839	2977.9705	2411.3	1528.25
1024.9519	2979.045	2394.1	1510.15
1025.0647	2980.1188	2371.9	1488.15
1025.1775	2981.192	2361.45	1479.15
1025.2902	2982.2645	2327.4	1442.75
1025.4029	2983.3364	2316.7	1432.45
1025.5156	2984.4077	2277	1393.05
1025.6282	2985.4783	2257.45	1367.8
1025.7407	2986.5483	2210.3	1327.1
1025.8532	2987.6177	2177.1	1293.3
1025.9657	2988.6864	2148.2	1263.7
1026.0782	2989.7545	2120.85	1234.25
1026.1906	2990.8219	2072.8	1190.3
1026.3029	2991.8887	2043.1	1158.6
1026.4152	2992.9548	2009	1125.25
1026.5275	2994.0204	1974.4	1091
1026.6397	2995.0852	1941.45	1059.35
1026.7519	2996.1495	1914.9	1028.85
1026.864	2997.2131	1890.5	1007.55
1026.9761	2998.276	1881.95	997.6
1027.0882	2999.3383	1861.3	976.8
1027.2002	3000.4	1832	947.45
1027.3122	3001.4611	1814.3	933.65
1027.4241	3002.5215	1805.55	922.9
1027.536	3003.5812	1789.3	901.9
1027.6478	3004.6404	1778.7	895.85
1027.7596	3005.6989	1761.7	877.35
1027.8714	3006.7567	1754.45	870.85
1027.9831	3007.8139	1765.6	861.7
1028.0947	3008.8705	1739.6	855.85
1028.2064	3009.9264	1745.3	845.65
1028.3179	3010.9818	1726.65	842
1028.4295	3012.0364	1723.9	842.15
1028.541	3013.0905	1710.65	827.3
1028.6524	3014.1439	1720.15	834.6
1028.7638	3015.1966	1706.35	823.8
1028.8752	3016.2487	1710.15	825.85
1028.9865	3017.3002	1705.5	812.25
1029.0978	3018.3511	1702.9	822.3
1029.209	3019.4013	1695.95	812.75
1029.3202	3020.4509	1703.2	821.9
1029.4314	3021.4998	1707.2	824.45
1029.5425	3022.5481	1698.4	816.45
1029.6535	3023.5958	1703.2	821.3
1029.7645	3024.6428	1700.65	816.1
1029.8755	3025.6892	1699.6	815.7
1029.9864	3026.735	1700.9	816.85
1030.0973	3027.7802	1702.8	816.8
1030.2082	3028.8247	1701.6	820.2
1030.319	3029.8685	1704.55	823.1
1030.4297	3030.9118	1708.05	824.7
1030.5404	3031.9544	1703.3	819.05
1030.6511	3032.9963	1711.25	829.3
1030.7617	3034.0376	1719.95	838.6
1030.8723	3035.0783	1713.55	827.55
1030.9829	3036.1184	1718.25	836.3
1031.0934	3037.1578	1721.6	839.2
1031.2038	3038.1966	1726.55	839.45
1031.3142	3039.2348	1719.35	837.15
1031.4246	3040.2723	1728.65	837.2
1031.5349	3041.3092	1710.75	828.75
1031.6452	3042.3455	1707.6	826.2
1031.7554	3043.3811	1704.75	822.5
1031.8656	3044.4161	1703.4	818.85
1031.9758	3045.4505	1693.9	811.45
1032.0859	3046.4842	1687.25	804.75
1032.1959	3047.5173	1677.05	794.75
1032.3059	3048.5498	1669.7	784.7
1032.4159	3049.5816	1668.3	785.75
1032.5258	3050.6128	1656.35	772
1032.6357	3051.6434	1655.25	770.25
1032.7455	3052.6734	1640.8	756.95
1032.8553	3053.7027	1628.3	746.3
1032.9651	3054.7314	1620.55	738
1033.0748	3055.7594	1620.15	738.45
1033.1845	3056.7868	1609.5	726.35
1033.2941	3057.8136	1605.05	722.95
1033.4037	3058.8398	1594.45	711.75
1033.5132	3059.8653	1597.05	715.95
1033.6227	3060.8902	1588.5	706.45
1033.7321	3061.9145	1575.6	691.4
1033.8415	3062.9381	1576.35	696.3
1033.9509	3063.9612	1578.55	679.8
1034.0602	3064.9835	1555.5	673.7
1034.1694	3066.0053	1552.9	670
1034.2787	3067.0264	1545.8	662.05
1034.3878	3068.0469	1530.25	646.35
1034.497	3069.0668	1535.1	650.75
1034.6061	3070.086	1510.6	630.1
1034.7151	3071.1046	1506.15	622
1034.8241	3072.1226	1492.95	608.65
1034.9331	3073.1399	1483.4	601.7
1035.042	3074.1567	1475.9	592.5
1035.1508	3075.1727	1466.65	582.4
1035.2597	3076.1882	1457.1	577.7
1035.3684	3077.203	1446.7	563.5
1035.4772	3078.2173	1436.4	554.1
1035.5859	3079.2308	1433.35	547.15
1035.6945	3080.2438	1427.35	543.7
1035.8031	3081.2561	1405.95	523.4
1035.9117	3082.2678	1396.05	513.95
1036.0202	3083.2789	1391.2	508.85
1036.1286	3084.2893	1386.5	502.85
1036.2371	3085.2991	1379.45	497.55
1036.3454	3086.3083	1388.1	501.4
1036.4538	3087.3169	1366.25	483.6
1036.562	3088.3248	1364.45	481.75
1036.6703	3089.3321	1357.5	476.8
1036.7785	3090.3388	1347.35	464.75
1036.8866	3091.3449	1339.35	458.7
1036.9948	3092.3503	1342.75	457.4
1037.1028	3093.3551	1335.7	456.15
1037.2108	3094.3593	1337.6	457.05
1037.3188	3095.3629	1321.65	439.15
1037.4267	3096.3658	1324.85	441.95
1037.5346	3097.3681	1320.05	437.55
1037.6425	3098.3698	1316.75	431.85
1037.7503	3099.3708	1326.2	438.85
1037.858	3100.3713	1301.65	420.75
1037.9657	3101.3711	1299.9	417.55
1038.0734	3102.3702	1428.75	412.75
1038.181	3103.3688	1303.85	420.95
1038.2886	3104.3667	1295.6	414.45
1038.3961	3105.364	1295.6	412.7
1038.5036	3106.3607	1291.55	409.35
1038.611	3107.3568	1289.05	405
1038.7184	3108.3522	1275.1	395.15
1038.8257	3109.347	1284	401.6
1038.933	3110.3412	1279.85	394.05
1039.0403	3111.3348	1274.7	393.25
1039.1475	3112.3277	1269.1	388.1
1039.2547	3113.32	1269.9	387.65
1039.3618	3114.3117	1271.4	387.85
1039.4689	3115.3028	1269.2	386.45
1039.5759	3116.2932	1261.05	378.3
1039.6829	3117.2831	1265.5	376.65
1039.7898	3118.2723	1257.25	375.6
1039.8967	3119.2608	1252.15	368.75
1040.0035	3120.2488	1252.7	370.55
1040.1103	3121.2361	1248.5	366.75
1040.2171	3122.2229	1248.45	367.5
1040.3238	3123.209	1245.05	364.5
1040.4305	3124.1944	1245.95	364.2
1040.5371	3125.1793	1246.35	363.85
1040.6437	3126.1635	1239.7	358.65
1040.7502	3127.1471	1239.35	356.8
1040.8567	3128.1301	1230.95	348.25
1040.9631	3129.1125	1229.6	349.35
1041.0695	3130.0942	1232.65	350.8
1041.1759	3131.0753	1233.65	343.95
1041.2822	3132.0558	1231.35	346.3
1041.3884	3133.0357	1217.6	335.15
1041.4946	3134.015	1219.1	335.7
1041.6008	3134.9936	1222.6	339.95
1041.7069	3135.9716	1237.85	335
1041.813	3136.949	1215.35	332.9
1041.919	3137.9258	1233.9	333.2
1042.025	3138.902	1223.25	336.75
1042.1309	3139.8775	1213.15	331.1
1042.2368	3140.8524	1203.05	323.35
1042.3427	3141.8267	1208.75	324.6
1042.4485	3142.8004	1201.85	320.3
1042.5542	3143.7735	1212.4	324.45
1042.6599	3144.7459	1204.25	320.85
1042.7656	3145.7178	1198.2	316
1042.8712	3146.689	1192.5	313.75
1042.9768	3147.6596	1198.15	314.1
1043.0823	3148.6295	1187.4	308.15
1043.1878	3149.5989	1188.5	306.95
1043.2932	3150.5676	1186.25	307.25
1043.3986	3151.5357	1183.65	303.45
1043.5039	3152.5032	1180.7	300.35
1043.6092	3153.4701	1185.55	305.85
1043.7145	3154.4364	1186	302.15
1043.8197	3155.402	1176.65	295.8
1043.9248	3156.367	1175.55	292.05
1044.03	3157.3315	1215.35	292.35
1044.135	3158.2952	1176.8	294.75
1044.24	3159.2584	1163.5	281.55
1044.345	3160.221	1168.5	286.7
1044.4499	3161.1829	1167.9	285.25
1044.5548	3162.1442	1164.85	285.1
1044.6596	3163.105	1161.5	281.15
1044.7644	3164.065	1157.1	276.5
1044.8692	3165.0245	1157.4	272.95
1044.9739	3165.9834	1156.05	275.95
1045.0785	3166.9416	1152.05	269.25
1045.1831	3167.8993	1159.9	278.35
1045.2877	3168.8563	1152.5	269.9
1045.3922	3169.8127	1149.75	268.05
1045.4966	3170.7684	1144.55	262.05
1045.6011	3171.7236	1149.85	268
1045.7054	3172.6782	1145	266.95
1045.8098	3173.6321	1147.9	266.7
1045.914	3174.5854	1152.35	265.9
1046.0183	3175.5381	1147.4	266.6
1046.1224	3176.4902	1142.6	263.15
1046.2266	3177.4417	1139.95	260.45
1046.3307	3178.3926	1139.85	258.8
1046.4347	3179.3428	1133.9	254.3
1046.5387	3180.2924	1135.9	255.75
1046.6427	3181.2415	1135.7	253.4
1046.7466	3182.1899	1127.6	246.05
1046.8504	3183.1377	1134.35	254.6
1046.9542	3184.0848	1130.35	244.9
1047.058	3185.0314	1124.75	244.5
1047.1617	3185.9773	1125.75	244.35
1047.2654	3186.9227	1123.7	241.85
1047.369	3187.8674	1123.5	242.6
1047.4726	3188.8115	1122.95	235.25
1047.5761	3189.755	1118.35	238.2
1047.6796	3190.6979	1122.95	239.65
1047.783	3191.6402	1119.5	238.85
1047.8864	3192.5818	1114.9	232.45
1047.9898	3193.5229	1123.8	235.95
1048.0931	3194.4633	1116.8	236.6
1048.1963	3195.4031	1117.3	235.6
1048.2995	3196.3423	1113.05	233.6
1048.4027	3197.2809	1114.9	234.45
1048.5058	3198.2189	1112.4	232.65
1048.6089	3199.1563	1112.7	222.8
1048.7119	3200.0931	1108.45	227.95
1048.8148	3201.0292	1101.45	222.1
1048.9178	3201.9648	1103.1	221.85
1049.0206	3202.8997	1113.4	229.45
1049.1235	3203.834	1101.5	220.35
1049.2262	3204.7677	1100.05	219.7
1049.329	3205.7008	1099.95	216.7
1049.4317	3206.6333	1098.2	218.7
1049.5343	3207.5652	1097.45	216.7
1049.6369	3208.4964	1095.55	213.2
1049.7394	3209.4271	1092.95	213.95
1049.8419	3210.3571	1094.35	214.15
1049.9444	3211.2865	1094.5	215.6
1050.0468	3212.2154	1093.55	209.9
1050.1491	3213.1436	1092.45	208.3
1050.2514	3214.0712	1098.8	213.5
1050.3537	3214.9982	1089.25	209.1
1050.4559	3215.9246	1087.35	205.6
1050.5581	3216.8503	1087.4	207.35
1050.6602	3217.7755	1081.8	200.4
1050.7623	3218.7001	1091.3	213.65
1050.8643	3219.624	1085.05	203.65
1050.9663	3220.5473	1084.4	202.75
1051.0682	3221.4701	1087.25	204.85
1051.1701	3222.3922	1083.05	200.1
1051.2719	3223.3137	1079.65	197.5
1051.3737	3224.2346	1081.6	200.2
1051.4754	3225.1549	1080.8	201.05
1051.5771	3226.0746	1075.45	196.05
1051.6788	3226.9937	1078.55	197.15
1051.7804	3227.9121	1073.55	193.85
1051.8819	3228.83	1070.5	191.2
1051.9834	3229.7473	1076.35	196.75
1052.0849	3230.6639	1068.35	187
1052.1863	3231.5799	1072	192.35
1052.2876	3232.4954	1072.4	191.1
1052.3889	3233.4102	1070.3	190.95
1052.4902	3234.3244	1065.45	183.75
1052.5914	3235.238	1062.85	183.25
1052.6926	3236.151	1093.45	189.05
1052.7937	3237.0634	1065.8	184.75
1052.8948	3237.9752	1063.8	183.15
1052.9958	3238.8864	1062.3	182.35
1053.0968	3239.797	1060.1	181.2
1053.1977	3240.7069	1061.4	181.15
1053.2986	3241.6163	1059.6	177.4
1053.3994	3242.5251	1058.95	179.35
1053.5002	3243.4332	1057.05	177.3
1053.6009	3244.3408	1058.1	177.45
1053.7016	3245.2477	1052.65	172.5
1053.8022	3246.154	1056.1	174.7
1053.9028	3247.0598	1056.8	175.1
1054.0034	3247.9649	1049.05	168.35
1054.1039	3248.8694	1047.6	166.7
1054.2043	3249.7733	1045.2	163.6
1054.3047	3250.6766	1049.3	169.4
1054.4051	3251.5793	1047.9	165.5
1054.5054	3252.4814	1041.2	160.3
1054.6056	3253.3829	1042.75	163.35
1054.7058	3254.2838	1044.95	164.65
1054.806	3255.1841	1044.2	165.15
1054.9061	3256.0838	1041.55	161.8
1055.0061	3256.9829	1037.8	158.35
1055.1062	3257.8814	1035.5	153.1
1055.2061	3258.7792	1038.2	152.85
1055.306	3259.6765	1038.05	156.55
1055.4059	3260.5731	1031.35	153.5
1055.5057	3261.4692	1029.8	151.1
1055.6055	3262.3647	1028	147.7
1055.7052	3263.2595	1030.55	152.15
1055.8049	3264.1538	1025.6	144.65
1055.9045	3265.0474	1021.05	140.3
1056.0041	3265.9404	1019.35	139.85
1056.1036	3266.8329	1015.4	135.15
1056.2031	3267.7247	1025.7	135.4
1056.3025	3268.616	1010.55	132.8
1056.4019	3269.5066	1008.5	127.15
1056.5013	3270.3966	1005	123.3
1056.6005	3271.286	1001.95	123.45
