Software Version:	3.9.2.0
Unit SN:	10000200
Spectrometer SN:	6960
Date:	3/26/2024 1:49:50 PM
Data Line Index:	25
Spectral Points:	2048
Integration time (ms):	125
Averages:	20
Delay (ms):	30000
Sequence Number:	1
Processing:	dark subtract
Laser Power (mW):	305
Laser Current (mA):	820
Laser Diode Temp (C):	25
Laser Case Temp (C):	27.2
System Temp (C):	27.3
Spectrometer Temp (C):	25.1
CCD Temp (C):	0
Secondary Temp (C):	20.008
Heatsink Temp (C):	22.444
CCDPCB Temp (C):	36.785
SecondaryPCB Temp (C):	34.317

Wavelength	RamanShift	Raw Counts	Dark Subtracted
787.061	30.1047	613	202.5
787.2016	32.3739	618.4	210.05
787.3422	34.6426	633.8	224.85
787.4828	36.9109	651.95	241.15
787.6235	39.1787	673.55	258.1
787.7642	41.4461	691.2	270.7
787.9049	43.7131	713.15	288.45
788.0456	45.9796	737.95	310.4
788.1863	48.2456	760.8	330.75
788.3271	50.5112	781.85	345.55
788.4679	52.7764	805.5	369.4
788.6087	55.0411	831.8	389.85
788.7496	57.3054	860.45	413.95
788.8904	59.5692	886	438.05
789.0313	61.8326	918.5	465.65
789.1722	64.0955	950.65	493.45
789.3132	66.3579	996.75	536.2
789.4541	68.6199	1053.55	588.05
789.5951	70.8815	1135.6	668.2
789.7361	73.1426	1322.75	851.7
789.8771	75.4032	1777.6	1301.45
790.0181	77.6634	2935.15	2452.7
790.1592	79.9231	5816.45	5323.5
790.3003	82.1824	12347.85	11839.35
790.4414	84.4412	26109	25568.55
790.5825	86.6995	49798.1	49222.9
790.7237	88.9574	61360.5	60741.2
790.8648	91.2148	64798	64156.5
791.006	93.4717	65266.55	64606.7
791.1472	95.7282	65386.85	64714.9
791.2885	97.9842	65444.2	64771.75
791.4297	100.2398	65406.8	64724.9
791.571	102.4949	65414.75	64730.5
791.7123	104.7495	65378.2	64693.6
791.8536	107.0036	65335.35	64651.35
791.9949	109.2573	65369.8	64688.7
792.1363	111.5105	65321.95	64639.35
792.2777	113.7632	65283.65	64597
792.4191	116.0154	65311.45	64614.9
792.5605	118.2672	65350.2	64660.7
792.7019	120.5185	65342.45	64650.1
792.8434	122.7693	65339.2	64644.45
792.9849	125.0197	65220.2	64522.8
793.1264	127.2696	65402.55	64704.25
793.2679	129.519	65349.6	64645.8
793.4094	131.7679	65414	64705.65
793.551	134.0163	65262.55	64550.05
793.6926	136.2642	65317.9	64604.9
793.8342	138.5117	65390.55	64672.25
793.9758	140.7587	65354.65	64634.6
794.1175	143.0052	65337.9	64613.45
794.2591	145.2512	65227.95	64503.9
794.4008	147.4967	65348.5	64622.05
794.5425	149.7417	65326.7	64604.2
794.6842	151.9863	65313.3	64584.7
794.826	154.2304	65260	64528.1
794.9677	156.4739	65266	64535.5
795.1095	158.717	65358.75	64625.1
795.2513	160.9596	65289.1	64548.9
795.3931	163.2017	65148.35	64406.7
795.535	165.4433	65290.85	64545.6
795.6768	167.6844	65196.65	64456.7
795.8187	169.925	65245.05	64499.9
795.9606	172.1651	65099.05	64350.4
796.1025	174.4047	65215.6	64465.3
796.2445	176.6439	65162.5	64406.8
796.3864	178.8825	65032.6	64277.25
796.5284	181.1206	65270.2	64511.1
796.6704	183.3582	65197.9	64432.05
796.8124	185.5954	65166.15	64396.75
796.9544	187.832	65136.15	64366.15
797.0965	190.0681	64966.45	64195.25
797.2386	192.3037	65182.85	64405.55
797.3806	194.5388	65343.2	64562.6
797.5228	196.7734	64881.1	64101.25
797.6649	199.0075	65341.3	64554.95
797.807	201.2411	65190.6	64401.95
797.9492	203.4742	65384.8	64596.95
798.0914	205.7068	65333.05	64544
798.2336	207.9389	65318.8	64532.3
798.3758	210.1704	65310.8	64518.85
798.518	212.4015	65402.05	64609.75
798.6603	214.632	65311.7	64515.05
798.8025	216.862	65409.65	64623.4
798.9448	219.0915	65337.2	64559.45
799.0871	221.3205	65346.6	64567.1
799.2294	223.549	65424	64649.2
799.3718	225.777	65413.05	64637.7
799.5141	228.0044	65451.6	64677.2
799.6565	230.2314	65425.35	64658.9
799.7989	232.4578	65420.9	64650.3
799.9413	234.6837	65439.8	64656.75
800.0837	236.909	65524.65	64741.55
800.2262	239.1339	65394.9	64583.9
800.3687	241.3582	65459.9	64666.15
800.5111	243.582	65470.15	64645.7
800.6536	245.8053	65452.65	64638.65
800.7961	248.0281	65460.55	64657.05
800.9387	250.2503	65473.5	64656.45
801.0812	252.472	65424.85	64608.4
801.2238	254.6932	65470.95	64656.15
801.3664	256.9139	65442.5	64626.95
801.509	259.134	65521.5	64699.55
801.6516	261.3536	65439.4	64615.15
801.7942	263.5727	65482.15	64657.65
801.9369	265.7912	65464.5	64643.3
802.0795	268.0092	65485.2	64664.7
802.2222	270.2267	65506.95	64689.55
802.3649	272.4436	65446.75	64627
802.5076	274.6601	65489.2	64659.05
802.6504	276.8759	65518.2	64693.85
802.7931	279.0913	65477.65	64652.75
802.9359	281.3061	65510	64683.8
803.0787	283.5204	65483.7	64647.85
803.2215	285.7341	65487.45	64651.65
803.3643	287.9473	65518.95	64674.45
803.5071	290.16	65493.2	64652.65
803.6499	292.3721	65510.9	64677.5
803.7928	294.5837	65491.6	64656.3
803.9357	296.7947	65467.4	64629.4
804.0786	299.0052	65525.25	64689.25
804.2215	301.2152	65517.85	64680.3
804.3644	303.4246	65518.2	64685.15
804.5074	305.6334	65516.9	64689.05
804.6503	307.8418	65465.8	64624.65
804.7933	310.0495	65453.5	64612.9
804.9363	312.2568	65450.05	64611.65
805.0793	314.4635	65441.3	64599.55
805.2223	316.6696	65466.95	64620.55
805.3653	318.8752	65484.95	64633.3
805.5084	321.0802	65370.9	64527.15
805.6514	323.2847	65435.65	64589.5
805.7945	325.4887	65425.6	64581
805.9376	327.692	65402.2	64558.3
806.0807	329.8949	65419.5	64576.1
806.2238	332.0972	65389.45	64539.25
806.367	334.2989	65416.4	64562.25
806.5101	336.5001	65444	64592.85
806.6533	338.7007	65344.85	64493.25
806.7965	340.9008	65401.75	64542.8
806.9397	343.1003	65405.45	64548.35
807.0829	345.2992	65426.4	64569.7
807.2261	347.4976	65369.8	64515.1
807.3693	349.6955	65401.85	64541.25
807.5126	351.8927	65356.75	64498.75
807.6559	354.0895	65399.4	64528.95
807.7991	356.2856	65397.95	64535.55
807.9424	358.4812	65434	64573.35
808.0857	360.6763	65328.75	64469.9
808.2291	362.8707	65435.2	64571.5
808.3724	365.0646	65373.45	64504.9
808.5158	367.258	65378.9	64511
808.6591	369.4508	65307.85	64438.05
808.8025	371.643	65420.35	64544.15
808.9459	373.8346	65370.8	64495.15
809.0893	376.0257	65388.3	64511.2
809.2327	378.2162	65362.8	64485.65
809.3762	380.4062	65256.4	64381.2
809.5196	382.5956	65370.85	64494.7
809.6631	384.7844	65334.45	64459.65
809.8066	386.9726	65375.25	64498.55
809.9501	389.1603	65356.1	64479.55
810.0936	391.3474	65289.35	64373.2
810.2371	393.5339	65351.1	64475.45
810.3806	395.7199	65221.6	64352.9
810.5241	397.9052	65253	64381.6
810.6677	400.09	65293.65	64426.5
810.8113	402.2743	65378.35	64509.7
810.9548	404.4579	65261	64392.9
811.0984	406.641	65289.15	64421.35
811.2421	408.8235	65332.65	64465.45
811.3857	411.0054	65354.45	64482
811.5293	413.1868	65377.55	64504.5
811.673	415.3675	65332.4	64455.05
811.8166	417.5477	65330.65	64455.45
811.9603	419.7273	65339.7	64460.1
812.104	421.9064	65330.4	64447.4
812.2477	424.0848	65330.15	64448.1
812.3914	426.2627	65392.25	64511.35
812.5351	428.4399	65283.8	64401.2
812.6788	430.6166	65042.25	64155
812.8226	432.7928	65277.9	64386.3
812.9663	434.9683	65127.25	64243.1
813.1101	437.1432	65068.7	64186.5
813.2539	439.3176	65238.75	64357.05
813.3977	441.4914	64950	64071.2
813.5415	443.6645	65015.05	64131.25
813.6853	445.8371	65055.8	64167.55
813.8291	448.0091	64935.15	64050.9
813.973	450.1806	64850.85	63968.75
814.1168	452.3514	64929.85	64043.25
814.2607	454.5216	64732.4	63842.95
814.4046	456.6913	64932.9	64047.15
814.5485	458.8603	64983.1	64095.5
814.6924	461.0288	64733.1	63854.1
814.8363	463.1967	64962.15	64079.95
814.9802	465.3639	64926.35	64038.8
815.1241	467.5306	64547.85	63663.05
815.2681	469.6967	64806.15	63918.8
815.412	471.8622	64950.55	64067.75
815.556	474.0271	64776.5	63890.95
815.7	476.1914	64844.05	63955.25
815.844	478.3551	64847.35	63959.1
815.988	480.5182	65082.6	64195.6
816.132	482.6807	64746.6	63864
816.276	484.8426	64778.15	63898.5
816.4201	487.0039	65098.9	64216.05
816.5641	489.1647	65116.35	64227.65
816.7082	491.3248	64796.5	63906.95
816.8522	493.4843	65128.25	64242.9
816.9963	495.6432	65154.2	64267.35
817.1404	497.8015	64788.25	63891.7
817.2845	499.9592	65004.7	64107.8
817.4286	502.1163	64951.65	64053.8
817.5727	504.2728	64915.3	64023.3
817.7168	506.4287	64852.75	63970.35
817.861	508.5839	64663.4	63775.25
818.0051	510.7386	64780.55	63891.85
818.1493	512.8927	64799.7	63905.7
818.2935	515.0461	64750	63856.55
818.4377	517.199	64915.8	64019.5
818.5818	519.3512	64740.45	63847.55
818.726	521.5029	64780.6	63882.9
818.8703	523.6539	64825.85	63934.2
819.0145	525.8043	64580.6	63684.3
819.1587	527.9541	64799.9	63899.05
819.303	530.1033	64753.75	63857.4
819.4472	532.2519	64626.1	63732.25
819.5915	534.3999	64836.6	63941.15
819.7357	536.5472	64914.3	64016.95
819.88	538.694	64608	63715.3
820.0243	540.8401	64821.7	63922.8
820.1686	542.9856	64863.25	63957.65
820.3129	545.1305	64999.7	64089.95
820.4572	547.2748	64738.05	63827.5
820.6016	549.4185	64683.3	63771
820.7459	551.5615	64877	63970.35
820.8902	553.704	64816.9	63908.8
821.0346	555.8458	64694.9	63790.9
821.1789	557.987	64771.7	63871
821.3233	560.1276	64810.05	63902.65
821.4677	562.2675	64763.9	63858.9
821.6121	564.4069	64846.85	63943.05
821.7565	566.5456	64983.5	64079.6
821.9009	568.6837	64717.8	63813
822.0453	570.8212	64808.35	63904.95
822.1897	572.958	64418.55	63515.7
822.3342	575.0942	64690.35	63789.8
822.4786	577.2299	64463.2	63566.25
822.6231	579.3648	64393.25	63501.85
822.7675	581.4992	64347.5	63460.65
822.912	583.6329	64351.75	63464.7
823.0565	585.766	64376.85	63485.65
823.201	587.8985	64482.6	63590.75
823.3454	590.0304	64152.6	63228.95
823.4899	592.1616	64425.05	63520.45
823.6345	594.2922	64259.05	63355.5
823.779	596.4222	64031.65	63121.65
823.9235	598.5515	64105.5	63196.9
824.068	600.6802	64255.3	63346.45
824.2126	602.8083	63929.05	63021.55
824.3571	604.9358	63878.3	62973.25
824.5017	607.0626	64163.7	63256.4
824.6462	609.1888	63730.55	62816.1
824.7908	611.3144	64039.85	63127.4
824.9354	613.4393	63915.5	63000.7
825.08	615.5636	63670.1	62761.3
825.2246	617.6873	63912.8	63001.2
825.3692	619.8103	63572.65	62665.1
825.5138	621.9327	63961.15	63049.9
825.6584	624.0544	63923.9	63020.25
825.803	626.1756	63730.45	62822.35
825.9477	628.2961	63716.45	62807.8
826.0923	630.4159	63551.4	62642.45
826.237	632.5351	63436.6	62520.65
826.3816	634.6537	63984.9	63073
826.5263	636.7716	63404.4	62490.15
826.6709	638.8889	63573.85	62659.65
826.8156	641.0056	63529.1	62613.6
826.9603	643.1216	63624.95	62709.3
827.105	645.237	63724.95	62811.8
827.2497	647.3518	63369.9	62461.5
827.3944	649.4659	63464.5	62558.8
827.5391	651.5793	63493.45	62586.5
827.6838	653.6922	63595.2	62684.35
827.8285	655.8043	63154.1	62244.3
827.9733	657.9159	63702.5	62788.25
828.118	660.0268	62733.8	61818.9
828.2627	662.137	63313.85	62403.6
828.4075	664.2466	63387.85	62470.4
828.5522	666.3556	63175.8	62262.75
828.697	668.4639	63344.5	62433.75
828.8418	670.5716	63077.6	62166.55
828.9865	672.6786	63300.85	62385.1
829.1313	674.785	62969.15	62050.55
829.2761	676.8907	63021.9	62106.85
829.4209	678.9958	63168.6	62256.8
829.5657	681.1002	63242.8	62328.75
829.7105	683.204	62904	61985.85
829.8553	685.3072	62751.15	61831.45
830.0001	687.4097	62918.1	62001.7
830.1449	689.5115	62752.8	61831.6
830.2898	691.6127	63024.85	62109.4
830.4346	693.7132	62718.45	61804.75
830.5794	695.8131	62796	61861.1
830.7243	697.9123	62839.65	61919.1
830.8691	700.0109	62928.95	62008.4
831.014	702.1089	62488.9	61572.95
831.1588	704.2061	62621.8	61706.5
831.3037	706.3028	62680.2	61761.5
831.4486	708.3987	62747.05	61831.5
831.5935	710.4941	62570.7	61654.2
831.7383	712.5887	62829.45	61911.15
831.8832	714.6827	62642.2	61724.65
832.0281	716.7761	62873.3	61960.5
832.173	718.8688	62953.95	62036.1
832.3179	720.9608	62714.85	61790.95
832.4628	723.0522	62750.85	61826.35
832.6077	725.1429	62480.3	61562.45
832.7527	727.233	63140.8	62219.65
832.8976	729.3224	62126.15	61206
833.0425	731.4112	62485.75	61562.85
833.1874	733.4993	62476.65	61558.4
833.3324	735.5867	62429.4	61509.75
833.4773	737.6735	62163.3	61243.1
833.6222	739.7596	61915.05	60991.35
833.7672	741.845	61877	60956.2
833.9122	743.9298	62156.25	61230.85
834.0571	746.014	61801.3	60883
834.2021	748.0974	61604	60678.5
834.347	750.1802	62062.15	61136
834.492	752.2624	61451.1	60529.9
834.637	754.3439	61546.7	60620.3
834.782	756.4247	61702.2	60770.1
834.9269	758.5048	61455.15	60532.45
835.0719	760.5843	61580.7	60657.65
835.2169	762.6631	61789.65	60867.25
835.3619	764.7413	61777.3	60854.05
835.5069	766.8188	61910.35	60989.2
835.6519	768.8956	62150	61227.5
835.7969	770.9718	62154.55	61233.75
835.9419	773.0473	62046.85	61121.65
836.0869	775.1221	61697.3	60776.55
836.232	777.1962	61610.75	60688.35
836.377	779.2697	61324.45	60399.9
836.522	781.3426	61441.1	60505.15
836.667	783.4147	61528.85	60604.05
836.8121	785.4862	61523.9	60603.15
836.9571	787.557	61248	60325.05
837.1021	789.6271	61415.65	60493.45
837.2472	791.6966	60994.65	60071.7
837.3922	793.7654	60623.05	59700.5
837.5373	795.8335	60565.35	59640.75
837.6823	797.901	60514.1	59594.9
837.8274	799.9678	60328.4	59401.9
837.9724	802.0339	60240.9	59315.4
838.1175	804.0993	60263.9	59328.25
838.2626	806.1641	60061.2	59134.95
838.4076	808.2282	60017.65	59091.9
838.5527	810.2916	59911.7	58986.4
838.6978	812.3544	60085.2	59161.3
838.8428	814.4164	59672.85	58747.55
838.9879	816.4778	59771.1	58840.5
839.133	818.5385	59720.4	58791.15
839.2781	820.5986	59731.6	58806
839.4232	822.658	59853.2	58925.15
839.5682	824.7166	59923	58997.5
839.7133	826.7747	59751.7	58826.25
839.8584	828.832	59958.8	59032.65
840.0035	830.8886	60234.7	59307.2
840.1486	832.9446	60212.8	59281.9
840.2937	834.9999	59571.1	58647.15
840.4388	837.0545	59802.35	58873.75
840.5839	839.1085	59809.65	58885.95
840.729	841.1618	59593.85	58662.95
840.8741	843.2143	59095.65	58167.55
841.0192	845.2662	59021.75	58097.95
841.1643	847.3175	59161.65	58234.8
841.3095	849.368	58590.1	57660.65
841.4546	851.4179	58993.9	58065.95
841.5997	853.467	58535.3	57609.6
841.7448	855.5155	58742.9	57814.6
841.8899	857.5633	58325.85	57398.5
842.0351	859.6105	58131.25	57205.75
842.1802	861.6569	58275.5	57350.05
842.3253	863.7027	57788.05	56862.1
842.4704	865.7478	57958.95	57031.95
842.6156	867.7922	57857.6	56926.75
842.7607	869.8359	58045.75	57117.05
842.9058	871.8789	57561.7	56633.65
843.0509	873.9212	57833.9	56875.95
843.1961	875.9629	57847.4	56922.65
843.3412	878.0039	57772.1	56841.95
843.4863	880.0441	57654.45	56729.15
843.6315	882.0837	57709	56783
843.7766	884.1226	57633.25	56705.35
843.9218	886.1609	57583.2	56655.7
844.0669	888.1984	57446.9	56517.85
844.212	890.2352	57811.4	56884.85
844.3572	892.2714	57338.3	56406.4
844.5023	894.3069	57424.65	56494.95
844.6475	896.3416	57176.3	56248.1
844.7926	898.3757	57066.6	56139.85
844.9377	900.4091	56546.7	55618.4
845.0829	902.4418	57060.25	56127
845.228	904.4739	56737.55	55806.65
845.3732	906.5052	56792.05	55858.4
845.5183	908.5358	56511.9	55582.2
845.6635	910.5658	56356.65	55424.8
845.8086	912.595	56232.85	55303.5
845.9538	914.6236	55652.7	54722.5
846.0989	916.6515	56253.8	55323.45
846.2441	918.6786	55432.6	54501.6
846.3892	920.7051	55579.45	54650.2
846.5344	922.7309	55542.75	54614.35
846.6795	924.756	55605.25	54680.35
846.8246	926.7804	55394.5	54464.35
846.9698	928.8041	54785.75	53855.8
847.1149	930.8272	55246.2	54314.3
847.2601	932.8495	55143.05	54214.3
847.4052	934.8711	54755.55	53826.4
847.5504	936.892	54413.65	53483.9
847.6955	938.9123	54563.95	53633.35
847.8407	940.9318	54238.8	53310.8
847.9858	942.9506	54168.95	53239.7
848.131	944.9688	54116.45	53187.85
848.2761	946.9862	53451.6	52520.1
848.4213	949.003	53568.15	52638.35
848.5664	951.019	53019	52089.3
848.7115	953.0344	53095.4	52166.95
848.8567	955.0491	52968.4	52033.45
849.0018	957.063	53122.3	52193.3
849.147	959.0763	53249.4	52314.7
849.2921	961.0888	52804.15	51874.45
849.4373	963.1007	53040	52109.85
849.5824	965.1119	53011.15	52087.5
849.7275	967.1223	52692.05	51771.35
849.8727	969.1321	52909.1	51986.1
850.0178	971.1412	52465.6	51539.8
850.1629	973.1495	52281.35	51351.5
850.3081	975.1572	52433.5	51465.8
850.4532	977.1641	52261.25	51331.5
850.5983	979.1704	52059.35	51131.5
850.7435	981.1759	52025.9	51092
850.8886	983.1808	51758.9	50826.55
851.0337	985.1849	51756.1	50814.85
851.1788	987.1884	51782.5	50854.35
851.324	989.1911	51965.4	51034.5
851.4691	991.1932	51419.05	50490.95
851.6142	993.1945	51431	50506.2
851.7593	995.1951	51406.75	50478.95
851.9045	997.1951	51138.5	50202.15
852.0496	999.1943	50919.95	49991.75
852.1947	1001.1928	50718.25	49792.5
852.3398	1003.1906	50682.2	49753.85
852.4849	1005.1877	50368.5	49438.4
852.63	1007.1841	50207.75	49280.55
852.7751	1009.1798	50159.05	49229.15
852.9202	1011.1748	49995.1	49068.45
853.0653	1013.1691	49743.7	48813.2
853.2104	1015.1627	49028.65	48099.1
853.3555	1017.1556	48859.7	47935.05
853.5006	1019.1477	48828.95	47903.65
853.6457	1021.1392	48414.35	47491.25
853.7908	1023.1299	48053.3	47131.7
853.9359	1025.12	48082.9	47161.3
854.081	1027.1093	47871.55	46959.75
854.2261	1029.0979	47831.15	46918.05
854.3712	1031.0859	47775.75	46863.45
854.5163	1033.0731	47427.65	46507.45
854.6613	1035.0596	47325.4	46406.4
854.8064	1037.0454	47076.1	46153.95
854.9515	1039.0304	46805.35	45880.5
855.0965	1041.0148	46475.4	45553.75
855.2416	1042.9985	46365.7	45440.45
855.3867	1044.9814	46433.95	45507.15
855.5317	1046.9636	46000.2	45073.9
855.6768	1048.9452	45860	44933.25
855.8219	1050.926	45846.5	44923.75
855.9669	1052.9061	45749.7	44825.35
856.112	1054.8855	45661.7	44732.4
856.257	1056.8642	45532.1	44608.6
856.4021	1058.8421	45472.4	44541.35
856.5471	1060.8194	45389.3	44465.4
856.6921	1062.7959	45295.05	44370.1
856.8372	1064.7717	45334.4	44408.35
856.9822	1066.7469	45208.75	44284.15
857.1272	1068.7213	45180.5	44251.8
857.2723	1070.695	45072.15	44149.25
857.4173	1072.6679	44849	43922.2
857.5623	1074.6402	44867.7	43942.9
857.7073	1076.6117	44721.9	43788.25
857.8523	1078.5826	44565.1	43636.2
857.9973	1080.5527	44415	43488.5
858.1423	1082.5221	44215.1	43290.25
858.2873	1084.4908	44179.25	43253.6
858.4323	1086.4587	44102.6	43180.2
858.5773	1088.426	44149.3	43222.9
858.7223	1090.3925	43988.35	43056.4
858.8673	1092.3584	43924.95	43001.15
859.0123	1094.3235	43662	42741.4
859.1573	1096.2879	43513.85	42589.7
859.3022	1098.2515	43533.1	42606.85
859.4472	1100.2145	43578.7	42655.2
859.5922	1102.1767	43547.15	42618.85
859.7371	1104.1382	43637.75	42712.4
859.8821	1106.099	43704.2	42778.1
860.027	1108.0591	43713.55	42791.1
860.172	1110.0185	43678	42750.75
860.3169	1111.9771	43763.75	42839
860.4619	1113.9351	43414.35	42487.95
860.6068	1115.8923	43160.05	42234.95
860.7517	1117.8488	42889.15	41963.65
860.8967	1119.8045	42486.75	41563.45
861.0416	1121.7596	42408.85	41484.4
861.1865	1123.7139	42144.4	41220.55
861.3314	1125.6675	42055.3	41133.3
861.4763	1127.6204	42056.05	41130.9
861.6212	1129.5726	41847.4	40918.3
861.7661	1131.524	41792.55	40869.5
861.911	1133.4748	41636.6	40709.7
862.0559	1135.4248	41411.15	40489.25
862.2008	1137.3741	41223.05	40298.4
862.3457	1139.3226	41032.95	40106.7
862.4905	1141.2705	40988.8	40065.15
862.6354	1143.2176	40723.9	39793.5
862.7803	1145.164	40623.65	39697.55
862.9251	1147.1097	40500.9	39577
863.07	1149.0546	40420.2	39495.35
863.2148	1150.9989	40298.9	39376.7
863.3597	1152.9424	40178.3	39253.1
863.5045	1154.8852	39983.65	39057.35
863.6493	1156.8272	39863.7	38938.9
863.7942	1158.7686	39870.7	38940.15
863.939	1160.7092	39719.5	38791.7
864.0838	1162.6491	39559.25	38629.35
864.2286	1164.5883	39607.1	38686.85
864.3734	1166.5267	39610.95	38686.55
864.5182	1168.4644	39638.45	38714.8
864.663	1170.4014	39672.25	38746.65
864.8078	1172.3377	39842.45	38919.9
864.9526	1174.2732	39987.5	39063
865.0974	1176.2081	40247.1	39325.15
865.2421	1178.1421	40475.7	39549.95
865.3869	1180.0755	40735.8	39811.05
865.5317	1182.0082	40783.1	39863.2
865.6764	1183.9401	40844.8	39924.8
865.8212	1185.8713	40625.95	39706.9
865.9659	1187.8017	40340.5	39423.05
866.1106	1189.7315	40003.55	39092.3
866.2554	1191.6605	39519.85	38608.45
866.4001	1193.5888	39125.5	38209.4
866.5448	1195.5163	38960.4	38041.85
866.6895	1197.4432	38790.75	37868.1
866.8342	1199.3693	38653.6	37734.2
866.9789	1201.2947	38474	37550.25
867.1236	1203.2193	38362.45	37439.35
867.2683	1205.1432	38318.6	37399.7
867.413	1207.0664	38179.45	37258.25
867.5576	1208.9889	38066	37142.05
867.7023	1210.9106	37904.55	36986.55
867.847	1212.8316	37739.85	36817.95
867.9916	1214.7519	37724.95	36794.3
868.1363	1216.6715	37653.65	36731.65
868.2809	1218.5903	37621.6	36701.6
868.4255	1220.5084	37548.15	36626.55
868.5701	1222.4257	37617.75	36699
868.7148	1224.3424	37396.95	36476.65
868.8594	1226.2583	37427.2	36501.35
869.004	1228.1735	37429.05	36505.2
869.1486	1230.0879	37350.55	36431
869.2932	1232.0016	37433.55	36513.4
869.4377	1233.9146	37410.3	36489
869.5823	1235.8269	37237.35	36317.2
869.7269	1237.7384	37153.5	36234.55
869.8715	1239.6492	36910	35990.75
870.016	1241.5592	36811.45	35892.25
870.1606	1243.4686	36702.25	35785.15
870.3051	1245.3772	36719.3	35797.25
870.4496	1247.285	36677.1	35756.3
870.5941	1249.1922	36638.2	35721.1
870.7387	1251.0986	36620.3	35699.1
870.8832	1253.0042	36573.25	35653.35
871.0277	1254.9092	36535	35614.45
871.1722	1256.8134	36526.1	35609.7
871.3167	1258.7169	36552.65	35632.55
871.4611	1260.6196	36608.2	35687.85
871.6056	1262.5216	36819.55	35897
871.7501	1264.4229	36831	35912.7
871.8945	1266.3234	36956.25	36037.45
872.039	1268.2232	37038.25	36118
872.1834	1270.1223	36924.05	36002.9
872.3278	1272.0207	36887.8	35968.95
872.4723	1273.9183	36730.05	35805.15
872.6167	1275.8151	36583.5	35665.85
872.7611	1277.7113	36562.85	35642.7
872.9055	1279.6067	36375.3	35457.35
873.0499	1281.5014	36439.45	35519.2
873.1943	1283.3953	36541.3	35619.65
873.3386	1285.2885	36809.5	35891.5
873.483	1287.181	37006.3	36084.95
873.6274	1289.0727	37328.3	36411.2
873.7717	1290.9637	37384.85	36469.1
873.9161	1292.854	37539.85	36621.65
874.0604	1294.7435	37473.2	36554.8
874.2047	1296.6323	37395.3	36477.35
874.349	1298.5204	37325.05	36398.8
874.4933	1300.4077	37210.7	36290.3
874.6376	1302.2943	37020.5	36102.05
874.7819	1304.1802	36853.45	35934.95
874.9262	1306.0653	36449.5	35529.8
875.0705	1307.9497	36097.95	35176.9
875.2147	1309.8333	35764.25	34845.05
875.359	1311.7162	35527	34607.1
875.5032	1313.5984	35465.35	34546.7
875.6475	1315.4798	35262.9	34334.45
875.7917	1317.3605	35205.8	34273.1
875.9359	1319.2405	35149.95	34230.15
876.0801	1321.1197	34940.6	34022.65
876.2243	1322.9982	34634.25	33709.95
876.3685	1324.876	34486.05	33568.85
876.5127	1326.753	34216.2	33297.15
876.6569	1328.6293	34107.35	33185
876.801	1330.5048	34023.4	33103.65
876.9452	1332.3796	33848.75	32931.55
877.0893	1334.2537	33755.6	32817.1
877.2335	1336.127	33554.65	32638.45
877.3776	1337.9996	33430.65	32513.95
877.5217	1339.8714	33379.3	32462.7
877.6658	1341.7426	33362.8	32402.8
877.8099	1343.6129	33322.45	32405.05
877.954	1345.4826	33228.25	32307.55
878.0981	1347.3515	33232.85	32312.6
878.2422	1349.2196	33080.9	32161.3
878.3862	1351.087	33127.85	32209
878.5303	1352.9537	33083.6	32166.05
878.6743	1354.8197	33150.4	32230.45
878.8184	1356.6849	33251.35	32333.25
878.9624	1358.5493	33265.6	32349.85
879.1064	1360.4131	33310.4	32394.5
879.2504	1362.276	33331.85	32414.1
879.3944	1364.1383	33218.95	32301.2
879.5384	1365.9998	32961.9	32036.5
879.6823	1367.8606	32674.65	31754.9
879.8263	1369.7206	32336	31416.3
879.9702	1371.5799	31975.1	31056.1
880.1142	1373.4384	31696.1	30777.4
880.2581	1375.2962	31492.5	30574.45
880.402	1377.1533	31114.95	30199
880.5459	1379.0096	30705.6	29787.1
880.6898	1380.8652	30412.6	29498.55
880.8337	1382.7201	30108.5	29194.3
880.9776	1384.5742	29805.45	28888.75
881.1215	1386.4275	29540.95	28623.8
881.2653	1388.2802	29412.1	28496.75
881.4092	1390.132	29191.8	28276.6
881.553	1391.9832	29100.35	28183.95
881.6968	1393.8336	28862.5	27943.45
881.8406	1395.6832	28768.8	27850.1
881.9844	1397.5322	28647.15	27729.5
882.1282	1399.3803	28566.1	27643.15
882.272	1401.2278	28360.3	27444.35
882.4158	1403.0745	28351	27436.15
882.5595	1404.9204	28245.25	27330.6
882.7033	1406.7656	28224.6	27310.05
882.847	1408.6101	28097.15	27179.35
882.9908	1410.4538	28069.55	27152.3
883.1345	1412.2968	27979.3	27062.85
883.2782	1414.139	27901.4	26985.6
883.4219	1415.9805	27912.05	26998
883.5656	1417.8213	27885.05	26944.85
883.7092	1419.6613	27876.75	26961.45
883.8529	1421.5006	27957.55	27040.65
883.9965	1423.3391	28070.35	27154.55
884.1402	1425.1769	28228.35	27309.6
884.2838	1427.0139	28533.85	27613.85
884.4274	1428.8502	28918.1	28001.85
884.571	1430.6858	29321.6	28403.45
884.7146	1432.5206	29496.25	28581.8
884.8582	1434.3547	29648.65	28732.8
885.0018	1436.188	29623.15	28706.45
885.1453	1438.0206	29545	28629.15
885.2889	1439.8524	29275.45	28360.2
885.4324	1441.6835	29166.75	28249.9
885.5759	1443.5139	29062	28143.4
885.7194	1445.3435	28897.55	27980.25
885.8629	1447.1724	28841.05	27928.4
886.0064	1449.0005	28752.85	27839.1
886.1499	1450.8279	28625.8	27710.85
886.2933	1452.6545	28621.6	27709.45
886.4368	1454.4804	28603.8	27691.75
886.5802	1456.3056	28550.3	27630.2
886.7237	1458.13	28412.7	27499.9
886.8671	1459.9536	28248.45	27334.55
887.0105	1461.7766	27983.6	27069.95
887.1539	1463.5987	27647.8	26730.9
887.2972	1465.4202	27332.9	26417.35
887.4406	1467.2409	26966.85	26052.35
887.584	1469.0608	26766.45	25853.4
887.7273	1470.88	26486.2	25573.8
887.8706	1472.6984	26276.3	25361.9
888.0139	1474.5161	26014.6	25099.55
888.1572	1476.3331	25833.2	24920.5
888.3005	1478.1493	25699.85	24784.7
888.4438	1479.9648	25613.95	24701.9
888.5871	1481.7795	25469.45	24553.2
888.7303	1483.5935	25457.2	24544.05
888.8736	1485.4067	25367	24450.6
889.0168	1487.2192	25280.3	24364
889.16	1489.031	25252.55	24339.05
889.3032	1490.842	25125.4	24213.65
889.4464	1492.6522	25053.2	24139.35
889.5896	1494.4618	24968.2	24055
889.7327	1496.2705	24916.45	24002
889.8759	1498.0785	24911.4	23997.95
890.019	1499.8858	24778.35	23861.05
890.1622	1501.6924	24724.2	23812.4
890.3053	1503.4981	24648.95	23737.35
890.4484	1505.3032	24587.6	23674.65
890.5914	1507.1075	24469.15	23557.65
890.7345	1508.911	24451.2	23537.55
890.8776	1510.7138	24367.7	23453.85
891.0206	1512.5159	24275.15	23361.3
891.1637	1514.3172	24145.5	23230.75
891.3067	1516.1178	24044.65	23137
891.4497	1517.9176	24053.65	23139.25
891.5927	1519.7166	23942.6	23030.15
891.7357	1521.515	23868.7	22952.1
891.8786	1523.3126	23783	22871.3
892.0216	1525.1094	23662.4	22750.25
892.1645	1526.9055	23604.05	22693.7
892.3074	1528.7008	23523.85	22613.25
892.4503	1530.4954	23377.6	22459.75
892.5932	1532.2893	23345.5	22436.1
892.7361	1534.0824	23210.55	22294.9
892.879	1535.8747	23209.75	22298.3
893.0218	1537.6663	23144.8	22235.95
893.1647	1539.4572	23007.05	22097.95
893.3075	1541.2473	23017.2	22107.3
893.4503	1543.0367	22961.1	22053.8
893.5931	1544.8253	22863.65	21951.2
893.7359	1546.6132	22867.9	21955.3
893.8787	1548.4003	22763.85	21848.15
894.0214	1550.1867	22762.15	21846.95
894.1642	1551.9723	22774.3	21862.55
894.3069	1553.7572	22754.9	21846.6
894.4496	1555.5414	22764.35	21858.7
894.5923	1557.3247	22801.15	21895.35
894.735	1559.1074	22863.05	21958.4
894.8777	1560.8893	22892.15	21989.6
895.0204	1562.6705	22957.8	22052.2
895.163	1564.4509	22990.35	22086.25
895.3056	1566.2305	22965.35	22062.7
895.4482	1568.0094	23004.55	22103.4
895.5908	1569.7876	22994.35	22092.1
895.7334	1571.565	22966.45	22063
895.876	1573.3417	22929.65	22024
896.0186	1575.1176	22902.65	22000.1
896.1611	1576.8928	22789	21888.2
896.3036	1578.6672	22701.8	21801
896.4461	1580.4409	22652.95	21753.8
896.5886	1582.2138	22557.65	21653.15
896.7311	1583.986	22501.25	21597.75
896.8736	1585.7575	22514.3	21614.85
897.0161	1587.5282	22502.25	21601.7
897.1585	1589.2981	22504.55	21607.5
897.3009	1591.0673	22456.45	21556.35
897.4433	1592.8358	22472.7	21573.75
897.5857	1594.6035	22494.3	21592.5
897.7281	1596.3704	22453.15	21549.9
897.8705	1598.1366	22448.8	21546.85
898.0128	1599.9021	22452.3	21552.8
898.1551	1601.6668	22422.1	21522.3
898.2975	1603.4308	22480.55	21579
898.4398	1605.194	22589.45	21683.75
898.5821	1606.9564	22638.5	21742.6
898.7243	1608.7182	22785.2	21887.45
898.8666	1610.4791	22976.2	22085.85
899.0088	1612.2394	23094.5	22202.4
899.1511	1613.9988	23290.5	22395.8
899.2933	1615.7576	23455.05	22559.45
899.4355	1617.5156	23596.7	22689.45
899.5776	1619.2728	23707.75	22805.75
899.7198	1621.0293	23642.85	22743.45
899.862	1622.785	23484.9	22584.35
900.0041	1624.54	23239.7	22344.3
900.1462	1626.2942	22959.4	22062.3
900.2883	1628.0477	22611.65	21710.15
900.4304	1629.8005	22333.5	21433.55
900.5725	1631.5525	22059.4	21162.2
900.7145	1633.3037	21805.25	20910.75
900.8566	1635.0542	21611.25	20714.75
900.9986	1636.804	21453.95	20555.95
901.1406	1638.553	21409.1	20458.85
901.2826	1640.3013	21231.15	20334.15
901.4245	1642.0488	21155.8	20257.5
901.5665	1643.7955	21116.45	20221
901.7085	1645.5416	21144.45	20248.55
901.8504	1647.2868	21165.6	20267.9
901.9923	1649.0313	21222.85	20324.6
902.1342	1650.7751	21267.65	20370.15
902.2761	1652.5181	21405.3	20511.4
902.4179	1654.2604	21464.7	20568.95
902.5598	1656.0019	21610	20714.45
902.7016	1657.7427	21762.8	20864.85
902.8434	1659.4828	21951.1	21053.7
902.9852	1661.222	22032.5	21136
903.127	1662.9606	21977.55	21079.85
903.2687	1664.6984	21784.65	20885.35
903.4105	1666.4354	21450.65	20548.45
903.5522	1668.1717	20966.2	20066.7
903.6939	1669.9072	20444.75	19545.5
903.8356	1671.642	20053.3	19152.85
903.9773	1673.3761	19738	18839.75
904.119	1675.1094	19429.1	18531.85
904.2606	1676.8419	19159	18262.3
904.4022	1678.5737	18939.5	18042.6
904.5439	1680.3048	18788.85	17887.8
904.6855	1682.0351	18639.35	17740.65
904.827	1683.7646	18516.05	17613.25
904.9686	1685.4934	18398.2	17499.65
905.1101	1687.2215	18299.5	17401.7
905.2517	1688.9488	18170.85	17274.4
905.3932	1690.6754	18086.2	17190.65
905.5347	1692.4012	18012.05	17114.35
905.6761	1694.1263	17955.35	17060.1
905.8176	1695.8506	17869.6	16971.85
905.9591	1697.5742	17815.05	16917.85
906.1005	1699.297	17725.5	16829.75
906.2419	1701.0191	17615.95	16723.4
906.3833	1702.7404	17528.7	16635.9
906.5246	1704.461	17461.7	16565.8
906.666	1706.1808	17395	16498
906.8073	1707.8999	17314.05	16418.25
906.9487	1709.6182	17279	16386.35
907.09	1711.3358	17202.3	16310.5
907.2313	1713.0527	17144.9	16253.15
907.3725	1714.7688	17085.55	16187.8
907.5138	1716.4841	17009.3	16113.65
907.655	1718.1987	16973.75	16074.35
907.7962	1719.9126	16911.7	16020.2
907.9374	1721.6257	16848.45	15955.7
908.0786	1723.338	16777.05	15883.15
908.2198	1725.0496	16701.2	15807.05
908.3609	1726.7605	16673.25	15777.75
908.502	1728.4706	16631.45	15736.7
908.6431	1730.18	16561.3	15668.2
908.7842	1731.8886	16504.25	15614.15
908.9253	1733.5964	16486.05	15573.95
909.0664	1735.3036	16428.05	15532.35
909.2074	1737.0099	16424.15	15530
909.3484	1738.7156	16351	15459.15
909.4894	1740.4204	16274.75	15379.75
909.6304	1742.1246	16264.4	15368.35
909.7714	1743.8279	16202.15	15309.6
909.9123	1745.5306	16137.45	15244.1
910.0532	1747.2325	16083	15192.3
910.1941	1748.9336	16027.2	15133.95
910.335	1750.634	15964.65	15069.7
910.4759	1752.3336	15939.45	15046.55
910.6168	1754.0325	15907.15	15017.4
910.7576	1755.7307	15867.15	14977.15
910.8984	1757.4281	15873.35	14979.55
911.0392	1759.1247	15823.4	14921
911.18	1760.8206	15772.65	14872.8
911.3208	1762.5158	15736.85	14838.9
911.4615	1764.2102	15672.8	14780.45
911.6022	1765.9039	15616.55	14725.4
911.7429	1767.5968	15621.6	14732.5
911.8836	1769.289	15549.95	14661.05
912.0243	1770.9804	15540.3	14646.8
912.1649	1772.6711	15510.55	14616.55
912.3056	1774.361	15468.9	14573.15
912.4462	1776.0502	15452.65	14558.75
912.5868	1777.7386	15405.75	14509.85
912.7274	1779.4263	15352.85	14460.9
912.8679	1781.1132	15338.05	14447.25
913.0084	1782.7994	15240	14349.7
913.149	1784.4849	15259.6	14370.75
913.2895	1786.1696	15209.35	14311.9
913.4299	1787.8535	15158.65	14270.05
913.5704	1789.5367	15126.2	14239.7
913.7108	1791.2192	15123.55	14235.95
913.8513	1792.9009	15074.8	14154.55
913.9917	1794.5818	15035.9	14142.35
914.132	1796.2621	14972.6	14083.4
914.2724	1797.9415	14932.05	14040.8
914.4128	1799.6202	14888.3	13996.5
914.5531	1801.2982	14864.75	13973.5
914.6934	1802.9755	14843.5	13951.25
914.8337	1804.6519	14790.1	13895.85
914.9739	1806.3277	14737.65	13846.7
915.1142	1808.0027	14676.1	13787.2
915.2544	1809.6769	14672	13782.75
915.3946	1811.3504	14623.7	13734.8
915.5348	1813.0231	14595.8	13705.6
915.675	1814.6951	14579	13688.15
915.8151	1816.3664	14577.95	13683.85
915.9553	1818.0369	14540.1	13649.15
916.0954	1819.7067	14498.6	13608.35
916.2355	1821.3757	14465.05	13570.1
916.3755	1823.044	14445.2	13553
916.5156	1824.7115	14401.15	13508.6
916.6556	1826.3783	14316.15	13425.85
916.7956	1828.0443	14303.65	13413.2
916.9356	1829.7096	14256.05	13363.7
917.0756	1831.3741	14268.3	13374.95
917.2155	1833.0379	14222.25	13332.45
917.3555	1834.701	14180.45	13289.15
917.4954	1836.3633	14143.05	13254.35
917.6353	1838.0248	14121.45	13229.55
917.7751	1839.6856	14071.8	13181.05
917.915	1841.3457	14076.6	13187.7
918.0548	1843.005	14032.5	13140.5
918.1946	1844.6636	14028.65	13140.25
918.3344	1846.3214	13991.4	13102.7
918.4742	1847.9785	13963.75	13074.6
918.6139	1849.6349	13922.25	13029.6
918.7537	1851.2904	13907.1	13003.9
918.8934	1852.9453	13845.8	12952.2
919.0331	1854.5994	13815.25	12920.75
919.1727	1856.2528	13824.55	12929.3
919.3124	1857.9054	13751.35	12860.65
919.452	1859.5572	13763.25	12873.95
919.5916	1861.2083	13718.65	12826.75
919.7312	1862.8587	13755.15	12862.95
919.8708	1864.5084	13732.55	12838.3
920.0103	1866.1572	13635.75	12743.7
920.1498	1867.8054	13612.35	12720.15
920.2893	1869.4528	13553.45	12662.85
920.4288	1871.0994	13544.35	12650.7
920.5683	1872.7453	13500.45	12608.15
920.7077	1874.3905	13489.7	12594.1
920.8471	1876.0349	13455.4	12560.8
920.9865	1877.6786	13442	12550.85
921.1259	1879.3215	13442.3	12550.7
921.2653	1880.9637	13389.45	12495.65
921.4046	1882.6051	13366.95	12478.4
921.5439	1884.2458	13332.1	12437.45
921.6832	1885.8858	13300.7	12410.8
921.8225	1887.525	13234.4	12344.85
921.9617	1889.1634	13204.55	12313
922.101	1890.8011	13181.15	12288.2
922.2402	1892.4381	13153.75	12261
922.3794	1894.0743	13131.55	12240.4
922.5185	1895.7098	13090.4	12200.7
922.6577	1897.3446	13058.1	12167.5
922.7968	1898.9786	13031.95	12136.2
922.9359	1900.6118	13015.25	12122.8
923.075	1902.2443	12940.35	12046.2
923.214	1903.8761	12920.65	12028.2
923.3531	1905.5071	12836.1	11942.6
923.4921	1907.1374	12811.45	11918.75
923.6311	1908.7669	12782.55	11894.05
923.77	1910.3957	12764.75	11874.9
923.909	1912.0237	12711.4	11820.15
924.0479	1913.651	12672.65	11778.8
924.1868	1915.2776	12671.75	11782.7
924.3257	1916.9034	12601.35	11710
924.4646	1918.5285	12548.4	11660.65
924.6034	1920.1528	12485.1	11595.55
924.7422	1921.7764	12458.55	11566.2
924.881	1923.3992	12415.6	11525.6
925.0198	1925.0213	12349.45	11457.8
925.1586	1926.6427	12325.4	11437.15
925.2973	1928.2633	12348.85	11383.7
925.436	1929.8832	12292.05	11397.9
925.5747	1931.5023	12203.4	11312.5
925.7134	1933.1207	12173.95	11283
925.852	1934.7383	12180.2	11289.75
925.9906	1936.3552	12085.7	11197.5
926.1292	1937.9714	12066.95	11177.65
926.2678	1939.5868	12032.9	11140.6
926.4064	1941.2015	11979.75	11087.65
926.5449	1942.8154	11933.4	11042.5
926.6834	1944.4286	11896.1	11005.5
926.8219	1946.041	11902.35	10991.4
926.9604	1947.6528	11815.15	10920
927.0988	1949.2637	11771.55	10882.25
927.2372	1950.8739	11751.75	10860.55
927.3756	1952.4834	11738.9	10849.2
927.514	1954.0921	11709.3	10818.8
927.6523	1955.7001	11670.05	10775.6
927.7907	1957.3074	11636.45	10749
927.929	1958.9139	11584.95	10698.05
928.0673	1960.5197	11578.7	10691.6
928.2055	1962.1247	11499.05	10610.4
928.3438	1963.729	11450.9	10564.8
928.482	1965.3325	11444.75	10536.4
928.6202	1966.9353	11396.2	10508.6
928.7584	1968.5374	11357.5	10471.1
928.8965	1970.1387	11321.9	10435.5
929.0346	1971.7393	11271.55	10385.35
929.1727	1973.3392	11250.4	10364.35
929.3108	1974.9383	11219.95	10333.15
929.4489	1976.5366	11142.6	10255.15
929.5869	1978.1342	11146.7	10258.35
929.7249	1979.7311	11119.25	10232.65
929.8629	1981.3273	11088.8	10203.35
930.0009	1982.9227	11039.55	10151.75
930.1388	1984.5173	11003.65	10116.7
930.2767	1986.1112	10931.4	10045.1
930.4146	1987.7044	10945.25	10060.55
930.5525	1989.2968	10900.2	10014.45
930.6904	1990.8885	10893.25	10004.65
930.8282	1992.4795	10860.9	9973.5
930.966	1994.0697	10801.4	9917.55
931.1038	1995.6592	10768.15	9882.9
931.2415	1997.2479	10738.15	9854.7
931.3793	1998.8359	10716.35	9831.9
931.517	2000.4232	10669.75	9786.95
931.6547	2002.0097	10667.4	9785
931.7923	2003.5955	10595.5	9710.95
931.93	2005.1805	10597.65	9712.45
932.0676	2006.7648	10557.3	9673.85
932.2052	2008.3484	10550.95	9664.85
932.3427	2009.9312	10559.85	9676.25
932.4803	2011.5133	10473.35	9591.25
932.6178	2013.0946	10451.7	9567.95
932.7553	2014.6752	10438	9557.1
932.8928	2016.2551	10456.35	9572.3
933.0302	2017.8342	10357.9	9473.45
933.1676	2019.4126	10345.45	9464.35
933.305	2020.9902	10290.4	9408.75
933.4424	2022.5672	10274.4	9390.25
933.5798	2024.1433	10244.85	9356.65
933.7171	2025.7188	10223.95	9343
933.8544	2027.2935	10194.3	9310.85
933.9917	2028.8674	10160.4	9280.2
934.129	2030.4406	10131.65	9249.9
934.2662	2032.0131	10077.6	9195.05
934.4034	2033.5849	10063.85	9179.25
934.5406	2035.1559	10048.2	9165.15
934.6778	2036.7261	10027.1	9145.25
934.8149	2038.2957	9992.65	9108.95
934.952	2039.8645	9967.3	9082.95
935.0891	2041.4325	9983.7	9096.75
935.2262	2042.9998	9911.3	9028.2
935.3632	2044.5664	9906.25	9020.95
935.5002	2046.1323	9875.15	8994.75
935.6372	2047.6974	9815.7	8934.65
935.7742	2049.2617	9801.2	8919.9
935.9111	2050.8254	9831.65	8926.9
936.048	2052.3883	9791.35	8907.7
936.1849	2053.9504	9760.2	8877.45
936.3218	2055.5118	9729	8843.05
936.4586	2057.0725	9664.4	8779.35
936.5955	2058.6325	9682.4	8800.5
936.7323	2060.1917	9628.55	8745.55
936.869	2061.7502	9608.05	8722.75
937.0058	2063.3079	9565.9	8682.6
937.1425	2064.8649	9544.65	8658.05
937.2792	2066.4212	9539.35	8656.15
937.4159	2067.9767	9518.45	8637.4
937.5525	2069.5315	9493.05	8611.85
937.6891	2071.0856	9419.65	8538
937.8257	2072.6389	9388.95	8507.75
937.9623	2074.1915	9372.15	8491.55
938.0989	2075.7433	9298.3	8412.55
938.2354	2077.2945	9294.95	8413
938.3719	2078.8448	9265.8	8383.05
938.5084	2080.3945	9236.5	8352.6
938.6448	2081.9434	9227.95	8343.25
938.7812	2083.4916	9224.65	8336.7
938.9176	2085.039	9172.75	8283
939.054	2086.5857	9170.65	8284.95
939.1903	2088.1317	9147.85	8260.2
939.3267	2089.677	9103.3	8217.1
939.463	2091.2215	9072.9	8185.8
939.5992	2092.7652	9081.6	8193.15
939.7355	2094.3083	9042.45	8155.05
939.8717	2095.8506	9040.8	8157.35
940.0079	2097.3921	9026	8141.15
940.1441	2098.933	8997.05	8111.55
940.2802	2100.4731	8990.2	8105.8
940.4163	2102.0124	8983.8	8089.9
940.5524	2103.5511	8906.9	8022.25
940.6885	2105.089	8903.15	8016.75
940.8245	2106.6261	8896.1	8011.15
940.9606	2108.1626	8891.7	8006.25
941.0965	2109.6983	8891.85	7977.25
941.2325	2111.2332	8819.7	7933.35
941.3684	2112.7675	8790.7	7904.75
941.5044	2114.301	8766.85	7878.95
941.6403	2115.8337	8758.65	7873.4
941.7761	2117.3657	8726.3	7842.6
941.912	2118.897	8733.6	7847.05
942.0478	2120.4276	8702.2	7812.85
942.1835	2121.9575	8660.7	7771.9
942.3193	2123.4866	8666.1	7780.1
942.455	2125.0149	8642.55	7754.85
942.5907	2126.5426	8594.45	7712.9
942.7264	2128.0695	8569.7	7682.45
942.8621	2129.5956	8564.5	7683.45
942.9977	2131.1211	8547.3	7658.6
943.1333	2132.6458	8515.95	7632
943.2689	2134.1698	8494	7606.95
943.4044	2135.693	8490.65	7604
943.54	2137.2155	8450.15	7562.3
943.6755	2138.7373	8429.95	7545.05
943.8109	2140.2584	8389.9	7506.25
943.9464	2141.7787	8396.75	7508.65
944.0818	2143.2983	8330.35	7446.85
944.2172	2144.8171	8291.7	7409.65
944.3526	2146.3353	8297.55	7414.9
944.4879	2147.8527	8269.1	7386.65
944.6232	2149.3693	8275.3	7390.7
944.7585	2150.8853	8241	7356.45
944.8938	2152.4005	8173.25	7286.25
945.029	2153.9149	8191.05	7303.05
945.1642	2155.4287	8244.55	7257.9
945.2994	2156.9417	8168.45	7282.55
945.4346	2158.454	8128.85	7244.05
945.5697	2159.9655	8093.8	7211.5
945.7048	2161.4764	8088.45	7205.95
945.8399	2162.9865	8063.7	7179.5
945.9749	2164.4958	8040.9	7156.5
946.1099	2166.0045	8005.85	7121.75
946.2449	2167.5124	7997.25	7113.1
946.3799	2169.0195	7992.65	7109.25
946.5148	2170.526	7987.95	7102.65
946.6498	2172.0317	7934.5	7050.25
946.7846	2173.5367	7927.15	7041.45
946.9195	2175.0409	7906.5	7022.7
947.0543	2176.5445	7925.65	7043.65
947.1891	2178.0473	7872.6	6986.95
947.3239	2179.5494	7834.25	6945.6
947.4587	2181.0507	7818.95	6936.4
947.5934	2182.5513	7798.95	6914
947.7281	2184.0512	7769.9	6884.65
947.8628	2185.5504	7749.95	6866.05
947.9974	2187.0488	7718.05	6834.8
948.132	2188.5465	7702.9	6818.3
948.2666	2190.0435	7662.4	6776.9
948.4012	2191.5397	7631.05	6748.7
948.5357	2193.0353	7640.1	6755.95
948.6702	2194.5301	7589.25	6703.15
948.8047	2196.0241	7566.9	6678.8
948.9392	2197.5175	7555.5	6668.65
949.0736	2199.0101	7533.9	6643.4
949.208	2200.502	7496.6	6612.05
949.3424	2201.9931	7476.45	6591.15
949.4767	2203.4835	7444.95	6559.35
949.611	2204.9733	7423.6	6523.65
949.7453	2206.4622	7411.45	6530
949.8796	2207.9505	7376.05	6492.3
950.0138	2209.438	7347.2	6466.1
950.148	2210.9248	7334.2	6450.55
950.2822	2212.4109	7322.45	6436.5
950.4164	2213.8962	7285.85	6399.6
950.5505	2215.3809	7276.25	6388.85
950.6846	2216.8648	7263.5	6375.35
950.8186	2218.3479	7250.8	6358.85
950.9527	2219.8304	7202.25	6313.5
951.0867	2221.3121	7182	6293.2
951.2207	2222.7931	7163.9	6278.95
951.3546	2224.2733	7133.35	6249.95
951.4886	2225.7529	7104.1	6220.15
951.6225	2227.2317	7092.7	6205.95
951.7563	2228.7098	7079.15	6197.1
951.8902	2230.1872	7036.7	6153.35
952.024	2231.6638	7039.15	6156.65
952.1578	2233.1397	7010.15	6124.45
952.2916	2234.6149	7008.3	6124.95
952.4253	2236.0894	6975	6092.9
952.559	2237.5632	6952.1	6067.35
952.6927	2239.0362	6941.6	6057.15
952.8263	2240.5085	6902	6019.5
952.9599	2241.9801	6876.4	5990.45
953.0935	2243.4509	6875.8	5989.15
953.2271	2244.921	6856.35	5970.5
953.3606	2246.3904	6796.35	5906.65
953.4941	2247.8591	6789.2	5905.8
953.6276	2249.3271	6780	5894.35
953.7611	2250.7943	6768.45	5881.15
953.8945	2252.2608	6734.3	5849.35
954.0279	2253.7266	6716.2	5830.7
954.1612	2255.1917	6694.7	5811.25
954.2946	2256.656	6676.25	5790.85
954.4279	2258.1197	6653.45	5770.4
954.5612	2259.5826	6643.45	5757.2
954.6944	2261.0447	6635.4	5750.55
954.8276	2262.5062	6634.5	5749.15
954.9608	2263.9669	6620.8	5734.1
955.094	2265.4269	6580.55	5694.5
955.2271	2266.8862	6550.75	5667.05
955.3602	2268.3448	6573.6	5687.55
955.4933	2269.8026	6557.85	5675.35
955.6264	2271.2598	6523.1	5640.2
955.7594	2272.7162	6502.35	5620.3
955.8924	2274.1719	6496.8	5611
956.0253	2275.6268	6462.95	5577.3
956.1583	2277.0811	6455.25	5569.35
956.2912	2278.5346	6443.15	5559.45
956.4241	2279.9874	6438.4	5553.6
956.5569	2281.4395	6415.75	5535.5
956.6897	2282.8908	6394.1	5504.45
956.8225	2284.3414	6356.15	5471.05
956.9553	2285.7914	6347.15	5462.55
957.088	2287.2406	6336.8	5448
957.2207	2288.689	6356.8	5470.4
957.3534	2290.1368	6317.3	5429.5
957.486	2291.5838	6307.7	5418
957.6186	2293.0302	6278.55	5389.75
957.7512	2294.4758	6238.4	5354
957.8838	2295.9206	6240.35	5352.4
958.0163	2297.3648	6214.2	5329.25
958.1488	2298.8082	6214.45	5327.7
958.2813	2300.251	6197.35	5312.15
958.4137	2301.693	6181.9	5292.35
958.5461	2303.1343	6151.15	5264.1
958.6785	2304.5748	6141.3	5255.55
958.8108	2306.0147	6138.2	5255.65
958.9432	2307.4538	6121.45	5238.5
959.0754	2308.8922	6084.75	5202.35
959.2077	2310.3299	6083.45	5201
959.3399	2311.7669	6058.3	5175.6
959.4721	2313.2031	6050.55	5164
959.6043	2314.6387	6000.55	5116.35
959.7365	2316.0735	5991.9	5106.1
959.8686	2317.5076	5980.7	5094
960.0006	2318.941	5959.45	5074.55
960.1327	2320.3737	5940.85	5053.95
960.2647	2321.8056	5933.7	5044.4
960.3967	2323.2369	5916.85	5030.7
960.5287	2324.6674	5904.2	5017.8
960.6606	2326.0972	5892.6	5005.85
960.7925	2327.5263	5882.15	4997.85
960.9244	2328.9547	5850.55	4963.9
961.0562	2330.3823	5845.15	4956.75
961.1881	2331.8092	5838.9	4948.7
961.3198	2333.2355	5805	4918.55
961.4516	2334.661	5789.2	4903.55
961.5833	2336.0858	5776.8	4891.45
961.715	2337.5098	5781.8	4898.3
961.8467	2338.9332	5754.85	4869.55
961.9783	2340.3558	5741.7	4854.45
962.1099	2341.7778	5701.7	4816.7
962.2415	2343.199	5681.95	4794.35
962.373	2344.6195	5693.35	4810.05
962.5045	2346.0393	5671.5	4785.95
962.636	2347.4583	5683.55	4799.35
962.7675	2348.8767	5674.3	4787.1
962.8989	2350.2943	5669.8	4783.05
963.0303	2351.7113	5637.4	4748.95
963.1617	2353.1275	5613.85	4727.25
963.293	2354.543	5609	4698.2
963.4243	2355.9578	5578.15	4688.25
963.5556	2357.3718	5553.4	4668
963.6868	2358.7852	5539.75	4651
963.818	2360.1978	5545.85	4658.85
963.9492	2361.6098	5518.5	4632
964.0803	2363.021	5483.7	4596.15
964.2114	2364.4315	5473.65	4588.05
964.3425	2365.8413	5462.9	4575.8
964.4736	2367.2504	5435.25	4550.75
964.6046	2368.6587	5398.9	4511.8
964.7356	2370.0664	5402.05	4515.85
964.8666	2371.4733	5385.9	4500
964.9975	2372.8795	5373.75	4489.3
965.1284	2374.285	5340.7	4454.55
965.2593	2375.6899	5322.75	4439.65
965.3901	2377.0939	5316.5	4431.5
965.5209	2378.4973	5296.6	4411.2
965.6517	2379.9	5282.25	4396
965.7825	2381.3019	5260.4	4375.5
965.9132	2382.7032	5267.65	4383.95
966.0439	2384.1037	5234.15	4352.9
966.1745	2385.5035	5232.55	4349.3
966.3051	2386.9027	5218.7	4335.15
966.4357	2388.3011	5192.8	4303.65
966.5663	2389.6987	5196.65	4311.95
966.6968	2391.0957	5166.65	4282.7
966.8273	2392.492	5133.8	4250.05
966.9578	2393.8876	5112.25	4227.45
967.0882	2395.2824	5116.55	4229.65
967.2186	2396.6765	5099.2	4214.9
967.349	2398.07	5062.05	4176.75
967.4793	2399.4627	5066.55	4178.6
967.6097	2400.8547	5039.5	4152.15
967.7399	2402.246	5036.85	4145.6
967.8702	2403.6366	5016.05	4129.85
968.0004	2405.0265	4994.85	4110.3
968.1306	2406.4156	4976.05	4086.1
968.2607	2407.8041	4954.6	4065.9
968.3909	2409.1918	4943.35	4054.5
968.521	2410.5789	4927.6	4044.05
968.651	2411.9652	4912.25	4022.85
968.781	2413.3508	4906.85	4020.15
968.911	2414.7358	4896.35	4009.65
969.041	2416.12	4897.5	4010.95
969.1709	2417.5035	4868.9	3982.6
969.3008	2418.8863	4844.3	3956.5
969.4307	2420.2684	4832.75	3947.25
969.5606	2421.6497	4804.7	3916.85
969.6904	2423.0304	4783.8	3897.15
969.8201	2424.4104	4785.2	3898.9
969.9499	2425.7896	4774.45	3886.8
970.0796	2427.1682	4755.45	3870.2
970.2093	2428.546	4742.05	3855
970.3389	2429.9232	4736.8	3849.05
970.4685	2431.2996	4719	3832.15
970.5981	2432.6753	4723.6	3839.25
970.7277	2434.0503	4698.9	3810.75
970.8572	2435.4246	4666.8	3781.65
970.9867	2436.7982	4654.35	3765.95
971.1161	2438.1711	4654.45	3769.55
971.2456	2439.5433	4642.2	3756.25
971.375	2440.9148	4607	3717
971.5043	2442.2856	4614.85	3729.3
971.6336	2443.6557	4604.05	3716.5
971.7629	2445.025	4584.3	3699.2
971.8922	2446.3937	4577.25	3690.2
972.0214	2447.7617	4551.65	3664.35
972.1506	2449.1289	4537.1	3651.8
972.2798	2450.4955	4533.25	3641.65
972.4089	2451.8613	4528.3	3643.4
972.538	2453.2265	4507.45	3622.7
972.6671	2454.5909	4483	3596.75
972.7961	2455.9546	4493.95	3609.05
972.9251	2457.3177	4473.8	3589
973.0541	2458.68	4463.55	3576.5
973.1831	2460.0416	4455.9	3569.25
973.312	2461.4025	4454.65	3568.25
973.4408	2462.7627	4442.8	3543.4
973.5697	2464.1222	4421.7	3539.55
973.6985	2465.4811	4404.65	3518.8
973.8273	2466.8392	4407.6	3521.95
973.956	2468.1966	4404.95	3516.75
974.0847	2469.5533	4393.35	3504
974.2134	2470.9093	4377.7	3489.95
974.3421	2472.2645	4371.55	3485.85
974.4707	2473.6191	4352.05	3468.2
974.5993	2474.973	4329.45	3443.55
974.7278	2476.3262	4322.65	3434.15
974.8563	2477.6787	4319.15	3434.6
974.9848	2479.0305	4303.2	3418
975.1132	2480.3816	4294.45	3407.95
975.2417	2481.7319	4260.95	3375.75
975.37	2483.0816	4251.55	3362.85
975.4984	2484.4306	4235.1	3348.05
975.6267	2485.7789	4210.7	3326.95
975.755	2487.1264	4213.3	3326.85
975.8833	2488.4733	4198.5	3316.3
976.0115	2489.8195	4206.15	3304
976.1397	2491.165	4196.35	3306.85
976.2678	2492.5097	4180.7	3294.55
976.3959	2493.8538	4159.15	3273
976.524	2495.1972	4148.2	3260.85
976.6521	2496.5398	4136.4	3249.05
976.7801	2497.8818	4112.65	3225.45
976.9081	2499.2231	4108.7	3222.7
977.036	2500.5637	4092.9	3206.65
977.164	2501.9035	4091.05	3202.7
977.2918	2503.2427	4059.75	3170.25
977.4197	2504.5812	4052.25	3165.3
977.5475	2505.919	4057.4	3168.85
977.6753	2507.256	4035.85	3151.3
977.8031	2508.5924	4029.2	3144.5
977.9308	2509.9281	4027.95	3135.1
978.0585	2511.2631	4001.2	3115.75
978.1861	2512.5974	3999.55	3116.05
978.3137	2513.9309	3992.6	3107.3
978.4413	2515.2638	3991.6	3081.9
978.5689	2516.596	3954.15	3069.7
978.6964	2517.9275	3951.25	3064.95
978.8239	2519.2583	3931.75	3045.85
978.9513	2520.5884	3911.6	3024.25
979.0788	2521.9178	3908.1	3020.9
979.2062	2523.2465	3912.35	3026.95
979.3335	2524.5745	3878.6	2995.75
979.4608	2525.9018	3875	2990.3
979.5881	2527.2284	3871.1	2987.2
979.7154	2528.5543	3866.5	2982.6
979.8426	2529.8796	3840.3	2956.2
979.9698	2531.2041	3853.65	2970.05
980.0969	2532.5279	3835.55	2951.65
980.224	2533.851	3824.4	2939.4
980.3511	2535.1735	3812.75	2927.55
980.4781	2536.4952	3814.35	2928.85
980.6052	2537.8163	3800.35	2913.3
980.7321	2539.1366	3795.15	2908.7
980.8591	2540.4562	3786.15	2901.55
980.986	2541.7752	3786.25	2900.05
981.1129	2543.0935	3774.3	2889
981.2397	2544.411	3786.85	2898.45
981.3665	2545.7279	3754.15	2868.05
981.4933	2547.0441	3758.75	2873.45
981.62	2548.3596	3773.55	2885.4
981.7467	2549.6744	3747.45	2862.55
981.8734	2550.9885	3721.9	2832.7
982.0001	2552.3019	3729.45	2843.45
982.1267	2553.6146	3717.65	2830.75
982.2532	2554.9266	3694.75	2808.7
982.3798	2556.2379	3686.55	2798.25
982.5063	2557.5485	3686.4	2802
982.6327	2558.8585	3677.35	2782.2
982.7592	2560.1677	3669.65	2780.35
982.8856	2561.4762	3654.85	2768.7
983.0119	2562.7841	3665.1	2775.7
983.1383	2564.0913	3660.25	2774.85
983.2646	2565.3977	3636.8	2751.15
983.3908	2566.7035	3640.35	2753.8
983.517	2568.0086	3634.15	2747.1
983.6432	2569.313	3627.9	2741.5
983.7694	2570.6167	3619.4	2730.65
983.8955	2571.9197	3603.25	2717.2
984.0216	2573.222	3610.75	2721.15
984.1476	2574.5236	3597	2711.15
984.2737	2575.8246	3597	2707.55
984.3996	2577.1248	3588.45	2701.75
984.5256	2578.4244	3574.6	2690.7
984.6515	2579.7232	3563.65	2679.4
984.7774	2581.0214	3578	2660.3
984.9032	2582.3189	3565.6	2679.45
985.029	2583.6157	3569.4	2679
985.1548	2584.9118	3551.75	2667.25
985.2806	2586.2072	3541.95	2656.45
985.4063	2587.5019	3530	2644.45
985.5319	2588.7959	3525.5	2635.9
985.6576	2590.0893	3535.9	2649.65
985.7832	2591.3819	3518.35	2631.7
985.9087	2592.6739	3519.2	2635.35
986.0343	2593.9652	3514.05	2627.7
986.1597	2595.2557	3496.65	2609.05
986.2852	2596.5456	3473.7	2588.9
986.4106	2597.8348	3484.35	2598.1
986.536	2599.1234	3470.65	2586.6
986.6614	2600.4112	3455.45	2569.95
986.7867	2601.6983	3454.55	2564.7
986.912	2602.9848	3436.05	2549.05
987.0372	2604.2705	3420.2	2527.55
987.1624	2605.5556	3424.8	2539.85
987.2876	2606.84	3394.7	2509.2
987.4128	2608.1237	3397.05	2509.05
987.5379	2609.4067	3390.85	2505.7
987.6629	2610.689	3390.25	2494.9
987.788	2611.9707	3365.3	2477.55
987.913	2613.2516	3349.25	2459.4
988.0379	2614.5319	3340.75	2455.4
988.1629	2615.8115	3332.45	2448.15
988.2878	2617.0903	3335.3	2449.05
988.4126	2618.3685	3325.2	2439.85
988.5375	2619.6461	3300.65	2414.25
988.6622	2620.9229	3302.7	2416.95
988.787	2622.199	3298.1	2411.15
988.9117	2623.4745	3280.4	2395.55
989.0364	2624.7493	3281.55	2394.6
989.161	2626.0234	3257.45	2373.05
989.2857	2627.2968	3248.65	2362.75
989.4102	2628.5695	3241.9	2356.15
989.5348	2629.8415	3235.1	2349.8
989.6593	2631.1128	3232.9	2345.5
989.7837	2632.3835	3229	2343.8
989.9082	2633.6535	3202.15	2317.75
990.0326	2634.9228	3207.25	2323.8
990.1569	2636.1914	3185.55	2301
990.2812	2637.4593	3177.6	2289.45
990.4055	2638.7265	3173.85	2287.55
990.5298	2639.9931	3171.75	2288.55
990.654	2641.259	3168.45	2281.85
990.7782	2642.5242	3159.15	2274.65
990.9023	2643.7887	3137.05	2249.5
991.0264	2645.0525	3136.15	2250.25
991.1505	2646.3156	3139.65	2240.15
991.2745	2647.5781	3117.6	2231.85
991.3985	2648.8398	3116.5	2233.9
991.5225	2650.1009	3115	2202.65
991.6464	2651.3613	3099.15	2212.95
991.7703	2652.6211	3089.3	2203
991.8942	2653.8801	3081.9	2196.55
992.018	2655.1385	3077.95	2189.6
992.1418	2656.3961	3070.15	2185.2
992.2655	2657.6531	3054.95	2171.75
992.3892	2658.9094	3057.8	2173
992.5129	2660.1651	3055.65	2169.85
992.6366	2661.42	3046.35	2160.6
992.7602	2662.6743	3043.9	2155.6
992.8837	2663.9279	3042	2158.95
993.0073	2665.1808	3047.65	2161.3
993.1307	2666.433	3033	2149.35
993.2542	2667.6846	3036.05	2150.8
993.3776	2668.9354	3031.65	2143.9
993.501	2670.1856	3011.3	2124.85
993.6244	2671.4351	3009.9	2126.7
993.7477	2672.6839	3024.85	2137.4
993.8709	2673.9321	3014.7	2131.95
993.9942	2675.1795	3006.1	2121
994.1174	2676.4263	3002.75	2118.05
994.2405	2677.6724	2987.55	2103.1
994.3637	2678.9179	2977.4	2091.55
994.4868	2680.1626	2971.4	2086.75
994.6098	2681.4067	2961.55	2076.15
994.7328	2682.6501	2967.95	2081.5
994.8558	2683.8928	2948.35	2063.25
994.9788	2685.1348	2946.25	2063
995.1017	2686.3761	2937.6	2052.7
995.2245	2687.6168	2926.8	2043.75
995.3474	2688.8568	2918.4	2033.1
995.4702	2690.0961	2908.9	2026.85
995.5929	2691.3348	2913.75	2028.6
995.7156	2692.5727	2900	2013.4
995.8383	2693.81	2882.9	1998.05
995.961	2695.0466	2871.35	1989.65
996.0836	2696.2826	2880.9	1995.8
996.2062	2697.5178	2874.2	1984.95
996.3287	2698.7524	2861.85	1978.9
996.4512	2699.9863	2866.8	1979.6
996.5737	2701.2195	2850.65	1967.05
996.6961	2702.452	2860.5	1974.5
996.8185	2703.6839	2863.45	1976.85
996.9408	2704.9151	2853.2	1967.75
997.0631	2706.1456	2849.8	1964.05
997.1854	2707.3755	2847.3	1962.9
997.3077	2708.6046	2835.25	1948.95
997.4299	2709.8331	2847.85	1963.8
997.552	2711.0609	2840.45	1956.05
997.6742	2712.2881	2850.5	1966.95
997.7963	2713.5145	2854.7	1965.25
997.9183	2714.7403	2837.25	1955.5
998.0403	2715.9654	2837.9	1951.1
998.1623	2717.1899	2854.55	1955.15
998.2842	2718.4136	2852.6	1967.95
998.4062	2719.6367	2836.9	1950.5
998.528	2720.8591	2837.05	1944.95
998.6498	2722.0809	2854.9	1970.7
998.7716	2723.3019	2847.2	1960.4
998.8934	2724.5223	2865	1980.8
999.0151	2725.7421	2866.6	1981.8
999.1368	2726.9611	2842.75	1957.55
999.2584	2728.1795	2839.35	1950.6
999.38	2729.3972	2828.6	1944.9
999.5016	2730.6142	2808.7	1916.85
999.6231	2731.8306	2782.45	1895.85
999.7446	2733.0462	2783.05	1896
999.8661	2734.2612	2755.7	1866
999.9875	2735.4756	2734.95	1850.65
1000.1089	2736.6892	2711.2	1828.3
1000.2302	2737.9022	2710.75	1827.5
1000.3515	2739.1145	2684.05	1799.2
1000.4728	2740.3262	2676.35	1784.95
1000.594	2741.5372	2661.25	1777.1
1000.7152	2742.7475	2648.8	1762.55
1000.8363	2743.9571	2628.8	1744.25
1000.9575	2745.1661	2635.7	1747.4
1001.0785	2746.3744	2612.8	1727.6
1001.1996	2747.582	2602.45	1718
1001.3206	2748.7889	2583.2	1697.7
1001.4415	2749.9952	2592.15	1711.4
1001.5625	2751.2008	2573	1687.5
1001.6833	2752.4057	2563.85	1675.8
1001.8042	2753.61	2553.65	1667.9
1001.925	2754.8136	2539.3	1654.15
1002.0458	2756.0165	2526.1	1643.15
1002.1665	2757.2188	2522.3	1639.1
1002.2872	2758.4204	2525.5	1640.2
1002.4078	2759.6213	2518.1	1632.8
1002.5285	2760.8215	2525.75	1638.2
1002.649	2762.0211	2517.9	1633.1
1002.7696	2763.22	2516.8	1629.9
1002.8901	2764.4182	2501.8	1617.9
1003.0106	2765.6158	2503.4	1617.45
1003.131	2766.8127	2485.8	1603.9
1003.2514	2768.009	2477.1	1593.65
1003.3717	2769.2045	2463.55	1579.05
1003.492	2770.3994	2466.5	1581.3
1003.6123	2771.5936	2466.9	1581.7
1003.7325	2772.7872	2450.1	1566
1003.8527	2773.9801	2442.95	1559.75
1003.9729	2775.1723	2450	1550.65
1004.093	2776.3639	2432.95	1549.8
1004.2131	2777.5548	2429	1544.15
1004.3331	2778.745	2420.65	1534.55
1004.4531	2779.9346	2411.55	1529.7
1004.5731	2781.1235	2415.3	1528.85
1004.693	2782.3117	2408.45	1524.1
1004.8129	2783.4992	2406.7	1522.7
1004.9328	2784.6861	2408.8	1525.2
1005.0526	2785.8723	2412	1526.85
1005.1723	2787.0579	2401	1518.75
1005.2921	2788.2428	2407.7	1523.4
1005.4118	2789.427	2401.55	1518.25
1005.5314	2790.6106	2411.8	1527.4
1005.651	2791.7935	2408.95	1522.9
1005.7706	2792.9757	2400.85	1520.65
1005.8902	2794.1573	2403.1	1518.1
1006.0097	2795.3382	2413	1532.4
1006.1291	2796.5184	2409.4	1525.65
1006.2485	2797.698	2428.75	1543.55
1006.3679	2798.8769	2417.6	1535.4
1006.4873	2800.0551	2422.3	1538
1006.6066	2801.2327	2440.5	1557.45
1006.7258	2802.4096	2442.1	1561.55
1006.8451	2803.5859	2441.1	1558.95
1006.9642	2804.7615	2450.25	1565.25
1007.0834	2805.9364	2454.3	1572.5
1007.2025	2807.1106	2468.2	1586.1
1007.3216	2808.2842	2489.85	1606.15
1007.4406	2809.4572	2513.95	1632.1
1007.5596	2810.6294	2541.15	1657.3
1007.6785	2811.801	2555.75	1673.75
1007.7975	2812.972	2580.6	1700.55
1007.9163	2814.1423	2614.65	1731.9
1008.0352	2815.3119	2637.8	1753.7
1008.154	2816.4808	2669.75	1788.4
1008.2727	2817.6491	2717.7	1834.5
1008.3914	2818.8167	2754.4	1871.8
1008.5101	2819.9837	2794.05	1906.15
1008.6288	2821.15	2829.75	1948.5
1008.7474	2822.3157	2870.1	1988.15
1008.8659	2823.4807	2895.7	2014.45
1008.9844	2824.645	2942.35	2058.25
1009.1029	2825.8086	2974.9	2091.6
1009.2214	2826.9716	3008.55	2124.9
1009.3398	2828.134	3062.7	2180.15
1009.4581	2829.2957	3101.65	2217.65
1009.5764	2830.4567	3107.65	2226.35
1009.6947	2831.617	3129.15	2246.15
1009.813	2832.7767	3134.45	2253.4
1009.9312	2833.9358	3127.15	2244.9
1010.0493	2835.0941	3116.2	2233.5
1010.1675	2836.2519	3097.3	2214
1010.2855	2837.4089	3085	2200.25
1010.4036	2838.5653	3077.6	2196.65
1010.5216	2839.7211	3056.15	2173.4
1010.6396	2840.8761	3070.05	2184.45
1010.7575	2842.0306	3067.85	2188.1
1010.8754	2843.1843	3088.25	2205.8
1010.9932	2844.3374	3105.05	2221.95
1011.111	2845.4899	3138.75	2255.95
1011.2288	2846.6417	3176.3	2293.9
1011.3465	2847.7928	3227.4	2346
1011.4642	2848.9433	3283.45	2398.95
1011.5818	2850.0931	3340.45	2459.45
1011.6995	2851.2422	3377.2	2493.55
1011.817	2852.3907	3429.65	2544.9
1011.9345	2853.5385	3472.6	2588.05
1012.052	2854.6857	3509.95	2618.55
1012.1695	2855.8323	3531.2	2650.5
1012.2869	2856.9781	3579.45	2696.55
1012.4042	2858.1233	3605.3	2722.7
1012.5216	2859.2679	3634.25	2750.65
1012.6389	2860.4118	3678.45	2796.4
1012.7561	2861.555	3710.2	2821.7
1012.8733	2862.6976	3746.9	2860.45
1012.9905	2863.8395	3768.8	2886.45
1013.1076	2864.9808	3794.3	2911.65
1013.2247	2866.1214	3794.65	2911.7
1013.3417	2867.2614	3814.35	2932.95
1013.4587	2868.4007	3831.25	2946.25
1013.5757	2869.5393	3834.95	2949.55
1013.6926	2870.6773	3834	2950
1013.8095	2871.8146	3846.65	2962.4
1013.9263	2872.9513	3835.1	2949.1
1014.0431	2874.0874	3825.5	2944.2
1014.1599	2875.2227	3824.85	2940.1
1014.2766	2876.3574	3803.3	2920.8
1014.3933	2877.4915	3766.55	2883.65
1014.51	2878.6249	3755.95	2872.1
1014.6266	2879.7577	3716.25	2832.05
1014.7431	2880.8898	3711.65	2818.65
1014.8596	2882.0212	3677.9	2797.2
1014.9761	2883.152	3669.2	2787.5
1015.0925	2884.2821	3655.35	2776
1015.2089	2885.4116	3659.9	2780.3
1015.3253	2886.5405	3651.15	2768.75
1015.4416	2887.6686	3662.25	2777.55
1015.5579	2888.7962	3653.2	2774.15
1015.6741	2889.923	3650.7	2771.45
1015.7903	2891.0493	3660.1	2780.6
1015.9065	2892.1748	3675.4	2791.35
1016.0226	2893.2997	3674.5	2792.4
1016.1387	2894.424	3662.5	2779.6
1016.2547	2895.5476	3688.95	2808.85
1016.3707	2896.6706	3700.8	2820.3
1016.4866	2897.7929	3709.95	2826
1016.6025	2898.9145	3730.05	2847.35
1016.7184	2900.0355	3740.8	2859.45
1016.8342	2901.1559	3766.15	2882.65
1016.95	2902.2756	3794.5	2911.6
1017.0658	2903.3946	3797.5	2915.35
1017.1815	2904.513	3828.05	2941.9
1017.2971	2905.6308	3832.1	2950.2
1017.4127	2906.7479	3851.85	2968.05
1017.5283	2907.8643	3876.3	2995.25
1017.6439	2908.9801	3887.05	3001.8
1017.7594	2910.0953	3869.75	2988
1017.8748	2911.2098	3897.55	3011.85
1017.9902	2912.3236	3882.05	2992
1018.1056	2913.4368	3871.6	2987.7
1018.2209	2914.5494	3840.5	2957.2
1018.3362	2915.6613	3814.05	2926.85
1018.4515	2916.7725	3790.5	2905.75
1018.5667	2917.8831	3759.3	2876.15
1018.6819	2918.9931	3733	2847.45
1018.797	2920.1024	3709	2826.7
1018.9121	2921.211	3700.65	2821.3
1019.0271	2922.319	3674.8	2793.3
1019.1421	2923.4264	3653.45	2773.25
1019.2571	2924.5331	3641.2	2760.25
1019.372	2925.6391	3637.4	2755.1
1019.4869	2926.7445	3629.1	2747.3
1019.6017	2927.8493	3629.85	2746.3
1019.7165	2928.9534	3623.65	2742.55
1019.8313	2930.0569	3620.4	2734.8
1019.946	2931.1597	3633.6	2750.45
1020.0606	2932.2619	3625.4	2745.15
1020.1753	2933.3634	3629	2748.3
1020.2899	2934.4643	3631.45	2742.2
1020.4044	2935.5645	3607.25	2718.15
1020.5189	2936.6641	3588.3	2702.2
1020.6334	2937.763	3550.35	2669.75
1020.7478	2938.8613	3527.65	2645.5
1020.8622	2939.959	3491.85	2603.2
1020.9765	2941.056	3432.45	2550.75
1021.0908	2942.1523	3376.55	2493.5
1021.2051	2943.248	3304.8	2423.25
1021.3193	2944.3431	3221.3	2341.5
1021.4334	2945.4375	3162.25	2278.7
1021.5476	2946.5313	3077.3	2197.4
1021.6617	2947.6244	2992.3	2111.5
1021.7757	2948.7169	2914.8	2032.35
1021.8897	2949.8087	2827.65	1946.15
1022.0037	2950.8999	2743.85	1860.3
1022.1176	2951.9904	2695.2	1813.75
1022.2315	2953.0803	2639.1	1755.4
1022.3453	2954.1696	2571.55	1690.7
1022.4591	2955.2582	2534.5	1651.65
1022.5728	2956.3462	2495.25	1614.9
1022.6865	2957.4335	2454.15	1573.2
1022.8002	2958.5202	2436.55	1554.65
1022.9138	2959.6062	2411.65	1531.65
1023.0274	2960.6916	2383.45	1503.45
1023.141	2961.7764	2360.05	1477.65
1023.2545	2962.8605	2357.7	1477.3
1023.3679	2963.9439	2347.85	1467.3
1023.4813	2965.0267	2322.8	1439.2
1023.5947	2966.1089	2339.05	1434.6
1023.708	2967.1905	2317.55	1435.55
1023.8213	2968.2714	2299.8	1419.35
1023.9346	2969.3516	2304.65	1424.8
1024.0478	2970.4312	2311.85	1422.25
1024.1609	2971.5102	2309.8	1429.35
1024.274	2972.5885	2302.05	1422.75
1024.3871	2973.6662	2301.4	1413.7
1024.5002	2974.7432	2303.9	1424.35
1024.6132	2975.8196	2300.5	1416.45
1024.7261	2976.8954	2287.05	1406.6
1024.839	2977.9705	2281.6	1400.65
1024.9519	2979.045	2266.05	1385.9
1025.0647	2980.1188	2253.35	1372.8
1025.1775	2981.192	2241.75	1361.8
1025.2902	2982.2645	2224.25	1342.45
1025.4029	2983.3364	2193.45	1313.7
1025.5156	2984.4077	2161.9	1280.75
1025.6282	2985.4783	2163.15	1276.6
1025.7407	2986.5483	2124.95	1244.5
1025.8532	2987.6177	2098.5	1219.5
1025.9657	2988.6864	2085	1202.2
1026.0782	2989.7545	2055.05	1174.25
1026.1906	2990.8219	2018.05	1138.7
1026.3029	2991.8887	1990.15	1107.5
1026.4152	2992.9548	1955.95	1075.6
1026.5275	2994.0204	1933.8	1056.1
1026.6397	2995.0852	1907.4	1028.2
1026.7519	2996.1495	1891.4	1009.3
1026.864	2997.2131	1868.85	987.5
1026.9761	2998.276	1841.9	961.7
1027.0882	2999.3383	1816.35	935.4
1027.2002	3000.4	1807.5	924.2
1027.3122	3001.4611	1785.7	903
1027.4241	3002.5215	1778.9	898.35
1027.536	3003.5812	1756.9	876.7
1027.6478	3004.6404	1747.95	867.45
1027.7596	3005.6989	1739.7	855.75
1027.8714	3006.7567	1720.25	839.25
1027.9831	3007.8139	1735.35	834.45
1028.0947	3008.8705	1703.05	822.25
1028.2064	3009.9264	1709.25	812.1
1028.3179	3010.9818	1694.9	813.35
1028.4295	3012.0364	1690.7	808.65
1028.541	3013.0905	1681.35	801.2
1028.6524	3014.1439	1674.05	793.1
1028.7638	3015.1966	1659	779.2
1028.8752	3016.2487	1655.4	773.6
1028.9865	3017.3002	1662.05	779.55
1029.0978	3018.3511	1654.9	776.7
1029.209	3019.4013	1646.8	769.55
1029.3202	3020.4509	1648.7	769.9
1029.4314	3021.4998	1640.1	758.65
1029.5425	3022.5481	1645.6	764.85
1029.6535	3023.5958	1633.2	751.65
1029.7645	3024.6428	1641.3	758.75
1029.8755	3025.6892	1631.95	751.6
1029.9864	3026.735	1638	757.7
1030.0973	3027.7802	1634.35	754
1030.2082	3028.8247	1629.2	747.6
1030.319	3029.8685	1628.75	746.35
1030.4297	3030.9118	1632.7	753.45
1030.5404	3031.9544	1628.5	746.95
1030.6511	3032.9963	1625.8	745.5
1030.7617	3034.0376	1628.15	748.5
1030.8723	3035.0783	1626.05	743.45
1030.9829	3036.1184	1627.55	746.85
1031.0934	3037.1578	1631.05	751.7
1031.2038	3038.1966	1636.15	755.15
1031.3142	3039.2348	1621.75	740.8
1031.4246	3040.2723	1635.95	746.8
1031.5349	3041.3092	1624.8	745
1031.6452	3042.3455	1618.65	738.55
1031.7554	3043.3811	1620.7	739.1
1031.8656	3044.4161	1617.35	738.15
1031.9758	3045.4505	1603.8	724.95
1032.0859	3046.4842	1608.95	727.25
1032.1959	3047.5173	1596.95	716.65
1032.3059	3048.5498	1594.55	712
1032.4159	3049.5816	1598.7	719.55
1032.5258	3050.6128	1596.2	714.4
1032.6357	3051.6434	1592.65	711.25
1032.7455	3052.6734	1580.55	699
1032.8553	3053.7027	1575.65	694.65
1032.9651	3054.7314	1569.65	688.85
1033.0748	3055.7594	1563.8	683.05
1033.1845	3056.7868	1571.05	690.05
1033.2941	3057.8136	1555.4	674.7
1033.4037	3058.8398	1556.6	677.1
1033.5132	3059.8653	1552.2	673.5
1033.6227	3060.8902	1543.95	663.3
1033.7321	3061.9145	1539.5	658.75
1033.8415	3062.9381	1541.8	660.9
1033.9509	3063.9612	1551.55	655.65
1034.0602	3064.9835	1526.25	646.6
1034.1694	3066.0053	1527.9	644.15
1034.2787	3067.0264	1523.3	643.8
1034.3878	3068.0469	1526.35	645.05
1034.497	3069.0668	1516.3	633
1034.6061	3070.086	1505.45	625.15
1034.7151	3071.1046	1494.5	612.65
1034.8241	3072.1226	1487.95	605.9
1034.9331	3073.1399	1485.9	605.85
1035.042	3074.1567	1472.3	592.2
1035.1508	3075.1727	1470.85	590.3
1035.2597	3076.1882	1456.05	575.55
1035.3684	3077.203	1453.1	572.25
1035.4772	3078.2173	1443.3	562.35
1035.5859	3079.2308	1444.5	560.45
1035.6945	3080.2438	1434.1	552.55
1035.8031	3081.2561	1419.05	537.15
1035.9117	3082.2678	1418.85	537.7
1036.0202	3083.2789	1412.35	531.35
1036.1286	3084.2893	1411.9	530.9
1036.2371	3085.2991	1403.55	523.15
1036.3454	3086.3083	1401.55	515.25
1036.4538	3087.3169	1389.1	507.8
1036.562	3088.3248	1391.9	509.35
1036.6703	3089.3321	1384.15	502.6
1036.7785	3090.3388	1382.2	503.1
1036.8866	3091.3449	1374.55	493.1
1036.9948	3092.3503	1376.8	495.15
1037.1028	3093.3551	1361.55	482.45
1037.2108	3094.3593	1361.65	481.4
1037.3188	3095.3629	1354.8	476
1037.4267	3096.3658	1352.75	471.65
1037.5346	3097.3681	1333.6	451.9
1037.6425	3098.3698	1350.45	469.95
1037.7503	3099.3708	1351	466.1
1037.858	3100.3713	1339.95	459.85
1037.9657	3101.3711	1336.45	455.25
1038.0734	3102.3702	1453.5	438.35
1038.181	3103.3688	1331.25	450.75
1038.2886	3104.3667	1317.8	437.8
1038.3961	3105.364	1325.4	445.55
1038.5036	3106.3607	1325.6	445.9
1038.611	3107.3568	1319	438.6
1038.7184	3108.3522	1309.65	431.9
1038.8257	3109.347	1307.75	426.3
1038.933	3110.3412	1305.2	419.85
1039.0403	3111.3348	1302.65	422.35
1039.1475	3112.3277	1297.2	417.2
1039.2547	3113.32	1294.8	415.3
1039.3618	3114.3117	1293.3	411.35
1039.4689	3115.3028	1293.95	415.55
1039.5759	3116.2932	1285.6	402.5
1039.6829	3117.2831	1296.8	409.65
1039.7898	3118.2723	1281.35	402.7
1039.8967	3119.2608	1275.85	397.3
1040.0035	3120.2488	1275.85	393.25
1040.1103	3121.2361	1274.45	394.55
1040.2171	3122.2229	1271.55	392.3
1040.3238	3123.209	1264.05	384.9
1040.4305	3124.1944	1271	391.55
1040.5371	3125.1793	1270.25	390.9
1040.6437	3126.1635	1254.35	374.3
1040.7502	3127.1471	1255.55	374.85
1040.8567	3128.1301	1256.5	376.9
1040.9631	3129.1125	1249.75	369.9
1041.0695	3130.0942	1251.1	370.25
1041.1759	3131.0753	1260.35	371.75
1041.2822	3132.0558	1256.2	373.4
1041.3884	3133.0357	1250	370.1
1041.4946	3134.015	1245.65	363.75
1041.6008	3134.9936	1239.85	358.25
1041.7069	3135.9716	1259.3	357.6
1041.813	3136.949	1240.55	360.9
1041.919	3137.9258	1252.95	355.15
1042.025	3138.902	1241.4	357.1
1042.1309	3139.8775	1236.7	357.65
1042.2368	3140.8524	1228.75	347.8
1042.3427	3141.8267	1226.5	342.85
1042.4485	3142.8004	1218.9	338.9
1042.5542	3143.7735	1227.35	341.3
1042.6599	3144.7459	1224.45	344.45
1042.7656	3145.7178	1222.55	341.35
1042.8712	3146.689	1218.3	338.55
1042.9768	3147.6596	1219.55	337.05
1043.0823	3148.6295	1214.3	334.25
1043.1878	3149.5989	1213.2	332.5
1043.2932	3150.5676	1213.8	336.4
1043.3986	3151.5357	1206.65	328.35
1043.5039	3152.5032	1202.8	323.25
1043.6092	3153.4701	1203.7	323.7
1043.7145	3154.4364	1204.7	323.05
1043.8197	3155.402	1198.6	321.45
1043.9248	3156.367	1207.65	324.65
1044.03	3157.3315	1233	319.95
1044.135	3158.2952	1195.45	315.35
1044.24	3159.2584	1194.75	315.45
1044.345	3160.221	1194.35	314.15
1044.4499	3161.1829	1191.75	313.15
1044.5548	3162.1442	1191	312.05
1044.6596	3163.105	1188.2	308.9
1044.7644	3164.065	1179.1	299.45
1044.8692	3165.0245	1185.15	304
1044.9739	3165.9834	1178.65	300.7
1045.0785	3166.9416	1179.15	299.85
1045.1831	3167.8993	1186.85	305.4
1045.2877	3168.8563	1177.5	298.1
1045.3922	3169.8127	1172.4	292.15
1045.4966	3170.7684	1169.25	289.6
1045.6011	3171.7236	1169.8	287.9
1045.7054	3172.6782	1169.05	289.05
1045.8098	3173.6321	1171.9	288.7
1045.914	3174.5854	1173.7	291.05
1046.0183	3175.5381	1168.2	290.25
1046.1224	3176.4902	1159.15	279.3
1046.2266	3177.4417	1158.85	279.65
1046.3307	3178.3926	1155.95	276.1
1046.4347	3179.3428	1157.3	278.05
1046.5387	3180.2924	1156.15	276.5
1046.6427	3181.2415	1151.4	271.75
1046.7466	3182.1899	1154.1	272.65
1046.8504	3183.1377	1151.5	272.5
1046.9542	3184.0848	1148.8	265
1047.058	3185.0314	1146.6	268.1
1047.1617	3185.9773	1146.75	265.05
1047.2654	3186.9227	1143.2	260.75
1047.369	3187.8674	1145.7	266.8
1047.4726	3188.8115	1145.05	262.25
1047.5761	3189.755	1146.45	269.6
1047.6796	3190.6979	1143.9	264.95
1047.783	3191.6402	1138.4	259.65
1047.8864	3192.5818	1139.45	262.1
1047.9898	3193.5229	1138.7	252.55
1048.0931	3194.4633	1132.35	254.3
1048.1963	3195.4031	1134.55	253.45
1048.2995	3196.3423	1132.3	253.5
1048.4027	3197.2809	1127.45	247.3
1048.5058	3198.2189	1130.55	250.35
1048.6089	3199.1563	1130.15	245.15
1048.7119	3200.0931	1124.25	246.25
1048.8148	3201.0292	1123.45	243.6
1048.9178	3201.9648	1124.1	243.6
1049.0206	3202.8997	1123.35	239.85
1049.1235	3203.834	1121	240.95
1049.2262	3204.7677	1118.9	239.15
1049.329	3205.7008	1118.05	237.05
1049.4317	3206.6333	1117.05	238.6
1049.5343	3207.5652	1115.5	234.05
1049.6369	3208.4964	1118.45	238.45
1049.7394	3209.4271	1111.65	231
1049.8419	3210.3571	1107.7	228.45
1049.9444	3211.2865	1107.75	226.95
1050.0468	3212.2154	1114.4	235.35
1050.1491	3213.1436	1110.6	227.65
1050.2514	3214.0712	1119.6	232.9
1050.3537	3214.9982	1109.6	231.5
1050.4559	3215.9246	1105.6	225.35
1050.5581	3216.8503	1107.4	230.65
1050.6602	3217.7755	1103.1	223.6
1050.7623	3218.7001	1100.4	222.4
1050.8643	3219.624	1099.95	221.3
1050.9663	3220.5473	1105.4	224.75
1051.0682	3221.4701	1098.75	216.7
1051.1701	3222.3922	1098.5	218.7
1051.2719	3223.3137	1096.45	216.25
1051.3737	3224.2346	1089.55	211.8
1051.4754	3225.1549	1091.2	211.25
1051.5771	3226.0746	1089.75	208.65
1051.6788	3226.9937	1093.85	214.35
1051.7804	3227.9121	1084.6	208.2
1051.8819	3228.83	1091.35	212.75
1051.9834	3229.7473	1090.35	211.8
1052.0849	3230.6639	1086.65	208.9
1052.1863	3231.5799	1082.75	203.7
1052.2876	3232.4954	1081.95	202.9
1052.3889	3233.4102	1080.9	201.85
1052.4902	3234.3244	1079.15	200.85
1052.5914	3235.238	1078.85	199.45
1052.6926	3236.151	1106.35	200.3
1052.7937	3237.0634	1076.2	200.4
1052.8948	3237.9752	1079.45	200
1052.9958	3238.8864	1077.35	198.95
1053.0968	3239.797	1074.35	193.7
1053.1977	3240.7069	1076.7	197.2
1053.2986	3241.6163	1072.6	192.3
1053.3994	3242.5251	1066.1	187.1
1053.5002	3243.4332	1068.2	189.95
1053.6009	3244.3408	1065.2	185.9
1053.7016	3245.2477	1070	191.05
1053.8022	3246.154	1066.75	186.45
1053.9028	3247.0598	1066.45	188.95
1054.0034	3247.9649	1063.75	186.75
1054.1039	3248.8694	1064.6	185.4
1054.2043	3249.7733	1060.65	181.35
1054.3047	3250.6766	1059.25	181.6
1054.4051	3251.5793	1062.05	181.4
1054.5054	3252.4814	1056	179.05
1054.6056	3253.3829	1058	180.2
1054.7058	3254.2838	1055.65	175.55
1054.806	3255.1841	1059.75	179.8
1054.9061	3256.0838	1052.85	173.3
1055.0061	3256.9829	1048.9	173.15
1055.1062	3257.8814	1051.15	167.55
1055.2061	3258.7792	1050.7	169.45
1055.306	3259.6765	1047.35	165.25
1055.4059	3260.5731	1046	167.5
1055.5057	3261.4692	1041.35	161.3
1055.6055	3262.3647	1041.4	160.75
1055.7052	3263.2595	1037.75	159.4
1055.8049	3264.1538	1034.2	154.7
1055.9045	3265.0474	1035.25	154.25
1056.0041	3265.9404	1029.65	150.55
1056.1036	3266.8329	1031.1	152.1
1056.2031	3267.7247	1037.9	148.85
1056.3025	3268.616	1020.15	143
1056.4019	3269.5066	1020.05	140.75
1056.5013	3270.3966	1017.35	135.55
1056.6005	3271.286	1009.55	132.1
