Software Version:	3.9.2.0
Unit SN:	10000200
Spectrometer SN:	6960
Date:	3/26/2024 2:14:24 PM
Data Line Index:	25
Spectral Points:	2048
Integration time (ms):	125
Averages:	20
Delay (ms):	30000
Sequence Number:	1
Processing:	dark subtract
Laser Power (mW):	300
Laser Current (mA):	820
Laser Diode Temp (C):	25
Laser Case Temp (C):	27.6
System Temp (C):	27.6
Spectrometer Temp (C):	25.5
CCD Temp (C):	0.005
Secondary Temp (C):	20.006
Heatsink Temp (C):	22.76
CCDPCB Temp (C):	36.929
SecondaryPCB Temp (C):	34.273

Wavelength	RamanShift	Raw Counts	Dark Subtracted
787.061	30.1047	676.05	264.95
787.2016	32.3739	693.35	284.8
787.3422	34.6426	710.85	300.75
787.4828	36.9109	721.7	310.4
787.6235	39.1787	746.5	330.85
787.7642	41.4461	785	366.5
787.9049	43.7131	804.7	380.75
788.0456	45.9796	833.65	407.65
788.1863	48.2456	867.15	435.6
788.3271	50.5112	894.5	459.4
788.4679	52.7764	920.45	481.3
788.6087	55.0411	955.1	514.4
788.7496	57.3054	984.8	538.65
788.8904	59.5692	1023.6	574.25
789.0313	61.8326	1062.1	608.5
789.1722	64.0955	1112.2	656.65
789.3132	66.3579	1168.7	707.3
789.4541	68.6199	1232.6	769.1
789.5951	70.8815	1343.9	877.9
789.7361	73.1426	1558.75	1087.35
789.8771	75.4032	2129.15	1647.95
790.0181	77.6634	3543.45	3056.95
790.1592	79.9231	7113.45	6619.45
790.3003	82.1824	15312.75	14797.8
790.4414	84.4412	36831.1	36283.05
790.5825	86.6995	63409.35	62811.7
790.7237	88.9574	65535	64891.55
790.8648	91.2148	65535	64860.1
791.006	93.4717	65535	64836.1
791.1472	95.7282	65535	64821.1
791.2885	97.9842	65535	64819.9
791.4297	100.2398	65535	64814.5
791.571	102.4949	65535	64814.95
791.7123	104.7495	65535	64811
791.8536	107.0036	65535	64810.65
791.9949	109.2573	65535	64809.5
792.1363	111.5105	65535	64806.05
792.2777	113.7632	65535	64807.6
792.4191	116.0154	65535	64793.9
792.5605	118.2672	65535	64802.35
792.7019	120.5185	65535	64801.05
792.8434	122.7693	65535	64800.4
792.9849	125.0197	65535	64793.2
793.1264	127.2696	65535	64794.35
793.2679	129.519	65535	64791.4
793.4094	131.7679	65535	64780.7
793.551	134.0163	65535	64780.45
793.6926	136.2642	65535	64776.35
793.8342	138.5117	65535	64768.35
793.9758	140.7587	65535	64775.25
794.1175	143.0052	65535	64771.2
794.2591	145.2512	65535	64770.15
794.4008	147.4967	65535	64774.55
794.5425	149.7417	65535	64767.3
794.6842	151.9863	65535	64767.45
794.826	154.2304	65535	64763.4
794.9677	156.4739	65535	64757.55
795.1095	158.717	65535	64756.8
795.2513	160.9596	65535	64748.4
795.3931	163.2017	65535	64756.45
795.535	165.4433	65535	64749.8
795.6768	167.6844	65535	64748.75
795.8187	169.925	65535	64743.85
795.9606	172.1651	65535	64745.6
796.1025	174.4047	65535	64741.7
796.2445	176.6439	65535	64737.9
796.3864	178.8825	65535	64732.85
796.5284	181.1206	65535	64730.3
796.6704	183.3582	65535	64726.05
796.8124	185.5954	65535	64726.7
796.9544	187.832	65535	64726.05
797.0965	190.0681	65535	64717.9
797.2386	192.3037	65535	64714
797.3806	194.5388	65535	64709.9
797.5228	196.7734	65535	64709.5
797.6649	199.0075	65535	64709.45
797.807	201.2411	65535	64705.2
797.9492	203.4742	65535	64701
798.0914	205.7068	65535	64699.9
798.2336	207.9389	65535	64700.1
798.3758	210.1704	65535	64695.1
798.518	212.4015	65535	64696.5
798.6603	214.632	65535	64698.7
798.8025	216.862	65535	64712
798.9448	219.0915	65535	64721.25
799.0871	221.3205	65535	64716.3
799.2294	223.549	65535	64718.25
799.3718	225.777	65535	64718.05
799.5141	228.0044	65535	64718.65
799.6565	230.2314	65535	64718.9
799.7989	232.4578	65535	64717.7
799.9413	234.6837	65535	64715.5
800.0837	236.909	65535	64708.8
800.2262	239.1339	65535	64683.75
800.3687	241.3582	65535	64697.55
800.5111	243.582	65535	64667.7
800.6536	245.8053	65535	64681.8
800.7961	248.0281	65535	64686.95
800.9387	250.2503	65535	64680.55
801.0812	252.472	65535	64674.5
801.2238	254.6932	65535	64677.5
801.3664	256.9139	65535	64677.2
801.509	259.134	65535	64668.4
801.6516	261.3536	65535	64668.3
801.7942	263.5727	65535	64665.85
801.9369	265.7912	65535	64669.35
802.0795	268.0092	65535	64675.15
802.2222	270.2267	65535	64665.1
802.3649	272.4436	65535	64671.65
802.5076	274.6601	65535	64660.6
802.6504	276.8759	65535	64668.6
802.7931	279.0913	65535	64666.3
802.9359	281.3061	65535	64661.7
803.0787	283.5204	65535	64656.4
803.2215	285.7341	65535	64653.85
803.3643	287.9473	65535	64645.5
803.5071	290.16	65535	64650.7
803.6499	292.3721	65535	64653.9
803.7928	294.5837	65535	64654.5
803.9357	296.7947	65535	64655.65
804.0786	299.0052	65535	64654.45
804.2215	301.2152	65535	64653.2
804.3644	303.4246	65535	64655.25
804.5074	305.6334	65535	64659.1
804.6503	307.8418	65535	64654.4
804.7933	310.0495	65535	64647.6
804.9363	312.2568	65535	64652.15
805.0793	314.4635	65535	64648.4
805.2223	316.6696	65535	64647
805.3653	318.8752	65535	64642.55
805.5084	321.0802	65535	64648.4
805.6514	323.2847	65535	64641.95
805.7945	325.4887	65535	64644
805.9376	327.692	65535	64643.3
806.0807	329.8949	65535	64640.45
806.2238	332.0972	65535	64642.3
806.367	334.2989	65535	64638.45
806.5101	336.5001	65535	64640.05
806.6533	338.7007	65535	64636.2
806.7965	340.9008	65535	64638.1
806.9397	343.1003	65535	64636.7
807.0829	345.2992	65535	64632.75
807.2261	347.4976	65535	64635.85
807.3693	349.6955	65535	64628.05
807.5126	351.8927	65535	64622.45
807.6559	354.0895	65535	64612.9
807.7991	356.2856	65535	64624.35
807.9424	358.4812	65535	64621.4
808.0857	360.6763	65535	64622.5
808.2291	362.8707	65535	64626.35
808.3724	365.0646	65535	64619.3
808.5158	367.258	65535	64622.5
808.6591	369.4508	65535	64617.1
808.8025	371.643	65535	64618.15
808.9459	373.8346	65535	64615.65
809.0893	376.0257	65535	64611.8
809.2327	378.2162	65535	64619.6
809.3762	380.4062	65535	64614.6
809.5196	382.5956	65535	64611.4
809.6631	384.7844	65535	64612.65
809.8066	386.9726	65535	64617
809.9501	389.1603	65535	64612.6
810.0936	391.3474	65535	64590.85
810.2371	393.5339	65535	64613
810.3806	395.7199	65535	64622.2
810.5241	397.9052	65535	64618.8
810.6677	400.09	65535	64622.4
810.8113	402.2743	65535	64627.15
810.9548	404.4579	65535	64625.8
811.0984	406.641	65535	64619.45
811.2421	408.8235	65535	64622.3
811.3857	411.0054	65535	64624.2
811.5293	413.1868	65535	64620.8
811.673	415.3675	65535	64617.1
811.8166	417.5477	65535	64616.4
811.9603	419.7273	65535	64617.3
812.104	421.9064	65535	64607.55
812.2477	424.0848	65535	64613.65
812.3914	426.2627	65535	64614.75
812.5351	428.4399	65535	64614.6
812.6788	430.6166	65535	64606
812.8226	432.7928	65535	64605.55
812.9663	434.9683	65535	64614.4
813.1101	437.1432	65535	64610.05
813.2539	439.3176	65535	64616.95
813.3977	441.4914	65535	64618.3
813.5415	443.6645	65535	64611.75
813.6853	445.8371	65535	64610.9
813.8291	448.0091	65535	64611.85
813.973	450.1806	65535	64612.85
814.1168	452.3514	65535	64612.5
814.2607	454.5216	65535	64606.75
814.4046	456.6913	65535	64609.7
814.5485	458.8603	65535	64613
814.6924	461.0288	65535	64620.85
814.8363	463.1967	65535	64622.95
814.9802	465.3639	65535	64614.55
815.1241	467.5306	65535	64609.35
815.2681	469.6967	65535	64617.7
815.412	471.8622	65535	64619.85
815.556	474.0271	65535	64609.25
815.7	476.1914	65535	64606.5
815.844	478.3551	65535	64606.15
815.988	480.5182	65535	64614.9
816.132	482.6807	65535	64623.15
816.276	484.8426	65535	64629.4
816.4201	487.0039	65535	64624.15
816.5641	489.1647	65535	64612.6
816.7082	491.3248	65535	64611.45
816.8522	493.4843	65535	64614.45
816.9963	495.6432	65535	64618.4
817.1404	497.8015	65535	64609.15
817.2845	499.9592	65535	64596.9
817.4286	502.1163	65535	64601.05
817.5727	504.2728	65535	64605.1
817.7168	506.4287	65535	64622.05
817.861	508.5839	65535	64617.9
818.0051	510.7386	65535	64607.95
818.1493	512.8927	65535	64598.55
818.2935	515.0461	65535	64603.85
818.4377	517.199	65535	64607.4
818.5818	519.3512	65535	64603.3
818.726	521.5029	65535	64599.45
818.8703	523.6539	65535	64604.75
819.0145	525.8043	65535	64601.4
819.1587	527.9541	65535	64596.45
819.303	530.1033	65535	64603.6
819.4472	532.2519	65535	64602.8
819.5915	534.3999	65535	64601.25
819.7357	536.5472	65535	64605.3
819.88	538.694	65535	64608.15
820.0243	540.8401	65535	64603.35
820.1686	542.9856	65535	64590.6
820.3129	545.1305	65535	64583.4
820.4572	547.2748	65535	64583.05
820.6016	549.4185	65535	64583.6
820.7459	551.5615	65535	64583
820.8902	553.704	65535	64584.5
821.0346	555.8458	65535	64589.95
821.1789	557.987	65535	64590.7
821.3233	560.1276	65535	64588.5
821.4677	562.2675	65535	64588.45
821.6121	564.4069	65535	64587.5
821.7565	566.5456	65535	64590.2
821.9009	568.6837	65535	64593.6
822.0453	570.8212	65535	64594.65
822.1897	572.958	65535	64592.1
822.3342	575.0942	65535	64597.05
822.4786	577.2299	65535	64603.65
822.6231	579.3648	65535	64613.85
822.7675	581.4992	65535	64622.75
822.912	583.6329	65535	64628.2
823.0565	585.766	65535	64620.25
823.201	587.8985	65535	64611.15
823.3454	590.0304	65535	64590.5
823.4899	592.1616	65535	64592.6
823.6345	594.2922	65535	64592.9
823.779	596.4222	65535	64589.7
823.9235	598.5515	65535	64586.1
824.068	600.6802	65535	64587.5
824.2126	602.8083	65535	64592.25
824.3571	604.9358	65535	64588.05
824.5017	607.0626	65535	64583.9
824.6462	609.1888	65535	64582
824.7908	611.3144	65535	64575.05
824.9354	613.4393	65535	64581.85
825.08	615.5636	65535	64583.35
825.2246	617.6873	65535	64584.45
825.3692	619.8103	65535	64587.15
825.5138	621.9327	65535	64584.8
825.6584	624.0544	65535	64593.4
825.803	626.1756	65535	64590
825.9477	628.2961	65535	64581.55
826.0923	630.4159	65535	64586.35
826.237	632.5351	65535	64585.7
826.3816	634.6537	65535	64582.3
826.5263	636.7716	65535	64578.05
826.6709	638.8889	65535	64573.1
826.8156	641.0056	65535	64573.4
826.9603	643.1216	65535	64576.15
827.105	645.237	65535	64585.8
827.2497	647.3518	65535	64589.2
827.3944	649.4659	65535	64590.4
827.5391	651.5793	65535	64594.3
827.6838	653.6922	65535	64590.05
827.8285	655.8043	65535	64590.4
827.9733	657.9159	65535	64587.05
828.118	660.0268	65535	64587
828.2627	662.137	65535	64585.6
828.4075	664.2466	65535	64574.5
828.5522	666.3556	65535	64583.75
828.697	668.4639	65535	64584.7
828.8418	670.5716	65535	64589
828.9865	672.6786	65535	64582.8
829.1313	674.785	65535	64576.2
829.2761	676.8907	65535	64580.5
829.4209	678.9958	65535	64586.1
829.5657	681.1002	65535	64582.4
829.7105	683.204	65535	64579.3
829.8553	685.3072	65535	64576.55
830.0001	687.4097	65535	64579.1
830.1449	689.5115	65535	64579.5
830.2898	691.6127	65535	64583.1
830.4346	693.7132	65535	64584.75
830.5794	695.8131	65535	64563.5
830.7243	697.9123	65535	64573
830.8691	700.0109	65535	64573
831.014	702.1089	65535	64576.55
831.1588	704.2061	65535	64577.6
831.3037	706.3028	65535	64572.95
831.4486	708.3987	65535	64574.7
831.5935	710.4941	65535	64578.05
831.7383	712.5887	65535	64580.45
831.8832	714.6827	65535	64578.95
832.0281	716.7761	65535	64583.25
832.173	718.8688	65535	64577
832.3179	720.9608	65535	64572.45
832.4628	723.0522	65535	64567.5
832.6077	725.1429	65535	64573.1
832.7527	727.233	65535	64574.45
832.8976	729.3224	65535	64579.3
833.0425	731.4112	65535	64575.15
833.1874	733.4993	65535	64573.7
833.3324	735.5867	65535	64576.15
833.4773	737.6735	65535	64573.95
833.6222	739.7596	65535	64572.85
833.7672	741.845	65535	64577.5
833.9122	743.9298	65535	64576.5
834.0571	746.014	65535	64577.1
834.2021	748.0974	65535	64568.65
834.347	750.1802	65535	64567.9
834.492	752.2624	65535	64569.25
834.637	754.3439	65535	64566.8
834.782	756.4247	65535	64563.6
834.9269	758.5048	65535	64575.05
835.0719	760.5843	65535	64571.4
835.2169	762.6631	65535	64571.7
835.3619	764.7413	65535	64570.8
835.5069	766.8188	65535	64570.5
835.6519	768.8956	65535	64566.95
835.7969	770.9718	65535	64571.65
835.9419	773.0473	65535	64572.25
836.0869	775.1221	65535	64572.8
836.232	777.1962	65535	64570.2
836.377	779.2697	65535	64567
836.522	781.3426	65535	64549
836.667	783.4147	65535	64572.65
836.8121	785.4862	65535	64568.95
836.9571	787.557	65535	64567.75
837.1021	789.6271	65535	64570.45
837.2472	791.6966	65535	64567.35
837.3922	793.7654	65535	64569.9
837.5373	795.8335	65535	64570.85
837.6823	797.901	65535	64567.65
837.8274	799.9678	65535	64567
837.9724	802.0339	65535	64569.4
838.1175	804.0993	65535	64555.7
838.2626	806.1641	65535	64567.05
838.4076	808.2282	65535	64570.15
838.5527	810.2916	65535	64565.9
838.6978	812.3544	65535	64569.6
838.8428	814.4164	65535	64569.9
838.9879	816.4778	65532.3	64565.45
839.133	818.5385	65535	64564.65
839.2781	820.5986	65535	64564.2
839.4232	822.658	65535	64563.35
839.5682	824.7166	65535	64567.95
839.7133	826.7747	65526.5	64558.65
839.8584	828.832	65529.25	64561.95
840.0035	830.8886	65535	64563.85
840.1486	832.9446	65535	64560.35
840.2937	834.9999	65518.45	64549.85
840.4388	837.0545	65527.1	64557.2
840.5839	839.1085	65535	64564.2
840.729	841.1618	65531.75	64559.4
840.8741	843.2143	65517.7	64551.7
841.0192	845.2662	65518	64549.2
841.1643	847.3175	65523.35	64553.9
841.3095	849.368	65468.05	64499.35
841.4546	851.4179	65521.9	64551.85
841.5997	853.467	65481.3	64512.3
841.7448	855.5155	65506.2	64540.85
841.8899	857.5633	65463.75	64497.05
842.0351	859.6105	65441.4	64471.25
842.1802	861.6569	65473.45	64506.55
842.3253	863.7027	65402.5	64431.9
842.4704	865.7478	65421.65	64451
842.6156	867.7922	65423.6	64453.4
842.7607	869.8359	65449.45	64480.65
842.9058	871.8789	65395.9	64420.35
843.0509	873.9212	65426.95	64423.6
843.1961	875.9629	65437.6	64461.45
843.3412	878.0039	65419.95	64451
843.4863	880.0441	65405	64438.65
843.6315	882.0837	65420.85	64456.35
843.7766	884.1226	65407.95	64439.9
843.9218	886.1609	65387.2	64420.3
844.0669	888.1984	65372.25	64404.1
844.212	890.2352	65414.45	64440.6
844.3572	892.2714	65359.2	64382
844.5023	894.3069	65381.4	64411.65
844.6475	896.3416	65355.35	64387.8
844.7926	898.3757	65341.2	64371.4
844.9377	900.4091	65260.4	64286.55
845.0829	902.4418	65369.6	64392.5
845.228	904.4739	65308.6	64336
845.3732	906.5052	65320.85	64345.95
845.5183	908.5358	65281.7	64305.15
845.6635	910.5658	65256.05	64282.75
845.8086	912.595	65243.65	64274.25
845.9538	914.6236	65079.6	64105.25
846.0989	916.6515	65292.7	64320.15
846.2441	918.6786	65078.4	64104.25
846.3892	920.7051	65153.6	64181.8
846.5344	922.7309	65111.85	64142.8
846.6795	924.756	65145.5	64173.25
846.8246	926.7804	65076.6	64102
846.9698	928.8041	64848.15	63878.15
847.1149	930.8272	65024.75	64052.05
847.2601	932.8495	65031	64055.35
847.4052	934.8711	64865.9	63891.1
847.5504	936.892	64669.85	63694.7
847.6955	938.9123	64791.1	63817.55
847.8407	940.9318	64634.6	63657.9
847.9858	942.9506	64591.6	63621.55
848.131	944.9688	64638.3	63667.55
848.2761	946.9862	64241.9	63270.1
848.4213	949.003	64404.3	63431.9
848.5664	951.019	64069.1	63094.6
848.7115	953.0344	64169.85	63197.95
848.8567	955.0491	64121.3	63149.6
849.0018	957.063	64264.4	63296.95
849.147	959.0763	64255.4	63279.35
849.2921	961.0888	63967.5	62993.6
849.4373	963.1007	64208.95	63239.1
849.5824	965.1119	64217.9	63257
849.7275	967.1223	63991.15	63037.25
849.8727	969.1321	64234.4	63280.7
850.0178	971.1412	63898.8	62935.85
850.1629	973.1495	63766.75	62800.45
850.3081	975.1572	63920.2	62897.6
850.4532	977.1641	63781.3	62809.8
850.5983	979.1704	63746.25	62777.1
850.7435	981.1759	63792.3	62816.3
850.8886	983.1808	63554.8	62580.5
851.0337	985.1849	63587.15	62607.3
851.1788	987.1884	63711.65	62738.2
851.324	989.1911	63859.8	62890.1
851.4691	991.1932	63290.3	62319.95
851.6142	993.1945	63466.2	62493.6
851.7593	995.1951	63629.45	62662.05
851.9045	997.1951	63278.8	62303.3
852.0496	999.1943	63179.35	62208.55
852.1947	1001.1928	63032.5	62060.6
852.3398	1003.1906	63122.2	62150.5
852.4849	1005.1877	62556.2	61585.25
852.63	1007.1841	62426.85	61457
852.7751	1009.1798	62389.25	61419.25
852.9202	1011.1748	62347.35	61378.15
853.0653	1013.1691	62201.7	61234.65
853.2104	1015.1627	60851.55	59883.65
853.3555	1017.1556	61411.9	60443
853.5006	1019.1477	61561.55	60597.15
853.6457	1021.1392	60926.45	59966
853.7908	1023.1299	59996.85	59039.65
853.9359	1025.12	60671.1	59725.2
854.081	1027.1093	60190.6	59251.65
854.2261	1029.0979	60190.9	59252
854.3712	1031.0859	60050.2	59105.1
854.5163	1033.0731	59262.85	58310.35
854.6613	1035.0596	59570.15	58612.35
854.8064	1037.0454	59357.35	58398.4
854.9515	1039.0304	58870.75	57907.9
855.0965	1041.0148	57909.4	56948
855.2416	1042.9985	58004	57040.25
855.3867	1044.9814	58560.65	57595.85
855.5317	1046.9636	57618.35	56653
855.6768	1048.9452	57683.1	56720.95
855.8219	1050.926	57485.05	56522.25
855.9669	1052.9061	57372.1	56407.85
856.112	1054.8855	57398.9	56434
856.257	1056.8642	56945.2	55974.25
856.4021	1058.8421	56671.85	55699.5
856.5471	1060.8194	56704.85	55741.9
856.6921	1062.7959	56349.35	55385.55
856.8372	1064.7717	56669.3	55702.05
856.9822	1066.7469	56406.05	55438.55
857.1272	1068.7213	56330.85	55365.2
857.2723	1070.695	55998.35	55031.9
857.4173	1072.6679	55526.35	54561.65
857.5623	1074.6402	55719.7	54753.3
857.7073	1076.6117	55335.75	54363.35
857.8523	1078.5826	55296.3	54328.75
857.9973	1080.5527	55351.55	54383.1
858.1423	1082.5221	55145.45	54183.05
858.2873	1084.4908	55314.9	54355.85
858.4323	1086.4587	55220	54256.05
858.5773	1088.426	55346.8	54379.5
858.7223	1090.3925	55195.1	54226.65
858.8673	1092.3584	54946	53983
859.0123	1094.3235	54332.4	53368.85
859.1573	1096.2879	54226.35	53263.5
859.3022	1098.2515	54238.4	53278
859.4472	1100.2145	53981.6	53021.25
859.5922	1102.1767	53802.2	52833.1
859.7371	1104.1382	54000.8	53039.6
859.8821	1106.099	53921.1	52954.9
860.027	1108.0591	53872.85	52909.25
860.172	1110.0185	53400.95	52437.55
860.3169	1111.9771	53784.05	52821.4
860.4619	1113.9351	53283.6	52321.65
860.6068	1115.8923	52733.1	51770.65
860.7517	1117.8488	52193.45	51231.5
860.8967	1119.8045	51600.1	50636.85
861.0416	1121.7596	51585.35	50623.75
861.1865	1123.7139	51256.25	50295.95
861.3314	1125.6675	51211.95	50249.9
861.4763	1127.6204	51148.75	50184.05
861.6212	1129.5726	50854.8	49888.9
861.7661	1131.524	50940.05	49981.75
861.911	1133.4748	50923.85	49959.15
862.0559	1135.4248	50690.2	49727.4
862.2008	1137.3741	50616.5	49656.05
862.3457	1139.3226	50451.95	49493
862.4905	1141.2705	50388.35	49426.05
862.6354	1143.2176	50038.3	49069.05
862.7803	1145.164	49876.65	48911.1
862.9251	1147.1097	49861.75	48900.25
863.07	1149.0546	49757.75	48793.2
863.2148	1150.9989	49602.4	48642.1
863.3597	1152.9424	49340.95	48379.15
863.5045	1154.8852	49108.85	48144.95
863.6493	1156.8272	48815.8	47854.75
863.7942	1158.7686	48843.65	47875.55
863.939	1160.7092	48346.85	47382.6
864.0838	1162.6491	48210.05	47246.05
864.2286	1164.5883	48285.8	47324.05
864.3734	1166.5267	48081.4	47118.55
864.5182	1168.4644	48201.3	47242.1
864.663	1170.4014	48200.1	47234.2
864.8078	1172.3377	48429.75	47471.45
864.9526	1174.2732	48553.95	47594.75
865.0974	1176.2081	48519.7	47557.95
865.2421	1178.1421	48557.5	47595.95
865.3869	1180.0755	48665.15	47702.7
865.5317	1182.0082	48452	47496.9
865.6764	1183.9401	48320.2	47368.1
865.8212	1185.8713	47905.05	46954.3
865.9659	1187.8017	47570.55	46626.1
866.1106	1189.7315	47288.85	46352.7
866.2554	1191.6605	46763.1	45822.6
866.4001	1193.5888	46358.3	45418.9
866.5448	1195.5163	46171.7	45221.55
866.6895	1197.4432	45938.75	44983.4
866.8342	1199.3693	45750.45	44794.85
866.9789	1201.2947	45513.85	44552.5
867.1236	1203.2193	45327.15	44372.5
867.2683	1205.1432	45245.7	44287
867.413	1207.0664	45123.25	44165.1
867.5576	1208.9889	45003.35	44044.25
867.7023	1210.9106	44929.15	43972.75
867.847	1212.8316	44781.45	43822.9
867.9916	1214.7519	44766.1	43799.9
868.1363	1216.6715	44618.85	43660.95
868.2809	1218.5903	44558.15	43603.85
868.4255	1220.5084	44361.45	43405.85
868.5701	1222.4257	44238.65	43282.65
868.7148	1224.3424	43934.6	42981
868.8594	1226.2583	43894.65	42938.55
869.004	1228.1735	43818.05	42861.65
869.1486	1230.0879	43741.85	42785.5
869.2932	1232.0016	43718.55	42758.7
869.4377	1233.9146	43680.5	42720.85
869.5823	1235.8269	43396.1	42441.85
869.7269	1237.7384	43240.05	42286.55
869.8715	1239.6492	42814.15	41862.15
870.016	1241.5592	42710.9	41753.3
870.1606	1243.4686	42420.4	41462.95
870.3051	1245.3772	42269.15	41312.8
870.4496	1247.285	42066.05	41110.65
870.5941	1249.1922	41887.7	40934.3
870.7387	1251.0986	41763.7	40807
870.8832	1253.0042	41557.2	40602.6
871.0277	1254.9092	41565.3	40609.95
871.1722	1256.8134	41473	40524.6
871.3167	1258.7169	41587.35	40630.35
871.4611	1260.6196	41579	40629.05
871.6056	1262.5216	41689.85	40730.95
871.7501	1264.4229	41710.95	40757.55
871.8945	1266.3234	41734.8	40783.6
872.039	1268.2232	41736.3	40782.8
872.1834	1270.1223	41581.7	40625.3
872.3278	1272.0207	41463.4	40508.05
872.4723	1273.9183	41374.55	40415.2
872.6167	1275.8151	41161.55	40207.9
872.7611	1277.7113	40976.9	40026.35
872.9055	1279.6067	40632.15	39681.4
873.0499	1281.5014	40390.6	39439.35
873.1943	1283.3953	40203.95	39249
873.3386	1285.2885	40025.05	39074.7
873.483	1287.181	39835.35	38885.3
873.6274	1289.0727	39818.85	38868.55
873.7717	1290.9637	39695.05	38743.55
873.9161	1292.854	39759.85	38810.4
874.0604	1294.7435	39752.8	38799.75
874.2047	1296.6323	39877.85	38929.25
874.349	1298.5204	40082.7	39129.4
874.4933	1300.4077	40264.3	39311.4
874.6376	1302.2943	40330.5	39380.65
874.7819	1304.1802	40402.65	39454.15
874.9262	1306.0653	40173.15	39222.55
875.0705	1307.9497	39971.1	39022.85
875.2147	1309.8333	39811.45	38861.4
875.359	1311.7162	39759	38806.75
875.5032	1313.5984	39828.5	38874.3
875.6475	1315.4798	39769.65	38803.25
875.7917	1317.3605	39846.2	38892.05
875.9359	1319.2405	39985.1	39033.3
876.0801	1321.1197	39937.9	38985.25
876.2243	1322.9982	39756.85	38801.2
876.3685	1324.876	39726.75	38773.25
876.5127	1326.753	39572.5	38619.6
876.6569	1328.6293	39569.75	38614.45
876.801	1330.5048	39568.65	38615.2
876.9452	1332.3796	39415.7	38466.15
877.0893	1334.2537	39345.45	38369.95
877.2335	1336.127	39111	38161.9
877.3776	1337.9996	39077.55	38129.55
877.5217	1339.8714	38899.7	37949.95
877.6658	1341.7426	38761.65	37767.15
877.8099	1343.6129	38653.5	37701.3
877.954	1345.4826	38472.75	37518.85
878.0981	1347.3515	38464.25	37509.9
878.2422	1349.2196	38271.15	37317.5
878.3862	1351.087	38281.2	37330.65
878.5303	1352.9537	38244.5	37293.1
878.6743	1354.8197	38296.95	37346.1
878.8184	1356.6849	38394	37442
878.9624	1358.5493	38368.65	37420.9
879.1064	1360.4131	38218.15	37266.9
879.2504	1362.276	38057.85	37108.45
879.3944	1364.1383	37810.55	36862.5
879.5384	1365.9998	37497.3	36541.55
879.6823	1367.8606	37073.4	36123.5
879.8263	1369.7206	36750.6	35799.35
879.9702	1371.5799	36554.85	35605.35
880.1142	1373.4384	36280.85	35328.95
880.2581	1375.2962	36170.85	35215.85
880.402	1377.1533	35761.1	34818.25
880.5459	1379.0096	35346.25	34398.35
880.6898	1380.8652	35012.6	34068.25
880.8337	1382.7201	34686.65	33740.5
880.9776	1384.5742	34348.85	33400.05
881.1215	1386.4275	34088.45	33135.2
881.2653	1388.2802	33823.2	32875.25
881.4092	1390.132	33630.15	32680.85
881.553	1391.9832	33572	32621.5
881.6968	1393.8336	33316.7	32366.6
881.8406	1395.6832	33205.1	32254.85
881.9844	1397.5322	33060	32113.8
882.1282	1399.3803	32951.5	31996.7
882.272	1401.2278	32698.95	31752.6
882.4158	1403.0745	32709.6	31760.8
882.5595	1404.9204	32474.5	31530.1
882.7033	1406.7656	32434.1	31486.2
882.847	1408.6101	32311.4	31362.75
882.9908	1410.4538	32163.4	31214.4
883.1345	1412.2968	32143.55	31193.95
883.2782	1414.139	32037.35	31089.8
883.4219	1415.9805	32118.75	31172.95
883.5656	1417.8213	32007.6	31038
883.7092	1419.6613	31963	31017.15
883.8529	1421.5006	32100.1	31153.75
883.9965	1423.3391	32302.2	31359.35
884.1402	1425.1769	32493.9	31546
884.2838	1427.0139	32965.5	32016.6
884.4274	1428.8502	33494.8	32547.1
884.571	1430.6858	33949.8	33001.1
884.7146	1432.5206	34239.45	33294.85
884.8582	1434.3547	34471.25	33522
885.0018	1436.188	34415.3	33469.6
885.1453	1438.0206	34310.8	33364.6
885.2889	1439.8524	34028.5	33083.15
885.4324	1441.6835	33930.65	32983.3
885.5759	1443.5139	33729.65	32784
885.7194	1445.3435	33571.35	32628.35
885.8629	1447.1724	33520.7	32579.65
886.0064	1449.0005	33363.8	32421.5
886.1499	1450.8279	33182.5	32238.6
886.2933	1452.6545	33102.15	32159.7
886.4368	1454.4804	33075.15	32133.95
886.5802	1456.3056	33002.4	32052
886.7237	1458.13	32893.6	31951.35
886.8671	1459.9536	32617.35	31673.25
887.0105	1461.7766	32228.75	31284.4
887.1539	1463.5987	31766	30820.05
887.2972	1465.4202	31305.9	30359.75
887.4406	1467.2409	30826.75	29882.25
887.584	1469.0608	30593.7	29651.7
887.7273	1470.88	30258.2	29317.85
887.8706	1472.6984	29986.2	29042.2
888.0139	1474.5161	29673.15	28726.25
888.1572	1476.3331	29509.75	28566.8
888.3005	1478.1493	29318.65	28373.45
888.4438	1479.9648	29238.05	28293
888.5871	1481.7795	29054.75	28110.7
888.7303	1483.5935	28993.35	28049.9
888.8736	1485.4067	28815.85	27871.95
889.0168	1487.2192	28733.05	27787.5
889.16	1489.031	28662.7	27716.9
889.3032	1490.842	28558.1	27617.55
889.4464	1492.6522	28492.75	27549.35
889.5896	1494.4618	28387.75	27445.25
889.7327	1496.2705	28331.6	27390.95
889.8759	1498.0785	28246.45	27304
890.019	1499.8858	28166.8	27226.8
890.1622	1501.6924	28062.95	27122.35
890.3053	1503.4981	28034.15	27093.95
890.4484	1505.3032	27937.25	26998.1
890.5914	1507.1075	27883.45	26938.25
890.7345	1508.911	27778.95	26838.15
890.8776	1510.7138	27705.45	26763.55
891.0206	1512.5159	27597.65	26658.65
891.1637	1514.3172	27445.9	26508.5
891.3067	1516.1178	27328.6	26388.9
891.4497	1517.9176	27307.95	26361.45
891.5927	1519.7166	27167.2	26225.45
891.7357	1521.515	27073.65	26128.45
891.8786	1523.3126	27006.6	26067.4
892.0216	1525.1094	26917.95	25976.05
892.1645	1526.9055	26816.95	25879.8
892.3074	1528.7008	26687.3	25747.45
892.4503	1530.4954	26511.65	25568.35
892.5932	1532.2893	26475.7	25541.5
892.7361	1534.0824	26316.35	25376.6
892.879	1535.8747	26321.65	25389.7
893.0218	1537.6663	26215.6	25280.7
893.1647	1539.4572	26095.45	25161.1
893.3075	1541.2473	26052.75	25118.25
893.4503	1543.0367	25955.15	25023.2
893.5931	1544.8253	25859.55	24919.1
893.7359	1546.6132	25818.2	24880.1
893.8787	1548.4003	25702.4	24760.3
894.0214	1550.1867	25659.4	24714.2
894.1642	1551.9723	25573.85	24636.15
894.3069	1553.7572	25565.15	24633.1
894.4496	1555.5414	25485	24556.15
894.5923	1557.3247	25480.95	24551.8
894.735	1559.1074	25441.8	24515.75
894.8777	1560.8893	25415.55	24491.1
895.0204	1562.6705	25349.8	24424.4
895.163	1564.4509	25352.05	24425.5
895.3056	1566.2305	25345.25	24422.6
895.4482	1568.0094	25454.05	24532.05
895.5908	1569.7876	25488.6	24562.85
895.7334	1571.565	25485	24556.3
895.876	1573.3417	25516.5	24587.95
896.0186	1575.1176	25452.1	24524.9
896.1611	1576.8928	25352.95	24430.1
896.3036	1578.6672	25179.85	24261.4
896.4461	1580.4409	25045.35	24128.45
896.5886	1582.2138	24830.2	23909.6
896.7311	1583.986	24632.35	23707.4
896.8736	1585.7575	24548.85	23626.6
897.0161	1587.5282	24366.95	23447.7
897.1585	1589.2981	24297.5	23381
897.3009	1591.0673	24103.9	23188.25
897.4433	1592.8358	24057.75	23140.35
897.5857	1594.6035	23996.3	23074.7
897.7281	1596.3704	23874.1	22949.4
897.8705	1598.1366	23859.3	22935.95
898.0128	1599.9021	23766	22848.05
898.1551	1601.6668	23737.55	22817.3
898.2975	1603.4308	23709.2	22783.3
898.4398	1605.194	23749.8	22824.3
898.5821	1606.9564	23723.1	22809.9
898.7243	1608.7182	23822.9	22912.5
898.8666	1610.4791	23844.15	22940.45
899.0088	1612.2394	23900.2	22994.5
899.1511	1613.9988	24043.2	23136.25
899.2933	1615.7576	24164.2	23250.1
899.4355	1617.5156	24380.25	23455
899.5776	1619.2728	24606.9	23686.65
899.7198	1621.0293	24717.25	23799.7
899.862	1622.785	24720.15	23804.2
900.0041	1624.54	24577.9	23667.1
900.1462	1626.2942	24390.35	23477.55
900.2883	1628.0477	24064.05	23149.6
900.4304	1629.8005	23792.6	22876.25
900.5725	1631.5525	23470.8	22558.45
900.7145	1633.3037	23217.95	22306.5
900.8566	1635.0542	23003	22092.45
900.9986	1636.804	22828.65	21915.7
901.1406	1638.553	22758	21801.4
901.2826	1640.3013	22577.85	21663.8
901.4245	1642.0488	22462.55	21547.9
901.5665	1643.7955	22414.6	21508.05
901.7085	1645.5416	22387.2	21477.55
901.8504	1647.2868	22362.65	21449.2
901.9923	1649.0313	22381.8	21469.55
902.1342	1650.7751	22483.75	21568.75
902.2761	1652.5181	22562.1	21653.55
902.4179	1654.2604	22686.65	21777.6
902.5598	1656.0019	22959.1	22049.3
902.7016	1657.7427	23264.75	22351.7
902.8434	1659.4828	23567.25	22653.6
902.9852	1661.222	23758.5	22842.8
903.127	1662.9606	23733.95	22817.4
903.2687	1664.6984	23577.65	22663.35
903.4105	1666.4354	23250.95	22332.3
903.5522	1668.1717	22755.55	21837.55
903.6939	1669.9072	22261.4	21343.25
903.8356	1671.642	21855.2	20935.45
903.9773	1673.3761	21561.2	20648.35
904.119	1675.1094	21260.95	20348.65
904.2606	1676.8419	21020.1	20106.2
904.4022	1678.5737	20820.9	19906
904.5439	1680.3048	20664.85	19751
904.6855	1682.0351	20517	19602.4
904.827	1683.7646	20369.15	19453.65
904.9686	1685.4934	20267.75	19353.45
905.1101	1687.2215	20191.5	19279.05
905.2517	1688.9488	20058.45	19148.3
905.3932	1690.6754	19946.8	19033.3
905.5347	1692.4012	19954	19039.55
905.6761	1694.1263	19836.6	18921.55
905.8176	1695.8506	19758.3	18845.25
905.9591	1697.5742	19695.75	18788.85
906.1005	1699.297	19603.95	18698.2
906.2419	1701.0191	19482.9	18582.3
906.3833	1702.7404	19405.2	18497.85
906.5246	1704.461	19295.3	18382.15
906.666	1706.1808	19246.8	18335.6
906.8073	1707.8999	19179.7	18270.3
906.9487	1709.6182	19110.45	18205.4
907.09	1711.3358	19035.75	18133.4
907.2313	1713.0527	19004.6	18102.85
907.3725	1714.7688	18935.6	18026.2
907.5138	1716.4841	18855.05	17948.75
907.655	1718.1987	18839	17927.6
907.7962	1719.9126	18744.65	17840.85
907.9374	1721.6257	18621.9	17717.65
908.0786	1723.338	18607.25	17705.3
908.2198	1725.0496	18464.6	17559.95
908.3609	1726.7605	18469.4	17564
908.502	1728.4706	18391.25	17487.3
908.6431	1730.18	18273.5	17369
908.7842	1731.8886	18259.1	17359.05
908.9253	1733.5964	18222.2	17298.9
909.0664	1735.3036	18152.3	17245.95
909.2074	1737.0099	18077.85	17174.15
909.3484	1738.7156	18078.95	17179.05
909.4894	1740.4204	18004.9	17102.6
909.6304	1742.1246	17968.7	17063.7
909.7714	1743.8279	17892.55	16989.1
909.9123	1745.5306	17844.55	16943.85
910.0532	1747.2325	17762	16860.65
910.1941	1748.9336	17711.8	16807.5
910.335	1750.634	17670.55	16763.75
910.4759	1752.3336	17619.55	16717.2
910.6168	1754.0325	17612	16716.05
910.7576	1755.7307	17521.9	16622.45
910.8984	1757.4281	17514.8	16613.75
911.0392	1759.1247	17522.2	16608.6
911.18	1760.8206	17452.65	16542.35
911.3208	1762.5158	17432.65	16522.45
911.4615	1764.2102	17336.4	16433
911.6022	1765.9039	17290.05	16387.15
911.7429	1767.5968	17250.9	16352.35
911.8836	1769.289	17186.65	16288.7
912.0243	1770.9804	17149	16246.2
912.1649	1772.6711	17152.9	16249.15
912.3056	1774.361	17065.45	16158.95
912.4462	1776.0502	17039.75	16134.05
912.5868	1777.7386	16977.3	16072.45
912.7274	1779.4263	16928.5	16026.65
912.8679	1781.1132	16915.4	16013.3
913.0084	1782.7994	16843.7	15945.7
913.149	1784.4849	16809.6	15911.8
913.2895	1786.1696	16750.25	15834.1
913.4299	1787.8535	16702.6	15806.1
913.5704	1789.5367	16648.05	15751.7
913.7108	1791.2192	16640.85	15743.05
913.8513	1792.9009	16585.5	15655.75
913.9917	1794.5818	16522.85	15618.55
914.132	1796.2621	16471.7	15572.05
914.2724	1797.9415	16446.05	15543.2
914.4128	1799.6202	16386.65	15484.5
914.5531	1801.2982	16340.15	15437.3
914.6934	1802.9755	16313.25	15410.75
914.8337	1804.6519	16302	15404.05
914.9739	1806.3277	16195.25	15297.3
915.1142	1808.0027	16176.8	15280.3
915.2544	1809.6769	16127.6	15230.65
915.3946	1811.3504	16098.8	15201.35
915.5348	1813.0231	16062.45	15164.4
915.675	1814.6951	16040.45	15142.5
915.8151	1816.3664	16026	15121.7
915.9553	1818.0369	15960	15058.85
916.0954	1819.7067	15916.65	15016.2
916.2355	1821.3757	15858.45	14956.7
916.3755	1823.044	15820.55	14917.55
916.5156	1824.7115	15819.1	14917.95
916.6556	1826.3783	15709.75	14808.05
916.7956	1828.0443	15697.3	14797.05
916.9356	1829.7096	15695.2	14794.45
917.0756	1831.3741	15664.15	14758.7
917.2155	1833.0379	15613.25	14716.05
917.3555	1834.701	15543.65	14647.9
917.4954	1836.3633	15511.45	14615.9
917.6353	1838.0248	15467.8	14568.3
917.7751	1839.6856	15456	14557
917.915	1841.3457	15447	14548.25
918.0548	1843.005	15395.1	14495.85
918.1946	1844.6636	15388.75	14488.75
918.3344	1846.3214	15337.05	14439.05
918.4742	1847.9785	15316.2	14419.75
918.6139	1849.6349	15289.95	14388
918.7537	1851.2904	15250.5	14338.4
918.8934	1852.9453	15203.3	14299.65
919.0331	1854.5994	15149.25	14244.5
919.1727	1856.2528	15158.75	14253.1
919.3124	1857.9054	15114.1	14212.35
919.452	1859.5572	15075.15	14176.65
919.5916	1861.2083	15038.15	14135.05
919.7312	1862.8587	15026.25	14125.3
919.8708	1864.5084	14968	14065.85
920.0103	1866.1572	14926.75	14022.3
920.1498	1867.8054	14858.3	13954.9
920.2893	1869.4528	14813	13908.3
920.4288	1871.0994	14784.85	13884
920.5683	1872.7453	14758.15	13855
920.7077	1874.3905	14765	13857.5
920.8471	1876.0349	14690.75	13788.7
920.9865	1877.6786	14690.75	13786.4
921.1259	1879.3215	14684.45	13784.65
921.2653	1880.9637	14614.5	13712
921.4046	1882.6051	14587.8	13689.1
921.5439	1884.2458	14555.55	13655.8
921.6832	1885.8858	14493.45	13594.85
921.8225	1887.525	14469.2	13568.8
921.9617	1889.1634	14409.7	13510.05
922.101	1890.8011	14350.75	13449.85
922.2402	1892.4381	14336.35	13434.45
922.3794	1894.0743	14320.5	13418.05
922.5185	1895.7098	14272.55	13374.65
922.6577	1897.3446	14269.6	13367.1
922.7968	1898.9786	14210.25	13306.55
922.9359	1900.6118	14190.05	13289.35
923.075	1902.2443	14092.25	13191.65
923.214	1903.8761	14056.85	13158.05
923.3531	1905.5071	13993.8	13094.9
923.4921	1907.1374	13933.1	13034.65
923.6311	1908.7669	13918.85	13020.85
923.77	1910.3957	13904.75	13006.35
923.909	1912.0237	13818.95	12919.45
924.0479	1913.651	13835.65	12935.55
924.1868	1915.2776	13801	12901.9
924.3257	1916.9034	13715.45	12819.35
924.4646	1918.5285	13641.7	12745.35
924.6034	1920.1528	13581.9	12684.6
924.7422	1921.7764	13563.55	12664.9
924.881	1923.3992	13530.35	12631.05
925.0198	1925.0213	13444.2	12544.1
925.1586	1926.6427	13385.4	12487.55
925.2973	1928.2633	13427.3	12459.25
925.436	1929.8832	13353.65	12454.3
925.5747	1931.5023	13291.05	12393.2
925.7134	1933.1207	13250.7	12354.85
925.852	1934.7383	13217.2	12317.75
925.9906	1936.3552	13148.4	12250.55
926.1292	1937.9714	13143.85	12245.9
926.2678	1939.5868	13066.8	12168.5
926.4064	1941.2015	12967.15	12068.15
926.5449	1942.8154	12986.4	12087.5
926.6834	1944.4286	12892.5	11991.9
926.8219	1946.041	12886.45	11968.65
926.9604	1947.6528	12785.45	11882.4
927.0988	1949.2637	12787.35	11890.15
927.2372	1950.8739	12710.05	11813.4
927.3756	1952.4834	12694.45	11797.1
927.514	1954.0921	12635.75	11739.25
927.6523	1955.7001	12617.1	11715
927.7907	1957.3074	12578.6	11684.5
927.929	1958.9139	12522.6	11630.7
928.0673	1960.5197	12515.1	11620.3
928.2055	1962.1247	12470.15	11576.45
928.3438	1963.729	12361.45	11467.8
928.482	1965.3325	12356.4	11438
928.6202	1966.9353	12322.75	11431.2
928.7584	1968.5374	12257.65	11363.9
928.8965	1970.1387	12210.7	11317.1
929.0346	1971.7393	12162.55	11268.35
929.1727	1973.3392	12161	11268.3
929.3108	1974.9383	12078.35	11186.75
929.4489	1976.5366	12055.05	11164.3
929.5869	1978.1342	12034.25	11142.4
929.7249	1979.7311	12000.55	11107.35
929.8629	1981.3273	11953.2	11062.75
930.0009	1982.9227	11909.45	11017.6
930.1388	1984.5173	11860.2	10971.1
930.2767	1986.1112	11805	10915.35
930.4146	1987.7044	11804.9	10913.85
930.5525	1989.2968	11764.45	10871.5
930.6904	1990.8885	11744.85	10853.65
930.8282	1992.4795	11701.9	10811.55
930.966	1994.0697	11670.1	10781.25
931.1038	1995.6592	11622.35	10732.85
931.2415	1997.2479	11596.9	10705.7
931.3793	1998.8359	11547.9	10661
931.517	2000.4232	11485.1	10598.1
931.6547	2002.0097	11475.1	10592.25
931.7923	2003.5955	11440.4	10551.75
931.93	2005.1805	11416.15	10527.7
932.0676	2006.7648	11381.3	10495.4
932.2052	2008.3484	11356.6	10467.9
932.3427	2009.9312	11340.25	10454.15
932.4803	2011.5133	11292.3	10408.85
932.6178	2013.0946	11273.35	10387.65
932.7553	2014.6752	11244.6	10358.1
932.8928	2016.2551	11214.15	10324.25
933.0302	2017.8342	11178.75	10290.3
933.1676	2019.4126	11109.55	10223.15
933.305	2020.9902	11073.95	10191.15
933.4424	2022.5672	11053.95	10169.35
933.5798	2024.1433	11014.6	10125.7
933.7171	2025.7188	10993.35	10110.45
933.8544	2027.2935	10955.85	10072.65
933.9917	2028.8674	10918.35	10033.7
934.129	2030.4406	10844.3	9961.1
934.2662	2032.0131	10826.9	9944.05
934.4034	2033.5849	10800.4	9911.45
934.5406	2035.1559	10790.9	9908.25
934.6778	2036.7261	10752.9	9866.85
934.8149	2038.2957	10737.55	9849.45
934.952	2039.8645	10713.1	9823.1
935.0891	2041.4325	10706.8	9815.2
935.2262	2042.9998	10657.1	9771.9
935.3632	2044.5664	10639.15	9753.35
935.5002	2046.1323	10617.55	9734.75
935.6372	2047.6974	10541.3	9655.75
935.7742	2049.2617	10525.45	9641.2
935.9111	2050.8254	10522.05	9632.15
936.048	2052.3883	10487	9598.6
936.1849	2053.9504	10455.1	9568
936.3218	2055.5118	10460.05	9569.2
936.4586	2057.0725	10369.5	9478.25
936.5955	2058.6325	10347.3	9463.3
936.7323	2060.1917	10324.25	9439.45
936.869	2061.7502	10313.6	9426.25
937.0058	2063.3079	10276.75	9393.6
937.1425	2064.8649	10255.5	9368.3
937.2792	2066.4212	10215.25	9328.25
937.4159	2067.9767	10189	9301.05
937.5525	2069.5315	10137.25	9249.9
937.6891	2071.0856	10071.9	9187.65
937.8257	2072.6389	10068.15	9180.6
937.9623	2074.1915	10012.85	9131.7
938.0989	2075.7433	9941.5	9055.2
938.2354	2077.2945	9942.55	9056
938.3719	2078.8448	9912.6	9024.55
938.5084	2080.3945	9866.9	8978.2
938.6448	2081.9434	9870.55	8979.5
938.7812	2083.4916	9850.15	8958.4
938.9176	2085.039	9801.85	8908.6
939.054	2086.5857	9811	8915.2
939.1903	2088.1317	9780.3	8886.3
939.3267	2089.677	9744.7	8847.95
939.463	2091.2215	9687.7	8793
939.5992	2092.7652	9697.4	8801.25
939.7355	2094.3083	9677.85	8784.7
939.8717	2095.8506	9659.35	8767.95
940.0079	2097.3921	9631.55	8742.05
940.1441	2098.933	9606.55	8715.25
940.2802	2100.4731	9584.55	8693.2
940.4163	2102.0124	9545.55	8649.5
940.5524	2103.5511	9548.9	8656.75
940.6885	2105.089	9480.25	8589.95
940.8245	2106.6261	9505.3	8615.05
940.9606	2108.1626	9452.55	8562.6
941.0965	2109.6983	9453.45	8537.65
941.2325	2111.2332	9401.05	8508.7
941.3684	2112.7675	9380.35	8487.55
941.5044	2114.301	9360.85	8466.85
941.6403	2115.8337	9351.55	8458.9
941.7761	2117.3657	9342.1	8451.2
941.912	2118.897	9303.25	8410.6
942.0478	2120.4276	9283.05	8387.85
942.1835	2121.9575	9206.35	8313.9
942.3193	2123.4866	9211	8314.85
942.455	2125.0149	9184.8	8291.35
942.5907	2126.5426	9133.2	8246.4
942.7264	2128.0695	9099.35	8209.15
942.8621	2129.5956	9098.35	8213.7
942.9977	2131.1211	9095.2	8202.4
943.1333	2132.6458	9058.65	8170.85
943.2689	2134.1698	9007.3	8115.45
943.4044	2135.693	8998.95	8102.2
943.54	2137.2155	8993	8097.2
943.6755	2138.7373	8987.6	8096.5
943.8109	2140.2584	8948.25	8058.1
943.9464	2141.7787	8912.9	8021.4
944.0818	2143.2983	8875.65	7990.35
944.2172	2144.8171	8827.2	7944.45
944.3526	2146.3353	8845.4	7955.25
944.4879	2147.8527	8789.3	7906.05
944.6232	2149.3693	8813.9	7921.25
944.7585	2150.8853	8736.35	7842.1
944.8938	2152.4005	8720.1	7824.95
945.029	2153.9149	8702.35	7810.45
945.1642	2155.4287	8728	7728.1
945.2994	2156.9417	8654.05	7758.25
945.4346	2158.454	8634.15	7744.3
945.5697	2159.9655	8602.55	7717.9
945.7048	2161.4764	8593.6	7706.85
945.8399	2162.9865	8547.6	7659.2
945.9749	2164.4958	8540.3	7652.9
946.1099	2166.0045	8492.85	7600.05
946.2449	2167.5124	8487.1	7597.6
946.3799	2169.0195	8467.15	7577
946.5148	2170.526	8474.55	7583.45
946.6498	2172.0317	8437	7547.05
946.7846	2173.5367	8412	7519.6
946.9195	2175.0409	8372.8	7482.75
947.0543	2176.5445	8358.65	7466.9
947.1891	2178.0473	8333.35	7439.9
947.3239	2179.5494	8324.5	7428.35
947.4587	2181.0507	8294.95	7402.2
947.5934	2182.5513	8269.75	7378.95
947.7281	2184.0512	8256.65	7365.35
947.8628	2185.5504	8220.95	7331.05
947.9974	2187.0488	8164.45	7276.05
948.132	2188.5465	8138.5	7252.05
948.2666	2190.0435	8099.9	7211.35
948.4012	2191.5397	8094.45	7199.9
948.5357	2193.0353	8083.3	7189.85
948.6702	2194.5301	8034.85	7139.3
948.8047	2196.0241	8022.8	7127.85
948.9392	2197.5175	7995.2	7098.8
949.0736	2199.0101	7955.45	7057.85
949.208	2200.502	7912.65	7021.3
949.3424	2201.9931	7903.8	7015.15
949.4767	2203.4835	7855.35	6966.65
949.611	2204.9733	7867.25	6962.45
949.7453	2206.4622	7825.3	6937.15
949.8796	2207.9505	7798.2	6907.7
950.0138	2209.438	7766	6879.95
950.148	2210.9248	7743.85	6854.4
950.2822	2212.4109	7733.75	6845.6
950.4164	2213.8962	7704.85	6809.85
950.5505	2215.3809	7692.2	6795.75
950.6846	2216.8648	7689.75	6793.05
950.8186	2218.3479	7647.6	6748.25
950.9527	2219.8304	7632.2	6733.05
951.0867	2221.3121	7590.75	6694.45
951.2207	2222.7931	7560.7	6666.85
951.3546	2224.2733	7549.4	6656.45
951.4886	2225.7529	7516.45	6624.8
951.6225	2227.2317	7473.2	6581.75
951.7563	2228.7098	7462.55	6573.5
951.8902	2230.1872	7423.3	6538.05
952.024	2231.6638	7417.35	6529.35
952.1578	2233.1397	7376.55	6486.3
952.2916	2234.6149	7362.15	6473.4
952.4253	2236.0894	7355.2	6465.65
952.559	2237.5632	7350.8	6460.45
952.6927	2239.0362	7310.45	6420.2
952.8263	2240.5085	7300.8	6411.65
952.9599	2241.9801	7267.25	6374.7
953.0935	2243.4509	7228.4	6334.2
953.2271	2244.921	7218.8	6325.45
953.3606	2246.3904	7194.1	6298.35
953.4941	2247.8591	7164.3	6271.35
953.6276	2249.3271	7142	6251.25
953.7611	2250.7943	7106.75	6213
953.8945	2252.2608	7095.9	6201.9
954.0279	2253.7266	7078.85	6185.85
954.1612	2255.1917	7065.8	6173.55
954.2946	2256.656	7026.25	6134.6
954.4279	2258.1197	7018.45	6130.9
954.5612	2259.5826	7000.9	6108.15
954.6944	2261.0447	6996.55	6103.55
954.8276	2262.5062	6943.4	6046.75
954.9608	2263.9669	6932.15	6036.95
955.094	2265.4269	6927.45	6036
955.2271	2266.8862	6899.25	6010.2
955.3602	2268.3448	6904	6013.45
955.4933	2269.8026	6860.35	5971.25
955.6264	2271.2598	6856.15	5966.4
955.7594	2272.7162	6830.1	5939.35
955.8924	2274.1719	6805.6	5912.45
956.0253	2275.6268	6788.5	5892.7
956.1583	2277.0811	6791.55	5898.8
956.2912	2278.5346	6763.15	5872.05
956.4241	2279.9874	6742.85	5854.5
956.5569	2281.4395	6741.15	5853.45
956.6897	2282.8908	6712.25	5819.25
956.8225	2284.3414	6724.7	5832.05
956.9553	2285.7914	6678.2	5786.8
957.088	2287.2406	6645.25	5751.7
957.2207	2288.689	6634.85	5737.75
957.3534	2290.1368	6626.85	5727.35
957.486	2291.5838	6599.45	5700.9
957.6186	2293.0302	6581.35	5683.8
957.7512	2294.4758	6557.9	5660.25
957.8838	2295.9206	6532.35	5636.7
958.0163	2297.3648	6503.9	5614
958.1488	2298.8082	6511.95	5620.75
958.2813	2300.251	6486.7	5593.45
958.4137	2301.693	6448	5551.95
958.5461	2303.1343	6464.75	5567.55
958.6785	2304.5748	6441.35	5550.35
958.8108	2306.0147	6409.9	5521.35
958.9432	2307.4538	6386.15	5495.1
959.0754	2308.8922	6365.45	5478.55
959.2077	2310.3299	6347.5	5461.85
959.3399	2311.7669	6344.45	5455.55
959.4721	2313.2031	6319.7	5427.95
959.6043	2314.6387	6296.2	5405.75
959.7365	2316.0735	6286.05	5394.45
959.8686	2317.5076	6264.5	5370.85
960.0006	2318.941	6235.5	5341.9
960.1327	2320.3737	6230.75	5336.9
960.2647	2321.8056	6211.7	5313.35
960.3967	2323.2369	6181.15	5285.7
960.5287	2324.6674	6187.4	5292.15
960.6606	2326.0972	6155.85	5262.1
960.7925	2327.5263	6132.85	5240.2
960.9244	2328.9547	6129.05	5233
961.0562	2330.3823	6100.6	5206.4
961.1881	2331.8092	6113.7	5214.45
961.3198	2333.2355	6045.9	5151.45
961.4516	2334.661	6044.85	5151.55
961.5833	2336.0858	6045.35	5150.25
961.715	2337.5098	6018.15	5123.5
961.8467	2338.9332	6029.3	5136.6
961.9783	2340.3558	5990.2	5096.7
962.1099	2341.7778	5966.1	5076.55
962.2415	2343.199	5953.25	5061.35
962.373	2344.6195	5941.5	5048.5
962.5045	2346.0393	5931.5	5039.25
962.636	2347.4583	5901.3	5008.85
962.7675	2348.8767	5908.5	5015.35
962.8989	2350.2943	5877.2	4983.95
963.0303	2351.7113	5879.7	4983.15
963.1617	2353.1275	5846.05	4949.1
963.293	2354.543	5849.4	4946.9
963.4243	2355.9578	5812.35	4918.6
963.5556	2357.3718	5787.65	4896.1
963.6868	2358.7852	5773.8	4882.3
963.818	2360.1978	5751.15	4860.7
963.9492	2361.6098	5720.55	4829.25
964.0803	2363.021	5721.75	4824.95
964.2114	2364.4315	5692.45	4798.25
964.3425	2365.8413	5693.25	4798.85
964.4736	2367.2504	5673.35	4783.2
964.6046	2368.6587	5631.9	4739.45
964.7356	2370.0664	5604.3	4714.4
964.8666	2371.4733	5595.6	4703.4
964.9975	2372.8795	5583.6	4691.9
965.1284	2374.285	5559.85	4669.9
965.2593	2375.6899	5538.65	4648.85
965.3901	2377.0939	5518.7	4628.3
965.5209	2378.4973	5494.35	4601.9
965.6517	2379.9	5489.05	4598.55
965.7825	2381.3019	5462.15	4573.35
965.9132	2382.7032	5448.85	4557.9
966.0439	2384.1037	5449.3	4561.85
966.1745	2385.5035	5419.65	4534.1
966.3051	2386.9027	5412.4	4525.05
966.4357	2388.3011	5392	4500.55
966.5663	2389.6987	5374.05	4484.45
966.6968	2391.0957	5349.15	4462.25
966.8273	2392.492	5312.25	4423.95
966.9578	2393.8876	5299.15	4410.55
967.0882	2395.2824	5278.15	4389.65
967.2186	2396.6765	5260.2	4372.85
967.349	2398.07	5252.8	4362.05
967.4793	2399.4627	5235.1	4342.55
967.6097	2400.8547	5226.05	4333.25
967.7399	2402.246	5214.5	4317.05
967.8702	2403.6366	5164.25	4273.05
968.0004	2405.0265	5150.05	4263.15
968.1306	2406.4156	5151.7	4258.9
968.2607	2407.8041	5138.2	4244.2
968.3909	2409.1918	5127.9	4233.1
968.521	2410.5789	5101	4211.4
968.651	2411.9652	5081.9	4189
968.781	2413.3508	5066.8	4175.85
968.911	2414.7358	5048.45	4156.2
969.041	2416.12	5030.6	4140.75
969.1709	2417.5035	5024.05	4134.9
969.3008	2418.8863	5009.75	4117.25
969.4307	2420.2684	4990.25	4098.5
969.5606	2421.6497	4952.15	4058.5
969.6904	2423.0304	4944.75	4055.85
969.8201	2424.4104	4941.1	4051.15
969.9499	2425.7896	4916.95	4024.25
970.0796	2427.1682	4904.6	4015.5
970.2093	2428.546	4881.3	3988.65
970.3389	2429.9232	4893.75	4000.35
970.4685	2431.2996	4851.1	3960.1
970.5981	2432.6753	4863.95	3974
970.7277	2434.0503	4836.65	3944.65
970.8572	2435.4246	4815.4	3925.5
970.9867	2436.7982	4819.85	3926.05
971.1161	2438.1711	4799.15	3908.65
971.2456	2439.5433	4787.8	3894.2
971.375	2440.9148	4775.2	3878.15
971.5043	2442.2856	4758.2	3868.25
971.6336	2443.6557	4741.55	3847.85
971.7629	2445.025	4711.45	3817.95
971.8922	2446.3937	4711.4	3821.25
972.0214	2447.7617	4680.45	3788.05
972.1506	2449.1289	4683.3	3790.8
972.2798	2450.4955	4676.4	3782
972.4089	2451.8613	4653.25	3763.8
972.538	2453.2265	4641.05	3750.85
972.6671	2454.5909	4653.15	3761.6
972.7961	2455.9546	4645.05	3752.4
972.9251	2457.3177	4612	3722.65
973.0541	2458.68	4593.05	3700.05
973.1831	2460.0416	4605.85	3716.45
973.312	2461.4025	4603.25	3714.1
973.4408	2462.7627	4601.7	3699.35
973.5697	2464.1222	4563.9	3676.2
973.6985	2465.4811	4553.5	3665.05
973.8273	2466.8392	4533.15	3644.05
973.956	2468.1966	4535.5	3645.4
974.0847	2469.5533	4545.25	3650.55
974.2134	2470.9093	4519.7	3628.8
974.3421	2472.2645	4487.9	3595.6
974.4707	2473.6191	4487.9	3597.65
974.5993	2474.973	4437.9	3548.05
974.7278	2476.3262	4449.4	3557.75
974.8563	2477.6787	4452.6	3562.7
974.9848	2479.0305	4420.85	3531.4
975.1132	2480.3816	4409.5	3517.9
975.2417	2481.7319	4381.55	3489.85
975.37	2483.0816	4398	3506.05
975.4984	2484.4306	4362.45	3471.9
975.6267	2485.7789	4367.25	3478.65
975.755	2487.1264	4338.45	3446.2
975.8833	2488.4733	4334.2	3445.7
976.0115	2489.8195	4319.65	3413.95
976.1397	2491.165	4319.75	3425.5
976.2678	2492.5097	4275.7	3385.2
976.3959	2493.8538	4269.45	3378.65
976.524	2495.1972	4246.55	3357.3
976.6521	2496.5398	4228.9	3337.9
976.7801	2497.8818	4220	3325.4
976.9081	2499.2231	4224.25	3332.95
977.036	2500.5637	4197.95	3305.25
977.164	2501.9035	4199.7	3308.75
977.2918	2503.2427	4191.15	3295.5
977.4197	2504.5812	4185.25	3293.6
977.5475	2505.919	4162.45	3269
977.6753	2507.256	4172.5	3280.25
977.8031	2508.5924	4128	3239.4
977.9308	2509.9281	4119.1	3222.6
978.0585	2511.2631	4114.2	3223.25
978.1861	2512.5974	4095.75	3205.55
978.3137	2513.9309	4096.55	3206.35
978.4413	2515.2638	4110.05	3192.5
978.5689	2516.596	4073.9	3182.2
978.6964	2517.9275	4067.35	3172.85
978.8239	2519.2583	4065	3172.6
978.9513	2520.5884	4029.25	3136.8
979.0788	2521.9178	4025.55	3134.1
979.2062	2523.2465	3999.25	3109.55
979.3335	2524.5745	3972.5	3082.3
979.4608	2525.9018	3977.1	3087.7
979.5881	2527.2284	3975.8	3086.75
979.7154	2528.5543	3965.1	3072.4
979.8426	2529.8796	3955.1	3062.75
979.9698	2531.2041	3942.85	3050.3
980.0969	2532.5279	3924.85	3034.85
980.224	2533.851	3931.85	3039.7
980.3511	2535.1735	3909.1	3018.75
980.4781	2536.4952	3910.35	3021.1
980.6052	2537.8163	3890.05	2997.9
980.7321	2539.1366	3901.85	3010.45
980.8591	2540.4562	3876.6	2982.85
980.986	2541.7752	3874.15	2983.95
981.1129	2543.0935	3875.15	2982.35
981.2397	2544.411	3860.25	2966.95
981.3665	2545.7279	3833.1	2940.7
981.4933	2547.0441	3837.8	2947.1
981.62	2548.3596	3828.95	2935.8
981.7467	2549.6744	3826.95	2935.5
981.8734	2550.9885	3832.85	2939.15
982.0001	2552.3019	3805.2	2913.95
982.1267	2553.6146	3810.55	2919.3
982.2532	2554.9266	3781.75	2888.65
982.3798	2556.2379	3777.55	2885.35
982.5063	2557.5485	3784.35	2894
982.6327	2558.8585	3783.15	2886.2
982.7592	2560.1677	3756	2859.8
982.8856	2561.4762	3748.6	2854.35
983.0119	2562.7841	3763.45	2869.7
983.1383	2564.0913	3736.45	2846.15
983.2646	2565.3977	3727.2	2834.7
983.3908	2566.7035	3700.4	2808
983.517	2568.0086	3715.2	2821.75
983.6432	2569.313	3714.35	2821.1
983.7694	2570.6167	3691.5	2795.1
983.8955	2571.9197	3693.05	2800.45
984.0216	2573.222	3684.85	2790.2
984.1476	2574.5236	3680.95	2787.3
984.2737	2575.8246	3668.95	2772.35
984.3996	2577.1248	3674.7	2782.55
984.5256	2578.4244	3669.75	2778.05
984.6515	2579.7232	3652.6	2760.05
984.7774	2581.0214	3677.1	2754.75
984.9032	2582.3189	3643.75	2752.1
985.029	2583.6157	3643.55	2744.55
985.1548	2584.9118	3637.7	2747.95
985.2806	2586.2072	3625	2731.2
985.4063	2587.5019	3605.7	2712.3
985.5319	2588.7959	3599.05	2706
985.6576	2590.0893	3606.55	2710.95
985.7832	2591.3819	3603.55	2711.3
985.9087	2592.6739	3594.45	2702.6
986.0343	2593.9652	3584.05	2690.05
986.1597	2595.2557	3572.95	2682.15
986.2852	2596.5456	3568.75	2674.05
986.4106	2597.8348	3554	2661.7
986.536	2599.1234	3548.25	2658.25
986.6614	2600.4112	3539.7	2647.3
986.7867	2601.6983	3530.05	2634.15
986.912	2602.9848	3525.95	2633.4
987.0372	2604.2705	3520.35	2621.75
987.1624	2605.5556	3508.8	2617.1
987.2876	2606.84	3500.95	2609.15
987.4128	2608.1237	3470	2578.2
987.5379	2609.4067	3470.95	2579.2
987.6629	2610.689	3464.5	2562.8
987.788	2611.9707	3454.8	2559.2
987.913	2613.2516	3437.45	2540
988.0379	2614.5319	3419.8	2528.25
988.1629	2615.8115	3433.7	2541.4
988.2878	2617.0903	3419.15	2525.8
988.4126	2618.3685	3404.5	2512.75
988.5375	2619.6461	3394.15	2501.85
988.6622	2620.9229	3384.75	2492.4
988.787	2622.199	3385.35	2491.15
988.9117	2623.4745	3369.2	2476.05
989.0364	2624.7493	3362.65	2471
989.161	2626.0234	3349.55	2460.1
989.2857	2627.2968	3344.85	2453.95
989.4102	2628.5695	3330.25	2436.6
989.5348	2629.8415	3318.7	2427.9
989.6593	2631.1128	3315.75	2422.65
989.7837	2632.3835	3301	2409.9
989.9082	2633.6535	3289.95	2399.55
990.0326	2634.9228	3282.85	2389.55
990.1569	2636.1914	3264.15	2375.3
990.2812	2637.4593	3276.9	2380.8
990.4055	2638.7265	3263.1	2370.8
990.5298	2639.9931	3256.85	2365.5
990.654	2641.259	3251.4	2358.2
990.7782	2642.5242	3221.65	2328.65
990.9023	2643.7887	3239.4	2348
991.0264	2645.0525	3226.15	2335.3
991.1505	2646.3156	3229.85	2322.6
991.2745	2647.5781	3204.6	2314.55
991.3985	2648.8398	3177.5	2287.05
991.5225	2650.1009	3183.65	2285.8
991.6464	2651.3613	3173.6	2281.25
991.7703	2652.6211	3193.35	2301.1
991.8942	2653.8801	3178	2288.75
992.018	2655.1385	3158.7	2263.5
992.1418	2656.3961	3158.9	2267.7
992.2655	2657.6531	3150.8	2258.3
992.3892	2658.9094	3148.55	2256.5
992.5129	2660.1651	3131.2	2241.2
992.6366	2661.42	3127.65	2236.25
992.7602	2662.6743	3139.3	2247.95
992.8837	2663.9279	3135.9	2244.55
993.0073	2665.1808	3114.75	2221.35
993.1307	2666.433	3112	2219.15
993.2542	2667.6846	3094.5	2203.45
993.3776	2668.9354	3112.05	2218.65
993.501	2670.1856	3090.15	2199.05
993.6244	2671.4351	3093.5	2205.6
993.7477	2672.6839	3086.8	2196
993.8709	2673.9321	3076.55	2187.3
993.9942	2675.1795	3064.25	2174.45
994.1174	2676.4263	3070.35	2179.35
994.2405	2677.6724	3063.4	2174.2
994.3637	2678.9179	3059.25	2169.5
994.4868	2680.1626	3059.05	2171.2
994.6098	2681.4067	3058.45	2165.75
994.7328	2682.6501	3043.75	2153.8
994.8558	2683.8928	3029.2	2138.85
994.9788	2685.1348	3029.45	2138.45
995.1017	2686.3761	3015.6	2124.5
995.2245	2687.6168	3013	2124.05
995.3474	2688.8568	3007.35	2119.8
995.4702	2690.0961	2992	2102.45
995.5929	2691.3348	2981.5	2091.2
995.7156	2692.5727	2967.5	2077
995.8383	2693.81	2962.8	2071.45
995.961	2695.0466	2960.45	2070.2
996.0836	2696.2826	2950.2	2059.15
996.2062	2697.5178	2935.35	2042
996.3287	2698.7524	2932.65	2043.25
996.4512	2699.9863	2938.7	2045.8
996.5737	2701.2195	2920.1	2031.9
996.6961	2702.452	2930.4	2038.15
996.8185	2703.6839	2920.55	2032.15
996.9408	2704.9151	2926.6	2037.95
997.0631	2706.1456	2918.15	2028.85
997.1854	2707.3755	2920.4	2028
997.3077	2708.6046	2919.7	2027.5
997.4299	2709.8331	2921.6	2031.8
997.552	2711.0609	2913.9	2025.05
997.6742	2712.2881	2915.75	2027.55
997.7963	2713.5145	2931.3	2039.15
997.9183	2714.7403	2930.05	2039.95
998.0403	2715.9654	2934.35	2042.1
998.1623	2717.1899	2941	2037.4
998.2842	2718.4136	2929.95	2041.1
998.4062	2719.6367	2941.6	2051.6
998.528	2720.8591	2951.5	2053.3
998.6498	2722.0809	2936.8	2047.25
998.7716	2723.3019	2954	2061.55
998.8934	2724.5223	2953.45	2061.65
999.0151	2725.7421	2946.45	2058.15
999.1368	2726.9611	2951.3	2057.45
999.2584	2728.1795	2939.9	2046.55
999.38	2729.3972	2925.35	2034.6
999.5016	2730.6142	2901.6	2006.55
999.6231	2731.8306	2884.65	1993.25
999.7446	2733.0462	2867.2	1975.95
999.8661	2734.2612	2855.4	1963.1
999.9875	2735.4756	2829.45	1937.4
1000.1089	2736.6892	2811.85	1922.5
1000.2302	2737.9022	2792.65	1904.55
1000.3515	2739.1145	2763.3	1873.9
1000.4728	2740.3262	2764.8	1866.65
1000.594	2741.5372	2731.1	1842
1000.7152	2742.7475	2701.6	1811.7
1000.8363	2743.9571	2697.4	1806.25
1000.9575	2745.1661	2684.5	1789.65
1001.0785	2746.3744	2668.5	1778.5
1001.1996	2747.582	2664.5	1775.45
1001.3206	2748.7889	2655.6	1764
1001.4415	2749.9952	2638.15	1750.15
1001.5625	2751.2008	2628	1740.2
1001.6833	2752.4057	2617.95	1727.7
1001.8042	2753.61	2612.35	1722.95
1001.925	2754.8136	2611.65	1720.55
1002.0458	2756.0165	2598.6	1711.3
1002.1665	2757.2188	2585.6	1696.55
1002.2872	2758.4204	2580.5	1690.3
1002.4078	2759.6213	2584.05	1691.9
1002.5285	2760.8215	2575.5	1681.65
1002.649	2762.0211	2573.85	1683.05
1002.7696	2763.22	2579.8	1686.85
1002.8901	2764.4182	2552.95	1664.8
1003.0106	2765.6158	2557.8	1669.15
1003.131	2766.8127	2551.9	1662.9
1003.2514	2768.009	2535.95	1647.1
1003.3717	2769.2045	2528.3	1639.25
1003.492	2770.3994	2525.9	1634.7
1003.6123	2771.5936	2517.05	1627.55
1003.7325	2772.7872	2505.15	1615.45
1003.8527	2773.9801	2492.05	1602.1
1003.9729	2775.1723	2508	1604.45
1004.093	2776.3639	2493.5	1606.7
1004.2131	2777.5548	2487.75	1598.75
1004.3331	2778.745	2474.3	1583.25
1004.4531	2779.9346	2477.6	1591.4
1004.5731	2781.1235	2480.7	1592.15
1004.693	2782.3117	2470.75	1583.15
1004.8129	2783.4992	2476.4	1589.45
1004.9328	2784.6861	2477.05	1586.2
1005.0526	2785.8723	2471.5	1582.9
1005.1723	2787.0579	2474.65	1585.25
1005.2921	2788.2428	2478.35	1588.4
1005.4118	2789.427	2470.95	1585.25
1005.5314	2790.6106	2473.05	1586.9
1005.651	2791.7935	2495.15	1606.3
1005.7706	2792.9757	2487.4	1599.9
1005.8902	2794.1573	2493.65	1602.4
1006.0097	2795.3382	2503.75	1617.2
1006.1291	2796.5184	2519	1634.95
1006.2485	2797.698	2533.7	1642
1006.3679	2798.8769	2539.15	1651.6
1006.4873	2800.0551	2549.6	1660.6
1006.6066	2801.2327	2565.2	1674.15
1006.7258	2802.4096	2580.85	1693.35
1006.8451	2803.5859	2587.15	1697.95
1006.9642	2804.7615	2608.25	1719.25
1007.0834	2805.9364	2622.8	1736.1
1007.2025	2807.1106	2650.1	1762
1007.3216	2808.2842	2685.2	1796.95
1007.4406	2809.4572	2694.7	1806.6
1007.5596	2810.6294	2727.4	1839.7
1007.6785	2811.801	2771.4	1884.85
1007.7975	2812.972	2812.95	1926.2
1007.9163	2814.1423	2838.65	1950.3
1008.0352	2815.3119	2897.8	2010.65
1008.154	2816.4808	2924.05	2036.25
1008.2727	2817.6491	2984.25	2096.9
1008.3914	2818.8167	3012.3	2125.9
1008.5101	2819.9837	3062.65	2168.75
1008.6288	2821.15	3101.35	2211.75
1008.7474	2822.3157	3129.15	2242.75
1008.8659	2823.4807	3174.7	2287.6
1008.9844	2824.645	3217.9	2331.1
1009.1029	2825.8086	3267.7	2380.95
1009.2214	2826.9716	3280.75	2393.8
1009.3398	2828.134	3319.9	2432.5
1009.4581	2829.2957	3365.15	2476.85
1009.5764	2830.4567	3386.55	2500.3
1009.6947	2831.617	3404.7	2518.35
1009.813	2832.7767	3401.15	2513.8
1009.9312	2833.9358	3410.05	2524.2
1010.0493	2835.0941	3383.1	2495.95
1010.1675	2836.2519	3390.35	2503.5
1010.2855	2837.4089	3359.25	2472.1
1010.4036	2838.5653	3355.65	2469.1
1010.5216	2839.7211	3366.2	2481.7
1010.6396	2840.8761	3350.1	2461.5
1010.7575	2842.0306	3381.15	2492.95
1010.8754	2843.1843	3414.4	2528.1
1010.9932	2844.3374	3458.1	2571.1
1011.111	2845.4899	3517.75	2629.45
1011.2288	2846.6417	3573.85	2689.15
1011.3465	2847.7928	3642.05	2756.15
1011.4642	2848.9433	3737.35	2852.25
1011.5818	2850.0931	3799	2914.95
1011.6995	2851.2422	3888.85	3001.35
1011.817	2852.3907	3949.6	3064.2
1011.9345	2853.5385	4007	3116.95
1012.052	2854.6857	4071.95	3177
1012.1695	2855.8323	4094.4	3210.2
1012.2869	2856.9781	4152.15	3266.85
1012.4042	2858.1233	4186.6	3300.55
1012.5216	2859.2679	4216.85	3331.1
1012.6389	2860.4118	4272.9	3387.5
1012.7561	2861.555	4297.2	3408.15
1012.8733	2862.6976	4327.15	3438.8
1012.9905	2863.8395	4334.6	3448.35
1013.1076	2864.9808	4370.4	3484.2
1013.2247	2866.1214	4371.2	3487.2
1013.3417	2867.2614	4385.35	3499.3
1013.4587	2868.4007	4415.15	3527.3
1013.5757	2869.5393	4412.75	3524.15
1013.6926	2870.6773	4419	3530.5
1013.8095	2871.8146	4430.2	3542.15
1013.9263	2872.9513	4428.55	3540.8
1014.0431	2874.0874	4404.7	3519.35
1014.1599	2875.2227	4406.25	3517.55
1014.2766	2876.3574	4390.45	3506
1014.3933	2877.4915	4347.6	3461.85
1014.51	2878.6249	4329.2	3442.6
1014.6266	2879.7577	4313.4	3423.35
1014.7431	2880.8898	4282.4	3385.35
1014.8596	2882.0212	4275.6	3388.75
1014.9761	2883.152	4250.5	3363.45
1015.0925	2884.2821	4228.7	3343.55
1015.2089	2885.4116	4220.95	3335.95
1015.3253	2886.5405	4220.35	3337.35
1015.4416	2887.6686	4225.05	3333.8
1015.5579	2888.7962	4231.95	3348.25
1015.6741	2889.923	4237.45	3350.35
1015.7903	2891.0493	4244.2	3358.35
1015.9065	2892.1748	4230.25	3345.25
1016.0226	2893.2997	4243.35	3357.75
1016.1387	2894.424	4264.85	3380.4
1016.2547	2895.5476	4287.65	3404.1
1016.3707	2896.6706	4297.35	3410.2
1016.4866	2897.7929	4318.45	3433.8
1016.6025	2898.9145	4337.2	3450.65
1016.7184	2900.0355	4358.6	3471.8
1016.8342	2901.1559	4381.95	3496.5
1016.95	2902.2756	4422.95	3537.65
1017.0658	2903.3946	4448.7	3562.25
1017.1815	2904.513	4462.3	3571.8
1017.2971	2905.6308	4486.3	3603.1
1017.4127	2906.7479	4508.45	3622.95
1017.5283	2907.8643	4541.4	3655.35
1017.6439	2908.9801	4539.45	3657.1
1017.7594	2910.0953	4556.1	3671.6
1017.8748	2911.2098	4553.25	3663.45
1017.9902	2912.3236	4560	3669.2
1018.1056	2913.4368	4528.45	3638.8
1018.2209	2914.5494	4506.2	3622.65
1018.3362	2915.6613	4462.7	3573.25
1018.4515	2916.7725	4444	3555.7
1018.5667	2917.8831	4427.6	3541.6
1018.6819	2918.9931	4386.95	3498.75
1018.797	2920.1024	4358.35	3471.7
1018.9121	2921.211	4332.85	3448.2
1019.0271	2922.319	4303.6	3418.5
1019.1421	2923.4264	4283.15	3397.7
1019.2571	2924.5331	4278.45	3394.3
1019.372	2925.6391	4274.9	3392.35
1019.4869	2926.7445	4241.35	3356.65
1019.6017	2927.8493	4235.1	3348.25
1019.7165	2928.9534	4242.3	3357.4
1019.8313	2930.0569	4211.05	3322.2
1019.946	2931.1597	4200.1	3314.25
1020.0606	2932.2619	4190.55	3305.9
1020.1753	2933.3634	4175.55	3291
1020.2899	2934.4643	4161.4	3270.75
1020.4044	2935.5645	4149.7	3259.45
1020.5189	2936.6641	4114.9	3226
1020.6334	2937.763	4068.45	3183.6
1020.7478	2938.8613	4004.5	3118.45
1020.8622	2939.959	3964.85	3075.25
1020.9765	2941.056	3883.4	3000.7
1021.0908	2942.1523	3800.55	2915.25
1021.2051	2943.248	3720.8	2836
1021.3193	2944.3431	3626.5	2740.2
1021.4334	2945.4375	3529.1	2643.55
1021.5476	2946.5313	3421.7	2538.9
1021.6617	2947.6244	3326.65	2440.75
1021.7757	2948.7169	3210.15	2326.05
1021.8897	2949.8087	3118.9	2233.5
1022.0037	2950.8999	3037.9	2153.35
1022.1176	2951.9904	2955.7	2070.1
1022.2315	2953.0803	2883.8	1999.45
1022.3453	2954.1696	2814.2	1929.7
1022.4591	2955.2582	2753.6	1869.45
1022.5728	2956.3462	2726.95	1843.35
1022.6865	2957.4335	2669.25	1785.25
1022.8002	2958.5202	2637.15	1752.65
1022.9138	2959.6062	2598.75	1714.75
1023.0274	2960.6916	2579.15	1696.55
1023.141	2961.7764	2566.7	1682.2
1023.2545	2962.8605	2557.3	1673.9
1023.3679	2963.9439	2529.4	1645.75
1023.4813	2965.0267	2527.3	1642.55
1023.5947	2966.1089	2528	1621.05
1023.708	2967.1905	2502.8	1620.15
1023.8213	2968.2714	2501.35	1619.25
1023.9346	2969.3516	2486.45	1600.75
1024.0478	2970.4312	2489.55	1599.55
1024.1609	2971.5102	2485.15	1600.35
1024.274	2972.5885	2478.6	1595.35
1024.3871	2973.6662	2474.75	1585.3
1024.5002	2974.7432	2470.05	1587.8
1024.6132	2975.8196	2462.2	1578
1024.7261	2976.8954	2460	1577.25
1024.839	2977.9705	2445.75	1563.35
1024.9519	2979.045	2428.4	1545.95
1025.0647	2980.1188	2403.3	1518.9
1025.1775	2981.192	2384.8	1501.9
1025.2902	2982.2645	2363.5	1478.05
1025.4029	2983.3364	2330.7	1448.4
1025.5156	2984.4077	2299.65	1417.1
1025.6282	2985.4783	2289.25	1400.45
1025.7407	2986.5483	2244.05	1360.85
1025.8532	2987.6177	2204.75	1322.55
1025.9657	2988.6864	2173.45	1289.9
1026.0782	2989.7545	2149.8	1264.6
1026.1906	2990.8219	2107.65	1221.7
1026.3029	2991.8887	2083.85	1199.3
1026.4152	2992.9548	2043.2	1159.4
1026.5275	2994.0204	2018.1	1134.2
1026.6397	2995.0852	1990.7	1107.9
1026.7519	2996.1495	1958	1071.5
1026.864	2997.2131	1929.2	1045.75
1026.9761	2998.276	1911.55	1027.85
1027.0882	2999.3383	1887.1	1001.8
1027.2002	3000.4	1872.2	989.25
1027.3122	3001.4611	1859.85	975.95
1027.4241	3002.5215	1831.05	947.1
1027.536	3003.5812	1822.75	938.65
1027.6478	3004.6404	1812.25	929.95
1027.7596	3005.6989	1807.6	924.85
1027.8714	3006.7567	1795.3	910.85
1027.9831	3007.8139	1799.5	894.35
1028.0947	3008.8705	1774.6	890.7
1028.2064	3009.9264	1781.6	881.85
1028.3179	3010.9818	1763.55	880
1028.4295	3012.0364	1768.45	884.4
1028.541	3013.0905	1745.8	862.8
1028.6524	3014.1439	1748.05	866
1028.7638	3015.1966	1743	859.6
1028.8752	3016.2487	1735.65	853.2
1028.9865	3017.3002	1751.05	861
1029.0978	3018.3511	1740.9	858.95
1029.209	3019.4013	1737.2	854.9
1029.3202	3020.4509	1736.95	853.85
1029.4314	3021.4998	1739.3	856.45
1029.5425	3022.5481	1737.4	851.05
1029.6535	3023.5958	1733.2	850
1029.7645	3024.6428	1725.6	842.35
1029.8755	3025.6892	1734.05	851.5
1029.9864	3026.735	1729.1	845.4
1030.0973	3027.7802	1723.2	840.25
1030.2082	3028.8247	1738.3	855.9
1030.319	3029.8685	1730.8	847.75
1030.4297	3030.9118	1739.25	855.55
1030.5404	3031.9544	1737.05	855.85
1030.6511	3032.9963	1737.7	854.7
1030.7617	3034.0376	1740.5	857.6
1030.8723	3035.0783	1743.25	856.25
1030.9829	3036.1184	1749.5	863.85
1031.0934	3037.1578	1755.65	875.45
1031.2038	3038.1966	1749.1	865.6
1031.3142	3039.2348	1740.2	858.35
1031.4246	3040.2723	1751.15	861.1
1031.5349	3041.3092	1744.1	863.65
1031.6452	3042.3455	1742.4	860.4
1031.7554	3043.3811	1731.05	846
1031.8656	3044.4161	1727.3	844.1
1031.9758	3045.4505	1721.75	841.05
1032.0859	3046.4842	1715.35	830.55
1032.1959	3047.5173	1706	822.85
1032.3059	3048.5498	1692.1	810.55
1032.4159	3049.5816	1687.85	803.9
1032.5258	3050.6128	1688.1	804.75
1032.6357	3051.6434	1675.9	793.55
1032.7455	3052.6734	1668.25	783.05
1032.8553	3053.7027	1655.6	774.05
1032.9651	3054.7314	1649.15	768.15
1033.0748	3055.7594	1644.9	765.15
1033.1845	3056.7868	1636.25	753.55
1033.2941	3057.8136	1635.5	753
1033.4037	3058.8398	1623.3	742.65
1033.5132	3059.8653	1612.45	727.4
1033.6227	3060.8902	1606.8	725.75
1033.7321	3061.9145	1608.15	724.95
1033.8415	3062.9381	1606.6	724.4
1033.9509	3063.9612	1605.1	708.05
1034.0602	3064.9835	1589.5	706.55
1034.1694	3066.0053	1579.4	695.25
1034.2787	3067.0264	1565.9	684.7
1034.3878	3068.0469	1562.15	678.4
1034.497	3069.0668	1553.55	668.85
1034.6061	3070.086	1545.55	663.6
1034.7151	3071.1046	1538.6	655.2
1034.8241	3072.1226	1530.15	646.5
1034.9331	3073.1399	1521	639.2
1035.042	3074.1567	1498.3	614.75
1035.1508	3075.1727	1501.8	615.8
1035.2597	3076.1882	1482.1	601.1
1035.3684	3077.203	1464.8	581.5
1035.4772	3078.2173	1472.25	588.15
1035.5859	3079.2308	1458	571.7
1035.6945	3080.2438	1457.05	571.45
1035.8031	3081.2561	1436.25	554.95
1035.9117	3082.2678	1425.85	544.65
1036.0202	3083.2789	1421.45	539.55
1036.1286	3084.2893	1413.9	532.3
1036.2371	3085.2991	1405.65	523.3
1036.3454	3086.3083	1408.2	521.15
1036.4538	3087.3169	1403.6	519.4
1036.562	3088.3248	1395.65	510.8
1036.6703	3089.3321	1388	504.35
1036.7785	3090.3388	1375.45	494
1036.8866	3091.3449	1377.75	497.6
1036.9948	3092.3503	1371.7	485.55
1037.1028	3093.3551	1370.65	490.55
1037.2108	3094.3593	1357.6	477.2
1037.3188	3095.3629	1357.6	477.8
1037.4267	3096.3658	1348.6	464.6
1037.5346	3097.3681	1346.05	463.6
1037.6425	3098.3698	1344.45	459.8
1037.7503	3099.3708	1340.35	453.75
1037.858	3100.3713	1334	453.1
1037.9657	3101.3711	1336.75	453.55
1038.0734	3102.3702	1453.3	432.6
1038.181	3103.3688	1327.6	441.7
1038.2886	3104.3667	1325.25	444.5
1038.3961	3105.364	1314.55	434.85
1038.5036	3106.3607	1318.9	435.4
1038.611	3107.3568	1306.6	426
1038.7184	3108.3522	1309.75	429.1
1038.8257	3109.347	1307.75	423.2
1038.933	3110.3412	1304	417.05
1039.0403	3111.3348	1298.85	417.1
1039.1475	3112.3277	1297.15	416.7
1039.2547	3113.32	1293.7	412.6
1039.3618	3114.3117	1293.7	411.65
1039.4689	3115.3028	1285.35	403.25
1039.5759	3116.2932	1285.8	402.15
1039.6829	3117.2831	1284.95	398.15
1039.7898	3118.2723	1283.2	402.6
1039.8967	3119.2608	1277.5	397.25
1040.0035	3120.2488	1278.75	398.55
1040.1103	3121.2361	1274.95	392.55
1040.2171	3122.2229	1267.4	384.7
1040.3238	3123.209	1272.8	391
1040.4305	3124.1944	1264.25	383.6
1040.5371	3125.1793	1265.7	382.75
1040.6437	3126.1635	1258.85	377.3
1040.7502	3127.1471	1263.05	382.8
1040.8567	3128.1301	1253.5	371.55
1040.9631	3129.1125	1252.1	371.2
1041.0695	3130.0942	1251.35	370
1041.1759	3131.0753	1261.7	373.9
1041.2822	3132.0558	1250.55	366.95
1041.3884	3133.0357	1238.85	354.25
1041.4946	3134.015	1240.65	357.95
1041.6008	3134.9936	1244.4	361.85
1041.7069	3135.9716	1263.1	360.8
1041.813	3136.949	1242.85	363.45
1041.919	3137.9258	1256.4	355.9
1042.025	3138.902	1239.35	352.2
1042.1309	3139.8775	1235.15	354.9
1042.2368	3140.8524	1227.6	345.4
1042.3427	3141.8267	1231.15	347.3
1042.4485	3142.8004	1226.25	344.45
1042.5542	3143.7735	1234.55	346
1042.6599	3144.7459	1225.9	343.25
1042.7656	3145.7178	1220.75	337.35
1042.8712	3146.689	1215.55	335.75
1042.9768	3147.6596	1216.8	333.75
1043.0823	3148.6295	1221.25	341.4
1043.1878	3149.5989	1207.25	326.7
1043.2932	3150.5676	1209.6	329.9
1043.3986	3151.5357	1208	328.45
1043.5039	3152.5032	1209.55	315
1043.6092	3153.4701	1202.9	317.7
1043.7145	3154.4364	1201.15	318.45
1043.8197	3155.402	1199.1	320.6
1043.9248	3156.367	1200.5	317.7
1044.03	3157.3315	1235.7	310.2
1044.135	3158.2952	1190	308.5
1044.24	3159.2584	1185.6	304.25
1044.345	3160.221	1188.7	306.3
1044.4499	3161.1829	1188.75	307.5
1044.5548	3162.1442	1182.15	301.75
1044.6596	3163.105	1185.75	304.9
1044.7644	3164.065	1182.55	302.2
1044.8692	3165.0245	1182.55	297.7
1044.9739	3165.9834	1174.25	293.55
1045.0785	3166.9416	1173.8	294.8
1045.1831	3167.8993	1178.95	296.55
1045.2877	3168.8563	1170.95	291.2
1045.3922	3169.8127	1167.05	285.15
1045.4966	3170.7684	1170.85	289.8
1045.6011	3171.7236	1169	287.2
1045.7054	3172.6782	1170.6	289
1045.8098	3173.6321	1166.5	285.3
1045.914	3174.5854	1169.75	283.75
1046.0183	3175.5381	1164.9	283.05
1046.1224	3176.4902	1156.65	279.35
1046.2266	3177.4417	1156.75	275.85
1046.3307	3178.3926	1156.2	277.95
1046.4347	3179.3428	1153.95	273.6
1046.5387	3180.2924	1152.45	273.4
1046.6427	3181.2415	1153.9	272.6
1046.7466	3182.1899	1155.75	272.05
1046.8504	3183.1377	1150.95	270.7
1046.9542	3184.0848	1154.55	269.35
1047.058	3185.0314	1150	268.5
1047.1617	3185.9773	1142.45	261.45
1047.2654	3186.9227	1143.4	260.15
1047.369	3187.8674	1140.2	260.65
1047.4726	3188.8115	1148.15	262.85
1047.5761	3189.755	1136.8	255
1047.6796	3190.6979	1137.7	256.8
1047.783	3191.6402	1135.7	257.35
1047.8864	3192.5818	1134.35	255.25
1047.9898	3193.5229	1133.15	249.45
1048.0931	3194.4633	1130.7	248.45
1048.1963	3195.4031	1127.4	246.7
1048.2995	3196.3423	1126.1	244.9
1048.4027	3197.2809	1127	246.05
1048.5058	3198.2189	1125.6	244.85
1048.6089	3199.1563	1139.4	251.85
1048.7119	3200.0931	1121.85	242.4
1048.8148	3201.0292	1118.75	237.05
1048.9178	3201.9648	1119.55	240.5
1049.0206	3202.8997	1121.45	239.25
1049.1235	3203.834	1119.2	235.8
1049.2262	3204.7677	1117.3	236.7
1049.329	3205.7008	1118.95	237.15
1049.4317	3206.6333	1113.25	233.7
1049.5343	3207.5652	1121.45	241.35
1049.6369	3208.4964	1115.15	234.4
1049.7394	3209.4271	1108.45	228.35
1049.8419	3210.3571	1109.45	227.45
1049.9444	3211.2865	1105.85	224.4
1050.0468	3212.2154	1106.55	227.6
1050.1491	3213.1436	1108.45	224.4
1050.2514	3214.0712	1113.65	226.8
1050.3537	3214.9982	1101.35	222.65
1050.4559	3215.9246	1102.4	219.7
1050.5581	3216.8503	1097.6	220.3
1050.6602	3217.7755	1097.7	215.45
1050.7623	3218.7001	1100.75	221.2
1050.8643	3219.624	1096.4	215.5
1050.9663	3220.5473	1102.05	220.35
1051.0682	3221.4701	1095.25	215.3
1051.1701	3222.3922	1097.1	215
1051.2719	3223.3137	1095.2	214.45
1051.3737	3224.2346	1096.65	215.05
1051.4754	3225.1549	1090.95	211.75
1051.5771	3226.0746	1090	212.6
1051.6788	3226.9937	1089.6	206.25
1051.7804	3227.9121	1081	201.1
1051.8819	3228.83	1084.2	206.45
1051.9834	3229.7473	1086.4	203.45
1052.0849	3230.6639	1087.8	207.55
1052.1863	3231.5799	1080.3	199.2
1052.2876	3232.4954	1081.5	198.95
1052.3889	3233.4102	1080.8	200.65
1052.4902	3234.3244	1079.05	196.1
1052.5914	3235.238	1077.9	197.1
1052.6926	3236.151	1104.15	199.4
1052.7937	3237.0634	1072.65	194.3
1052.8948	3237.9752	1074.85	195.2
1052.9958	3238.8864	1073.7	193.15
1053.0968	3239.797	1074.35	194.55
1053.1977	3240.7069	1076.1	195
1053.2986	3241.6163	1071.1	188.2
1053.3994	3242.5251	1070.6	191.5
1053.5002	3243.4332	1072.8	192.45
1053.6009	3244.3408	1067.15	188.35
1053.7016	3245.2477	1065.2	185.9
1053.8022	3246.154	1071.15	188.75
1053.9028	3247.0598	1061	180.5
1054.0034	3247.9649	1061.85	181.55
1054.1039	3248.8694	1067	187.2
1054.2043	3249.7733	1056.95	175.75
1054.3047	3250.6766	1065.25	185.85
1054.4051	3251.5793	1060.7	181.8
1054.5054	3252.4814	1056.65	175.7
1054.6056	3253.3829	1057.35	178.75
1054.7058	3254.2838	1054.15	174.8
1054.806	3255.1841	1048.45	169.2
1054.9061	3256.0838	1051.65	171.65
1055.0061	3256.9829	1048.5	169.25
1055.1062	3257.8814	1047.7	165.65
1055.2061	3258.7792	1045.65	164.45
1055.306	3259.6765	1047.35	167.4
1055.4059	3260.5731	1044.4	165.85
1055.5057	3261.4692	1043.8	162.35
1055.6055	3262.3647	1042	161
1055.7052	3263.2595	1035.8	157.7
1055.8049	3264.1538	1032.8	152.45
1055.9045	3265.0474	1035.45	157.35
1056.0041	3265.9404	1031.15	151.45
1056.1036	3266.8329	1025.4	147.05
1056.2031	3267.7247	1034.35	143.95
1056.3025	3268.616	1021.35	143.25
1056.4019	3269.5066	1016.5	137.8
1056.5013	3270.3966	1018.4	137.65
1056.6005	3271.286	1007.95	127.4
