Software Version:	3.9.2.0
Unit SN:	10000200
Spectrometer SN:	6960
Date:	3/26/2024 2:53:50 PM
Data Line Index:	25
Spectral Points:	2048
Integration time (ms):	125
Averages:	20
Delay (ms):	30000
Sequence Number:	1
Processing:	dark subtract
Laser Power (mW):	305
Laser Current (mA):	820
Laser Diode Temp (C):	25
Laser Case Temp (C):	28
System Temp (C):	28.1
Spectrometer Temp (C):	25.9
CCD Temp (C):	0
Secondary Temp (C):	20.01
Heatsink Temp (C):	23.672
CCDPCB Temp (C):	37.341
SecondaryPCB Temp (C):	34.584

Wavelength	RamanShift	Raw Counts	Dark Subtracted
787.061	30.1047	615.35	206.25
787.2016	32.3739	622.6	215.15
787.3422	34.6426	635.6	224.85
787.4828	36.9109	650.85	238.6
787.6235	39.1787	670.25	256
787.7642	41.4461	693	272.5
787.9049	43.7131	717.65	293.7
788.0456	45.9796	736.05	308.9
788.1863	48.2456	763	332.1
788.3271	50.5112	779.7	343.95
788.4679	52.7764	812.6	375.6
788.6087	55.0411	831.5	391.5
788.7496	57.3054	859.45	413.35
788.8904	59.5692	893.2	443.3
789.0313	61.8326	928.1	474.85
789.1722	64.0955	965.95	508.65
789.3132	66.3579	1000.65	539.85
789.4541	68.6199	1056.85	591.9
789.5951	70.8815	1147.9	680.65
789.7361	73.1426	1327.45	854.55
789.8771	75.4032	1786.2	1309.35
790.0181	77.6634	2933.1	2448.7
790.1592	79.9231	5767.55	5275.55
790.3003	82.1824	12318.9	11810.3
790.4414	84.4412	25933.65	25395.85
790.5825	86.6995	51388.75	50812.35
790.7237	88.9574	64405.75	63792.7
790.8648	91.2148	65535	64891.1
791.006	93.4717	65535	64873.3
791.1472	95.7282	65535	64863.85
791.2885	97.9842	65535	64858.9
791.4297	100.2398	65535	64855.05
791.571	102.4949	65535	64855.85
791.7123	104.7495	65535	64851.6
791.8536	107.0036	65535	64852.15
791.9949	109.2573	65535	64851.15
792.1363	111.5105	65535	64845.7
792.2777	113.7632	65535	64846.5
792.4191	116.0154	65535	64839.05
792.5605	118.2672	65535	64845.7
792.7019	120.5185	65535	64843.6
792.8434	122.7693	65535	64843.3
792.9849	125.0197	65535	64836.5
793.1264	127.2696	65535	64836
793.2679	129.519	65535	64833.4
793.4094	131.7679	65535	64827
793.551	134.0163	65535	64825.3
793.6926	136.2642	65535	64820.5
793.8342	138.5117	65535	64808.1
793.9758	140.7587	65535	64814.85
794.1175	143.0052	65535	64814.35
794.2591	145.2512	65535	64811.3
794.4008	147.4967	65535	64814.15
794.5425	149.7417	65535	64809.45
794.6842	151.9863	65535	64805.5
794.826	154.2304	65535	64803.25
794.9677	156.4739	65535	64800.45
795.1095	158.717	65535	64798.15
795.2513	160.9596	65535	64791.6
795.3931	163.2017	65535	64791.6
795.535	165.4433	65535	64786.35
795.6768	167.6844	65535	64788.8
795.8187	169.925	65535	64787.2
795.9606	172.1651	65535	64787.45
796.1025	174.4047	65535	64786.45
796.2445	176.6439	65535	64781.35
796.3864	178.8825	65535	64779.4
796.5284	181.1206	65535	64773.2
796.6704	183.3582	65535	64768.65
796.8124	185.5954	65535	64769.6
796.9544	187.832	65535	64762.6
797.0965	190.0681	65535	64758.6
797.2386	192.3037	65535	64756.3
797.3806	194.5388	65535	64752.9
797.5228	196.7734	65535	64752.3
797.6649	199.0075	65535	64744.55
797.807	201.2411	65535	64745.45
797.9492	203.4742	65535	64748.3
798.0914	205.7068	65535	64742.15
798.2336	207.9389	65535	64742.75
798.3758	210.1704	65535	64740.85
798.518	212.4015	65535	64736.6
798.6603	214.632	65535	64739.35
798.8025	216.862	65535	64750.4
798.9448	219.0915	65535	64757.2
799.0871	221.3205	65535	64755
799.2294	223.549	65535	64761.9
799.3718	225.777	65535	64760.3
799.5141	228.0044	65535	64762.6
799.6565	230.2314	65535	64760.35
799.7989	232.4578	65535	64762.2
799.9413	234.6837	65535	64752.65
800.0837	236.909	65535	64750.7
800.2262	239.1339	65535	64726.15
800.3687	241.3582	65535	64734.75
800.5111	243.582	65535	64704.5
800.6536	245.8053	65535	64720.05
800.7961	248.0281	65535	64723.5
800.9387	250.2503	65535	64723.35
801.0812	252.472	65535	64718.95
801.2238	254.6932	65535	64714.45
801.3664	256.9139	65535	64718.35
801.509	259.134	65535	64712.45
801.6516	261.3536	65535	64711.4
801.7942	263.5727	65535	64711.5
801.9369	265.7912	65535	64712.2
802.0795	268.0092	65535	64710.65
802.2222	270.2267	65535	64707.3
802.3649	272.4436	65535	64710.4
802.5076	274.6601	65535	64702.6
802.6504	276.8759	65535	64707.35
802.7931	279.0913	65535	64706.25
802.9359	281.3061	65535	64705.25
803.0787	283.5204	65535	64696.85
803.2215	285.7341	65535	64695.25
803.3643	287.9473	65535	64687.6
803.5071	290.16	65535	64691.15
803.6499	292.3721	65535	64695.95
803.7928	294.5837	65535	64694.3
803.9357	296.7947	65535	64691
804.0786	299.0052	65535	64695.05
804.2215	301.2152	65535	64698.35
804.3644	303.4246	65535	64699.15
804.5074	305.6334	65535	64698.3
804.6503	307.8418	65535	64696.95
804.7933	310.0495	65535	64693
804.9363	312.2568	65535	64691.6
805.0793	314.4635	65535	64693.95
805.2223	316.6696	65535	64691.65
805.3653	318.8752	65535	64680.55
805.5084	321.0802	65535	64685.55
805.6514	323.2847	65535	64687.5
805.7945	325.4887	65535	64685.25
805.9376	327.692	65535	64683.95
806.0807	329.8949	65535	64683.7
806.2238	332.0972	65535	64684.1
806.367	334.2989	65535	64673.8
806.5101	336.5001	65535	64677.3
806.6533	338.7007	65535	64681.6
806.7965	340.9008	65535	64676.6
806.9397	343.1003	65535	64674.6
807.0829	345.2992	65535	64673.9
807.2261	347.4976	65535	64671.6
807.3693	349.6955	65535	64671.95
807.5126	351.8927	65535	64671.35
807.6559	354.0895	65535	64655.25
807.7991	356.2856	65535	64669.55
807.9424	358.4812	65535	64668.35
808.0857	360.6763	65535	64663.45
808.2291	362.8707	65535	64662.7
808.3724	365.0646	65535	64665
808.5158	367.258	65535	64665.6
808.6591	369.4508	65535	64659.85
808.8025	371.643	65535	64660.45
808.9459	373.8346	65535	64653.65
809.0893	376.0257	65535	64653.25
809.2327	378.2162	65535	64655.55
809.3762	380.4062	65535	64652.95
809.5196	382.5956	65535	64656.7
809.6631	384.7844	65535	64658.45
809.8066	386.9726	65535	64656
809.9501	389.1603	65535	64657.5
810.0936	391.3474	65535	64614
810.2371	393.5339	65535	64651.8
810.3806	395.7199	65535	64663.2
810.5241	397.9052	65535	64656.9
810.6677	400.09	65535	64661.9
810.8113	402.2743	65535	64661.3
810.9548	404.4579	65535	64664.1
811.0984	406.641	65535	64663.3
811.2421	408.8235	65535	64661.6
811.3857	411.0054	65535	64658.5
811.5293	413.1868	65535	64655.6
811.673	415.3675	65535	64657.8
811.8166	417.5477	65535	64653.05
811.9603	419.7273	65535	64656.15
812.104	421.9064	65535	64646.8
812.2477	424.0848	65535	64651
812.3914	426.2627	65535	64650.35
812.5351	428.4399	65535	64648.05
812.6788	430.6166	65535	64645.3
812.8226	432.7928	65535	64647.5
812.9663	434.9683	65535	64647.35
813.1101	437.1432	65535	64647.4
813.2539	439.3176	65535	64650.05
813.3977	441.4914	65535	64655.65
813.5415	443.6645	65535	64647.35
813.6853	445.8371	65535	64643.9
813.8291	448.0091	65535	64646.6
813.973	450.1806	65535	64649.4
814.1168	452.3514	65535	64646.5
814.2607	454.5216	65535	64638.85
814.4046	456.6913	65535	64642.4
814.5485	458.8603	65535	64648.6
814.6924	461.0288	65535	64645.85
814.8363	463.1967	65535	64650.25
814.9802	465.3639	65535	64648.65
815.1241	467.5306	65535	64644.7
815.2681	469.6967	65535	64648.85
815.412	471.8622	65535	64652.8
815.556	474.0271	65535	64647.95
815.7	476.1914	65535	64643.7
815.844	478.3551	65535	64643.9
815.988	480.5182	65535	64645.3
816.132	482.6807	65535	64650.2
816.276	484.8426	65535	64651.4
816.4201	487.0039	65535	64649.5
816.5641	489.1647	65535	64640.6
816.7082	491.3248	65535	64645.45
816.8522	493.4843	65535	64647.95
816.9963	495.6432	65535	64646.3
817.1404	497.8015	65535	64637.45
817.2845	499.9592	65535	64636.75
817.4286	502.1163	65535	64633.25
817.5727	504.2728	65535	64640.85
817.7168	506.4287	65535	64650.1
817.861	508.5839	65535	64649.15
818.0051	510.7386	65535	64641.3
818.1493	512.8927	65535	64631.95
818.2935	515.0461	65535	64638.2
818.4377	517.199	65535	64637.25
818.5818	519.3512	65535	64631.35
818.726	521.5029	65535	64632.05
818.8703	523.6539	65535	64634.95
819.0145	525.8043	65532.75	64632.6
819.1587	527.9541	65535	64634.15
819.303	530.1033	65535	64633.45
819.4472	532.2519	65535	64630.85
819.5915	534.3999	65535	64632.7
819.7357	536.5472	65535	64634.7
819.88	538.694	65535	64636.65
820.0243	540.8401	65535	64634.15
820.1686	542.9856	65535	64626
820.3129	545.1305	65535	64621.3
820.4572	547.2748	65535	64620.2
820.6016	549.4185	65535	64613.3
820.7459	551.5615	65535	64621.3
820.8902	553.704	65535	64622.95
821.0346	555.8458	65535	64623.35
821.1789	557.987	65535	64627.2
821.3233	560.1276	65535	64623.1
821.4677	562.2675	65535	64621.75
821.6121	564.4069	65535	64623.85
821.7565	566.5456	65535	64630.35
821.9009	568.6837	65530.15	64621.35
822.0453	570.8212	65535	64629.9
822.1897	572.958	65517.45	64608.9
822.3342	575.0942	65532.3	64627.85
822.4786	577.2299	65524.85	64623.25
822.6231	579.3648	65525.5	64630.95
822.7675	581.4992	65524.2	64636.95
822.912	583.6329	65524.5	64636.9
823.0565	585.766	65526.1	64634.85
823.201	587.8985	65530	64636.1
823.3454	590.0304	65509.15	64597.9
823.4899	592.1616	65525.7	64615.95
823.6345	594.2922	65518.55	64606.5
823.779	596.4222	65450.9	64536.65
823.9235	598.5515	65479.4	64564.65
824.068	600.6802	65518.75	64603.65
824.2126	602.8083	65432.5	64524.05
824.3571	604.9358	65415.4	64502.45
824.5017	607.0626	65491.95	64579.55
824.6462	609.1888	65286.05	64365.6
824.7908	611.3144	65421.65	64501.2
824.9354	613.4393	65349.25	64431.55
825.08	615.5636	65140	64220.75
825.2246	617.6873	65322.15	64406.15
825.3692	619.8103	65052.65	64134.65
825.5138	621.9327	65323	64408.05
825.6584	624.0544	65323.7	64414.75
825.803	626.1756	65242.75	64331.6
825.9477	628.2961	65228.35	64313.5
826.0923	630.4159	65132	64217.3
826.237	632.5351	65019.85	64104.8
826.3816	634.6537	65385.95	64464.15
826.5263	636.7716	64953.05	64032.3
826.6709	638.8889	65093.55	64169.15
826.8156	641.0056	65054.1	64131.55
826.9603	643.1216	65107	64189.1
827.105	645.237	65183.8	64261.05
827.2497	647.3518	64942.1	64026.65
827.3944	649.4659	65051.8	64139.05
827.5391	651.5793	65062.25	64153.8
827.6838	653.6922	65138.6	64225
827.8285	655.8043	64699.15	63783.45
827.9733	657.9159	65167.7	64251.2
828.118	660.0268	64202.9	63286
828.2627	662.137	64864.5	63946.8
828.4075	664.2466	64884.35	63960.85
828.5522	666.3556	64640.75	63718.3
828.697	668.4639	64862.85	63943.9
828.8418	670.5716	64543.95	63630.1
828.9865	672.6786	64785.25	63862.6
829.1313	674.785	64522.2	63597.4
829.2761	676.8907	64590.05	63668.45
829.4209	678.9958	64771.6	63854.1
829.5657	681.1002	64780.85	63864.75
829.7105	683.204	64443.9	63515.35
829.8553	685.3072	64198.9	63275.15
830.0001	687.4097	64399.95	63477.4
830.1449	689.5115	64115.85	63193.1
830.2898	691.6127	64476	63555.8
830.4346	693.7132	64070.55	63149.2
830.5794	695.8131	64079.9	63139.05
830.7243	697.9123	64171.15	63244.05
830.8691	700.0109	64198.15	63272
831.014	702.1089	63513.3	62592.35
831.1588	704.2061	63718.6	62790.1
831.3037	706.3028	63785.5	62858.6
831.4486	708.3987	63887.8	62962.85
831.5935	710.4941	63598.4	62674.3
831.7383	712.5887	64111.15	63186.3
831.8832	714.6827	63873.9	62950.35
832.0281	716.7761	64343.9	63425.4
832.173	718.8688	64529.65	63606.45
832.3179	720.9608	64212.45	63282.4
832.4628	723.0522	64178.4	63242.85
832.6077	725.1429	63651.6	62724.15
832.7527	727.233	64461.2	63534.35
832.8976	729.3224	62317.4	61389.8
833.0425	731.4112	63035.3	62106.7
833.1874	733.4993	62975	62045.4
833.3324	735.5867	62972.6	62045.65
833.4773	737.6735	62385.6	61456
833.6222	739.7596	61861.7	60932.1
833.7672	741.845	61775.1	60848.65
833.9122	743.9298	62629.35	61697.3
834.0571	746.014	61770.75	60844.95
834.2021	748.0974	61201.35	60267.25
834.347	750.1802	62310.8	61380.45
834.492	752.2624	60916.55	59985
834.637	754.3439	61116.5	60186.2
834.782	756.4247	61450.15	60509.8
834.9269	758.5048	60884.6	59952.65
835.0719	760.5843	61138.2	60207.2
835.2169	762.6631	61525.05	60595.1
835.3619	764.7413	61409.5	60482.85
835.5069	766.8188	61787.6	60856.8
835.6519	768.8956	62435.6	61500.15
835.7969	770.9718	62351.95	61420
835.9419	773.0473	61989.35	61055.1
836.0869	775.1221	61125.95	60195.9
836.232	777.1962	60930.7	59999.1
836.377	779.2697	60096.65	59161.45
836.522	781.3426	60601	59660
836.667	783.4147	60964.75	60031.6
836.8121	785.4862	60925.9	59993.2
836.9571	787.557	60363.95	59429.55
837.1021	789.6271	60811.05	59876.6
837.2472	791.6966	59877.15	58944.6
837.3922	793.7654	59020	58085.8
837.5373	795.8335	58791.95	57860.95
837.6823	797.901	58853.2	57921.5
837.8274	799.9678	58477.3	57540.05
837.9724	802.0339	58431	57497.4
838.1175	804.0993	58495	57547.8
838.2626	806.1641	58269.5	57338.3
838.4076	808.2282	58017.3	57088.15
838.5527	810.2916	57805.35	56867.2
838.6978	812.3544	57984.2	57055.3
838.8428	814.4164	57285.45	56353.15
838.9879	816.4778	57485.55	56552
839.133	818.5385	57375	56438.85
839.2781	820.5986	57262.5	56325.45
839.4232	822.658	57280.35	56342.9
839.5682	824.7166	57209.75	56274.85
839.7133	826.7747	56722.85	55789.5
839.8584	828.832	57005.7	56071.1
840.0035	830.8886	57230.7	56293.25
840.1486	832.9446	57268.05	56332.1
840.2937	834.9999	56464.75	55529.75
840.4388	837.0545	56951.85	56013
840.5839	839.1085	57115.7	56179.05
840.729	841.1618	57027.25	56086.4
840.8741	843.2143	56389.95	55454.15
841.0192	845.2662	56233.9	55298.25
841.1643	847.3175	56389.05	55451.95
841.3095	849.368	55651.65	54716.05
841.4546	851.4179	55905.95	54972.25
841.5997	853.467	55372.45	54437.65
841.7448	855.5155	55419.4	54483.55
841.8899	857.5633	54913.35	53975.25
842.0351	859.6105	54526.75	53590.4
842.1802	861.6569	54692	53755.5
842.3253	863.7027	54144.7	53206.45
842.4704	865.7478	54297.4	53358.65
842.6156	867.7922	54184.25	53245.95
842.7607	869.8359	54342.2	53403.45
842.9058	871.8789	53920.55	52981.45
843.0509	873.9212	54264.45	53295.8
843.1961	875.9629	54266.35	53329.5
843.3412	878.0039	54309.95	53374.75
843.4863	880.0441	54245.85	53312.55
843.6315	882.0837	54131.7	53193.5
843.7766	884.1226	53895	52957.8
843.9218	886.1609	53704.15	52765.1
844.0669	888.1984	53367.55	52429.65
844.212	890.2352	53471.9	52535.1
844.3572	892.2714	52932.9	51991.1
844.5023	894.3069	52994.95	52056.35
844.6475	896.3416	52742.25	51804.4
844.7926	898.3757	52648.4	51709.5
844.9377	900.4091	52280.2	51342.55
845.0829	902.4418	52555.25	51610.1
845.228	904.4739	52210.35	51268.6
845.3732	906.5052	52177.9	51236.8
845.5183	908.5358	51881.95	50944.8
845.6635	910.5658	51539.95	50600.05
845.8086	912.595	51315.85	50378.25
845.9538	914.6236	50910	49971.9
846.0989	916.6515	51259.4	50317.75
846.2441	918.6786	50644.1	49703.95
846.3892	920.7051	50795.9	49853.6
846.5344	922.7309	50851.7	49910.5
846.6795	924.756	50754.15	49816.45
846.8246	926.7804	50631.45	49692.7
846.9698	928.8041	50174.7	49235.3
847.1149	930.8272	50315.1	49374.45
847.2601	932.8495	50046.3	49104.9
847.4052	934.8711	49759.1	48820.45
847.5504	936.892	49432.9	48493.9
847.6955	938.9123	49089.5	48146.95
847.8407	940.9318	48778.35	47841.1
847.9858	942.9506	48568.55	47630.25
848.131	944.9688	48389.1	47445.25
848.2761	946.9862	48013.95	47072.9
848.4213	949.003	47895.8	46953.75
848.5664	951.019	47675.35	46737.6
848.7115	953.0344	47668.2	46728.55
848.8567	955.0491	47585.75	46645
849.0018	957.063	47628.5	46688.75
849.147	959.0763	47705.2	46761.95
849.2921	961.0888	47484.05	46545.1
849.4373	963.1007	47602.9	46666.55
849.5824	965.1119	47487.2	46551.6
849.7275	967.1223	47400.2	46469.7
849.8727	969.1321	47404.8	46475
850.0178	971.1412	47219.15	46285.4
850.1629	973.1495	47068.35	46131.75
850.3081	975.1572	47065.35	46094.05
850.4532	977.1641	46942.45	46005.65
850.5983	979.1704	46827.35	45886.7
850.7435	981.1759	46629.05	45682.05
850.8886	983.1808	46575.5	45635.5
851.0337	985.1849	46609.75	45661.3
851.1788	987.1884	46646.3	45702.15
851.324	989.1911	46776.8	45836.8
851.4691	991.1932	46753.95	45812
851.6142	993.1945	46670.6	45732.45
851.7593	995.1951	46406.5	45471.85
851.9045	997.1951	46279.6	45331.25
852.0496	999.1943	46065.7	45126.6
852.1947	1001.1928	45807.9	44867.7
852.3398	1003.1906	45529.15	44592.05
852.4849	1005.1877	45455.95	44516.4
852.63	1007.1841	45232.4	44296.95
852.7751	1009.1798	44969.95	44035.5
852.9202	1011.1748	44613.4	43675.55
853.0653	1013.1691	44297.75	43360.25
853.2104	1015.1627	43898.65	42962.1
853.3555	1017.1556	43390.15	42454.8
853.5006	1019.1477	43230.55	42293.1
853.6457	1021.1392	42929.5	41995.65
853.7908	1023.1299	42799.65	41868.45
853.9359	1025.12	42639.3	41712.7
854.081	1027.1093	42469.2	41549.7
854.2261	1029.0979	42437.45	41522.05
854.3712	1031.0859	42308.65	41388.75
854.5163	1033.0731	42166.6	41238.75
854.6613	1035.0596	41992.6	41062
854.8064	1037.0454	41575.35	40642.35
854.9515	1039.0304	41400.6	40467.9
855.0965	1041.0148	41030.6	40095.45
855.2416	1042.9985	40868	39931.6
855.3867	1044.9814	40773.65	39838.75
855.5317	1046.9636	40558.45	39618.6
855.6768	1048.9452	40386.4	39448.75
855.8219	1050.926	40334.15	39396.35
855.9669	1052.9061	40144.5	39209.9
856.112	1054.8855	40010.85	39077.95
856.257	1056.8642	39982.85	39049.6
856.4021	1058.8421	39949.1	39011.95
856.5471	1060.8194	39815.45	38880.9
856.6921	1062.7959	39709.05	38772.8
856.8372	1064.7717	39618.1	38678.95
856.9822	1066.7469	39553.1	38615.05
857.1272	1068.7213	39361.85	38424
857.2723	1070.695	39213.6	38277.75
857.4173	1072.6679	38982.5	38047.15
857.5623	1074.6402	38888.15	37952.75
857.7073	1076.6117	38806.25	37867.1
857.8523	1078.5826	38766.55	37831.55
857.9973	1080.5527	38614.2	37671.15
858.1423	1082.5221	38639.8	37703.6
858.2873	1084.4908	38805	37869.6
858.4323	1086.4587	38957.5	38020.2
858.5773	1088.426	39111.75	38174.25
858.7223	1090.3925	38855.4	37915.2
858.8673	1092.3584	38767.55	37831
859.0123	1094.3235	38367.95	37430.75
859.1573	1096.2879	38137	37201.85
859.3022	1098.2515	37989.55	37054.75
859.4472	1100.2145	37941.75	37007.9
859.5922	1102.1767	37856.45	36920.1
859.7371	1104.1382	37945.25	37010.9
859.8821	1106.099	38039.4	37101.15
860.027	1108.0591	38130.4	37197.85
860.172	1110.0185	38130.4	37194.4
860.3169	1111.9771	38132.3	37195.7
860.4619	1113.9351	37684.3	36751.9
860.6068	1115.8923	37217.8	36281.55
860.7517	1117.8488	36753.75	35817.35
860.8967	1119.8045	36278.1	35346
861.0416	1121.7596	36089.65	35156.85
861.1865	1123.7139	35879.95	34947.5
861.3314	1125.6675	35837	34900.95
861.4763	1127.6204	35863.25	34929.85
861.6212	1129.5726	35746.5	34811.1
861.7661	1131.524	35763.5	34826.2
861.911	1133.4748	35699.6	34763.3
862.0559	1135.4248	35610.35	34675.8
862.2008	1137.3741	35590.65	34658.5
862.3457	1139.3226	35517.85	34581.2
862.4905	1141.2705	35436.9	34501.05
862.6354	1143.2176	35132	34189.8
862.7803	1145.164	35102.4	34167.15
862.9251	1147.1097	35026.65	34089.8
863.07	1149.0546	35047.8	34112.8
863.2148	1150.9989	34865.95	33932.15
863.3597	1152.9424	34649.55	33714.25
863.5045	1154.8852	34405.25	33471
863.6493	1156.8272	34152.5	33221.15
863.7942	1158.7686	34020.25	33080.2
863.939	1160.7092	33825.1	32888.2
864.0838	1162.6491	33758.25	32825.7
864.2286	1164.5883	33727.05	32795.75
864.3734	1166.5267	33722.65	32788.6
864.5182	1168.4644	33758.3	32825.4
864.663	1170.4014	33829.95	32896.4
864.8078	1172.3377	34062.9	33131.85
864.9526	1174.2732	34183.4	33251.8
865.0974	1176.2081	34339	33409.5
865.2421	1178.1421	34434.65	33495.05
865.3869	1180.0755	34484.15	33551.05
865.5317	1182.0082	34326.15	33395.7
865.6764	1183.9401	34218.95	33287.25
865.8212	1185.8713	33907.7	32982.45
865.9659	1187.8017	33587.15	32660.7
866.1106	1189.7315	33291.4	32372.5
866.2554	1191.6605	32871.9	31953.65
866.4001	1193.5888	32530.95	31612
866.5448	1195.5163	32361.75	31436.55
866.6895	1197.4432	32174.85	31240.9
866.8342	1199.3693	32018.8	31089.85
866.9789	1201.2947	31825.2	30889.5
867.1236	1203.2193	31723.3	30791.3
867.2683	1205.1432	31685.6	30755.2
867.413	1207.0664	31641.2	30711.7
867.5576	1208.9889	31633.95	30700.65
867.7023	1210.9106	31570.3	30638.15
867.847	1212.8316	31542.25	30614.3
867.9916	1214.7519	31592.3	30653.55
868.1363	1216.6715	31441.5	30514.85
868.2809	1218.5903	31377.15	30448.75
868.4255	1220.5084	31182.8	30252.05
868.5701	1222.4257	31148.5	30217.25
868.7148	1224.3424	30860.8	29932.6
868.8594	1226.2583	30876.55	29943.55
869.004	1228.1735	30937.3	30003.5
869.1486	1230.0879	30869.85	29937
869.2932	1232.0016	30981.4	30052.6
869.4377	1233.9146	30897.7	29963.9
869.5823	1235.8269	30759.9	29829.4
869.7269	1237.7384	30537.5	29607.05
869.8715	1239.6492	30254.7	29325.3
870.016	1241.5592	30082.45	29151.55
870.1606	1243.4686	29856.45	28925
870.3051	1245.3772	29698.7	28769.05
870.4496	1247.285	29602	28671.5
870.5941	1249.1922	29431.75	28502
870.7387	1251.0986	29364.5	28436.1
870.8832	1253.0042	29264.7	28335.35
871.0277	1254.9092	29281	28349.9
871.1722	1256.8134	29305.05	28378.7
871.3167	1258.7169	29378	28446.65
871.4611	1260.6196	29445.8	28515.45
871.6056	1262.5216	29634.3	28700.9
871.7501	1264.4229	29694.45	28766.65
871.8945	1266.3234	29759.5	28830.2
872.039	1268.2232	29731.8	28801.9
872.1834	1270.1223	29594.75	28663.8
872.3278	1272.0207	29543.7	28613.2
872.4723	1273.9183	29442.1	28504.95
872.6167	1275.8151	29279.35	28350.7
872.7611	1277.7113	29142.05	28214.4
872.9055	1279.6067	28903.5	27976.4
873.0499	1281.5014	28660.9	27728.9
873.1943	1283.3953	28467.45	27537.5
873.3386	1285.2885	28337.05	27406.9
873.483	1287.181	28156.15	27226.4
873.6274	1289.0727	28159.7	27235.8
873.7717	1290.9637	28049.35	27122.35
873.9161	1292.854	28183.1	27257.1
874.0604	1294.7435	28252.45	27322.6
874.2047	1296.6323	28429.3	27501.35
874.349	1298.5204	28636.75	27706.15
874.4933	1300.4077	28830.15	27902.7
874.6376	1302.2943	28923.75	27997.95
874.7819	1304.1802	29035.2	28106.85
874.9262	1306.0653	28886.95	27955.8
875.0705	1307.9497	28718.7	27788.2
875.2147	1309.8333	28578.65	27651.45
875.359	1311.7162	28542.85	27616.3
875.5032	1313.5984	28607.55	27675.05
875.6475	1315.4798	28668.65	27728.7
875.7917	1317.3605	28769.85	27842.55
875.9359	1319.2405	28918.85	27994.05
876.0801	1321.1197	28885.45	27956.2
876.2243	1322.9982	28815	27884.6
876.3685	1324.876	28755.4	27829.25
876.5127	1326.753	28685.85	27758.45
876.6569	1328.6293	28718.4	27786.2
876.801	1330.5048	28694.5	27761.25
876.9452	1332.3796	28574.6	27649.6
877.0893	1334.2537	28518.75	27566.15
877.2335	1336.127	28405.85	27476.65
877.3776	1337.9996	28306.6	27379.4
877.5217	1339.8714	28175.6	27248.05
877.6658	1341.7426	28068.75	27096.3
877.8099	1343.6129	27955.35	27026.85
877.954	1345.4826	27846.9	26916.55
878.0981	1347.3515	27794.45	26863.3
878.2422	1349.2196	27589.25	26659.9
878.3862	1351.087	27576.15	26646.35
878.5303	1352.9537	27552.15	26624.05
878.6743	1354.8197	27674.75	26744.5
878.8184	1356.6849	27860.15	26934.85
878.9624	1358.5493	27825.8	26898.45
879.1064	1360.4131	27787.25	26861.1
879.2504	1362.276	27633.25	26705.2
879.3944	1364.1383	27328.65	26403
879.5384	1365.9998	27087.2	26156.6
879.6823	1367.8606	26730.85	25800.7
879.8263	1369.7206	26469.1	25543.45
879.9702	1371.5799	26213.15	25286.35
880.1142	1373.4384	26030.55	25102.95
880.2581	1375.2962	25883.35	24954.85
880.402	1377.1533	25542.9	24614.65
880.5459	1379.0096	25139.9	24213.75
880.6898	1380.8652	24854.5	23928.3
880.8337	1382.7201	24527.5	23602.9
880.9776	1384.5742	24279.65	23354.3
881.1215	1386.4275	24061.1	23133.65
881.2653	1388.2802	23860.3	22935.3
881.4092	1390.132	23680.9	22755.45
881.553	1391.9832	23618.3	22690.1
881.6968	1393.8336	23433.35	22506.6
881.8406	1395.6832	23344.65	22417.3
881.9844	1397.5322	23266.45	22340.55
882.1282	1399.3803	23152.45	22221
882.272	1401.2278	23005.5	22078.75
882.4158	1403.0745	22962.45	22037.75
882.5595	1404.9204	22873.45	21949.85
882.7033	1406.7656	22828.15	21902.3
882.847	1408.6101	22746.9	21818.6
882.9908	1410.4538	22670.6	21744
883.1345	1412.2968	22698.7	21772.25
883.2782	1414.139	22641.1	21715.65
883.4219	1415.9805	22684.8	21761.85
883.5656	1417.8213	22692.6	21746.05
883.7092	1419.6613	22717.6	21794.65
883.8529	1421.5006	22892.9	21970.7
883.9965	1423.3391	23105.65	22180.1
884.1402	1425.1769	23390.35	22463.9
884.2838	1427.0139	23864.65	22937.3
884.4274	1428.8502	24470.1	23542
884.571	1430.6858	25038.8	24114.85
884.7146	1432.5206	25339.15	24413.2
884.8582	1434.3547	25613.2	24689.15
885.0018	1436.188	25588.9	24662.65
885.1453	1438.0206	25487.9	24563.2
885.2889	1439.8524	25264.8	24342.75
885.4324	1441.6835	25116	24189.4
885.5759	1443.5139	25003.7	24075.4
885.7194	1445.3435	24909.85	23990
885.8629	1447.1724	24786.05	23861.95
886.0064	1449.0005	24680.95	23760.15
886.1499	1450.8279	24547.35	23626.55
886.2933	1452.6545	24495.95	23573
886.4368	1454.4804	24457.75	23536.9
886.5802	1456.3056	24428.9	23501.5
886.7237	1458.13	24288.25	23368.5
886.8671	1459.9536	24074.4	23151.75
887.0105	1461.7766	23647.15	22726.25
887.1539	1463.5987	23143.55	22220.35
887.2972	1465.4202	22698.2	21772.95
887.4406	1467.2409	22306.25	21384.25
887.584	1469.0608	22010.75	21089.7
887.7273	1470.88	21709.7	20785.15
887.8706	1472.6984	21441.55	20521.1
888.0139	1474.5161	21144.75	20220.95
888.1572	1476.3331	20980.4	20063.45
888.3005	1478.1493	20835.75	19911.9
888.4438	1479.9648	20732.5	19809.4
888.5871	1481.7795	20578.6	19654.95
888.7303	1483.5935	20496.15	19573.05
888.8736	1485.4067	20368	19446.7
889.0168	1487.2192	20311.85	19389.6
889.16	1489.031	20231.95	19306.3
889.3032	1490.842	20161.3	19239.8
889.4464	1492.6522	20117.7	19194.95
889.5896	1494.4618	20019.45	19094.75
889.7327	1496.2705	19977.95	19056.75
889.8759	1498.0785	19911	18987.25
890.019	1499.8858	19897.55	18974.3
890.1622	1501.6924	19809	18889.75
890.3053	1503.4981	19778.55	18856
890.4484	1505.3032	19715.2	18792.9
890.5914	1507.1075	19623.1	18701.45
890.7345	1508.911	19593.95	18674.35
890.8776	1510.7138	19516.8	18592.8
891.0206	1512.5159	19418.8	18499
891.1637	1514.3172	19320.3	18401.35
891.3067	1516.1178	19233.05	18313.9
891.4497	1517.9176	19198.55	18273.25
891.5927	1519.7166	19126.75	18209
891.7357	1521.515	19061.95	18137.55
891.8786	1523.3126	18972.9	18055.1
892.0216	1525.1094	18913.6	17993.7
892.1645	1526.9055	18871.9	17955.25
892.3074	1528.7008	18741.25	17822.95
892.4503	1530.4954	18656.15	17733.45
892.5932	1532.2893	18628.2	17713.3
892.7361	1534.0824	18528.65	17608.35
892.879	1535.8747	18518.65	17604.35
893.0218	1537.6663	18418.15	17500.15
893.1647	1539.4572	18371.95	17453.6
893.3075	1541.2473	18328.9	17412.6
893.4503	1543.0367	18276.35	17361.55
893.5931	1544.8253	18209.3	17289.95
893.7359	1546.6132	18198.35	17277.3
893.8787	1548.4003	18126.3	17200.6
894.0214	1550.1867	18085.3	17162.15
894.1642	1551.9723	18075.95	17156.75
894.3069	1553.7572	18042	17125
894.4496	1555.5414	17936.75	17022.9
894.5923	1557.3247	17974.4	17062.35
894.735	1559.1074	17952.15	17041
894.8777	1560.8893	17994.85	17087.95
895.0204	1562.6705	18037.35	17123.1
895.163	1564.4509	18045.35	17138.65
895.3056	1566.2305	18020.3	17113.85
895.4482	1568.0094	18134.85	17229.05
895.5908	1569.7876	18182.5	17273.75
895.7334	1571.565	18214.15	17301.3
895.876	1573.3417	18227.35	17314.45
896.0186	1575.1176	18208.35	17298.55
896.1611	1576.8928	18142.35	17234.95
896.3036	1578.6672	18011.55	17107.7
896.4461	1580.4409	17901.9	16999.75
896.5886	1582.2138	17700.25	16792.7
896.7311	1583.986	17530.8	16623.45
896.8736	1585.7575	17410.95	16501.85
897.0161	1587.5282	17269.3	16363.9
897.1585	1589.2981	17207.7	16306.8
897.3009	1591.0673	17080.05	16179.05
897.4433	1592.8358	17047.45	16142.6
897.5857	1594.6035	17009.45	16101.2
897.7281	1596.3704	16966.65	16056.95
897.8705	1598.1366	16897.25	15990.35
898.0128	1599.9021	16896.15	15992.15
898.1551	1601.6668	16851.25	15943.2
898.2975	1603.4308	16860.6	15952.05
898.4398	1605.194	16902.85	15991.2
898.5821	1606.9564	16939.5	16037.15
898.7243	1608.7182	17018.5	16118.85
898.8666	1610.4791	17089.45	16194.3
899.0088	1612.2394	17147.75	16252.35
899.1511	1613.9988	17278.45	16381.55
899.2933	1615.7576	17532.4	16631.1
899.4355	1617.5156	17757.95	16847.2
899.5776	1619.2728	17969.3	17060.75
899.7198	1621.0293	18120.9	17215.4
899.862	1622.785	18132.35	17227.35
900.0041	1624.54	18023.4	17122.15
900.1462	1626.2942	17830.8	16930.55
900.2883	1628.0477	17514.35	16611.05
900.4304	1629.8005	17231.55	16327.2
900.5725	1631.5525	16990.15	16091.45
900.7145	1633.3037	16721	15819.4
900.8566	1635.0542	16536.25	15636.3
900.9986	1636.804	16353.3	15452.85
901.1406	1638.553	16304.85	15330.45
901.2826	1640.3013	16146.5	15244.9
901.4245	1642.0488	16033.05	15131.7
901.5665	1643.7955	15981.35	15081.8
901.7085	1645.5416	15994.4	15095.3
901.8504	1647.2868	15977.05	15077.9
901.9923	1649.0313	15984.15	15083.2
902.1342	1650.7751	16083.75	15179.2
902.2761	1652.5181	16230.7	15331.95
902.4179	1654.2604	16422.55	15522.75
902.5598	1656.0019	16752.85	15854.1
902.7016	1657.7427	17045.3	16145.7
902.8434	1659.4828	17412	16509.6
902.9852	1661.222	17601.15	16699.3
903.127	1662.9606	17645	16746.05
903.2687	1664.6984	17480.65	16578.8
903.4105	1666.4354	17172.05	16267.05
903.5522	1668.1717	16647	15742.45
903.6939	1669.9072	16153.9	15250.5
903.8356	1671.642	15767.6	14864.05
903.9773	1673.3761	15422.75	14519.9
904.119	1675.1094	15177.05	14275.4
904.2606	1676.8419	14952.6	14051.45
904.4022	1678.5737	14762.6	13860
904.5439	1680.3048	14659.75	13756.75
904.6855	1682.0351	14508.4	13603.75
904.827	1683.7646	14413.8	13510.8
904.9686	1685.4934	14361.55	13459.75
905.1101	1687.2215	14261.25	13362.45
905.2517	1688.9488	14174.65	13275.65
905.3932	1690.6754	14085.1	13185.65
905.5347	1692.4012	14055.9	13154.85
905.6761	1694.1263	13987.4	13088.55
905.8176	1695.8506	13978.75	13076.9
905.9591	1697.5742	13891.95	12993.9
906.1005	1699.297	13836.3	12941.15
906.2419	1701.0191	13743.6	12846.95
906.3833	1702.7404	13702.4	12805.7
906.5246	1704.461	13624.05	12726.75
906.666	1706.1808	13568.8	12669.5
906.8073	1707.8999	13503.55	12604.9
906.9487	1709.6182	13496.55	12600.85
907.09	1711.3358	13413.7	12520.6
907.2313	1713.0527	13367.4	12476
907.3725	1714.7688	13340.15	12439.65
907.5138	1716.4841	13244.7	12346.1
907.655	1718.1987	13270.15	12369.2
907.7962	1719.9126	13213.4	12318.95
907.9374	1721.6257	13149.1	12253
908.0786	1723.338	13126.95	12233.15
908.2198	1725.0496	13028.75	12132.25
908.3609	1726.7605	13005.65	12109.45
908.502	1728.4706	12956.05	12060.15
908.6431	1730.18	12859.35	11962.7
908.7842	1731.8886	12847.15	11954.2
908.9253	1733.5964	12831.5	11917.1
909.0664	1735.3036	12802.05	11904.05
909.2074	1737.0099	12763.7	11869.4
909.3484	1738.7156	12722.25	11830.2
909.4894	1740.4204	12656.5	11762.35
909.6304	1742.1246	12627	11732.25
909.7714	1743.8279	12581.9	11688.5
909.9123	1745.5306	12563.6	11670.4
910.0532	1747.2325	12545.6	11653.2
910.1941	1748.9336	12483.45	11590.75
910.335	1750.634	12437.6	11541.3
910.4759	1752.3336	12412.65	11520
910.6168	1754.0325	12377.5	11487.65
910.7576	1755.7307	12357	11466.1
910.8984	1757.4281	12345.45	11453.4
911.0392	1759.1247	12333.1	11430.25
911.18	1760.8206	12325.2	11422.65
911.3208	1762.5158	12278.75	11379.3
911.4615	1764.2102	12223.9	11333.15
911.6022	1765.9039	12163.85	11270.45
911.7429	1767.5968	12152.15	11261.2
911.8836	1769.289	12106.3	11214.5
912.0243	1770.9804	12078.5	11185.85
912.1649	1772.6711	12074.25	11175.4
912.3056	1774.361	11992.6	11094.75
912.4462	1776.0502	11974.65	11077.9
912.5868	1777.7386	11982.55	11086
912.7274	1779.4263	11914.85	11023.1
912.8679	1781.1132	11890.65	11000.25
913.0084	1782.7994	11866.15	10975.5
913.149	1784.4849	11830.95	10939.75
913.2895	1786.1696	11775.55	10879.65
913.4299	1787.8535	11756.35	10867.55
913.5704	1789.5367	11741.55	10853.1
913.7108	1791.2192	11709.15	10818.3
913.8513	1792.9009	11678.35	10762.4
913.9917	1794.5818	11647.9	10751.45
914.132	1796.2621	11626.85	10734.8
914.2724	1797.9415	11587.55	10694.05
914.4128	1799.6202	11533.75	10640.45
914.5531	1801.2982	11528.05	10634.65
914.6934	1802.9755	11489.35	10593.2
914.8337	1804.6519	11525.8	10632.15
914.9739	1806.3277	11442.55	10551.35
915.1142	1808.0027	11405.3	10515.15
915.2544	1809.6769	11413.25	10526.6
915.3946	1811.3504	11372.85	10480.6
915.5348	1813.0231	11354.4	10464.65
915.675	1814.6951	11304.25	10413.9
915.8151	1816.3664	11321.15	10427.95
915.9553	1818.0369	11268.3	10376.3
916.0954	1819.7067	11212.8	10319.6
916.2355	1821.3757	11189.8	10295.35
916.3755	1823.044	11190.8	10296.2
916.5156	1824.7115	11142.15	10249.3
916.6556	1826.3783	11092.15	10201.6
916.7956	1828.0443	11060.9	10168.6
916.9356	1829.7096	11050.2	10157.5
917.0756	1831.3741	11071.05	10177.6
917.2155	1833.0379	11014	10125.6
917.3555	1834.701	10986.35	10095.8
917.4954	1836.3633	10940.15	10049.9
917.6353	1838.0248	10936.8	10043.3
917.7751	1839.6856	10893.75	10003.25
917.915	1841.3457	10892.2	10002.4
918.0548	1843.005	10863.6	9971.8
918.1946	1844.6636	10875	9983.6
918.3344	1846.3214	10817.45	9926.8
918.4742	1847.9785	10803.45	9914.1
918.6139	1849.6349	10794.4	9900.5
918.7537	1851.2904	10753.85	9851
918.8934	1852.9453	10733.95	9841.25
919.0331	1854.5994	10721.7	9826.3
919.1727	1856.2528	10713.1	9813.75
919.3124	1857.9054	10662.4	9769.25
919.452	1859.5572	10658.35	9767.55
919.5916	1861.2083	10643.6	9750.65
919.7312	1862.8587	10643.45	9750.25
919.8708	1864.5084	10578.75	9684.9
920.0103	1866.1572	10556.9	9664.7
920.1498	1867.8054	10508.4	9615.5
920.2893	1869.4528	10495.75	9600.55
920.4288	1871.0994	10465.25	9572.85
920.5683	1872.7453	10444.25	9551.5
920.7077	1874.3905	10416.15	9507.45
920.8471	1876.0349	10392.4	9499.75
920.9865	1877.6786	10388.65	9495.85
921.1259	1879.3215	10381.7	9489.95
921.2653	1880.9637	10360.45	9468.7
921.4046	1882.6051	10322.1	9430.5
921.5439	1884.2458	10301.55	9408.55
921.6832	1885.8858	10215.7	9324.7
921.8225	1887.525	10225.55	9333.05
921.9617	1889.1634	10161.6	9270.05
922.101	1890.8011	10175.15	9282.15
922.2402	1892.4381	10140.2	9247.5
922.3794	1894.0743	10148.1	9257.05
922.5185	1895.7098	10108.5	9216.6
922.6577	1897.3446	10082.6	9189.25
922.7968	1898.9786	10047.85	9152.2
922.9359	1900.6118	10034.85	9145.55
923.075	1902.2443	9972.2	9076.7
923.214	1903.8761	9981.85	9091.5
923.3531	1905.5071	9917.9	9024.8
923.4921	1907.1374	9879.8	8986.3
923.6311	1908.7669	9848.7	8959.05
923.77	1910.3957	9869.35	8978.25
923.909	1912.0237	9792.05	8903.35
924.0479	1913.651	9770.45	8879.25
924.1868	1915.2776	9749.6	8860.45
924.3257	1916.9034	9684.15	8795.6
924.4646	1918.5285	9660.6	8769.2
924.6034	1920.1528	9614.8	8722.45
924.7422	1921.7764	9613.85	8722.65
924.881	1923.3992	9562.4	8671.1
925.0198	1925.0213	9527.55	8637.4
925.1586	1926.6427	9475.75	8582.4
925.2973	1928.2633	9523.85	8564.1
925.436	1929.8832	9436.3	8546.7
925.5747	1931.5023	9411.6	8520.3
925.7134	1933.1207	9376.8	8486.85
925.852	1934.7383	9369.7	8478.4
925.9906	1936.3552	9337.6	8447.65
926.1292	1937.9714	9286.85	8396.8
926.2678	1939.5868	9254.4	8362.4
926.4064	1941.2015	9237.5	8346.65
926.5449	1942.8154	9194.55	8304.3
926.6834	1944.4286	9159.5	8266.05
926.8219	1946.041	9138.35	8231.3
926.9604	1947.6528	9081.55	8183.4
927.0988	1949.2637	9060.95	8169.85
927.2372	1950.8739	9003.15	8111.25
927.3756	1952.4834	9011.6	8119.8
927.514	1954.0921	8996.35	8106.8
927.6523	1955.7001	8966.05	8071.9
927.7907	1957.3074	8919.65	8033.2
927.929	1958.9139	8892.65	8006.4
928.0673	1960.5197	8871.95	7982.1
928.2055	1962.1247	8843.7	7956.1
928.3438	1963.729	8780.35	7895.1
928.482	1965.3325	8775.1	7859.1
928.6202	1966.9353	8738.3	7854
928.7584	1968.5374	8723.2	7834.35
928.8965	1970.1387	8676.8	7789.55
929.0346	1971.7393	8647.05	7757.85
929.1727	1973.3392	8635.75	7750
929.3108	1974.9383	8598.95	7713.65
929.4489	1976.5366	8553.8	7667.3
929.5869	1978.1342	8560.45	7675.4
929.7249	1979.7311	8531.3	7643.95
929.8629	1981.3273	8506.9	7621
930.0009	1982.9227	8493.3	7607.05
930.1388	1984.5173	8458.55	7574.6
930.2767	1986.1112	8445.2	7559.55
930.4146	1987.7044	8412.3	7528.55
930.5525	1989.2968	8380.7	7492.75
930.6904	1990.8885	8364.35	7475.35
930.8282	1992.4795	8349.3	7463
930.966	1994.0697	8310.3	7425.45
931.1038	1995.6592	8281.4	7396.8
931.2415	1997.2479	8252.65	7365.5
931.3793	1998.8359	8232.4	7349.45
931.517	2000.4232	8213.4	7330
931.6547	2002.0097	8178.4	7296.15
931.7923	2003.5955	8146.5	7262.15
931.93	2005.1805	8133.3	7248.05
932.0676	2006.7648	8119.35	7234.7
932.2052	2008.3484	8111.6	7226.6
932.3427	2009.9312	8107.85	7224.6
932.4803	2011.5133	8070.2	7189.05
932.6178	2013.0946	8037.5	7154.65
932.7553	2014.6752	8023.45	7141.8
932.8928	2016.2551	7992.65	7108.85
933.0302	2017.8342	7961.3	7078.1
933.1676	2019.4126	7935.7	7055.05
933.305	2020.9902	7919.05	7038.15
933.4424	2022.5672	7890.4	7007.35
933.5798	2024.1433	7883.65	6995.6
933.7171	2025.7188	7855.05	6976.15
933.8544	2027.2935	7817.5	6935.2
933.9917	2028.8674	7780.1	6899.7
934.129	2030.4406	7761.5	6882.05
934.2662	2032.0131	7733.3	6852.75
934.4034	2033.5849	7715.9	6828.8
934.5406	2035.1559	7695.05	6813.5
934.6778	2036.7261	7714.25	6832.25
934.8149	2038.2957	7689.55	6803.95
934.952	2039.8645	7653.5	6769.45
935.0891	2041.4325	7680.05	6789.7
935.2262	2042.9998	7632.05	6749.1
935.3632	2044.5664	7616.95	6730.8
935.5002	2046.1323	7598.55	6714.95
935.6372	2047.6974	7553.15	6673.55
935.7742	2049.2617	7527.8	6646.4
935.9111	2050.8254	7520	6633.6
936.048	2052.3883	7515	6630.95
936.1849	2053.9504	7502.25	6616.35
936.3218	2055.5118	7472.65	6588.75
936.4586	2057.0725	7462.15	6577.45
936.5955	2058.6325	7429.95	6547.6
936.7323	2060.1917	7424.9	6543.75
936.869	2061.7502	7388.1	6502.9
937.0058	2063.3079	7347.45	6467.65
937.1425	2064.8649	7314.75	6428.4
937.2792	2066.4212	7308.45	6426
937.4159	2067.9767	7298.65	6416.2
937.5525	2069.5315	7268.7	6384.45
937.6891	2071.0856	7233.65	6350.75
937.8257	2072.6389	7211.9	6329.75
937.9623	2074.1915	7201.2	6321.1
938.0989	2075.7433	7156.15	6271.95
938.2354	2077.2945	7136	6254.25
938.3719	2078.8448	7135.3	6250.25
938.5084	2080.3945	7078.75	6193.3
938.6448	2081.9434	7088.3	6204.75
938.7812	2083.4916	7076.5	6191.5
938.9176	2085.039	7054.55	6164.75
939.054	2086.5857	7032.15	6142.95
939.1903	2088.1317	7022.8	6133.8
939.3267	2089.677	6979.3	6091.25
939.463	2091.2215	6984.75	6094.75
939.5992	2092.7652	6962.85	6072.85
939.7355	2094.3083	6953	6064.75
939.8717	2095.8506	6951.7	6065.85
940.0079	2097.3921	6940.2	6054.65
940.1441	2098.933	6911.05	6026.1
940.2802	2100.4731	6897.7	6010.2
940.4163	2102.0124	6872.55	5978.9
940.5524	2103.5511	6870.8	5984.9
940.6885	2105.089	6861.75	5973.7
940.8245	2106.6261	6840.75	5956.2
940.9606	2108.1626	6798.25	5911.4
941.0965	2109.6983	6799.75	5886.7
941.2325	2111.2332	6780.2	5894.65
941.3684	2112.7675	6746.25	5857.6
941.5044	2114.301	6731.55	5842.85
941.6403	2115.8337	6730.95	5842.75
941.7761	2117.3657	6709.65	5821.85
941.912	2118.897	6706.55	5820.3
942.0478	2120.4276	6698.85	5805.9
942.1835	2121.9575	6657.4	5768.15
942.3193	2123.4866	6646.25	5744.15
942.455	2125.0149	6629.6	5740.4
942.5907	2126.5426	6587.55	5704.1
942.7264	2128.0695	6600.75	5713.4
942.8621	2129.5956	6571.25	5689.8
942.9977	2131.1211	6566.5	5678.4
943.1333	2132.6458	6544.3	5658.3
943.2689	2134.1698	6527.9	5641.4
943.4044	2135.693	6516.7	5624.65
943.54	2137.2155	6505.75	5615.4
943.6755	2138.7373	6486.7	5600.2
943.8109	2140.2584	6460.15	5574.6
943.9464	2141.7787	6468.6	5581.6
944.0818	2143.2983	6427.3	5545.9
944.2172	2144.8171	6390.95	5511.5
944.3526	2146.3353	6376.5	5488.25
944.4879	2147.8527	6347.15	5463.6
944.6232	2149.3693	6365.45	5479.75
944.7585	2150.8853	6347.45	5456.75
944.8938	2152.4005	6292.5	5406.6
945.029	2153.9149	6292.8	5403.75
945.1642	2155.4287	6373.55	5375.1
945.2994	2156.9417	6280.05	5391.25
945.4346	2158.454	6258.3	5371.05
945.5697	2159.9655	6218.85	5335.85
945.7048	2161.4764	6201.05	5317.25
945.8399	2162.9865	6201.7	5317.35
945.9749	2164.4958	6189.35	5304.25
946.1099	2166.0045	6157.1	5269.45
946.2449	2167.5124	6159.35	5274.5
946.3799	2169.0195	6136.85	5251.25
946.5148	2170.526	6133.65	5245.6
946.6498	2172.0317	6123.1	5236.7
946.7846	2173.5367	6096	5209.85
946.9195	2175.0409	6086.7	5202.75
947.0543	2176.5445	6078.75	5192.8
947.1891	2178.0473	6043.45	5154.5
947.3239	2179.5494	6020.05	5129.4
947.4587	2181.0507	6010.55	5125.25
947.5934	2182.5513	5984.4	5099.2
947.7281	2184.0512	5962.5	5078.7
947.8628	2185.5504	5960.35	5074.65
947.9974	2187.0488	5941.85	5056.45
948.132	2188.5465	5915	5032.9
948.2666	2190.0435	5882.9	4996.65
948.4012	2191.5397	5881.65	4996.55
948.5357	2193.0353	5862.4	4976.85
948.6702	2194.5301	5831.65	4943.8
948.8047	2196.0241	5834.65	4945.9
948.9392	2197.5175	5816.45	4927.25
949.0736	2199.0101	5790.2	4897.7
949.208	2200.502	5788.75	4899.9
949.3424	2201.9931	5754.15	4868.9
949.4767	2203.4835	5726.45	4841.5
949.611	2204.9733	5717.45	4828.7
949.7453	2206.4622	5705.25	4823.35
949.8796	2207.9505	5679	4791.9
950.0138	2209.438	5663.9	4784.5
950.148	2210.9248	5640.95	4754.3
950.2822	2212.4109	5635.75	4750.35
950.4164	2213.8962	5600.8	4711.6
950.5505	2215.3809	5604.05	4713.4
950.6846	2216.8648	5609	4720.35
950.8186	2218.3479	5588.4	4695.5
950.9527	2219.8304	5555.35	4662.9
951.0867	2221.3121	5542.6	4650.75
951.2207	2222.7931	5528.25	4639.4
951.3546	2224.2733	5508.85	4621.1
951.4886	2225.7529	5464.9	4577.55
951.6225	2227.2317	5458.8	4569.15
951.7563	2228.7098	5446.75	4563.05
951.8902	2230.1872	5426.05	4541.7
952.024	2231.6638	5425.75	4542
952.1578	2233.1397	5412.65	4525.85
952.2916	2234.6149	5401.8	4518.45
952.4253	2236.0894	5366.55	4480.25
952.559	2237.5632	5387.3	4494
952.6927	2239.0362	5332.75	4446.15
952.8263	2240.5085	5325	4438.55
952.9599	2241.9801	5326.15	4437.7
953.0935	2243.4509	5314.3	4425.75
953.2271	2244.921	5289.2	4400
953.3606	2246.3904	5277.95	4387.5
953.4941	2247.8591	5253.7	4368.15
953.6276	2249.3271	5226.75	4337.55
953.7611	2250.7943	5214.95	4328.05
953.8945	2252.2608	5205.3	4317.1
954.0279	2253.7266	5167.7	4281.5
954.1612	2255.1917	5179.95	4295.85
954.2946	2256.656	5159.1	4269.25
954.4279	2258.1197	5139.4	4255.75
954.5612	2259.5826	5141.5	4254.5
954.6944	2261.0447	5106.1	4218.75
954.8276	2262.5062	5089.8	4199.25
954.9608	2263.9669	5114.7	4225.05
955.094	2265.4269	5078.4	4191.6
955.2271	2266.8862	5061.7	4175.1
955.3602	2268.3448	5066.8	4178.8
955.4933	2269.8026	5061.75	4177.4
955.6264	2271.2598	5041.5	4156.45
955.7594	2272.7162	5008.7	4123.95
955.8924	2274.1719	5010.45	4120.8
956.0253	2275.6268	5002.9	4113.7
956.1583	2277.0811	4990.15	4103.4
956.2912	2278.5346	4975.7	4090
956.4241	2279.9874	4963.55	4078.35
956.5569	2281.4395	4972.85	4087.9
956.6897	2282.8908	4940.2	4050.05
956.8225	2284.3414	4927.05	4039.65
956.9553	2285.7914	4910.35	4026.35
957.088	2287.2406	4911.7	4021.8
957.2207	2288.689	4912.55	4023.95
957.3534	2290.1368	4896.1	4003.75
957.486	2291.5838	4886.15	3992.6
957.6186	2293.0302	4852.65	3959.2
957.7512	2294.4758	4838	3950.25
957.8838	2295.9206	4831	3941.65
958.0163	2297.3648	4811.4	3923.45
958.1488	2298.8082	4797.15	3910.15
958.2813	2300.251	4775.7	3889.35
958.4137	2301.693	4777.7	3886.85
958.5461	2303.1343	4781.85	3893.8
958.6785	2304.5748	4757.45	3869.3
958.8108	2306.0147	4731.2	3847
958.9432	2307.4538	4720.7	3834.2
959.0754	2308.8922	4705.45	3822.25
959.2077	2310.3299	4678.4	3792.8
959.3399	2311.7669	4671.3	3785.55
959.4721	2313.2031	4669.95	3783.1
959.6043	2314.6387	4660.4	3774.7
959.7365	2316.0735	4625.8	3739.5
959.8686	2317.5076	4609.55	3721.45
960.0006	2318.941	4619.25	3730.4
960.1327	2320.3737	4607.55	3718.25
960.2647	2321.8056	4587.35	3694.95
960.3967	2323.2369	4575.15	3685.15
960.5287	2324.6674	4558.75	3670.4
960.6606	2326.0972	4554.3	3662.95
960.7925	2327.5263	4549.45	3663.05
960.9244	2328.9547	4535.7	3647.7
961.0562	2330.3823	4523.5	3632.55
961.1881	2331.8092	4526.75	3633.55
961.3198	2333.2355	4501.25	3611.2
961.4516	2334.661	4484.6	3595.45
961.5833	2336.0858	4486.25	3597.4
961.715	2337.5098	4473.9	3583.8
961.8467	2338.9332	4465.2	3575.25
961.9783	2340.3558	4451.9	3559.85
962.1099	2341.7778	4430.1	3541.15
962.2415	2343.199	4413.25	3523.9
962.373	2344.6195	4404.35	3517.7
962.5045	2346.0393	4406	3520.1
962.636	2347.4583	4388.45	3499.25
962.7675	2348.8767	4371.9	3481.4
962.8989	2350.2943	4373.45	3482.15
963.0303	2351.7113	4360.95	3470.25
963.1617	2353.1275	4356.15	3466.65
963.293	2354.543	4365.6	3453.3
963.4243	2355.9578	4321	3431.2
963.5556	2357.3718	4311.15	3424.05
963.6868	2358.7852	4294.65	3406.05
963.818	2360.1978	4276.15	3388.75
963.9492	2361.6098	4271	3385.85
964.0803	2363.021	4262.8	3372.7
964.2114	2364.4315	4242.9	3353.95
964.3425	2365.8413	4236.05	3342
964.4736	2367.2504	4225.75	3339.6
964.6046	2368.6587	4214.45	3329.35
964.7356	2370.0664	4188.35	3303.15
964.8666	2371.4733	4181.25	3295.55
964.9975	2372.8795	4168.7	3282.05
965.1284	2374.285	4138.95	3251.5
965.2593	2375.6899	4129.85	3243.55
965.3901	2377.0939	4121.05	3232.65
965.5209	2378.4973	4108.35	3223.9
965.6517	2379.9	4104.3	3216.65
965.7825	2381.3019	4085.2	3201.65
965.9132	2382.7032	4070.6	3184.6
966.0439	2384.1037	4068.25	3186.05
966.1745	2385.5035	4046.05	3162.65
966.3051	2386.9027	4047.9	3163.55
966.4357	2388.3011	4024.7	3138.25
966.5663	2389.6987	4011.15	3126.55
966.6968	2391.0957	4004.7	3117.5
966.8273	2392.492	3990.55	3106.25
966.9578	2393.8876	3978.55	3091.5
967.0882	2395.2824	3964.05	3079.65
967.2186	2396.6765	3947.15	3063.15
967.349	2398.07	3927.65	3040.85
967.4793	2399.4627	3933.55	3044.2
967.6097	2400.8547	3918.25	3033.1
967.7399	2402.246	3905.75	3013.5
967.8702	2403.6366	3885.1	2997.35
968.0004	2405.0265	3886.4	3000.9
968.1306	2406.4156	3856.8	2967.3
968.2607	2407.8041	3853.95	2965.35
968.3909	2409.1918	3848.55	2959.65
968.521	2410.5789	3845.35	2960
968.651	2411.9652	3837.9	2947.7
968.781	2413.3508	3826.75	2940.3
968.911	2414.7358	3800.15	2916.25
969.041	2416.12	3775.4	2889.6
969.1709	2417.5035	3786.65	2901.35
969.3008	2418.8863	3782.4	2895.15
969.4307	2420.2684	3771.5	2883.6
969.5606	2421.6497	3756.3	2869.65
969.6904	2423.0304	3732.9	2847.4
969.8201	2424.4104	3727.35	2840.95
969.9499	2425.7896	3710.9	2823.8
970.0796	2427.1682	3711.9	2825.35
970.2093	2428.546	3701.6	2815.3
970.3389	2429.9232	3700.55	2810.2
970.4685	2431.2996	3679.8	2794.9
970.5981	2432.6753	3677.25	2791
970.7277	2434.0503	3657.5	2769.7
970.8572	2435.4246	3647.45	2762.05
970.9867	2436.7982	3650	2761.6
971.1161	2438.1711	3637.05	2750
971.2456	2439.5433	3630.2	2744.35
971.375	2440.9148	3618.65	2725.05
971.5043	2442.2856	3592.5	2708.95
971.6336	2443.6557	3591.35	2703.85
971.7629	2445.025	3573.8	2687.35
971.8922	2446.3937	3577.6	2689.4
972.0214	2447.7617	3558.65	2671.5
972.1506	2449.1289	3572.05	2686.8
972.2798	2450.4955	3564.15	2673.2
972.4089	2451.8613	3544.7	2657.95
972.538	2453.2265	3541.4	2655.6
972.6671	2454.5909	3535.6	2650
972.7961	2455.9546	3517.95	2630.6
972.9251	2457.3177	3496.7	2609.8
973.0541	2458.68	3505.8	2618.55
973.1831	2460.0416	3500.3	2613
973.312	2461.4025	3493.45	2606.2
973.4408	2462.7627	3493.85	2597.7
973.5697	2464.1222	3473.7	2589.7
973.6985	2465.4811	3461.8	2577.75
973.8273	2466.8392	3461.8	2577.5
973.956	2468.1966	3447.05	2555.8
974.0847	2469.5533	3456.85	2567.3
974.2134	2470.9093	3444.8	2556.95
974.3421	2472.2645	3420.1	2529.35
974.4707	2473.6191	3423.15	2538.35
974.5993	2474.973	3409.9	2524.35
974.7278	2476.3262	3406.95	2519.35
974.8563	2477.6787	3388.2	2503.15
974.9848	2479.0305	3370.95	2486.25
975.1132	2480.3816	3364.15	2477.05
975.2417	2481.7319	3354.5	2468.95
975.37	2483.0816	3347.3	2461.65
975.4984	2484.4306	3350.5	2465.75
975.6267	2485.7789	3330.45	2445.45
975.755	2487.1264	3322.85	2436.9
975.8833	2488.4733	3302.6	2417.7
976.0115	2489.8195	3307.5	2416.6
976.1397	2491.165	3283.6	2393.45
976.2678	2492.5097	3287.9	2398.95
976.3959	2493.8538	3265.9	2378.75
976.524	2495.1972	3249.05	2361.65
976.6521	2496.5398	3256.45	2369.25
976.7801	2497.8818	3244.25	2355.25
976.9081	2499.2231	3238.3	2348.4
977.036	2500.5637	3216.7	2328.4
977.164	2501.9035	3208.7	2319.7
977.2918	2503.2427	3219.1	2330.15
977.4197	2504.5812	3215.05	2327.45
977.5475	2505.919	3205.2	2314.45
977.6753	2507.256	3201.05	2313.85
977.8031	2508.5924	3186.9	2300.25
977.9308	2509.9281	3184.85	2292.75
978.0585	2511.2631	3156	2270.1
978.1861	2512.5974	3164.9	2278.5
978.3137	2513.9309	3161.25	2273.95
978.4413	2515.2638	3163.15	2252
978.5689	2516.596	3138.8	2251.3
978.6964	2517.9275	3136.05	2248.85
978.8239	2519.2583	3118.95	2229.85
978.9513	2520.5884	3108.25	2221.5
979.0788	2521.9178	3098.5	2212.5
979.2062	2523.2465	3081.75	2197.15
979.3335	2524.5745	3069.2	2183.85
979.4608	2525.9018	3085.15	2197.35
979.5881	2527.2284	3074.4	2186.1
979.7154	2528.5543	3062.95	2176.8
979.8426	2529.8796	3045.05	2158.2
979.9698	2531.2041	3056.7	2170.1
980.0969	2532.5279	3054.75	2170.45
980.224	2533.851	3040	2153.5
980.3511	2535.1735	3039.6	2153.45
980.4781	2536.4952	3035.4	2148.25
980.6052	2537.8163	3014.05	2126.45
980.7321	2539.1366	3021.15	2134.1
980.8591	2540.4562	3019.55	2130.85
980.986	2541.7752	3001.85	2114.4
981.1129	2543.0935	2991.45	2101.05
981.2397	2544.411	2990.7	2102
981.3665	2545.7279	2996	2107.9
981.4933	2547.0441	2985.55	2098.75
981.62	2548.3596	2989.9	2099.15
981.7467	2549.6744	2984.25	2095.5
981.8734	2550.9885	2960.6	2071.7
982.0001	2552.3019	2954.65	2070
982.1267	2553.6146	2958.9	2072.15
982.2532	2554.9266	2942.4	2055.05
982.3798	2556.2379	2939.05	2050.4
982.5063	2557.5485	2935.85	2051.6
982.6327	2558.8585	2936.6	2040.65
982.7592	2560.1677	2923.2	2030.9
982.8856	2561.4762	2914.5	2026.3
983.0119	2562.7841	2916.15	2024.95
983.1383	2564.0913	2900.65	2015.45
983.2646	2565.3977	2908.4	2021.15
983.3908	2566.7035	2897.3	2010.1
983.517	2568.0086	2893	2004.05
983.6432	2569.313	2883.95	1992.8
983.7694	2570.6167	2885.75	1994.85
983.8955	2571.9197	2877	1990.4
984.0216	2573.222	2870.1	1980.1
984.1476	2574.5236	2864.6	1977.85
984.2737	2575.8246	2858.85	1968.7
984.3996	2577.1248	2867.9	1976.15
984.5256	2578.4244	2847.6	1961.4
984.6515	2579.7232	2845.95	1959.4
984.7774	2581.0214	2878.75	1959
984.9032	2582.3189	2843.4	1956
985.029	2583.6157	2848	1955.85
985.1548	2584.9118	2829.8	1939.95
985.2806	2586.2072	2830.55	1944.55
985.4063	2587.5019	2832.55	1946
985.5319	2588.7959	2830.8	1941.95
985.6576	2590.0893	2824.6	1934.05
985.7832	2591.3819	2827	1938.6
985.9087	2592.6739	2811.9	1925.9
986.0343	2593.9652	2809.75	1921.1
986.1597	2595.2557	2801.8	1913
986.2852	2596.5456	2804.35	1914.65
986.4106	2597.8348	2790.95	1903.25
986.536	2599.1234	2783.1	1895.4
986.6614	2600.4112	2790.15	1902.05
986.7867	2601.6983	2793.45	1900.75
986.912	2602.9848	2780.55	1892.15
987.0372	2604.2705	2767.7	1873.55
987.1624	2605.5556	2758.45	1872.45
987.2876	2606.84	2758.1	1872.95
987.4128	2608.1237	2744.2	1854.45
987.5379	2609.4067	2725.85	1838.95
987.6629	2610.689	2741.15	1844.5
987.788	2611.9707	2735.25	1844.8
987.913	2613.2516	2714.75	1824.15
988.0379	2614.5319	2714.65	1827.5
988.1629	2615.8115	2698.4	1811.9
988.2878	2617.0903	2710.75	1822.5
988.4126	2618.3685	2690.85	1801.2
988.5375	2619.6461	2686.7	1798.6
988.6622	2620.9229	2668.4	1780.75
988.787	2622.199	2677.2	1787.5
988.9117	2623.4745	2675.05	1786
989.0364	2624.7493	2663.2	1774.7
989.161	2626.0234	2680.15	1794.45
989.2857	2627.2968	2652.25	1766.2
989.4102	2628.5695	2651.55	1762.35
989.5348	2629.8415	2635.85	1749.55
989.6593	2631.1128	2634.05	1744.3
989.7837	2632.3835	2626	1739.15
989.9082	2633.6535	2625.15	1738.45
990.0326	2634.9228	2620.45	1734.5
990.1569	2636.1914	2611.4	1724
990.2812	2637.4593	2613.9	1727.55
990.4055	2638.7265	2605.5	1719.35
990.5298	2639.9931	2601.5	1715.05
990.654	2641.259	2587.55	1697.45
990.7782	2642.5242	2588.45	1699.05
990.9023	2643.7887	2587.6	1698.05
991.0264	2645.0525	2572.8	1684.9
991.1505	2646.3156	2571.95	1670.45
991.2745	2647.5781	2566.8	1680.7
991.3985	2648.8398	2554.9	1669.5
991.5225	2650.1009	2571.15	1659.65
991.6464	2651.3613	2549.7	1661.65
991.7703	2652.6211	2543.2	1653.75
991.8942	2653.8801	2523.85	1637.5
992.018	2655.1385	2535.45	1645.75
992.1418	2656.3961	2524	1638.55
992.2655	2657.6531	2517.75	1632.6
992.3892	2658.9094	2524.15	1635.55
992.5129	2660.1651	2510.6	1624.45
992.6366	2661.42	2509.7	1623.7
992.7602	2662.6743	2501.2	1611.95
992.8837	2663.9279	2512.65	1628.85
993.0073	2665.1808	2498.75	1610.3
993.1307	2666.433	2505.15	1616.15
993.2542	2667.6846	2499.8	1612.65
993.3776	2668.9354	2502.55	1610.35
993.501	2670.1856	2504.25	1616.5
993.6244	2671.4351	2491.1	1604.75
993.7477	2672.6839	2501.35	1610.4
993.8709	2673.9321	2488.55	1602
993.9942	2675.1795	2491.4	1606
994.1174	2676.4263	2480.65	1593.85
994.2405	2677.6724	2492.4	1605.85
994.3637	2678.9179	2478.7	1593.4
994.4868	2680.1626	2477.85	1593
994.6098	2681.4067	2484.55	1596.3
994.7328	2682.6501	2474.05	1587.85
994.8558	2683.8928	2474.35	1587.9
994.9788	2685.1348	2450.05	1563.45
995.1017	2686.3761	2457	1570.4
995.2245	2687.6168	2441.5	1554.3
995.3474	2688.8568	2436.8	1550.7
995.4702	2690.0961	2425	1541
995.5929	2691.3348	2427.25	1541.55
995.7156	2692.5727	2422.65	1534.8
995.8383	2693.81	2404.3	1516.1
995.961	2695.0466	2405.1	1517.9
996.0836	2696.2826	2402.3	1515.25
996.2062	2697.5178	2394.65	1506.55
996.3287	2698.7524	2393.05	1506.7
996.4512	2699.9863	2391.45	1505.5
996.5737	2701.2195	2384.7	1497.9
996.6961	2702.452	2383.4	1497.45
996.8185	2703.6839	2385.4	1497.9
996.9408	2704.9151	2385.25	1501.1
997.0631	2706.1456	2392.15	1504.45
997.1854	2707.3755	2381.3	1493.1
997.3077	2708.6046	2412.05	1523.15
997.4299	2709.8331	2397.35	1508
997.552	2711.0609	2395.25	1508.7
997.6742	2712.2881	2404.6	1516.75
997.7963	2713.5145	2413.9	1527.05
997.9183	2714.7403	2422.65	1537.5
998.0403	2715.9654	2421.9	1535
998.1623	2717.1899	2443.75	1544.5
998.2842	2718.4136	2432.5	1546.8
998.4062	2719.6367	2437.75	1549.7
998.528	2720.8591	2451.6	1560.5
998.6498	2722.0809	2445.7	1557.1
998.7716	2723.3019	2460	1570.85
998.8934	2724.5223	2467.1	1578.9
999.0151	2725.7421	2464.3	1576.65
999.1368	2726.9611	2470.6	1582.3
999.2584	2728.1795	2468.5	1578.5
999.38	2729.3972	2441.95	1558.1
999.5016	2730.6142	2439.55	1544.1
999.6231	2731.8306	2405.1	1518.85
999.7446	2733.0462	2396	1508.15
999.8661	2734.2612	2373.55	1483.65
999.9875	2735.4756	2357.9	1469.05
1000.1089	2736.6892	2337.3	1452.9
1000.2302	2737.9022	2321.15	1435.65
1000.3515	2739.1145	2292.95	1407.3
1000.4728	2740.3262	2292.9	1397.95
1000.594	2741.5372	2271.6	1386.35
1000.7152	2742.7475	2260.55	1375.2
1000.8363	2743.9571	2238.25	1351.9
1000.9575	2745.1661	2227.45	1337.2
1001.0785	2746.3744	2224	1338.25
1001.1996	2747.582	2199.75	1316.05
1001.3206	2748.7889	2209.05	1325
1001.4415	2749.9952	2207.15	1324.45
1001.5625	2751.2008	2168.65	1282.05
1001.6833	2752.4057	2169.5	1281.15
1001.8042	2753.61	2161.4	1274.1
1001.925	2754.8136	2153.15	1265.4
1002.0458	2756.0165	2149.75	1262.75
1002.1665	2757.2188	2150.65	1266.25
1002.2872	2758.4204	2144.1	1258.45
1002.4078	2759.6213	2150.65	1263.65
1002.5285	2760.8215	2147.55	1257.95
1002.649	2762.0211	2126.8	1239.2
1002.7696	2763.22	2134.35	1246.9
1002.8901	2764.4182	2133.25	1243.75
1003.0106	2765.6158	2125.55	1241.1
1003.131	2766.8127	2107.5	1223.2
1003.2514	2768.009	2095.45	1210.4
1003.3717	2769.2045	2094.8	1210.1
1003.492	2770.3994	2098.75	1209.6
1003.6123	2771.5936	2087.35	1201.3
1003.7325	2772.7872	2079	1195.2
1003.8527	2773.9801	2082.55	1194.5
1003.9729	2775.1723	2095.55	1193.15
1004.093	2776.3639	2081.2	1198.2
1004.2131	2777.5548	2075.25	1188.2
1004.3331	2778.745	2068.95	1183.45
1004.4531	2779.9346	2070.1	1186.85
1004.5731	2781.1235	2081.1	1196.15
1004.693	2782.3117	2071.65	1188.15
1004.8129	2783.4992	2067.85	1184.75
1004.9328	2784.6861	2067.15	1184.45
1005.0526	2785.8723	2081.4	1195.3
1005.1723	2787.0579	2078.95	1192.45
1005.2921	2788.2428	2091.45	1208.75
1005.4118	2789.427	2090.9	1207.05
1005.5314	2790.6106	2098.35	1215.55
1005.651	2791.7935	2100.05	1214.5
1005.7706	2792.9757	2107.15	1224.45
1005.8902	2794.1573	2125.5	1241.25
1006.0097	2795.3382	2126.8	1241.3
1006.1291	2796.5184	2142.1	1259.65
1006.2485	2797.698	2153.25	1266.05
1006.3679	2798.8769	2169.65	1283.15
1006.4873	2800.0551	2187	1301.4
1006.6066	2801.2327	2204	1316.8
1006.7258	2802.4096	2221.45	1337.8
1006.8451	2803.5859	2233.7	1348.7
1006.9642	2804.7615	2255.1	1370.3
1007.0834	2805.9364	2275.75	1392.85
1007.2025	2807.1106	2307	1423.15
1007.3216	2808.2842	2331.4	1447
1007.4406	2809.4572	2371.5	1487.2
1007.5596	2810.6294	2397.55	1511.95
1007.6785	2811.801	2434.55	1551.55
1007.7975	2812.972	2481.7	1599.95
1007.9163	2814.1423	2521.65	1636.6
1008.0352	2815.3119	2564.35	1679.5
1008.154	2816.4808	2601.65	1717.55
1008.2727	2817.6491	2659	1773.05
1008.3914	2818.8167	2710.45	1826.75
1008.5101	2819.9837	2759.55	1872.15
1008.6288	2821.15	2797.05	1912.7
1008.7474	2822.3157	2830.2	1949.2
1008.8659	2823.4807	2883.8	1999.85
1008.9844	2824.645	2929.95	2044.4
1009.1029	2825.8086	2967.05	2085.2
1009.2214	2826.9716	3009.3	2127.05
1009.3398	2828.134	3037.85	2152.8
1009.4581	2829.2957	3081.9	2198.9
1009.5764	2830.4567	3100.5	2217.05
1009.6947	2831.617	3128.2	2244.7
1009.813	2832.7767	3123.2	2239.7
1009.9312	2833.9358	3136.35	2252.3
1010.0493	2835.0941	3114.55	2229.05
1010.1675	2836.2519	3107.1	2222.3
1010.2855	2837.4089	3093.55	2208.75
1010.4036	2838.5653	3087.3	2204.85
1010.5216	2839.7211	3082.1	2200.4
1010.6396	2840.8761	3096.45	2210.6
1010.7575	2842.0306	3113.1	2230.1
1010.8754	2843.1843	3166.8	2282
1010.9932	2844.3374	3215.05	2331.35
1011.111	2845.4899	3264.75	2381.3
1011.2288	2846.6417	3338.35	2456.1
1011.3465	2847.7928	3423.35	2542.05
1011.4642	2848.9433	3491.2	2607.25
1011.5818	2850.0931	3577.05	2695.85
1011.6995	2851.2422	3653.85	2768.1
1011.817	2852.3907	3719.3	2834.65
1011.9345	2853.5385	3789.65	2904.2
1012.052	2854.6857	3844.9	2954.95
1012.1695	2855.8323	3889.1	3005.85
1012.2869	2856.9781	3948.9	3065.6
1012.4042	2858.1233	3987.4	3103.15
1012.5216	2859.2679	4026.8	3144.75
1012.6389	2860.4118	4066.4	3182.35
1012.7561	2861.555	4125.25	3239.1
1012.8733	2862.6976	4158.3	3272.9
1012.9905	2863.8395	4174.35	3293.45
1013.1076	2864.9808	4184.4	3300.05
1013.2247	2866.1214	4225.85	3340.9
1013.3417	2867.2614	4215.25	3330.35
1013.4587	2868.4007	4233.65	3347.7
1013.5757	2869.5393	4262.65	3377.3
1013.6926	2870.6773	4260.8	3377.65
1013.8095	2871.8146	4269.35	3381.8
1013.9263	2872.9513	4263.3	3377.5
1014.0431	2874.0874	4267.85	3384.15
1014.1599	2875.2227	4250.2	3367.25
1014.2766	2876.3574	4237.85	3356.25
1014.3933	2877.4915	4189.25	3304.7
1014.51	2878.6249	4170	3286.5
1014.6266	2879.7577	4153.65	3267.75
1014.7431	2880.8898	4147	3253.65
1014.8596	2882.0212	4116.05	3235.4
1014.9761	2883.152	4104.25	3220.05
1015.0925	2884.2821	4074.75	3190.9
1015.2089	2885.4116	4072.85	3190.6
1015.3253	2886.5405	4072.05	3188.55
1015.4416	2887.6686	4087.75	3202.25
1015.5579	2888.7962	4080.65	3196.35
1015.6741	2889.923	4086.8	3203.2
1015.7903	2891.0493	4082.7	3198.8
1015.9065	2892.1748	4092.05	3208.45
1016.0226	2893.2997	4101.5	3217.6
1016.1387	2894.424	4130.4	3249.75
1016.2547	2895.5476	4142.6	3259.65
1016.3707	2896.6706	4158.05	3277.65
1016.4866	2897.7929	4199.3	3316.05
1016.6025	2898.9145	4214.7	3333.1
1016.7184	2900.0355	4246	3360.8
1016.8342	2901.1559	4281.85	3398.35
1016.95	2902.2756	4312.85	3430.9
1017.0658	2903.3946	4337.05	3454.1
1017.1815	2904.513	4380.6	3496.2
1017.2971	2905.6308	4391.5	3509.35
1017.4127	2906.7479	4412.35	3528.65
1017.5283	2907.8643	4435.85	3553.3
1017.6439	2908.9801	4444.5	3561.75
1017.7594	2910.0953	4446.25	3564.8
1017.8748	2911.2098	4442.4	3556.55
1017.9902	2912.3236	4460.1	3570.35
1018.1056	2913.4368	4424.65	3539.25
1018.2209	2914.5494	4405.75	3523.15
1018.3362	2915.6613	4374.4	3485.7
1018.4515	2916.7725	4334.9	3449.35
1018.5667	2917.8831	4304.15	3422.25
1018.6819	2918.9931	4278.8	3394.7
1018.797	2920.1024	4254.85	3371.65
1018.9121	2921.211	4229.65	3347
1019.0271	2922.319	4206.15	3322.15
1019.1421	2923.4264	4193.45	3311.7
1019.2571	2924.5331	4178.1	3296.95
1019.372	2925.6391	4157	3273.65
1019.4869	2926.7445	4151.45	3270.4
1019.6017	2927.8493	4138	3254.5
1019.7165	2928.9534	4133.55	3248.7
1019.8313	2930.0569	4130.1	3245.8
1019.946	2931.1597	4101.25	3216.4
1020.0606	2932.2619	4087.5	3205.45
1020.1753	2933.3634	4083.6	3202.4
1020.2899	2934.4643	4074.25	3184.95
1020.4044	2935.5645	4051.35	3162.35
1020.5189	2936.6641	4028.25	3141
1020.6334	2937.763	3952.85	3071.5
1020.7478	2938.8613	3932	3046.9
1020.8622	2939.959	3858.35	2969.3
1020.9765	2941.056	3781.3	2899.9
1021.0908	2942.1523	3693.3	2807.65
1021.2051	2943.248	3604.8	2721.55
1021.3193	2944.3431	3503	2620.8
1021.4334	2945.4375	3399.7	2515.55
1021.5476	2946.5313	3289.95	2410.6
1021.6617	2947.6244	3175.05	2290.95
1021.7757	2948.7169	3083.15	2198.3
1021.8897	2949.8087	2987.15	2104.35
1022.0037	2950.8999	2885.5	2002.85
1022.1176	2951.9904	2802	1921
1022.2315	2953.0803	2728.1	1845.35
1022.3453	2954.1696	2664	1782.7
1022.4591	2955.2582	2609.4	1727.35
1022.5728	2956.3462	2563.25	1680.35
1022.6865	2957.4335	2528.15	1644.55
1022.8002	2958.5202	2482.4	1599.9
1022.9138	2959.6062	2446.25	1562.6
1023.0274	2960.6916	2428.35	1547.5
1023.141	2961.7764	2407.35	1523.45
1023.2545	2962.8605	2395.55	1513.2
1023.3679	2963.9439	2386.5	1505.25
1023.4813	2965.0267	2362.8	1479.65
1023.5947	2966.1089	2377.05	1473.45
1023.708	2967.1905	2356.85	1475.1
1023.8213	2968.2714	2352.3	1470
1023.9346	2969.3516	2349.4	1468.4
1024.0478	2970.4312	2351.8	1464.2
1024.1609	2971.5102	2329.75	1448.15
1024.274	2972.5885	2335.5	1452.75
1024.3871	2973.6662	2350	1465.85
1024.5002	2974.7432	2324.7	1443.3
1024.6132	2975.8196	2329.1	1445.8
1024.7261	2976.8954	2303.05	1423
1024.839	2977.9705	2284.8	1402.6
1024.9519	2979.045	2276.95	1395.6
1025.0647	2980.1188	2271.95	1391.75
1025.1775	2981.192	2262.45	1382.35
1025.2902	2982.2645	2227.6	1345.8
1025.4029	2983.3364	2197.5	1315.15
1025.5156	2984.4077	2165.2	1284.1
1025.6282	2985.4783	2128.6	1242.25
1025.7407	2986.5483	2092.9	1211.55
1025.8532	2987.6177	2060.35	1179.3
1025.9657	2988.6864	2020.25	1137.4
1026.0782	2989.7545	1990.1	1109.55
1026.1906	2990.8219	1952.25	1070.5
1026.3029	2991.8887	1922.15	1039.35
1026.4152	2992.9548	1892.6	1011.35
1026.5275	2994.0204	1851.2	970.75
1026.6397	2995.0852	1832.9	952.2
1026.7519	2996.1495	1799.6	916.4
1026.864	2997.2131	1779	897.1
1026.9761	2998.276	1760.9	879.85
1027.0882	2999.3383	1737.15	853.85
1027.2002	3000.4	1725.7	844.45
1027.3122	3001.4611	1696.45	814.6
1027.4241	3002.5215	1683.8	802.8
1027.536	3003.5812	1671	790
1027.6478	3004.6404	1667.95	787.5
1027.7596	3005.6989	1650.35	766.45
1027.8714	3006.7567	1641.9	760.45
1027.9831	3007.8139	1649.2	750.6
1028.0947	3008.8705	1619	736.7
1028.2064	3009.9264	1632.65	737
1028.3179	3010.9818	1609.45	728.4
1028.4295	3012.0364	1613.95	730.6
1028.541	3013.0905	1601.95	718.45
1028.6524	3014.1439	1605.2	725.2
1028.7638	3015.1966	1601.5	721.15
1028.8752	3016.2487	1602.65	721
1028.9865	3017.3002	1603.3	716.95
1029.0978	3018.3511	1592.5	713.45
1029.209	3019.4013	1585.95	706.2
1029.3202	3020.4509	1594.25	714.05
1029.4314	3021.4998	1591.65	709.85
1029.5425	3022.5481	1593.85	712.9
1029.6535	3023.5958	1593.45	711.9
1029.7645	3024.6428	1591.65	710.85
1029.8755	3025.6892	1592.45	710.65
1029.9864	3026.735	1594	711.15
1030.0973	3027.7802	1601.8	719.05
1030.2082	3028.8247	1592.4	711.55
1030.319	3029.8685	1589.15	706.9
1030.4297	3030.9118	1597.2	716.2
1030.5404	3031.9544	1608.6	727.1
1030.6511	3032.9963	1608.95	729.65
1030.7617	3034.0376	1613	731.15
1030.8723	3035.0783	1622.4	739.05
1030.9829	3036.1184	1628.4	747.45
1031.0934	3037.1578	1618.9	738.95
1031.2038	3038.1966	1619.35	736.7
1031.3142	3039.2348	1626.6	748.2
1031.4246	3040.2723	1631.7	741.25
1031.5349	3041.3092	1617.75	737.15
1031.6452	3042.3455	1610.9	730.75
1031.7554	3043.3811	1615	732.15
1031.8656	3044.4161	1604.35	721.7
1031.9758	3045.4505	1590.1	710.05
1032.0859	3046.4842	1586.65	704.55
1032.1959	3047.5173	1590.15	710.7
1032.3059	3048.5498	1576.5	696.7
1032.4159	3049.5816	1565.55	684
1032.5258	3050.6128	1555.95	674.7
1032.6357	3051.6434	1558.9	678.45
1032.7455	3052.6734	1544.5	661.75
1032.8553	3053.7027	1539.25	658.45
1032.9651	3054.7314	1523.65	642.9
1033.0748	3055.7594	1528.05	648.75
1033.1845	3056.7868	1528.15	647.05
1033.2941	3057.8136	1509.5	627.7
1033.4037	3058.8398	1504.35	624.4
1033.5132	3059.8653	1499.05	618.1
1033.6227	3060.8902	1494.8	613.5
1033.7321	3061.9145	1493.95	611.95
1033.8415	3062.9381	1487.85	605.85
1033.9509	3063.9612	1490.8	593.55
1034.0602	3064.9835	1466.15	583.95
1034.1694	3066.0053	1461.2	577.3
1034.2787	3067.0264	1453.8	574.5
1034.3878	3068.0469	1445	563.3
1034.497	3069.0668	1437.65	553.6
1034.6061	3070.086	1426.55	549.05
1034.7151	3071.1046	1414.4	529.9
1034.8241	3072.1226	1404.5	524.2
1034.9331	3073.1399	1396.35	516.45
1035.042	3074.1567	1392.4	511.75
1035.1508	3075.1727	1377.7	495.15
1035.2597	3076.1882	1369	489.45
1035.3684	3077.203	1356.25	475
1035.4772	3078.2173	1348.05	465.5
1035.5859	3079.2308	1344.5	461.35
1035.6945	3080.2438	1328.45	445.7
1035.8031	3081.2561	1322.95	441.5
1035.9117	3082.2678	1304	423.3
1036.0202	3083.2789	1306.2	425.15
1036.1286	3084.2893	1299.75	420.05
1036.2371	3085.2991	1299.5	419.65
1036.3454	3086.3083	1285.4	399.75
1036.4538	3087.3169	1277.1	397.1
1036.562	3088.3248	1275.5	393.95
1036.6703	3089.3321	1273.3	393.25
1036.7785	3090.3388	1261.2	382.1
1036.8866	3091.3449	1260.15	378.1
1036.9948	3092.3503	1257.05	375.15
1037.1028	3093.3551	1246.4	366.75
1037.2108	3094.3593	1240.7	363.1
1037.3188	3095.3629	1243.5	363.95
1037.4267	3096.3658	1241.3	359.4
1037.5346	3097.3681	1237.15	356
1037.6425	3098.3698	1233.8	352.7
1037.7503	3099.3708	1236.2	349.1
1037.858	3100.3713	1225.05	346.5
1037.9657	3101.3711	1219.85	337.95
1038.0734	3102.3702	1352.25	341.1
1038.181	3103.3688	1226.1	341.1
1038.2886	3104.3667	1214.15	334.65
1038.3961	3105.364	1206.6	325.85
1038.5036	3106.3607	1205.6	324.15
1038.611	3107.3568	1206.35	325.1
1038.7184	3108.3522	1197.75	317.5
1038.8257	3109.347	1198.8	319.05
1038.933	3110.3412	1200.95	316.75
1039.0403	3111.3348	1197.85	318.1
1039.1475	3112.3277	1188.5	308.65
1039.2547	3113.32	1189	309.75
1039.3618	3114.3117	1194.05	312.4
1039.4689	3115.3028	1187.7	307
1039.5759	3116.2932	1185.55	303.95
1039.6829	3117.2831	1185.95	298.9
1039.7898	3118.2723	1181.5	303.35
1039.8967	3119.2608	1177.05	295.2
1040.0035	3120.2488	1174.45	294.55
1040.1103	3121.2361	1174.8	294.1
1040.2171	3122.2229	1175	295.35
1040.3238	3123.209	1170.15	289
1040.4305	3124.1944	1168.4	287.3
1040.5371	3125.1793	1169.05	287.75
1040.6437	3126.1635	1161.9	280.6
1040.7502	3127.1471	1168.1	288.55
1040.8567	3128.1301	1158.95	278.25
1040.9631	3129.1125	1158.45	278.1
1041.0695	3130.0942	1159.65	277.5
1041.1759	3131.0753	1166.3	279.35
1041.2822	3132.0558	1155.1	272.05
1041.3884	3133.0357	1153.15	272.45
1041.4946	3134.015	1149.9	269.3
1041.6008	3134.9936	1150.8	268.45
1041.7069	3135.9716	1174.2	272.1
1041.813	3136.949	1148.2	268.95
1041.919	3137.9258	1162.25	261.25
1042.025	3138.902	1146.55	260.3
1042.1309	3139.8775	1144.2	264.45
1042.2368	3140.8524	1139.65	258.9
1042.3427	3141.8267	1138.15	256.55
1042.4485	3142.8004	1132.2	251.55
1042.5542	3143.7735	1143.5	257
1042.6599	3144.7459	1137.7	255.65
1042.7656	3145.7178	1135.1	255.1
1042.8712	3146.689	1128.3	247.35
1042.9768	3147.6596	1131.45	248.1
1043.0823	3148.6295	1129.75	248.85
1043.1878	3149.5989	1121.85	241.25
1043.2932	3150.5676	1122.1	244.45
1043.3986	3151.5357	1123.45	242.65
1043.5039	3152.5032	1120.65	242.4
1043.6092	3153.4701	1114.5	234.1
1043.7145	3154.4364	1117.55	236.5
1043.8197	3155.402	1112	235.45
1043.9248	3156.367	1112.85	230.65
1044.03	3157.3315	1133.85	228.3
1044.135	3158.2952	1108.55	227.05
1044.24	3159.2584	1105.95	223.95
1044.345	3160.221	1105.7	226.65
1044.4499	3161.1829	1103.4	223.05
1044.5548	3162.1442	1096.45	216.5
1044.6596	3163.105	1103.45	224.85
1044.7644	3164.065	1096.7	218.2
1044.8692	3165.0245	1098.45	216.45
1044.9739	3165.9834	1093.9	214.3
1045.0785	3166.9416	1102.85	223.05
1045.1831	3167.8993	1094.65	215.9
1045.2877	3168.8563	1093.15	213
1045.3922	3169.8127	1090.9	211.35
1045.4966	3170.7684	1094.45	214.3
1045.6011	3171.7236	1092.8	211.75
1045.7054	3172.6782	1087.85	209.55
1045.8098	3173.6321	1087.4	205.85
1045.914	3174.5854	1092.3	209.1
1046.0183	3175.5381	1084.75	206.65
1046.1224	3176.4902	1084.2	203.8
1046.2266	3177.4417	1080	201.25
1046.3307	3178.3926	1081.95	200.4
1046.4347	3179.3428	1082.15	202.85
1046.5387	3180.2924	1078.05	198
1046.6427	3181.2415	1078.75	198.2
1046.7466	3182.1899	1081.1	199.85
1046.8504	3183.1377	1076.1	197.45
1046.9542	3184.0848	1076.9	192.5
1047.058	3185.0314	1072.1	193
1047.1617	3185.9773	1074.2	193.8
1047.2654	3186.9227	1071.5	188.8
1047.369	3187.8674	1067.75	186.2
1047.4726	3188.8115	1072.85	190.7
1047.5761	3189.755	1068.4	189.75
1047.6796	3190.6979	1064.65	186.65
1047.783	3191.6402	1066.2	187.75
1047.8864	3192.5818	1063.8	182.5
1047.9898	3193.5229	1074.6	182.65
1048.0931	3194.4633	1066.45	185.45
1048.1963	3195.4031	1058.25	178.1
1048.2995	3196.3423	1064.85	185.9
1048.4027	3197.2809	1061.55	181.9
1048.5058	3198.2189	1058.55	178
1048.6089	3199.1563	1066.1	181.35
1048.7119	3200.0931	1059.15	180.4
1048.8148	3201.0292	1056.7	180.2
1048.9178	3201.9648	1055.35	174
1049.0206	3202.8997	1053.85	173.3
1049.1235	3203.834	1053.45	174.65
1049.2262	3204.7677	1055.2	175.2
1049.329	3205.7008	1054.8	171.7
1049.4317	3206.6333	1050.2	173.6
1049.5343	3207.5652	1054.7	173.45
1049.6369	3208.4964	1044.7	165.6
1049.7394	3209.4271	1045.1	165.2
1049.8419	3210.3571	1044.5	166.3
1049.9444	3211.2865	1047.55	167.25
1050.0468	3212.2154	1049.1	169.2
1050.1491	3213.1436	1051.2	170.4
1050.2514	3214.0712	1050.5	162.65
1050.3537	3214.9982	1041.25	162.4
1050.4559	3215.9246	1040.7	159.1
1050.5581	3216.8503	1038.45	160.8
1050.6602	3217.7755	1042.4	162.25
1050.7623	3218.7001	1039.1	160
1050.8643	3219.624	1036.2	157.35
1050.9663	3220.5473	1038.75	161.1
1051.0682	3221.4701	1039.5	158.3
1051.1701	3222.3922	1040.45	160.65
1051.2719	3223.3137	1034.75	155.95
1051.3737	3224.2346	1034.4	154.05
1051.4754	3225.1549	1031.65	152.1
1051.5771	3226.0746	1032.8	154.8
1051.6788	3226.9937	1034.15	156.2
1051.7804	3227.9121	1030.8	151.7
1051.8819	3228.83	1029.35	152.5
1051.9834	3229.7473	1030.7	151.7
1052.0849	3230.6639	1031.15	152
1052.1863	3231.5799	1027.1	147.7
1052.2876	3232.4954	1028.55	148.7
1052.3889	3233.4102	1029.75	149.7
1052.4902	3234.3244	1028.4	149.7
1052.5914	3235.238	1029.85	150.85
1052.6926	3236.151	1048.5	144.45
1052.7937	3237.0634	1022.4	144.35
1052.8948	3237.9752	1019.5	141.95
1052.9958	3238.8864	1020.3	140.6
1053.0968	3239.797	1025.45	145
1053.1977	3240.7069	1021.9	142.5
1053.2986	3241.6163	1022.75	140.85
1053.3994	3242.5251	1016.8	138.5
1053.5002	3243.4332	1015.95	137.75
1053.6009	3244.3408	1014.25	134.6
1053.7016	3245.2477	1017.55	141.05
1053.8022	3246.154	1012.25	131.7
1053.9028	3247.0598	1014.4	134.4
1054.0034	3247.9649	1008.75	130.85
1054.1039	3248.8694	1014.15	135.05
1054.2043	3249.7733	1012.5	133.55
1054.3047	3250.6766	1012.3	132.25
1054.4051	3251.5793	1011.55	131.3
1054.5054	3252.4814	1008.35	130.15
1054.6056	3253.3829	1007.5	127.85
1054.7058	3254.2838	1006.75	129.3
1054.806	3255.1841	1006.05	126.05
1054.9061	3256.0838	1002.95	123.35
1055.0061	3256.9829	1006.35	128.45
1055.1062	3257.8814	1006.5	123.25
1055.2061	3258.7792	1001.45	119.85
1055.306	3259.6765	1002.45	121.8
1055.4059	3260.5731	996.7	116.95
1055.5057	3261.4692	997.55	119.5
1055.6055	3262.3647	994.4	114.5
1055.7052	3263.2595	992.2	113.45
1055.8049	3264.1538	992.4	112.25
1055.9045	3265.0474	992.3	112.2
1056.0041	3265.9404	988.65	109.4
1056.1036	3266.8329	987.15	110.15
1056.2031	3267.7247	992.5	103.95
1056.3025	3268.616	983.3	105.8
1056.4019	3269.5066	980.65	100.95
1056.5013	3270.3966	977.1	96.3
1056.6005	3271.286	971.8	94.9
