Software Version:	3.9.2.0
Unit SN:	10000200
Spectrometer SN:	6960
Date:	3/26/2024 1:37:07 PM
Data Line Index:	25
Spectral Points:	2048
Integration time (ms):	125
Averages:	20
Delay (ms):	30000
Sequence Number:	1
Processing:	dark subtract
Laser Power (mW):	300
Laser Current (mA):	819
Laser Diode Temp (C):	25
Laser Case Temp (C):	27
System Temp (C):	27
Spectrometer Temp (C):	24.9
CCD Temp (C):	0.008
Secondary Temp (C):	20.013
Heatsink Temp (C):	22.69
CCDPCB Temp (C):	36.64
SecondaryPCB Temp (C):	34.039

Wavelength	RamanShift	Raw Counts	Dark Subtracted
787.061	30.1047	599	189.65
787.2016	32.3739	608.55	201.35
787.3422	34.6426	623.6	213.8
787.4828	36.9109	640.4	228.7
787.6235	39.1787	657.5	241.15
787.7642	41.4461	680.25	258.9
787.9049	43.7131	700.25	276.95
788.0456	45.9796	722.25	294.7
788.1863	48.2456	739.85	309.7
788.3271	50.5112	764.1	329
788.4679	52.7764	786.1	348.7
788.6087	55.0411	812.3	370.7
788.7496	57.3054	844.25	400.7
788.8904	59.5692	865.05	416.5
789.0313	61.8326	901.15	449.4
789.1722	64.0955	929.75	474.15
789.3132	66.3579	963.3	501.15
789.4541	68.6199	1021.25	556.05
789.5951	70.8815	1105.4	638.1
789.7361	73.1426	1278.65	807.35
789.8771	75.4032	1750.6	1273
790.0181	77.6634	2918	2432.4
790.1592	79.9231	5762.7	5269
790.3003	82.1824	12240.95	11732.25
790.4414	84.4412	26069.4	25534.9
790.5825	86.6995	47894.8	47318.55
790.7237	88.9574	57929.25	57315.45
790.8648	91.2148	61486.75	60850.7
791.006	93.4717	62402.55	61755.95
791.1472	95.7282	62800.8	62140.9
791.2885	97.9842	62934.95	62269.55
791.4297	100.2398	62851.6	62188.5
791.571	102.4949	62757.85	62087.85
791.7123	104.7495	62710.3	62036.05
791.8536	107.0036	62503.55	61832.25
791.9949	109.2573	62664.75	61990.15
792.1363	111.5105	62403.85	61731.15
792.2777	113.7632	62405.1	61728.95
792.4191	116.0154	62435.7	61750.15
792.5605	118.2672	62567.75	61882.3
792.7019	120.5185	62502.8	61819.55
792.8434	122.7693	62470.9	61786
792.9849	125.0197	62196.2	61515.35
793.1264	127.2696	62664.9	61977.45
793.2679	129.519	62535.9	61840.5
793.4094	131.7679	62702.45	62005.6
793.551	134.0163	62168.2	61461.05
793.6926	136.2642	62335.05	61629.35
793.8342	138.5117	62610.1	61893.3
793.9758	140.7587	62455.05	61747.35
794.1175	143.0052	62398.15	61688.35
794.2591	145.2512	62124.6	61412.75
794.4008	147.4967	62424.25	61713.2
794.5425	149.7417	62270.3	61555.05
794.6842	151.9863	62295.35	61580.5
794.826	154.2304	62086.65	61365.95
794.9677	156.4739	62175.4	61450.75
795.1095	158.717	62397.15	61671.05
795.2513	160.9596	62196.4	61466.1
795.3931	163.2017	61916.1	61182.3
795.535	165.4433	62164.1	61428.3
795.6768	167.6844	61961.3	61226.25
795.8187	169.925	62070.65	61330.5
795.9606	172.1651	61856.9	61120.6
796.1025	174.4047	61899.7	61156.9
796.2445	176.6439	61835.75	61093.2
796.3864	178.8825	61728.7	60977.45
796.5284	181.1206	61983.15	61231.9
796.6704	183.3582	61923.05	61165.3
796.8124	185.5954	61760.75	61000.9
796.9544	187.832	61796.75	61031.95
797.0965	190.0681	61608.25	60842.35
797.2386	192.3037	61920.15	61150.6
797.3806	194.5388	62229.8	61456.4
797.5228	196.7734	61419.05	60645.6
797.6649	199.0075	62155.7	61377.85
797.807	201.2411	61894.35	61113.25
797.9492	203.4742	62278.6	61494.45
798.0914	205.7068	62174.5	61394.75
798.2336	207.9389	62164.85	61380.55
798.3758	210.1704	62130.65	61342.2
798.518	212.4015	62411.75	61621.35
798.6603	214.632	62084.75	61290.15
798.8025	216.862	62472.6	61690.5
798.9448	219.0915	62286.7	61512.3
799.0871	221.3205	62246.45	61474.2
799.2294	223.549	62522.3	61751.55
799.3718	225.777	62473.2	61706.25
799.5141	228.0044	62624.9	61855.05
799.6565	230.2314	62548.25	61780.65
799.7989	232.4578	62543.8	61778.9
799.9413	234.6837	62597.1	61825
800.0837	236.909	63064.25	62289.5
800.2262	239.1339	62327.1	61526.8
800.3687	241.3582	62634.3	61843.85
800.5111	243.582	62644.1	61824.4
800.6536	245.8053	62635.55	61834.75
800.7961	248.0281	62668.05	61868.85
800.9387	250.2503	62775.4	61970.8
801.0812	252.472	62518.65	61706.05
801.2238	254.6932	62682.55	61865.6
801.3664	256.9139	62627.7	61811.25
801.509	259.134	63064.2	62244.55
801.6516	261.3536	62582.05	61766.55
801.7942	263.5727	62854.45	62036.15
801.9369	265.7912	62747.65	61927.3
802.0795	268.0092	62811.9	61996.55
802.2222	270.2267	62877.5	62059.4
802.3649	272.4436	62687.3	61865.4
802.5076	274.6601	62877.45	62053
802.6504	276.8759	62936.45	62116.05
802.7931	279.0913	62800.75	61977.75
802.9359	281.3061	62868.55	62041.75
803.0787	283.5204	62856.8	62027.8
803.2215	285.7341	62830.2	61998.05
803.3643	287.9473	63021.3	62177.15
803.5071	290.16	62885.2	62047.3
803.6499	292.3721	63019.45	62187.4
803.7928	294.5837	62850.55	62015.45
803.9357	296.7947	62731.35	61892.35
804.0786	299.0052	63062.55	62226.9
804.2215	301.2152	62914.65	62074.25
804.3644	303.4246	63011.4	62181.35
804.5074	305.6334	62973.15	62141.25
804.6503	307.8418	62685.15	61846.85
804.7933	310.0495	62624	61785.6
804.9363	312.2568	62564.8	61727.7
805.0793	314.4635	62516.5	61673.7
805.2223	316.6696	62618.1	61773.35
805.3653	318.8752	62699.95	61850.2
805.5084	321.0802	62229.45	61387.7
805.6514	323.2847	62441.6	61597.75
805.7945	325.4887	62434.05	61589.2
805.9376	327.692	62321.45	61469.25
806.0807	329.8949	62426.85	61579.55
806.2238	332.0972	62307.1	61457.05
806.367	334.2989	62373.05	61520.35
806.5101	336.5001	62470.45	61615.05
806.6533	338.7007	62092	61238
806.7965	340.9008	62261	61404.55
806.9397	343.1003	62266.6	61407.75
807.0829	345.2992	62397.35	61537.25
807.2261	347.4976	62153.15	61292.5
807.3693	349.6955	62227.5	61364.6
807.5126	351.8927	62076.4	61214.4
807.6559	354.0895	62214.85	61339.85
807.7991	356.2856	62194.7	61327.35
807.9424	358.4812	62346	61481.25
808.0857	360.6763	62053.15	61191.35
808.2291	362.8707	62293.85	61424.35
808.3724	365.0646	62135.05	61265.9
808.5158	367.258	62133.65	61262.9
808.6591	369.4508	61938.8	61065.45
808.8025	371.643	62251.55	61376.5
808.9459	373.8346	62109.25	61232.35
809.0893	376.0257	62115.8	61234.75
809.2327	378.2162	62033.35	61159.25
809.3762	380.4062	61815.35	60937.1
809.5196	382.5956	61989.55	61109.15
809.6631	384.7844	61960.2	61081.9
809.8066	386.9726	62058.65	61178.5
809.9501	389.1603	62018.9	61137.75
810.0936	391.3474	61771.05	60848.9
810.2371	393.5339	61966.6	61083.25
810.3806	395.7199	61638.75	60765.15
810.5241	397.9052	61696.75	60826.95
810.6677	400.09	61778.15	60908.35
810.8113	402.2743	61974.95	61106.9
810.9548	404.4579	61750.5	60881.25
811.0984	406.641	61788.2	60913
811.2421	408.8235	61901.55	61032.85
811.3857	411.0054	61930.1	61057.15
811.5293	413.1868	61993.05	61114.25
811.673	415.3675	61904.15	61023.6
811.8166	417.5477	61925	61048.8
811.9603	419.7273	61927.4	61049.95
812.104	421.9064	61843.7	60958.75
812.2477	424.0848	61854.35	60971.3
812.3914	426.2627	61995.75	61110.95
812.5351	428.4399	61692.85	60802.75
812.6788	430.6166	61424.1	60532.85
812.8226	432.7928	61647.3	60754.85
812.9663	434.9683	61390.3	60503.95
813.1101	437.1432	61321.65	60435.75
813.2539	439.3176	61494.7	60612.55
813.3977	441.4914	61178.3	60298.7
813.5415	443.6645	61244.45	60358.35
813.6853	445.8371	61240.55	60348.5
813.8291	448.0091	61047.7	60159.4
813.973	450.1806	60953.4	60063.9
814.1168	452.3514	60997.65	60112.75
814.2607	454.5216	60862	59971.65
814.4046	456.6913	60983.6	60095.9
814.5485	458.8603	61038.3	60153.45
814.6924	461.0288	60787.6	59905.8
814.8363	463.1967	61023.55	60140.95
814.9802	465.3639	60992.35	60104.3
815.1241	467.5306	60618.15	59728.4
815.2681	469.6967	60808	59923.45
815.412	471.8622	60947.5	60062.65
815.556	474.0271	60800.8	59914.1
815.7	476.1914	60857.15	59963.5
815.844	478.3551	60853.1	59960.7
815.988	480.5182	61062.15	60171.2
816.132	482.6807	60754.9	59871.75
816.276	484.8426	60838.6	59961.95
816.4201	487.0039	61168.45	60290.1
816.5641	489.1647	61187.55	60295.65
816.7082	491.3248	60924.15	60030.1
816.8522	493.4843	61259.25	60369.3
816.9963	495.6432	61240.1	60352.9
817.1404	497.8015	60884.5	59987.8
817.2845	499.9592	61071.55	60169.85
817.4286	502.1163	61003.25	60102.85
817.5727	504.2728	60926	60031.65
817.7168	506.4287	60875.25	59990.2
817.861	508.5839	60633.25	59741.25
818.0051	510.7386	60720	59828.85
818.1493	512.8927	60744.25	59839.65
818.2935	515.0461	60658.15	59757
818.4377	517.199	60814.7	59914.35
818.5818	519.3512	60697.75	59793.8
818.726	521.5029	60715.45	59809.55
818.8703	523.6539	60770.35	59872.05
819.0145	525.8043	60545.7	59643.1
819.1587	527.9541	60735.35	59828.9
819.303	530.1033	60697.8	59791.1
819.4472	532.2519	60560.95	59664.65
819.5915	534.3999	60680.8	59778.85
819.7357	536.5472	60811.15	59914.5
819.88	538.694	60524.6	59628.1
820.0243	540.8401	60771.15	59866.65
820.1686	542.9856	60762.6	59848.85
820.3129	545.1305	60859.3	59942.6
820.4572	547.2748	60708.15	59786.2
820.6016	549.4185	60622.2	59698.05
820.7459	551.5615	60734.25	59812.95
820.8902	553.704	60668.7	59751.4
821.0346	555.8458	60531.2	59617.8
821.1789	557.987	60596.3	59682.15
821.3233	560.1276	60707.3	59789.9
821.4677	562.2675	60684.9	59767.4
821.6121	564.4069	60777.4	59861.1
821.7565	566.5456	60983.25	60069.6
821.9009	568.6837	60752.6	59837.95
822.0453	570.8212	60747.9	59836.8
822.1897	572.958	60371.05	59458.45
822.3342	575.0942	60507.7	59600.9
822.4786	577.2299	60251.05	59345.6
822.6231	579.3648	60198.15	59306
822.7675	581.4992	60108.1	59220.05
822.912	583.6329	60096.3	59210.15
823.0565	585.766	60097.1	59207.2
823.201	587.8985	60157.7	59262.5
823.3454	590.0304	59925.05	58995.55
823.4899	592.1616	60146.95	59234.35
823.6345	594.2922	60000.9	59082.95
823.779	596.4222	59832.85	58914.55
823.9235	598.5515	59784.2	58863.4
824.068	600.6802	59827.05	58911.05
824.2126	602.8083	59612.65	58698.7
824.3571	604.9358	59601.4	58684.15
824.5017	607.0626	59729.9	58809.7
824.6462	609.1888	59545.95	58620.35
824.7908	611.3144	59676.25	58751.9
824.9354	613.4393	59581.2	58658.1
825.08	615.5636	59507.85	58583.45
825.2246	617.6873	59583.85	58660.25
825.3692	619.8103	59443.35	58520.1
825.5138	621.9327	59504.8	58580.25
825.6584	624.0544	59551.55	58634.7
825.803	626.1756	59428.65	58514.6
825.9477	628.2961	59372.6	58450.8
826.0923	630.4159	59253	58326.85
826.237	632.5351	59230.85	58308.5
826.3816	634.6537	59409.15	58486.45
826.5263	636.7716	59160.95	58234.95
826.6709	638.8889	59240.7	58312.55
826.8156	641.0056	59229.1	58298.8
826.9603	643.1216	59292.1	58361.7
827.105	645.237	59307.35	58380.5
827.2497	647.3518	59120.6	58198.45
827.3944	649.4659	59169.8	58253.85
827.5391	651.5793	59164.3	58247.7
827.6838	653.6922	59137.65	58218.1
827.8285	655.8043	58955.1	58035.2
827.9733	657.9159	59202.8	58282.8
828.118	660.0268	58729.5	57810.35
828.2627	662.137	58984.55	58059.1
828.4075	664.2466	58975.9	58044.3
828.5522	666.3556	58888.7	57961.15
828.697	668.4639	58911.1	57984.2
828.8418	670.5716	58823.15	57904.25
828.9865	672.6786	58898.4	57973.4
829.1313	674.785	58685.85	57753.55
829.2761	676.8907	58695.05	57771.6
829.4209	678.9958	58731.15	57808.05
829.5657	681.1002	58772.95	57848.85
829.7105	683.204	58581.3	57643.35
829.8553	685.3072	58512.2	57580.2
830.0001	687.4097	58524.9	57595.95
830.1449	689.5115	58489.45	57562.25
830.2898	691.6127	58583.75	57658.5
830.4346	693.7132	58427.15	57500.65
830.5794	695.8131	58480	57535.75
830.7243	697.9123	58530.15	57595.25
830.8691	700.0109	58567.4	57633.5
831.014	702.1089	58383.05	57451.7
831.1588	704.2061	58398.05	57467.15
831.3037	706.3028	58439.6	57503.9
831.4486	708.3987	58416.6	57480.4
831.5935	710.4941	58302.75	57373.9
831.7383	712.5887	58414	57482.65
831.8832	714.6827	58349.9	57415.8
832.0281	716.7761	58481.8	57553.55
832.173	718.8688	58529	57600.35
832.3179	720.9608	58412.1	57470.35
832.4628	723.0522	58463.7	57521.8
832.6077	725.1429	58341.35	57403.95
832.7527	727.233	58592.6	57654.75
832.8976	729.3224	58224.95	57288.2
833.0425	731.4112	58288.75	57354.8
833.1874	733.4993	58218.5	57280.65
833.3324	735.5867	58186.55	57249.55
833.4773	737.6735	58045.4	57110.6
833.6222	739.7596	57902.7	56966.3
833.7672	741.845	57840.9	56906.8
833.9122	743.9298	57850.7	56913.6
834.0571	746.014	57767.15	56835.1
834.2021	748.0974	57687.9	56745.55
834.347	750.1802	57776.3	56837.5
834.492	752.2624	57586.3	56650.1
834.637	754.3439	57560.3	56618.2
834.782	756.4247	57589.2	56639.9
834.9269	758.5048	57476.3	56533.9
835.0719	760.5843	57555.95	56615.5
835.2169	762.6631	57666.45	56721.4
835.3619	764.7413	57732.85	56791.05
835.5069	766.8188	57871.9	56930
835.6519	768.8956	57946.1	57006.4
835.7969	770.9718	58009.4	57072.85
835.9419	773.0473	57912.45	56972.55
836.0869	775.1221	57794.95	56856.8
836.232	777.1962	57676	56733.85
836.377	779.2697	57554.4	56612.2
836.522	781.3426	57610.35	56656.15
836.667	783.4147	57597.65	56657.35
836.8121	785.4862	57554.5	56611.05
836.9571	787.557	57430.85	56487.15
837.1021	789.6271	57399.45	56455.7
837.2472	791.6966	57140.7	56195.55
837.3922	793.7654	56751.4	55807.3
837.5373	795.8335	56693.9	55752.15
837.6823	797.901	56631.4	55686.5
837.8274	799.9678	56497.35	55551.45
837.9724	802.0339	56388.25	55442.65
838.1175	804.0993	56400.95	55442.2
838.2626	806.1641	56236.95	55292.65
838.4076	808.2282	56094.05	55151.5
838.5527	810.2916	55992.7	55047.2
838.6978	812.3544	56184.75	55243.05
838.8428	814.4164	55795.8	54852.05
838.9879	816.4778	55834.85	54887.55
839.133	818.5385	55901.5	54952.95
839.2781	820.5986	55862.2	54916.15
839.4232	822.658	56022.85	55073.15
839.5682	824.7166	56134.7	55185.75
839.7133	826.7747	56054.65	55110
839.8584	828.832	56298.3	55348.05
840.0035	830.8886	56446.6	55499.85
840.1486	832.9446	56470.3	55524.05
840.2937	834.9999	55885.2	54941.8
840.4388	837.0545	56044.8	55096.05
840.5839	839.1085	56094.5	55147.5
840.729	841.1618	55777.5	54828.05
840.8741	843.2143	55285	54340.65
841.0192	845.2662	55137	54190.3
841.1643	847.3175	55302.75	54354.6
841.3095	849.368	54709.3	53761.9
841.4546	851.4179	55104.65	54157
841.5997	853.467	54760.1	53814.65
841.7448	855.5155	54903.1	53954.2
841.8899	857.5633	54514.15	53566.65
842.0351	859.6105	54282.15	53335.35
842.1802	861.6569	54424	53477.6
842.3253	863.7027	54035.7	53085.35
842.4704	865.7478	54158.75	53209.95
842.6156	867.7922	54043.2	53091.7
842.7607	869.8359	54216.4	53270.15
842.9058	871.8789	53714.5	52766.7
843.0509	873.9212	53997.5	53015.75
843.1961	875.9629	53977.1	53028.3
843.3412	878.0039	53959.95	53011.25
843.4863	880.0441	53841.5	52893.2
843.6315	882.0837	53846.65	52900.35
843.7766	884.1226	53877.25	52929.8
843.9218	886.1609	53871.95	52922.55
844.0669	888.1984	53725.55	52773.75
844.212	890.2352	54075.25	53129.65
844.3572	892.2714	53618.35	52667.7
844.5023	894.3069	53766.15	52819.1
844.6475	896.3416	53411.2	52463.25
844.7926	898.3757	53304.35	52354.75
844.9377	900.4091	52742.3	51790.3
845.0829	902.4418	53381.25	52425.35
845.228	904.4739	52957.15	52002.05
845.3732	906.5052	53025.8	52076.05
845.5183	908.5358	52795.25	51841.55
845.6635	910.5658	52637.2	51683.95
845.8086	912.595	52509.35	51559.8
845.9538	914.6236	51938.65	50986.3
846.0989	916.6515	52523	51571.45
846.2441	918.6786	51773.45	50822.1
846.3892	920.7051	51850.05	50897.85
846.5344	922.7309	51778.25	50825.7
846.6795	924.756	51853.75	50904.65
846.8246	926.7804	51615.65	50664.1
846.9698	928.8041	51099.7	50148.7
847.1149	930.8272	51470.3	50522.2
847.2601	932.8495	51354.25	50403.95
847.4052	934.8711	51040.7	50083.2
847.5504	936.892	50803.75	49852.45
847.6955	938.9123	50901	49947.35
847.8407	940.9318	50729.9	49777.25
847.9858	942.9506	50585.8	49634.05
848.131	944.9688	50593.65	49642.5
848.2761	946.9862	50069.5	49119.55
848.4213	949.003	50061.65	49107.55
848.5664	951.019	49539.3	48586.55
848.7115	953.0344	49607.15	48653.65
848.8567	955.0491	49467.1	48513.55
849.0018	957.063	49630.55	48680.35
849.147	959.0763	49677.2	48722.15
849.2921	961.0888	49346.75	48397.35
849.4373	963.1007	49542.45	48594.6
849.5824	965.1119	49517.2	48573.4
849.7275	967.1223	49222.1	48280.75
849.8727	969.1321	49451.5	48512.25
850.0178	971.1412	49074.85	48132.85
850.1629	973.1495	48833.8	47884.25
850.3081	975.1572	48980.05	48015.8
850.4532	977.1641	48878.05	47924.5
850.5983	979.1704	48657.5	47706.05
850.7435	981.1759	48659.75	47706.95
850.8886	983.1808	48486.95	47535.5
851.0337	985.1849	48370.25	47408
851.1788	987.1884	48414.95	47464.05
851.324	989.1911	48587.6	47638.35
851.4691	991.1932	48105.15	47153.2
851.6142	993.1945	48108.75	47157.4
851.7593	995.1951	48038.3	47085
851.9045	997.1951	47821.35	46863.7
852.0496	999.1943	47636.45	46690.7
852.1947	1001.1928	47552.6	46598
852.3398	1003.1906	47505.45	46557.85
852.4849	1005.1877	47271.6	46319
852.63	1007.1841	47090	46143.4
852.7751	1009.1798	47053	46107.85
852.9202	1011.1748	46937.7	45988
853.0653	1013.1691	46734.8	45782.15
853.2104	1015.1627	46074.35	45122.55
853.3555	1017.1556	45841.95	44895.1
853.5006	1019.1477	45875.7	44929.1
853.6457	1021.1392	45421.15	44476
853.7908	1023.1299	45049.55	44110.45
853.9359	1025.12	45071.2	44138.8
854.081	1027.1093	44876.85	43952.85
854.2261	1029.0979	44901.05	43977.45
854.3712	1031.0859	44862.45	43933.6
854.5163	1033.0731	44515.2	43579.5
854.6613	1035.0596	44478.7	43537.9
854.8064	1037.0454	44183.05	43237.3
854.9515	1039.0304	44001.8	43054.55
855.0965	1041.0148	43608.45	42664.1
855.2416	1042.9985	43534.6	42584.95
855.3867	1044.9814	43572.8	42627
855.5317	1046.9636	43205.4	42256.85
855.6768	1048.9452	43043.7	42098.55
855.8219	1050.926	43052.25	42109.4
855.9669	1052.9061	42958.05	42009.1
856.112	1054.8855	42934.9	41986.25
856.257	1056.8642	42803.65	41855.25
856.4021	1058.8421	42761.2	41807.45
856.5471	1060.8194	42629.8	41682.15
856.6921	1062.7959	42559.9	41610.6
856.8372	1064.7717	42617.1	41667.5
856.9822	1066.7469	42570.9	41619.1
857.1272	1068.7213	42515.65	41568.15
857.2723	1070.695	42460.7	41511.65
857.4173	1072.6679	42217.55	41269.05
857.5623	1074.6402	42248.6	41302.3
857.7073	1076.6117	42115.95	41163.8
857.8523	1078.5826	42016.4	41068
857.9973	1080.5527	41820.95	40871.15
858.1423	1082.5221	41561.55	40614.15
858.2873	1084.4908	41565.5	40618.8
858.4323	1086.4587	41466.7	40517.3
858.5773	1088.426	41480.7	40530.35
858.7223	1090.3925	41298.7	40347.15
858.8673	1092.3584	41250.65	40300.9
859.0123	1094.3235	41002.45	40058.25
859.1573	1096.2879	40949.75	40002.2
859.3022	1098.2515	41057.55	40111.2
859.4472	1100.2145	41065.75	40119.8
859.5922	1102.1767	41031.85	40084.4
859.7371	1104.1382	41184.65	40237.45
859.8821	1106.099	41229.45	40279.3
860.027	1108.0591	41298.3	40352.9
860.172	1110.0185	41228.65	40279.85
860.3169	1111.9771	41382.15	40438.05
860.4619	1113.9351	41069.8	40121.1
860.6068	1115.8923	40791	39843.7
860.7517	1117.8488	40522.2	39575.1
860.8967	1119.8045	40161.8	39219.7
861.0416	1121.7596	40104.4	39158.05
861.1865	1123.7139	39808.5	38865.3
861.3314	1125.6675	39731.15	38785.45
861.4763	1127.6204	39793.6	38848.35
861.6212	1129.5726	39597.45	38652.15
861.7661	1131.524	39530.4	38583.25
861.911	1133.4748	39377.25	38432.8
862.0559	1135.4248	39083.05	38138.95
862.2008	1137.3741	38898.6	37952.4
862.3457	1139.3226	38787.2	37840.4
862.4905	1141.2705	38715.6	37769.55
862.6354	1143.2176	38397.4	37445.1
862.7803	1145.164	38332.45	37387.2
862.9251	1147.1097	38225.35	37278.55
863.07	1149.0546	38114.3	37169.7
863.2148	1150.9989	38017.7	37069.35
863.3597	1152.9424	37828.75	36883.3
863.5045	1154.8852	37689.3	36745.35
863.6493	1156.8272	37603.9	36658.45
863.7942	1158.7686	37612.7	36660.55
863.939	1160.7092	37464.4	36517.2
864.0838	1162.6491	37303.7	36353.1
864.2286	1164.5883	37424	36480.7
864.3734	1166.5267	37304.8	36358.95
864.5182	1168.4644	37398.5	36452.95
864.663	1170.4014	37568.5	36622.75
864.8078	1172.3377	37751.4	36810.55
864.9526	1174.2732	37856.35	36914.15
865.0974	1176.2081	38164.65	37220.65
865.2421	1178.1421	38401.6	37453.25
865.3869	1180.0755	38796.3	37852.25
865.5317	1182.0082	38879.55	37937.9
865.6764	1183.9401	38953	38008.8
865.8212	1185.8713	38704.95	37765.85
865.9659	1187.8017	38391.55	37459.95
866.1106	1189.7315	38030.75	37104.85
866.2554	1191.6605	37519.95	36592.3
866.4001	1193.5888	37207.2	36279.35
866.5448	1195.5163	37041.4	36106.95
866.6895	1197.4432	36853.45	35911.25
866.8342	1199.3693	36756	35813.9
866.9789	1201.2947	36512	35564.9
867.1236	1203.2193	36435.65	35495.65
867.2683	1205.1432	36344.1	35400.2
867.413	1207.0664	36262.25	35324
867.5576	1208.9889	36094.35	35150
867.7023	1210.9106	35984.25	35043.65
867.847	1212.8316	35821.85	34881.25
867.9916	1214.7519	35772.05	34820.95
868.1363	1216.6715	35723.65	34779.95
868.2809	1218.5903	35744.8	34806.4
868.4255	1220.5084	35670.8	34731.5
868.5701	1222.4257	35723	34781.2
868.7148	1224.3424	35586.75	34650.1
868.8594	1226.2583	35607.4	34666.85
869.004	1228.1735	35661.9	34724.75
869.1486	1230.0879	35608.15	34667.15
869.2932	1232.0016	35694.25	34754.3
869.4377	1233.9146	35695.05	34754.8
869.5823	1235.8269	35579.4	34638.9
869.7269	1237.7384	35523.5	34582.5
869.8715	1239.6492	35260.35	34320.7
870.016	1241.5592	35173.65	34236.55
870.1606	1243.4686	35136.25	34198.25
870.3051	1245.3772	35144.9	34205.35
870.4496	1247.285	35214.4	34277.5
870.5941	1249.1922	35218.05	34280.15
870.7387	1251.0986	35288.2	34350.15
870.8832	1253.0042	35238.6	34301.45
871.0277	1254.9092	35264.5	34327.8
871.1722	1256.8134	35273.25	34336.75
871.3167	1258.7169	35320.8	34381.6
871.4611	1260.6196	35363.85	34427.5
871.6056	1262.5216	35554.45	34616.3
871.7501	1264.4229	35616.1	34677.9
871.8945	1266.3234	35684.45	34744.95
872.039	1268.2232	35780.45	34839.4
872.1834	1270.1223	35745.05	34802.6
872.3278	1272.0207	35632.65	34693.2
872.4723	1273.9183	35549.45	34603.1
872.6167	1275.8151	35417.4	34478.85
872.7611	1277.7113	35399.25	34461.25
872.9055	1279.6067	35307.2	34368.3
873.0499	1281.5014	35394.8	34453.25
873.1943	1283.3953	35692.85	34756
873.3386	1285.2885	35989.45	35052.95
873.483	1287.181	36328.6	35391.45
873.6274	1289.0727	36677.35	35742.05
873.7717	1290.9637	36798.4	35862.5
873.9161	1292.854	36982.35	36045.4
874.0604	1294.7435	36860.45	35922.25
874.2047	1296.6323	36739.75	35798.75
874.349	1298.5204	36589.25	35651
874.4933	1300.4077	36372.9	35437.55
874.6376	1302.2943	36185.05	35247.3
874.7819	1304.1802	35938.9	35001.05
874.9262	1306.0653	35482.9	34543.55
875.0705	1307.9497	35054.45	34117.2
875.2147	1309.8333	34713.95	33779.5
875.359	1311.7162	34486.4	33549.95
875.5032	1313.5984	34287.4	33347.4
875.6475	1315.4798	34129.25	33177.25
875.7917	1317.3605	33977.95	33025.8
875.9359	1319.2405	33868.8	32925.35
876.0801	1321.1197	33620.05	32681.7
876.2243	1322.9982	33352.4	32409
876.3685	1324.876	33180.45	32243.05
876.5127	1326.753	32828.1	31889.25
876.6569	1328.6293	32640.85	31701.9
876.801	1330.5048	32532.1	31592.45
876.9452	1332.3796	32320.25	31383.85
877.0893	1334.2537	32239.5	31279.6
877.2335	1336.127	32063.75	31127.6
877.3776	1337.9996	32001.65	31065.4
877.5217	1339.8714	31946.75	31009.9
877.6658	1341.7426	31859.95	30879.25
877.8099	1343.6129	31808.05	30867.55
877.954	1345.4826	31796	30854.95
878.0981	1347.3515	31728	30788.2
878.2422	1349.2196	31647.55	30711.25
878.3862	1351.087	31683.15	30743.15
878.5303	1352.9537	31636.6	30698.45
878.6743	1354.8197	31700.7	30762.5
878.8184	1356.6849	31866	30925.95
878.9624	1358.5493	31912.7	30975.45
879.1064	1360.4131	31974.95	31037.5
879.2504	1362.276	31991.05	31055.8
879.3944	1364.1383	31899.7	30962.15
879.5384	1365.9998	31646.75	30707.05
879.6823	1367.8606	31331.35	30393.35
879.8263	1369.7206	30958	30018.75
879.9702	1371.5799	30665.1	29728.55
880.1142	1373.4384	30330.2	29392.1
880.2581	1375.2962	30144.35	29205.2
880.402	1377.1533	29766.95	28831.85
880.5459	1379.0096	29335.9	28403.3
880.6898	1380.8652	29034.4	28102.45
880.8337	1382.7201	28739.3	27807.6
880.9776	1384.5742	28429.6	27495.7
881.1215	1386.4275	28188	27253.7
881.2653	1388.2802	27996	27065.4
881.4092	1390.132	27829.35	26893.85
881.553	1391.9832	27737.25	26799.55
881.6968	1393.8336	27564.45	26626.65
881.8406	1395.6832	27436.25	26497.35
881.9844	1397.5322	27322.2	26387.55
882.1282	1399.3803	27183.85	26244.15
882.272	1401.2278	27076.6	26140.45
882.4158	1403.0745	27002.35	26067.95
882.5595	1404.9204	26882.9	25948.6
882.7033	1406.7656	26880.85	25944.7
882.847	1408.6101	26759.25	25825.05
882.9908	1410.4538	26715.85	25778.4
883.1345	1412.2968	26691.15	25754.6
883.2782	1414.139	26660.6	25726.85
883.4219	1415.9805	26633.95	25700
883.5656	1417.8213	26621.85	25667.7
883.7092	1419.6613	26631.9	25697.5
883.8529	1421.5006	26718.3	25785.65
883.9965	1423.3391	26809.9	25875.6
884.1402	1425.1769	26944.4	26012.75
884.2838	1427.0139	27270.45	26335.95
884.4274	1428.8502	27678.35	26740.95
884.571	1430.6858	28051.55	27114.25
884.7146	1432.5206	28238.75	27308.35
884.8582	1434.3547	28377.35	27445.95
885.0018	1436.188	28373.2	27442.15
885.1453	1438.0206	28267.5	27334.15
885.2889	1439.8524	28032.45	27098.1
885.4324	1441.6835	27878.8	26944.6
885.5759	1443.5139	27776.75	26839.35
885.7194	1445.3435	27616.2	26687.65
885.8629	1447.1724	27606.15	26673.2
886.0064	1449.0005	27493.05	26565.1
886.1499	1450.8279	27417.95	26484.05
886.2933	1452.6545	27433.1	26504.4
886.4368	1454.4804	27417.65	26483.25
886.5802	1456.3056	27312.3	26372.65
886.7237	1458.13	27159.1	26228.85
886.8671	1459.9536	27079.7	26145.85
887.0105	1461.7766	26793.55	25860.8
887.1539	1463.5987	26520.15	25587.05
887.2972	1465.4202	26194.8	25259.6
887.4406	1467.2409	25814.35	24883
887.584	1469.0608	25595.55	24665.8
887.7273	1470.88	25320.15	24385
887.8706	1472.6984	25149.15	24220.45
888.0139	1474.5161	24912.35	23978.1
888.1572	1476.3331	24732.5	23802.8
888.3005	1478.1493	24596.2	23663.3
888.4438	1479.9648	24499.2	23565.2
888.5871	1481.7795	24393.45	23464.35
888.7303	1483.5935	24362.95	23432.6
888.8736	1485.4067	24211.6	23278.8
889.0168	1487.2192	24165.3	23234.15
889.16	1489.031	24105.25	23173.25
889.3032	1490.842	24033.75	23105.3
889.4464	1492.6522	23958.4	23030.9
889.5896	1494.4618	23881.85	22951.1
889.7327	1496.2705	23829.3	22900.05
889.8759	1498.0785	23729.6	22797.1
890.019	1499.8858	23665.75	22734.55
890.1622	1501.6924	23593.75	22662.75
890.3053	1503.4981	23567.1	22638
890.4484	1505.3032	23468.55	22538.3
890.5914	1507.1075	23406.8	22474.7
890.7345	1508.911	23340.25	22412.8
890.8776	1510.7138	23305.1	22375.8
891.0206	1512.5159	23164.5	22236.85
891.1637	1514.3172	23073.1	22146
891.3067	1516.1178	22972.6	22044.5
891.4497	1517.9176	22918.65	21987
891.5927	1519.7166	22853.95	21927.15
891.7357	1521.515	22766.6	21833.2
891.8786	1523.3126	22686.35	21760.4
892.0216	1525.1094	22636.3	21705.7
892.1645	1526.9055	22508.3	21582.3
892.3074	1528.7008	22453.6	21528.55
892.4503	1530.4954	22329.7	21396.45
892.5932	1532.2893	22316.5	21393.35
892.7361	1534.0824	22183.05	21257.65
892.879	1535.8747	22163	21239.95
893.0218	1537.6663	22079.25	21157
893.1647	1539.4572	22019.4	21096.1
893.3075	1541.2473	22010.6	21087.8
893.4503	1543.0367	21937.15	21013.75
893.5931	1544.8253	21852.4	20922.25
893.7359	1546.6132	21878.7	20952.25
893.8787	1548.4003	21813.95	20880.7
894.0214	1550.1867	21818.7	20889.35
894.1642	1551.9723	21781.6	20854.7
894.3069	1553.7572	21848.6	20925.2
894.4496	1555.5414	21860.55	20943.2
894.5923	1557.3247	21910.3	20991.75
894.735	1559.1074	21969.65	21056.6
894.8777	1560.8893	22020.45	21103.95
895.0204	1562.6705	22080.3	21163.55
895.163	1564.4509	22162.05	21246.75
895.3056	1566.2305	22124.55	21211.45
895.4482	1568.0094	22200.75	21283.85
895.5908	1569.7876	22177.25	21263.15
895.7334	1571.565	22147.2	21227.7
895.876	1573.3417	22114.05	21197.55
896.0186	1575.1176	22035.3	21120.35
896.1611	1576.8928	22000.95	21087.6
896.3036	1578.6672	21913.85	21005.65
896.4461	1580.4409	21875.35	20969
896.5886	1582.2138	21800.15	20886.3
896.7311	1583.986	21782.55	20867.2
896.8736	1585.7575	21823.4	20908
897.0161	1587.5282	21828.1	20919.7
897.1585	1589.2981	21870.25	20961.9
897.3009	1591.0673	21833.85	20926.5
897.4433	1592.8358	21863.3	20956.2
897.5857	1594.6035	21907.7	20993.7
897.7281	1596.3704	21936.05	21024
897.8705	1598.1366	21917	21005.35
898.0128	1599.9021	21962.25	21052.9
898.1551	1601.6668	21984.15	21070.2
898.2975	1603.4308	22001.8	21087.95
898.4398	1605.194	22095.35	21181.65
898.5821	1606.9564	22234.2	21329.8
898.7243	1608.7182	22403.85	21499
898.8666	1610.4791	22546.65	21647.1
899.0088	1612.2394	22723.45	21824.35
899.1511	1613.9988	22900.95	21999.7
899.2933	1615.7576	23147	22241.9
899.4355	1617.5156	23289.65	22372.65
899.5776	1619.2728	23363	22450.65
899.7198	1621.0293	23284.2	22372.45
899.862	1622.785	23080.3	22170.15
900.0041	1624.54	22771.6	21865.35
900.1462	1626.2942	22449.75	21543.25
900.2883	1628.0477	22060.45	21153.55
900.4304	1629.8005	21749.1	20840.3
900.5725	1631.5525	21407.9	20501.4
900.7145	1633.3037	21164.2	20260.25
900.8566	1635.0542	20997	20095.05
900.9986	1636.804	20790.5	19884.3
901.1406	1638.553	20729.8	19772.55
901.2826	1640.3013	20564.55	19659.5
901.4245	1642.0488	20437.1	19529.6
901.5665	1643.7955	20452.8	19549.55
901.7085	1645.5416	20437.65	19533.95
901.8504	1647.2868	20496.45	19590.95
901.9923	1649.0313	20491.95	19584.95
902.1342	1650.7751	20608.1	19699.05
902.2761	1652.5181	20685.3	19783.8
902.4179	1654.2604	20751.2	19847.35
902.5598	1656.0019	20926.85	20025.05
902.7016	1657.7427	21064.2	20159.45
902.8434	1659.4828	21236.9	20328.3
902.9852	1661.222	21341.35	20433.65
903.127	1662.9606	21270.65	20364.35
903.2687	1664.6984	21114.25	20207.15
903.4105	1666.4354	20697.05	19787.2
903.5522	1668.1717	20237.5	19328.35
903.6939	1669.9072	19710.45	18801.8
903.8356	1671.642	19269.3	18358.9
903.9773	1673.3761	18950.6	18042.3
904.119	1675.1094	18657.25	17752.5
904.2606	1676.8419	18444.5	17537.55
904.4022	1678.5737	18213.3	17305.65
904.5439	1680.3048	18044.3	17135.45
904.6855	1682.0351	17881.7	16973.7
904.827	1683.7646	17719.5	16808.6
904.9686	1685.4934	17661.2	16755.45
905.1101	1687.2215	17552.5	16648.4
905.2517	1688.9488	17455.5	16553.7
905.3932	1690.6754	17344	16441.1
905.5347	1692.4012	17270.85	16366.4
905.6761	1694.1263	17172.35	16267.1
905.8176	1695.8506	17119.05	16213.8
905.9591	1697.5742	17033.45	16131.4
906.1005	1699.297	16960.35	16061.3
906.2419	1701.0191	16870.8	15970.2
906.3833	1702.7404	16785.35	15882.35
906.5246	1704.461	16689.8	15787.35
906.666	1706.1808	16620.95	15716.85
906.8073	1707.8999	16585.05	15684.15
906.9487	1709.6182	16504.25	15605.85
907.09	1711.3358	16447.6	15551.45
907.2313	1713.0527	16388.65	15491.35
907.3725	1714.7688	16339.85	15435
907.5138	1716.4841	16288.35	15383.7
907.655	1718.1987	16228.35	15322.25
907.7962	1719.9126	16177.6	15280.4
907.9374	1721.6257	16130.7	15232.55
908.0786	1723.338	16072.5	15175
908.2198	1725.0496	15973.85	15073.35
908.3609	1726.7605	15955.15	15053.55
908.502	1728.4706	15938.75	15039.2
908.6431	1730.18	15848.25	14947
908.7842	1731.8886	15759.6	14862.6
908.9253	1733.5964	15749.5	14843.25
909.0664	1735.3036	15728.55	14828.45
909.2074	1737.0099	15668.35	14769.05
909.3484	1738.7156	15660.15	14763.6
909.4894	1740.4204	15561.2	14659.85
909.6304	1742.1246	15547.6	14647.5
909.7714	1743.8279	15509.55	14610
909.9123	1745.5306	15435.55	14538.7
910.0532	1747.2325	15382.85	14485.05
910.1941	1748.9336	15375.2	14477.3
910.335	1750.634	15260.25	14358.5
910.4759	1752.3336	15215.35	14315.75
910.6168	1754.0325	15213	14318.4
910.7576	1755.7307	15180.6	14281.65
910.8984	1757.4281	15163.45	14266.45
911.0392	1759.1247	15167.85	14258.25
911.18	1760.8206	15105.55	14199.8
911.3208	1762.5158	15085.1	14179.85
911.4615	1764.2102	15011.95	14113.4
911.6022	1765.9039	14975.15	14078.65
911.7429	1767.5968	14955.1	14060.75
911.8836	1769.289	14889.95	13995.3
912.0243	1770.9804	14864.1	13966.6
912.1649	1772.6711	14828.45	13929.1
912.3056	1774.361	14789.2	13888.45
912.4462	1776.0502	14777.15	13875.6
912.5868	1777.7386	14742.7	13838.95
912.7274	1779.4263	14699.75	13802.4
912.8679	1781.1132	14674.7	13778.45
913.0084	1782.7994	14606.7	13712.3
913.149	1784.4849	14608.8	13715.45
913.2895	1786.1696	14539.8	13639.1
913.4299	1787.8535	14502.25	13607.05
913.5704	1789.5367	14446.8	13553.35
913.7108	1791.2192	14474.95	13579.55
913.8513	1792.9009	14444.15	13520.7
913.9917	1794.5818	14396.4	13497.95
914.132	1796.2621	14348.5	13452.8
914.2724	1797.9415	14333.4	13434.2
914.4128	1799.6202	14241	13341.9
914.5531	1801.2982	14237.85	13341.35
914.6934	1802.9755	14210	13309.7
914.8337	1804.6519	14215.65	13315.55
914.9739	1806.3277	14133.2	13235.7
915.1142	1808.0027	14069.95	13178.75
915.2544	1809.6769	14046.2	13154.05
915.3946	1811.3504	14020.7	13125.25
915.5348	1813.0231	13962.9	13068.6
915.675	1814.6951	13980.5	13086.25
915.8151	1816.3664	13971.35	13072.1
915.9553	1818.0369	13923	13025.8
916.0954	1819.7067	13894.4	12998.75
916.2355	1821.3757	13854.5	12953.9
916.3755	1823.044	13851.05	12953.55
916.5156	1824.7115	13803.9	12904.45
916.6556	1826.3783	13759	12863.3
916.7956	1828.0443	13714.95	12816.75
916.9356	1829.7096	13678.05	12780.5
917.0756	1831.3741	13719.45	12819.15
917.2155	1833.0379	13644.6	12749.45
917.3555	1834.701	13612.2	12715.9
917.4954	1836.3633	13598.65	12705.75
917.6353	1838.0248	13562.65	12665.95
917.7751	1839.6856	13511.35	12615.1
917.915	1841.3457	13525.95	12629.5
918.0548	1843.005	13455.6	12558.5
918.1946	1844.6636	13442.35	12546.3
918.3344	1846.3214	13410.8	12513.75
918.4742	1847.9785	13400.7	12504.45
918.6139	1849.6349	13365.9	12469.55
918.7537	1851.2904	13329.2	12421.9
918.8934	1852.9453	13282.65	12381.85
919.0331	1854.5994	13259.55	12359.75
919.1727	1856.2528	13276.45	12372.6
919.3124	1857.9054	13212.5	12312.5
919.452	1859.5572	13195.7	12301.4
919.5916	1861.2083	13155.2	12256.9
919.7312	1862.8587	13185.15	12287.55
919.8708	1864.5084	13135.45	12236.1
920.0103	1866.1572	13111	12212.55
920.1498	1867.8054	13038.85	12138.6
920.2893	1869.4528	13012.7	12113.55
920.4288	1871.0994	12985.45	12087.35
920.5683	1872.7453	12989.3	12094.2
920.7077	1874.3905	12917.95	12013.9
920.8471	1876.0349	12896.6	11998.95
920.9865	1877.6786	12908.05	12008.15
921.1259	1879.3215	12881.5	11983.7
921.2653	1880.9637	12842.8	11946
921.4046	1882.6051	12800.15	11904.5
921.5439	1884.2458	12801.75	11903.2
921.6832	1885.8858	12742.65	11846.3
921.8225	1887.525	12714.9	11817.15
921.9617	1889.1634	12677.25	11781.25
922.101	1890.8011	12629.95	11731.6
922.2402	1892.4381	12601.95	11706.15
922.3794	1894.0743	12579.45	11682.9
922.5185	1895.7098	12561.5	11665.4
922.6577	1897.3446	12532.75	11634.2
922.7968	1898.9786	12519.7	11619.15
922.9359	1900.6118	12457.55	11560.2
923.075	1902.2443	12448.95	11551
923.214	1903.8761	12409.6	11512.4
923.3531	1905.5071	12315.55	11418.45
923.4921	1907.1374	12320.55	11424.4
923.6311	1908.7669	12278.35	11380.1
923.77	1910.3957	12269.9	11374.9
923.909	1912.0237	12195.6	11298.2
924.0479	1913.651	12177.15	11280.8
924.1868	1915.2776	12142.85	11246.95
924.3257	1916.9034	12106.2	11212.15
924.4646	1918.5285	12064.5	11171.2
924.6034	1920.1528	11992.8	11096.75
924.7422	1921.7764	12009.65	11115.2
924.881	1923.3992	11938.45	11043.15
925.0198	1925.0213	11864.25	10970
925.1586	1926.6427	11836.85	10941.7
925.2973	1928.2633	11868.35	10901.9
925.436	1929.8832	11786.1	10887.3
925.5747	1931.5023	11749.95	10854.5
925.7134	1933.1207	11727.3	10831.15
925.852	1934.7383	11724.7	10830.5
925.9906	1936.3552	11658.25	10762.85
926.1292	1937.9714	11602.55	10707.15
926.2678	1939.5868	11561.1	10662.4
926.4064	1941.2015	11506.85	10612.15
926.5449	1942.8154	11465.75	10569.55
926.6834	1944.4286	11419	10521.45
926.8219	1946.041	11432.7	10512.75
926.9604	1947.6528	11368.35	10465.75
927.0988	1949.2637	11329.45	10434.9
927.2372	1950.8739	11282.55	10388.8
927.3756	1952.4834	11247.45	10351.45
927.514	1954.0921	11233.7	10340.1
927.6523	1955.7001	11184.35	10286.45
927.7907	1957.3074	11171.25	10280.65
927.929	1958.9139	11114.15	10222.7
928.0673	1960.5197	11096.1	10201.55
928.2055	1962.1247	11064.45	10170
928.3438	1963.729	11015.15	10124.6
928.482	1965.3325	10995.05	10079.15
928.6202	1966.9353	10943	10052.9
928.7584	1968.5374	10895.95	10001.65
928.8965	1970.1387	10887.6	9996.15
929.0346	1971.7393	10857.85	9964.45
929.1727	1973.3392	10800.85	9907.9
929.3108	1974.9383	10771.95	9880.4
929.4489	1976.5366	10722.8	9832.7
929.5869	1978.1342	10682.15	9790.25
929.7249	1979.7311	10687.05	9794.45
929.8629	1981.3273	10682	9791.2
930.0009	1982.9227	10632.75	9740.5
930.1388	1984.5173	10588.75	9698.85
930.2767	1986.1112	10556.1	9666.3
930.4146	1987.7044	10526.75	9635.95
930.5525	1989.2968	10505.75	9614.75
930.6904	1990.8885	10472.15	9577.9
930.8282	1992.4795	10462.95	9569.15
930.966	1994.0697	10422.2	9533.1
931.1038	1995.6592	10376.2	9485.05
931.2415	1997.2479	10370.8	9480.55
931.3793	1998.8359	10324.35	9435.2
931.517	2000.4232	10289.4	9402.75
931.6547	2002.0097	10280.15	9396.4
931.7923	2003.5955	10214.25	9325.9
931.93	2005.1805	10224	9333.35
932.0676	2006.7648	10197.4	9310.8
932.2052	2008.3484	10147.2	9259
932.3427	2009.9312	10136.25	9247.75
932.4803	2011.5133	10110.15	9225.8
932.6178	2013.0946	10074.85	9187.7
932.7553	2014.6752	10027.1	9141
932.8928	2016.2551	10003.35	9111.75
933.0302	2017.8342	9983.8	9094.35
933.1676	2019.4126	9964.65	9078.65
933.305	2020.9902	9933.75	9049.9
933.4424	2022.5672	9895.85	9010.6
933.5798	2024.1433	9871.95	8979
933.7171	2025.7188	9850.15	8967.8
933.8544	2027.2935	9829.15	8941.3
933.9917	2028.8674	9777.8	8892.6
934.129	2030.4406	9755.65	8872.55
934.2662	2032.0131	9707.7	8823.5
934.4034	2033.5849	9700.65	8813.55
934.5406	2035.1559	9682.1	8798.35
934.6778	2036.7261	9657.85	8769.55
934.8149	2038.2957	9628.65	8741.6
934.952	2039.8645	9608.25	8719
935.0891	2041.4325	9636.95	8743.2
935.2262	2042.9998	9574	8686.35
935.3632	2044.5664	9514.95	8627.2
935.5002	2046.1323	9522.4	8637.4
935.6372	2047.6974	9506.5	8621.7
935.7742	2049.2617	9482.85	8596
935.9111	2050.8254	9469.25	8558.35
936.048	2052.3883	9429.7	8539.2
936.1849	2053.9504	9416.65	8529.2
936.3218	2055.5118	9389.55	8500.25
936.4586	2057.0725	9339.75	8447.3
936.5955	2058.6325	9305.5	8417.65
936.7323	2060.1917	9282.1	8394.7
936.869	2061.7502	9283	8394.3
937.0058	2063.3079	9252.5	8368.5
937.1425	2064.8649	9218.6	8329.15
937.2792	2066.4212	9203.35	8315.15
937.4159	2067.9767	9181.2	8294.35
937.5525	2069.5315	9147.1	8258.05
937.6891	2071.0856	9081.15	8192.25
937.8257	2072.6389	9068.6	8181.7
937.9623	2074.1915	9053.35	8170.1
938.0989	2075.7433	9007.4	8118.9
938.2354	2077.2945	8988.95	8103.2
938.3719	2078.8448	8963.5	8073.9
938.5084	2080.3945	8931.5	8041.95
938.6448	2081.9434	8917.25	8028.65
938.7812	2083.4916	8893.3	8000.65
938.9176	2085.039	8881.1	7987.65
939.054	2086.5857	8867.2	7970.25
939.1903	2088.1317	8835.1	7941.45
939.3267	2089.677	8824.7	7932.25
939.463	2091.2215	8783.45	7890.05
939.5992	2092.7652	8748.7	7850.8
939.7355	2094.3083	8748.5	7854.75
939.8717	2095.8506	8735.5	7844.75
940.0079	2097.3921	8732.15	7843.15
940.1441	2098.933	8669.75	7780.2
940.2802	2100.4731	8660.2	7770.7
940.4163	2102.0124	8661.85	7763.75
940.5524	2103.5511	8624.4	7732.6
940.6885	2105.089	8636.6	7746.1
940.8245	2106.6261	8592.45	7702.05
940.9606	2108.1626	8581	7689.95
941.0965	2109.6983	8559.9	7642.1
941.2325	2111.2332	8521.55	7630.85
941.3684	2112.7675	8513.4	7620.15
941.5044	2114.301	8478.8	7584.95
941.6403	2115.8337	8469.2	7576.3
941.7761	2117.3657	8457.65	7568.4
941.912	2118.897	8427.65	7537.15
942.0478	2120.4276	8432.05	7534.3
942.1835	2121.9575	8377.45	7482.45
942.3193	2123.4866	8382	7487.1
942.455	2125.0149	8350	7457.9
942.5907	2126.5426	8270.1	7383.65
942.7264	2128.0695	8278.8	7389.05
942.8621	2129.5956	8278.9	7392.55
942.9977	2131.1211	8237	7344.5
943.1333	2132.6458	8219.7	7327.55
943.2689	2134.1698	8186.1	7293.7
943.4044	2135.693	8177.5	7281.3
943.54	2137.2155	8188.55	7291.9
943.6755	2138.7373	8157.3	7265
943.8109	2140.2584	8109.55	7222.1
943.9464	2141.7787	8111.65	7220.55
944.0818	2143.2983	8073.5	7188.25
944.2172	2144.8171	8032.3	7148.85
944.3526	2146.3353	7998.8	7109
944.4879	2147.8527	7982.35	7094.65
944.6232	2149.3693	7975.15	7083
944.7585	2150.8853	7958.35	7064.85
944.8938	2152.4005	7920.85	7025.7
945.029	2153.9149	7914.6	7023.05
945.1642	2155.4287	7980.2	6988.1
945.2994	2156.9417	7931.05	7037.9
945.4346	2158.454	7870.9	6979.5
945.5697	2159.9655	7853.4	6965.95
945.7048	2161.4764	7854.35	6965.3
945.8399	2162.9865	7801.3	6911.65
945.9749	2164.4958	7799.8	6910.6
946.1099	2166.0045	7759.9	6870.2
946.2449	2167.5124	7749.95	6859
946.3799	2169.0195	7748.45	6857.5
946.5148	2170.526	7727.65	6835.3
946.6498	2172.0317	7685	6793.35
946.7846	2173.5367	7686.7	6796.75
946.9195	2175.0409	7660.3	6771.45
947.0543	2176.5445	7625.95	6735.3
947.1891	2178.0473	7625.05	6732.4
947.3239	2179.5494	7585.05	6690.3
947.4587	2181.0507	7546.05	6653.7
947.5934	2182.5513	7549.15	6657.55
947.7281	2184.0512	7520.4	6629.8
947.8628	2185.5504	7493.7	6601.85
947.9974	2187.0488	7473.35	6584.65
948.132	2188.5465	7451.8	6564.3
948.2666	2190.0435	7429.3	6540.45
948.4012	2191.5397	7404.1	6512.9
948.5357	2193.0353	7396.4	6504
948.6702	2194.5301	7358.9	6464.4
948.8047	2196.0241	7345.2	6448.75
948.9392	2197.5175	7318.2	6422.2
949.0736	2199.0101	7291.65	6394
949.208	2200.502	7260.9	6369.2
949.3424	2201.9931	7217	6326.4
949.4767	2203.4835	7210.9	6318.4
949.611	2204.9733	7204.8	6300.55
949.7453	2206.4622	7194.75	6305.9
949.8796	2207.9505	7153.9	6264.35
950.0138	2209.438	7108.45	6225.15
950.148	2210.9248	7092.4	6201.85
950.2822	2212.4109	7070.35	6180.95
950.4164	2213.8962	7078.85	6183.4
950.5505	2215.3809	7063.05	6168.4
950.6846	2216.8648	7030.65	6134.25
950.8186	2218.3479	7026.25	6123.6
950.9527	2219.8304	7001.6	6102.7
951.0867	2221.3121	6949.95	6054.2
951.2207	2222.7931	6926.65	6033.4
951.3546	2224.2733	6933.2	6040.2
951.4886	2225.7529	6894.05	6000.65
951.6225	2227.2317	6876.5	5985.45
951.7563	2228.7098	6854.3	5965.25
951.8902	2230.1872	6830.3	5944.4
952.024	2231.6638	6818.4	5932.5
952.1578	2233.1397	6793.9	5901.2
952.2916	2234.6149	6799.65	5909.8
952.4253	2236.0894	6763.2	5872.85
952.559	2237.5632	6751.95	5857.7
952.6927	2239.0362	6710.05	5820.25
952.8263	2240.5085	6695.65	5805
952.9599	2241.9801	6687.45	5795.5
953.0935	2243.4509	6668.7	5777.65
953.2271	2244.921	6623.85	5729.4
953.3606	2246.3904	6600.9	5704.8
953.4941	2247.8591	6583.75	5690.85
953.6276	2249.3271	6578.85	5685.4
953.7611	2250.7943	6553.65	5657.7
953.8945	2252.2608	6538.2	5645.6
954.0279	2253.7266	6523.05	5630.15
954.1612	2255.1917	6526.85	5635.6
954.2946	2256.656	6486.9	5595.05
954.4279	2258.1197	6459.15	5571.55
954.5612	2259.5826	6449.45	5558.4
954.6944	2261.0447	6447.55	5556.4
954.8276	2262.5062	6431.15	5536.25
954.9608	2263.9669	6392.9	5495.9
955.094	2265.4269	6405.55	5513.6
955.2271	2266.8862	6381	5489.6
955.3602	2268.3448	6380.4	5489.55
955.4933	2269.8026	6374.05	5482.8
955.6264	2271.2598	6344.7	5455.5
955.7594	2272.7162	6319.7	5428.05
955.8924	2274.1719	6320.55	5428.1
956.0253	2275.6268	6291.6	5397.4
956.1583	2277.0811	6269.35	5374.5
956.2912	2278.5346	6258.35	5366.85
956.4241	2279.9874	6259.2	5370.45
956.5569	2281.4395	6251.4	5364.15
956.6897	2282.8908	6215.95	5318.85
956.8225	2284.3414	6206.1	5312.5
956.9553	2285.7914	6190.6	5298.15
957.088	2287.2406	6160.95	5266.1
957.2207	2288.689	6153.4	5260.5
957.3534	2290.1368	6153.55	5254.7
957.486	2291.5838	6132.1	5233
957.6186	2293.0302	6095.7	5198.4
957.7512	2294.4758	6077.35	5184.35
957.8838	2295.9206	6049.35	5153.15
958.0163	2297.3648	6044.95	5155.05
958.1488	2298.8082	6019.7	5127.25
958.2813	2300.251	6008.2	5115.55
958.4137	2301.693	6000.45	5104.45
958.5461	2303.1343	5985.85	5091.55
958.6785	2304.5748	5976.55	5083.55
958.8108	2306.0147	5953.65	5061.65
958.9432	2307.4538	5942.15	5051.85
959.0754	2308.8922	5912.4	5024.95
959.2077	2310.3299	5901.5	5012.1
959.3399	2311.7669	5884.75	4995.7
959.4721	2313.2031	5867.95	4975.45
959.6043	2314.6387	5855.3	4962.45
959.7365	2316.0735	5831.55	4939.65
959.8686	2317.5076	5826.7	4933.15
960.0006	2318.941	5826.85	4933.5
960.1327	2320.3737	5793.7	4897.25
960.2647	2321.8056	5783.05	4887.4
960.3967	2323.2369	5763.8	4867.2
960.5287	2324.6674	5744.9	4850.75
960.6606	2326.0972	5743.8	4850.5
960.7925	2327.5263	5718.8	4827.4
960.9244	2328.9547	5698.75	4804.45
961.0562	2330.3823	5685.45	4791
961.1881	2331.8092	5688.05	4789.1
961.3198	2333.2355	5650.7	4753.95
961.4516	2334.661	5643.9	4749.85
961.5833	2336.0858	5645.9	4753.05
961.715	2337.5098	5599.85	4707
961.8467	2338.9332	5586.75	4692.35
961.9783	2340.3558	5568.1	4674.45
962.1099	2341.7778	5558.55	4666.9
962.2415	2343.199	5546.5	4655.2
962.373	2344.6195	5527.7	4635.9
962.5045	2346.0393	5514.9	4624.15
962.636	2347.4583	5529.9	4637.85
962.7675	2348.8767	5498.55	4602.1
962.8989	2350.2943	5501.55	4604.4
963.0303	2351.7113	5499.8	4603.65
963.1617	2353.1275	5463.4	4565.4
963.293	2354.543	5468.6	4551.65
963.4243	2355.9578	5430	4534.4
963.5556	2357.3718	5421.85	4529.8
963.6868	2358.7852	5381.95	4487.85
963.818	2360.1978	5367.55	4475.45
963.9492	2361.6098	5361	4469.05
964.0803	2363.021	5352.85	4454.3
964.2114	2364.4315	5315.45	4420.5
964.3425	2365.8413	5333.8	4439.35
964.4736	2367.2504	5305.55	4415.5
964.6046	2368.6587	5274.55	4383.1
964.7356	2370.0664	5255.95	4365.9
964.8666	2371.4733	5255.85	4364.65
964.9975	2372.8795	5236.2	4342.65
965.1284	2374.285	5206.7	4312.8
965.2593	2375.6899	5171.85	4280.05
965.3901	2377.0939	5158.15	4266.8
965.5209	2378.4973	5158.2	4266.35
965.6517	2379.9	5152.25	4261.75
965.7825	2381.3019	5132.1	4241.35
965.9132	2382.7032	5112.45	4222
966.0439	2384.1037	5123.35	4235.75
966.1745	2385.5035	5089.1	4198.95
966.3051	2386.9027	5072.9	4184.3
966.4357	2388.3011	5068.05	4174.65
966.5663	2389.6987	5035.9	4146.45
966.6968	2391.0957	5027.6	4136.4
966.8273	2392.492	5008.2	4117.7
966.9578	2393.8876	4986.95	4096.75
967.0882	2395.2824	4978.7	4086.5
967.2186	2396.6765	4962.45	4069.7
967.349	2398.07	4942.95	4051.95
967.4793	2399.4627	4947.4	4051.8
967.6097	2400.8547	4923.3	4030.85
967.7399	2402.246	4906.9	4009.95
967.8702	2403.6366	4902.75	4012.4
968.0004	2405.0265	4870.1	3981.15
968.1306	2406.4156	4850.6	3953.85
968.2607	2407.8041	4841.6	3945.95
968.3909	2409.1918	4818.7	3922.6
968.521	2410.5789	4804	3909.95
968.651	2411.9652	4802.5	3906.3
968.781	2413.3508	4766.55	3872.7
968.911	2414.7358	4754.9	3862.8
969.041	2416.12	4746.1	3855.9
969.1709	2417.5035	4740.75	3847.55
969.3008	2418.8863	4736	3843.7
969.4307	2420.2684	4728.75	3836.1
969.5606	2421.6497	4699.85	3807.4
969.6904	2423.0304	4664.25	3773.85
969.8201	2424.4104	4667.75	3774.15
969.9499	2425.7896	4658.15	3763.35
970.0796	2427.1682	4649.3	3758.1
970.2093	2428.546	4614.4	3722.5
970.3389	2429.9232	4608.95	3716.55
970.4685	2431.2996	4606.7	3714.95
970.5981	2432.6753	4604.65	3710.5
970.7277	2434.0503	4599.45	3705.7
970.8572	2435.4246	4558.75	3664.5
970.9867	2436.7982	4572.55	3678.95
971.1161	2438.1711	4544.05	3651.5
971.2456	2439.5433	4552.5	3657.8
971.375	2440.9148	4520.6	3622.75
971.5043	2442.2856	4494.05	3602.85
971.6336	2443.6557	4498.1	3605.45
971.7629	2445.025	4476.85	3584.4
971.8922	2446.3937	4465.6	3570.9
972.0214	2447.7617	4459.75	3567.05
972.1506	2449.1289	4455.15	3562
972.2798	2450.4955	4445.45	3548.95
972.4089	2451.8613	4403.8	3512.95
972.538	2453.2265	4405.05	3514.85
972.6671	2454.5909	4402.7	3510.65
972.7961	2455.9546	4390.6	3497.1
972.9251	2457.3177	4381.75	3488.7
973.0541	2458.68	4386.7	3492.45
973.1831	2460.0416	4359.6	3466.25
973.312	2461.4025	4361.4	3468.2
973.4408	2462.7627	4343.45	3440.95
973.5697	2464.1222	4331.6	3442.85
973.6985	2465.4811	4313.15	3421.35
973.8273	2466.8392	4299.1	3406.15
973.956	2468.1966	4292	3398.6
974.0847	2469.5533	4285.8	3393
974.2134	2470.9093	4277.5	3384.35
974.3421	2472.2645	4273.4	3380.7
974.4707	2473.6191	4263.7	3372.75
974.5993	2474.973	4241.25	3350
974.7278	2476.3262	4227.15	3332.05
974.8563	2477.6787	4221.15	3329.55
974.9848	2479.0305	4192.65	3298.85
975.1132	2480.3816	4194.2	3300.1
975.2417	2481.7319	4181.25	3288.1
975.37	2483.0816	4162.65	3268.9
975.4984	2484.4306	4152.9	3262.55
975.6267	2485.7789	4142.25	3251.75
975.755	2487.1264	4130.9	3238
975.8833	2488.4733	4107.7	3218.85
976.0115	2489.8195	4112.6	3203.05
976.1397	2491.165	4073.95	3179.25
976.2678	2492.5097	4073.7	3181.5
976.3959	2493.8538	4058.5	3168.7
976.524	2495.1972	4049.85	3158.15
976.6521	2496.5398	4035.9	3143.15
976.7801	2497.8818	4033.25	3138.2
976.9081	2499.2231	4009.95	3116.05
977.036	2500.5637	4008.85	3113.2
977.164	2501.9035	3991.05	3096.85
977.2918	2503.2427	3968.65	3071.35
977.4197	2504.5812	3964.5	3072.2
977.5475	2505.919	3972.75	3079.15
977.6753	2507.256	3957.85	3063.6
977.8031	2508.5924	3942	3050.35
977.9308	2509.9281	3922.4	3025.3
978.0585	2511.2631	3915.55	3023.7
978.1861	2512.5974	3907.75	3017.65
978.3137	2513.9309	3891.35	2999.6
978.4413	2515.2638	3904.1	2983.75
978.5689	2516.596	3876.15	2984.85
978.6964	2517.9275	3841.85	2946.35
978.8239	2519.2583	3856.1	2962.7
978.9513	2520.5884	3843.1	2947.8
979.0788	2521.9178	3837	2944.8
979.2062	2523.2465	3833.45	2942.6
979.3335	2524.5745	3812.45	2921.3
979.4608	2525.9018	3791.05	2900.35
979.5881	2527.2284	3787	2893.25
979.7154	2528.5543	3787	2896.55
979.8426	2529.8796	3761.1	2869.95
979.9698	2531.2041	3770.35	2877.3
980.0969	2532.5279	3760.05	2868.5
980.224	2533.851	3756.65	2866.7
980.3511	2535.1735	3723.95	2831.05
980.4781	2536.4952	3738.85	2846.9
980.6052	2537.8163	3725.45	2831.85
980.7321	2539.1366	3713.35	2819.85
980.8591	2540.4562	3712.5	2819.75
980.986	2541.7752	3704.95	2811.6
981.1129	2543.0935	3708.35	2813.75
981.2397	2544.411	3691.95	2797.5
981.3665	2545.7279	3689.95	2797.3
981.4933	2547.0441	3672.45	2779.6
981.62	2548.3596	3675.2	2778.7
981.7467	2549.6744	3660.6	2767.55
981.8734	2550.9885	3665.5	2769.45
982.0001	2552.3019	3651.1	2758.8
982.1267	2553.6146	3640.95	2747.65
982.2532	2554.9266	3629.15	2734.05
982.3798	2556.2379	3631.6	2738.05
982.5063	2557.5485	3613	2719.85
982.6327	2558.8585	3619.65	2720.65
982.7592	2560.1677	3616.55	2720.3
982.8856	2561.4762	3592.5	2697.25
983.0119	2562.7841	3598.35	2703.65
983.1383	2564.0913	3590.45	2699.9
983.2646	2565.3977	3582.85	2690.7
983.3908	2566.7035	3565.05	2672.7
983.517	2568.0086	3566.1	2672.5
983.6432	2569.313	3552.7	2657.5
983.7694	2570.6167	3549.8	2653.35
983.8955	2571.9197	3548	2655.9
984.0216	2573.222	3540.25	2644.15
984.1476	2574.5236	3530.35	2635.35
984.2737	2575.8246	3514.55	2619
984.3996	2577.1248	3522.95	2627.1
984.5256	2578.4244	3504.25	2613.2
984.6515	2579.7232	3508.7	2615.7
984.7774	2581.0214	3532.5	2609.4
984.9032	2582.3189	3494.95	2602.4
985.029	2583.6157	3490.85	2593.8
985.1548	2584.9118	3484.5	2590.9
985.2806	2586.2072	3471.5	2579.45
985.4063	2587.5019	3467.6	2573.9
985.5319	2588.7959	3468.95	2577.9
985.6576	2590.0893	3458.9	2564.2
985.7832	2591.3819	3438.8	2545.95
985.9087	2592.6739	3442.5	2550.55
986.0343	2593.9652	3434	2540.5
986.1597	2595.2557	3420.3	2527.55
986.2852	2596.5456	3424.35	2532.15
986.4106	2597.8348	3409.75	2518.75
986.536	2599.1234	3400.5	2510.9
986.6614	2600.4112	3384.8	2493.15
986.7867	2601.6983	3383.35	2487
986.912	2602.9848	3376.85	2484
987.0372	2604.2705	3371.15	2473.4
987.1624	2605.5556	3376	2484.95
987.2876	2606.84	3334.95	2442.35
987.4128	2608.1237	3330.8	2436.95
987.5379	2609.4067	3328.95	2438.55
987.6629	2610.689	3333.65	2432.55
987.788	2611.9707	3319.85	2424.1
987.913	2613.2516	3313	2415.35
988.0379	2614.5319	3291.55	2400.3
988.1629	2615.8115	3260.15	2368
988.2878	2617.0903	3270.65	2375.85
988.4126	2618.3685	3262.75	2371.95
988.5375	2619.6461	3254.45	2364.05
988.6622	2620.9229	3251.15	2359.85
988.787	2622.199	3242.65	2352.7
988.9117	2623.4745	3229.15	2336.8
989.0364	2624.7493	3204.85	2312.35
989.161	2626.0234	3196.15	2304.15
989.2857	2627.2968	3196.05	2303.95
989.4102	2628.5695	3195.4	2303.65
989.5348	2629.8415	3184	2292.15
989.6593	2631.1128	3163.9	2270.8
989.7837	2632.3835	3144.55	2253.2
989.9082	2633.6535	3144.3	2253.7
990.0326	2634.9228	3143.2	2253.55
990.1569	2636.1914	3128.6	2237.6
990.2812	2637.4593	3143.9	2251.95
990.4055	2638.7265	3120.25	2226.9
990.5298	2639.9931	3105.3	2213.35
990.654	2641.259	3106.6	2214
990.7782	2642.5242	3104.8	2213.15
990.9023	2643.7887	3096.45	2204.45
991.0264	2645.0525	3084.75	2193.2
991.1505	2646.3156	3088.85	2184.95
991.2745	2647.5781	3072.8	2183.95
991.3985	2648.8398	3057.95	2168.05
991.5225	2650.1009	3064.15	2150.05
991.6464	2651.3613	3058.15	2166.25
991.7703	2652.6211	3038.15	2147.1
991.8942	2653.8801	3034.5	2144.75
992.018	2655.1385	3021.2	2126.85
992.1418	2656.3961	3016.65	2125.95
992.2655	2657.6531	3019.85	2129.65
992.3892	2658.9094	3012.6	2121.95
992.5129	2660.1651	3007.25	2118.55
992.6366	2661.42	3006.4	2116.2
992.7602	2662.6743	2998	2104.35
992.8837	2663.9279	3010.35	2121.45
993.0073	2665.1808	2995.9	2103.4
993.1307	2666.433	2979.45	2088.45
993.2542	2667.6846	2979.7	2088.95
993.3776	2668.9354	2985.2	2093.4
993.501	2670.1856	2978.45	2086.7
993.6244	2671.4351	2967.15	2077.65
993.7477	2672.6839	2958.7	2066.65
993.8709	2673.9321	2951.1	2061.35
993.9942	2675.1795	2939.05	2048.45
994.1174	2676.4263	2948.75	2058.95
994.2405	2677.6724	2939.95	2051
994.3637	2678.9179	2924.9	2034.55
994.4868	2680.1626	2938.95	2047.45
994.6098	2681.4067	2929.7	2040.15
994.7328	2682.6501	2926.4	2035.65
994.8558	2683.8928	2915	2026.45
994.9788	2685.1348	2893.05	2001.95
995.1017	2686.3761	2887.8	1998.75
995.2245	2687.6168	2879.65	1988.6
995.3474	2688.8568	2881.7	1990.9
995.4702	2690.0961	2864.9	1974.15
995.5929	2691.3348	2857.6	1969.15
995.7156	2692.5727	2854.8	1964.75
995.8383	2693.81	2843.15	1953
995.961	2695.0466	2846.1	1957
996.0836	2696.2826	2836.45	1945.45
996.2062	2697.5178	2831.5	1938.1
996.3287	2698.7524	2833.55	1943.4
996.4512	2699.9863	2824.35	1932.9
996.5737	2701.2195	2814.15	1925.75
996.6961	2702.452	2812.65	1918.6
996.8185	2703.6839	2803.15	1910.45
996.9408	2704.9151	2806.45	1916.8
997.0631	2706.1456	2804.6	1915.2
997.1854	2707.3755	2807.3	1916.85
997.3077	2708.6046	2812.1	1918.55
997.4299	2709.8331	2802.35	1910
997.552	2711.0609	2793.4	1902.75
997.6742	2712.2881	2789.35	1898.45
997.7963	2713.5145	2795.9	1906.25
997.9183	2714.7403	2786.8	1897.3
998.0403	2715.9654	2800.35	1908.9
998.1623	2717.1899	2806.35	1899.7
998.2842	2718.4136	2811.15	1919.75
998.4062	2719.6367	2800.7	1910.85
998.528	2720.8591	2807.75	1910.4
998.6498	2722.0809	2810.9	1919.55
998.7716	2723.3019	2802.35	1908.95
998.8934	2724.5223	2813	1923.5
999.0151	2725.7421	2792.75	1901.2
999.1368	2726.9611	2807.35	1915.75
999.2584	2728.1795	2800.65	1906.9
999.38	2729.3972	2781.65	1891.8
999.5016	2730.6142	2769.05	1869.05
999.6231	2731.8306	2747.95	1856.4
999.7446	2733.0462	2729.1	1838.95
999.8661	2734.2612	2716.8	1822.6
999.9875	2735.4756	2707.4	1816.6
1000.1089	2736.6892	2677.85	1788.2
1000.2302	2737.9022	2666.05	1775.8
1000.3515	2739.1145	2638.9	1748.7
1000.4728	2740.3262	2645.15	1748.6
1000.594	2741.5372	2613.45	1722.1
1000.7152	2742.7475	2596.2	1705.55
1000.8363	2743.9571	2592.15	1701.35
1000.9575	2745.1661	2588.8	1694.6
1001.0785	2746.3744	2578.6	1687.95
1001.1996	2747.582	2562.35	1674.25
1001.3206	2748.7889	2558.65	1668.25
1001.4415	2749.9952	2535.2	1646.15
1001.5625	2751.2008	2527.5	1638
1001.6833	2752.4057	2527.75	1635.55
1001.8042	2753.61	2520.8	1629.75
1001.925	2754.8136	2512.25	1621.1
1002.0458	2756.0165	2503.1	1614.3
1002.1665	2757.2188	2487.9	1599.5
1002.2872	2758.4204	2491.5	1601.5
1002.4078	2759.6213	2499.55	1610.45
1002.5285	2760.8215	2486.35	1592.55
1002.649	2762.0211	2479.35	1587.25
1002.7696	2763.22	2475.35	1583.25
1002.8901	2764.4182	2468.95	1576.85
1003.0106	2765.6158	2461.4	1572.1
1003.131	2766.8127	2451.6	1563.55
1003.2514	2768.009	2439.1	1552.7
1003.3717	2769.2045	2434.9	1545.5
1003.492	2770.3994	2439.95	1547.7
1003.6123	2771.5936	2430.3	1541.15
1003.7325	2772.7872	2418.05	1532.1
1003.8527	2773.9801	2425.8	1533.55
1003.9729	2775.1723	2423.1	1517.45
1004.093	2776.3639	2394.75	1504.8
1004.2131	2777.5548	2394.25	1504.6
1004.3331	2778.745	2393	1502.9
1004.4531	2779.9346	2378.9	1490.5
1004.5731	2781.1235	2385.05	1495.5
1004.693	2782.3117	2381.15	1494.5
1004.8129	2783.4992	2378.3	1490.55
1004.9328	2784.6861	2369.95	1483.2
1005.0526	2785.8723	2374.4	1484.65
1005.1723	2787.0579	2371.45	1481.9
1005.2921	2788.2428	2378.95	1487.45
1005.4118	2789.427	2373.55	1485
1005.5314	2790.6106	2375.2	1487.25
1005.651	2791.7935	2372.8	1483.35
1005.7706	2792.9757	2367.7	1481.1
1005.8902	2794.1573	2359.45	1469.95
1006.0097	2795.3382	2367.5	1481.4
1006.1291	2796.5184	2364.95	1478.3
1006.2485	2797.698	2386	1495.3
1006.3679	2798.8769	2386.2	1499.2
1006.4873	2800.0551	2389.4	1501.65
1006.6066	2801.2327	2391.95	1501.85
1006.7258	2802.4096	2394	1506
1006.8451	2803.5859	2392.8	1504.2
1006.9642	2804.7615	2406.9	1517.9
1007.0834	2805.9364	2423.75	1536.8
1007.2025	2807.1106	2438.4	1551.2
1007.3216	2808.2842	2457.95	1569.75
1007.4406	2809.4572	2473.4	1585.55
1007.5596	2810.6294	2499.6	1610.45
1007.6785	2811.801	2506.2	1618.25
1007.7975	2812.972	2542.85	1655.55
1007.9163	2814.1423	2567.85	1680.15
1008.0352	2815.3119	2598.7	1706.75
1008.154	2816.4808	2632.15	1746.05
1008.2727	2817.6491	2669.5	1779.5
1008.3914	2818.8167	2707.35	1821.5
1008.5101	2819.9837	2747.1	1855.15
1008.6288	2821.15	2780.55	1892.55
1008.7474	2822.3157	2818.15	1931.6
1008.8659	2823.4807	2858.5	1970.6
1008.9844	2824.645	2908.95	2019.05
1009.1029	2825.8086	2946.4	2060.4
1009.2214	2826.9716	2992.75	2107.5
1009.3398	2828.134	3017.4	2129.25
1009.4581	2829.2957	3054.45	2164.55
1009.5764	2830.4567	3073.7	2185.5
1009.6947	2831.617	3099.1	2210.85
1009.813	2832.7767	3120.9	2233.25
1009.9312	2833.9358	3108.95	2222.5
1010.0493	2835.0941	3101.35	2211.95
1010.1675	2836.2519	3094.65	2207.7
1010.2855	2837.4089	3054.9	2167.35
1010.4036	2838.5653	3046.75	2160.55
1010.5216	2839.7211	3041.85	2157
1010.6396	2840.8761	3045.15	2155.3
1010.7575	2842.0306	3023.1	2134.6
1010.8754	2843.1843	3052.25	2166.35
1010.9932	2844.3374	3084.7	2199.3
1011.111	2845.4899	3114.35	2225.9
1011.2288	2846.6417	3157.1	2268.5
1011.3465	2847.7928	3206.35	2320.05
1011.4642	2848.9433	3248.45	2361.8
1011.5818	2850.0931	3282.8	2395.45
1011.6995	2851.2422	3325.9	2437.05
1011.817	2852.3907	3373.05	2484.25
1011.9345	2853.5385	3423.7	2532.55
1012.052	2854.6857	3462.65	2566.1
1012.1695	2855.8323	3492.2	2604.5
1012.2869	2856.9781	3525.45	2640.15
1012.4042	2858.1233	3558	2671.1
1012.5216	2859.2679	3603.3	2716.5
1012.6389	2860.4118	3636.6	2750.9
1012.7561	2861.555	3669	2779.7
1012.8733	2862.6976	3691.45	2800.7
1012.9905	2863.8395	3721.15	2834.9
1013.1076	2864.9808	3744.15	2856.45
1013.2247	2866.1214	3752.8	2867.4
1013.3417	2867.2614	3778.7	2890.65
1013.4587	2868.4007	3792	2903.2
1013.5757	2869.5393	3773.5	2886.45
1013.6926	2870.6773	3781.65	2892.6
1013.8095	2871.8146	3790.5	2902.3
1013.9263	2872.9513	3806.1	2916.85
1014.0431	2874.0874	3773.7	2888.45
1014.1599	2875.2227	3780	2894.3
1014.2766	2876.3574	3738.8	2850.55
1014.3933	2877.4915	3733.85	2849.35
1014.51	2878.6249	3704.9	2819.1
1014.6266	2879.7577	3681.2	2794.55
1014.7431	2880.8898	3672.65	2776.8
1014.8596	2882.0212	3654.15	2767.45
1014.9761	2883.152	3627.55	2739.7
1015.0925	2884.2821	3618.25	2731.2
1015.2089	2885.4116	3617.9	2731.25
1015.3253	2886.5405	3610.85	2723
1015.4416	2887.6686	3624.45	2736.05
1015.5579	2888.7962	3607.8	2723.3
1015.6741	2889.923	3609.3	2723.45
1015.7903	2891.0493	3620.7	2737.6
1015.9065	2892.1748	3626.15	2740
1016.0226	2893.2997	3628.15	2741.75
1016.1387	2894.424	3641.65	2758.5
1016.2547	2895.5476	3648.25	2762.5
1016.3707	2896.6706	3654.4	2769.25
1016.4866	2897.7929	3661.05	2774.4
1016.6025	2898.9145	3692.2	2807.3
1016.7184	2900.0355	3707.55	2820.15
1016.8342	2901.1559	3723.2	2835.95
1016.95	2902.2756	3733.45	2846.05
1017.0658	2903.3946	3767.4	2882.45
1017.1815	2904.513	3781.2	2892.55
1017.2971	2905.6308	3798.5	2912.1
1017.4127	2906.7479	3806.25	2919.5
1017.5283	2907.8643	3823.9	2936.35
1017.6439	2908.9801	3832.6	2948.55
1017.7594	2910.0953	3835.65	2950.1
1017.8748	2911.2098	3842.95	2955
1017.9902	2912.3236	3829.95	2936.4
1018.1056	2913.4368	3802.95	2914.8
1018.2209	2914.5494	3781.6	2894.75
1018.3362	2915.6613	3763.5	2871.25
1018.4515	2916.7725	3744.3	2855.25
1018.5667	2917.8831	3713.75	2827.85
1018.6819	2918.9931	3695.05	2804.4
1018.797	2920.1024	3656.75	2772
1018.9121	2921.211	3658	2772.15
1019.0271	2922.319	3649.4	2763.25
1019.1421	2923.4264	3612.55	2728.25
1019.2571	2924.5331	3601.35	2714.8
1019.372	2925.6391	3584.85	2699.9
1019.4869	2926.7445	3596.15	2711.35
1019.6017	2927.8493	3600.15	2713.7
1019.7165	2928.9534	3601.65	2716.5
1019.8313	2930.0569	3599.35	2710.85
1019.946	2931.1597	3582.55	2694.8
1020.0606	2932.2619	3585.7	2699.6
1020.1753	2933.3634	3584.05	2697.85
1020.2899	2934.4643	3580.55	2690.2
1020.4044	2935.5645	3582.85	2691.45
1020.5189	2936.6641	3557.3	2667.2
1020.6334	2937.763	3516.95	2630.5
1020.7478	2938.8613	3502.15	2616.25
1020.8622	2939.959	3460.95	2570.75
1020.9765	2941.056	3406.55	2521.7
1021.0908	2942.1523	3342.55	2457
1021.2051	2943.248	3297.1	2409.1
1021.3193	2944.3431	3215.3	2329.85
1021.4334	2945.4375	3137.25	2251.05
1021.5476	2946.5313	3054.55	2170
1021.6617	2947.6244	2971.15	2082.9
1021.7757	2948.7169	2886.3	2000.65
1021.8897	2949.8087	2810.9	1923.65
1022.0037	2950.8999	2740.45	1857.1
1022.1176	2951.9904	2676.75	1792.15
1022.2315	2953.0803	2609.85	1724.45
1022.3453	2954.1696	2561.4	1675.45
1022.4591	2955.2582	2521.4	1635.2
1022.5728	2956.3462	2478.75	1592.4
1022.6865	2957.4335	2452.6	1566.85
1022.8002	2958.5202	2416.2	1528.6
1022.9138	2959.6062	2386.55	1500.2
1023.0274	2960.6916	2374.4	1490.1
1023.141	2961.7764	2362.4	1475.7
1023.2545	2962.8605	2350.35	1462.7
1023.3679	2963.9439	2332.1	1447.1
1023.4813	2965.0267	2322.75	1436.15
1023.5947	2966.1089	2328.5	1419.8
1023.708	2967.1905	2295.65	1408.75
1023.8213	2968.2714	2294.8	1409.85
1023.9346	2969.3516	2297.95	1414.35
1024.0478	2970.4312	2310.05	1417.85
1024.1609	2971.5102	2300.9	1415.5
1024.274	2972.5885	2290.15	1405.45
1024.3871	2973.6662	2301.6	1410.6
1024.5002	2974.7432	2294.85	1409.35
1024.6132	2975.8196	2280	1396.5
1024.7261	2976.8954	2272.7	1387.7
1024.839	2977.9705	2268.6	1383.85
1024.9519	2979.045	2259.5	1375.25
1025.0647	2980.1188	2240.25	1355.85
1025.1775	2981.192	2235.55	1351.75
1025.2902	2982.2645	2221.3	1334.1
1025.4029	2983.3364	2193	1308.55
1025.5156	2984.4077	2161.2	1277.25
1025.6282	2985.4783	2150.95	1260.2
1025.7407	2986.5483	2124.1	1238.45
1025.8532	2987.6177	2093	1208.75
1025.9657	2988.6864	2060.5	1174.65
1026.0782	2989.7545	2033.85	1145.6
1026.1906	2990.8219	2011.85	1127.25
1026.3029	2991.8887	1983.55	1096.1
1026.4152	2992.9548	1952.85	1066.65
1026.5275	2994.0204	1918.3	1034.65
1026.6397	2995.0852	1892.75	1009.6
1026.7519	2996.1495	1882.05	993.8
1026.864	2997.2131	1855.35	968.95
1026.9761	2998.276	1835.45	949.05
1027.0882	2999.3383	1827.25	942.35
1027.2002	3000.4	1800.8	912.9
1027.3122	3001.4611	1776.75	892.15
1027.4241	3002.5215	1776.85	890.15
1027.536	3003.5812	1751	866.7
1027.6478	3004.6404	1749.25	863.15
1027.7596	3005.6989	1722.2	836.7
1027.8714	3006.7567	1721.35	834.9
1027.9831	3007.8139	1725.2	818.75
1028.0947	3008.8705	1700.95	815
1028.2064	3009.9264	1704.1	800.9
1028.3179	3010.9818	1685.9	800.55
1028.4295	3012.0364	1681.55	794.8
1028.541	3013.0905	1668.1	784.1
1028.6524	3014.1439	1664.9	780.35
1028.7638	3015.1966	1654.65	770.6
1028.8752	3016.2487	1649.85	765.7
1028.9865	3017.3002	1651	761.65
1029.0978	3018.3511	1645.4	762.25
1029.209	3019.4013	1628.25	743.2
1029.3202	3020.4509	1629.7	745.1
1029.4314	3021.4998	1630.25	745.8
1029.5425	3022.5481	1627.1	742.7
1029.6535	3023.5958	1623.55	739.75
1029.7645	3024.6428	1620.75	735.6
1029.8755	3025.6892	1622.9	739.8
1029.9864	3026.735	1624.25	739.6
1030.0973	3027.7802	1616.5	731.15
1030.2082	3028.8247	1608.65	724.4
1030.319	3029.8685	1606.4	723.3
1030.4297	3030.9118	1602.6	715.65
1030.5404	3031.9544	1603.35	719.2
1030.6511	3032.9963	1613.05	730.25
1030.7617	3034.0376	1615.1	731.95
1030.8723	3035.0783	1612.55	725.2
1030.9829	3036.1184	1611.45	728
1031.0934	3037.1578	1611.2	728.05
1031.2038	3038.1966	1616.3	730.4
1031.3142	3039.2348	1610.05	724.95
1031.4246	3040.2723	1615.45	725.65
1031.5349	3041.3092	1611.3	726.4
1031.6452	3042.3455	1599.8	716.2
1031.7554	3043.3811	1605.45	718.95
1031.8656	3044.4161	1597.95	712.1
1031.9758	3045.4505	1598.05	715.9
1032.0859	3046.4842	1596.9	709.85
1032.1959	3047.5173	1584.9	700.8
1032.3059	3048.5498	1588.3	703.6
1032.4159	3049.5816	1580.6	695.75
1032.5258	3050.6128	1579.15	694.65
1032.6357	3051.6434	1574.85	688.7
1032.7455	3052.6734	1569.85	683.35
1032.8553	3053.7027	1559.8	677.15
1032.9651	3054.7314	1556.6	671.65
1033.0748	3055.7594	1553.5	667.7
1033.1845	3056.7868	1541.6	656.65
1033.2941	3057.8136	1544.55	660.85
1033.4037	3058.8398	1549.15	664.95
1033.5132	3059.8653	1538.8	655.1
1033.6227	3060.8902	1542.55	659.4
1033.7321	3061.9145	1527.15	643.7
1033.8415	3062.9381	1524.05	640.3
1033.9509	3063.9612	1537.55	637.6
1034.0602	3064.9835	1526.05	640.55
1034.1694	3066.0053	1515.2	629.15
1034.2787	3067.0264	1508.65	625.5
1034.3878	3068.0469	1504.25	619.35
1034.497	3069.0668	1503.9	617.05
1034.6061	3070.086	1495.05	611.15
1034.7151	3071.1046	1493.6	607.7
1034.8241	3072.1226	1490.95	605.4
1034.9331	3073.1399	1478.7	593.5
1035.042	3074.1567	1472.1	587.8
1035.1508	3075.1727	1461.45	575.4
1035.2597	3076.1882	1453.15	570.6
1035.3684	3077.203	1454.3	569.45
1035.4772	3078.2173	1445.8	559.1
1035.5859	3079.2308	1437.25	550.75
1035.6945	3080.2438	1433.65	546.2
1035.8031	3081.2561	1418.7	535.7
1035.9117	3082.2678	1418.45	533.75
1036.0202	3083.2789	1419.05	533.75
1036.1286	3084.2893	1399.65	516.25
1036.2371	3085.2991	1401.2	515.2
1036.3454	3086.3083	1399.1	512.55
1036.4538	3087.3169	1391.6	506.3
1036.562	3088.3248	1381.2	496.7
1036.6703	3089.3321	1381	494.65
1036.7785	3090.3388	1374.95	489.5
1036.8866	3091.3449	1372.2	487.5
1036.9948	3092.3503	1372	485.75
1037.1028	3093.3551	1364.7	481.5
1037.2108	3094.3593	1359.8	475.55
1037.3188	3095.3629	1352.3	469.15
1037.4267	3096.3658	1350.35	464.5
1037.5346	3097.3681	1346.25	462.75
1037.6425	3098.3698	1342.85	457.2
1037.7503	3099.3708	1351.25	461.7
1037.858	3100.3713	1345.3	462.2
1037.9657	3101.3711	1332.2	447.9
1038.0734	3102.3702	1470.6	445.55
1038.181	3103.3688	1333.15	447.15
1038.2886	3104.3667	1318.45	435.65
1038.3961	3105.364	1313.7	431.05
1038.5036	3106.3607	1320.75	436.8
1038.611	3107.3568	1311.05	426.15
1038.7184	3108.3522	1307.95	425.5
1038.8257	3109.347	1311.8	427.75
1038.933	3110.3412	1308.75	420.55
1039.0403	3111.3348	1300.05	415.1
1039.1475	3112.3277	1298.45	414.2
1039.2547	3113.32	1284.4	399.8
1039.3618	3114.3117	1290	405.5
1039.4689	3115.3028	1293.95	409.15
1039.5759	3116.2932	1285.25	400.5
1039.6829	3117.2831	1289.95	400.45
1039.7898	3118.2723	1276.8	392.15
1039.8967	3119.2608	1280.6	398.3
1040.0035	3120.2488	1272.35	388.4
1040.1103	3121.2361	1270.6	386.35
1040.2171	3122.2229	1269.3	385.9
1040.3238	3123.209	1269.3	382.35
1040.4305	3124.1944	1258.1	374.4
1040.5371	3125.1793	1261.45	375.35
1040.6437	3126.1635	1258.9	375.45
1040.7502	3127.1471	1250.3	369.2
1040.8567	3128.1301	1253.35	369.75
1040.9631	3129.1125	1251	366.4
1041.0695	3130.0942	1258.95	375.7
1041.1759	3131.0753	1258.55	365.35
1041.2822	3132.0558	1253.25	367.35
1041.3884	3133.0357	1242.3	354.95
1041.4946	3134.015	1242.4	356
1041.6008	3134.9936	1239.75	356.6
1041.7069	3135.9716	1261.5	355.85
1041.813	3136.949	1236.5	353.5
1041.919	3137.9258	1250.6	348.45
1042.025	3138.902	1234.7	344.4
1042.1309	3139.8775	1230.15	345.2
1042.2368	3140.8524	1227.8	344
1042.3427	3141.8267	1228.4	343.45
1042.4485	3142.8004	1229.6	343.5
1042.5542	3143.7735	1224.75	334
1042.6599	3144.7459	1224.25	338.4
1042.7656	3145.7178	1217.15	331.45
1042.8712	3146.689	1212.4	330.15
1042.9768	3147.6596	1217.55	332.2
1043.0823	3148.6295	1213.15	328.85
1043.1878	3149.5989	1212.3	329.2
1043.2932	3150.5676	1210.3	326.75
1043.3986	3151.5357	1210.2	330.6
1043.5039	3152.5032	1206.9	321.9
1043.6092	3153.4701	1201.25	316.95
1043.7145	3154.4364	1210.05	326.1
1043.8197	3155.402	1207.8	324.3
1043.9248	3156.367	1197.55	312.65
1044.03	3157.3315	1235.05	315.85
1044.135	3158.2952	1190.65	307.5
1044.24	3159.2584	1191.7	309.25
1044.345	3160.221	1185.2	303
1044.4499	3161.1829	1191.05	307
1044.5548	3162.1442	1185.2	302.5
1044.6596	3163.105	1180.2	294.25
1044.7644	3164.065	1189.9	305.25
1044.8692	3165.0245	1185.8	300
1044.9739	3165.9834	1184.55	304.35
1045.0785	3166.9416	1174.85	290.6
1045.1831	3167.8993	1178.5	294.2
1045.2877	3168.8563	1174.2	289.8
1045.3922	3169.8127	1170.45	285.7
1045.4966	3170.7684	1171.75	288.65
1045.6011	3171.7236	1167.5	283
1045.7054	3172.6782	1171.1	287.95
1045.8098	3173.6321	1166.15	282.65
1045.914	3174.5854	1172.7	286.15
1046.0183	3175.5381	1167.85	283.25
1046.1224	3176.4902	1159.25	277.45
1046.2266	3177.4417	1156.45	273
1046.3307	3178.3926	1150.1	266.6
1046.4347	3179.3428	1156.7	272.95
1046.5387	3180.2924	1153.65	270.05
1046.6427	3181.2415	1148.2	265.7
1046.7466	3182.1899	1155.2	270.8
1046.8504	3183.1377	1152.95	269.05
1046.9542	3184.0848	1152.4	267.95
1047.058	3185.0314	1152.05	266.55
1047.1617	3185.9773	1148.95	265.8
1047.2654	3186.9227	1148.3	262.45
1047.369	3187.8674	1147.05	261.4
1047.4726	3188.8115	1142.8	256.85
1047.5761	3189.755	1140.65	257.45
1047.6796	3190.6979	1136.9	253.15
1047.783	3191.6402	1137.15	254.6
1047.8864	3192.5818	1139.85	256
1047.9898	3193.5229	1140.05	249.85
1048.0931	3194.4633	1130.5	246.7
1048.1963	3195.4031	1132.75	251
1048.2995	3196.3423	1131.6	247.35
1048.4027	3197.2809	1125.9	242.6
1048.5058	3198.2189	1131.3	247.75
1048.6089	3199.1563	1133.7	241.45
1048.7119	3200.0931	1123.8	241.1
1048.8148	3201.0292	1124.95	241.2
1048.9178	3201.9648	1123.2	237
1049.0206	3202.8997	1124.35	237.1
1049.1235	3203.834	1116.9	233.5
1049.2262	3204.7677	1124.2	242.45
1049.329	3205.7008	1122.1	237.4
1049.4317	3206.6333	1118.3	235.9
1049.5343	3207.5652	1117.7	233.2
1049.6369	3208.4964	1111.95	227.75
1049.7394	3209.4271	1117.35	234.55
1049.8419	3210.3571	1113.05	229.5
1049.9444	3211.2865	1115.35	232.3
1050.0468	3212.2154	1109.45	224.8
1050.1491	3213.1436	1112.15	227.05
1050.2514	3214.0712	1118.1	229.9
1050.3537	3214.9982	1103.75	220.95
1050.4559	3215.9246	1105.6	222.35
1050.5581	3216.8503	1102.15	219.65
1050.6602	3217.7755	1103.7	220.5
1050.7623	3218.7001	1098.95	217
1050.8643	3219.624	1100.05	217.85
1050.9663	3220.5473	1099.85	216
1051.0682	3221.4701	1098.3	214.1
1051.1701	3222.3922	1104.4	219.75
1051.2719	3223.3137	1092.9	209.85
1051.3737	3224.2346	1096.55	214.5
1051.4754	3225.1549	1092.65	209
1051.5771	3226.0746	1092.3	211.65
1051.6788	3226.9937	1091.8	208.5
1051.7804	3227.9121	1088.4	204.45
1051.8819	3228.83	1089.7	207.75
1051.9834	3229.7473	1091.35	208.05
1052.0849	3230.6639	1092.15	207.65
1052.1863	3231.5799	1085.5	201.6
1052.2876	3232.4954	1086.65	202.9
1052.3889	3233.4102	1082.55	200.7
1052.4902	3234.3244	1085.05	201.9
1052.5914	3235.238	1077.7	195.3
1052.6926	3236.151	1106.05	198.15
1052.7937	3237.0634	1074.75	192.4
1052.8948	3237.9752	1076.6	194.35
1052.9958	3238.8864	1080.7	198.15
1053.0968	3239.797	1072.8	189.55
1053.1977	3240.7069	1075.25	190.35
1053.2986	3241.6163	1078.65	194.7
1053.3994	3242.5251	1073.05	190.45
1053.5002	3243.4332	1071.35	186.8
1053.6009	3244.3408	1066.4	183.8
1053.7016	3245.2477	1069.05	184.05
1053.8022	3246.154	1067.1	183.15
1053.9028	3247.0598	1066.9	180.95
1054.0034	3247.9649	1066	184.1
1054.1039	3248.8694	1064.35	180.2
1054.2043	3249.7733	1066.9	183.9
1054.3047	3250.6766	1062.8	180.2
1054.4051	3251.5793	1064.85	178.5
1054.5054	3252.4814	1061.85	181
1054.6056	3253.3829	1056.5	172.85
1054.7058	3254.2838	1056.95	173.85
1054.806	3255.1841	1054.3	171.15
1054.9061	3256.0838	1050.3	166.3
1055.0061	3256.9829	1046.05	162.8
1055.1062	3257.8814	1057.05	173.1
1055.2061	3258.7792	1048.1	162.85
1055.306	3259.6765	1050.95	167.25
1055.4059	3260.5731	1046.5	166.3
1055.5057	3261.4692	1041.3	156.95
1055.6055	3262.3647	1042.2	159.2
1055.7052	3263.2595	1037.45	155.85
1055.8049	3264.1538	1039.75	157.25
1055.9045	3265.0474	1034.05	151.65
1056.0041	3265.9404	1035.9	155.55
1056.1036	3266.8329	1031.6	149.8
1056.2031	3267.7247	1035.75	142.35
1056.3025	3268.616	1017.95	136.2
1056.4019	3269.5066	1021.5	137.5
1056.5013	3270.3966	1018.9	134.25
1056.6005	3271.286	1014.25	132.8
