Software Version:	3.9.2.0
Unit SN:	10000200
Spectrometer SN:	6960
Date:	3/26/2024 2:53:02 PM
Data Line Index:	25
Spectral Points:	2048
Integration time (ms):	125
Averages:	20
Delay (ms):	30000
Sequence Number:	1
Processing:	dark subtract
Laser Power (mW):	295
Laser Current (mA):	820
Laser Diode Temp (C):	25.1
Laser Case Temp (C):	28
System Temp (C):	28.1
Spectrometer Temp (C):	25.9
CCD Temp (C):	0.007
Secondary Temp (C):	20.011
Heatsink Temp (C):	23.688
CCDPCB Temp (C):	37.385
SecondaryPCB Temp (C):	34.851

Wavelength	RamanShift	Raw Counts	Dark Subtracted
787.061	30.1047	613.95	204.8
787.2016	32.3739	626.4	217.2
787.3422	34.6426	639.55	227.8
787.4828	36.9109	659.25	246.3
787.6235	39.1787	676.95	260.6
787.7642	41.4461	698.15	277.85
787.9049	43.7131	724.6	301.15
788.0456	45.9796	748.75	322.2
788.1863	48.2456	763.8	331.6
788.3271	50.5112	785.2	350.8
788.4679	52.7764	815.65	378.45
788.6087	55.0411	835.4	395.7
788.7496	57.3054	871.65	425
788.8904	59.5692	896.8	447
789.0313	61.8326	936.7	484.1
789.1722	64.0955	966.3	509.65
789.3132	66.3579	1015.75	553.8
789.4541	68.6199	1065.75	600.85
789.5951	70.8815	1145.5	679.35
789.7361	73.1426	1335.35	861.5
789.8771	75.4032	1805.7	1329.45
790.0181	77.6634	2972.45	2487.8
790.1592	79.9231	5844.3	5350.15
790.3003	82.1824	12537.75	12025
790.4414	84.4412	26464.85	25919.15
790.5825	86.6995	52319.95	51730.85
790.7237	88.9574	64699.65	64068.2
790.8648	91.2148	65535	64873.4
791.006	93.4717	65535	64856.25
791.1472	95.7282	65535	64843.3
791.2885	97.9842	65535	64836.55
791.4297	100.2398	65535	64833.95
791.571	102.4949	65535	64831.3
791.7123	104.7495	65535	64827.4
791.8536	107.0036	65535	64826.65
791.9949	109.2573	65535	64828.6
792.1363	111.5105	65535	64825
792.2777	113.7632	65535	64820.6
792.4191	116.0154	65535	64813.45
792.5605	118.2672	65535	64812.4
792.7019	120.5185	65535	64820.05
792.8434	122.7693	65535	64813.95
792.9849	125.0197	65535	64811.9
793.1264	127.2696	65535	64812.9
793.2679	129.519	65535	64806.05
793.4094	131.7679	65535	64807.4
793.551	134.0163	65535	64792.5
793.6926	136.2642	65535	64794.55
793.8342	138.5117	65535	64790
793.9758	140.7587	65535	64794.1
794.1175	143.0052	65535	64791.2
794.2591	145.2512	65535	64791.15
794.4008	147.4967	65535	64789.3
794.5425	149.7417	65535	64791.1
794.6842	151.9863	65535	64786.8
794.826	154.2304	65535	64780.5
794.9677	156.4739	65535	64779.8
795.1095	158.717	65535	64773.25
795.2513	160.9596	65535	64768.75
795.3931	163.2017	65535	64770
795.535	165.4433	65535	64766.75
795.6768	167.6844	65535	64766.65
795.8187	169.925	65535	64764.7
795.9606	172.1651	65535	64764.55
796.1025	174.4047	65535	64764.5
796.2445	176.6439	65535	64759.3
796.3864	178.8825	65535	64752.8
796.5284	181.1206	65535	64750.2
796.6704	183.3582	65535	64749.25
796.8124	185.5954	65535	64743
796.9544	187.832	65535	64744.3
797.0965	190.0681	65535	64740.35
797.2386	192.3037	65535	64738.05
797.3806	194.5388	65535	64733.45
797.5228	196.7734	65535	64729.45
797.6649	199.0075	65535	64721.9
797.807	201.2411	65535	64720.35
797.9492	203.4742	65535	64721.1
798.0914	205.7068	65535	64726.1
798.2336	207.9389	65535	64721.75
798.3758	210.1704	65535	64719.45
798.518	212.4015	65535	64719.45
798.6603	214.632	65535	64717.35
798.8025	216.862	65535	64726.55
798.9448	219.0915	65535	64731.35
799.0871	221.3205	65535	64733.9
799.2294	223.549	65535	64740.55
799.3718	225.777	65535	64736.8
799.5141	228.0044	65535	64734.95
799.6565	230.2314	65535	64740.7
799.7989	232.4578	65535	64739.4
799.9413	234.6837	65535	64733.15
800.0837	236.909	65535	64729.2
800.2262	239.1339	65535	64706.5
800.3687	241.3582	65535	64715.85
800.5111	243.582	65535	64686.85
800.6536	245.8053	65535	64702.8
800.7961	248.0281	65535	64708.95
800.9387	250.2503	65535	64697.75
801.0812	252.472	65535	64696.4
801.2238	254.6932	65535	64701.1
801.3664	256.9139	65535	64692.25
801.509	259.134	65535	64690.55
801.6516	261.3536	65535	64691.85
801.7942	263.5727	65535	64687.4
801.9369	265.7912	65535	64686.7
802.0795	268.0092	65535	64693.1
802.2222	270.2267	65535	64689.95
802.3649	272.4436	65535	64689.4
802.5076	274.6601	65535	64684.45
802.6504	276.8759	65535	64688
802.7931	279.0913	65535	64686.8
802.9359	281.3061	65535	64680.45
803.0787	283.5204	65535	64675.6
803.2215	285.7341	65535	64674.45
803.3643	287.9473	65535	64660.45
803.5071	290.16	65535	64669.85
803.6499	292.3721	65535	64677.1
803.7928	294.5837	65535	64676.6
803.9357	296.7947	65535	64677.45
804.0786	299.0052	65535	64674.65
804.2215	301.2152	65535	64667.45
804.3644	303.4246	65535	64677.35
804.5074	305.6334	65535	64675.05
804.6503	307.8418	65535	64667.65
804.7933	310.0495	65535	64667.9
804.9363	312.2568	65535	64671.35
805.0793	314.4635	65535	64664.95
805.2223	316.6696	65535	64668.3
805.3653	318.8752	65535	64658.55
805.5084	321.0802	65535	64666.2
805.6514	323.2847	65535	64665.2
805.7945	325.4887	65535	64666
805.9376	327.692	65535	64665.45
806.0807	329.8949	65535	64663.05
806.2238	332.0972	65535	64661.7
806.367	334.2989	65535	64656.1
806.5101	336.5001	65535	64658.35
806.6533	338.7007	65535	64660.7
806.7965	340.9008	65535	64651.65
806.9397	343.1003	65535	64654.2
807.0829	345.2992	65535	64651.6
807.2261	347.4976	65535	64654.4
807.3693	349.6955	65535	64647.2
807.5126	351.8927	65535	64648.8
807.6559	354.0895	65535	64639.2
807.7991	356.2856	65535	64647.2
807.9424	358.4812	65535	64646.45
808.0857	360.6763	65535	64647.3
808.2291	362.8707	65535	64646.95
808.3724	365.0646	65535	64644.55
808.5158	367.258	65535	64647.3
808.6591	369.4508	65535	64638.6
808.8025	371.643	65535	64640.1
808.9459	373.8346	65535	64636.4
809.0893	376.0257	65535	64633.75
809.2327	378.2162	65535	64636.5
809.3762	380.4062	65535	64634.15
809.5196	382.5956	65535	64635.4
809.6631	384.7844	65535	64636.75
809.8066	386.9726	65535	64633.95
809.9501	389.1603	65535	64632.2
810.0936	391.3474	65535	64586.95
810.2371	393.5339	65535	64633.2
810.3806	395.7199	65535	64638.1
810.5241	397.9052	65535	64644.2
810.6677	400.09	65535	64641.6
810.8113	402.2743	65535	64647.05
810.9548	404.4579	65535	64647.6
811.0984	406.641	65535	64643.25
811.2421	408.8235	65535	64642.7
811.3857	411.0054	65535	64646.8
811.5293	413.1868	65535	64637.95
811.673	415.3675	65535	64640.2
811.8166	417.5477	65535	64637.25
811.9603	419.7273	65535	64635.8
812.104	421.9064	65535	64628.9
812.2477	424.0848	65535	64635.35
812.3914	426.2627	65535	64629.6
812.5351	428.4399	65535	64632.5
812.6788	430.6166	65535	64620.8
812.8226	432.7928	65535	64625.45
812.9663	434.9683	65535	64627.4
813.1101	437.1432	65535	64631.35
813.2539	439.3176	65535	64636.4
813.3977	441.4914	65535	64637
813.5415	443.6645	65535	64631.65
813.6853	445.8371	65535	64624.2
813.8291	448.0091	65535	64629.35
813.973	450.1806	65535	64628.65
814.1168	452.3514	65535	64633.45
814.2607	454.5216	65535	64619.5
814.4046	456.6913	65535	64628.95
814.5485	458.8603	65535	64629.8
814.6924	461.0288	65535	64634.2
814.8363	463.1967	65535	64636.65
814.9802	465.3639	65535	64628.65
815.1241	467.5306	65535	64633.45
815.2681	469.6967	65535	64630.85
815.412	471.8622	65535	64634.7
815.556	474.0271	65535	64633.65
815.7	476.1914	65535	64624.05
815.844	478.3551	65535	64624.4
815.988	480.5182	65535	64630.6
816.132	482.6807	65535	64636.35
816.276	484.8426	65535	64641.1
816.4201	487.0039	65535	64635.75
816.5641	489.1647	65535	64630.8
816.7082	491.3248	65535	64629.1
816.8522	493.4843	65535	64628.85
816.9963	495.6432	65535	64633.6
817.1404	497.8015	65535	64624.75
817.2845	499.9592	65535	64618.9
817.4286	502.1163	65535	64618.05
817.5727	504.2728	65535	64627.3
817.7168	506.4287	65535	64636.3
817.861	508.5839	65535	64632.75
818.0051	510.7386	65535	64627.3
818.1493	512.8927	65535	64613.85
818.2935	515.0461	65535	64623.15
818.4377	517.199	65535	64618.2
818.5818	519.3512	65535	64620
818.726	521.5029	65535	64617.35
818.8703	523.6539	65535	64625
819.0145	525.8043	65535	64621.8
819.1587	527.9541	65535	64620.25
819.303	530.1033	65535	64620.95
819.4472	532.2519	65535	64619.2
819.5915	534.3999	65535	64619.05
819.7357	536.5472	65535	64620.5
819.88	538.694	65535	64622.3
820.0243	540.8401	65535	64617.9
820.1686	542.9856	65535	64611.5
820.3129	545.1305	65535	64601.5
820.4572	547.2748	65535	64599.85
820.6016	549.4185	65535	64602.95
820.7459	551.5615	65535	64601.4
820.8902	553.704	65535	64610.2
821.0346	555.8458	65535	64605.5
821.1789	557.987	65535	64610.1
821.3233	560.1276	65535	64607.3
821.4677	562.2675	65535	64608.7
821.6121	564.4069	65535	64605.2
821.7565	566.5456	65535	64609.7
821.9009	568.6837	65535	64612.75
822.0453	570.8212	65535	64610.6
822.1897	572.958	65531.55	64608.25
822.3342	575.0942	65535	64613.05
822.4786	577.2299	65535	64620.6
822.6231	579.3648	65535	64626.4
822.7675	581.4992	65535	64633.7
822.912	583.6329	65535	64634.6
823.0565	585.766	65535	64634.05
823.201	587.8985	65535	64630
823.3454	590.0304	65526.65	64603.5
823.4899	592.1616	65535	64610.35
823.6345	594.2922	65531.85	64609.25
823.779	596.4222	65519.6	64593.75
823.9235	598.5515	65521.8	64592.9
824.068	600.6802	65531.75	64604.4
824.2126	602.8083	65509.25	64585.3
824.3571	604.9358	65504	64578.25
824.5017	607.0626	65524.35	64596.6
824.6462	609.1888	65432.4	64496.35
824.7908	611.3144	65501.9	64568.35
824.9354	613.4393	65463.05	64527.7
825.08	615.5636	65377	64441.55
825.2246	617.6873	65459.25	64527.6
825.3692	619.8103	65296.75	64366.15
825.5138	621.9327	65442.55	64509.15
825.6584	624.0544	65439.55	64514.1
825.803	626.1756	65410.75	64486.35
825.9477	628.2961	65398.3	64465.55
826.0923	630.4159	65345.2	64411.85
826.237	632.5351	65267.1	64335.65
826.3816	634.6537	65474.35	64541.65
826.5263	636.7716	65219.2	64280.2
826.6709	638.8889	65327.7	64387.65
826.8156	641.0056	65312.4	64375.15
826.9603	643.1216	65335.6	64397.2
827.105	645.237	65387.05	64450.15
827.2497	647.3518	65201.3	64274.05
827.3944	649.4659	65291.6	64367.15
827.5391	651.5793	65307.85	64378.95
827.6838	653.6922	65358.05	64429.75
827.8285	655.8043	65026.25	64099.95
827.9733	657.9159	65386.4	64453.75
828.118	660.0268	64602.7	63671.9
828.2627	662.137	65191	64259.5
828.4075	664.2466	65203.85	64268.25
828.5522	666.3556	65003.9	64065.85
828.697	668.4639	65183.3	64250.1
828.8418	670.5716	64920.6	63993.45
828.9865	672.6786	65117.3	64184.9
829.1313	674.785	64886.15	63943.3
829.2761	676.8907	64965.4	64030.35
829.4209	678.9958	65135.45	64205.25
829.5657	681.1002	65120.15	64184.5
829.7105	683.204	64813.35	63870.8
829.8553	685.3072	64567.3	63628.3
830.0001	687.4097	64754.3	63820.9
830.1449	689.5115	64502.55	63561.15
830.2898	691.6127	64876.6	63943.1
830.4346	693.7132	64506.3	63571.05
830.5794	695.8131	64491.1	63538.15
830.7243	697.9123	64600.2	63659.25
830.8691	700.0109	64590.35	63649.8
831.014	702.1089	64054.1	63114.8
831.1588	704.2061	64205.6	63267.1
831.3037	706.3028	64285.75	63344.15
831.4486	708.3987	64383.5	63445.05
831.5935	710.4941	64185.5	63245.3
831.7383	712.5887	64581.65	63644.1
831.8832	714.6827	64371.1	63428.7
832.0281	716.7761	64760.25	63824.9
832.173	718.8688	64921.75	63987.2
832.3179	720.9608	64590.05	63644.9
832.4628	723.0522	64587.95	63639.5
832.6077	725.1429	64166.05	63224.35
832.7527	727.233	64877.5	63937.9
832.8976	729.3224	63211.7	62270.5
833.0425	731.4112	63720.1	62777.25
833.1874	733.4993	63680.5	62737.05
833.3324	735.5867	63701.25	62764.25
833.4773	737.6735	63264.55	62323.9
833.6222	739.7596	62849.6	61906.1
833.7672	741.845	62793.5	61853
833.9122	743.9298	63454.3	62514.25
834.0571	746.014	62798.05	61857.6
834.2021	748.0974	62357.25	61409.35
834.347	750.1802	63255.75	62308.65
834.492	752.2624	62127.45	61183.05
834.637	754.3439	62288.3	61342.2
834.782	756.4247	62590.55	61636.65
834.9269	758.5048	62082.75	61140.85
835.0719	760.5843	62264.45	61314.2
835.2169	762.6631	62575.35	61631.8
835.3619	764.7413	62517.1	61574.6
835.5069	766.8188	62769.25	61825.15
835.6519	768.8956	63287.25	62342.2
835.7969	770.9718	63199	62253.75
835.9419	773.0473	62891.1	61947.6
836.0869	775.1221	62156.9	61212.55
836.232	777.1962	62012.05	61066.75
836.377	779.2697	61247.15	60298.7
836.522	781.3426	61822.8	60867
836.667	783.4147	62155.7	61207.2
836.8121	785.4862	62122.1	61179.6
836.9571	787.557	61507.65	60558.7
837.1021	789.6271	61957.45	61011.15
837.2472	791.6966	61087.2	60140.5
837.3922	793.7654	60201.75	59257.95
837.5373	795.8335	60059.4	59113.05
837.6823	797.901	60153.4	59206.6
837.8274	799.9678	59692.3	58744.65
837.9724	802.0339	59646.7	58699.2
838.1175	804.0993	59721.3	58765.85
838.2626	806.1641	59382.95	58434.05
838.4076	808.2282	59153.55	58210.35
838.5527	810.2916	58939.65	57992.95
838.6978	812.3544	59192.9	58248.55
838.8428	814.4164	58357.15	57411.35
838.9879	816.4778	58487.25	57535.2
839.133	818.5385	58481.65	57531.9
839.2781	820.5986	58322.35	57372.95
839.4232	822.658	58402.3	57453
839.5682	824.7166	58341.95	57396.25
839.7133	826.7747	57730.65	56780
839.8584	828.832	58079.7	57131.1
840.0035	830.8886	58386.95	57437.3
840.1486	832.9446	58407.25	57457
840.2937	834.9999	57383.2	56433.25
840.4388	837.0545	58046.6	57096.55
840.5839	839.1085	58299.9	57351.1
840.729	841.1618	58061.1	57110.95
840.8741	843.2143	57342.45	56392.6
841.0192	845.2662	57297.85	56350.35
841.1643	847.3175	57459.85	56512.1
841.3095	849.368	56554.1	55606.75
841.4546	851.4179	56982.35	56035.6
841.5997	853.467	56286.45	55337.6
841.7448	855.5155	56407.55	55458.5
841.8899	857.5633	55893.3	54944.4
842.0351	859.6105	55502	54553.05
842.1802	861.6569	55634.4	54684.25
842.3253	863.7027	55106.8	54154.85
842.4704	865.7478	55225.75	54271.7
842.6156	867.7922	55071.35	54120.35
842.7607	869.8359	55400.35	54449.8
842.9058	871.8789	54857.2	53904.4
843.0509	873.9212	55244.5	54264.75
843.1961	875.9629	55185.45	54236
843.3412	878.0039	55324.35	54370.75
843.4863	880.0441	55141.1	54192.1
843.6315	882.0837	55037.35	54090.65
843.7766	884.1226	54830.6	53877.2
843.9218	886.1609	54624.75	53674.55
844.0669	888.1984	54293.2	53346.9
844.212	890.2352	54522.45	53577
844.3572	892.2714	53874.95	52924.15
844.5023	894.3069	53931.45	52980.05
844.6475	896.3416	53728.95	52778.45
844.7926	898.3757	53581.3	52629.1
844.9377	900.4091	53166.6	52214.95
845.0829	902.4418	53489.8	52535.15
845.228	904.4739	53054.95	52099.05
845.3732	906.5052	53172.45	52216.95
845.5183	908.5358	52782.1	51833.9
845.6635	910.5658	52456.9	51503.6
845.8086	912.595	52267.25	51313.05
845.9538	914.6236	51771.6	50818
846.0989	916.6515	52207.5	51256.2
846.2441	918.6786	51505.8	50554.05
846.3892	920.7051	51646.45	50693.05
846.5344	922.7309	51701.5	50750.2
846.6795	924.756	51681.2	50730.2
846.8246	926.7804	51537.3	50582
846.9698	928.8041	51029.25	50077.45
847.1149	930.8272	51131.5	50179.1
847.2601	932.8495	50948.05	49993.75
847.4052	934.8711	50608.9	49654.2
847.5504	936.892	50280.3	49329
847.6955	938.9123	50011.45	49058
847.8407	940.9318	49723.75	48773.05
847.9858	942.9506	49416	48463.85
848.131	944.9688	49212.55	48261.25
848.2761	946.9862	48848.6	47897.8
848.4213	949.003	48735.65	47783.75
848.5664	951.019	48470.25	47518.95
848.7115	953.0344	48482.55	47534.7
848.8567	955.0491	48397.7	47443.1
849.0018	957.063	48449.5	47498.15
849.147	959.0763	48543.4	47585.6
849.2921	961.0888	48356.4	47408.5
849.4373	963.1007	48372.75	47423.9
849.5824	965.1119	48305	47362.85
849.7275	967.1223	48177.25	47238.3
849.8727	969.1321	48170.5	47231.65
850.0178	971.1412	48011.7	47067.9
850.1629	973.1495	47883.1	46935.2
850.3081	975.1572	47776.15	46794.45
850.4532	977.1641	47767.5	46814.25
850.5983	979.1704	47550.9	46599.6
850.7435	981.1759	47427.55	46472.55
850.8886	983.1808	47401.95	46452.65
851.0337	985.1849	47362.85	46403
851.1788	987.1884	47398.1	46449.5
851.324	989.1911	47530.4	46578.35
851.4691	991.1932	47460.5	46510.9
851.6142	993.1945	47428.3	46481.4
851.7593	995.1951	47174.9	46225.4
851.9045	997.1951	46981.9	46025.9
852.0496	999.1943	46750.55	45802.85
852.1947	1001.1928	46501.75	45552.15
852.3398	1003.1906	46286.65	45336.85
852.4849	1005.1877	46188.4	45239.9
852.63	1007.1841	45956.75	45008.6
852.7751	1009.1798	45709.15	44758.75
852.9202	1011.1748	45289.35	44339.9
853.0653	1013.1691	45004.35	44056.45
853.2104	1015.1627	44599.95	43653.7
853.3555	1017.1556	44127.55	43181.4
853.5006	1019.1477	43916.35	42972.4
853.6457	1021.1392	43633.3	42694.35
853.7908	1023.1299	43459.35	42521
853.9359	1025.12	43304.65	42369.05
854.081	1027.1093	43145.35	42218.8
854.2261	1029.0979	43132	42207.5
854.3712	1031.0859	42988.4	42058.75
854.5163	1033.0731	42876.65	41937.7
854.6613	1035.0596	42588.2	41647.75
854.8064	1037.0454	42203.2	41260.2
854.9515	1039.0304	42024.5	41077.6
855.0965	1041.0148	41718.4	40772.95
855.2416	1042.9985	41499.2	40552.8
855.3867	1044.9814	41494.55	40552.3
855.5317	1046.9636	41216.3	40268.9
855.6768	1048.9452	41077.95	40133.05
855.8219	1050.926	40948.85	40004.95
855.9669	1052.9061	40763	39816.2
856.112	1054.8855	40630.15	39684.95
856.257	1056.8642	40586.4	39638.65
856.4021	1058.8421	40596.9	39651.25
856.5471	1060.8194	40435.35	39485.4
856.6921	1062.7959	40373.9	39424.25
856.8372	1064.7717	40238.2	39289.6
856.9822	1066.7469	40137.55	39185.7
857.1272	1068.7213	39996.45	39047.6
857.2723	1070.695	39840.9	38893.3
857.4173	1072.6679	39591.2	38645.25
857.5623	1074.6402	39466.2	38520.05
857.7073	1076.6117	39415.8	38462.4
857.8523	1078.5826	39358.9	38409.95
857.9973	1080.5527	39230.45	38277.9
858.1423	1082.5221	39300.4	38354.3
858.2873	1084.4908	39461.95	38513.55
858.4323	1086.4587	39566.7	38621.8
858.5773	1088.426	39644.1	38692.2
858.7223	1090.3925	39505.35	38556
858.8673	1092.3584	39375.95	38428.75
859.0123	1094.3235	38967.35	38022.7
859.1573	1096.2879	38694.25	37747.9
859.3022	1098.2515	38594.4	37648.8
859.4472	1100.2145	38547.95	37602.4
859.5922	1102.1767	38425.7	37476.45
859.7371	1104.1382	38481.2	37535.9
859.8821	1106.099	38566.85	37621.15
860.027	1108.0591	38663.3	37719.7
860.172	1110.0185	38669.3	37725.15
860.3169	1111.9771	38621.6	37673.35
860.4619	1113.9351	38218.5	37271.25
860.6068	1115.8923	37764.5	36819.2
860.7517	1117.8488	37291.55	36343.2
860.8967	1119.8045	36802.45	35856.8
861.0416	1121.7596	36699.4	35754.15
861.1865	1123.7139	36452.25	35509.25
861.3314	1125.6675	36338.95	35395.1
861.4763	1127.6204	36418.8	35474.3
861.6212	1129.5726	36294.85	35353.25
861.7661	1131.524	36259.2	35315.5
861.911	1133.4748	36277.4	35333.05
862.0559	1135.4248	36158.75	35214.85
862.2008	1137.3741	36133.1	35190.4
862.3457	1139.3226	35995.3	35050
862.4905	1141.2705	35969.1	35025.05
862.6354	1143.2176	35655.65	34706.85
862.7803	1145.164	35638.5	34688.95
862.9251	1147.1097	35581.85	34638.2
863.07	1149.0546	35551.95	34605.2
863.2148	1150.9989	35380	34434.85
863.3597	1152.9424	35187.4	34242
863.5045	1154.8852	34875.5	33933.1
863.6493	1156.8272	34631.55	33688.65
863.7942	1158.7686	34567.15	33614.6
863.939	1160.7092	34427	33481.7
864.0838	1162.6491	34234.55	33285.75
864.2286	1164.5883	34264.9	33322.05
864.3734	1166.5267	34182.2	33237.95
864.5182	1168.4644	34285.95	33343
864.663	1170.4014	34314.25	33370.85
864.8078	1172.3377	34545.9	33605.2
864.9526	1174.2732	34675.6	33733.35
865.0974	1176.2081	34797.15	33853.45
865.2421	1178.1421	34928.1	33981.85
865.3869	1180.0755	34999.5	34057.3
865.5317	1182.0082	34867.1	33927.05
865.6764	1183.9401	34717.6	33776.3
865.8212	1185.8713	34364.85	33431.7
865.9659	1187.8017	34069.35	33142.55
866.1106	1189.7315	33747.6	32826.75
866.2554	1191.6605	33298.5	32372.9
866.4001	1193.5888	33043.2	32109.85
866.5448	1195.5163	32885.3	31947.6
866.6895	1197.4432	32626.15	31684.95
866.8342	1199.3693	32500.1	31563.25
866.9789	1201.2947	32346.9	31399.75
867.1236	1203.2193	32172.9	31230.65
867.2683	1205.1432	32152.25	31211.55
867.413	1207.0664	32061.65	31116.3
867.5576	1208.9889	32043.95	31101.15
867.7023	1210.9106	32007.05	31065.5
867.847	1212.8316	32001.95	31062.95
867.9916	1214.7519	32038.9	31087.8
868.1363	1216.6715	31910.35	30972.85
868.2809	1218.5903	31788.75	30848.45
868.4255	1220.5084	31613.35	30673.15
868.5701	1222.4257	31567.6	30628.95
868.7148	1224.3424	31321.05	30386.1
868.8594	1226.2583	31273.95	30331.5
869.004	1228.1735	31314.95	30376.4
869.1486	1230.0879	31340.05	30400.9
869.2932	1232.0016	31356.25	30417.7
869.4377	1233.9146	31351.55	30411.6
869.5823	1235.8269	31111.9	30171.75
869.7269	1237.7384	30966.3	30027.45
869.8715	1239.6492	30589.5	29648.2
870.016	1241.5592	30495.15	29557
870.1606	1243.4686	30265.25	29324.2
870.3051	1245.3772	30107.55	29168.25
870.4496	1247.285	29956.3	29014.45
870.5941	1249.1922	29815.6	28876
870.7387	1251.0986	29781.6	28843.55
870.8832	1253.0042	29652.1	28713.2
871.0277	1254.9092	29698.85	28759.3
871.1722	1256.8134	29671.8	28736.75
871.3167	1258.7169	29830.8	28892
871.4611	1260.6196	29848.6	28913.65
871.6056	1262.5216	29986.5	29046.35
871.7501	1264.4229	30067.6	29130.5
871.8945	1266.3234	30150.55	29212.9
872.039	1268.2232	30108.8	29169.3
872.1834	1270.1223	29990.45	29052.65
872.3278	1272.0207	29943.6	29009.4
872.4723	1273.9183	29834.75	28893.1
872.6167	1275.8151	29656.1	28722
872.7611	1277.7113	29492.75	28559.2
872.9055	1279.6067	29275.95	28341.9
873.0499	1281.5014	29077.05	28137.9
873.1943	1283.3953	28837.8	27901.2
873.3386	1285.2885	28675.2	27740.15
873.483	1287.181	28513.3	27579.4
873.6274	1289.0727	28473.6	27539.5
873.7717	1290.9637	28454.05	27518.35
873.9161	1292.854	28545.3	27610.8
874.0604	1294.7435	28607.8	27671.2
874.2047	1296.6323	28789.9	27854.7
874.349	1298.5204	28983.9	28043.6
874.4933	1300.4077	29227.25	28289.65
874.6376	1302.2943	29374.95	28440.65
874.7819	1304.1802	29411.65	28477.9
874.9262	1306.0653	29253.65	28317.75
875.0705	1307.9497	29035.8	28101.5
875.2147	1309.8333	28944.6	28008.5
875.359	1311.7162	28920.1	27983.6
875.5032	1313.5984	28965.1	28027.25
875.6475	1315.4798	29008.25	28057.85
875.7917	1317.3605	29117.7	28176.1
875.9359	1319.2405	29261.55	28320.35
876.0801	1321.1197	29233.45	28294.5
876.2243	1322.9982	29136	28195.75
876.3685	1324.876	29117	28183.3
876.5127	1326.753	29023.35	28085.2
876.6569	1328.6293	29087.8	28152.45
876.801	1330.5048	29025.95	28085.7
876.9452	1332.3796	28900.35	27965.55
877.0893	1334.2537	28843.75	27884.75
877.2335	1336.127	28752.85	27815.5
877.3776	1337.9996	28655.95	27721.1
877.5217	1339.8714	28537.25	27599.55
877.6658	1341.7426	28441.35	27465.4
877.8099	1343.6129	28300.4	27365.35
877.954	1345.4826	28153.55	27218.25
878.0981	1347.3515	28092.1	27154.8
878.2422	1349.2196	27948.65	27010.65
878.3862	1351.087	27907.1	26970.4
878.5303	1352.9537	27889.9	26955.05
878.6743	1354.8197	27978.1	27043.3
878.8184	1356.6849	28164.75	27224.4
878.9624	1358.5493	28137.9	27199.95
879.1064	1360.4131	28075.2	27140
879.2504	1362.276	27951.6	27017.95
879.3944	1364.1383	27721.35	26786.9
879.5384	1365.9998	27391.25	26452.25
879.6823	1367.8606	27063	26126.15
879.8263	1369.7206	26764	25826.25
879.9702	1371.5799	26527.55	25590.05
880.1142	1373.4384	26333	25398.2
880.2581	1375.2962	26180.5	25245.5
880.402	1377.1533	25836.8	24905.1
880.5459	1379.0096	25478	24546.1
880.6898	1380.8652	25152.45	24220.1
880.8337	1382.7201	24876.7	23947.5
880.9776	1384.5742	24531.25	23595.8
881.1215	1386.4275	24327.9	23396.05
881.2653	1388.2802	24159.95	23227.05
881.4092	1390.132	23987.75	23054.1
881.553	1391.9832	23882.9	22947.35
881.6968	1393.8336	23711.8	22772.8
881.8406	1395.6832	23590.3	22654.55
881.9844	1397.5322	23544.25	22610.65
882.1282	1399.3803	23465.75	22527.8
882.272	1401.2278	23327.8	22393.55
882.4158	1403.0745	23253.25	22320.9
882.5595	1404.9204	23124.55	22194.4
882.7033	1406.7656	23116.9	22184.4
882.847	1408.6101	23042.75	22108.35
882.9908	1410.4538	22964.15	22031.6
883.1345	1412.2968	22945.55	22011.75
883.2782	1414.139	22892.5	21962.15
883.4219	1415.9805	22931.8	21995.1
883.5656	1417.8213	22898.1	21947.15
883.7092	1419.6613	23007.45	22075.45
883.8529	1421.5006	23118.9	22188.6
883.9965	1423.3391	23375.6	22443.9
884.1402	1425.1769	23678.9	22746.95
884.2838	1427.0139	24127.05	23193.35
884.4274	1428.8502	24722	23787.95
884.571	1430.6858	25244.75	24315.65
884.7146	1432.5206	25596	24666.3
884.8582	1434.3547	25820.35	24887.3
885.0018	1436.188	25852.65	24922.95
885.1453	1438.0206	25787.3	24854.25
885.2889	1439.8524	25528.5	24595.35
885.4324	1441.6835	25402.15	24467.35
885.5759	1443.5139	25232.95	24300.7
885.7194	1445.3435	25169.45	24238.35
885.8629	1447.1724	25036.15	24107.4
886.0064	1449.0005	24947.3	24019.05
886.1499	1450.8279	24743.3	23813.1
886.2933	1452.6545	24726.95	23799.05
886.4368	1454.4804	24671.4	23742.8
886.5802	1456.3056	24667.75	23734.2
886.7237	1458.13	24491.8	23565.4
886.8671	1459.9536	24283.65	23351.75
887.0105	1461.7766	23874.05	22946.85
887.1539	1463.5987	23352.55	22423.4
887.2972	1465.4202	22943.9	22012.6
887.4406	1467.2409	22542.1	21612.1
887.584	1469.0608	22224.6	21295.7
887.7273	1470.88	21919.5	20991.4
887.8706	1472.6984	21667.1	20737.95
888.0139	1474.5161	21387.8	20456.45
888.1572	1476.3331	21217.05	20290.3
888.3005	1478.1493	21048.85	20120.05
888.4438	1479.9648	20917.9	19990.25
888.5871	1481.7795	20789.65	19861.75
888.7303	1483.5935	20702.75	19774.7
888.8736	1485.4067	20601.35	19670.5
889.0168	1487.2192	20548.45	19619.1
889.16	1489.031	20494.8	19562.6
889.3032	1490.842	20419.15	19489.9
889.4464	1492.6522	20353.8	19424.7
889.5896	1494.4618	20246.75	19318.65
889.7327	1496.2705	20214.85	19288.1
889.8759	1498.0785	20168.45	19238.45
890.019	1499.8858	20092.9	19161.05
890.1622	1501.6924	20017.1	19089.4
890.3053	1503.4981	19966.4	19039.25
890.4484	1505.3032	19903.3	18974.35
890.5914	1507.1075	19891.85	18967.3
890.7345	1508.911	19795.75	18868.5
890.8776	1510.7138	19752.1	18825
891.0206	1512.5159	19672.6	18743
891.1637	1514.3172	19570.35	18644.6
891.3067	1516.1178	19423.5	18499.25
891.4497	1517.9176	19459.8	18528.05
891.5927	1519.7166	19357.25	18429.95
891.7357	1521.515	19267.3	18334.2
891.8786	1523.3126	19188.05	18260.95
892.0216	1525.1094	19153.6	18227.55
892.1645	1526.9055	19071.25	18144.75
892.3074	1528.7008	18954.8	18028.3
892.4503	1530.4954	18856.15	17926.95
892.5932	1532.2893	18844.45	17923.2
892.7361	1534.0824	18732.75	17806.7
892.879	1535.8747	18721.2	17800
893.0218	1537.6663	18646.9	17724.45
893.1647	1539.4572	18563.1	17641.2
893.3075	1541.2473	18543.05	17618.5
893.4503	1543.0367	18456.75	17537.45
893.5931	1544.8253	18384	17457.8
893.7359	1546.6132	18390.3	17466.65
893.8787	1548.4003	18315.9	17385.7
894.0214	1550.1867	18300.7	17370.65
894.1642	1551.9723	18265.15	17340.9
894.3069	1553.7572	18228.8	17306.2
894.4496	1555.5414	18212.55	17294.35
894.5923	1557.3247	18162.85	17244.7
894.735	1559.1074	18156.3	17241.45
894.8777	1560.8893	18155.2	17239.3
895.0204	1562.6705	18173	17256.5
895.163	1564.4509	18214.9	17301.55
895.3056	1566.2305	18212.8	17298.7
895.4482	1568.0094	18328.7	17415.4
895.5908	1569.7876	18375.1	17458.45
895.7334	1571.565	18422.4	17502.05
895.876	1573.3417	18433.6	17517.9
896.0186	1575.1176	18438.3	17523.85
896.1611	1576.8928	18365.35	17453.4
896.3036	1578.6672	18227.2	17318.55
896.4461	1580.4409	18053.35	17147.25
896.5886	1582.2138	17883.1	16972.15
896.7311	1583.986	17699.65	16790.25
896.8736	1585.7575	17594.95	16682.3
897.0161	1587.5282	17454.6	16544.7
897.1585	1589.2981	17375.65	16468.95
897.3009	1591.0673	17262.5	16351.4
897.4433	1592.8358	17212.95	16303.9
897.5857	1594.6035	17156.45	16242.15
897.7281	1596.3704	17100.25	16185.25
897.8705	1598.1366	17094.3	16182.5
898.0128	1599.9021	17040.25	16127.4
898.1551	1601.6668	17006	16092.85
898.2975	1603.4308	17033.15	16120.5
898.4398	1605.194	17083.75	16168.55
898.5821	1606.9564	17106.8	16203.05
898.7243	1608.7182	17149.15	16246.9
898.8666	1610.4791	17226.15	16327.3
899.0088	1612.2394	17337.7	16438.25
899.1511	1613.9988	17465.9	16566.05
899.2933	1615.7576	17660.45	16756.75
899.4355	1617.5156	17920.85	17004.75
899.5776	1619.2728	18141.1	17230.85
899.7198	1621.0293	18280.85	17372.6
899.862	1622.785	18323.25	17417.55
900.0041	1624.54	18171.5	17266.05
900.1462	1626.2942	18039.9	17135
900.2883	1628.0477	17692.1	16785.4
900.4304	1629.8005	17384.65	16477.05
900.5725	1631.5525	17133.4	16229.2
900.7145	1633.3037	16876.9	15974.95
900.8566	1635.0542	16692.4	15790.95
900.9986	1636.804	16492.15	15589.1
901.1406	1638.553	16398.9	15426.55
901.2826	1640.3013	16293.35	15388.65
901.4245	1642.0488	16210.15	15304.55
901.5665	1643.7955	16128.4	15225.55
901.7085	1645.5416	16096.45	15193.2
901.8504	1647.2868	16120.1	15214.4
901.9923	1649.0313	16135.8	15230.7
902.1342	1650.7751	16270.6	15362.1
902.2761	1652.5181	16394.75	15493.65
902.4179	1654.2604	16603	15701.1
902.5598	1656.0019	16865.75	15965.6
902.7016	1657.7427	17195.05	16292.1
902.8434	1659.4828	17531.2	16625.95
902.9852	1661.222	17714.6	16810.1
903.127	1662.9606	17778.4	16873
903.2687	1664.6984	17616.8	16711.7
903.4105	1666.4354	17284.9	16377.35
903.5522	1668.1717	16791.95	15884.15
903.6939	1669.9072	16302.7	15394.1
903.8356	1671.642	15901.55	14992.45
903.9773	1673.3761	15602.65	14694.1
904.119	1675.1094	15300.6	14395.25
904.2606	1676.8419	15133.7	14229.75
904.4022	1678.5737	14944.1	14039.2
904.5439	1680.3048	14815.2	13906.4
904.6855	1682.0351	14642.75	13735.7
904.827	1683.7646	14567	13656.6
904.9686	1685.4934	14502.8	13597.7
905.1101	1687.2215	14407.85	13504.5
905.2517	1688.9488	14307.4	13405.05
905.3932	1690.6754	14228.5	13326.45
905.5347	1692.4012	14183.65	13280.3
905.6761	1694.1263	14141.05	13234.75
905.8176	1695.8506	14107.05	13203.4
905.9591	1697.5742	14051.15	13149.95
906.1005	1699.297	13969.35	13067.95
906.2419	1701.0191	13895.95	12997.85
906.3833	1702.7404	13828.65	12929.5
906.5246	1704.461	13751.75	12848.1
906.666	1706.1808	13694.95	12792.9
906.8073	1707.8999	13641.55	12740.6
906.9487	1709.6182	13560.25	12663.7
907.09	1711.3358	13556.05	12658.85
907.2313	1713.0527	13491.35	12597.35
907.3725	1714.7688	13453.1	12552.15
907.5138	1716.4841	13369.35	12471.05
907.655	1718.1987	13368.25	12466.5
907.7962	1719.9126	13310.65	12412.15
907.9374	1721.6257	13260.75	12365.15
908.0786	1723.338	13237.9	12340.85
908.2198	1725.0496	13151.3	12254.15
908.3609	1726.7605	13118.15	12219.1
908.502	1728.4706	13074.15	12175.55
908.6431	1730.18	12988.25	12091.05
908.7842	1731.8886	12972.7	12078.15
908.9253	1733.5964	12945.9	12028.95
909.0664	1735.3036	12933.8	12034.7
909.2074	1737.0099	12889.75	11993.8
909.3484	1738.7156	12856.45	11962.85
909.4894	1740.4204	12767.4	11869.55
909.6304	1742.1246	12735.9	11835.45
909.7714	1743.8279	12711.95	11815.3
909.9123	1745.5306	12695	11798.85
910.0532	1747.2325	12652.65	11759.2
910.1941	1748.9336	12581.95	11686.5
910.335	1750.634	12562.8	11662.05
910.4759	1752.3336	12536.4	11639.25
910.6168	1754.0325	12502.85	11609.8
910.7576	1755.7307	12494.85	11600.15
910.8984	1757.4281	12469.25	11573.2
911.0392	1759.1247	12444.7	11537.8
911.18	1760.8206	12384.55	11481.45
911.3208	1762.5158	12399.05	11496.3
911.4615	1764.2102	12336.05	11440.45
911.6022	1765.9039	12289.55	11393.8
911.7429	1767.5968	12269.95	11380.1
911.8836	1769.289	12199.55	11306.8
912.0243	1770.9804	12171.55	11274.5
912.1649	1772.6711	12181.05	11282.95
912.3056	1774.361	12143.5	11243.75
912.4462	1776.0502	12095.5	11196.45
912.5868	1777.7386	12099	11200
912.7274	1779.4263	12046.55	11152.4
912.8679	1781.1132	12032.2	11138.7
913.0084	1782.7994	11980.45	11085.65
913.149	1784.4849	11930.5	11039.8
913.2895	1786.1696	11891.45	10992.55
913.4299	1787.8535	11873.35	10979.25
913.5704	1789.5367	11825.95	10938.85
913.7108	1791.2192	11815.85	10924.6
913.8513	1792.9009	11819.3	10900.1
913.9917	1794.5818	11722.15	10824.6
914.132	1796.2621	11703	10806.15
914.2724	1797.9415	11682.4	10783.55
914.4128	1799.6202	11668.6	10773.7
914.5531	1801.2982	11646.75	10751.1
914.6934	1802.9755	11632.65	10737.65
914.8337	1804.6519	11585.55	10689.8
914.9739	1806.3277	11544.05	10651.75
915.1142	1808.0027	11501.4	10611.4
915.2544	1809.6769	11484.85	10594.15
915.3946	1811.3504	11461	10568.3
915.5348	1813.0231	11418.75	10527.9
915.675	1814.6951	11381.9	10489.1
915.8151	1816.3664	11396	10500.35
915.9553	1818.0369	11357.35	10460.9
916.0954	1819.7067	11316.7	10422.9
916.2355	1821.3757	11282.2	10386.3
916.3755	1823.044	11282.2	10387.95
916.5156	1824.7115	11265.15	10369.75
916.6556	1826.3783	11220.7	10326
916.7956	1828.0443	11185.4	10293.15
916.9356	1829.7096	11140.7	10245.55
917.0756	1831.3741	11135.45	10238.15
917.2155	1833.0379	11105.1	10213
917.3555	1834.701	11084.1	10191.5
917.4954	1836.3633	11062.6	10173.85
917.6353	1838.0248	11029.1	10139.1
917.7751	1839.6856	10985	10093.95
917.915	1841.3457	10992.1	10101.05
918.0548	1843.005	10954.15	10060.7
918.1946	1844.6636	10957.55	10064.5
918.3344	1846.3214	10922.95	10029.15
918.4742	1847.9785	10887.95	9992.8
918.6139	1849.6349	10870.6	9975.95
918.7537	1851.2904	10856.3	9954.55
918.8934	1852.9453	10813	9916.6
919.0331	1854.5994	10758.45	9861.4
919.1727	1856.2528	10766.75	9868.95
919.3124	1857.9054	10759.75	9867.55
919.452	1859.5572	10721.1	9828.55
919.5916	1861.2083	10729.2	9834.7
919.7312	1862.8587	10727.05	9831.85
919.8708	1864.5084	10696.35	9799.7
920.0103	1866.1572	10648.9	9754.45
920.1498	1867.8054	10619.2	9726.25
920.2893	1869.4528	10566.6	9670.05
920.4288	1871.0994	10527.5	9632.5
920.5683	1872.7453	10518.55	9622.4
920.7077	1874.3905	10513.3	9600.55
920.8471	1876.0349	10481.8	9586.15
920.9865	1877.6786	10459.6	9563.4
921.1259	1879.3215	10461.5	9567.6
921.2653	1880.9637	10410.7	9513.8
921.4046	1882.6051	10416.25	9525.35
921.5439	1884.2458	10378.65	9483.2
921.6832	1885.8858	10337.8	9443.2
921.8225	1887.525	10307.9	9413.2
921.9617	1889.1634	10270.1	9375.9
922.101	1890.8011	10246.6	9350.75
922.2402	1892.4381	10209.9	9316.35
922.3794	1894.0743	10213.8	9323.2
922.5185	1895.7098	10163.3	9271.15
922.6577	1897.3446	10112.3	9213.05
922.7968	1898.9786	10124	9226.45
922.9359	1900.6118	10107	9213.35
923.075	1902.2443	10043.8	9148.4
923.214	1903.8761	10045.6	9153.7
923.3531	1905.5071	10001.45	9105.55
923.4921	1907.1374	9968.25	9076.8
923.6311	1908.7669	9941	9048.15
923.77	1910.3957	9914.6	9021.05
923.909	1912.0237	9863.05	8972.55
924.0479	1913.651	9833.8	8939.1
924.1868	1915.2776	9836.45	8944.55
924.3257	1916.9034	9766.35	8875.35
924.4646	1918.5285	9734.9	8841.6
924.6034	1920.1528	9698.2	8807.9
924.7422	1921.7764	9711.5	8820.4
924.881	1923.3992	9684.25	8792
925.0198	1925.0213	9611.15	8719.7
925.1586	1926.6427	9548.65	8657.65
925.2973	1928.2633	9599.65	8639.55
925.436	1929.8832	9540.4	8647.05
925.5747	1931.5023	9494.75	8603.9
925.7134	1933.1207	9473.35	8580.55
925.852	1934.7383	9439.55	8547.2
925.9906	1936.3552	9399	8510.25
926.1292	1937.9714	9393	8500.9
926.2678	1939.5868	9360.45	8466.5
926.4064	1941.2015	9301.5	8407.5
926.5449	1942.8154	9290.75	8396.75
926.6834	1944.4286	9230.25	8334.25
926.8219	1946.041	9205.55	8292.4
926.9604	1947.6528	9147.55	8249.6
927.0988	1949.2637	9129.95	8238
927.2372	1950.8739	9107.85	8216.55
927.3756	1952.4834	9096.35	8204.3
927.514	1954.0921	9073.45	8180.7
927.6523	1955.7001	9040.2	8146.4
927.7907	1957.3074	9007.55	8118.8
927.929	1958.9139	8955.75	8067
928.0673	1960.5197	8937.6	8047.05
928.2055	1962.1247	8915.75	8024.25
928.3438	1963.729	8855.5	7967.35
928.482	1965.3325	8838.7	7925.95
928.6202	1966.9353	8804.15	7915.95
928.7584	1968.5374	8756.5	7866.55
928.8965	1970.1387	8777.15	7888.35
929.0346	1971.7393	8732.6	7842.5
929.1727	1973.3392	8710.6	7822.25
929.3108	1974.9383	8667	7778
929.4489	1976.5366	8646.75	7759.65
929.5869	1978.1342	8634.35	7745.25
929.7249	1979.7311	8584.5	7694.85
929.8629	1981.3273	8565.5	7676.95
930.0009	1982.9227	8539.7	7653.55
930.1388	1984.5173	8509.65	7624.35
930.2767	1986.1112	8464.25	7578.3
930.4146	1987.7044	8465.1	7578.35
930.5525	1989.2968	8437.6	7549.15
930.6904	1990.8885	8425.95	7537.45
930.8282	1992.4795	8383.9	7497.4
930.966	1994.0697	8364	7478.3
931.1038	1995.6592	8354.7	7468.5
931.2415	1997.2479	8309.35	7421.4
931.3793	1998.8359	8299.1	7413.05
931.517	2000.4232	8266.5	7383.2
931.6547	2002.0097	8234.85	7352.3
931.7923	2003.5955	8199.2	7314.45
931.93	2005.1805	8205.85	7322.8
932.0676	2006.7648	8193.6	7310.4
932.2052	2008.3484	8157.95	7272.1
932.3427	2009.9312	8159.95	7277.5
932.4803	2011.5133	8116.05	7233.8
932.6178	2013.0946	8082.15	7199
932.7553	2014.6752	8059.6	7177.4
932.8928	2016.2551	8047.35	7162
933.0302	2017.8342	8009.15	7124.8
933.1676	2019.4126	7986.2	7103.2
933.305	2020.9902	7954	7075
933.4424	2022.5672	7944.4	7060.45
933.5798	2024.1433	7931.55	7042.9
933.7171	2025.7188	7864.25	6982.85
933.8544	2027.2935	7875.95	6994.05
933.9917	2028.8674	7852	6969.9
934.129	2030.4406	7844.25	6962.85
934.2662	2032.0131	7796.7	6915.3
934.4034	2033.5849	7778.85	6891.2
934.5406	2035.1559	7768.5	6887.9
934.6778	2036.7261	7741.35	6858.3
934.8149	2038.2957	7711.8	6828.15
934.952	2039.8645	7725.8	6840.1
935.0891	2041.4325	7715.65	6827.95
935.2262	2042.9998	7652.8	6768.65
935.3632	2044.5664	7676.85	6792.15
935.5002	2046.1323	7621.4	6740.15
935.6372	2047.6974	7594.7	6709.6
935.7742	2049.2617	7587.25	6707.1
935.9111	2050.8254	7591.6	6702.1
936.048	2052.3883	7585.75	6700.65
936.1849	2053.9504	7542.55	6659.3
936.3218	2055.5118	7515.4	6629.75
936.4586	2057.0725	7479.4	6591.55
936.5955	2058.6325	7469.35	6585.5
936.7323	2060.1917	7441.7	6558.05
936.869	2061.7502	7434.65	6549.7
937.0058	2063.3079	7404.8	6523.2
937.1425	2064.8649	7372.9	6488.2
937.2792	2066.4212	7362.1	6479.95
937.4159	2067.9767	7339.5	6457.5
937.5525	2069.5315	7319.05	6434.7
937.6891	2071.0856	7278.85	6394.65
937.8257	2072.6389	7258.7	6377.4
937.9623	2074.1915	7212	6329.95
938.0989	2075.7433	7162.8	6277.55
938.2354	2077.2945	7190.85	6309.25
938.3719	2078.8448	7147.85	6262.7
938.5084	2080.3945	7145.3	6260.75
938.6448	2081.9434	7144.1	6258.55
938.7812	2083.4916	7103.15	6217.35
938.9176	2085.039	7087.2	6199.6
939.054	2086.5857	7068.6	6179
939.1903	2088.1317	7040.7	6150.95
939.3267	2089.677	7039.3	6147.75
939.463	2091.2215	7025.35	6136.3
939.5992	2092.7652	6983.4	6091.85
939.7355	2094.3083	6974.95	6086.65
939.8717	2095.8506	6985.15	6097.75
940.0079	2097.3921	6969.1	6085.95
940.1441	2098.933	6949.65	6064.55
940.2802	2100.4731	6930.2	6042.4
940.4163	2102.0124	6927.25	6032.25
940.5524	2103.5511	6919.85	6032.25
940.6885	2105.089	6876.45	5988.35
940.8245	2106.6261	6855.2	5966.35
940.9606	2108.1626	6858.95	5972.2
941.0965	2109.6983	6858.3	5944.65
941.2325	2111.2332	6824.65	5936.95
941.3684	2112.7675	6786.3	5898.8
941.5044	2114.301	6799.1	5910.85
941.6403	2115.8337	6785.65	5899.3
941.7761	2117.3657	6769.1	5881.65
941.912	2118.897	6755.75	5867.1
942.0478	2120.4276	6716.75	5823
942.1835	2121.9575	6711.85	5821
942.3193	2123.4866	6708.15	5805.45
942.455	2125.0149	6656.65	5765.35
942.5907	2126.5426	6638	5755.15
942.7264	2128.0695	6629.2	5743
942.8621	2129.5956	6602.8	5721.6
942.9977	2131.1211	6610.95	5721.95
943.1333	2132.6458	6568.25	5683.35
943.2689	2134.1698	6567.05	5680.05
943.4044	2135.693	6552.35	5661.45
943.54	2137.2155	6548.8	5656
943.6755	2138.7373	6532.7	5646.85
943.8109	2140.2584	6506.85	5623.95
943.9464	2141.7787	6492.05	5602.6
944.0818	2143.2983	6451.05	5569.55
944.2172	2144.8171	6427.45	5547
944.3526	2146.3353	6406.45	5521.5
944.4879	2147.8527	6382.05	5500.5
944.6232	2149.3693	6398.5	5511.05
944.7585	2150.8853	6346.2	5457.55
944.8938	2152.4005	6347.15	5457.2
945.029	2153.9149	6330.2	5438.7
945.1642	2155.4287	6381.85	5386.8
945.2994	2156.9417	6318	5427.6
945.4346	2158.454	6289.5	5403.35
945.5697	2159.9655	6259.4	5374.7
945.7048	2161.4764	6258.6	5374.65
945.8399	2162.9865	6239.3	5354.05
945.9749	2164.4958	6235.3	5349.95
946.1099	2166.0045	6187.6	5301.35
946.2449	2167.5124	6159.3	5272.55
946.3799	2169.0195	6163.85	5278.15
946.5148	2170.526	6170.65	5282.2
946.6498	2172.0317	6159.8	5271.3
946.7846	2173.5367	6108.05	5219.45
946.9195	2175.0409	6112.3	5228.25
947.0543	2176.5445	6090.35	5204.25
947.1891	2178.0473	6063.8	5175.65
947.3239	2179.5494	6036.15	5144.5
947.4587	2181.0507	6032.3	5144.9
947.5934	2182.5513	6024.85	5137.75
947.7281	2184.0512	6022.15	5134.7
947.8628	2185.5504	5984.6	5099.2
947.9974	2187.0488	5963.15	5076.6
948.132	2188.5465	5943.95	5061.3
948.2666	2190.0435	5928.35	5043.45
948.4012	2191.5397	5922.4	5035.85
948.5357	2193.0353	5894.05	5006.55
948.6702	2194.5301	5879.1	4988.2
948.8047	2196.0241	5850.25	4958.4
948.9392	2197.5175	5847.6	4957
949.0736	2199.0101	5824.4	4932.1
949.208	2200.502	5793.05	4907.55
949.3424	2201.9931	5787.35	4902.15
949.4767	2203.4835	5751.75	4865.7
949.611	2204.9733	5765.3	4875.3
949.7453	2206.4622	5740.3	4855.15
949.8796	2207.9505	5705.9	4820.25
950.0138	2209.438	5675.95	4794.1
950.148	2210.9248	5679.55	4793.5
950.2822	2212.4109	5656.9	4770
950.4164	2213.8962	5642.05	4750
950.5505	2215.3809	5634.65	4744.75
950.6846	2216.8648	5624.55	4733.95
950.8186	2218.3479	5600.35	4704.4
950.9527	2219.8304	5578.2	4683
951.0867	2221.3121	5567.65	4674
951.2207	2222.7931	5538.15	4647.05
951.3546	2224.2733	5530.75	4642.05
951.4886	2225.7529	5508.6	4621.15
951.6225	2227.2317	5498.85	4611.6
951.7563	2228.7098	5468.25	4585.3
951.8902	2230.1872	5442.1	4557.75
952.024	2231.6638	5441.85	4556.65
952.1578	2233.1397	5436.7	4548.1
952.2916	2234.6149	5426	4541.8
952.4253	2236.0894	5411.45	4525.15
952.559	2237.5632	5406.6	4511.4
952.6927	2239.0362	5371.35	4483.8
952.8263	2240.5085	5372.1	4486.6
952.9599	2241.9801	5351.35	4464.25
953.0935	2243.4509	5315.15	4426.65
953.2271	2244.921	5302.75	4413.6
953.3606	2246.3904	5298.05	4404.8
953.4941	2247.8591	5272.95	4383.5
953.6276	2249.3271	5263.85	4377.65
953.7611	2250.7943	5244.95	4356.35
953.8945	2252.2608	5219.6	4331.85
954.0279	2253.7266	5217.7	4328.2
954.1612	2255.1917	5182.35	4294.7
954.2946	2256.656	5168.9	4281.4
954.4279	2258.1197	5154.75	4269.85
954.5612	2259.5826	5155.45	4267.5
954.6944	2261.0447	5146.75	4257.55
954.8276	2262.5062	5138.1	4248.2
954.9608	2263.9669	5116.75	4224.7
955.094	2265.4269	5112.6	4224.2
955.2271	2266.8862	5086.8	4199.2
955.3602	2268.3448	5096.95	4210.65
955.4933	2269.8026	5066.3	4181.5
955.6264	2271.2598	5052.2	4165.6
955.7594	2272.7162	5041.2	4153.95
955.8924	2274.1719	5044.2	4155.15
956.0253	2275.6268	5010.7	4123.7
956.1583	2277.0811	5011.7	4122.85
956.2912	2278.5346	5006.85	4119.45
956.4241	2279.9874	4991.85	4105.95
956.5569	2281.4395	4972.35	4089.35
956.6897	2282.8908	4964.5	4072.25
956.8225	2284.3414	4962.9	4072.9
956.9553	2285.7914	4941.55	4053.7
957.088	2287.2406	4915.3	4025.4
957.2207	2288.689	4917.1	4027.5
957.3534	2290.1368	4904.1	4010.2
957.486	2291.5838	4899.35	4005.25
957.6186	2293.0302	4879.5	3985
957.7512	2294.4758	4835.5	3944.15
957.8838	2295.9206	4841.9	3949.85
958.0163	2297.3648	4816	3924.25
958.1488	2298.8082	4826.45	3936.3
958.2813	2300.251	4819.15	3932.6
958.4137	2301.693	4812.75	3922.45
958.5461	2303.1343	4805.45	3915.45
958.6785	2304.5748	4769.5	3880.9
958.8108	2306.0147	4770	3880.9
958.9432	2307.4538	4752.65	3864.1
959.0754	2308.8922	4707.85	3825
959.2077	2310.3299	4716.85	3832.1
959.3399	2311.7669	4693.05	3807.35
959.4721	2313.2031	4686.2	3798
959.6043	2314.6387	4669.55	3781.15
959.7365	2316.0735	4661.65	3773.75
959.8686	2317.5076	4639.1	3751.85
960.0006	2318.941	4631.8	3744
960.1327	2320.3737	4626.6	3734.45
960.2647	2321.8056	4621.1	3727.45
960.3967	2323.2369	4590.85	3702.45
960.5287	2324.6674	4597.6	3707.35
960.6606	2326.0972	4579.3	3689.75
960.7925	2327.5263	4573.5	3686.6
960.9244	2328.9547	4561.7	3670.15
961.0562	2330.3823	4547.45	3657.5
961.1881	2331.8092	4539.15	3646.8
961.3198	2333.2355	4518.7	3628.3
961.4516	2334.661	4511.8	3618.3
961.5833	2336.0858	4492.8	3601.1
961.715	2337.5098	4492.5	3605
961.8467	2338.9332	4495.55	3605.85
961.9783	2340.3558	4465.55	3576.5
962.1099	2341.7778	4445.65	3558.15
962.2415	2343.199	4441.6	3553.55
962.373	2344.6195	4435.2	3549.35
962.5045	2346.0393	4410.15	3522.95
962.636	2347.4583	4408.6	3520.55
962.7675	2348.8767	4405.1	3514.25
962.8989	2350.2943	4401.8	3511.15
963.0303	2351.7113	4386.65	3493.7
963.1617	2353.1275	4379.85	3487.5
963.293	2354.543	4379.6	3465.95
963.4243	2355.9578	4355.65	3466
963.5556	2357.3718	4316.8	3431.65
963.6868	2358.7852	4310.25	3420.95
963.818	2360.1978	4295.7	3406.7
963.9492	2361.6098	4288.4	3401.8
964.0803	2363.021	4273.9	3382.65
964.2114	2364.4315	4268	3379.45
964.3425	2365.8413	4264.75	3371.55
964.4736	2367.2504	4241.55	3353.75
964.6046	2368.6587	4216.9	3330.7
964.7356	2370.0664	4208.15	3321.85
964.8666	2371.4733	4204.8	3317.25
964.9975	2372.8795	4188.9	3301
965.1284	2374.285	4162.9	3274.95
965.2593	2375.6899	4167.15	3279.65
965.3901	2377.0939	4129.65	3244.6
965.5209	2378.4973	4124.7	3237.85
965.6517	2379.9	4111.5	3224.85
965.7825	2381.3019	4117.8	3229.5
965.9132	2382.7032	4085.6	3202.95
966.0439	2384.1037	4080.5	3196.9
966.1745	2385.5035	4081.55	3198.2
966.3051	2386.9027	4061.7	3178.5
966.4357	2388.3011	4056.4	3166.5
966.5663	2389.6987	4043.95	3156.75
966.6968	2391.0957	4020.75	3137.45
966.8273	2392.492	4003.1	3116.65
966.9578	2393.8876	3970.75	3085.95
967.0882	2395.2824	3987.6	3100.6
967.2186	2396.6765	3967.7	3080.55
967.349	2398.07	3950	3064.3
967.4793	2399.4627	3945.85	3055.95
967.6097	2400.8547	3933.6	3043.6
967.7399	2402.246	3914.25	3020.45
967.8702	2403.6366	3896.05	3006.7
968.0004	2405.0265	3887.05	3002.15
968.1306	2406.4156	3889.6	2998.95
968.2607	2407.8041	3880.5	2989.7
968.3909	2409.1918	3862.65	2974.15
968.521	2410.5789	3842.65	2953.65
968.651	2411.9652	3830.3	2941.6
968.781	2413.3508	3830.45	2942.35
968.911	2414.7358	3803.25	2914.15
969.041	2416.12	3801.8	2917.55
969.1709	2417.5035	3790.5	2902.6
969.3008	2418.8863	3789.7	2901.05
969.4307	2420.2684	3763.7	2875.6
969.5606	2421.6497	3751.7	2863.75
969.6904	2423.0304	3745.3	2857.95
969.8201	2424.4104	3735.8	2849.65
969.9499	2425.7896	3726.5	2838.25
970.0796	2427.1682	3720.8	2833.3
970.2093	2428.546	3697.2	2810.75
970.3389	2429.9232	3710.45	2821.95
970.4685	2431.2996	3676.7	2789.1
970.5981	2432.6753	3677.15	2790.3
970.7277	2434.0503	3685.6	2796.9
970.8572	2435.4246	3662.6	2776.1
970.9867	2436.7982	3662.5	2771.95
971.1161	2438.1711	3650.15	2762.65
971.2456	2439.5433	3638.2	2748.85
971.375	2440.9148	3645.6	2752.05
971.5043	2442.2856	3609.55	2722.3
971.6336	2443.6557	3596.15	2707.35
971.7629	2445.025	3589.3	2701.6
971.8922	2446.3937	3587.1	2698.75
972.0214	2447.7617	3571.75	2683.1
972.1506	2449.1289	3584.8	2697.7
972.2798	2450.4955	3564.45	2674.2
972.4089	2451.8613	3548.5	2662.75
972.538	2453.2265	3540.6	2655.25
972.6671	2454.5909	3539.85	2651.75
972.7961	2455.9546	3547.55	2660.9
972.9251	2457.3177	3517.25	2629.95
973.0541	2458.68	3518.5	2629.05
973.1831	2460.0416	3515.9	2629.65
973.312	2461.4025	3498.1	2608.7
973.4408	2462.7627	3493.5	2595.6
973.5697	2464.1222	3494.2	2609.7
973.6985	2465.4811	3476.05	2586.85
973.8273	2466.8392	3463.35	2577.2
973.956	2468.1966	3471.55	2583.95
974.0847	2469.5533	3461.2	2572.05
974.2134	2470.9093	3459.65	2572.35
974.3421	2472.2645	3446.15	2557.15
974.4707	2473.6191	3431.7	2547.35
974.5993	2474.973	3420.4	2532.95
974.7278	2476.3262	3427.8	2540.65
974.8563	2477.6787	3402.65	2516.65
974.9848	2479.0305	3384.9	2499.15
975.1132	2480.3816	3383.75	2492.6
975.2417	2481.7319	3389.25	2503
975.37	2483.0816	3371.9	2483.1
975.4984	2484.4306	3364.75	2477.45
975.6267	2485.7789	3330.5	2445.35
975.755	2487.1264	3325.3	2438.45
975.8833	2488.4733	3311.9	2426.2
976.0115	2489.8195	3329.05	2435.1
976.1397	2491.165	3308.7	2419.2
976.2678	2492.5097	3292.15	2404.3
976.3959	2493.8538	3274.35	2389.6
976.524	2495.1972	3269.6	2382.3
976.6521	2496.5398	3267.95	2377.8
976.7801	2497.8818	3265.4	2375.85
976.9081	2499.2231	3240.8	2352.85
977.036	2500.5637	3241.05	2351
977.164	2501.9035	3239.5	2351
977.2918	2503.2427	3220.6	2329.4
977.4197	2504.5812	3221.7	2333.85
977.5475	2505.919	3209.65	2322.75
977.6753	2507.256	3215.6	2328
977.8031	2508.5924	3192.05	2305.95
977.9308	2509.9281	3185.35	2293.35
978.0585	2511.2631	3166.25	2281.05
978.1861	2512.5974	3166.8	2281.95
978.3137	2513.9309	3156.75	2268.2
978.4413	2515.2638	3166	2256.05
978.5689	2516.596	3158.6	2271.9
978.6964	2517.9275	3131	2243.3
978.8239	2519.2583	3119.85	2232.85
978.9513	2520.5884	3124.15	2235.95
979.0788	2521.9178	3110.5	2224.95
979.2062	2523.2465	3096.35	2212.95
979.3335	2524.5745	3087.95	2202.1
979.4608	2525.9018	3078	2193.3
979.5881	2527.2284	3075.6	2189.5
979.7154	2528.5543	3064.3	2179.05
979.8426	2529.8796	3065.25	2178.5
979.9698	2531.2041	3071.4	2183.4
980.0969	2532.5279	3066.4	2180.7
980.224	2533.851	3060.65	2173.65
980.3511	2535.1735	3037.35	2150
980.4781	2536.4952	3036.25	2148.9
980.6052	2537.8163	3036.7	2148.55
980.7321	2539.1366	3029.6	2142.3
980.8591	2540.4562	3010.65	2120.15
980.986	2541.7752	3015.75	2127.25
981.1129	2543.0935	3009.4	2120.5
981.2397	2544.411	3008.05	2118.45
981.3665	2545.7279	2992.8	2107.5
981.4933	2547.0441	2993.8	2104.95
981.62	2548.3596	2994.55	2102.7
981.7467	2549.6744	2980.65	2094.05
981.8734	2550.9885	2974	2082.55
982.0001	2552.3019	2963.75	2076.85
982.1267	2553.6146	2964.3	2076.6
982.2532	2554.9266	2947.6	2059.1
982.3798	2556.2379	2944.65	2054.1
982.5063	2557.5485	2938.5	2054
982.6327	2558.8585	2932.95	2039.4
982.7592	2560.1677	2921.05	2027.05
982.8856	2561.4762	2919.8	2029.85
983.0119	2562.7841	2921.2	2030.25
983.1383	2564.0913	2919.35	2031.95
983.2646	2565.3977	2914.1	2024.45
983.3908	2566.7035	2903.05	2012.35
983.517	2568.0086	2919.55	2029.3
983.6432	2569.313	2906.85	2019
983.7694	2570.6167	2896.65	2005.3
983.8955	2571.9197	2885.65	1996.55
984.0216	2573.222	2884.75	1992.35
984.1476	2574.5236	2866.35	1977.5
984.2737	2575.8246	2868.65	1977.3
984.3996	2577.1248	2869.25	1978.2
984.5256	2578.4244	2863.65	1976.45
984.6515	2579.7232	2857.6	1970.25
984.7774	2581.0214	2876.3	1957.25
984.9032	2582.3189	2852.65	1964.8
985.029	2583.6157	2847	1952.3
985.1548	2584.9118	2845.4	1957.45
985.2806	2586.2072	2838.95	1949.65
985.4063	2587.5019	2836.1	1949.35
985.5319	2588.7959	2829.85	1940.3
985.6576	2590.0893	2838.6	1946.95
985.7832	2591.3819	2823	1935.95
985.9087	2592.6739	2807.1	1920.35
986.0343	2593.9652	2819.75	1930.5
986.1597	2595.2557	2806.6	1916.8
986.2852	2596.5456	2788.85	1897.4
986.4106	2597.8348	2798.05	1909
986.536	2599.1234	2785.8	1900.05
986.6614	2600.4112	2788.7	1898.2
986.7867	2601.6983	2798.45	1906.95
986.912	2602.9848	2782.35	1892.5
987.0372	2604.2705	2773.35	1877.1
987.1624	2605.5556	2770.75	1883.9
987.2876	2606.84	2768.05	1881.1
987.4128	2608.1237	2756.75	1868.5
987.5379	2609.4067	2743.9	1855.9
987.6629	2610.689	2746.05	1850.85
987.788	2611.9707	2737.35	1841.7
987.913	2613.2516	2731.5	1837.7
988.0379	2614.5319	2708	1818.65
988.1629	2615.8115	2710.1	1819.95
988.2878	2617.0903	2711	1822.85
988.4126	2618.3685	2694.95	1807.65
988.5375	2619.6461	2687.5	1798.45
988.6622	2620.9229	2673.05	1784.95
988.787	2622.199	2677.25	1787
988.9117	2623.4745	2670.45	1779.95
989.0364	2624.7493	2670.9	1783.1
989.161	2626.0234	2664.05	1775.45
989.2857	2627.2968	2660.65	1773.25
989.4102	2628.5695	2648.95	1759.5
989.5348	2629.8415	2645.85	1758.6
989.6593	2631.1128	2642.2	1753.15
989.7837	2632.3835	2639.85	1750.7
989.9082	2633.6535	2629.3	1742.95
990.0326	2634.9228	2624.4	1735.45
990.1569	2636.1914	2608.9	1721.65
990.2812	2637.4593	2619.1	1728.05
990.4055	2638.7265	2600.95	1710.8
990.5298	2639.9931	2604	1718
990.654	2641.259	2596.6	1707.05
990.7782	2642.5242	2593.9	1703.75
990.9023	2643.7887	2588.2	1699.85
991.0264	2645.0525	2586.2	1698.2
991.1505	2646.3156	2593.3	1690.95
991.2745	2647.5781	2557.65	1671
991.3985	2648.8398	2560.55	1674.35
991.5225	2650.1009	2573.2	1661.85
991.6464	2651.3613	2551.05	1663.15
991.7703	2652.6211	2545.1	1658.7
991.8942	2653.8801	2532.15	1644.95
992.018	2655.1385	2526.35	1634.2
992.1418	2656.3961	2533.9	1646.4
992.2655	2657.6531	2526.8	1639.2
992.3892	2658.9094	2524.85	1636.9
992.5129	2660.1651	2520.75	1631.9
992.6366	2661.42	2523.95	1637.6
992.7602	2662.6743	2517.25	1626.9
992.8837	2663.9279	2522.3	1635.75
993.0073	2665.1808	2522.45	1633.9
993.1307	2666.433	2506.7	1617.85
993.2542	2667.6846	2499.05	1611.5
993.3776	2668.9354	2518.95	1628.45
993.501	2670.1856	2497.5	1609.35
993.6244	2671.4351	2497	1609.5
993.7477	2672.6839	2490.25	1601.85
993.8709	2673.9321	2493.3	1605.2
993.9942	2675.1795	2490.4	1602.15
994.1174	2676.4263	2485.95	1597.55
994.2405	2677.6724	2488.5	1601.65
994.3637	2678.9179	2492	1604.65
994.4868	2680.1626	2489.9	1603.85
994.6098	2681.4067	2480.5	1594.25
994.7328	2682.6501	2469.65	1582.05
994.8558	2683.8928	2463.4	1574.75
994.9788	2685.1348	2470.45	1585.9
995.1017	2686.3761	2455.2	1567.75
995.2245	2687.6168	2454.65	1565.15
995.3474	2688.8568	2448.25	1560.5
995.4702	2690.0961	2434.95	1549.3
995.5929	2691.3348	2429.3	1542.2
995.7156	2692.5727	2420.6	1533.9
995.8383	2693.81	2420.3	1533
995.961	2695.0466	2402.5	1513.65
996.0836	2696.2826	2412.65	1524
996.2062	2697.5178	2402.1	1513.3
996.3287	2698.7524	2391.95	1504.1
996.4512	2699.9863	2387.95	1498.7
996.5737	2701.2195	2388.5	1503.35
996.6961	2702.452	2393.35	1507.4
996.8185	2703.6839	2392.9	1504.55
996.9408	2704.9151	2400	1512.25
997.0631	2706.1456	2395.1	1507.3
997.1854	2707.3755	2390.1	1502.25
997.3077	2708.6046	2402.65	1514.45
997.4299	2709.8331	2399.1	1510.85
997.552	2711.0609	2393.25	1507.3
997.6742	2712.2881	2413.05	1527.2
997.7963	2713.5145	2413.35	1524.4
997.9183	2714.7403	2407.55	1521.2
998.0403	2715.9654	2407.85	1522.3
998.1623	2717.1899	2430.9	1529.8
998.2842	2718.4136	2430.3	1542.45
998.4062	2719.6367	2449.6	1562.7
998.528	2720.8591	2449.65	1556.3
998.6498	2722.0809	2448.4	1561.55
998.7716	2723.3019	2469.45	1578.35
998.8934	2724.5223	2473.55	1585.3
999.0151	2725.7421	2467.5	1581.05
999.1368	2726.9611	2466.55	1576.75
999.2584	2728.1795	2457.5	1566.4
999.38	2729.3972	2450.8	1563.45
999.5016	2730.6142	2440.75	1547.15
999.6231	2731.8306	2411.8	1523.65
999.7446	2733.0462	2394.2	1506.5
999.8661	2734.2612	2379.5	1490.1
999.9875	2735.4756	2365.45	1477.85
1000.1089	2736.6892	2334	1447.9
1000.2302	2737.9022	2312.9	1428.9
1000.3515	2739.1145	2298.3	1412.5
1000.4728	2740.3262	2288.95	1396.9
1000.594	2741.5372	2271.75	1384.6
1000.7152	2742.7475	2257.85	1371.55
1000.8363	2743.9571	2241.3	1352.05
1000.9575	2745.1661	2235.4	1342.7
1001.0785	2746.3744	2223.35	1335.6
1001.1996	2747.582	2211.05	1327.85
1001.3206	2748.7889	2205.7	1315.45
1001.4415	2749.9952	2196.9	1311.45
1001.5625	2751.2008	2179.85	1292.75
1001.6833	2752.4057	2180.15	1290.65
1001.8042	2753.61	2163.85	1278.2
1001.925	2754.8136	2165.7	1280
1002.0458	2756.0165	2159.85	1273.35
1002.1665	2757.2188	2141.8	1257.65
1002.2872	2758.4204	2142.3	1256.4
1002.4078	2759.6213	2146.95	1257.7
1002.5285	2760.8215	2154.3	1265.4
1002.649	2762.0211	2144.95	1257
1002.7696	2763.22	2127.4	1238.6
1002.8901	2764.4182	2126.7	1240.2
1003.0106	2765.6158	2114.3	1229.9
1003.131	2766.8127	2108.65	1222.3
1003.2514	2768.009	2110.25	1225.65
1003.3717	2769.2045	2102.7	1216.9
1003.492	2770.3994	2096.75	1208.55
1003.6123	2771.5936	2094.6	1207.65
1003.7325	2772.7872	2093	1209.8
1003.8527	2773.9801	2085.7	1199.55
1003.9729	2775.1723	2090.1	1189.15
1004.093	2776.3639	2078.15	1193
1004.2131	2777.5548	2077.65	1191.25
1004.3331	2778.745	2074.6	1186.3
1004.4531	2779.9346	2074.8	1189.25
1004.5731	2781.1235	2073.95	1188.7
1004.693	2782.3117	2072.75	1187.35
1004.8129	2783.4992	2077.45	1194.45
1004.9328	2784.6861	2068.85	1183.2
1005.0526	2785.8723	2072.7	1185.95
1005.1723	2787.0579	2078.65	1192.9
1005.2921	2788.2428	2094.7	1210.35
1005.4118	2789.427	2091.15	1207
1005.5314	2790.6106	2098.75	1213.8
1005.651	2791.7935	2107.75	1222.5
1005.7706	2792.9757	2111.65	1227.7
1005.8902	2794.1573	2130.75	1243.1
1006.0097	2795.3382	2128.5	1244.6
1006.1291	2796.5184	2138.25	1256.2
1006.2485	2797.698	2155.7	1268.95
1006.3679	2798.8769	2175.5	1290.75
1006.4873	2800.0551	2193.4	1308.2
1006.6066	2801.2327	2200.75	1312.95
1006.7258	2802.4096	2218.45	1334.8
1006.8451	2803.5859	2238	1352
1006.9642	2804.7615	2254.25	1370.1
1007.0834	2805.9364	2282.8	1397.7
1007.2025	2807.1106	2309.4	1425.75
1007.3216	2808.2842	2337.15	1450.45
1007.4406	2809.4572	2363.55	1477.9
1007.5596	2810.6294	2394.5	1508.6
1007.6785	2811.801	2440.5	1555.35
1007.7975	2812.972	2476.7	1592.8
1007.9163	2814.1423	2521.65	1637.25
1008.0352	2815.3119	2575.55	1692.25
1008.154	2816.4808	2617.25	1734.55
1008.2727	2817.6491	2654.3	1768.25
1008.3914	2818.8167	2702.95	1819.9
1008.5101	2819.9837	2759.1	1868.7
1008.6288	2821.15	2802.55	1916.9
1008.7474	2822.3157	2846.55	1963.95
1008.8659	2823.4807	2881.4	1997.25
1008.9844	2824.645	2929.6	2044.85
1009.1029	2825.8086	2959.65	2076.15
1009.2214	2826.9716	3016.25	2133.5
1009.3398	2828.134	3045.05	2160.6
1009.4581	2829.2957	3082.3	2197.65
1009.5764	2830.4567	3092.6	2209.6
1009.6947	2831.617	3101.35	2216.9
1009.813	2832.7767	3129.15	2243.5
1009.9312	2833.9358	3114.7	2232.25
1010.0493	2835.0941	3121.2	2234.75
1010.1675	2836.2519	3100.45	2216.65
1010.2855	2837.4089	3093.6	2208.3
1010.4036	2838.5653	3092.35	2208.35
1010.5216	2839.7211	3100.4	2218.15
1010.6396	2840.8761	3096.4	2208.65
1010.7575	2842.0306	3124.9	2240.35
1010.8754	2843.1843	3142.5	2258.5
1010.9932	2844.3374	3193.45	2307.95
1011.111	2845.4899	3275.9	2389.7
1011.2288	2846.6417	3336.4	2454.45
1011.3465	2847.7928	3407	2521.55
1011.4642	2848.9433	3493.4	2608.95
1011.5818	2850.0931	3559.55	2676.9
1011.6995	2851.2422	3652.95	2768.75
1011.817	2852.3907	3729.35	2844.15
1011.9345	2853.5385	3784.6	2899.3
1012.052	2854.6857	3835.95	2942.6
1012.1695	2855.8323	3878.85	2994.9
1012.2869	2856.9781	3935.45	3051.85
1012.4042	2858.1233	3987.7	3102.15
1012.5216	2859.2679	4035.8	3154
1012.6389	2860.4118	4072.9	3188.75
1012.7561	2861.555	4109.1	3219.85
1012.8733	2862.6976	4149.2	3263.85
1012.9905	2863.8395	4173.6	3289
1013.1076	2864.9808	4202.05	3318.25
1013.2247	2866.1214	4193.5	3311.25
1013.3417	2867.2614	4210.1	3327.8
1013.4587	2868.4007	4235.6	3350.1
1013.5757	2869.5393	4222.85	3336.6
1013.6926	2870.6773	4253.65	3367.75
1013.8095	2871.8146	4265.7	3380
1013.9263	2872.9513	4242	3357.25
1014.0431	2874.0874	4266.85	3384.05
1014.1599	2875.2227	4250.25	3366.2
1014.2766	2876.3574	4224.15	3339.8
1014.3933	2877.4915	4205.65	3323.95
1014.51	2878.6249	4170.25	3286.95
1014.6266	2879.7577	4137.25	3253.5
1014.7431	2880.8898	4126.4	3232.75
1014.8596	2882.0212	4106.35	3223.4
1014.9761	2883.152	4090.65	3206.45
1015.0925	2884.2821	4085.1	3203.65
1015.2089	2885.4116	4056.55	3174
1015.3253	2886.5405	4052.9	3169.35
1015.4416	2887.6686	4065.65	3179.8
1015.5579	2888.7962	4079.3	3196.3
1015.6741	2889.923	4080.95	3199.3
1015.7903	2891.0493	4075.8	3193.65
1015.9065	2892.1748	4097.9	3214.8
1016.0226	2893.2997	4105	3221.4
1016.1387	2894.424	4118.25	3235.75
1016.2547	2895.5476	4134.4	3253.85
1016.3707	2896.6706	4153.65	3272.05
1016.4866	2897.7929	4171.05	3288.5
1016.6025	2898.9145	4203.8	3321.6
1016.7184	2900.0355	4242.55	3357.95
1016.8342	2901.1559	4262.9	3379.9
1016.95	2902.2756	4292.8	3410.4
1017.0658	2903.3946	4342.25	3459.9
1017.1815	2904.513	4356.65	3469.1
1017.2971	2905.6308	4386.3	3504.3
1017.4127	2906.7479	4406.3	3521.95
1017.5283	2907.8643	4430.9	3551.6
1017.6439	2908.9801	4431.9	3548.2
1017.7594	2910.0953	4440.25	3556.5
1017.8748	2911.2098	4437	3550.8
1017.9902	2912.3236	4432.1	3542.35
1018.1056	2913.4368	4406.25	3519
1018.2209	2914.5494	4410.6	3528.05
1018.3362	2915.6613	4383.3	3495.4
1018.4515	2916.7725	4338.2	3453.3
1018.5667	2917.8831	4309.15	3424.6
1018.6819	2918.9931	4282.65	3396.75
1018.797	2920.1024	4250.2	3366.85
1018.9121	2921.211	4202.75	3321.35
1019.0271	2922.319	4199.45	3315.4
1019.1421	2923.4264	4180.25	3296.9
1019.2571	2924.5331	4167.9	3286.55
1019.372	2925.6391	4148	3267.95
1019.4869	2926.7445	4133.3	3251.85
1019.6017	2927.8493	4131.45	3247.75
1019.7165	2928.9534	4116.95	3234.05
1019.8313	2930.0569	4115.5	3230.5
1019.946	2931.1597	4091.15	3208.05
1020.0606	2932.2619	4088.45	3206.65
1020.1753	2933.3634	4071	3189.45
1020.2899	2934.4643	4071.2	3183
1020.4044	2935.5645	4057.25	3167
1020.5189	2936.6641	4016.3	3128.35
1020.6334	2937.763	3952	3069.95
1020.7478	2938.8613	3903.5	3019.75
1020.8622	2939.959	3847.75	2957.7
1020.9765	2941.056	3773.45	2892.1
1021.0908	2942.1523	3687.9	2806.65
1021.2051	2943.248	3597.7	2715.5
1021.3193	2944.3431	3485.5	2602.2
1021.4334	2945.4375	3382.7	2500.5
1021.5476	2946.5313	3286	2407.05
1021.6617	2947.6244	3172.65	2289.9
1021.7757	2948.7169	3066.6	2183.2
1021.8897	2949.8087	2977.65	2095.8
1022.0037	2950.8999	2881.55	1999.6
1022.1176	2951.9904	2800.65	1918.15
1022.2315	2953.0803	2709.6	1829.1
1022.3453	2954.1696	2652.6	1771.2
1022.4591	2955.2582	2609.1	1727.65
1022.5728	2956.3462	2549.45	1666.1
1022.6865	2957.4335	2519.55	1638.8
1022.8002	2958.5202	2478.2	1595.85
1022.9138	2959.6062	2459.15	1575.5
1023.0274	2960.6916	2428.85	1546.2
1023.141	2961.7764	2403.7	1519.35
1023.2545	2962.8605	2381.95	1499.1
1023.3679	2963.9439	2382	1502.25
1023.4813	2965.0267	2367.45	1486
1023.5947	2966.1089	2375.1	1469.85
1023.708	2967.1905	2344.1	1462.8
1023.8213	2968.2714	2337.3	1456.85
1023.9346	2969.3516	2336.4	1453.5
1024.0478	2970.4312	2345.25	1455.25
1024.1609	2971.5102	2330.2	1450.3
1024.274	2972.5885	2339.45	1458.35
1024.3871	2973.6662	2323	1435
1024.5002	2974.7432	2318.05	1437.25
1024.6132	2975.8196	2316.35	1433.1
1024.7261	2976.8954	2304.9	1426.3
1024.839	2977.9705	2295.95	1412.1
1024.9519	2979.045	2289.85	1407.8
1025.0647	2980.1188	2259.8	1381.25
1025.1775	2981.192	2245.45	1365.4
1025.2902	2982.2645	2216.2	1334.05
1025.4029	2983.3364	2194.2	1312.65
1025.5156	2984.4077	2158.95	1279.25
1025.6282	2985.4783	2129.6	1242.3
1025.7407	2986.5483	2105.3	1224.45
1025.8532	2987.6177	2058.7	1178.15
1025.9657	2988.6864	2032.4	1150.45
1026.0782	2989.7545	1984.95	1103.2
1026.1906	2990.8219	1958.65	1078.55
1026.3029	2991.8887	1915.6	1032.65
1026.4152	2992.9548	1888.95	1006.5
1026.5275	2994.0204	1859.6	979.15
1026.6397	2995.0852	1831.95	950.85
1026.7519	2996.1495	1799.65	916.8
1026.864	2997.2131	1776.65	896.4
1026.9761	2998.276	1754.55	874.05
1027.0882	2999.3383	1723.9	839.85
1027.2002	3000.4	1711.85	828.1
1027.3122	3001.4611	1697.45	814.7
1027.4241	3002.5215	1678.7	798.1
1027.536	3003.5812	1665.95	786.05
1027.6478	3004.6404	1654	773.45
1027.7596	3005.6989	1653.2	769.45
1027.8714	3006.7567	1634.9	753.45
1027.9831	3007.8139	1645.15	746.95
1028.0947	3008.8705	1616.65	738.2
1028.2064	3009.9264	1636	738.75
1028.3179	3010.9818	1613.2	732.45
1028.4295	3012.0364	1597.9	716.1
1028.541	3013.0905	1603.3	722.5
1028.6524	3014.1439	1596.95	716.3
1028.7638	3015.1966	1595.5	713.6
1028.8752	3016.2487	1591.8	711.05
1028.9865	3017.3002	1603.5	717.8
1029.0978	3018.3511	1588.55	708.05
1029.209	3019.4013	1594.2	712.35
1029.3202	3020.4509	1592.9	710.8
1029.4314	3021.4998	1603.05	720.5
1029.5425	3022.5481	1589.25	708.05
1029.6535	3023.5958	1590.35	710.4
1029.7645	3024.6428	1589.7	708.65
1029.8755	3025.6892	1586.05	705.7
1029.9864	3026.735	1586.15	705.55
1030.0973	3027.7802	1594.35	714.75
1030.2082	3028.8247	1585.45	705.45
1030.319	3029.8685	1593.95	712.4
1030.4297	3030.9118	1604.45	721.8
1030.5404	3031.9544	1603.05	723.3
1030.6511	3032.9963	1604.85	722.45
1030.7617	3034.0376	1607.75	728.9
1030.8723	3035.0783	1612	727.15
1030.9829	3036.1184	1617.85	735.9
1031.0934	3037.1578	1620.8	740.95
1031.2038	3038.1966	1627.05	743.6
1031.3142	3039.2348	1619	740.05
1031.4246	3040.2723	1625.4	733.6
1031.5349	3041.3092	1620.25	742.6
1031.6452	3042.3455	1616.05	735.75
1031.7554	3043.3811	1614.45	733.8
1031.8656	3044.4161	1603.65	720.45
1031.9758	3045.4505	1590.7	711.7
1032.0859	3046.4842	1593.1	710.8
1032.1959	3047.5173	1586.6	705.8
1032.3059	3048.5498	1568.3	688.2
1032.4159	3049.5816	1567.45	685.1
1032.5258	3050.6128	1555.6	674.4
1032.6357	3051.6434	1549.2	668.2
1032.7455	3052.6734	1541.85	659.45
1032.8553	3053.7027	1536.7	655.25
1032.9651	3054.7314	1529.8	648.6
1033.0748	3055.7594	1530.5	652.15
1033.1845	3056.7868	1514.95	633.5
1033.2941	3057.8136	1507.65	627
1033.4037	3058.8398	1495.6	615.5
1033.5132	3059.8653	1499.85	620.3
1033.6227	3060.8902	1489.6	608.7
1033.7321	3061.9145	1490.85	608.2
1033.8415	3062.9381	1477.7	597.5
1033.9509	3063.9612	1491.45	595.1
1034.0602	3064.9835	1461.5	582.55
1034.1694	3066.0053	1458.15	575.75
1034.2787	3067.0264	1452.8	574.1
1034.3878	3068.0469	1449.8	568.25
1034.497	3069.0668	1447.95	563.85
1034.6061	3070.086	1414.6	533.55
1034.7151	3071.1046	1418.2	537.65
1034.8241	3072.1226	1411.65	530.8
1034.9331	3073.1399	1397.65	517.65
1035.042	3074.1567	1380.35	500.35
1035.1508	3075.1727	1379.55	496.95
1035.2597	3076.1882	1362.95	483.7
1035.3684	3077.203	1360	482.15
1035.4772	3078.2173	1353.15	469.7
1035.5859	3079.2308	1343.9	459.9
1035.6945	3080.2438	1328.35	444
1035.8031	3081.2561	1315.75	434.15
1035.9117	3082.2678	1309.95	430.2
1036.0202	3083.2789	1307.05	425.95
1036.1286	3084.2893	1302.15	422.75
1036.2371	3085.2991	1293.55	411.65
1036.3454	3086.3083	1288.2	405.45
1036.4538	3087.3169	1281.2	401.85
1036.562	3088.3248	1273.9	391.5
1036.6703	3089.3321	1269.55	388
1036.7785	3090.3388	1255.4	375.9
1036.8866	3091.3449	1260.85	379.25
1036.9948	3092.3503	1262.1	379.95
1037.1028	3093.3551	1255.2	376.8
1037.2108	3094.3593	1243.6	364.05
1037.3188	3095.3629	1243.4	363.55
1037.4267	3096.3658	1238.9	356.45
1037.5346	3097.3681	1237.5	357.15
1037.6425	3098.3698	1235.7	354.3
1037.7503	3099.3708	1236.7	350.1
1037.858	3100.3713	1230.1	350.15
1037.9657	3101.3711	1221.65	339.85
1038.0734	3102.3702	1352.6	338
1038.181	3103.3688	1217	334.9
1038.2886	3104.3667	1211.4	332.3
1038.3961	3105.364	1210.3	330.8
1038.5036	3106.3607	1210.95	327
1038.611	3107.3568	1203.8	323.25
1038.7184	3108.3522	1200.4	320.35
1038.8257	3109.347	1202.25	322.3
1038.933	3110.3412	1206.65	322.4
1039.0403	3111.3348	1198.2	318.95
1039.1475	3112.3277	1189.9	310.6
1039.2547	3113.32	1186.65	306.1
1039.3618	3114.3117	1186.75	303.4
1039.4689	3115.3028	1187.85	308.8
1039.5759	3116.2932	1184.65	301.45
1039.6829	3117.2831	1186.45	300.6
1039.7898	3118.2723	1177.45	298.9
1039.8967	3119.2608	1175.35	297.15
1040.0035	3120.2488	1175.45	294.3
1040.1103	3121.2361	1171.5	291.15
1040.2171	3122.2229	1171.15	290.8
1040.3238	3123.209	1169.15	287.25
1040.4305	3124.1944	1166	283.85
1040.5371	3125.1793	1169.85	289.45
1040.6437	3126.1635	1163.15	282.25
1040.7502	3127.1471	1163.35	283.8
1040.8567	3128.1301	1159.1	281.35
1040.9631	3129.1125	1160.45	282.1
1041.0695	3130.0942	1160.3	280
1041.1759	3131.0753	1163	274.8
1041.2822	3132.0558	1165.2	282.65
1041.3884	3133.0357	1149.35	268.85
1041.4946	3134.015	1148.95	267.35
1041.6008	3134.9936	1150.7	269.6
1041.7069	3135.9716	1165.15	264.5
1041.813	3136.949	1146.3	267.2
1041.919	3137.9258	1160.3	264
1042.025	3138.902	1149.65	263.55
1042.1309	3139.8775	1140.5	261.6
1042.2368	3140.8524	1137.7	258.8
1042.3427	3141.8267	1137.3	255.6
1042.4485	3142.8004	1139.55	259.45
1042.5542	3143.7735	1142.95	256.65
1042.6599	3144.7459	1134.7	251.7
1042.7656	3145.7178	1132.3	253.3
1042.8712	3146.689	1130.25	250.05
1042.9768	3147.6596	1124.45	243.05
1043.0823	3148.6295	1125.6	246.1
1043.1878	3149.5989	1126.6	245.55
1043.2932	3150.5676	1119.55	242.45
1043.3986	3151.5357	1121.55	242.4
1043.5039	3152.5032	1114.95	237.65
1043.6092	3153.4701	1117.95	237.8
1043.7145	3154.4364	1121.1	240.25
1043.8197	3155.402	1115.15	235.75
1043.9248	3156.367	1111.15	232.05
1044.03	3157.3315	1134.35	227.65
1044.135	3158.2952	1110.3	228.95
1044.24	3159.2584	1108.95	230.3
1044.345	3160.221	1104.35	223
1044.4499	3161.1829	1104.7	223.8
1044.5548	3162.1442	1104.1	223.3
1044.6596	3163.105	1100.7	221.7
1044.7644	3164.065	1097.85	217.45
1044.8692	3165.0245	1100.35	217.4
1044.9739	3165.9834	1093.95	217.6
1045.0785	3166.9416	1094.55	216.1
1045.1831	3167.8993	1093.7	211.9
1045.2877	3168.8563	1092.25	212.05
1045.3922	3169.8127	1090.4	210.4
1045.4966	3170.7684	1089.95	210.5
1045.6011	3171.7236	1091.45	210.55
1045.7054	3172.6782	1091.2	212.5
1045.8098	3173.6321	1092.4	211.75
1045.914	3174.5854	1092.55	208.45
1046.0183	3175.5381	1089.45	209.9
1046.1224	3176.4902	1083.45	203.75
1046.2266	3177.4417	1082.45	202.7
1046.3307	3178.3926	1079.3	200.45
1046.4347	3179.3428	1080.8	204.4
1046.5387	3180.2924	1076.8	198.05
1046.6427	3181.2415	1080.4	200.9
1046.7466	3182.1899	1080.45	199.3
1046.8504	3183.1377	1074.6	197.6
1046.9542	3184.0848	1076.75	193.15
1047.058	3185.0314	1076	196.8
1047.1617	3185.9773	1072.15	190.55
1047.2654	3186.9227	1070.3	188.55
1047.369	3187.8674	1069.5	190.9
1047.4726	3188.8115	1070.55	189.6
1047.5761	3189.755	1069.45	189.3
1047.6796	3190.6979	1068.6	188.2
1047.783	3191.6402	1065.45	187.6
1047.8864	3192.5818	1066.25	187.85
1047.9898	3193.5229	1077.25	184.25
1048.0931	3194.4633	1066.05	187.85
1048.1963	3195.4031	1069.8	190.15
1048.2995	3196.3423	1062.5	183.9
1048.4027	3197.2809	1059.7	181.45
1048.5058	3198.2189	1062.5	182.4
1048.6089	3199.1563	1065.55	178.55
1048.7119	3200.0931	1054.2	176.6
1048.8148	3201.0292	1055.85	178.05
1048.9178	3201.9648	1056.25	176.85
1049.0206	3202.8997	1062.5	179.2
1049.1235	3203.834	1056.75	177
1049.2262	3204.7677	1054.2	175.1
1049.329	3205.7008	1058.35	179.1
1049.4317	3206.6333	1047.4	168.6
1049.5343	3207.5652	1051.25	171.05
1049.6369	3208.4964	1045.2	165.7
1049.7394	3209.4271	1049.3	171.9
1049.8419	3210.3571	1050.95	169.65
1049.9444	3211.2865	1049.85	169.05
1050.0468	3212.2154	1045.95	166
1050.1491	3213.1436	1048.25	163.35
1050.2514	3214.0712	1051.25	165.3
1050.3537	3214.9982	1042.8	164.55
1050.4559	3215.9246	1042.95	162.45
1050.5581	3216.8503	1040.45	162.5
1050.6602	3217.7755	1038.5	160.5
1050.7623	3218.7001	1038.85	161.25
1050.8643	3219.624	1041.95	163.1
1050.9663	3220.5473	1038.55	158.35
1051.0682	3221.4701	1036.65	155.8
1051.1701	3222.3922	1038.95	158.2
1051.2719	3223.3137	1036.2	156.85
1051.3737	3224.2346	1035.3	154.25
1051.4754	3225.1549	1033.6	154.9
1051.5771	3226.0746	1034.85	156.3
1051.6788	3226.9937	1031.8	152.95
1051.7804	3227.9121	1030	151.75
1051.8819	3228.83	1030.65	150.9
1051.9834	3229.7473	1030.7	151.35
1052.0849	3230.6639	1032	152.1
1052.1863	3231.5799	1030.15	151.4
1052.2876	3232.4954	1028.35	149.35
1052.3889	3233.4102	1029.85	151.75
1052.4902	3234.3244	1028.3	148.3
1052.5914	3235.238	1026.9	147.55
1052.6926	3236.151	1047.35	142.3
1052.7937	3237.0634	1023.9	146.45
1052.8948	3237.9752	1024.6	146.45
1052.9958	3238.8864	1018.45	139.35
1053.0968	3239.797	1019.4	142.2
1053.1977	3240.7069	1023	143.55
1053.2986	3241.6163	1024.05	142.5
1053.3994	3242.5251	1019.5	142.4
1053.5002	3243.4332	1018.6	141.1
1053.6009	3244.3408	1012.5	133.7
1053.7016	3245.2477	1017.25	139
1053.8022	3246.154	1015.5	136
1053.9028	3247.0598	1016.65	140
1054.0034	3247.9649	1015.25	135.45
1054.1039	3248.8694	1011.95	132.6
1054.2043	3249.7733	1012.7	133.45
1054.3047	3250.6766	1009	130.3
1054.4051	3251.5793	1009.15	129.7
1054.5054	3252.4814	1007	126.85
1054.6056	3253.3829	1005.7	127.15
1054.7058	3254.2838	1004.35	127.6
1054.806	3255.1841	1002.05	124.4
1054.9061	3256.0838	1003.55	124.35
1055.0061	3256.9829	1001.75	124.1
1055.1062	3257.8814	1003.4	122.35
1055.2061	3258.7792	1001.25	121.2
1055.306	3259.6765	998.85	118.3
1055.4059	3260.5731	999.35	122.35
1055.5057	3261.4692	997.3	117.6
1055.6055	3262.3647	992.9	113.75
1055.7052	3263.2595	992.9	114.55
1055.8049	3264.1538	992.2	110.5
1055.9045	3265.0474	992.05	112.1
1056.0041	3265.9404	986.2	109
1056.1036	3266.8329	984.55	106.95
1056.2031	3267.7247	993	102.9
1056.3025	3268.616	982.75	104.1
1056.4019	3269.5066	981.55	103.85
1056.5013	3270.3966	978.35	96.75
1056.6005	3271.286	972.6	94.8
