Software Version:	3.9.2.0
Unit SN:	10000200
Spectrometer SN:	6960
Date:	3/26/2024 2:40:25 PM
Data Line Index:	25
Spectral Points:	2048
Integration time (ms):	125
Averages:	20
Delay (ms):	30000
Sequence Number:	1
Processing:	dark subtract
Laser Power (mW):	300
Laser Current (mA):	822
Laser Diode Temp (C):	25
Laser Case Temp (C):	27.9
System Temp (C):	28
Spectrometer Temp (C):	25.9
CCD Temp (C):	0.005
Secondary Temp (C):	20.003
Heatsink Temp (C):	23.447
CCDPCB Temp (C):	37.241
SecondaryPCB Temp (C):	34.695

Wavelength	RamanShift	Raw Counts	Dark Subtracted
787.061	30.1047	642.7	233.15
787.2016	32.3739	651.1	244.35
787.3422	34.6426	672.4	263.95
787.4828	36.9109	691.9	280.85
787.6235	39.1787	709.5	294.1
787.7642	41.4461	731.8	312.1
787.9049	43.7131	758.8	334.95
788.0456	45.9796	781.2	353.55
788.1863	48.2456	803.7	372.45
788.3271	50.5112	837.8	402.55
788.4679	52.7764	862.4	426.2
788.6087	55.0411	891	448.65
788.7496	57.3054	922.2	474.25
788.8904	59.5692	956.65	506.55
789.0313	61.8326	996.55	543.2
789.1722	64.0955	1033.75	574.15
789.3132	66.3579	1090	629.05
789.4541	68.6199	1132.3	667.95
789.5951	70.8815	1229.6	761
789.7361	73.1426	1425.45	953.3
789.8771	75.4032	1955.25	1477.1
790.0181	77.6634	3237.5	2752.7
790.1592	79.9231	6457.25	5964.9
790.3003	82.1824	13827.9	13315.9
790.4414	84.4412	30920.9	30376.95
790.5825	86.6995	58671.2	58077.9
790.7237	88.9574	65535	64897.15
790.8648	91.2148	65535	64867.7
791.006	93.4717	65535	64847.7
791.1472	95.7282	65535	64838.95
791.2885	97.9842	65535	64837.1
791.4297	100.2398	65535	64833.85
791.571	102.4949	65535	64833.2
791.7123	104.7495	65535	64824.25
791.8536	107.0036	65535	64829.05
791.9949	109.2573	65535	64829.1
792.1363	111.5105	65535	64825.1
792.2777	113.7632	65535	64822.85
792.4191	116.0154	65535	64813.95
792.5605	118.2672	65535	64815.75
792.7019	120.5185	65535	64816.35
792.8434	122.7693	65535	64818.65
792.9849	125.0197	65535	64813.9
793.1264	127.2696	65535	64805.5
793.2679	129.519	65535	64804.55
793.4094	131.7679	65535	64799.9
793.551	134.0163	65535	64799.05
793.6926	136.2642	65535	64794.35
793.8342	138.5117	65535	64789.6
793.9758	140.7587	65535	64793
794.1175	143.0052	65535	64790.3
794.2591	145.2512	65535	64784.95
794.4008	147.4967	65535	64787.55
794.5425	149.7417	65535	64784.2
794.6842	151.9863	65535	64781.1
794.826	154.2304	65535	64777.9
794.9677	156.4739	65535	64774.75
795.1095	158.717	65535	64777.9
795.2513	160.9596	65535	64767.05
795.3931	163.2017	65535	64771.6
795.535	165.4433	65535	64763.5
795.6768	167.6844	65535	64766.8
795.8187	169.925	65535	64768.75
795.9606	172.1651	65535	64760.6
796.1025	174.4047	65535	64762.8
796.2445	176.6439	65535	64757.35
796.3864	178.8825	65535	64753.35
796.5284	181.1206	65535	64751.6
796.6704	183.3582	65535	64744.8
796.8124	185.5954	65535	64741.7
796.9544	187.832	65535	64744.4
797.0965	190.0681	65535	64735.2
797.2386	192.3037	65535	64736.1
797.3806	194.5388	65535	64731.85
797.5228	196.7734	65535	64727.4
797.6649	199.0075	65535	64724.65
797.807	201.2411	65535	64716.9
797.9492	203.4742	65535	64724.6
798.0914	205.7068	65535	64716.75
798.2336	207.9389	65535	64720.4
798.3758	210.1704	65535	64713.6
798.518	212.4015	65535	64711.35
798.6603	214.632	65535	64715.5
798.8025	216.862	65535	64721.9
798.9448	219.0915	65535	64733.1
799.0871	221.3205	65535	64727.35
799.2294	223.549	65535	64740.55
799.3718	225.777	65535	64735.05
799.5141	228.0044	65535	64735.2
799.6565	230.2314	65535	64737.05
799.7989	232.4578	65535	64742.1
799.9413	234.6837	65535	64726.45
800.0837	236.909	65535	64729
800.2262	239.1339	65535	64701.05
800.3687	241.3582	65535	64720.3
800.5111	243.582	65535	64686.2
800.6536	245.8053	65535	64700.9
800.7961	248.0281	65535	64707.55
800.9387	250.2503	65535	64694.4
801.0812	252.472	65535	64694.5
801.2238	254.6932	65535	64691.9
801.3664	256.9139	65535	64693.45
801.509	259.134	65535	64688.4
801.6516	261.3536	65535	64685.55
801.7942	263.5727	65535	64684.2
801.9369	265.7912	65535	64688.7
802.0795	268.0092	65535	64688.3
802.2222	270.2267	65535	64686.8
802.3649	272.4436	65535	64686.4
802.5076	274.6601	65535	64678.65
802.6504	276.8759	65535	64682.8
802.7931	279.0913	65535	64682.25
802.9359	281.3061	65535	64673.9
803.0787	283.5204	65535	64673.05
803.2215	285.7341	65535	64672.7
803.3643	287.9473	65535	64662.4
803.5071	290.16	65535	64666.8
803.6499	292.3721	65535	64674.95
803.7928	294.5837	65535	64671.25
803.9357	296.7947	65535	64673.1
804.0786	299.0052	65535	64673
804.2215	301.2152	65535	64670.4
804.3644	303.4246	65535	64676.2
804.5074	305.6334	65535	64677.15
804.6503	307.8418	65535	64672.4
804.7933	310.0495	65535	64663.35
804.9363	312.2568	65535	64672.3
805.0793	314.4635	65535	64663.7
805.2223	316.6696	65535	64667.05
805.3653	318.8752	65535	64653.05
805.5084	321.0802	65535	64668.55
805.6514	323.2847	65535	64653.35
805.7945	325.4887	65535	64663.9
805.9376	327.692	65535	64663.35
806.0807	329.8949	65535	64658.6
806.2238	332.0972	65535	64660.95
806.367	334.2989	65535	64656.25
806.5101	336.5001	65535	64654.05
806.6533	338.7007	65535	64653.55
806.7965	340.9008	65535	64654.75
806.9397	343.1003	65535	64655.65
807.0829	345.2992	65535	64650.55
807.2261	347.4976	65535	64651.15
807.3693	349.6955	65535	64645.2
807.5126	351.8927	65535	64646.25
807.6559	354.0895	65535	64637.85
807.7991	356.2856	65535	64643.6
807.9424	358.4812	65535	64647.85
808.0857	360.6763	65535	64644.7
808.2291	362.8707	65535	64643.05
808.3724	365.0646	65535	64643.65
808.5158	367.258	65535	64640.1
808.6591	369.4508	65535	64634.35
808.8025	371.643	65535	64633.8
808.9459	373.8346	65535	64635.1
809.0893	376.0257	65535	64630.05
809.2327	378.2162	65535	64635.5
809.3762	380.4062	65535	64629.45
809.5196	382.5956	65535	64626.75
809.6631	384.7844	65535	64630.1
809.8066	386.9726	65535	64633
809.9501	389.1603	65535	64629.85
810.0936	391.3474	65535	64589.3
810.2371	393.5339	65535	64631.2
810.3806	395.7199	65535	64637.8
810.5241	397.9052	65535	64634.95
810.6677	400.09	65535	64638.5
810.8113	402.2743	65535	64641.6
810.9548	404.4579	65535	64644.95
811.0984	406.641	65535	64643.9
811.2421	408.8235	65535	64644.4
811.3857	411.0054	65535	64643.6
811.5293	413.1868	65535	64640.75
811.673	415.3675	65535	64637.8
811.8166	417.5477	65535	64636.65
811.9603	419.7273	65535	64638.35
812.104	421.9064	65535	64631.9
812.2477	424.0848	65535	64630.2
812.3914	426.2627	65535	64624.85
812.5351	428.4399	65535	64625.6
812.6788	430.6166	65535	64622.4
812.8226	432.7928	65535	64620.9
812.9663	434.9683	65535	64626.1
813.1101	437.1432	65535	64627.5
813.2539	439.3176	65535	64633.4
813.3977	441.4914	65535	64635.9
813.5415	443.6645	65535	64626.7
813.6853	445.8371	65535	64628.8
813.8291	448.0091	65535	64629.65
813.973	450.1806	65535	64628.2
814.1168	452.3514	65535	64633.15
814.2607	454.5216	65535	64621.2
814.4046	456.6913	65535	64624.55
814.5485	458.8603	65535	64627.1
814.6924	461.0288	65535	64628.35
814.8363	463.1967	65535	64634.35
814.9802	465.3639	65535	64627.6
815.1241	467.5306	65535	64626.6
815.2681	469.6967	65535	64630.4
815.412	471.8622	65535	64630.85
815.556	474.0271	65535	64629.75
815.7	476.1914	65535	64627.5
815.844	478.3551	65535	64625.7
815.988	480.5182	65535	64628.2
816.132	482.6807	65535	64635.65
816.276	484.8426	65535	64638.4
816.4201	487.0039	65535	64635.05
816.5641	489.1647	65535	64622.4
816.7082	491.3248	65535	64623.95
816.8522	493.4843	65535	64628.95
816.9963	495.6432	65535	64626.95
817.1404	497.8015	65535	64619.35
817.2845	499.9592	65535	64612.3
817.4286	502.1163	65535	64617.35
817.5727	504.2728	65535	64622.65
817.7168	506.4287	65535	64631.55
817.861	508.5839	65535	64629.9
818.0051	510.7386	65535	64629.1
818.1493	512.8927	65535	64614.1
818.2935	515.0461	65535	64621.05
818.4377	517.199	65535	64613.5
818.5818	519.3512	65535	64613.85
818.726	521.5029	65535	64614.95
818.8703	523.6539	65535	64618.25
819.0145	525.8043	65535	64613.1
819.1587	527.9541	65535	64618.15
819.303	530.1033	65535	64615.55
819.4472	532.2519	65535	64612.95
819.5915	534.3999	65535	64613.45
819.7357	536.5472	65535	64615.65
819.88	538.694	65535	64617.7
820.0243	540.8401	65535	64614
820.1686	542.9856	65535	64603.9
820.3129	545.1305	65535	64599.65
820.4572	547.2748	65535	64595.25
820.6016	549.4185	65535	64595.55
820.7459	551.5615	65535	64598.4
820.8902	553.704	65535	64603.3
821.0346	555.8458	65535	64605.25
821.1789	557.987	65535	64607.1
821.3233	560.1276	65535	64607.5
821.4677	562.2675	65535	64600.1
821.6121	564.4069	65535	64604.2
821.7565	566.5456	65535	64608.45
821.9009	568.6837	65535	64610.8
822.0453	570.8212	65535	64610.7
822.1897	572.958	65535	64607.75
822.3342	575.0942	65535	64610.35
822.4786	577.2299	65535	64617.15
822.6231	579.3648	65535	64625.15
822.7675	581.4992	65535	64634.9
822.912	583.6329	65535	64635.8
823.0565	585.766	65535	64630.6
823.201	587.8985	65535	64623.85
823.3454	590.0304	65535	64593.8
823.4899	592.1616	65535	64613.8
823.6345	594.2922	65535	64607.25
823.779	596.4222	65535	64602.7
823.9235	598.5515	65535	64599.75
824.068	600.6802	65535	64602.3
824.2126	602.8083	65535	64607.3
824.3571	604.9358	65535	64606.6
824.5017	607.0626	65535	64603.75
824.6462	609.1888	65535	64596.9
824.7908	611.3144	65535	64596.15
824.9354	613.4393	65535	64598.05
825.08	615.5636	65535	64597.4
825.2246	617.6873	65535	64597.05
825.3692	619.8103	65535	64598.1
825.5138	621.9327	65535	64603.35
825.6584	624.0544	65535	64608.2
825.803	626.1756	65535	64609.25
825.9477	628.2961	65535	64604.05
826.0923	630.4159	65535	64602.05
826.237	632.5351	65535	64599.65
826.3816	634.6537	65535	64596.8
826.5263	636.7716	65535	64593.45
826.6709	638.8889	65535	64591.65
826.8156	641.0056	65535	64592.2
826.9603	643.1216	65535	64594.4
827.105	645.237	65535	64597.35
827.2497	647.3518	65535	64601.15
827.3944	649.4659	65535	64605.55
827.5391	651.5793	65535	64604.05
827.6838	653.6922	65535	64603.3
827.8285	655.8043	65535	64600.8
827.9733	657.9159	65535	64601.25
828.118	660.0268	65535	64595.95
828.2627	662.137	65535	64603.4
828.4075	664.2466	65535	64592.6
828.5522	666.3556	65535	64593.4
828.697	668.4639	65535	64601.45
828.8418	670.5716	65535	64604.05
828.9865	672.6786	65535	64599.7
829.1313	674.785	65535	64594.55
829.2761	676.8907	65535	64602.65
829.4209	678.9958	65535	64602.8
829.5657	681.1002	65535	64599.35
829.7105	683.204	65535	64589.65
829.8553	685.3072	65535	64589.1
830.0001	687.4097	65535	64595.75
830.1449	689.5115	65535	64591.95
830.2898	691.6127	65535	64597.85
830.4346	693.7132	65535	64601.25
830.5794	695.8131	65535	64581.85
830.7243	697.9123	65535	64587.9
830.8691	700.0109	65535	64588.85
831.014	702.1089	65535	64589.6
831.1588	704.2061	65535	64592.4
831.3037	706.3028	65535	64588.35
831.4486	708.3987	65535	64593.85
831.5935	710.4941	65535	64595
831.7383	712.5887	65535	64595.35
831.8832	714.6827	65535	64595.7
832.0281	716.7761	65535	64597.25
832.173	718.8688	65535	64593.6
832.3179	720.9608	65535	64587.2
832.4628	723.0522	65535	64583.2
832.6077	725.1429	65535	64587.55
832.7527	727.233	65535	64589.6
832.8976	729.3224	65535	64590.05
833.0425	731.4112	65535	64592.8
833.1874	733.4993	65535	64589.35
833.3324	735.5867	65535	64587.85
833.4773	737.6735	65535	64591.3
833.6222	739.7596	65534.35	64588.55
833.7672	741.845	65531.65	64587.7
833.9122	743.9298	65535	64591
834.0571	746.014	65531.7	64585.2
834.2021	748.0974	65524	64573.65
834.347	750.1802	65535	64585.85
834.492	752.2624	65521.4	64571
834.637	754.3439	65523.5	64571.05
834.782	756.4247	65529.4	64570.7
834.9269	758.5048	65519.65	64572.3
835.0719	760.5843	65524.3	64572.15
835.2169	762.6631	65530.05	64579
835.3619	764.7413	65526.8	64579.85
835.5069	766.8188	65531.05	64582.45
835.6519	768.8956	65535	64584.95
835.7969	770.9718	65535	64585.4
835.9419	773.0473	65535	64588
836.0869	775.1221	65519.3	64573.6
836.232	777.1962	65519.1	64572.75
836.377	779.2697	65457.3	64507.25
836.522	781.3426	65513.05	64546.1
836.667	783.4147	65522.3	64567.7
836.8121	785.4862	65525.65	64575.8
836.9571	787.557	65471.95	64524.35
837.1021	789.6271	65516.2	64563.1
837.2472	791.6966	65461.85	64512.95
837.3922	793.7654	65281.25	64327.85
837.5373	795.8335	65300.95	64351.4
837.6823	797.901	65347.85	64398.45
837.8274	799.9678	65247.55	64292.2
837.9724	802.0339	65188.85	64236.8
838.1175	804.0993	65223	64260.85
838.2626	806.1641	65140.15	64185.9
838.4076	808.2282	65077.1	64125.65
838.5527	810.2916	64975.8	64027.7
838.6978	812.3544	65190.3	64245.7
838.8428	814.4164	64838.15	63888.1
838.9879	816.4778	64836.65	63881.7
839.133	818.5385	64872.05	63914.7
839.2781	820.5986	64827.65	63874.55
839.4232	822.658	64853.5	63899.1
839.5682	824.7166	64893.75	63945.75
839.7133	826.7747	64547.45	63595.6
839.8584	828.832	64663.55	63711.45
840.0035	830.8886	64910.35	63956.45
840.1486	832.9446	64938.15	63985.6
840.2937	834.9999	64343.95	63392.9
840.4388	837.0545	64680.2	63720.4
840.5839	839.1085	64896.55	63944.95
840.729	841.1618	64762.95	63804.65
840.8741	843.2143	64347.55	63396.2
841.0192	845.2662	64315.5	63362.2
841.1643	847.3175	64479.3	63527.55
841.3095	849.368	63764.15	62812.25
841.4546	851.4179	64344	63394.6
841.5997	853.467	63832.9	62882.4
841.7448	855.5155	64049.1	63093.9
841.8899	857.5633	63560.15	62609.4
842.0351	859.6105	63335.15	62384.5
842.1802	861.6569	63657.15	62703.6
842.3253	863.7027	62962.05	62007.9
842.4704	865.7478	63190.2	62233.45
842.6156	867.7922	63064.05	62108.55
842.7607	869.8359	63406.2	62451.85
842.9058	871.8789	62642.6	61687.8
843.0509	873.9212	63192.15	62206.15
843.1961	875.9629	63305.95	62348.7
843.3412	878.0039	63203.85	62247.85
843.4863	880.0441	62928.45	61975.8
843.6315	882.0837	62884.15	61934.65
843.7766	884.1226	62798.7	61845.1
843.9218	886.1609	62622.6	61675.1
844.0669	888.1984	62207.9	61251.8
844.212	890.2352	62690.7	61736.25
844.3572	892.2714	61910.4	60949.65
844.5023	894.3069	62247.05	61293.35
844.6475	896.3416	61837.85	60884.05
844.7926	898.3757	61734.45	60778.9
844.9377	900.4091	60750.25	59793.85
845.0829	902.4418	61987.65	61026.55
845.228	904.4739	61200.9	60242.4
845.3732	906.5052	61356.65	60401.3
845.5183	908.5358	60860	59901.8
845.6635	910.5658	60513.5	59555.45
845.8086	912.595	60462.7	59505.05
845.9538	914.6236	59590.4	58637.85
846.0989	916.6515	60907.85	59953.85
846.2441	918.6786	59432	58474.1
846.3892	920.7051	59781.5	58821.85
846.5344	922.7309	59616.6	58662.6
846.6795	924.756	59837.85	58883.85
846.8246	926.7804	59418.25	58461.15
846.9698	928.8041	58626.55	57666.45
847.1149	930.8272	59184.2	58227.3
847.2601	932.8495	59163	58201.9
847.4052	934.8711	58417.1	57461.2
847.5504	936.892	57970.4	57015.3
847.6955	938.9123	58058.75	57096.6
847.8407	940.9318	57569.3	56616.4
847.9858	942.9506	57366.2	56409.2
848.131	944.9688	57425.6	56469.1
848.2761	946.9862	56502.15	55544.75
848.4213	949.003	56729.3	55772.05
848.5664	951.019	55906.75	54950.4
848.7115	953.0344	56065.8	55108.2
848.8567	955.0491	55990.3	55031.3
849.0018	957.063	56224.75	55272.35
849.147	959.0763	56257.7	55295.7
849.2921	961.0888	55840.05	54880.7
849.4373	963.1007	56143.85	55189.05
849.5824	965.1119	56102.9	55156.7
849.7275	967.1223	55733.75	54792.8
849.8727	969.1321	56036.05	55095.9
850.0178	971.1412	55498.8	54552.45
850.1629	973.1495	55222.1	54266.2
850.3081	975.1572	55406.75	54419.85
850.4532	977.1641	55272.1	54317.05
850.5983	979.1704	54970.4	54014.6
850.7435	981.1759	55005.05	54047.3
850.8886	983.1808	54719.85	53765.9
851.0337	985.1849	54714	53750.45
851.1788	987.1884	54834.65	53878.65
851.324	989.1911	55184.6	54231.3
851.4691	991.1932	54546.65	53590.85
851.6142	993.1945	54692.9	53744.2
851.7593	995.1951	54617.25	53664.05
851.9045	997.1951	54236.85	53274.05
852.0496	999.1943	53922.8	52974.4
852.1947	1001.1928	53708.8	52755.85
852.3398	1003.1906	53606.25	52654.55
852.4849	1005.1877	53209.4	52255.7
852.63	1007.1841	52905.35	51952.85
852.7751	1009.1798	52753.95	51799.55
852.9202	1011.1748	52419	51464.05
853.0653	1013.1691	52086.55	51132.65
853.2104	1015.1627	51398.85	50444.55
853.3555	1017.1556	51079.6	50126.6
853.5006	1019.1477	51023.1	50073.5
853.6457	1021.1392	50552.7	49608.6
853.7908	1023.1299	50222.65	49279.6
853.9359	1025.12	50112.1	49171.7
854.081	1027.1093	49890.25	48960.4
854.2261	1029.0979	49817.9	48892.45
854.3712	1031.0859	49724.5	48791.65
854.5163	1033.0731	49429.3	48487.2
854.6613	1035.0596	49267	48324.05
854.8064	1037.0454	48912.45	47963.9
854.9515	1039.0304	48646.7	47697.8
855.0965	1041.0148	48281.3	47330.3
855.2416	1042.9985	48053.25	47104.3
855.3867	1044.9814	47929.95	46981.15
855.5317	1046.9636	47637.3	46686.2
855.6768	1048.9452	47482.25	46535.15
855.8219	1050.926	47447.1	46498.6
855.9669	1052.9061	47257	46306.5
856.112	1054.8855	47113.45	46163.65
856.257	1056.8642	46971.2	46020.2
856.4021	1058.8421	46899.6	45944.55
856.5471	1060.8194	46781.55	45829.4
856.6921	1062.7959	46631.45	45680.2
856.8372	1064.7717	46538.7	45587.55
856.9822	1066.7469	46390.15	45438.8
857.1272	1068.7213	46224	45270.5
857.2723	1070.695	46147.65	45197.75
857.4173	1072.6679	45745.25	44795.6
857.5623	1074.6402	45669.9	44718.25
857.7073	1076.6117	45559.45	44603.5
857.8523	1078.5826	45467.4	44518.1
857.9973	1080.5527	45382.9	44431.55
858.1423	1082.5221	45374.65	44425.2
858.2873	1084.4908	45487.15	44539.1
858.4323	1086.4587	45585.65	44636.2
858.5773	1088.426	45690.6	44739.55
858.7223	1090.3925	45458.15	44504.7
858.8673	1092.3584	45262.15	44311.6
859.0123	1094.3235	44821.95	43873.25
859.1573	1096.2879	44661.5	43711.4
859.3022	1098.2515	44513.15	43560.45
859.4472	1100.2145	44455.9	43507.3
859.5922	1102.1767	44324.6	43372.15
859.7371	1104.1382	44325.4	43375.9
859.8821	1106.099	44388.65	43438.5
860.027	1108.0591	44383.35	43435.55
860.172	1110.0185	44403.45	43453.95
860.3169	1111.9771	44386.75	43439.75
860.4619	1113.9351	43931.2	42978.6
860.6068	1115.8923	43468.8	42516.9
860.7517	1117.8488	43028.35	42076.4
860.8967	1119.8045	42454.2	41505.45
861.0416	1121.7596	42241.5	41291.3
861.1865	1123.7139	42026.7	41079.55
861.3314	1125.6675	41900.35	40953.25
861.4763	1127.6204	42045.65	41099.75
861.6212	1129.5726	41872.75	40926.85
861.7661	1131.524	41802.05	40854
861.911	1133.4748	41786.95	40832.65
862.0559	1135.4248	41674.95	40726.8
862.2008	1137.3741	41604.85	40658.6
862.3457	1139.3226	41464.95	40516.95
862.4905	1141.2705	41358.75	40412.65
862.6354	1143.2176	41074.45	40124.1
862.7803	1145.164	40990.05	40037.5
862.9251	1147.1097	40964.7	40017.7
863.07	1149.0546	40921.05	39970.9
863.2148	1150.9989	40744.3	39793.5
863.3597	1152.9424	40531.55	39582.8
863.5045	1154.8852	40197.3	39251.45
863.6493	1156.8272	39948.6	38998.45
863.7942	1158.7686	39894.35	38937.2
863.939	1160.7092	39628.9	38681.4
864.0838	1162.6491	39446.15	38496.4
864.2286	1164.5883	39493.4	38546.8
864.3734	1166.5267	39425.4	38479.75
864.5182	1168.4644	39434.95	38487.7
864.663	1170.4014	39547.1	38600.4
864.8078	1172.3377	39740.6	38793.75
864.9526	1174.2732	39839.7	38897.25
865.0974	1176.2081	40010.2	39061.75
865.2421	1178.1421	40024.85	39076.15
865.3869	1180.0755	40138.3	39194.75
865.5317	1182.0082	39895.9	38950.95
865.6764	1183.9401	39835.7	38893.3
865.8212	1185.8713	39479.45	38539.75
865.9659	1187.8017	39173.2	38239
866.1106	1189.7315	38829.75	37901.8
866.2554	1191.6605	38327.4	37397.9
866.4001	1193.5888	37983.45	37050.1
866.5448	1195.5163	37826.6	36890.7
866.6895	1197.4432	37593.85	36651.25
866.8342	1199.3693	37471	36527.05
866.9789	1201.2947	37224.05	36274
867.1236	1203.2193	37057.4	36113.55
867.2683	1205.1432	36980.55	36034.65
867.413	1207.0664	36971.55	36028.65
867.5576	1208.9889	36892.45	35945.15
867.7023	1210.9106	36810.45	35868.4
867.847	1212.8316	36768.2	35826.35
867.9916	1214.7519	36744.4	35792.95
868.1363	1216.6715	36637.6	35692.6
868.2809	1218.5903	36531.45	35585.05
868.4255	1220.5084	36335.4	35391.6
868.5701	1222.4257	36244.85	35300.65
868.7148	1224.3424	35994.3	35051.65
868.8594	1226.2583	35987	35041.4
869.004	1228.1735	35976.75	35033.8
869.1486	1230.0879	35886.7	34943.75
869.2932	1232.0016	35994.4	35053.8
869.4377	1233.9146	35893.2	34947.8
869.5823	1235.8269	35705.55	34761.75
869.7269	1237.7384	35535.65	34591.5
869.8715	1239.6492	35136	34194.75
870.016	1241.5592	35031.2	34087.65
870.1606	1243.4686	34773.65	33831.6
870.3051	1245.3772	34624.8	33682.5
870.4496	1247.285	34406.55	33464.8
870.5941	1249.1922	34269.05	33328.25
870.7387	1251.0986	34193	33252.15
870.8832	1253.0042	34056.65	33113.7
871.0277	1254.9092	34080.15	33138.3
871.1722	1256.8134	34029.55	33089.95
871.3167	1258.7169	34124.9	33182.15
871.4611	1260.6196	34201.5	33261.85
871.6056	1262.5216	34318.55	33378.85
871.7501	1264.4229	34372.2	33433.15
871.8945	1266.3234	34460.4	33519.75
872.039	1268.2232	34395.55	33456.95
872.1834	1270.1223	34304.45	33360.65
872.3278	1272.0207	34180.25	33238.45
872.4723	1273.9183	34069.25	33120.2
872.6167	1275.8151	33888.1	32947.3
872.7611	1277.7113	33740	32798.45
872.9055	1279.6067	33466.15	32527.5
873.0499	1281.5014	33200.1	32253.9
873.1943	1283.3953	32949.2	32006.05
873.3386	1285.2885	32785.25	31844.5
873.483	1287.181	32689.95	31751.05
873.6274	1289.0727	32637.35	31696.65
873.7717	1290.9637	32567.05	31629.1
873.9161	1292.854	32672.2	31729.4
874.0604	1294.7435	32675.05	31733.35
874.2047	1296.6323	32838.2	31894.55
874.349	1298.5204	33018.5	32076.6
874.4933	1300.4077	33259.25	32321.15
874.6376	1302.2943	33330.25	32394.25
874.7819	1304.1802	33407.65	32468.3
874.9262	1306.0653	33223.7	32285.5
875.0705	1307.9497	33084.1	32144.7
875.2147	1309.8333	32965.6	32027.4
875.359	1311.7162	32896.15	31957.15
875.5032	1313.5984	32906.8	31965.2
875.6475	1315.4798	32945.8	31991.75
875.7917	1317.3605	33028.85	32072.2
875.9359	1319.2405	33211.85	32269.65
876.0801	1321.1197	33176.9	32235.5
876.2243	1322.9982	33017.35	32071.05
876.3685	1324.876	33075	32134.2
876.5127	1326.753	32897.55	31954.6
876.6569	1328.6293	32903.45	31964.2
876.801	1330.5048	32932	31991.7
876.9452	1332.3796	32773.75	31836.05
877.0893	1334.2537	32725.05	31760.35
877.2335	1336.127	32590.75	31650.7
877.3776	1337.9996	32454	31515.1
877.5217	1339.8714	32347.6	31409.5
877.6658	1341.7426	32204.4	31225.25
877.8099	1343.6129	32091.6	31153.25
877.954	1345.4826	31972.2	31031.65
878.0981	1347.3515	31847.65	30903.25
878.2422	1349.2196	31708.7	30767.85
878.3862	1351.087	31655.35	30717.6
878.5303	1352.9537	31635.2	30697.05
878.6743	1354.8197	31764.8	30825.35
878.8184	1356.6849	31866.05	30928
878.9624	1358.5493	31871.6	30930.8
879.1064	1360.4131	31809.9	30871.95
879.2504	1362.276	31631.7	30695.95
879.3944	1364.1383	31409.6	30471.9
879.5384	1365.9998	31089.65	30144.95
879.6823	1367.8606	30720.15	29780.75
879.8263	1369.7206	30429.65	29489.5
879.9702	1371.5799	30154.1	29211.8
880.1142	1373.4384	29944.45	29007.45
880.2581	1375.2962	29846.4	28908.25
880.402	1377.1533	29465.6	28529.25
880.5459	1379.0096	29015.1	28082.25
880.6898	1380.8652	28711.6	27779.5
880.8337	1382.7201	28419.75	27488.1
880.9776	1384.5742	28073.55	27136.7
881.1215	1386.4275	27862.3	26919.15
881.2653	1388.2802	27658.05	26720.45
881.4092	1390.132	27449.65	26511.9
881.553	1391.9832	27430.65	26489.95
881.6968	1393.8336	27168	26228.7
881.8406	1395.6832	27072.55	26134.15
881.9844	1397.5322	26928.6	25991.85
882.1282	1399.3803	26853.9	25911.9
882.272	1401.2278	26648.55	25716.05
882.4158	1403.0745	26621.75	25686.7
882.5595	1404.9204	26404.15	25469.1
882.7033	1406.7656	26474.85	25538.85
882.847	1408.6101	26377.45	25440.3
882.9908	1410.4538	26260.85	25324.5
883.1345	1412.2968	26219.7	25284.4
883.2782	1414.139	26183.7	25246.75
883.4219	1415.9805	26195.1	25258.55
883.5656	1417.8213	26184.5	25228.15
883.7092	1419.6613	26211.85	25279.3
883.8529	1421.5006	26351.35	25417.65
883.9965	1423.3391	26547.65	25607.5
884.1402	1425.1769	26811.75	25873.75
884.2838	1427.0139	27275.2	26340.5
884.4274	1428.8502	27862.85	26926.7
884.571	1430.6858	28381.05	27447.5
884.7146	1432.5206	28730.9	27796.9
884.8582	1434.3547	28986	28053.35
885.0018	1436.188	29026.05	28092.25
885.1453	1438.0206	28904.95	27967.95
885.2889	1439.8524	28623.1	27687.65
885.4324	1441.6835	28509.55	27574.9
885.5759	1443.5139	28371.4	27434.55
885.7194	1445.3435	28204.3	27273.75
885.8629	1447.1724	28152.25	27222.05
886.0064	1449.0005	28027.65	27093.45
886.1499	1450.8279	27856.75	26919.65
886.2933	1452.6545	27756.75	26825
886.4368	1454.4804	27761.5	26828.2
886.5802	1456.3056	27706.85	26771
886.7237	1458.13	27530.55	26600.75
886.8671	1459.9536	27332.35	26401.4
887.0105	1461.7766	26888.4	25958.4
887.1539	1463.5987	26406.85	25469.85
887.2972	1465.4202	25917	24984.8
887.4406	1467.2409	25529.3	24594.75
887.584	1469.0608	25234.2	24301.95
887.7273	1470.88	24925	23990.5
887.8706	1472.6984	24622.55	23688.4
888.0139	1474.5161	24336.5	23404.1
888.1572	1476.3331	24115.5	23183.2
888.3005	1478.1493	23998.2	23064.95
888.4438	1479.9648	23917.9	22985.75
888.5871	1481.7795	23731.55	22797.3
888.7303	1483.5935	23637.8	22705.9
888.8736	1485.4067	23547.2	22615.85
889.0168	1487.2192	23462.9	22530.3
889.16	1489.031	23378.1	22444.4
889.3032	1490.842	23264.95	22336
889.4464	1492.6522	23240.8	22306.8
889.5896	1494.4618	23149.35	22211.9
889.7327	1496.2705	23128.95	22198.6
889.8759	1498.0785	23004.6	22072.4
890.019	1499.8858	22915.85	21983.95
890.1622	1501.6924	22825.4	21893.35
890.3053	1503.4981	22818.7	21884.7
890.4484	1505.3032	22728.15	21798.05
890.5914	1507.1075	22684.45	21749.75
890.7345	1508.911	22635.6	21706.25
890.8776	1510.7138	22534.85	21602.5
891.0206	1512.5159	22403.65	21473
891.1637	1514.3172	22306.6	21379.25
891.3067	1516.1178	22227.75	21300.9
891.4497	1517.9176	22181.1	21248.85
891.5927	1519.7166	22057.2	21128.9
891.7357	1521.515	22008.2	21073.2
891.8786	1523.3126	21951.15	21018.25
892.0216	1525.1094	21823.5	20892.65
892.1645	1526.9055	21750.85	20823.65
892.3074	1528.7008	21670.25	20741.05
892.4503	1530.4954	21548.7	20615.7
892.5932	1532.2893	21539.95	20613.15
892.7361	1534.0824	21391.9	20463.55
892.879	1535.8747	21356.35	20432.8
893.0218	1537.6663	21260.15	20336.85
893.1647	1539.4572	21224.05	20296.25
893.3075	1541.2473	21159.35	20233.4
893.4503	1543.0367	21104.7	20177.5
893.5931	1544.8253	20986.5	20055.7
893.7359	1546.6132	20964.5	20034.95
893.8787	1548.4003	20875.2	19941.3
894.0214	1550.1867	20859.5	19925.15
894.1642	1551.9723	20811.4	19882.7
894.3069	1553.7572	20823.7	19899.65
894.4496	1555.5414	20772.35	19851.3
894.5923	1557.3247	20734.65	19809.7
894.735	1559.1074	20702.15	19786.25
894.8777	1560.8893	20655.75	19736.4
895.0204	1562.6705	20672.5	19753.55
895.163	1564.4509	20695.15	19774.6
895.3056	1566.2305	20701.05	19785.1
895.4482	1568.0094	20803	19886.95
895.5908	1569.7876	20897.5	19980.35
895.7334	1571.565	20884.4	19962.95
895.876	1573.3417	20922.7	20003
896.0186	1575.1176	20892.9	19974.05
896.1611	1576.8928	20798.05	19880.65
896.3036	1578.6672	20661.75	19749.8
896.4461	1580.4409	20494.65	19582.45
896.5886	1582.2138	20332	19415.85
896.7311	1583.986	20144.35	19227
896.8736	1585.7575	20010.9	19095.35
897.0161	1587.5282	19868.5	18957.1
897.1585	1589.2981	19750.85	18839.7
897.3009	1591.0673	19614.4	18703
897.4433	1592.8358	19606.5	18693.75
897.5857	1594.6035	19557.45	18643
897.7281	1596.3704	19471.2	18553.4
897.8705	1598.1366	19407.05	18493.9
898.0128	1599.9021	19393.95	18481.5
898.1551	1601.6668	19348.6	18433.55
898.2975	1603.4308	19349.5	18431.45
898.4398	1605.194	19387.2	18465.6
898.5821	1606.9564	19424.1	18517.2
898.7243	1608.7182	19471.8	18562.95
898.8666	1610.4791	19529.5	18625.5
899.0088	1612.2394	19561.45	18660
899.1511	1613.9988	19731.85	18828.5
899.2933	1615.7576	19902.65	18996.5
899.4355	1617.5156	20152.5	19232.8
899.5776	1619.2728	20342.05	19427.5
899.7198	1621.0293	20536.95	19622.9
899.862	1622.785	20546.45	19638.3
900.0041	1624.54	20425.35	19517.7
900.1462	1626.2942	20278.15	19372.4
900.2883	1628.0477	19889.35	18979.45
900.4304	1629.8005	19640.25	18730.15
900.5725	1631.5525	19358.4	18451.1
900.7145	1633.3037	19084.05	18177.95
900.8566	1635.0542	18896.05	17988.7
900.9986	1636.804	18707.85	17799.4
901.1406	1638.553	18603.05	17623.35
901.2826	1640.3013	18460.35	17551.8
901.4245	1642.0488	18310.8	17403.15
901.5665	1643.7955	18297.95	17391.7
901.7085	1645.5416	18238.5	17331.3
901.8504	1647.2868	18246.85	17340.05
901.9923	1649.0313	18280.25	17372.8
902.1342	1650.7751	18390.1	17480
902.2761	1652.5181	18545.15	17639.2
902.4179	1654.2604	18672.5	17767.85
902.5598	1656.0019	18957.9	18051.1
902.7016	1657.7427	19294.7	18386.95
902.8434	1659.4828	19656.65	18747.05
902.9852	1661.222	19867.9	18958.95
903.127	1662.9606	19883.85	18975.45
903.2687	1664.6984	19746.05	18834.55
903.4105	1666.4354	19398.95	18486.45
903.5522	1668.1717	18875.75	17965.4
903.6939	1669.9072	18385.95	17473.35
903.8356	1671.642	18013.1	17098
903.9773	1673.3761	17664.2	16755.15
904.119	1675.1094	17340.25	16432.8
904.2606	1676.8419	17160.15	16252.35
904.4022	1678.5737	16974.9	16066.2
904.5439	1680.3048	16847.3	15936.75
904.6855	1682.0351	16689.05	15780.1
904.827	1683.7646	16548.3	15633.95
904.9686	1685.4934	16459	15550.85
905.1101	1687.2215	16385.25	15478.25
905.2517	1688.9488	16259.65	15351.5
905.3932	1690.6754	16192.55	15286.15
905.5347	1692.4012	16163.4	15257.95
905.6761	1694.1263	16091.15	15186.85
905.8176	1695.8506	16048.1	15140.45
905.9591	1697.5742	15981.7	15078.4
906.1005	1699.297	15894.2	14990.6
906.2419	1701.0191	15781.1	14877.75
906.3833	1702.7404	15738.05	14836.5
906.5246	1704.461	15652.7	14746.8
906.666	1706.1808	15581.35	14676.85
906.8073	1707.8999	15546.15	14645
906.9487	1709.6182	15459.65	14559.3
907.09	1711.3358	15425.05	14527
907.2313	1713.0527	15346.7	14448.15
907.3725	1714.7688	15312.15	14404.8
907.5138	1716.4841	15215.85	14310.25
907.655	1718.1987	15208.9	14300.15
907.7962	1719.9126	15128.05	14227.3
907.9374	1721.6257	15081.05	14179.2
908.0786	1723.338	15031.65	14133.6
908.2198	1725.0496	14963.85	14062.75
908.3609	1726.7605	14950.75	14048.35
908.502	1728.4706	14886	13983.65
908.6431	1730.18	14793.95	13891.55
908.7842	1731.8886	14744	13844.55
908.9253	1733.5964	14730	13810.7
909.0664	1735.3036	14674.5	13769.35
909.2074	1737.0099	14635.1	13733.45
909.3484	1738.7156	14608.7	13712.1
909.4894	1740.4204	14543.6	13642.1
909.6304	1742.1246	14509.1	13607.85
909.7714	1743.8279	14469.45	13572.4
909.9123	1745.5306	14451.45	13552.55
910.0532	1747.2325	14365.05	13467.05
910.1941	1748.9336	14334.55	13432.85
910.335	1750.634	14300.2	13398.3
910.4759	1752.3336	14247.25	13349.35
910.6168	1754.0325	14224.35	13328.3
910.7576	1755.7307	14204.65	13308.1
910.8984	1757.4281	14180.15	13281.1
911.0392	1759.1247	14159.65	13252.05
911.18	1760.8206	14117.2	13210.6
911.3208	1762.5158	14088.6	13183.9
911.4615	1764.2102	14033.05	13134.7
911.6022	1765.9039	13980.5	13081.95
911.7429	1767.5968	13927.85	13031.4
911.8836	1769.289	13892.8	12996.65
912.0243	1770.9804	13853	12953.9
912.1649	1772.6711	13844.35	12941.45
912.3056	1774.361	13799.45	12897.3
912.4462	1776.0502	13781.25	12880.4
912.5868	1777.7386	13720	12817.65
912.7274	1779.4263	13677.85	12780
912.8679	1781.1132	13674.85	12780.65
913.0084	1782.7994	13608.45	12711.6
913.149	1784.4849	13582	12686.45
913.2895	1786.1696	13515.8	12614.8
913.4299	1787.8535	13488.95	12593.7
913.5704	1789.5367	13443.6	12548.85
913.7108	1791.2192	13446.15	12552.55
913.8513	1792.9009	13416.8	12492.1
913.9917	1794.5818	13380.15	12480.3
914.132	1796.2621	13346.8	12448.25
914.2724	1797.9415	13314.95	12416.45
914.4128	1799.6202	13268.95	12370.25
914.5531	1801.2982	13233.15	12334.5
914.6934	1802.9755	13195.35	12299.15
914.8337	1804.6519	13183.1	12287.65
914.9739	1806.3277	13112.1	12216.7
915.1142	1808.0027	13070.3	12178
915.2544	1809.6769	13062.95	12169.3
915.3946	1811.3504	13018.55	12121.85
915.5348	1813.0231	12995.35	12100.15
915.675	1814.6951	12966.45	12071.95
915.8151	1816.3664	12958.1	12059.8
915.9553	1818.0369	12951.25	12054.6
916.0954	1819.7067	12867.35	11971.55
916.2355	1821.3757	12839.9	11940.05
916.3755	1823.044	12815.85	11915.9
916.5156	1824.7115	12800.5	11901.3
916.6556	1826.3783	12749.3	11851.45
916.7956	1828.0443	12687.85	11792.3
916.9356	1829.7096	12683.05	11786.5
917.0756	1831.3741	12648.95	11749.7
917.2155	1833.0379	12613.2	11717.8
917.3555	1834.701	12590.3	11696.25
917.4954	1836.3633	12556.7	11663.15
917.6353	1838.0248	12549.9	11654.05
917.7751	1839.6856	12486.2	11590.8
917.915	1841.3457	12467.4	11573.15
918.0548	1843.005	12449.25	11552.65
918.1946	1844.6636	12418.75	11522.7
918.3344	1846.3214	12386.95	11489.65
918.4742	1847.9785	12404.35	11511.45
918.6139	1849.6349	12350.85	11452.45
918.7537	1851.2904	12304.1	11397.15
918.8934	1852.9453	12265.1	11366.95
919.0331	1854.5994	12236.5	11336.6
919.1727	1856.2528	12249.65	11345.05
919.3124	1857.9054	12208.75	11313.9
919.452	1859.5572	12205.2	11311.35
919.5916	1861.2083	12164.9	11267.8
919.7312	1862.8587	12148.05	11250.55
919.8708	1864.5084	12124.75	11225
920.0103	1866.1572	12083.8	11183.9
920.1498	1867.8054	12027	11128.05
920.2893	1869.4528	12040.4	11139.35
920.4288	1871.0994	11961.55	11061.75
920.5683	1872.7453	11978.85	11081.75
920.7077	1874.3905	11942.3	11027.1
920.8471	1876.0349	11892	10992.9
920.9865	1877.6786	11861.05	10961.35
921.1259	1879.3215	11866.05	10970
921.2653	1880.9637	11802.95	10906.8
921.4046	1882.6051	11797.35	10902.3
921.5439	1884.2458	11777.55	10880.7
921.6832	1885.8858	11714.85	10818.35
921.8225	1887.525	11669.55	10769.85
921.9617	1889.1634	11639.35	10742.45
922.101	1890.8011	11610.25	10712.3
922.2402	1892.4381	11588.05	10690.55
922.3794	1894.0743	11585.95	10687.1
922.5185	1895.7098	11560.5	10661.5
922.6577	1897.3446	11525.4	10627.7
922.7968	1898.9786	11487.3	10586.3
922.9359	1900.6118	11478.05	10582.05
923.075	1902.2443	11401.3	10502.15
923.214	1903.8761	11374.9	10476.45
923.3531	1905.5071	11342.2	10445.85
923.4921	1907.1374	11287.45	10393.35
923.6311	1908.7669	11258.95	10366.25
923.77	1910.3957	11250.9	10354.65
923.909	1912.0237	11174.45	10279.05
924.0479	1913.651	11175.7	10279.3
924.1868	1915.2776	11134.95	10241.4
924.3257	1916.9034	11095.45	10201.3
924.4646	1918.5285	11034	10139.3
924.6034	1920.1528	10959.9	10062.9
924.7422	1921.7764	10968.25	10074.05
924.881	1923.3992	10951.35	10055.25
925.0198	1925.0213	10867.85	9972.55
925.1586	1926.6427	10826.75	9936.25
925.2973	1928.2633	10871.15	9906.5
925.436	1929.8832	10821.2	9923.7
925.5747	1931.5023	10719.25	9825.05
925.7134	1933.1207	10701.6	9806.45
925.852	1934.7383	10688.55	9793.5
925.9906	1936.3552	10651.05	9757.65
926.1292	1937.9714	10621.3	9726.25
926.2678	1939.5868	10574.4	9678.8
926.4064	1941.2015	10527.6	9631.05
926.5449	1942.8154	10494.65	9597.7
926.6834	1944.4286	10459.7	9563.4
926.8219	1946.041	10407	9490.7
926.9604	1947.6528	10361	9459.95
927.0988	1949.2637	10347.3	9453.2
927.2372	1950.8739	10296.9	9401.95
927.3756	1952.4834	10300.95	9407.05
927.514	1954.0921	10274	9379.6
927.6523	1955.7001	10225.5	9327.35
927.7907	1957.3074	10184.05	9292.75
927.929	1958.9139	10134.45	9244.6
928.0673	1960.5197	10138.9	9247.2
928.2055	1962.1247	10049.75	9157.1
928.3438	1963.729	10012.35	9122.4
928.482	1965.3325	10011.4	9095.3
928.6202	1966.9353	9989.25	9097.1
928.7584	1968.5374	9957.7	9065.5
928.8965	1970.1387	9908.5	9018.4
929.0346	1971.7393	9882.8	8990.15
929.1727	1973.3392	9839.1	8948.7
929.3108	1974.9383	9790.95	8899.8
929.4489	1976.5366	9762.85	8873.05
929.5869	1978.1342	9736	8843.9
929.7249	1979.7311	9708.2	8818.6
929.8629	1981.3273	9701.3	8811.2
930.0009	1982.9227	9654.95	8763.5
930.1388	1984.5173	9614.65	8726.85
930.2767	1986.1112	9599.4	8709.65
930.4146	1987.7044	9564.1	8674.4
930.5525	1989.2968	9517.45	8627.1
930.6904	1990.8885	9511.45	8618.85
930.8282	1992.4795	9499.7	8609.7
930.966	1994.0697	9466.3	8577.3
931.1038	1995.6592	9429	8542
931.2415	1997.2479	9407.9	8520.05
931.3793	1998.8359	9383.75	8496.75
931.517	2000.4232	9335	8447.95
931.6547	2002.0097	9307.5	8421.95
931.7923	2003.5955	9259.75	8372.7
931.93	2005.1805	9284.9	8397.2
932.0676	2006.7648	9232.65	8345.8
932.2052	2008.3484	9215.7	8327.45
932.3427	2009.9312	9194.05	8304.5
932.4803	2011.5133	9172.45	8286.9
932.6178	2013.0946	9124.9	8240.7
932.7553	2014.6752	9111.75	8225.4
932.8928	2016.2551	9104.55	8216.05
933.0302	2017.8342	9038.3	8152.5
933.1676	2019.4126	9027.55	8142.75
933.305	2020.9902	8978.25	8092.45
933.4424	2022.5672	8973.15	8087.25
933.5798	2024.1433	8947.8	8057.8
933.7171	2025.7188	8940.65	8057.4
933.8544	2027.2935	8891.85	8005.2
933.9917	2028.8674	8870.1	7988.15
934.129	2030.4406	8825.55	7942.4
934.2662	2032.0131	8790.5	7906.3
934.4034	2033.5849	8758.15	7867.65
934.5406	2035.1559	8756	7871.05
934.6778	2036.7261	8744.05	7860.05
934.8149	2038.2957	8705.95	7817.75
934.952	2039.8645	8711.45	7822.95
935.0891	2041.4325	8720	7829.15
935.2262	2042.9998	8660.9	7773.2
935.3632	2044.5664	8629.45	7741.05
935.5002	2046.1323	8609.3	7723.95
935.6372	2047.6974	8572.4	7686.9
935.7742	2049.2617	8547.3	7662.2
935.9111	2050.8254	8537.05	7645.15
936.048	2052.3883	8557.7	7669.75
936.1849	2053.9504	8504.3	7615.95
936.3218	2055.5118	8493.05	7603.95
936.4586	2057.0725	8453.25	7562.85
936.5955	2058.6325	8419.15	7534.2
936.7323	2060.1917	8392.65	7506.7
936.869	2061.7502	8375.9	7489
937.0058	2063.3079	8322.55	7439.3
937.1425	2064.8649	8315.4	7427.7
937.2792	2066.4212	8290.5	7404.05
937.4159	2067.9767	8270.25	7384.95
937.5525	2069.5315	8234.2	7346.9
937.6891	2071.0856	8221.35	7336.95
937.8257	2072.6389	8171.45	7286.35
937.9623	2074.1915	8137.9	7252.5
938.0989	2075.7433	8094.8	7206.05
938.2354	2077.2945	8098.05	7212.2
938.3719	2078.8448	8062.2	7173.5
938.5084	2080.3945	8064.05	7176.35
938.6448	2081.9434	8036.55	7148.25
938.7812	2083.4916	8025.55	7137.55
938.9176	2085.039	8001.8	7107.9
939.054	2086.5857	7964.35	7069.45
939.1903	2088.1317	7949.5	7058.25
939.3267	2089.677	7907.5	7014
939.463	2091.2215	7917	7022.55
939.5992	2092.7652	7893.55	6998.35
939.7355	2094.3083	7868.05	6976.9
939.8717	2095.8506	7842.55	6953.4
940.0079	2097.3921	7847.2	6959.1
940.1441	2098.933	7821.55	6933.15
940.2802	2100.4731	7792.6	6903.7
940.4163	2102.0124	7775.75	6880.85
940.5524	2103.5511	7763.4	6872.9
940.6885	2105.089	7758.3	6867.95
940.8245	2106.6261	7746.1	6856.1
940.9606	2108.1626	7695.75	6805.7
941.0965	2109.6983	7699.3	6781.2
941.2325	2111.2332	7670.75	6778.75
941.3684	2112.7675	7647.35	6757.05
941.5044	2114.301	7601.75	6710.65
941.6403	2115.8337	7609.25	6718.5
941.7761	2117.3657	7591.2	6700.6
941.912	2118.897	7578.55	6686.5
942.0478	2120.4276	7569.65	6672.85
942.1835	2121.9575	7538.4	6647.4
942.3193	2123.4866	7534	6628.15
942.455	2125.0149	7512.05	6618.45
942.5907	2126.5426	7458.7	6569.6
942.7264	2128.0695	7449.3	6559.15
942.8621	2129.5956	7411.85	6526.55
942.9977	2131.1211	7378.75	6487.4
943.1333	2132.6458	7375.65	6486.85
943.2689	2134.1698	7367.1	6475.4
943.4044	2135.693	7336	6441.65
943.54	2137.2155	7342.6	6446.7
943.6755	2138.7373	7315.5	6425.9
943.8109	2140.2584	7277.8	6391
943.9464	2141.7787	7277.3	6386.4
944.0818	2143.2983	7247.95	6362.75
944.2172	2144.8171	7222.45	6339.95
944.3526	2146.3353	7192.65	6305.2
944.4879	2147.8527	7171.2	6285.5
944.6232	2149.3693	7164.7	6272.6
944.7585	2150.8853	7141.65	6250.5
944.8938	2152.4005	7116.6	6225.9
945.029	2153.9149	7107.2	6216.35
945.1642	2155.4287	7179.45	6172.8
945.2994	2156.9417	7089.1	6196
945.4346	2158.454	7040.45	6149.25
945.5697	2159.9655	7018	6132.05
945.7048	2161.4764	6990.2	6103.9
945.8399	2162.9865	6975.4	6086.5
945.9749	2164.4958	6983.3	6094.5
946.1099	2166.0045	6948.2	6056.55
946.2449	2167.5124	6955	6065.45
946.3799	2169.0195	6913.2	6022.2
946.5148	2170.526	6910.35	6019.65
946.6498	2172.0317	6889.55	5999
946.7846	2173.5367	6883.7	5993.4
946.9195	2175.0409	6857.3	5970
947.0543	2176.5445	6841.75	5952.6
947.1891	2178.0473	6803.05	5912.55
947.3239	2179.5494	6779.05	5885.95
947.4587	2181.0507	6764.7	5875
947.5934	2182.5513	6726.25	5838.45
947.7281	2184.0512	6725.5	5833.95
947.8628	2185.5504	6709.25	5817.4
947.9974	2187.0488	6667.1	5777.45
948.132	2188.5465	6670.4	5782.3
948.2666	2190.0435	6639.15	5750.65
948.4012	2191.5397	6632.75	5744.15
948.5357	2193.0353	6601.55	5711.95
948.6702	2194.5301	6561.45	5669.15
948.8047	2196.0241	6560.4	5664.9
948.9392	2197.5175	6538.45	5643.9
949.0736	2199.0101	6533.3	5637.15
949.208	2200.502	6495.9	5605.95
949.3424	2201.9931	6468	5578.2
949.4767	2203.4835	6456	5565
949.611	2204.9733	6422.8	5528.7
949.7453	2206.4622	6419.05	5531
949.8796	2207.9505	6380.85	5492.3
950.0138	2209.438	6360.3	5476
950.148	2210.9248	6327.5	5438.25
950.2822	2212.4109	6330.45	5441.15
950.4164	2213.8962	6309.5	5412.7
950.5505	2215.3809	6302.4	5406.5
950.6846	2216.8648	6278.25	5383.35
950.8186	2218.3479	6282.8	5382.9
950.9527	2219.8304	6249.15	5353.85
951.0867	2221.3121	6210.1	5313.8
951.2207	2222.7931	6183.75	5289.7
951.3546	2224.2733	6171.2	5279.65
951.4886	2225.7529	6175.95	5285.15
951.6225	2227.2317	6138.85	5247.85
951.7563	2228.7098	6135.05	5247.8
951.8902	2230.1872	6096.15	5208.9
952.024	2231.6638	6084.35	5194.95
952.1578	2233.1397	6054	5164.5
952.2916	2234.6149	6057.4	5169.55
952.4253	2236.0894	6058.75	5169.15
952.559	2237.5632	6028.15	5138.35
952.6927	2239.0362	5995.2	5107.25
952.8263	2240.5085	5966.45	5076.1
952.9599	2241.9801	5947.55	5059.05
953.0935	2243.4509	5941.5	5050.8
953.2271	2244.921	5911.5	5019.5
953.3606	2246.3904	5910.9	5017.4
953.4941	2247.8591	5893.85	5002.35
953.6276	2249.3271	5887.05	4995.6
953.7611	2250.7943	5842.55	4948.65
953.8945	2252.2608	5833.65	4940.55
954.0279	2253.7266	5817.55	4925.95
954.1612	2255.1917	5810.3	4921.45
954.2946	2256.656	5774	4882.7
954.4279	2258.1197	5779.5	4890.5
954.5612	2259.5826	5754.8	4866.9
954.6944	2261.0447	5742.8	4852.05
954.8276	2262.5062	5703.05	4810.45
954.9608	2263.9669	5705.2	4812.6
955.094	2265.4269	5689.2	4799.25
955.2271	2266.8862	5687.8	4797.05
955.3602	2268.3448	5695.85	4806.45
955.4933	2269.8026	5656.2	4768.05
955.6264	2271.2598	5642.9	4754.55
955.7594	2272.7162	5617.85	4728.75
955.8924	2274.1719	5612.7	4721.85
956.0253	2275.6268	5591.3	4697
956.1583	2277.0811	5586.95	4696.45
956.2912	2278.5346	5579.9	4689.95
956.4241	2279.9874	5556.1	4666.2
956.5569	2281.4395	5540.2	4652.9
956.6897	2282.8908	5536.1	4642.6
956.8225	2284.3414	5515.3	4623.8
956.9553	2285.7914	5487.5	4595.65
957.088	2287.2406	5480.85	4586.6
957.2207	2288.689	5484.9	4594
957.3534	2290.1368	5478.55	4583.2
957.486	2291.5838	5448.9	4552.8
957.6186	2293.0302	5426.2	4530.35
957.7512	2294.4758	5425.7	4532.35
957.8838	2295.9206	5388.45	4497.2
958.0163	2297.3648	5382.5	4490.45
958.1488	2298.8082	5382.5	4489.95
958.2813	2300.251	5345.6	4454.2
958.4137	2301.693	5331.75	4436.35
958.5461	2303.1343	5317.55	4422.85
958.6785	2304.5748	5305.2	4412.55
958.8108	2306.0147	5285.6	4394.85
958.9432	2307.4538	5278.65	4389.8
959.0754	2308.8922	5270.45	4384.9
959.2077	2310.3299	5241.3	4353.2
959.3399	2311.7669	5237.15	4347.45
959.4721	2313.2031	5231.4	4341.1
959.6043	2314.6387	5192.45	4301.45
959.7365	2316.0735	5162.75	4271.2
959.8686	2317.5076	5169.7	4278.5
960.0006	2318.941	5156.8	4264.95
960.1327	2320.3737	5139.9	4242.65
960.2647	2321.8056	5146.15	4250.6
960.3967	2323.2369	5115	4221.85
960.5287	2324.6674	5100.55	4208.4
960.6606	2326.0972	5086.85	4193.95
960.7925	2327.5263	5061.55	4170.85
960.9244	2328.9547	5066.4	4174.8
961.0562	2330.3823	5046.95	4151.9
961.1881	2331.8092	5056.9	4160.35
961.3198	2333.2355	5020.85	4126.7
961.4516	2334.661	5006.45	4113.25
961.5833	2336.0858	5012.3	4116.75
961.715	2337.5098	4996.15	4103.6
961.8467	2338.9332	4970.9	4077.3
961.9783	2340.3558	4976.5	4082.9
962.1099	2341.7778	4940.3	4049.85
962.2415	2343.199	4933.25	4040.9
962.373	2344.6195	4901.25	4012.65
962.5045	2346.0393	4907.3	4018.3
962.636	2347.4583	4894.45	4003.35
962.7675	2348.8767	4889.9	3996.1
962.8989	2350.2943	4862.05	3968.95
963.0303	2351.7113	4880	3985.7
963.1617	2353.1275	4867.65	3973.45
963.293	2354.543	4846.2	3929.1
963.4243	2355.9578	4827.4	3934.85
963.5556	2357.3718	4802.8	3914.55
963.6868	2358.7852	4786.45	3895.3
963.818	2360.1978	4776.55	3887.7
963.9492	2361.6098	4765.35	3875.45
964.0803	2363.021	4745.35	3851.05
964.2114	2364.4315	4728.7	3838.3
964.3425	2365.8413	4731.65	3838.7
964.4736	2367.2504	4706.75	3817.75
964.6046	2368.6587	4683.55	3792.8
964.7356	2370.0664	4652.15	3762.1
964.8666	2371.4733	4644.55	3755.85
964.9975	2372.8795	4628.6	3739.55
965.1284	2374.285	4622.75	3731.7
965.2593	2375.6899	4594.05	3707.05
965.3901	2377.0939	4578.35	3690
965.5209	2378.4973	4568.25	3678.4
965.6517	2379.9	4561.3	3669.7
965.7825	2381.3019	4539.9	3650.35
965.9132	2382.7032	4540.7	3652.5
966.0439	2384.1037	4504.7	3619.85
966.1745	2385.5035	4492.05	3605.35
966.3051	2386.9027	4495.55	3608.65
966.4357	2388.3011	4461.35	3570.8
966.5663	2389.6987	4459	3570.2
966.6968	2391.0957	4445.3	3558.7
966.8273	2392.492	4414.45	3526.55
966.9578	2393.8876	4410	3523.25
967.0882	2395.2824	4389.65	3501.4
967.2186	2396.6765	4381.9	3493.45
967.349	2398.07	4374.55	3485.5
967.4793	2399.4627	4361.85	3468.9
967.6097	2400.8547	4349.3	3457.6
967.7399	2402.246	4349.15	3451.95
967.8702	2403.6366	4314.7	3424.35
968.0004	2405.0265	4312.45	3423.2
968.1306	2406.4156	4306.95	3412.6
968.2607	2407.8041	4290.7	3398.5
968.3909	2409.1918	4263.9	3370.35
968.521	2410.5789	4243.6	3352.75
968.651	2411.9652	4242.65	3350.25
968.781	2413.3508	4240.05	3349.25
968.911	2414.7358	4217.4	3328.35
969.041	2416.12	4199.6	3311.7
969.1709	2417.5035	4194.85	3308.25
969.3008	2418.8863	4169.85	3278.75
969.4307	2420.2684	4161.4	3272.15
969.5606	2421.6497	4154.95	3265.95
969.6904	2423.0304	4105	3215.3
969.8201	2424.4104	4122.45	3232.15
969.9499	2425.7896	4113.25	3221.75
970.0796	2427.1682	4112.85	3225.75
970.2093	2428.546	4096.6	3205.6
970.3389	2429.9232	4087.4	3196.2
970.4685	2431.2996	4074.6	3184.2
970.5981	2432.6753	4073.25	3184.15
970.7277	2434.0503	4064.9	3173.3
970.8572	2435.4246	4036.05	3149.1
970.9867	2436.7982	4019.3	3127.1
971.1161	2438.1711	4012.25	3121.55
971.2456	2439.5433	4011.6	3119.45
971.375	2440.9148	4002.05	3105.9
971.5043	2442.2856	3975.55	3086.55
971.6336	2443.6557	3953	3063.3
971.7629	2445.025	3957.85	3068.15
971.8922	2446.3937	3949.85	3060.3
972.0214	2447.7617	3947.8	3056.3
972.1506	2449.1289	3937	3047.15
972.2798	2450.4955	3919.65	3024.4
972.4089	2451.8613	3900.8	3012.2
972.538	2453.2265	3910.65	3021.2
972.6671	2454.5909	3897.4	3006.95
972.7961	2455.9546	3894.65	3003.75
972.9251	2457.3177	3865.8	2976.3
973.0541	2458.68	3869.3	2977.35
973.1831	2460.0416	3863.25	2972
973.312	2461.4025	3845.2	2952.25
973.4408	2462.7627	3856.45	2954.5
973.5697	2464.1222	3840.25	2952.6
973.6985	2465.4811	3823.45	2933.5
973.8273	2466.8392	3804.3	2915.55
973.956	2468.1966	3814.9	2921.6
974.0847	2469.5533	3806.65	2914.4
974.2134	2470.9093	3787.5	2898.8
974.3421	2472.2645	3794.85	2903.15
974.4707	2473.6191	3772.9	2884.45
974.5993	2474.973	3762.35	2873.4
974.7278	2476.3262	3755.3	2862.85
974.8563	2477.6787	3743.45	2854.75
974.9848	2479.0305	3712.35	2822.4
975.1132	2480.3816	3709.2	2817.85
975.2417	2481.7319	3713.55	2824.2
975.37	2483.0816	3675.5	2782.2
975.4984	2484.4306	3687.35	2799.4
975.6267	2485.7789	3668.25	2779
975.755	2487.1264	3647.85	2758.7
975.8833	2488.4733	3642.45	2754.4
976.0115	2489.8195	3645.4	2740.7
976.1397	2491.165	3635.3	2742.7
976.2678	2492.5097	3620.65	2729.4
976.3959	2493.8538	3607.95	2718.25
976.524	2495.1972	3594.6	2704.8
976.6521	2496.5398	3579.75	2688.05
976.7801	2497.8818	3588.2	2694.25
976.9081	2499.2231	3566.6	2676.45
977.036	2500.5637	3563.35	2670.7
977.164	2501.9035	3543.75	2652
977.2918	2503.2427	3540.5	2644.7
977.4197	2504.5812	3519.6	2630.9
977.5475	2505.919	3512.7	2622.1
977.6753	2507.256	3509.8	2619.25
977.8031	2508.5924	3497.3	2608.05
977.9308	2509.9281	3482.75	2587.3
978.0585	2511.2631	3488.8	2599.65
978.1861	2512.5974	3465.7	2576.95
978.3137	2513.9309	3472.9	2582.35
978.4413	2515.2638	3464.7	2552.4
978.5689	2516.596	3453.35	2561.6
978.6964	2517.9275	3422	2532.3
978.8239	2519.2583	3399.25	2508.9
978.9513	2520.5884	3402.75	2509.8
979.0788	2521.9178	3397.05	2507.85
979.2062	2523.2465	3388.2	2499.6
979.3335	2524.5745	3367.7	2481.35
979.4608	2525.9018	3374.85	2482.8
979.5881	2527.2284	3374.75	2487.15
979.7154	2528.5543	3371.2	2482.6
979.8426	2529.8796	3359.5	2470.55
979.9698	2531.2041	3339.9	2450.05
980.0969	2532.5279	3349.8	2461.4
980.224	2533.851	3344.6	2456
980.3511	2535.1735	3328.6	2440.5
980.4781	2536.4952	3322.45	2430.85
980.6052	2537.8163	3314	2421.65
980.7321	2539.1366	3310.2	2420.9
980.8591	2540.4562	3294.9	2403.35
980.986	2541.7752	3291.65	2401.4
981.1129	2543.0935	3298.3	2407.85
981.2397	2544.411	3281.65	2391.3
981.3665	2545.7279	3259.1	2368.1
981.4933	2547.0441	3265.4	2373.65
981.62	2548.3596	3263.95	2371.2
981.7467	2549.6744	3249.55	2358.6
981.8734	2550.9885	3253.2	2360.05
982.0001	2552.3019	3231.9	2342.75
982.1267	2553.6146	3229.9	2338.05
982.2532	2554.9266	3223.85	2333.25
982.3798	2556.2379	3208.05	2315.5
982.5063	2557.5485	3204.8	2315.6
982.6327	2558.8585	3199.35	2300.15
982.7592	2560.1677	3201.2	2307.3
982.8856	2561.4762	3199.5	2309.65
983.0119	2562.7841	3193.1	2298.95
983.1383	2564.0913	3178.7	2289.2
983.2646	2565.3977	3162.7	2274.25
983.3908	2566.7035	3162.85	2270.85
983.517	2568.0086	3166.85	2274.9
983.6432	2569.313	3159.85	2267.9
983.7694	2570.6167	3155.4	2261.2
983.8955	2571.9197	3140.9	2250.5
984.0216	2573.222	3139.1	2243.6
984.1476	2574.5236	3139.2	2245.9
984.2737	2575.8246	3132.2	2240.2
984.3996	2577.1248	3132.95	2239.55
984.5256	2578.4244	3135.75	2245.1
984.6515	2579.7232	3118.1	2228.75
984.7774	2581.0214	3139.8	2219.95
984.9032	2582.3189	3119.4	2228.55
985.029	2583.6157	3103.9	2208.95
985.1548	2584.9118	3102.3	2212
985.2806	2586.2072	3102.15	2210.7
985.4063	2587.5019	3092	2201.15
985.5319	2588.7959	3082.1	2189.9
985.6576	2590.0893	3076.7	2184.45
985.7832	2591.3819	3079.3	2190.75
985.9087	2592.6739	3060.55	2169
986.0343	2593.9652	3081.9	2190.6
986.1597	2595.2557	3067.2	2176.25
986.2852	2596.5456	3046.95	2154.2
986.4106	2597.8348	3042.2	2152.4
986.536	2599.1234	3023.45	2132.15
986.6614	2600.4112	3037	2143.7
986.7867	2601.6983	3030.75	2135.6
986.912	2602.9848	3022.55	2131.75
987.0372	2604.2705	3020.15	2123.55
987.1624	2605.5556	3004.4	2112.5
987.2876	2606.84	2990.7	2100.05
987.4128	2608.1237	2985.5	2094.25
987.5379	2609.4067	2991.15	2099.5
987.6629	2610.689	2996.65	2095.25
987.788	2611.9707	2971.75	2075.15
987.913	2613.2516	2961.4	2065.6
988.0379	2614.5319	2956.05	2065.6
988.1629	2615.8115	2931.55	2039.25
988.2878	2617.0903	2920.15	2028.6
988.4126	2618.3685	2927.7	2036.65
988.5375	2619.6461	2916.55	2026.9
988.6622	2620.9229	2917.9	2026.15
988.787	2622.199	2914.2	2022.15
988.9117	2623.4745	2902.5	2011.35
989.0364	2624.7493	2895.1	2003.05
989.161	2626.0234	2889.45	1999.25
989.2857	2627.2968	2873.6	1984.7
989.4102	2628.5695	2868.15	1975.7
989.5348	2629.8415	2867.25	1976.45
989.6593	2631.1128	2858.35	1965.5
989.7837	2632.3835	2852.8	1963.4
989.9082	2633.6535	2847.8	1956.85
990.0326	2634.9228	2840.8	1950.5
990.1569	2636.1914	2826.65	1935.7
990.2812	2637.4593	2833.25	1940.4
990.4055	2638.7265	2829	1937.15
990.5298	2639.9931	2799.1	1909.35
990.654	2641.259	2807.65	1915.45
990.7782	2642.5242	2790.5	1899.35
990.9023	2643.7887	2789.65	1899
991.0264	2645.0525	2784.6	1895.75
991.1505	2646.3156	2786.35	1892.5
991.2745	2647.5781	2776.2	1885.4
991.3985	2648.8398	2759.7	1869.95
991.5225	2650.1009	2775.8	1858.25
991.6464	2651.3613	2760.75	1868.7
991.7703	2652.6211	2754.4	1864.45
991.8942	2653.8801	2733.35	1842.65
992.018	2655.1385	2740.6	1847.05
992.1418	2656.3961	2726.7	1835.75
992.2655	2657.6531	2725.3	1835.7
992.3892	2658.9094	2725.1	1834.6
992.5129	2660.1651	2715.95	1825.9
992.6366	2661.42	2719.7	1828.3
992.7602	2662.6743	2724.9	1834.15
992.8837	2663.9279	2708.75	1816.6
993.0073	2665.1808	2709.4	1816.35
993.1307	2666.433	2700.8	1810.15
993.2542	2667.6846	2708.1	1819.55
993.3776	2668.9354	2706.1	1814.9
993.501	2670.1856	2689.4	1798.05
993.6244	2671.4351	2698.05	1807.95
993.7477	2672.6839	2696.85	1805.95
993.8709	2673.9321	2685.05	1794.35
993.9942	2675.1795	2679.3	1788.55
994.1174	2676.4263	2688.15	1798.8
994.2405	2677.6724	2684.1	1795
994.3637	2678.9179	2670.35	1778.5
994.4868	2680.1626	2674.5	1785.45
994.6098	2681.4067	2660.55	1770.25
994.7328	2682.6501	2666.2	1777.5
994.8558	2683.8928	2666.75	1778.55
994.9788	2685.1348	2652.5	1763.25
995.1017	2686.3761	2643.3	1754.7
995.2245	2687.6168	2627.15	1739.55
995.3474	2688.8568	2626.2	1738.1
995.4702	2690.0961	2618.2	1729.95
995.5929	2691.3348	2611.4	1720.2
995.7156	2692.5727	2600.4	1710.3
995.8383	2693.81	2595.45	1706.05
995.961	2695.0466	2578.05	1688.2
996.0836	2696.2826	2589	1698
996.2062	2697.5178	2584.15	1691.05
996.3287	2698.7524	2580.65	1691.35
996.4512	2699.9863	2579.8	1687.45
996.5737	2701.2195	2555.45	1667.8
996.6961	2702.452	2572.45	1682.05
996.8185	2703.6839	2570.45	1679.6
996.9408	2704.9151	2572.45	1683.15
997.0631	2706.1456	2561.1	1670.85
997.1854	2707.3755	2564.8	1676.15
997.3077	2708.6046	2571.2	1678.1
997.4299	2709.8331	2577.5	1689.15
997.552	2711.0609	2567.9	1680.95
997.6742	2712.2881	2572.2	1685.65
997.7963	2713.5145	2589.3	1687.15
997.9183	2714.7403	2586.4	1698.4
998.0403	2715.9654	2582.25	1692.15
998.1623	2717.1899	2606.6	1703.75
998.2842	2718.4136	2604.8	1715.85
998.4062	2719.6367	2606.6	1716.95
998.528	2720.8591	2618.05	1723.45
998.6498	2722.0809	2622.15	1733.5
998.7716	2723.3019	2616.75	1723.15
998.8934	2724.5223	2639.05	1750.5
999.0151	2725.7421	2629.65	1741.05
999.1368	2726.9611	2634.75	1745.5
999.2584	2728.1795	2628.25	1734.95
999.38	2729.3972	2610.9	1721.65
999.5016	2730.6142	2607.75	1706.6
999.6231	2731.8306	2571.45	1680.2
999.7446	2733.0462	2548.7	1655.65
999.8661	2734.2612	2529.35	1633.65
999.9875	2735.4756	2520.9	1628.55
1000.1089	2736.6892	2490.4	1603.35
1000.2302	2737.9022	2471.7	1584.1
1000.3515	2739.1145	2449.6	1563.35
1000.4728	2740.3262	2449.95	1556.5
1000.594	2741.5372	2426.55	1537.8
1000.7152	2742.7475	2413.7	1526.8
1000.8363	2743.9571	2390.95	1499.5
1000.9575	2745.1661	2389.7	1495.6
1001.0785	2746.3744	2370.8	1480
1001.1996	2747.582	2358.65	1469.45
1001.3206	2748.7889	2339.7	1448.5
1001.4415	2749.9952	2348.05	1461.15
1001.5625	2751.2008	2326.6	1437.3
1001.6833	2752.4057	2324.15	1434.25
1001.8042	2753.61	2310.65	1423
1001.925	2754.8136	2306.9	1415.85
1002.0458	2756.0165	2299.9	1412
1002.1665	2757.2188	2302.35	1415.9
1002.2872	2758.4204	2300.8	1414.6
1002.4078	2759.6213	2293.95	1403.5
1002.5285	2760.8215	2292.4	1399.8
1002.649	2762.0211	2278.15	1388.4
1002.7696	2763.22	2271.75	1380.05
1002.8901	2764.4182	2273.45	1382.75
1003.0106	2765.6158	2255.5	1367.45
1003.131	2766.8127	2237.75	1348.25
1003.2514	2768.009	2243.3	1356.55
1003.3717	2769.2045	2246.9	1356.15
1003.492	2770.3994	2243.5	1353.2
1003.6123	2771.5936	2226.2	1338.4
1003.7325	2772.7872	2225.9	1336.7
1003.8527	2773.9801	2217.8	1328.1
1003.9729	2775.1723	2222.55	1317.45
1004.093	2776.3639	2212.5	1325.55
1004.2131	2777.5548	2216	1326.8
1004.3331	2778.745	2201.3	1313.2
1004.4531	2779.9346	2206.55	1319.2
1004.5731	2781.1235	2217.85	1328.5
1004.693	2782.3117	2200.75	1315.3
1004.8129	2783.4992	2209.75	1322.85
1004.9328	2784.6861	2206.1	1318.9
1005.0526	2785.8723	2217.45	1330.65
1005.1723	2787.0579	2205.4	1318.2
1005.2921	2788.2428	2212.8	1325.25
1005.4118	2789.427	2216.25	1328.5
1005.5314	2790.6106	2221.9	1336.2
1005.651	2791.7935	2240.3	1352.6
1005.7706	2792.9757	2241	1354.55
1005.8902	2794.1573	2251.25	1363.35
1006.0097	2795.3382	2264.85	1378.3
1006.1291	2796.5184	2270.1	1383.55
1006.2485	2797.698	2281.2	1391.05
1006.3679	2798.8769	2301.3	1413.65
1006.4873	2800.0551	2317.8	1428.85
1006.6066	2801.2327	2332.55	1441.85
1006.7258	2802.4096	2338.9	1451.95
1006.8451	2803.5859	2364.55	1475.5
1006.9642	2804.7615	2381.75	1493.6
1007.0834	2805.9364	2410.75	1522.9
1007.2025	2807.1106	2420.95	1535.8
1007.3216	2808.2842	2449.8	1562.4
1007.4406	2809.4572	2486.75	1600.25
1007.5596	2810.6294	2510.8	1623.95
1007.6785	2811.801	2560.1	1673.7
1007.7975	2812.972	2597.75	1711.85
1007.9163	2814.1423	2646.8	1760.65
1008.0352	2815.3119	2693.2	1805.6
1008.154	2816.4808	2732.3	1846.45
1008.2727	2817.6491	2781.75	1893.75
1008.3914	2818.8167	2812.2	1927.8
1008.5101	2819.9837	2874.05	1981.75
1008.6288	2821.15	2930.1	2045.25
1008.7474	2822.3157	2963.45	2077.15
1008.8659	2823.4807	3000.8	2113.2
1008.9844	2824.645	3057.35	2170.3
1009.1029	2825.8086	3085.15	2199.1
1009.2214	2826.9716	3115.55	2230.75
1009.3398	2828.134	3152.35	2267.35
1009.4581	2829.2957	3200.2	2313.2
1009.5764	2830.4567	3220.15	2333.3
1009.6947	2831.617	3233.45	2343.35
1009.813	2832.7767	3243.6	2357.25
1009.9312	2833.9358	3259	2372.6
1010.0493	2835.0941	3233.65	2344.95
1010.1675	2836.2519	3219.95	2333.65
1010.2855	2837.4089	3205.45	2317.45
1010.4036	2838.5653	3200.6	2315.6
1010.5216	2839.7211	3197.95	2312.45
1010.6396	2840.8761	3212	2323.6
1010.7575	2842.0306	3229.65	2346.4
1010.8754	2843.1843	3262.25	2376.05
1010.9932	2844.3374	3311.65	2426.35
1011.111	2845.4899	3374.2	2486.7
1011.2288	2846.6417	3438.3	2551
1011.3465	2847.7928	3526.6	2640.85
1011.4642	2848.9433	3588.2	2702.8
1011.5818	2850.0931	3678.05	2791.85
1011.6995	2851.2422	3758.3	2870.65
1011.817	2852.3907	3837.25	2950.6
1011.9345	2853.5385	3902.6	3014.15
1012.052	2854.6857	3965.6	3070.55
1012.1695	2855.8323	4015.05	3130.5
1012.2869	2856.9781	4052.45	3165.55
1012.4042	2858.1233	4093.05	3205.95
1012.5216	2859.2679	4138.7	3254.35
1012.6389	2860.4118	4192.2	3307
1012.7561	2861.555	4234.95	3343
1012.8733	2862.6976	4248.85	3361.15
1012.9905	2863.8395	4287.15	3399.8
1013.1076	2864.9808	4315.85	3431.15
1013.2247	2866.1214	4315.35	3430.8
1013.3417	2867.2614	4325.05	3438.35
1013.4587	2868.4007	4340.05	3452
1013.5757	2869.5393	4343.75	3453.65
1013.6926	2870.6773	4370.5	3480.4
1013.8095	2871.8146	4365.85	3478.95
1013.9263	2872.9513	4376.05	3488.6
1014.0431	2874.0874	4361.65	3475.5
1014.1599	2875.2227	4353.8	3465.1
1014.2766	2876.3574	4328.85	3441.9
1014.3933	2877.4915	4303.05	3417.7
1014.51	2878.6249	4276.1	3390.9
1014.6266	2879.7577	4253.8	3367.75
1014.7431	2880.8898	4229.1	3332.7
1014.8596	2882.0212	4200	3314.95
1014.9761	2883.152	4204.6	3319.75
1015.0925	2884.2821	4179.4	3294.3
1015.2089	2885.4116	4163.65	3277.85
1015.3253	2886.5405	4161.85	3277.55
1015.4416	2887.6686	4193.65	3304.9
1015.5579	2888.7962	4177.9	3294
1015.6741	2889.923	4179.55	3294.2
1015.7903	2891.0493	4178.5	3295.6
1015.9065	2892.1748	4188.05	3303.1
1016.0226	2893.2997	4207.95	3321
1016.1387	2894.424	4213.15	3328.05
1016.2547	2895.5476	4232.7	3347.9
1016.3707	2896.6706	4263.25	3378.15
1016.4866	2897.7929	4281.1	3395.5
1016.6025	2898.9145	4298.65	3413.15
1016.7184	2900.0355	4331.05	3443
1016.8342	2901.1559	4354.75	3468
1016.95	2902.2756	4393.45	3508.6
1017.0658	2903.3946	4443.55	3557.9
1017.1815	2904.513	4451.35	3563.25
1017.2971	2905.6308	4480.35	3594.95
1017.4127	2906.7479	4489.45	3603.1
1017.5283	2907.8643	4522.6	3636.4
1017.6439	2908.9801	4524	3638.65
1017.7594	2910.0953	4536.4	3651.4
1017.8748	2911.2098	4536.4	3647.35
1017.9902	2912.3236	4531.6	3639.05
1018.1056	2913.4368	4515.25	3628.95
1018.2209	2914.5494	4507.65	3622.65
1018.3362	2915.6613	4475.5	3584.85
1018.4515	2916.7725	4439	3552.15
1018.5667	2917.8831	4409.15	3522.3
1018.6819	2918.9931	4371.35	3483.8
1018.797	2920.1024	4331.8	3442.6
1018.9121	2921.211	4315.85	3431.7
1019.0271	2922.319	4286.4	3400.15
1019.1421	2923.4264	4276.95	3392.4
1019.2571	2924.5331	4271.9	3389.2
1019.372	2925.6391	4251.3	3367.85
1019.4869	2926.7445	4239.1	3352.85
1019.6017	2927.8493	4227.95	3341.7
1019.7165	2928.9534	4219.95	3334.9
1019.8313	2930.0569	4218.4	3330
1019.946	2931.1597	4193.65	3307.65
1020.0606	2932.2619	4169.35	3284.05
1020.1753	2933.3634	4171.55	3286.6
1020.2899	2934.4643	4162.1	3272.15
1020.4044	2935.5645	4127.8	3237
1020.5189	2936.6641	4101.9	3213.7
1020.6334	2937.763	4038.8	3153.45
1020.7478	2938.8613	3998	3113.65
1020.8622	2939.959	3947.35	3056.35
1020.9765	2941.056	3846.15	2960.55
1021.0908	2942.1523	3787.9	2900.85
1021.2051	2943.248	3699.2	2812.95
1021.3193	2944.3431	3591.2	2708.7
1021.4334	2945.4375	3478.3	2592.6
1021.5476	2946.5313	3383.45	2501
1021.6617	2947.6244	3261.35	2375.4
1021.7757	2948.7169	3167.8	2280.45
1021.8897	2949.8087	3059.8	2174.1
1022.0037	2950.8999	2976.05	2091.05
1022.1176	2951.9904	2889.1	2004.1
1022.2315	2953.0803	2814.9	1930.2
1022.3453	2954.1696	2746.1	1862.5
1022.4591	2955.2582	2688.7	1806.15
1022.5728	2956.3462	2641.2	1757
1022.6865	2957.4335	2605.15	1719.75
1022.8002	2958.5202	2555.4	1668.85
1022.9138	2959.6062	2521.7	1636.6
1023.0274	2960.6916	2503.1	1618.7
1023.141	2961.7764	2469	1581.95
1023.2545	2962.8605	2461.6	1577.6
1023.3679	2963.9439	2452.75	1570.1
1023.4813	2965.0267	2436.8	1549.95
1023.5947	2966.1089	2444.95	1538.3
1023.708	2967.1905	2416.2	1532
1023.8213	2968.2714	2420.15	1536.6
1023.9346	2969.3516	2403.65	1521.95
1024.0478	2970.4312	2409.7	1517.65
1024.1609	2971.5102	2406.65	1520.75
1024.274	2972.5885	2407.25	1522.5
1024.3871	2973.6662	2402.65	1513.7
1024.5002	2974.7432	2394.95	1509.6
1024.6132	2975.8196	2385.55	1500.45
1024.7261	2976.8954	2368.7	1488.15
1024.839	2977.9705	2350.45	1466.35
1024.9519	2979.045	2347.95	1466.1
1025.0647	2980.1188	2327.95	1443.8
1025.1775	2981.192	2297.9	1414.35
1025.2902	2982.2645	2287.5	1401.3
1025.4029	2983.3364	2265.15	1380.8
1025.5156	2984.4077	2223.55	1340
1025.6282	2985.4783	2214.05	1325.1
1025.7407	2986.5483	2170.25	1286.95
1025.8532	2987.6177	2127.7	1245.05
1025.9657	2988.6864	2100.9	1217.45
1026.0782	2989.7545	2059.35	1173.45
1026.1906	2990.8219	2011.9	1130.15
1026.3029	2991.8887	1993.15	1106.05
1026.4152	2992.9548	1955.8	1071.6
1026.5275	2994.0204	1924.9	1040.05
1026.6397	2995.0852	1892.7	1009.85
1026.7519	2996.1495	1866.25	982.4
1026.864	2997.2131	1845.95	962.3
1026.9761	2998.276	1820.05	935.5
1027.0882	2999.3383	1792.85	908.5
1027.2002	3000.4	1778.6	895.25
1027.3122	3001.4611	1759.2	877.65
1027.4241	3002.5215	1742.05	858.4
1027.536	3003.5812	1719.1	836.05
1027.6478	3004.6404	1722.25	837.95
1027.7596	3005.6989	1709.25	823.5
1027.8714	3006.7567	1691.8	806.95
1027.9831	3007.8139	1707.95	807.2
1028.0947	3008.8705	1680.7	796.55
1028.2064	3009.9264	1689.15	789.7
1028.3179	3010.9818	1671	786.5
1028.4295	3012.0364	1659.1	773.75
1028.541	3013.0905	1661.75	778.4
1028.6524	3014.1439	1655.95	773.45
1028.7638	3015.1966	1654.9	770.85
1028.8752	3016.2487	1646.3	761.05
1028.9865	3017.3002	1652.25	761.6
1029.0978	3018.3511	1648.85	766.7
1029.209	3019.4013	1648.7	764.3
1029.3202	3020.4509	1643.55	759.15
1029.4314	3021.4998	1648.1	763
1029.5425	3022.5481	1646.4	763.2
1029.6535	3023.5958	1640.15	757.25
1029.7645	3024.6428	1647.45	762.5
1029.8755	3025.6892	1645.6	761.9
1029.9864	3026.735	1644.05	761.1
1030.0973	3027.7802	1640.9	757.1
1030.2082	3028.8247	1652.35	771.85
1030.319	3029.8685	1650.75	766
1030.4297	3030.9118	1646.2	762.35
1030.5404	3031.9544	1650.35	768.1
1030.6511	3032.9963	1660.35	776.65
1030.7617	3034.0376	1656.85	773.25
1030.8723	3035.0783	1668.35	783.25
1030.9829	3036.1184	1668.15	783.5
1031.0934	3037.1578	1668.1	783.85
1031.2038	3038.1966	1672.45	788.25
1031.3142	3039.2348	1670.9	788.5
1031.4246	3040.2723	1683.5	790.8
1031.5349	3041.3092	1670.4	788.3
1031.6452	3042.3455	1667.55	782.4
1031.7554	3043.3811	1661.65	776.8
1031.8656	3044.4161	1662.7	779.45
1031.9758	3045.4505	1651	769
1032.0859	3046.4842	1642.8	758.15
1032.1959	3047.5173	1631.35	749.85
1032.3059	3048.5498	1619.25	733.65
1032.4159	3049.5816	1615.2	732.25
1032.5258	3050.6128	1611.25	725
1032.6357	3051.6434	1600.85	716.2
1032.7455	3052.6734	1586.65	703.15
1032.8553	3053.7027	1589.65	705.65
1032.9651	3054.7314	1573.85	691.35
1033.0748	3055.7594	1571.2	689.55
1033.1845	3056.7868	1566.6	681.9
1033.2941	3057.8136	1554.45	673.45
1033.4037	3058.8398	1552.4	668.45
1033.5132	3059.8653	1537.1	655.05
1033.6227	3060.8902	1539.6	658
1033.7321	3061.9145	1536.5	654.1
1033.8415	3062.9381	1527.2	645.7
1033.9509	3063.9612	1535.4	635.4
1034.0602	3064.9835	1508.95	625.2
1034.1694	3066.0053	1509.05	624
1034.2787	3067.0264	1497.95	614.4
1034.3878	3068.0469	1488.9	605.1
1034.497	3069.0668	1486.35	599.1
1034.6061	3070.086	1468.05	586.35
1034.7151	3071.1046	1464.95	579.9
1034.8241	3072.1226	1448.05	564.7
1034.9331	3073.1399	1441.25	559.1
1035.042	3074.1567	1437.35	553.85
1035.1508	3075.1727	1424	540
1035.2597	3076.1882	1413.85	531.8
1035.3684	3077.203	1399.35	516.35
1035.4772	3078.2173	1392.4	507.7
1035.5859	3079.2308	1390.85	505.2
1035.6945	3080.2438	1380.5	494.35
1035.8031	3081.2561	1365.65	483.5
1035.9117	3082.2678	1352.65	469.9
1036.0202	3083.2789	1349.95	467.8
1036.1286	3084.2893	1340.35	458.2
1036.2371	3085.2991	1337.7	455.55
1036.3454	3086.3083	1331	443.6
1036.4538	3087.3169	1327.3	443.95
1036.562	3088.3248	1316.95	434.6
1036.6703	3089.3321	1314.4	429.85
1036.7785	3090.3388	1300.55	418.35
1036.8866	3091.3449	1297.55	414.15
1036.9948	3092.3503	1302.35	416.7
1037.1028	3093.3551	1290.35	409.95
1037.2108	3094.3593	1283.9	400.6
1037.3188	3095.3629	1280.9	399.6
1037.4267	3096.3658	1281.45	397.55
1037.5346	3097.3681	1278.55	396.55
1037.6425	3098.3698	1273.95	390.9
1037.7503	3099.3708	1277.85	387.7
1037.858	3100.3713	1258.6	375.3
1037.9657	3101.3711	1263.55	377.85
1038.0734	3102.3702	1390.35	374.8
1038.181	3103.3688	1256.05	370.05
1038.2886	3104.3667	1245.55	364.75
1038.3961	3105.364	1244.9	361.2
1038.5036	3106.3607	1242.95	359.05
1038.611	3107.3568	1236.9	354.45
1038.7184	3108.3522	1241.75	360.55
1038.8257	3109.347	1236.55	351
1038.933	3110.3412	1234.3	346.3
1039.0403	3111.3348	1232.35	349
1039.1475	3112.3277	1220.15	337.25
1039.2547	3113.32	1228	345.6
1039.3618	3114.3117	1224.75	341.85
1039.4689	3115.3028	1217.7	334.7
1039.5759	3116.2932	1214.85	332.45
1039.6829	3117.2831	1223.9	336.2
1039.7898	3118.2723	1220.3	336.55
1039.8967	3119.2608	1212.05	330.9
1040.0035	3120.2488	1212.8	329.15
1040.1103	3121.2361	1207.5	323.7
1040.2171	3122.2229	1210.05	326.3
1040.3238	3123.209	1202.2	320
1040.4305	3124.1944	1201.9	321.85
1040.5371	3125.1793	1194.65	309.95
1040.6437	3126.1635	1198.7	317.55
1040.7502	3127.1471	1194.45	313.85
1040.8567	3128.1301	1194.25	312.85
1040.9631	3129.1125	1189.95	308.4
1041.0695	3130.0942	1191.15	310.35
1041.1759	3131.0753	1198.05	307.95
1041.2822	3132.0558	1190.25	305.35
1041.3884	3133.0357	1182.4	297.95
1041.4946	3134.015	1185.1	302.2
1041.6008	3134.9936	1176.55	292.3
1041.7069	3135.9716	1203.1	302.35
1041.813	3136.949	1180.2	296.5
1041.919	3137.9258	1194.95	294.75
1042.025	3138.902	1182.7	293.1
1042.1309	3139.8775	1174.1	291.9
1042.2368	3140.8524	1172.45	290.05
1042.3427	3141.8267	1169.65	286.8
1042.4485	3142.8004	1166.05	283.15
1042.5542	3143.7735	1174.25	286.95
1042.6599	3144.7459	1161.9	276.55
1042.7656	3145.7178	1163.85	281.6
1042.8712	3146.689	1162.75	281.05
1042.9768	3147.6596	1159.05	272.7
1043.0823	3148.6295	1160.15	276.65
1043.1878	3149.5989	1155.4	272.25
1043.2932	3150.5676	1154.85	273.45
1043.3986	3151.5357	1149.85	270.85
1043.5039	3152.5032	1150	269.45
1043.6092	3153.4701	1144.6	263.65
1043.7145	3154.4364	1147.65	262.6
1043.8197	3155.402	1141.6	258.85
1043.9248	3156.367	1144.3	259.5
1044.03	3157.3315	1165.65	257.8
1044.135	3158.2952	1143.15	261.95
1044.24	3159.2584	1134.95	255.2
1044.345	3160.221	1134.2	252.15
1044.4499	3161.1829	1132.3	250.7
1044.5548	3162.1442	1130.45	247.45
1044.6596	3163.105	1132.05	250.35
1044.7644	3164.065	1131.65	248
1044.8692	3165.0245	1122.85	237.3
1044.9739	3165.9834	1120.9	240.65
1045.0785	3166.9416	1122.9	242.7
1045.1831	3167.8993	1122.65	240.4
1045.2877	3168.8563	1122.4	242.3
1045.3922	3169.8127	1112.4	230.45
1045.4966	3170.7684	1118.15	236
1045.6011	3171.7236	1113.9	232.15
1045.7054	3172.6782	1117.75	236.7
1045.8098	3173.6321	1116.95	233
1045.914	3174.5854	1118.65	230.75
1046.0183	3175.5381	1111.75	228.75
1046.1224	3176.4902	1106.15	225.65
1046.2266	3177.4417	1108.85	226.35
1046.3307	3178.3926	1109.05	225.45
1046.4347	3179.3428	1106.3	227.55
1046.5387	3180.2924	1107.4	223.85
1046.6427	3181.2415	1101.45	218.15
1046.7466	3182.1899	1103.05	220.25
1046.8504	3183.1377	1105.05	224.1
1046.9542	3184.0848	1104.3	221.55
1047.058	3185.0314	1100.4	218.6
1047.1617	3185.9773	1096.2	214.55
1047.2654	3186.9227	1098.85	215.85
1047.369	3187.8674	1094.7	213.6
1047.4726	3188.8115	1098.7	213.05
1047.5761	3189.755	1093.2	212
1047.6796	3190.6979	1091.85	208.05
1047.783	3191.6402	1088.85	208.05
1047.8864	3192.5818	1087.45	205.75
1047.9898	3193.5229	1091.35	201.4
1048.0931	3194.4633	1086.55	204.8
1048.1963	3195.4031	1083.1	198.45
1048.2995	3196.3423	1084.2	203.1
1048.4027	3197.2809	1082.1	196.8
1048.5058	3198.2189	1085.9	204
1048.6089	3199.1563	1091.9	203.95
1048.7119	3200.0931	1081.95	201.7
1048.8148	3201.0292	1079.55	200.6
1048.9178	3201.9648	1076.45	194.8
1049.0206	3202.8997	1079.6	193.4
1049.1235	3203.834	1073	190.85
1049.2262	3204.7677	1073.15	189.9
1049.329	3205.7008	1073.05	187.1
1049.4317	3206.6333	1075.7	197
1049.5343	3207.5652	1074.1	190.05
1049.6369	3208.4964	1073.2	193.15
1049.7394	3209.4271	1070.55	188.55
1049.8419	3210.3571	1070.85	191.05
1049.9444	3211.2865	1063.55	180.5
1050.0468	3212.2154	1067.1	183.65
1050.1491	3213.1436	1070.9	185.95
1050.2514	3214.0712	1073.9	185.95
1050.3537	3214.9982	1061.75	179.1
1050.4559	3215.9246	1062.55	181.7
1050.5581	3216.8503	1060.35	178.35
1050.6602	3217.7755	1062	180.5
1050.7623	3218.7001	1064.75	182.45
1050.8643	3219.624	1057.25	175.05
1050.9663	3220.5473	1058.5	177.7
1051.0682	3221.4701	1062	178.05
1051.1701	3222.3922	1059.95	177.85
1051.2719	3223.3137	1061.4	181.3
1051.3737	3224.2346	1054.7	173.25
1051.4754	3225.1549	1055.85	173.65
1051.5771	3226.0746	1052.9	172.45
1051.6788	3226.9937	1050.55	170.45
1051.7804	3227.9121	1057.6	176.9
1051.8819	3228.83	1051.75	169.8
1051.9834	3229.7473	1053.8	171.35
1052.0849	3230.6639	1049.35	169.05
1052.1863	3231.5799	1045.25	162.4
1052.2876	3232.4954	1046.55	165.4
1052.3889	3233.4102	1048.65	167.95
1052.4902	3234.3244	1046.65	168.7
1052.5914	3235.238	1046	163.25
1052.6926	3236.151	1066.85	157.55
1052.7937	3237.0634	1041.95	160.7
1052.8948	3237.9752	1038.5	155.6
1052.9958	3238.8864	1037.45	157
1053.0968	3239.797	1040.15	160.5
1053.1977	3240.7069	1039.1	156.95
1053.2986	3241.6163	1042.9	160.5
1053.3994	3242.5251	1034.15	153.6
1053.5002	3243.4332	1035.1	156.8
1053.6009	3244.3408	1036.5	153.4
1053.7016	3245.2477	1032.95	152.65
1053.8022	3246.154	1034.65	153.45
1053.9028	3247.0598	1033.35	151.9
1054.0034	3247.9649	1032.45	151.1
1054.1039	3248.8694	1032.25	152.1
1054.2043	3249.7733	1028.15	147.5
1054.3047	3250.6766	1025.95	145.3
1054.4051	3251.5793	1024.95	139.7
1054.5054	3252.4814	1022.4	141.5
1054.6056	3253.3829	1021.35	139.45
1054.7058	3254.2838	1022.25	141.95
1054.806	3255.1841	1022.8	140.25
1054.9061	3256.0838	1023.7	142.95
1055.0061	3256.9829	1018.2	138
1055.1062	3257.8814	1020.7	137.3
1055.2061	3258.7792	1021.3	138.75
1055.306	3259.6765	1018.9	136.25
1055.4059	3260.5731	1011.15	128.15
1055.5057	3261.4692	1016.05	133.9
1055.6055	3262.3647	1011.2	129.85
1055.7052	3263.2595	1010.8	131.2
1055.8049	3264.1538	1009.1	129.65
1055.9045	3265.0474	1008.55	126.3
1056.0041	3265.9404	999.85	120.5
1056.1036	3266.8329	1002.5	121.1
1056.2031	3267.7247	1009.45	117.7
1056.3025	3268.616	994.85	115.2
1056.4019	3269.5066	994.85	113.95
1056.5013	3270.3966	993.55	110
1056.6005	3271.286	988.1	109.05
