Software Version:	3.9.2.0
Unit SN:	10000200
Spectrometer SN:	6960
Date:	3/26/2024 2:30:58 PM
Data Line Index:	25
Spectral Points:	2048
Integration time (ms):	125
Averages:	20
Delay (ms):	30000
Sequence Number:	1
Processing:	dark subtract
Laser Power (mW):	305
Laser Current (mA):	818
Laser Diode Temp (C):	25
Laser Case Temp (C):	27.8
System Temp (C):	27.8
Spectrometer Temp (C):	25.7
CCD Temp (C):	0.007
Secondary Temp (C):	20.004
Heatsink Temp (C):	23.453
CCDPCB Temp (C):	37.207
SecondaryPCB Temp (C):	34.651

Wavelength	RamanShift	Raw Counts	Dark Subtracted
787.061	30.1047	665.95	253.7
787.2016	32.3739	675.95	266.65
787.3422	34.6426	694.6	282.05
787.4828	36.9109	709.6	297.7
787.6235	39.1787	740.2	324.25
787.7642	41.4461	762	340.8
787.9049	43.7131	789.9	367.05
788.0456	45.9796	813.5	386.5
788.1863	48.2456	839.7	408.3
788.3271	50.5112	878.1	443.3
788.4679	52.7764	899	460.45
788.6087	55.0411	939.35	498.05
788.7496	57.3054	966.85	519.95
788.8904	59.5692	1010.65	560.5
789.0313	61.8326	1047.45	593.05
789.1722	64.0955	1085.15	628.35
789.3132	66.3579	1143.9	681.9
789.4541	68.6199	1202.85	740.2
789.5951	70.8815	1309.25	839.35
789.7361	73.1426	1528.65	1056.25
789.8771	75.4032	2079.15	1599.65
790.0181	77.6634	3442.45	2958.25
790.1592	79.9231	6922.8	6428.9
790.3003	82.1824	14861.9	14351.35
790.4414	84.4412	34988.6	34444.4
790.5825	86.6995	62883.65	62294.55
790.7237	88.9574	65535	64900.85
790.8648	91.2148	65535	64874.15
791.006	93.4717	65535	64848.75
791.1472	95.7282	65535	64845.15
791.2885	97.9842	65535	64836.1
791.4297	100.2398	65535	64835.55
791.571	102.4949	65535	64830.7
791.7123	104.7495	65535	64831.85
791.8536	107.0036	65535	64827.9
791.9949	109.2573	65535	64832.2
792.1363	111.5105	65535	64824.1
792.2777	113.7632	65535	64823.5
792.4191	116.0154	65535	64810.7
792.5605	118.2672	65535	64824.2
792.7019	120.5185	65535	64817
792.8434	122.7693	65535	64815.35
792.9849	125.0197	65535	64813.1
793.1264	127.2696	65535	64810.5
793.2679	129.519	65535	64805.25
793.4094	131.7679	65535	64797.05
793.551	134.0163	65535	64797.95
793.6926	136.2642	65535	64798.9
793.8342	138.5117	65535	64793.9
793.9758	140.7587	65535	64790.05
794.1175	143.0052	65535	64790.85
794.2591	145.2512	65535	64788.15
794.4008	147.4967	65535	64792.35
794.5425	149.7417	65535	64785.8
794.6842	151.9863	65535	64782.65
794.826	154.2304	65535	64774.8
794.9677	156.4739	65535	64778.55
795.1095	158.717	65535	64774.95
795.2513	160.9596	65535	64767.15
795.3931	163.2017	65535	64768
795.535	165.4433	65535	64765.2
795.6768	167.6844	65535	64768.1
795.8187	169.925	65535	64763
795.9606	172.1651	65535	64760.95
796.1025	174.4047	65535	64760.1
796.2445	176.6439	65535	64754.65
796.3864	178.8825	65535	64750.65
796.5284	181.1206	65535	64750.35
796.6704	183.3582	65535	64744.7
796.8124	185.5954	65535	64746.15
796.9544	187.832	65535	64739
797.0965	190.0681	65535	64737.8
797.2386	192.3037	65535	64734.1
797.3806	194.5388	65535	64731.3
797.5228	196.7734	65535	64726.55
797.6649	199.0075	65535	64725.1
797.807	201.2411	65535	64721.4
797.9492	203.4742	65535	64720.95
798.0914	205.7068	65535	64720.85
798.2336	207.9389	65535	64722.1
798.3758	210.1704	65535	64720.35
798.518	212.4015	65535	64721.4
798.6603	214.632	65535	64719.7
798.8025	216.862	65535	64729.1
798.9448	219.0915	65535	64735.4
799.0871	221.3205	65535	64735.15
799.2294	223.549	65535	64737.2
799.3718	225.777	65535	64740.2
799.5141	228.0044	65535	64737.95
799.6565	230.2314	65535	64739.5
799.7989	232.4578	65535	64736.55
799.9413	234.6837	65535	64729.25
800.0837	236.909	65535	64727.05
800.2262	239.1339	65535	64703
800.3687	241.3582	65535	64719.55
800.5111	243.582	65535	64685.8
800.6536	245.8053	65535	64699.85
800.7961	248.0281	65535	64702.9
800.9387	250.2503	65535	64694.15
801.0812	252.472	65535	64692.8
801.2238	254.6932	65535	64692.95
801.3664	256.9139	65535	64694.85
801.509	259.134	65535	64686.85
801.6516	261.3536	65535	64688.55
801.7942	263.5727	65535	64688.5
801.9369	265.7912	65535	64691.95
802.0795	268.0092	65535	64689.25
802.2222	270.2267	65535	64688.45
802.3649	272.4436	65535	64689.6
802.5076	274.6601	65535	64682.4
802.6504	276.8759	65535	64686.45
802.7931	279.0913	65535	64684.3
802.9359	281.3061	65535	64683.55
803.0787	283.5204	65535	64678.1
803.2215	285.7341	65535	64672.45
803.3643	287.9473	65535	64663.45
803.5071	290.16	65535	64671.75
803.6499	292.3721	65535	64677
803.7928	294.5837	65535	64675.75
803.9357	296.7947	65535	64674.75
804.0786	299.0052	65535	64674.55
804.2215	301.2152	65535	64672.35
804.3644	303.4246	65535	64680.35
804.5074	305.6334	65535	64681.3
804.6503	307.8418	65535	64674.35
804.7933	310.0495	65535	64670.6
804.9363	312.2568	65535	64673.85
805.0793	314.4635	65535	64670.15
805.2223	316.6696	65535	64669.25
805.3653	318.8752	65535	64658.05
805.5084	321.0802	65535	64665.2
805.6514	323.2847	65535	64661.95
805.7945	325.4887	65535	64666.4
805.9376	327.692	65535	64662.65
806.0807	329.8949	65535	64663.4
806.2238	332.0972	65535	64659.4
806.367	334.2989	65535	64662.6
806.5101	336.5001	65535	64657.7
806.6533	338.7007	65535	64657.5
806.7965	340.9008	65535	64655.8
806.9397	343.1003	65535	64658.2
807.0829	345.2992	65535	64651.8
807.2261	347.4976	65535	64650.25
807.3693	349.6955	65535	64646.35
807.5126	351.8927	65535	64648.1
807.6559	354.0895	65535	64633.75
807.7991	356.2856	65535	64650
807.9424	358.4812	65535	64650.65
808.0857	360.6763	65535	64646.65
808.2291	362.8707	65535	64643.35
808.3724	365.0646	65535	64646.6
808.5158	367.258	65535	64643.4
808.6591	369.4508	65535	64638.9
808.8025	371.643	65535	64636.55
808.9459	373.8346	65535	64635.75
809.0893	376.0257	65535	64633.2
809.2327	378.2162	65535	64634.3
809.3762	380.4062	65535	64632.35
809.5196	382.5956	65535	64635
809.6631	384.7844	65535	64635.55
809.8066	386.9726	65535	64632.55
809.9501	389.1603	65535	64640.15
810.0936	391.3474	65535	64597
810.2371	393.5339	65535	64641.4
810.3806	395.7199	65535	64637
810.5241	397.9052	65535	64646.8
810.6677	400.09	65535	64641.85
810.8113	402.2743	65535	64646.2
810.9548	404.4579	65535	64644.6
811.0984	406.641	65535	64640.4
811.2421	408.8235	65535	64640.1
811.3857	411.0054	65535	64644
811.5293	413.1868	65535	64637.15
811.673	415.3675	65535	64634.55
811.8166	417.5477	65535	64634.25
811.9603	419.7273	65535	64634.3
812.104	421.9064	65535	64624.65
812.2477	424.0848	65535	64632.5
812.3914	426.2627	65535	64627.45
812.5351	428.4399	65535	64628.3
812.6788	430.6166	65535	64623.45
812.8226	432.7928	65535	64625.05
812.9663	434.9683	65535	64626.1
813.1101	437.1432	65535	64626.05
813.2539	439.3176	65535	64627.85
813.3977	441.4914	65535	64633.3
813.5415	443.6645	65535	64631.15
813.6853	445.8371	65535	64627
813.8291	448.0091	65535	64628.15
813.973	450.1806	65535	64633.05
814.1168	452.3514	65535	64630.75
814.2607	454.5216	65535	64622.25
814.4046	456.6913	65535	64621.4
814.5485	458.8603	65535	64627.95
814.6924	461.0288	65535	64629.95
814.8363	463.1967	65535	64637.15
814.9802	465.3639	65535	64634.35
815.1241	467.5306	65535	64627.8
815.2681	469.6967	65535	64631.25
815.412	471.8622	65535	64628.85
815.556	474.0271	65535	64631.4
815.7	476.1914	65535	64624.2
815.844	478.3551	65535	64623.9
815.988	480.5182	65535	64630.45
816.132	482.6807	65535	64638.35
816.276	484.8426	65535	64637.45
816.4201	487.0039	65535	64631.1
816.5641	489.1647	65535	64628.25
816.7082	491.3248	65535	64621.9
816.8522	493.4843	65535	64627.6
816.9963	495.6432	65535	64630.8
817.1404	497.8015	65535	64619.5
817.2845	499.9592	65535	64616.7
817.4286	502.1163	65535	64615.4
817.5727	504.2728	65535	64623.15
817.7168	506.4287	65535	64635.3
817.861	508.5839	65535	64632.45
818.0051	510.7386	65535	64625.8
818.1493	512.8927	65535	64615.75
818.2935	515.0461	65535	64618.85
818.4377	517.199	65535	64619.8
818.5818	519.3512	65535	64615.65
818.726	521.5029	65535	64616.15
818.8703	523.6539	65535	64618.3
819.0145	525.8043	65535	64619.3
819.1587	527.9541	65535	64613
819.303	530.1033	65535	64618
819.4472	532.2519	65535	64613.9
819.5915	534.3999	65535	64612.7
819.7357	536.5472	65535	64620.5
819.88	538.694	65535	64623.75
820.0243	540.8401	65535	64619.1
820.1686	542.9856	65535	64605.3
820.3129	545.1305	65535	64600.6
820.4572	547.2748	65535	64599.5
820.6016	549.4185	65535	64598.2
820.7459	551.5615	65535	64601.35
820.8902	553.704	65535	64599.95
821.0346	555.8458	65535	64607.55
821.1789	557.987	65535	64608.55
821.3233	560.1276	65535	64608.4
821.4677	562.2675	65535	64607.65
821.6121	564.4069	65535	64608.15
821.7565	566.5456	65535	64608.4
821.9009	568.6837	65535	64609.7
822.0453	570.8212	65535	64609.2
822.1897	572.958	65535	64605
822.3342	575.0942	65535	64614.1
822.4786	577.2299	65535	64616.9
822.6231	579.3648	65535	64625.6
822.7675	581.4992	65535	64633.2
822.912	583.6329	65535	64637
823.0565	585.766	65535	64630.15
823.201	587.8985	65535	64625.85
823.3454	590.0304	65535	64593.35
823.4899	592.1616	65535	64609.3
823.6345	594.2922	65535	64606.6
823.779	596.4222	65535	64604.45
823.9235	598.5515	65535	64604.75
824.068	600.6802	65535	64606.7
824.2126	602.8083	65535	64609.7
824.3571	604.9358	65535	64608.35
824.5017	607.0626	65535	64605.45
824.6462	609.1888	65535	64598.85
824.7908	611.3144	65535	64597.75
824.9354	613.4393	65535	64597.95
825.08	615.5636	65535	64598.25
825.2246	617.6873	65535	64603.8
825.3692	619.8103	65535	64597.4
825.5138	621.9327	65535	64600.9
825.6584	624.0544	65535	64608.65
825.803	626.1756	65535	64608.25
825.9477	628.2961	65535	64604.55
826.0923	630.4159	65535	64605.85
826.237	632.5351	65535	64603.05
826.3816	634.6537	65535	64601.35
826.5263	636.7716	65535	64593.95
826.6709	638.8889	65535	64594.95
826.8156	641.0056	65535	64594.8
826.9603	643.1216	65535	64597.9
827.105	645.237	65535	64596.75
827.2497	647.3518	65535	64608.35
827.3944	649.4659	65535	64608.3
827.5391	651.5793	65535	64606.9
827.6838	653.6922	65535	64606.85
827.8285	655.8043	65535	64602.7
827.9733	657.9159	65535	64599.7
828.118	660.0268	65535	64600.7
828.2627	662.137	65535	64598.25
828.4075	664.2466	65535	64593.9
828.5522	666.3556	65535	64596.95
828.697	668.4639	65535	64596.1
828.8418	670.5716	65535	64607.9
828.9865	672.6786	65535	64597.2
829.1313	674.785	65535	64593.75
829.2761	676.8907	65535	64600.6
829.4209	678.9958	65535	64600.8
829.5657	681.1002	65535	64595.75
829.7105	683.204	65535	64591.35
829.8553	685.3072	65535	64596.3
830.0001	687.4097	65535	64596.85
830.1449	689.5115	65535	64593.55
830.2898	691.6127	65535	64595.45
830.4346	693.7132	65535	64598.8
830.5794	695.8131	65535	64581.15
830.7243	697.9123	65535	64587.65
830.8691	700.0109	65535	64592
831.014	702.1089	65535	64596.4
831.1588	704.2061	65535	64596
831.3037	706.3028	65535	64590.2
831.4486	708.3987	65535	64592.25
831.5935	710.4941	65535	64593.45
831.7383	712.5887	65535	64595.45
831.8832	714.6827	65535	64591.55
832.0281	716.7761	65535	64595.7
832.173	718.8688	65535	64594.8
832.3179	720.9608	65535	64586.85
832.4628	723.0522	65535	64587.25
832.6077	725.1429	65535	64591
832.7527	727.233	65535	64590
832.8976	729.3224	65535	64592.1
833.0425	731.4112	65535	64590.2
833.1874	733.4993	65535	64591.55
833.3324	735.5867	65535	64595.1
833.4773	737.6735	65535	64591.6
833.6222	739.7596	65535	64589.2
833.7672	741.845	65535	64594.85
833.9122	743.9298	65535	64589.85
834.0571	746.014	65535	64591.6
834.2021	748.0974	65535	64583.1
834.347	750.1802	65535	64587.5
834.492	752.2624	65535	64584.5
834.637	754.3439	65535	64584.5
834.782	756.4247	65535	64578.7
834.9269	758.5048	65535	64589.3
835.0719	760.5843	65535	64586.8
835.2169	762.6631	65535	64585.2
835.3619	764.7413	65535	64591.2
835.5069	766.8188	65535	64587.4
835.6519	768.8956	65535	64586.1
835.7969	770.9718	65535	64587.2
835.9419	773.0473	65535	64587.35
836.0869	775.1221	65535	64588.45
836.232	777.1962	65535	64584.9
836.377	779.2697	65535	64589.15
836.522	781.3426	65535	64567.8
836.667	783.4147	65535	64588.25
836.8121	785.4862	65535	64587.4
836.9571	787.557	65535	64585.45
837.1021	789.6271	65535	64583.8
837.2472	791.6966	65535	64585.65
837.3922	793.7654	65535	64587.2
837.5373	795.8335	65535	64587.5
837.6823	797.901	65535	64587.95
837.8274	799.9678	65535	64582.75
837.9724	802.0339	65535	64586.95
838.1175	804.0993	65535	64575.95
838.2626	806.1641	65535	64584.55
838.4076	808.2282	65535	64588.2
838.5527	810.2916	65535	64583.95
838.6978	812.3544	65535	64588.35
838.8428	814.4164	65531.65	64585.7
838.9879	816.4778	65532.35	64583
839.133	818.5385	65535	64584.9
839.2781	820.5986	65534.25	64583.4
839.4232	822.658	65534.75	64583.6
839.5682	824.7166	65535	64585.5
839.7133	826.7747	65522.65	64574.7
839.8584	828.832	65526.95	64576.2
840.0035	830.8886	65532.7	64581.65
840.1486	832.9446	65535	64584.4
840.2937	834.9999	65513	64562.7
840.4388	837.0545	65526.65	64569.7
840.5839	839.1085	65535	64586.15
840.729	841.1618	65528.8	64574.85
840.8741	843.2143	65505.6	64551.7
841.0192	845.2662	65503.6	64554.6
841.1643	847.3175	65522.1	64570.3
841.3095	849.368	65463.7	64509.7
841.4546	851.4179	65516.35	64566.75
841.5997	853.467	65472.2	64521.75
841.7448	855.5155	65497.25	64545.2
841.8899	857.5633	65437.5	64485.5
842.0351	859.6105	65415.15	64464.8
842.1802	861.6569	65457.1	64505.85
842.3253	863.7027	65379.4	64430.75
842.4704	865.7478	65396.8	64442.35
842.6156	867.7922	65383.95	64435.15
842.7607	869.8359	65425.3	64475.2
842.9058	871.8789	65353.4	64399.05
843.0509	873.9212	65408.1	64422.95
843.1961	875.9629	65422.65	64471.65
843.3412	878.0039	65398.35	64441.4
843.4863	880.0441	65369.55	64417.15
843.6315	882.0837	65378.65	64426.25
843.7766	884.1226	65363.45	64409.9
843.9218	886.1609	65347	64398.55
844.0669	888.1984	65276.05	64323.05
844.212	890.2352	65357.6	64405.75
844.3572	892.2714	65212.25	64252.45
844.5023	894.3069	65291.25	64337.3
844.6475	896.3416	65199.1	64249.1
844.7926	898.3757	65181.15	64227.55
844.9377	900.4091	64844.05	63888.85
845.0829	902.4418	65252.8	64294.9
845.228	904.4739	65078.25	64121.4
845.3732	906.5052	65095.55	64144.1
845.5183	908.5358	64922.55	63967.65
845.6635	910.5658	64812.95	63857.25
845.8086	912.595	64825.05	63869
845.9538	914.6236	64324	63371
846.0989	916.6515	64990.95	64035.75
846.2441	918.6786	64334.25	63379.65
846.3892	920.7051	64516.15	63562.6
846.5344	922.7309	64380	63423.15
846.6795	924.756	64508.25	63554.05
846.8246	926.7804	64294.15	63338.85
846.9698	928.8041	63691.45	62737.05
847.1149	930.8272	64151.35	63200.15
847.2601	932.8495	64170.35	63217.55
847.4052	934.8711	63706.7	62750.85
847.5504	936.892	63381.15	62425.6
847.6955	938.9123	63550.15	62594.95
847.8407	940.9318	63211.1	62256.85
847.9858	942.9506	63116.9	62164.2
848.131	944.9688	63160.25	62206.45
848.2761	946.9862	62378.05	61421.25
848.4213	949.003	62694.65	61743.1
848.5664	951.019	61948.25	60991.45
848.7115	953.0344	62099.4	61144.9
848.8567	955.0491	61984.95	61031.85
849.0018	957.063	62328.05	61375.35
849.147	959.0763	62358.55	61395.4
849.2921	961.0888	61708.5	60757.95
849.4373	963.1007	62167.8	61217.35
849.5824	965.1119	62179.9	61233.05
849.7275	967.1223	61743.2	60799.1
849.8727	969.1321	62270.2	61330
850.0178	971.1412	61547.6	60602.3
850.1629	973.1495	61270.6	60321.6
850.3081	975.1572	61534.35	60549.85
850.4532	977.1641	61202.2	60249.3
850.5983	979.1704	61079.2	60126.05
850.7435	981.1759	61170.95	60212.75
850.8886	983.1808	60725.5	59774.25
851.0337	985.1849	60805.2	59841.85
851.1788	987.1884	60959.35	60006.8
851.324	989.1911	61352.15	60400.8
851.4691	991.1932	60203.7	59252
851.6142	993.1945	60479.9	59529
851.7593	995.1951	60799.15	59845.35
851.9045	997.1951	60036.9	59078.55
852.0496	999.1943	59842.6	58891.75
852.1947	1001.1928	59602.1	58647.65
852.3398	1003.1906	59711.95	58762.45
852.4849	1005.1877	58837.15	57884.55
852.63	1007.1841	58553.95	57601.1
852.7751	1009.1798	58506	57554
852.9202	1011.1748	58312.55	57360.65
853.0653	1013.1691	58036.9	57084.4
853.2104	1015.1627	56702.15	55749.1
853.3555	1017.1556	56840.45	55890.15
853.5006	1019.1477	56954.5	56001.5
853.6457	1021.1392	56233.45	55289.4
853.7908	1023.1299	55532.3	54590.25
853.9359	1025.12	55842.05	54905.2
854.081	1027.1093	55425.45	54497.35
854.2261	1029.0979	55369.9	54442.2
854.3712	1031.0859	55247.65	54318.5
854.5163	1033.0731	54662.25	53724.4
854.6613	1035.0596	54703.95	53761.4
854.8064	1037.0454	54451	53503.9
854.9515	1039.0304	53926	52977
855.0965	1041.0148	53370.05	52423.2
855.2416	1042.9985	53313.95	52364.15
855.3867	1044.9814	53437.05	52489.7
855.5317	1046.9636	52922.75	51968.55
855.6768	1048.9452	52783	51839.05
855.8219	1050.926	52669.25	51721.3
855.9669	1052.9061	52498.7	51550.25
856.112	1054.8855	52515.65	51569.2
856.257	1056.8642	52121.3	51173.25
856.4021	1058.8421	52066.55	51110.85
856.5471	1060.8194	51901.3	50951.8
856.6921	1062.7959	51706.25	50757.6
856.8372	1064.7717	51695.55	50743.55
856.9822	1066.7469	51469.95	50520.05
857.1272	1068.7213	51394.2	50442.15
857.2723	1070.695	51213.25	50262.1
857.4173	1072.6679	50714.65	49764.3
857.5623	1074.6402	50661.45	49710.65
857.7073	1076.6117	50469.15	49513.95
857.8523	1078.5826	50442.1	49491.45
857.9973	1080.5527	50372.05	49419.15
858.1423	1082.5221	50320.65	49373.9
858.2873	1084.4908	50464.55	49517.5
858.4323	1086.4587	50483.55	49536.95
858.5773	1088.426	50559	49608.85
858.7223	1090.3925	50365.5	49417.5
858.8673	1092.3584	50152.25	49200.55
859.0123	1094.3235	49680	48733.2
859.1573	1096.2879	49434.3	48484.55
859.3022	1098.2515	49269.65	48324
859.4472	1100.2145	49204.25	48257.05
859.5922	1102.1767	49066.05	48115.75
859.7371	1104.1382	49073.85	48127.25
859.8821	1106.099	49080.3	48130.25
860.027	1108.0591	49105.6	48161.3
860.172	1110.0185	49026.4	48078.85
860.3169	1111.9771	49022.8	48080.7
860.4619	1113.9351	48556.1	47608.45
860.6068	1115.8923	48024.3	47075.15
860.7517	1117.8488	47520.85	46570.85
860.8967	1119.8045	47019.55	46076.25
861.0416	1121.7596	46853.2	45900.85
861.1865	1123.7139	46592.75	45646.2
861.3314	1125.6675	46534.3	45589.5
861.4763	1127.6204	46587.55	45640.7
861.6212	1129.5726	46333.55	45385.45
861.7661	1131.524	46309	45359.35
861.911	1133.4748	46253.3	45306.85
862.0559	1135.4248	46101.6	45153.9
862.2008	1137.3741	46070.45	45122.9
862.3457	1139.3226	45952	45004.25
862.4905	1141.2705	45835.95	44889.2
862.6354	1143.2176	45502.75	44551.1
862.7803	1145.164	45428.85	44481.15
862.9251	1147.1097	45283.65	44339.95
863.07	1149.0546	45178.35	44233.15
863.2148	1150.9989	45094.8	44148.3
863.3597	1152.9424	44832.25	43884.25
863.5045	1154.8852	44542.35	43594
863.6493	1156.8272	44307	43361.75
863.7942	1158.7686	44162.95	43207.8
863.939	1160.7092	43852.2	42905.4
864.0838	1162.6491	43616.25	42665.8
864.2286	1164.5883	43689.4	42746.1
864.3734	1166.5267	43667.3	42720.7
864.5182	1168.4644	43688.65	42741.35
864.663	1170.4014	43759.2	42808.15
864.8078	1172.3377	43941.2	42998.15
864.9526	1174.2732	44024.8	43081.45
865.0974	1176.2081	44165.8	43221.2
865.2421	1178.1421	44178.2	43227.65
865.3869	1180.0755	44232.6	43289.05
865.5317	1182.0082	44014.2	43070.8
865.6764	1183.9401	43858.15	42916.8
865.8212	1185.8713	43489.95	42552.95
865.9659	1187.8017	43163.5	42231.45
866.1106	1189.7315	42811.45	41884.85
866.2554	1191.6605	42344.85	41418.95
866.4001	1193.5888	41979.7	41049.35
866.5448	1195.5163	41809.85	40869.85
866.6895	1197.4432	41541.25	40603.35
866.8342	1199.3693	41370.5	40427.4
866.9789	1201.2947	41088.65	40138.1
867.1236	1203.2193	40917	39974.4
867.2683	1205.1432	40865.8	39922
867.413	1207.0664	40793.5	39847.5
867.5576	1208.9889	40732.7	39788.5
867.7023	1210.9106	40629.95	39685.35
867.847	1212.8316	40464.95	39521.45
867.9916	1214.7519	40522.4	39570.5
868.1363	1216.6715	40343.05	39403.25
868.2809	1218.5903	40265.95	39324.8
868.4255	1220.5084	40103.65	39160.85
868.5701	1222.4257	40083.55	39143.45
868.7148	1224.3424	39703.1	38766.85
868.8594	1226.2583	39633.85	38685.95
869.004	1228.1735	39620.5	38677.25
869.1486	1230.0879	39604.05	38661.05
869.2932	1232.0016	39599.35	38660.6
869.4377	1233.9146	39537	38594.65
869.5823	1235.8269	39329.3	38390.05
869.7269	1237.7384	39094.1	38151.95
869.8715	1239.6492	38746.75	37804.8
870.016	1241.5592	38562.6	37620.4
870.1606	1243.4686	38294	37353.75
870.3051	1245.3772	38162.4	37221.65
870.4496	1247.285	37913.6	36974
870.5941	1249.1922	37754.4	36813.8
870.7387	1251.0986	37676.45	36736.35
870.8832	1253.0042	37549.65	36611.7
871.0277	1254.9092	37468.85	36529.35
871.1722	1256.8134	37436.65	36497.95
871.3167	1258.7169	37642.9	36702.1
871.4611	1260.6196	37604.85	36665.45
871.6056	1262.5216	37759.35	36816.7
871.7501	1264.4229	37747.3	36806.6
871.8945	1266.3234	37803.7	36862.6
872.039	1268.2232	37780.1	36835.8
872.1834	1270.1223	37644.2	36701
872.3278	1272.0207	37547.6	36605.95
872.4723	1273.9183	37418.3	36472.1
872.6167	1275.8151	37182.55	36245.3
872.7611	1277.7113	37031.8	36093.2
872.9055	1279.6067	36737.9	35801.55
873.0499	1281.5014	36452.4	35510.65
873.1943	1283.3953	36259.3	35320.1
873.3386	1285.2885	36093.3	35155.25
873.483	1287.181	35923.35	34983.05
873.6274	1289.0727	35891.2	34957.1
873.7717	1290.9637	35820.7	34881.3
873.9161	1292.854	35918.8	34982.3
874.0604	1294.7435	35909.65	34969.1
874.2047	1296.6323	36049.2	35110.6
874.349	1298.5204	36243.75	35302.45
874.4933	1300.4077	36412.55	35473.55
874.6376	1302.2943	36510.55	35570.8
874.7819	1304.1802	36620.75	35685.8
874.9262	1306.0653	36432.5	35491.55
875.0705	1307.9497	36236.1	35300.1
875.2147	1309.8333	36098.15	35163.7
875.359	1311.7162	36011.8	35074.7
875.5032	1313.5984	36050	35107.6
875.6475	1315.4798	36074.9	35124.65
875.7917	1317.3605	36166.9	35212.6
875.9359	1319.2405	36224.8	35285.7
876.0801	1321.1197	36181.45	35240.8
876.2243	1322.9982	36059.25	35120.1
876.3685	1324.876	36071.1	35130.5
876.5127	1326.753	35908.35	34974.05
876.6569	1328.6293	35931.3	34992.3
876.801	1330.5048	35908.35	34966.7
876.9452	1332.3796	35774.95	34839.15
877.0893	1334.2537	35706.9	34746.15
877.2335	1336.127	35548.9	34610.1
877.3776	1337.9996	35469.95	34533.5
877.5217	1339.8714	35278.75	34341.75
877.6658	1341.7426	35157.45	34173.55
877.8099	1343.6129	35022.55	34083.45
877.954	1345.4826	34847.95	33910.1
878.0981	1347.3515	34808.2	33865.3
878.2422	1349.2196	34617.85	33681.35
878.3862	1351.087	34588.35	33651.95
878.5303	1352.9537	34558.65	33618.8
878.6743	1354.8197	34657.7	33718.25
878.8184	1356.6849	34802.3	33862.95
878.9624	1358.5493	34774.15	33834.7
879.1064	1360.4131	34698.25	33761.8
879.2504	1362.276	34512.7	33578.2
879.3944	1364.1383	34210.4	33272.7
879.5384	1365.9998	33903.1	32959.55
879.6823	1367.8606	33514.4	32577
879.8263	1369.7206	33210.15	32273
879.9702	1371.5799	32916.45	31977.15
880.1142	1373.4384	32763.65	31827.7
880.2581	1375.2962	32611.6	31670.05
880.402	1377.1533	32189.95	31257.9
880.5459	1379.0096	31797.95	30864.25
880.6898	1380.8652	31472.45	30541.85
880.8337	1382.7201	31146.25	30215.25
880.9776	1384.5742	30836.55	29901.55
881.1215	1386.4275	30523.1	29584.4
881.2653	1388.2802	30321.4	29384.8
881.4092	1390.132	30177.75	29242.25
881.553	1391.9832	30084.55	29145.85
881.6968	1393.8336	29817.9	28881.75
881.8406	1395.6832	29755.5	28818.35
881.9844	1397.5322	29586.7	28649.45
882.1282	1399.3803	29483	28540
882.272	1401.2278	29291.6	28356
882.4158	1403.0745	29198.4	28262.75
882.5595	1404.9204	29073.85	28140.3
882.7033	1406.7656	29063	28127.3
882.847	1408.6101	28902.7	27968.6
882.9908	1410.4538	28823.5	27889.35
883.1345	1412.2968	28747.95	27812.35
883.2782	1414.139	28660.55	27727.1
883.4219	1415.9805	28684.3	27750.6
883.5656	1417.8213	28611.65	27655.95
883.7092	1419.6613	28703.6	27769.4
883.8529	1421.5006	28854.8	27917.4
883.9965	1423.3391	29014.8	28081.9
884.1402	1425.1769	29265.55	28328.95
884.2838	1427.0139	29764.75	28830.95
884.4274	1428.8502	30269.35	29332.95
884.571	1430.6858	30835.5	29901.85
884.7146	1432.5206	31157.25	30224.15
884.8582	1434.3547	31370.1	30438.55
885.0018	1436.188	31366.8	30434.55
885.1453	1438.0206	31242.4	30309.5
885.2889	1439.8524	30977.6	30042.85
885.4324	1441.6835	30878.1	29942.6
885.5759	1443.5139	30679.8	29743.25
885.7194	1445.3435	30512.2	29580.55
885.8629	1447.1724	30504.6	29573
886.0064	1449.0005	30314.25	29385.15
886.1499	1450.8279	30127	29196.1
886.2933	1452.6545	30078.6	29143.75
886.4368	1454.4804	30086.55	29156.4
886.5802	1456.3056	30015.35	29075.35
886.7237	1458.13	29870.45	28940
886.8671	1459.9536	29622.35	28690.05
887.0105	1461.7766	29180.8	28251.3
887.1539	1463.5987	28659.75	27726.85
887.2972	1465.4202	28215	27282
887.4406	1467.2409	27772.7	26842.05
887.584	1469.0608	27503.5	26570.65
887.7273	1470.88	27177.75	26247.05
887.8706	1472.6984	26921.5	25993.45
888.0139	1474.5161	26636.35	25701.45
888.1572	1476.3331	26428.35	25498
888.3005	1478.1493	26248.15	25315.05
888.4438	1479.9648	26102.45	25169.15
888.5871	1481.7795	25951.5	25019.95
888.7303	1483.5935	25831.6	24899.5
888.8736	1485.4067	25737.9	24805.35
889.0168	1487.2192	25637	24705.75
889.16	1489.031	25596.05	24661
889.3032	1490.842	25463.7	24533.7
889.4464	1492.6522	25443.5	24511.2
889.5896	1494.4618	25332.45	24402.45
889.7327	1496.2705	25245.35	24315.25
889.8759	1498.0785	25171.95	24238.95
890.019	1499.8858	25113.35	24185.4
890.1622	1501.6924	24995.25	24065.85
890.3053	1503.4981	24970.3	24038.15
890.4484	1505.3032	24898.35	23967.95
890.5914	1507.1075	24830.4	23898.35
890.7345	1508.911	24730.1	23800.7
890.8776	1510.7138	24627.9	23698.25
891.0206	1512.5159	24536.55	23606.05
891.1637	1514.3172	24405.2	23477.65
891.3067	1516.1178	24280.7	23350.25
891.4497	1517.9176	24267.25	23337.8
891.5927	1519.7166	24138	23212.45
891.7357	1521.515	24056.45	23121.15
891.8786	1523.3126	24003.2	23073.45
892.0216	1525.1094	23895.45	22964.5
892.1645	1526.9055	23840.35	22912.85
892.3074	1528.7008	23731.25	22801.85
892.4503	1530.4954	23572.8	22638.4
892.5932	1532.2893	23529.85	22606.55
892.7361	1534.0824	23393.35	22462.2
892.879	1535.8747	23422.9	22498
893.0218	1537.6663	23271.2	22345.8
893.1647	1539.4572	23200.35	22271.75
893.3075	1541.2473	23120.6	22195.35
893.4503	1543.0367	23057.35	22135.25
893.5931	1544.8253	22946.85	22017.9
893.7359	1546.6132	22945.4	22017.45
893.8787	1548.4003	22817.4	21884.45
894.0214	1550.1867	22778.75	21847.35
894.1642	1551.9723	22734.2	21805.6
894.3069	1553.7572	22686.45	21762.2
894.4496	1555.5414	22661.4	21738.8
894.5923	1557.3247	22657.8	21737.95
894.735	1559.1074	22617.5	21701.1
894.8777	1560.8893	22588.9	21671.05
895.0204	1562.6705	22539.45	21617.75
895.163	1564.4509	22582.7	21663.7
895.3056	1566.2305	22562.1	21646.9
895.4482	1568.0094	22669.25	21755.4
895.5908	1569.7876	22744.55	21824.75
895.7334	1571.565	22755.75	21835.45
895.876	1573.3417	22778.45	21861.35
896.0186	1575.1176	22721.95	21806.25
896.1611	1576.8928	22626.5	21708.85
896.3036	1578.6672	22500.75	21593.2
896.4461	1580.4409	22316.4	21408.65
896.5886	1582.2138	22139.8	21227.7
896.7311	1583.986	21951	21038.45
896.8736	1585.7575	21831.45	20915.45
897.0161	1587.5282	21655.6	20742.95
897.1585	1589.2981	21568.4	20657.3
897.3009	1591.0673	21409.7	20502.5
897.4433	1592.8358	21410.3	20498
897.5857	1594.6035	21293.85	20378.45
897.7281	1596.3704	21228.7	20311.4
897.8705	1598.1366	21175.75	20261.6
898.0128	1599.9021	21130	20218
898.1551	1601.6668	21094.15	20179.3
898.2975	1603.4308	21073.75	20156.75
898.4398	1605.194	21110.15	20193.85
898.5821	1606.9564	21141.7	20235.45
898.7243	1608.7182	21153.8	20246.15
898.8666	1610.4791	21279.7	20378.05
899.0088	1612.2394	21286.4	20385.85
899.1511	1613.9988	21414.9	20511.5
899.2933	1615.7576	21595.7	20690.05
899.4355	1617.5156	21821.2	20901.4
899.5776	1619.2728	22062.5	21148.05
899.7198	1621.0293	22227.35	21315.9
899.862	1622.785	22209.15	21300.25
900.0041	1624.54	22063.5	21155.35
900.1462	1626.2942	21860.45	20953.25
900.2883	1628.0477	21544.4	20634.35
900.4304	1629.8005	21264.75	20351.95
900.5725	1631.5525	20980	20076.75
900.7145	1633.3037	20684.3	19778.45
900.8566	1635.0542	20510.9	19604.35
900.9986	1636.804	20338.85	19430.05
901.1406	1638.553	20227.05	19275.2
901.2826	1640.3013	20038.05	19130.95
901.4245	1642.0488	19964.95	19056.4
901.5665	1643.7955	19872.15	18967.1
901.7085	1645.5416	19851.1	18945.15
901.8504	1647.2868	19882.05	18974.25
901.9923	1649.0313	19848.9	18941.15
902.1342	1650.7751	19954.55	19043.95
902.2761	1652.5181	20076.8	19170.95
902.4179	1654.2604	20262.7	19358.95
902.5598	1656.0019	20507	19603
902.7016	1657.7427	20849.7	19946.3
902.8434	1659.4828	21156.5	20249.5
902.9852	1661.222	21367.8	20459.1
903.127	1662.9606	21416.95	20510.15
903.2687	1664.6984	21233.35	20321.2
903.4105	1666.4354	20878.3	19966.65
903.5522	1668.1717	20372.45	19462.4
903.6939	1669.9072	19849.2	18939.15
903.8356	1671.642	19492.35	18578.65
903.9773	1673.3761	19173.15	18264.6
904.119	1675.1094	18889.65	17981.15
904.2606	1676.8419	18627.25	17720.55
904.4022	1678.5737	18455.15	17546.75
904.5439	1680.3048	18304.9	17395.35
904.6855	1682.0351	18126.45	17215.25
904.827	1683.7646	18033.95	17121.75
904.9686	1685.4934	17946.8	17041.3
905.1101	1687.2215	17814.55	16907.95
905.2517	1688.9488	17708.1	16804.85
905.3932	1690.6754	17648.8	16744
905.5347	1692.4012	17599.7	16693.15
905.6761	1694.1263	17510.25	16602.4
905.8176	1695.8506	17455.3	16547.15
905.9591	1697.5742	17428.25	16524.45
906.1005	1699.297	17314.75	16413.3
906.2419	1701.0191	17185.5	16282.5
906.3833	1702.7404	17135.5	16232.85
906.5246	1704.461	16997.6	16091.9
906.666	1706.1808	16980.15	16077.05
906.8073	1707.8999	16899.55	15995.35
906.9487	1709.6182	16855.65	15956.15
907.09	1711.3358	16777.8	15878.5
907.2313	1713.0527	16730.9	15832.15
907.3725	1714.7688	16638.95	15735.65
907.5138	1716.4841	16592.6	15689.45
907.655	1718.1987	16574.4	15667.05
907.7962	1719.9126	16500.4	15601.8
907.9374	1721.6257	16431.55	15532.3
908.0786	1723.338	16385.25	15488.3
908.2198	1725.0496	16276.85	15376.45
908.3609	1726.7605	16268.5	15365.9
908.502	1728.4706	16190.9	15291.1
908.6431	1730.18	16096.05	15196.25
908.7842	1731.8886	16032.4	15135.8
908.9253	1733.5964	16028.65	15109.6
909.0664	1735.3036	16002.9	15102.25
909.2074	1737.0099	15949.1	15051.2
909.3484	1738.7156	15909.85	15013
909.4894	1740.4204	15807.4	14905.05
909.6304	1742.1246	15815.85	14913.55
909.7714	1743.8279	15752.15	14852.45
909.9123	1745.5306	15732.3	14835.6
910.0532	1747.2325	15680.35	14783.15
910.1941	1748.9336	15641.6	14741.15
910.335	1750.634	15537.85	14636
910.4759	1752.3336	15536.9	14637.6
910.6168	1754.0325	15502.9	14607.8
910.7576	1755.7307	15424.55	14527.1
910.8984	1757.4281	15452.65	14554
911.0392	1759.1247	15413	14504.65
911.18	1760.8206	15364.6	14457.5
911.3208	1762.5158	15340.25	14432.4
911.4615	1764.2102	15250.2	14350.35
911.6022	1765.9039	15208.8	14310.5
911.7429	1767.5968	15162.15	14267.15
911.8836	1769.289	15111.95	14214.05
912.0243	1770.9804	15064.45	14164.85
912.1649	1772.6711	15033.85	14130.35
912.3056	1774.361	15013.1	14112.35
912.4462	1776.0502	14979.65	14081.45
912.5868	1777.7386	14920.7	14019.75
912.7274	1779.4263	14889.35	13991.2
912.8679	1781.1132	14849.7	13954.15
913.0084	1782.7994	14813.35	13917.05
913.149	1784.4849	14764.85	13871.15
913.2895	1786.1696	14716.3	13805.1
913.4299	1787.8535	14691.95	13796.45
913.5704	1789.5367	14637.95	13744.25
913.7108	1791.2192	14613.3	13719.25
913.8513	1792.9009	14586	13662.9
913.9917	1794.5818	14521.15	13619.65
914.132	1796.2621	14473.6	13577.05
914.2724	1797.9415	14412.8	13515.15
914.4128	1799.6202	14418.6	13521.35
914.5531	1801.2982	14349.5	13452.5
914.6934	1802.9755	14337.75	13436.6
914.8337	1804.6519	14294.15	13395.45
914.9739	1806.3277	14237.95	13344.3
915.1142	1808.0027	14195.1	13303.3
915.2544	1809.6769	14203.95	13310.7
915.3946	1811.3504	14151.75	13257.35
915.5348	1813.0231	14099.45	13206.25
915.675	1814.6951	14067.75	13173.5
915.8151	1816.3664	14096.6	13196.25
915.9553	1818.0369	14033.85	13136.7
916.0954	1819.7067	13966.1	13068.5
916.2355	1821.3757	13940.6	13041.25
916.3755	1823.044	13915.65	13019.6
916.5156	1824.7115	13904.3	13005.6
916.6556	1826.3783	13804.15	12907.65
916.7956	1828.0443	13765	12869.3
916.9356	1829.7096	13741.75	12841.6
917.0756	1831.3741	13706.65	12807.6
917.2155	1833.0379	13689.6	12794.15
917.3555	1834.701	13631.8	12736.25
917.4954	1836.3633	13618.35	12725.45
917.6353	1838.0248	13591.75	12694.7
917.7751	1839.6856	13552.45	12656.75
917.915	1841.3457	13551.85	12655.9
918.0548	1843.005	13497.65	12601.75
918.1946	1844.6636	13482.6	12586.45
918.3344	1846.3214	13453.85	12557.7
918.4742	1847.9785	13443.25	12547.25
918.6139	1849.6349	13396.8	12498.9
918.7537	1851.2904	13368.85	12462.4
918.8934	1852.9453	13324.55	12427.95
919.0331	1854.5994	13271.8	12373.85
919.1727	1856.2528	13292.4	12388.85
919.3124	1857.9054	13244.5	12346.7
919.452	1859.5572	13233	12338.6
919.5916	1861.2083	13213.2	12317.05
919.7312	1862.8587	13172.75	12274.7
919.8708	1864.5084	13150.35	12252.35
920.0103	1866.1572	13096.3	12197.9
920.1498	1867.8054	13042	12143.5
920.2893	1869.4528	13015.85	12117.9
920.4288	1871.0994	12961.95	12062.65
920.5683	1872.7453	12942.1	12044.45
920.7077	1874.3905	12925.3	12011.15
920.8471	1876.0349	12853.7	11957.6
920.9865	1877.6786	12875.4	11977.3
921.1259	1879.3215	12850.4	11951
921.2653	1880.9637	12821.4	11921.85
921.4046	1882.6051	12808.75	11912
921.5439	1884.2458	12753.6	11857.85
921.6832	1885.8858	12707.95	11812.4
921.8225	1887.525	12707.15	11810.9
921.9617	1889.1634	12653.4	11755.7
922.101	1890.8011	12589.15	11692.25
922.2402	1892.4381	12557.25	11659.75
922.3794	1894.0743	12541.3	11645.05
922.5185	1895.7098	12502.8	11607
922.6577	1897.3446	12491.85	11595.9
922.7968	1898.9786	12442.55	11543.65
922.9359	1900.6118	12421.65	11528.95
923.075	1902.2443	12323.9	11426.55
923.214	1903.8761	12331.55	11434.95
923.3531	1905.5071	12261.5	11363.65
923.4921	1907.1374	12229.05	11332.95
923.6311	1908.7669	12206.35	11313.25
923.77	1910.3957	12189	11293.1
923.909	1912.0237	12133.4	11238.45
924.0479	1913.651	12088.4	11190.45
924.1868	1915.2776	12033.95	11138.4
924.3257	1916.9034	11997.05	11102.5
924.4646	1918.5285	11948.5	11055.05
924.6034	1920.1528	11894.4	10999.85
924.7422	1921.7764	11907.45	11010.6
924.881	1923.3992	11864.15	10969.8
925.0198	1925.0213	11762.8	10869.05
925.1586	1926.6427	11729.3	10835.25
925.2973	1928.2633	11755.85	10791.75
925.436	1929.8832	11695	10796.65
925.5747	1931.5023	11618.5	10725.9
925.7134	1933.1207	11584.35	10686.8
925.852	1934.7383	11551.9	10656.65
925.9906	1936.3552	11504.75	10608
926.1292	1937.9714	11486.4	10591.75
926.2678	1939.5868	11435.45	10540.3
926.4064	1941.2015	11388.25	10492.5
926.5449	1942.8154	11352.85	10458.85
926.6834	1944.4286	11297.8	10402.8
926.8219	1946.041	11275.5	10357.3
926.9604	1947.6528	11179.5	10280.2
927.0988	1949.2637	11171.3	10277
927.2372	1950.8739	11140.45	10246.75
927.3756	1952.4834	11101.05	10207.9
927.514	1954.0921	11105.75	10209.8
927.6523	1955.7001	11079.3	10182.35
927.7907	1957.3074	10996.4	10103.3
927.929	1958.9139	10968.55	10077.3
928.0673	1960.5197	10953.05	10060.45
928.2055	1962.1247	10871.9	9979.35
928.3438	1963.729	10826.45	9935.6
928.482	1965.3325	10795.6	9880.15
928.6202	1966.9353	10786.4	9896.05
928.7584	1968.5374	10761.2	9868.4
928.8965	1970.1387	10702.55	9811.05
929.0346	1971.7393	10669.65	9777.3
929.1727	1973.3392	10644.05	9752.45
929.3108	1974.9383	10590.25	9701
929.4489	1976.5366	10566.95	9676.85
929.5869	1978.1342	10537.95	9642.8
929.7249	1979.7311	10510.35	9619.5
929.8629	1981.3273	10469.9	9579.5
930.0009	1982.9227	10427.8	9537.4
930.1388	1984.5173	10369.45	9482.05
930.2767	1986.1112	10362.3	9472.3
930.4146	1987.7044	10340.1	9451.85
930.5525	1989.2968	10305.15	9415.3
930.6904	1990.8885	10290.75	9398.15
930.8282	1992.4795	10271.9	9381.8
930.966	1994.0697	10208.1	9321.35
931.1038	1995.6592	10177.55	9289.1
931.2415	1997.2479	10152.9	9261.65
931.3793	1998.8359	10138.5	9249.15
931.517	2000.4232	10093.15	9207
931.6547	2002.0097	10060.6	9177.9
931.7923	2003.5955	9993.9	9107.5
931.93	2005.1805	9974.6	9089.4
932.0676	2006.7648	9961.45	9074.1
932.2052	2008.3484	9921.4	9034.05
932.3427	2009.9312	9920.45	9030.65
932.4803	2011.5133	9868.6	8984.25
932.6178	2013.0946	9827.8	8941.9
932.7553	2014.6752	9802.7	8915.8
932.8928	2016.2551	9825.2	8936.8
933.0302	2017.8342	9749.75	8864.15
933.1676	2019.4126	9725.7	8839.2
933.305	2020.9902	9707.25	8822.7
933.4424	2022.5672	9679.65	8793.05
933.5798	2024.1433	9642.7	8752.4
933.7171	2025.7188	9598.45	8715.6
933.8544	2027.2935	9587.75	8700.65
933.9917	2028.8674	9548.05	8664.2
934.129	2030.4406	9523.8	8640.05
934.2662	2032.0131	9479.9	8596.25
934.4034	2033.5849	9454.45	8567.3
934.5406	2035.1559	9453.85	8568.1
934.6778	2036.7261	9431.4	8543.8
934.8149	2038.2957	9407.9	8520.7
934.952	2039.8645	9380.3	8493.35
935.0891	2041.4325	9406.05	8516.95
935.2262	2042.9998	9337.95	8452.25
935.3632	2044.5664	9302.85	8415.65
935.5002	2046.1323	9261.55	8375.4
935.6372	2047.6974	9248.35	8364
935.7742	2049.2617	9229.25	8344.8
935.9111	2050.8254	9187.75	8297.2
936.048	2052.3883	9184.85	8297.4
936.1849	2053.9504	9154.75	8267.8
936.3218	2055.5118	9134.75	8247.45
936.4586	2057.0725	9089.45	8200.55
936.5955	2058.6325	9049.55	8164.5
936.7323	2060.1917	9020.75	8136.15
936.869	2061.7502	9019.7	8129.35
937.0058	2063.3079	8986.2	8100.9
937.1425	2064.8649	8942.05	8055.5
937.2792	2066.4212	8933.85	8048.05
937.4159	2067.9767	8910.1	8022.2
937.5525	2069.5315	8872.45	7988
937.6891	2071.0856	8835.2	7948.55
937.8257	2072.6389	8793.35	7909.5
937.9623	2074.1915	8774.3	7890.55
938.0989	2075.7433	8735.3	7847.4
938.2354	2077.2945	8714.1	7829.8
938.3719	2078.8448	8669.95	7783.15
938.5084	2080.3945	8648.2	7761.35
938.6448	2081.9434	8643.8	7756.1
938.7812	2083.4916	8627.1	7738.65
938.9176	2085.039	8571.75	7680.4
939.054	2086.5857	8579.2	7686.9
939.1903	2088.1317	8541.6	7648
939.3267	2089.677	8531.55	7638.3
939.463	2091.2215	8516.1	7620.25
939.5992	2092.7652	8473.05	7577.9
939.7355	2094.3083	8476.1	7582.35
939.8717	2095.8506	8452.85	7562.35
940.0079	2097.3921	8423.9	7535.05
940.1441	2098.933	8387	7498.65
940.2802	2100.4731	8375.95	7487.55
940.4163	2102.0124	8370.35	7473.05
940.5524	2103.5511	8361.45	7471.2
940.6885	2105.089	8338.05	7447.35
940.8245	2106.6261	8301.05	7412.9
940.9606	2108.1626	8288.4	7396.85
941.0965	2109.6983	8285	7369.05
941.2325	2111.2332	8241.3	7350.2
941.3684	2112.7675	8241.75	7350.2
941.5044	2114.301	8204.85	7311.65
941.6403	2115.8337	8182.95	7293.8
941.7761	2117.3657	8153.1	7261.4
941.912	2118.897	8125.1	7233.2
942.0478	2120.4276	8107.05	7208.95
942.1835	2121.9575	8082.2	7189.3
942.3193	2123.4866	8084.4	7178.55
942.455	2125.0149	8055.35	7166.65
942.5907	2126.5426	7988.5	7099.4
942.7264	2128.0695	8008	7116.9
942.8621	2129.5956	7976.35	7093.15
942.9977	2131.1211	7952.65	7062.35
943.1333	2132.6458	7924.35	7035.55
943.2689	2134.1698	7911.15	7020
943.4044	2135.693	7911.3	7017.7
943.54	2137.2155	7882.65	6987.05
943.6755	2138.7373	7849.75	6960.8
943.8109	2140.2584	7835.25	6946.5
943.9464	2141.7787	7806.6	6915.9
944.0818	2143.2983	7759.4	6876.1
944.2172	2144.8171	7703.45	6818.7
944.3526	2146.3353	7705.9	6817.85
944.4879	2147.8527	7673.95	6786.5
944.6232	2149.3693	7685.2	6796.4
944.7585	2150.8853	7682.3	6788.95
944.8938	2152.4005	7636.8	6745.4
945.029	2153.9149	7606.05	6713.85
945.1642	2155.4287	7685.35	6682.35
945.2994	2156.9417	7598.55	6706.6
945.4346	2158.454	7569.95	6680.55
945.5697	2159.9655	7524.4	6638.85
945.7048	2161.4764	7528.9	6641.9
945.8399	2162.9865	7483.3	6595.05
945.9749	2164.4958	7506.35	6617.35
946.1099	2166.0045	7454	6563.05
946.2449	2167.5124	7444.2	6553.45
946.3799	2169.0195	7419.05	6527.8
946.5148	2170.526	7415.3	6524.5
946.6498	2172.0317	7395.4	6504.95
946.7846	2173.5367	7362.55	6471.2
946.9195	2175.0409	7345.7	6457.15
947.0543	2176.5445	7329.95	6441
947.1891	2178.0473	7285.65	6393.15
947.3239	2179.5494	7280.35	6384.9
947.4587	2181.0507	7246.1	6355.9
947.5934	2182.5513	7216.95	6328.25
947.7281	2184.0512	7200.8	6309.95
947.8628	2185.5504	7173.2	6284
947.9974	2187.0488	7154.75	6266.45
948.132	2188.5465	7146.75	6261.7
948.2666	2190.0435	7095.15	6206.2
948.4012	2191.5397	7078.5	6188.85
948.5357	2193.0353	7066.3	6174.7
948.6702	2194.5301	7045.6	6153.2
948.8047	2196.0241	7032.3	6138.25
948.9392	2197.5175	7008	6115.45
949.0736	2199.0101	6991.7	6094.95
949.208	2200.502	6948.9	6057.8
949.3424	2201.9931	6932.45	6043.2
949.4767	2203.4835	6902.9	6015.4
949.611	2204.9733	6882.8	5991.8
949.7453	2206.4622	6870.75	5984
949.8796	2207.9505	6843.75	5955.5
950.0138	2209.438	6797.95	5911.3
950.148	2210.9248	6783.45	5896.2
950.2822	2212.4109	6774.55	5885.05
950.4164	2213.8962	6763	5869.55
950.5505	2215.3809	6752.55	5858.9
950.6846	2216.8648	6728.35	5833.6
950.8186	2218.3479	6695.15	5797.65
950.9527	2219.8304	6691.45	5793.9
951.0867	2221.3121	6658.45	5764.4
951.2207	2222.7931	6636	5744.6
951.3546	2224.2733	6613.1	5720.6
951.4886	2225.7529	6581.65	5690.2
951.6225	2227.2317	6550.1	5656.15
951.7563	2228.7098	6553.9	5664.9
951.8902	2230.1872	6521.5	5635.2
952.024	2231.6638	6506.25	5618.6
952.1578	2233.1397	6482.35	5591.9
952.2916	2234.6149	6467.4	5578.85
952.4253	2236.0894	6444.75	5558.65
952.559	2237.5632	6448.3	5559.9
952.6927	2239.0362	6404.3	5514.2
952.8263	2240.5085	6384.4	5494.45
952.9599	2241.9801	6352.5	5461.1
953.0935	2243.4509	6373.15	5481.1
953.2271	2244.921	6339.75	5446.1
953.3606	2246.3904	6306.25	5410.85
953.4941	2247.8591	6285.15	5392.05
953.6276	2249.3271	6272.55	5381.5
953.7611	2250.7943	6260.15	5367.3
953.8945	2252.2608	6224	5331.05
954.0279	2253.7266	6203.6	5312
954.1612	2255.1917	6203.1	5312.4
954.2946	2256.656	6190.6	5301.3
954.4279	2258.1197	6167.8	5278.9
954.5612	2259.5826	6142.65	5253.4
954.6944	2261.0447	6121.8	5231.45
954.8276	2262.5062	6109.75	5214.2
954.9608	2263.9669	6086.5	5194.35
955.094	2265.4269	6083	5192.35
955.2271	2266.8862	6080.55	5190.7
955.3602	2268.3448	6047	5156.7
955.4933	2269.8026	6048.25	5160.5
955.6264	2271.2598	6037.25	5147.45
955.7594	2272.7162	5994.1	5105.95
955.8924	2274.1719	6005.5	5113.75
956.0253	2275.6268	5982.65	5088.65
956.1583	2277.0811	5980.3	5088.2
956.2912	2278.5346	5957.4	5067.95
956.4241	2279.9874	5939.4	5049.75
956.5569	2281.4395	5922.7	5037.05
956.6897	2282.8908	5900.85	5009
956.8225	2284.3414	5897.85	5006.15
956.9553	2285.7914	5876.65	4986.45
957.088	2287.2406	5864.95	4971.3
957.2207	2288.689	5844.15	4950.4
957.3534	2290.1368	5823.5	4926.45
957.486	2291.5838	5794.1	4895.85
957.6186	2293.0302	5790.4	4893.75
957.7512	2294.4758	5771.8	4879.35
957.8838	2295.9206	5746.8	4852.15
958.0163	2297.3648	5749.85	4860.5
958.1488	2298.8082	5731.8	4838.95
958.2813	2300.251	5721.85	4831.5
958.4137	2301.693	5687.7	4792.4
958.5461	2303.1343	5685.95	4791.9
958.6785	2304.5748	5652.05	4761.85
958.8108	2306.0147	5631.4	4742.05
958.9432	2307.4538	5623.95	4735.15
959.0754	2308.8922	5604.2	4718.25
959.2077	2310.3299	5575.25	4688
959.3399	2311.7669	5569.2	4682
959.4721	2313.2031	5572.05	4680.4
959.6043	2314.6387	5545.3	4653.6
959.7365	2316.0735	5518.95	4627.7
959.8686	2317.5076	5513.4	4621.25
960.0006	2318.941	5482.75	4589.65
960.1327	2320.3737	5472.55	4579.75
960.2647	2321.8056	5466.6	4572.7
960.3967	2323.2369	5450	4558.55
960.5287	2324.6674	5429.65	4537.5
960.6606	2326.0972	5424.95	4533.6
960.7925	2327.5263	5386.95	4494.95
960.9244	2328.9547	5394.6	4500.85
961.0562	2330.3823	5377.45	4483.5
961.1881	2331.8092	5371.05	4474.5
961.3198	2333.2355	5362	4467.45
961.4516	2334.661	5350	4455.4
961.5833	2336.0858	5320.8	4425.7
961.715	2337.5098	5321.95	4428.8
961.8467	2338.9332	5299.3	4407.95
961.9783	2340.3558	5273.45	4379.05
962.1099	2341.7778	5265.3	4376
962.2415	2343.199	5242.5	4350.25
962.373	2344.6195	5220.2	4331.2
962.5045	2346.0393	5220.35	4329.3
962.636	2347.4583	5212.8	4320.95
962.7675	2348.8767	5190.35	4296.35
962.8989	2350.2943	5181.8	4287.5
963.0303	2351.7113	5185.45	4289.65
963.1617	2353.1275	5151.8	4258.25
963.293	2354.543	5151.85	4251.9
963.4243	2355.9578	5127.75	4237.95
963.5556	2357.3718	5098.55	4208.5
963.6868	2358.7852	5093	4202.1
963.818	2360.1978	5056.8	4164.35
963.9492	2361.6098	5062.1	4173.45
964.0803	2363.021	5053.3	4158.35
964.2114	2364.4315	5025.85	4133.95
964.3425	2365.8413	5005.7	4111.2
964.4736	2367.2504	4996	4106.9
964.6046	2368.6587	4958.2	4068.3
964.7356	2370.0664	4940.1	4049.25
964.8666	2371.4733	4938.2	4047.15
964.9975	2372.8795	4916.75	4027.5
965.1284	2374.285	4904.4	4012.6
965.2593	2375.6899	4881.1	3993.35
965.3901	2377.0939	4859.75	3969.9
965.5209	2378.4973	4864.9	3975.1
965.6517	2379.9	4832.75	3941.4
965.7825	2381.3019	4818.75	3928.95
965.9132	2382.7032	4805.05	3916.95
966.0439	2384.1037	4789.5	3904.3
966.1745	2385.5035	4768.7	3880.35
966.3051	2386.9027	4764.75	3877.75
966.4357	2388.3011	4753	3861.6
966.5663	2389.6987	4735.55	3845.8
966.6968	2391.0957	4708.25	3819.2
966.8273	2392.492	4701.95	3814.2
966.9578	2393.8876	4675.3	3787
967.0882	2395.2824	4660.15	3771.95
967.2186	2396.6765	4639.7	3752
967.349	2398.07	4637	3749.75
967.4793	2399.4627	4629.25	3737.1
967.6097	2400.8547	4624.45	3734.45
967.7399	2402.246	4600.6	3706
967.8702	2403.6366	4561.95	3670.85
968.0004	2405.0265	4556.6	3670
968.1306	2406.4156	4560.45	3667.25
968.2607	2407.8041	4539.95	3646.45
968.3909	2409.1918	4518.05	3625.9
968.521	2410.5789	4519.15	3628.55
968.651	2411.9652	4491.4	3596.75
968.781	2413.3508	4487.65	3596.35
968.911	2414.7358	4475.65	3586.6
969.041	2416.12	4449.9	3560.5
969.1709	2417.5035	4449.8	3562.7
969.3008	2418.8863	4418.65	3527.3
969.4307	2420.2684	4404.2	3514.75
969.5606	2421.6497	4391.45	3500
969.6904	2423.0304	4367.55	3477.65
969.8201	2424.4104	4352.55	3462.8
969.9499	2425.7896	4336.7	3444.3
970.0796	2427.1682	4333.95	3443.85
970.2093	2428.546	4335.5	3443.25
970.3389	2429.9232	4308.65	3418.85
970.4685	2431.2996	4315.95	3427.05
970.5981	2432.6753	4303.9	3413.8
970.7277	2434.0503	4298.85	3407.4
970.8572	2435.4246	4277.85	3389.1
970.9867	2436.7982	4259.8	3369.5
971.1161	2438.1711	4247.5	3357.55
971.2456	2439.5433	4244.5	3354.45
971.375	2440.9148	4231.85	3337.45
971.5043	2442.2856	4198.45	3309.2
971.6336	2443.6557	4191.25	3298.8
971.7629	2445.025	4196	3305.2
971.8922	2446.3937	4181.1	3289.35
972.0214	2447.7617	4160.7	3269.75
972.1506	2449.1289	4163.75	3272.35
972.2798	2450.4955	4151.05	3256.9
972.4089	2451.8613	4151.45	3261.7
972.538	2453.2265	4137.55	3246.8
972.6671	2454.5909	4123.65	3234.2
972.7961	2455.9546	4108.85	3219.5
972.9251	2457.3177	4088.5	3199.55
973.0541	2458.68	4071	3178
973.1831	2460.0416	4081.45	3191.45
973.312	2461.4025	4085.75	3194.05
973.4408	2462.7627	4071.3	3169.9
973.5697	2464.1222	4048.05	3159.9
973.6985	2465.4811	4021.8	3132.25
973.8273	2466.8392	4023.25	3136
973.956	2468.1966	4029.75	3136.8
974.0847	2469.5533	4020.25	3126.55
974.2134	2470.9093	4008.75	3119.75
974.3421	2472.2645	3994.7	3103.5
974.4707	2473.6191	3992.2	3103.7
974.5993	2474.973	3978	3087
974.7278	2476.3262	3962.65	3072.4
974.8563	2477.6787	3937.35	3049.55
974.9848	2479.0305	3922.85	3033.9
975.1132	2480.3816	3913.65	3021.3
975.2417	2481.7319	3910.85	3020.45
975.37	2483.0816	3893.4	3000.3
975.4984	2484.4306	3883.75	2994.55
975.6267	2485.7789	3874.05	2983.9
975.755	2487.1264	3849.8	2960.2
975.8833	2488.4733	3844.75	2956.95
976.0115	2489.8195	3842.15	2935.1
976.1397	2491.165	3830.35	2937.8
976.2678	2492.5097	3807.05	2916.3
976.3959	2493.8538	3796.1	2907.05
976.524	2495.1972	3780.9	2892.1
976.6521	2496.5398	3761.7	2869.2
976.7801	2497.8818	3758.45	2865.5
976.9081	2499.2231	3750.15	2857.55
977.036	2500.5637	3733.4	2840.6
977.164	2501.9035	3722.25	2830.65
977.2918	2503.2427	3729.45	2835.55
977.4197	2504.5812	3717.9	2828.5
977.5475	2505.919	3710.4	2818
977.6753	2507.256	3695.8	2805.75
977.8031	2508.5924	3683	2793.15
977.9308	2509.9281	3679.25	2783.3
978.0585	2511.2631	3660	2772.3
978.1861	2512.5974	3649.85	2760
978.3137	2513.9309	3641.8	2751.45
978.4413	2515.2638	3657.05	2739.5
978.5689	2516.596	3637.45	2745.45
978.6964	2517.9275	3613.8	2722.95
978.8239	2519.2583	3604.7	2713.3
978.9513	2520.5884	3593.2	2701.65
979.0788	2521.9178	3582.35	2692.75
979.2062	2523.2465	3569.85	2680.65
979.3335	2524.5745	3557.15	2665.8
979.4608	2525.9018	3555.35	2664.9
979.5881	2527.2284	3540.15	2649.5
979.7154	2528.5543	3535.25	2645.5
979.8426	2529.8796	3532.65	2641.35
979.9698	2531.2041	3516.35	2626.9
980.0969	2532.5279	3505.15	2617.2
980.224	2533.851	3508.2	2618.3
980.3511	2535.1735	3497.9	2607.6
980.4781	2536.4952	3486.55	2595.1
980.6052	2537.8163	3490.4	2597.6
980.7321	2539.1366	3476.65	2586.8
980.8591	2540.4562	3464	2571.5
980.986	2541.7752	3462.7	2571.15
981.1129	2543.0935	3448.05	2556.05
981.2397	2544.411	3453.7	2561.55
981.3665	2545.7279	3432.8	2543.55
981.4933	2547.0441	3438.7	2548.25
981.62	2548.3596	3425.8	2530.9
981.7467	2549.6744	3425.85	2535.35
981.8734	2550.9885	3411.9	2519.65
982.0001	2552.3019	3393.5	2504.05
982.1267	2553.6146	3391.5	2499.6
982.2532	2554.9266	3385.55	2492.55
982.3798	2556.2379	3385.2	2494.05
982.5063	2557.5485	3371.15	2480.4
982.6327	2558.8585	3372.05	2474.4
982.7592	2560.1677	3358	2462.4
982.8856	2561.4762	3343.2	2451.4
983.0119	2562.7841	3345	2454.5
983.1383	2564.0913	3339.05	2449.15
983.2646	2565.3977	3341.25	2451.9
983.3908	2566.7035	3318.8	2427.9
983.517	2568.0086	3312.95	2418.35
983.6432	2569.313	3318.8	2426.35
983.7694	2570.6167	3303.05	2406.8
983.8955	2571.9197	3295.95	2406.25
984.0216	2573.222	3300.7	2405.25
984.1476	2574.5236	3295.15	2402.75
984.2737	2575.8246	3289.2	2396.05
984.3996	2577.1248	3273.4	2379
984.5256	2578.4244	3280.25	2388.15
984.6515	2579.7232	3268.95	2379.4
984.7774	2581.0214	3296.5	2373.3
984.9032	2582.3189	3266.5	2376.15
985.029	2583.6157	3267.45	2371.2
985.1548	2584.9118	3260.65	2369.45
985.2806	2586.2072	3248.25	2358.05
985.4063	2587.5019	3238.8	2347.25
985.5319	2588.7959	3245.05	2352.05
985.6576	2590.0893	3229.3	2334.45
985.7832	2591.3819	3212.85	2322.5
985.9087	2592.6739	3205.15	2313.7
986.0343	2593.9652	3212.85	2321.4
986.1597	2595.2557	3212.3	2321
986.2852	2596.5456	3198.65	2304
986.4106	2597.8348	3197.85	2308.8
986.536	2599.1234	3189.75	2299.3
986.6614	2600.4112	3169.55	2280
986.7867	2601.6983	3174.9	2281.95
986.912	2602.9848	3159.5	2267.05
987.0372	2604.2705	3148.95	2249.9
987.1624	2605.5556	3158.7	2267.9
987.2876	2606.84	3146.7	2255.2
987.4128	2608.1237	3130.05	2236.85
987.5379	2609.4067	3130.4	2236.55
987.6629	2610.689	3133.55	2233.45
987.788	2611.9707	3107.1	2212
987.913	2613.2516	3106.95	2208.85
988.0379	2614.5319	3075.25	2182.65
988.1629	2615.8115	3068.4	2177.45
988.2878	2617.0903	3069.65	2177.5
988.4126	2618.3685	3058.1	2169.2
988.5375	2619.6461	3054.85	2163.85
988.6622	2620.9229	3044.75	2153.05
988.787	2622.199	3038.3	2148.5
988.9117	2623.4745	3036.85	2145.25
989.0364	2624.7493	3032.55	2140.4
989.161	2626.0234	3018.45	2126.8
989.2857	2627.2968	3005.7	2116.85
989.4102	2628.5695	3001.35	2112.15
989.5348	2629.8415	2985.75	2095.05
989.6593	2631.1128	2983.75	2091.85
989.7837	2632.3835	2969.2	2078.8
989.9082	2633.6535	2966.1	2074.35
990.0326	2634.9228	2973.4	2084.15
990.1569	2636.1914	2962.45	2071.75
990.2812	2637.4593	2954.75	2057.6
990.4055	2638.7265	2948.45	2055.55
990.5298	2639.9931	2940.65	2052
990.654	2641.259	2922.85	2031.75
990.7782	2642.5242	2925.35	2034.5
990.9023	2643.7887	2915.5	2023.75
991.0264	2645.0525	2909.95	2020.65
991.1505	2646.3156	2903.3	2008.55
991.2745	2647.5781	2891.55	2002.3
991.3985	2648.8398	2871.65	1979.8
991.5225	2650.1009	2881.15	1984.1
991.6464	2651.3613	2874.5	1982.6
991.7703	2652.6211	2861.9	1971.05
991.8942	2653.8801	2853.85	1964.85
992.018	2655.1385	2860.2	1968
992.1418	2656.3961	2839.85	1949.85
992.2655	2657.6531	2843.4	1953.45
992.3892	2658.9094	2831.65	1940.5
992.5129	2660.1651	2827.6	1937.7
992.6366	2661.42	2827.35	1933.55
992.7602	2662.6743	2819.6	1927.1
992.8837	2663.9279	2828.8	1937.55
993.0073	2665.1808	2817.2	1926.45
993.1307	2666.433	2810.75	1920.4
993.2542	2667.6846	2804.3	1913.35
993.3776	2668.9354	2819.45	1925.85
993.501	2670.1856	2802.15	1911.85
993.6244	2671.4351	2802.45	1914.35
993.7477	2672.6839	2797.55	1907.8
993.8709	2673.9321	2790.7	1900.45
993.9942	2675.1795	2792.1	1902.7
994.1174	2676.4263	2791.5	1899.6
994.2405	2677.6724	2779.05	1888.2
994.3637	2678.9179	2778.5	1887.7
994.4868	2680.1626	2775.3	1886.1
994.6098	2681.4067	2764.85	1875.15
994.7328	2682.6501	2773.15	1883.55
994.8558	2683.8928	2760.15	1869.3
994.9788	2685.1348	2760.55	1870.5
995.1017	2686.3761	2733.3	1844.25
995.2245	2687.6168	2733.45	1842.7
995.3474	2688.8568	2720.15	1829.6
995.4702	2690.0961	2716.8	1827.1
995.5929	2691.3348	2715.7	1826.25
995.7156	2692.5727	2694.25	1803.55
995.8383	2693.81	2685.3	1795.1
995.961	2695.0466	2687.5	1800.1
996.0836	2696.2826	2693	1802.6
996.2062	2697.5178	2697.45	1805.3
996.3287	2698.7524	2681.2	1789.15
996.4512	2699.9863	2684	1791.4
996.5737	2701.2195	2676.75	1788.4
996.6961	2702.452	2674.5	1783.7
996.8185	2703.6839	2668.6	1779.5
996.9408	2704.9151	2659.85	1773.1
997.0631	2706.1456	2660.25	1771.7
997.1854	2707.3755	2667	1778
997.3077	2708.6046	2672.75	1781.25
997.4299	2709.8331	2664.35	1775.8
997.552	2711.0609	2665.15	1776.45
997.6742	2712.2881	2660.75	1769.85
997.7963	2713.5145	2672.4	1779.55
997.9183	2714.7403	2673.75	1785.35
998.0403	2715.9654	2693.15	1802.95
998.1623	2717.1899	2706.3	1803.85
998.2842	2718.4136	2688.8	1801
998.4062	2719.6367	2701.2	1813.4
998.528	2720.8591	2716	1818.25
998.6498	2722.0809	2710.35	1820.6
998.7716	2723.3019	2704.45	1812.1
998.8934	2724.5223	2734.95	1845.3
999.0151	2725.7421	2717.8	1830.45
999.1368	2726.9611	2714.7	1822.65
999.2584	2728.1795	2714.65	1822.1
999.38	2729.3972	2707.35	1818
999.5016	2730.6142	2689.15	1793.7
999.6231	2731.8306	2653.55	1763.75
999.7446	2733.0462	2642.7	1751.35
999.8661	2734.2612	2621.45	1727
999.9875	2735.4756	2609.3	1719.35
1000.1089	2736.6892	2583.75	1693.2
1000.2302	2737.9022	2555.7	1670.3
1000.3515	2739.1145	2551.05	1661.55
1000.4728	2740.3262	2518.5	1621.35
1000.594	2741.5372	2504.4	1615.2
1000.7152	2742.7475	2488.9	1599.9
1000.8363	2743.9571	2479.5	1588.6
1000.9575	2745.1661	2470.9	1577.9
1001.0785	2746.3744	2447.15	1555.9
1001.1996	2747.582	2431.65	1544.65
1001.3206	2748.7889	2421.7	1529.65
1001.4415	2749.9952	2409.95	1524.1
1001.5625	2751.2008	2404.25	1513.5
1001.6833	2752.4057	2404.25	1512.25
1001.8042	2753.61	2383.45	1493.15
1001.925	2754.8136	2385.55	1495.9
1002.0458	2756.0165	2385.95	1497.65
1002.1665	2757.2188	2377.05	1489.45
1002.2872	2758.4204	2381.1	1495.35
1002.4078	2759.6213	2377.65	1484.9
1002.5285	2760.8215	2360.6	1466.2
1002.649	2762.0211	2364.3	1472.6
1002.7696	2763.22	2361	1469.25
1002.8901	2764.4182	2344.15	1453.4
1003.0106	2765.6158	2348.9	1460.8
1003.131	2766.8127	2348.55	1458.95
1003.2514	2768.009	2327.25	1439.85
1003.3717	2769.2045	2317.65	1428.45
1003.492	2770.3994	2311.5	1419.2
1003.6123	2771.5936	2313.2	1424.7
1003.7325	2772.7872	2300.45	1413.15
1003.8527	2773.9801	2304.45	1415.1
1003.9729	2775.1723	2306.4	1400.35
1004.093	2776.3639	2291.35	1402.5
1004.2131	2777.5548	2286.55	1395.8
1004.3331	2778.745	2278.6	1388.7
1004.4531	2779.9346	2287	1398.65
1004.5731	2781.1235	2283.95	1395.25
1004.693	2782.3117	2274.65	1388.3
1004.8129	2783.4992	2278.1	1391.25
1004.9328	2784.6861	2274.3	1383.75
1005.0526	2785.8723	2287.45	1396.95
1005.1723	2787.0579	2282.05	1390.95
1005.2921	2788.2428	2280.75	1392.6
1005.4118	2789.427	2298.2	1411.35
1005.5314	2790.6106	2310.3	1422.35
1005.651	2791.7935	2309.75	1421.3
1005.7706	2792.9757	2311.85	1424.9
1005.8902	2794.1573	2322.75	1433.35
1006.0097	2795.3382	2325.25	1437.55
1006.1291	2796.5184	2330	1444.25
1006.2485	2797.698	2359	1467.4
1006.3679	2798.8769	2369.8	1482.3
1006.4873	2800.0551	2377.25	1490.25
1006.6066	2801.2327	2388.95	1497.6
1006.7258	2802.4096	2397.25	1509.3
1006.8451	2803.5859	2428.8	1539
1006.9642	2804.7615	2436.85	1547.6
1007.0834	2805.9364	2457.45	1570.05
1007.2025	2807.1106	2487.5	1601.05
1007.3216	2808.2842	2512.1	1624.85
1007.4406	2809.4572	2551.25	1663.2
1007.5596	2810.6294	2590	1700.2
1007.6785	2811.801	2614.7	1728.9
1007.7975	2812.972	2656.5	1770.35
1007.9163	2814.1423	2697.4	1809.55
1008.0352	2815.3119	2739.2	1851.75
1008.154	2816.4808	2784.3	1897.7
1008.2727	2817.6491	2841.3	1952.5
1008.3914	2818.8167	2872.8	1986.4
1008.5101	2819.9837	2932.15	2040.45
1008.6288	2821.15	2974.05	2087.1
1008.7474	2822.3157	3012	2127.25
1008.8659	2823.4807	3053.2	2166.95
1008.9844	2824.645	3095.65	2208.9
1009.1029	2825.8086	3127.95	2241.45
1009.2214	2826.9716	3175.65	2291.2
1009.3398	2828.134	3205.55	2317.9
1009.4581	2829.2957	3226.65	2341.05
1009.5764	2830.4567	3269.25	2382.2
1009.6947	2831.617	3298.25	2412.65
1009.813	2832.7767	3292.3	2406.9
1009.9312	2833.9358	3300.05	2413.5
1010.0493	2835.0941	3280.2	2391.4
1010.1675	2836.2519	3275.8	2389.75
1010.2855	2837.4089	3259	2371.25
1010.4036	2838.5653	3248.75	2362.4
1010.5216	2839.7211	3233.85	2347.85
1010.6396	2840.8761	3251.15	2360.95
1010.7575	2842.0306	3278.35	2390.95
1010.8754	2843.1843	3317.9	2431.6
1010.9932	2844.3374	3344.95	2459.8
1011.111	2845.4899	3418.2	2530.25
1011.2288	2846.6417	3487.65	2600.2
1011.3465	2847.7928	3569.05	2681.85
1011.4642	2848.9433	3643.4	2759
1011.5818	2850.0931	3728.1	2843.45
1011.6995	2851.2422	3801.95	2913.35
1011.817	2852.3907	3880.2	2994.1
1011.9345	2853.5385	3944.55	3054.6
1012.052	2854.6857	3993.7	3098.5
1012.1695	2855.8323	4033.85	3147.6
1012.2869	2856.9781	4088.7	3202.2
1012.4042	2858.1233	4124.35	3237.55
1012.5216	2859.2679	4162.8	3275.6
1012.6389	2860.4118	4219.25	3331.9
1012.7561	2861.555	4272.55	3381.65
1012.8733	2862.6976	4297.45	3408.15
1012.9905	2863.8395	4322.8	3438
1013.1076	2864.9808	4336.15	3449.05
1013.2247	2866.1214	4343.55	3456.1
1013.3417	2867.2614	4360.7	3473.75
1013.4587	2868.4007	4386.5	3498.6
1013.5757	2869.5393	4375.95	3489.5
1013.6926	2870.6773	4393.75	3505.8
1013.8095	2871.8146	4406.85	3516.9
1013.9263	2872.9513	4403.9	3514.8
1014.0431	2874.0874	4393.55	3505.65
1014.1599	2875.2227	4387.55	3500.6
1014.2766	2876.3574	4353.8	3467
1014.3933	2877.4915	4325.5	3440.15
1014.51	2878.6249	4308.1	3421.4
1014.6266	2879.7577	4281.5	3394.2
1014.7431	2880.8898	4258.35	3359
1014.8596	2882.0212	4222.45	3336.1
1014.9761	2883.152	4225.4	3340
1015.0925	2884.2821	4214.6	3332.85
1015.2089	2885.4116	4189.15	3303.85
1015.3253	2886.5405	4195.3	3310.25
1015.4416	2887.6686	4202.4	3313.55
1015.5579	2888.7962	4190.4	3306.8
1015.6741	2889.923	4199.65	3314.1
1015.7903	2891.0493	4222	3336.5
1015.9065	2892.1748	4227.65	3341.55
1016.0226	2893.2997	4234.25	3347.95
1016.1387	2894.424	4230.05	3344.55
1016.2547	2895.5476	4253.05	3367.6
1016.3707	2896.6706	4274.65	3386.95
1016.4866	2897.7929	4318.45	3433.65
1016.6025	2898.9145	4317	3429.8
1016.7184	2900.0355	4346.4	3458.3
1016.8342	2901.1559	4399.9	3512.55
1016.95	2902.2756	4444.5	3560.45
1017.0658	2903.3946	4469.95	3586.65
1017.1815	2904.513	4457.15	3568.25
1017.2971	2905.6308	4491.5	3607.85
1017.4127	2906.7479	4523.7	3640.2
1017.5283	2907.8643	4547.4	3661.1
1017.6439	2908.9801	4552.3	3666.45
1017.7594	2910.0953	4558.25	3672.05
1017.8748	2911.2098	4565.2	3675.3
1017.9902	2912.3236	4551.8	3660.1
1018.1056	2913.4368	4528.8	3639.6
1018.2209	2914.5494	4506.95	3618.7
1018.3362	2915.6613	4481.55	3590.85
1018.4515	2916.7725	4445.45	3557.45
1018.5667	2917.8831	4421.2	3534.75
1018.6819	2918.9931	4390.35	3501.95
1018.797	2920.1024	4362.95	3475.3
1018.9121	2921.211	4320.25	3434.95
1019.0271	2922.319	4321.9	3438.15
1019.1421	2923.4264	4286	3399.85
1019.2571	2924.5331	4277.15	3393
1019.372	2925.6391	4259.2	3374.5
1019.4869	2926.7445	4243.4	3359.4
1019.6017	2927.8493	4254.85	3368.85
1019.7165	2928.9534	4229.5	3344.35
1019.8313	2930.0569	4240.75	3352.9
1019.946	2931.1597	4222.05	3335.6
1020.0606	2932.2619	4200.7	3315.25
1020.1753	2933.3634	4183.8	3297.75
1020.2899	2934.4643	4189.85	3299.25
1020.4044	2935.5645	4156.8	3266.55
1020.5189	2936.6641	4116.9	3229.65
1020.6334	2937.763	4061.1	3176.25
1020.7478	2938.8613	4016.85	3130.8
1020.8622	2939.959	3970.3	3078.8
1020.9765	2941.056	3875.9	2990.05
1021.0908	2942.1523	3778.8	2892.65
1021.2051	2943.248	3694.45	2807.6
1021.3193	2944.3431	3598.4	2713.85
1021.4334	2945.4375	3484.05	2598.6
1021.5476	2946.5313	3388.3	2505.35
1021.6617	2947.6244	3286.05	2401.3
1021.7757	2948.7169	3180.75	2294.6
1021.8897	2949.8087	3078.75	2195.2
1022.0037	2950.8999	2991.7	2107.2
1022.1176	2951.9904	2914.5	2029.6
1022.2315	2953.0803	2844.8	1960.35
1022.3453	2954.1696	2766.9	1881.5
1022.4591	2955.2582	2700.6	1817.1
1022.5728	2956.3462	2661.5	1779.05
1022.6865	2957.4335	2624.45	1739.75
1022.8002	2958.5202	2577.75	1689.6
1022.9138	2959.6062	2546.05	1659.8
1023.0274	2960.6916	2523.8	1640.85
1023.141	2961.7764	2507.65	1622.95
1023.2545	2962.8605	2489.15	1603.15
1023.3679	2963.9439	2477.5	1593.9
1023.4813	2965.0267	2460.5	1575.1
1023.5947	2966.1089	2471.6	1562.75
1023.708	2967.1905	2444.5	1558.7
1023.8213	2968.2714	2438.7	1555.1
1023.9346	2969.3516	2429.9	1545.15
1024.0478	2970.4312	2433.55	1544.2
1024.1609	2971.5102	2435.9	1551.6
1024.274	2972.5885	2427.25	1543.6
1024.3871	2973.6662	2435.3	1548.15
1024.5002	2974.7432	2419.15	1535.3
1024.6132	2975.8196	2407.65	1522.75
1024.7261	2976.8954	2405.35	1521.55
1024.839	2977.9705	2387.2	1501.55
1024.9519	2979.045	2371.05	1487.8
1025.0647	2980.1188	2346.45	1462.35
1025.1775	2981.192	2339.7	1455.8
1025.2902	2982.2645	2317.9	1434.65
1025.4029	2983.3364	2273.3	1389.3
1025.5156	2984.4077	2241.05	1356.9
1025.6282	2985.4783	2221.1	1332.75
1025.7407	2986.5483	2179.9	1295.2
1025.8532	2987.6177	2161.05	1276.05
1025.9657	2988.6864	2113.35	1226.9
1026.0782	2989.7545	2085.9	1200.8
1026.1906	2990.8219	2049.25	1164.65
1026.3029	2991.8887	2014.3	1127.85
1026.4152	2992.9548	1977.8	1092.25
1026.5275	2994.0204	1949.95	1067.45
1026.6397	2995.0852	1914.3	1031.75
1026.7519	2996.1495	1893.75	1008.4
1026.864	2997.2131	1866.4	981.4
1026.9761	2998.276	1842.2	957.7
1027.0882	2999.3383	1822.45	936.45
1027.2002	3000.4	1807.7	922.9
1027.3122	3001.4611	1781.7	894.95
1027.4241	3002.5215	1758.75	875.5
1027.536	3003.5812	1746.65	862.05
1027.6478	3004.6404	1745.8	862.15
1027.7596	3005.6989	1734.05	848.4
1027.8714	3006.7567	1714.8	830.8
1027.9831	3007.8139	1728.35	824.5
1028.0947	3008.8705	1704.15	818.7
1028.2064	3009.9264	1717.25	815.35
1028.3179	3010.9818	1686.05	801.35
1028.4295	3012.0364	1685.05	801.5
1028.541	3013.0905	1688.7	804.5
1028.6524	3014.1439	1680.5	796.7
1028.7638	3015.1966	1678.85	794.15
1028.8752	3016.2487	1677.05	792.5
1028.9865	3017.3002	1674.05	782.05
1029.0978	3018.3511	1672.8	789.8
1029.209	3019.4013	1668.5	782.85
1029.3202	3020.4509	1680.7	796.65
1029.4314	3021.4998	1671.75	788
1029.5425	3022.5481	1670.25	785.05
1029.6535	3023.5958	1671.55	788.05
1029.7645	3024.6428	1669.9	785.6
1029.8755	3025.6892	1674.6	789.6
1029.9864	3026.735	1670.4	787.7
1030.0973	3027.7802	1680.25	794.05
1030.2082	3028.8247	1680.6	795.85
1030.319	3029.8685	1671.25	787.8
1030.4297	3030.9118	1681	795.55
1030.5404	3031.9544	1678.9	796.15
1030.6511	3032.9963	1686.7	801.75
1030.7617	3034.0376	1684.85	800.75
1030.8723	3035.0783	1682.3	796.75
1030.9829	3036.1184	1685.45	800.2
1031.0934	3037.1578	1699.75	816.55
1031.2038	3038.1966	1695.2	810
1031.3142	3039.2348	1691.65	808
1031.4246	3040.2723	1698.05	807.05
1031.5349	3041.3092	1691.25	807.2
1031.6452	3042.3455	1690.95	807.15
1031.7554	3043.3811	1677.9	795.15
1031.8656	3044.4161	1671.15	786.5
1031.9758	3045.4505	1665.45	782.4
1032.0859	3046.4842	1654	767.7
1032.1959	3047.5173	1645.45	763.4
1032.3059	3048.5498	1644.8	761.65
1032.4159	3049.5816	1637.2	752.95
1032.5258	3050.6128	1631.6	747.45
1032.6357	3051.6434	1623.15	737.5
1032.7455	3052.6734	1614.7	730.6
1032.8553	3053.7027	1607.35	724.15
1032.9651	3054.7314	1598.4	715.85
1033.0748	3055.7594	1591.75	711.15
1033.1845	3056.7868	1585.75	699.35
1033.2941	3057.8136	1578.5	696.55
1033.4037	3058.8398	1575.05	692.85
1033.5132	3059.8653	1559.9	678.1
1033.6227	3060.8902	1566.8	684.8
1033.7321	3061.9145	1563.1	677.8
1033.8415	3062.9381	1545.2	660.85
1033.9509	3063.9612	1555.05	656.4
1034.0602	3064.9835	1534.15	649.9
1034.1694	3066.0053	1526.1	640.65
1034.2787	3067.0264	1513.2	630.35
1034.3878	3068.0469	1504.6	619.8
1034.497	3069.0668	1511.1	626.1
1034.6061	3070.086	1496.7	613.45
1034.7151	3071.1046	1479.7	595.8
1034.8241	3072.1226	1470.65	586.05
1034.9331	3073.1399	1463.9	581.3
1035.042	3074.1567	1454.45	570.5
1035.1508	3075.1727	1434.45	547.75
1035.2597	3076.1882	1433.1	550.2
1035.3684	3077.203	1422.8	540.4
1035.4772	3078.2173	1410.25	525.45
1035.5859	3079.2308	1398.2	512.55
1035.6945	3080.2438	1392.45	506.35
1035.8031	3081.2561	1385.55	503.35
1035.9117	3082.2678	1371.35	490.05
1036.0202	3083.2789	1367.55	482.75
1036.1286	3084.2893	1360.7	478.35
1036.2371	3085.2991	1360.1	476.65
1036.3454	3086.3083	1351.5	462.75
1036.4538	3087.3169	1343.6	460.25
1036.562	3088.3248	1327.55	440.8
1036.6703	3089.3321	1331.1	444.95
1036.7785	3090.3388	1318.25	437.75
1036.8866	3091.3449	1321.6	439.65
1036.9948	3092.3503	1310.5	423.35
1037.1028	3093.3551	1311.15	431.45
1037.2108	3094.3593	1300.55	417.85
1037.3188	3095.3629	1300.2	417.1
1037.4267	3096.3658	1298.65	415.05
1037.5346	3097.3681	1288.75	406.7
1037.6425	3098.3698	1289.15	402.4
1037.7503	3099.3708	1291.7	402.05
1037.858	3100.3713	1282.6	399.55
1037.9657	3101.3711	1275.9	392.9
1038.0734	3102.3702	1409.5	390.15
1038.181	3103.3688	1275.65	392
1038.2886	3104.3667	1270.55	390.55
1038.3961	3105.364	1266.3	384.75
1038.5036	3106.3607	1266.25	380.05
1038.611	3107.3568	1257.4	372.05
1038.7184	3108.3522	1259.35	377.2
1038.8257	3109.347	1255.2	372.35
1038.933	3110.3412	1254.5	367.5
1039.0403	3111.3348	1243.8	360.55
1039.1475	3112.3277	1247.85	365.4
1039.2547	3113.32	1238.45	355.4
1039.3618	3114.3117	1239.35	356
1039.4689	3115.3028	1239.1	356.1
1039.5759	3116.2932	1236.05	352.8
1039.6829	3117.2831	1241.25	355.2
1039.7898	3118.2723	1229.25	346.05
1039.8967	3119.2608	1232.3	349.15
1040.0035	3120.2488	1234.05	350.25
1040.1103	3121.2361	1224.45	343
1040.2171	3122.2229	1218.05	336.95
1040.3238	3123.209	1218.95	336.7
1040.4305	3124.1944	1216.1	332.6
1040.5371	3125.1793	1220.1	336.3
1040.6437	3126.1635	1211.8	330.4
1040.7502	3127.1471	1213.55	331.85
1040.8567	3128.1301	1211.45	328.4
1040.9631	3129.1125	1208.55	325.4
1041.0695	3130.0942	1207.4	323.95
1041.1759	3131.0753	1212.6	322.9
1041.2822	3132.0558	1207.5	322.75
1041.3884	3133.0357	1198.55	314.65
1041.4946	3134.015	1200.7	316.95
1041.6008	3134.9936	1197.6	314.55
1041.7069	3135.9716	1212.35	307.5
1041.813	3136.949	1191.4	308.1
1041.919	3137.9258	1206.35	305.45
1042.025	3138.902	1194.05	306.05
1042.1309	3139.8775	1191.15	310.15
1042.2368	3140.8524	1192.65	312.35
1042.3427	3141.8267	1183.7	299.25
1042.4485	3142.8004	1182.05	298.65
1042.5542	3143.7735	1184.5	295.05
1042.6599	3144.7459	1182	298.1
1042.7656	3145.7178	1180.1	298.35
1042.8712	3146.689	1180.2	299.05
1042.9768	3147.6596	1175.15	289.8
1043.0823	3148.6295	1167.65	285.95
1043.1878	3149.5989	1168.1	284.5
1043.2932	3150.5676	1162.45	280.8
1043.3986	3151.5357	1168.1	287.35
1043.5039	3152.5032	1163.85	283.05
1043.6092	3153.4701	1169.15	285.95
1043.7145	3154.4364	1161.9	279.45
1043.8197	3155.402	1158.05	276.35
1043.9248	3156.367	1160.65	276.9
1044.03	3157.3315	1192.3	270.85
1044.135	3158.2952	1152.15	269.55
1044.24	3159.2584	1153.1	270.2
1044.345	3160.221	1147.95	265.45
1044.4499	3161.1829	1148.4	264.6
1044.5548	3162.1442	1145.85	262.95
1044.6596	3163.105	1140.3	256.1
1044.7644	3164.065	1144.05	262.2
1044.8692	3165.0245	1146.75	262.5
1044.9739	3165.9834	1136.1	255.1
1045.0785	3166.9416	1135.35	253.85
1045.1831	3167.8993	1138.4	256.2
1045.2877	3168.8563	1135.75	253.1
1045.3922	3169.8127	1126.45	244.65
1045.4966	3170.7684	1132.5	249.3
1045.6011	3171.7236	1128.95	246.15
1045.7054	3172.6782	1134.9	253.05
1045.8098	3173.6321	1129.8	248.75
1045.914	3174.5854	1128.2	241.7
1046.0183	3175.5381	1126.9	243.8
1046.1224	3176.4902	1122	238.25
1046.2266	3177.4417	1121.85	239.5
1046.3307	3178.3926	1123.95	242.4
1046.4347	3179.3428	1111.7	230.25
1046.5387	3180.2924	1116.15	233.8
1046.6427	3181.2415	1117.55	234.8
1046.7466	3182.1899	1111.15	226.35
1046.8504	3183.1377	1108.8	226.05
1046.9542	3184.0848	1117.1	232.7
1047.058	3185.0314	1109.55	226.15
1047.1617	3185.9773	1110	228.15
1047.2654	3186.9227	1108.05	222.6
1047.369	3187.8674	1106.4	223.3
1047.4726	3188.8115	1109.5	222.75
1047.5761	3189.755	1105.35	223.95
1047.6796	3190.6979	1098.2	217.1
1047.783	3191.6402	1098.7	216.95
1047.8864	3192.5818	1094.55	213.65
1047.9898	3193.5229	1108.4	220.95
1048.0931	3194.4633	1103.1	222.65
1048.1963	3195.4031	1102	217.35
1048.2995	3196.3423	1094.2	213.45
1048.4027	3197.2809	1097.2	215.5
1048.5058	3198.2189	1092.55	209.9
1048.6089	3199.1563	1100.2	210.25
1048.7119	3200.0931	1095.3	213.3
1048.8148	3201.0292	1088	204.45
1048.9178	3201.9648	1086	203.15
1049.0206	3202.8997	1095.85	212.35
1049.1235	3203.834	1087.25	206.05
1049.2262	3204.7677	1087.85	206.9
1049.329	3205.7008	1087.05	203.45
1049.4317	3206.6333	1084.45	203.35
1049.5343	3207.5652	1086.75	201.85
1049.6369	3208.4964	1083.45	202.6
1049.7394	3209.4271	1080.35	198.75
1049.8419	3210.3571	1074.15	191.9
1049.9444	3211.2865	1082.3	200.45
1050.0468	3212.2154	1079.4	195.5
1050.1491	3213.1436	1082.3	197.35
1050.2514	3214.0712	1078.1	189.1
1050.3537	3214.9982	1072.6	191.9
1050.4559	3215.9246	1076.5	195.1
1050.5581	3216.8503	1073.15	191.3
1050.6602	3217.7755	1072.95	189.4
1050.7623	3218.7001	1073.5	190.8
1050.8643	3219.624	1071.1	187.85
1050.9663	3220.5473	1073.75	191.75
1051.0682	3221.4701	1067.85	183.25
1051.1701	3222.3922	1072.7	188.8
1051.2719	3223.3137	1066.95	183.35
1051.3737	3224.2346	1066.65	184.65
1051.4754	3225.1549	1063.9	181.45
1051.5771	3226.0746	1063.05	181.7
1051.6788	3226.9937	1063.15	180.7
1051.7804	3227.9121	1062.65	180.9
1051.8819	3228.83	1059.45	177.35
1051.9834	3229.7473	1059.85	178.9
1052.0849	3230.6639	1058.9	176.55
1052.1863	3231.5799	1059	178
1052.2876	3232.4954	1055.4	174.4
1052.3889	3233.4102	1055.3	172.1
1052.4902	3234.3244	1058.3	177
1052.5914	3235.238	1054.7	172.6
1052.6926	3236.151	1074.65	168.6
1052.7937	3237.0634	1052.95	171.45
1052.8948	3237.9752	1052.6	169.15
1052.9958	3238.8864	1054.3	171.2
1053.0968	3239.797	1044.4	161.7
1053.1977	3240.7069	1047.4	164.95
1053.2986	3241.6163	1048.95	165.85
1053.3994	3242.5251	1044.65	164.4
1053.5002	3243.4332	1043.15	163.35
1053.6009	3244.3408	1045.15	162.35
1053.7016	3245.2477	1044	163.2
1053.8022	3246.154	1041	160.65
1053.9028	3247.0598	1041.7	160.3
1054.0034	3247.9649	1038	154.75
1054.1039	3248.8694	1038.3	156.3
1054.2043	3249.7733	1036.55	154.05
1054.3047	3250.6766	1039.25	157
1054.4051	3251.5793	1032.95	150.8
1054.5054	3252.4814	1032.2	151.85
1054.6056	3253.3829	1034.9	155.25
1054.7058	3254.2838	1032.6	151.65
1054.806	3255.1841	1029.25	148.75
1054.9061	3256.0838	1031.95	151.05
1055.0061	3256.9829	1026.8	146.75
1055.1062	3257.8814	1029.55	146.45
1055.2061	3258.7792	1028	143.9
1055.306	3259.6765	1029.05	144.35
1055.4059	3260.5731	1023.15	142.5
1055.5057	3261.4692	1026.1	144.8
1055.6055	3262.3647	1022.5	140.05
1055.7052	3263.2595	1019.25	139.85
1055.8049	3264.1538	1016.6	137.05
1055.9045	3265.0474	1012.35	129.75
1056.0041	3265.9404	1011.55	131.55
1056.1036	3266.8329	1008.05	127.1
1056.2031	3267.7247	1017.4	126.05
1056.3025	3268.616	1000.85	122.05
1056.4019	3269.5066	998.8	116.5
1056.5013	3270.3966	1001.7	119.35
1056.6005	3271.286	989.25	109.1
