Software Version:	3.9.2.0
Unit SN:	10000200
Spectrometer SN:	6960
Date:	3/26/2024 2:12:49 PM
Data Line Index:	25
Spectral Points:	2048
Integration time (ms):	125
Averages:	20
Delay (ms):	30000
Sequence Number:	1
Processing:	dark subtract
Laser Power (mW):	305
Laser Current (mA):	820
Laser Diode Temp (C):	25.1
Laser Case Temp (C):	27.6
System Temp (C):	27.6
Spectrometer Temp (C):	25.4
CCD Temp (C):	0.004
Secondary Temp (C):	20.011
Heatsink Temp (C):	22.903
CCDPCB Temp (C):	36.874
SecondaryPCB Temp (C):	34.095

Wavelength	RamanShift	Raw Counts	Dark Subtracted
787.061	30.1047	680.75	270.85
787.2016	32.3739	696.75	289.6
787.3422	34.6426	714.15	305.5
787.4828	36.9109	740.05	329.4
787.6235	39.1787	761.1	346.2
787.7642	41.4461	784.95	365.85
787.9049	43.7131	806.6	383.3
788.0456	45.9796	837.3	412.25
788.1863	48.2456	868	437.65
788.3271	50.5112	903.5	466.65
788.4679	52.7764	926.2	490.05
788.6087	55.0411	961.45	522.15
788.7496	57.3054	1003.05	556.25
788.8904	59.5692	1045.95	596.1
789.0313	61.8326	1079.65	626.45
789.1722	64.0955	1118.6	661.3
789.3132	66.3579	1178.2	716.1
789.4541	68.6199	1247.05	782.55
789.5951	70.8815	1347.65	879.5
789.7361	73.1426	1581.1	1108.8
789.8771	75.4032	2166.9	1689.45
790.0181	77.6634	3598.7	3115.85
790.1592	79.9231	7228.4	6733.7
790.3003	82.1824	15601.75	15088.7
790.4414	84.4412	37987.7	37438.9
790.5825	86.6995	64058.9	63456.65
790.7237	88.9574	65535	64889.35
790.8648	91.2148	65535	64858.3
791.006	93.4717	65535	64835.3
791.1472	95.7282	65535	64825.8
791.2885	97.9842	65535	64821.45
791.4297	100.2398	65535	64815.1
791.571	102.4949	65535	64810.05
791.7123	104.7495	65535	64812.4
791.8536	107.0036	65535	64811
791.9949	109.2573	65535	64808.75
792.1363	111.5105	65535	64807.75
792.2777	113.7632	65535	64808.25
792.4191	116.0154	65535	64792.4
792.5605	118.2672	65535	64798.1
792.7019	120.5185	65535	64799.15
792.8434	122.7693	65535	64796.85
792.9849	125.0197	65535	64793.25
793.1264	127.2696	65535	64795.4
793.2679	129.519	65535	64788.05
793.4094	131.7679	65535	64782.05
793.551	134.0163	65535	64780.55
793.6926	136.2642	65535	64776.05
793.8342	138.5117	65535	64770.45
793.9758	140.7587	65535	64770.05
794.1175	143.0052	65535	64767.35
794.2591	145.2512	65535	64769.65
794.4008	147.4967	65535	64774.35
794.5425	149.7417	65535	64767.25
794.6842	151.9863	65535	64769.9
794.826	154.2304	65535	64759.85
794.9677	156.4739	65535	64756.6
795.1095	158.717	65535	64756.9
795.2513	160.9596	65535	64746.9
795.3931	163.2017	65535	64746.95
795.535	165.4433	65535	64747.75
795.6768	167.6844	65535	64747.9
795.8187	169.925	65535	64746.85
795.9606	172.1651	65535	64747.4
796.1025	174.4047	65535	64743.65
796.2445	176.6439	65535	64740.55
796.3864	178.8825	65535	64737.35
796.5284	181.1206	65535	64727.45
796.6704	183.3582	65535	64726.85
796.8124	185.5954	65535	64723.9
796.9544	187.832	65535	64725.4
797.0965	190.0681	65535	64715.45
797.2386	192.3037	65535	64721.6
797.3806	194.5388	65535	64711.55
797.5228	196.7734	65535	64709.7
797.6649	199.0075	65535	64704.4
797.807	201.2411	65535	64701.45
797.9492	203.4742	65535	64706
798.0914	205.7068	65535	64698.5
798.2336	207.9389	65535	64697.9
798.3758	210.1704	65535	64695.7
798.518	212.4015	65535	64698.65
798.6603	214.632	65535	64693.75
798.8025	216.862	65535	64704.6
798.9448	219.0915	65535	64706.95
799.0871	221.3205	65535	64715.9
799.2294	223.549	65535	64718
799.3718	225.777	65535	64716.85
799.5141	228.0044	65535	64712.1
799.6565	230.2314	65535	64717.2
799.7989	232.4578	65535	64720
799.9413	234.6837	65535	64710.5
800.0837	236.909	65535	64708.9
800.2262	239.1339	65535	64683.3
800.3687	241.3582	65535	64693.15
800.5111	243.582	65535	64670.7
800.6536	245.8053	65535	64676.1
800.7961	248.0281	65535	64688.7
800.9387	250.2503	65535	64678.95
801.0812	252.472	65535	64670.8
801.2238	254.6932	65535	64671.25
801.3664	256.9139	65535	64671.05
801.509	259.134	65535	64672.4
801.6516	261.3536	65535	64672.7
801.7942	263.5727	65535	64669.3
801.9369	265.7912	65535	64665.45
802.0795	268.0092	65535	64669.75
802.2222	270.2267	65535	64668.25
802.3649	272.4436	65535	64668.65
802.5076	274.6601	65535	64658.7
802.6504	276.8759	65535	64669.4
802.7931	279.0913	65535	64661.45
802.9359	281.3061	65535	64662.4
803.0787	283.5204	65535	64659.25
803.2215	285.7341	65535	64654.35
803.3643	287.9473	65535	64644.1
803.5071	290.16	65535	64646.85
803.6499	292.3721	65535	64656.1
803.7928	294.5837	65535	64650.4
803.9357	296.7947	65535	64649.25
804.0786	299.0052	65535	64649.25
804.2215	301.2152	65535	64651.75
804.3644	303.4246	65535	64659.4
804.5074	305.6334	65535	64660.9
804.6503	307.8418	65535	64652
804.7933	310.0495	65535	64647.4
804.9363	312.2568	65535	64648.9
805.0793	314.4635	65535	64648.65
805.2223	316.6696	65535	64645.5
805.3653	318.8752	65535	64641.55
805.5084	321.0802	65535	64646.7
805.6514	323.2847	65535	64640.65
805.7945	325.4887	65535	64644.4
805.9376	327.692	65535	64645.65
806.0807	329.8949	65535	64642.9
806.2238	332.0972	65535	64639.6
806.367	334.2989	65535	64636.4
806.5101	336.5001	65535	64635.15
806.6533	338.7007	65535	64635.7
806.7965	340.9008	65535	64633.4
806.9397	343.1003	65535	64630.9
807.0829	345.2992	65535	64632.4
807.2261	347.4976	65535	64633.5
807.3693	349.6955	65535	64629.45
807.5126	351.8927	65535	64626.3
807.6559	354.0895	65535	64616.45
807.7991	356.2856	65535	64622.05
807.9424	358.4812	65535	64625.6
808.0857	360.6763	65535	64621.7
808.2291	362.8707	65535	64623.85
808.3724	365.0646	65535	64623.1
808.5158	367.258	65535	64622.65
808.6591	369.4508	65535	64619.75
808.8025	371.643	65535	64616.8
808.9459	373.8346	65535	64618.2
809.0893	376.0257	65535	64614.05
809.2327	378.2162	65535	64613
809.3762	380.4062	65535	64610.95
809.5196	382.5956	65535	64610.4
809.6631	384.7844	65535	64615.55
809.8066	386.9726	65535	64613.9
809.9501	389.1603	65535	64613.05
810.0936	391.3474	65535	64585.35
810.2371	393.5339	65535	64612.7
810.3806	395.7199	65535	64617.85
810.5241	397.9052	65535	64620.95
810.6677	400.09	65535	64619.65
810.8113	402.2743	65535	64621.3
810.9548	404.4579	65535	64625.9
811.0984	406.641	65535	64623.8
811.2421	408.8235	65535	64623.1
811.3857	411.0054	65535	64622.55
811.5293	413.1868	65535	64619.35
811.673	415.3675	65535	64613.55
811.8166	417.5477	65535	64615.8
811.9603	419.7273	65535	64610.8
812.104	421.9064	65535	64606.15
812.2477	424.0848	65535	64615.1
812.3914	426.2627	65535	64612.05
812.5351	428.4399	65535	64608.55
812.6788	430.6166	65535	64605.1
812.8226	432.7928	65535	64604.6
812.9663	434.9683	65535	64608.1
813.1101	437.1432	65535	64612.9
813.2539	439.3176	65535	64612.6
813.3977	441.4914	65535	64618.05
813.5415	443.6645	65535	64613.45
813.6853	445.8371	65535	64609.05
813.8291	448.0091	65535	64611.8
813.973	450.1806	65535	64612.3
814.1168	452.3514	65535	64612.2
814.2607	454.5216	65535	64604.2
814.4046	456.6913	65535	64611.9
814.5485	458.8603	65535	64608.15
814.6924	461.0288	65535	64615.05
814.8363	463.1967	65535	64618.1
814.9802	465.3639	65535	64610.55
815.1241	467.5306	65535	64609.4
815.2681	469.6967	65535	64612.3
815.412	471.8622	65535	64620.65
815.556	474.0271	65535	64612
815.7	476.1914	65535	64606
815.844	478.3551	65535	64610.35
815.988	480.5182	65535	64613.1
816.132	482.6807	65535	64621.45
816.276	484.8426	65535	64625.55
816.4201	487.0039	65535	64617.2
816.5641	489.1647	65535	64614.95
816.7082	491.3248	65535	64609.35
816.8522	493.4843	65535	64611.9
816.9963	495.6432	65535	64615.35
817.1404	497.8015	65535	64601.7
817.2845	499.9592	65535	64599.15
817.4286	502.1163	65535	64598.55
817.5727	504.2728	65535	64610.4
817.7168	506.4287	65535	64616.7
817.861	508.5839	65535	64614.5
818.0051	510.7386	65535	64611.4
818.1493	512.8927	65535	64600.2
818.2935	515.0461	65535	64603.4
818.4377	517.199	65535	64600.8
818.5818	519.3512	65535	64599.3
818.726	521.5029	65535	64597.6
818.8703	523.6539	65535	64599.95
819.0145	525.8043	65535	64598.75
819.1587	527.9541	65535	64597.35
819.303	530.1033	65535	64599.55
819.4472	532.2519	65535	64601.15
819.5915	534.3999	65535	64600.75
819.7357	536.5472	65535	64603.15
819.88	538.694	65535	64608.9
820.0243	540.8401	65535	64599.05
820.1686	542.9856	65535	64590.65
820.3129	545.1305	65535	64587.95
820.4572	547.2748	65535	64580.95
820.6016	549.4185	65535	64581.7
820.7459	551.5615	65535	64584.35
820.8902	553.704	65535	64583.5
821.0346	555.8458	65535	64593.05
821.1789	557.987	65535	64586.6
821.3233	560.1276	65535	64585.9
821.4677	562.2675	65535	64588.4
821.6121	564.4069	65535	64588
821.7565	566.5456	65535	64590.35
821.9009	568.6837	65535	64590.3
822.0453	570.8212	65535	64592.85
822.1897	572.958	65535	64589.7
822.3342	575.0942	65535	64592.95
822.4786	577.2299	65535	64602.1
822.6231	579.3648	65535	64609.85
822.7675	581.4992	65535	64623.1
822.912	583.6329	65535	64621.85
823.0565	585.766	65535	64619.35
823.201	587.8985	65535	64611.2
823.3454	590.0304	65535	64590.6
823.4899	592.1616	65535	64595.5
823.6345	594.2922	65535	64592.5
823.779	596.4222	65535	64588.3
823.9235	598.5515	65535	64584.6
824.068	600.6802	65535	64588.65
824.2126	602.8083	65535	64587.45
824.3571	604.9358	65535	64588.3
824.5017	607.0626	65535	64586.95
824.6462	609.1888	65535	64576.65
824.7908	611.3144	65535	64579.65
824.9354	613.4393	65535	64578.95
825.08	615.5636	65535	64577.7
825.2246	617.6873	65535	64580.5
825.3692	619.8103	65535	64582
825.5138	621.9327	65535	64584.75
825.6584	624.0544	65535	64584.35
825.803	626.1756	65535	64588.7
825.9477	628.2961	65535	64586.7
826.0923	630.4159	65535	64582.05
826.237	632.5351	65535	64582.4
826.3816	634.6537	65535	64580.3
826.5263	636.7716	65535	64573.25
826.6709	638.8889	65535	64575.4
826.8156	641.0056	65535	64573.55
826.9603	643.1216	65535	64573.1
827.105	645.237	65535	64577.05
827.2497	647.3518	65535	64589.65
827.3944	649.4659	65535	64585.85
827.5391	651.5793	65535	64592
827.6838	653.6922	65535	64586.75
827.8285	655.8043	65535	64583.9
827.9733	657.9159	65535	64581.45
828.118	660.0268	65535	64582.6
828.2627	662.137	65535	64582.55
828.4075	664.2466	65535	64573.4
828.5522	666.3556	65535	64578.55
828.697	668.4639	65535	64582.85
828.8418	670.5716	65535	64588.45
828.9865	672.6786	65535	64583.8
829.1313	674.785	65535	64575.45
829.2761	676.8907	65535	64585.5
829.4209	678.9958	65535	64585.35
829.5657	681.1002	65535	64586.25
829.7105	683.204	65535	64571.85
829.8553	685.3072	65535	64570.9
830.0001	687.4097	65535	64579.85
830.1449	689.5115	65535	64578.15
830.2898	691.6127	65535	64581.8
830.4346	693.7132	65535	64581.55
830.5794	695.8131	65535	64555.3
830.7243	697.9123	65535	64571.3
830.8691	700.0109	65535	64572
831.014	702.1089	65535	64574.45
831.1588	704.2061	65535	64576.45
831.3037	706.3028	65535	64576.25
831.4486	708.3987	65535	64573.55
831.5935	710.4941	65535	64578.3
831.7383	712.5887	65535	64578.6
831.8832	714.6827	65535	64575.7
832.0281	716.7761	65535	64584.55
832.173	718.8688	65535	64580
832.3179	720.9608	65535	64569.8
832.4628	723.0522	65535	64565.65
832.6077	725.1429	65535	64571.8
832.7527	727.233	65535	64572.8
832.8976	729.3224	65535	64574.4
833.0425	731.4112	65535	64572.05
833.1874	733.4993	65535	64575.05
833.3324	735.5867	65535	64573.3
833.4773	737.6735	65535	64574.75
833.6222	739.7596	65535	64569.45
833.7672	741.845	65535	64575.75
833.9122	743.9298	65535	64575.75
834.0571	746.014	65535	64573.15
834.2021	748.0974	65535	64563.1
834.347	750.1802	65535	64570.7
834.492	752.2624	65535	64570.3
834.637	754.3439	65535	64567.25
834.782	756.4247	65535	64561.25
834.9269	758.5048	65535	64567.65
835.0719	760.5843	65535	64567.1
835.2169	762.6631	65535	64565.1
835.3619	764.7413	65535	64571.6
835.5069	766.8188	65535	64569.35
835.6519	768.8956	65535	64565.9
835.7969	770.9718	65535	64570.5
835.9419	773.0473	65535	64567.7
836.0869	775.1221	65535	64567.15
836.232	777.1962	65535	64572.05
836.377	779.2697	65535	64570.45
836.522	781.3426	65535	64550
836.667	783.4147	65535	64568.1
836.8121	785.4862	65535	64569.4
836.9571	787.557	65535	64564.9
837.1021	789.6271	65535	64568
837.2472	791.6966	65535	64567.5
837.3922	793.7654	65535	64568
837.5373	795.8335	65535	64569.35
837.6823	797.901	65535	64568.6
837.8274	799.9678	65535	64560.3
837.9724	802.0339	65535	64562.6
838.1175	804.0993	65535	64551.2
838.2626	806.1641	65535	64563.1
838.4076	808.2282	65535	64566.25
838.5527	810.2916	65535	64570.5
838.6978	812.3544	65535	64568.6
838.8428	814.4164	65535	64568.35
838.9879	816.4778	65535	64562.95
839.133	818.5385	65535	64563.25
839.2781	820.5986	65535	64563.55
839.4232	822.658	65535	64561.45
839.5682	824.7166	65535	64567.15
839.7133	826.7747	65535	64567.7
839.8584	828.832	65535	64566.1
840.0035	830.8886	65535	64564.55
840.1486	832.9446	65535	64563.05
840.2937	834.9999	65535	64569.8
840.4388	837.0545	65535	64563.55
840.5839	839.1085	65535	64564.45
840.729	841.1618	65535	64566.6
840.8741	843.2143	65535	64562.6
841.0192	845.2662	65535	64564.8
841.1643	847.3175	65535	64566.45
841.3095	849.368	65529.6	64556.85
841.4546	851.4179	65535	64566.65
841.5997	853.467	65535	64561.6
841.7448	855.5155	65535	64561.3
841.8899	857.5633	65533.65	64563.8
842.0351	859.6105	65529.6	64557.4
842.1802	861.6569	65532.75	64562.3
842.3253	863.7027	65519.55	64544.55
842.4704	865.7478	65525.75	64553.75
842.6156	867.7922	65521.85	64548.95
842.7607	869.8359	65529.5	64556.4
842.9058	871.8789	65508.75	64536.75
843.0509	873.9212	65520.8	64509.15
843.1961	875.9629	65526.8	64553.65
843.3412	878.0039	65523.8	64553.35
843.4863	880.0441	65514.3	64547.25
843.6315	882.0837	65519.75	64545
843.7766	884.1226	65509.65	64536.15
843.9218	886.1609	65508.8	64536.75
844.0669	888.1984	65479.25	64510.25
844.212	890.2352	65515.1	64543.2
844.3572	892.2714	65447.7	64468.95
844.5023	894.3069	65482.65	64508.4
844.6475	896.3416	65449.4	64477.4
844.7926	898.3757	65446	64477.7
844.9377	900.4091	65358.85	64384.35
845.0829	902.4418	65491.15	64508.65
845.228	904.4739	65436.65	64461.45
845.3732	906.5052	65433.9	64456.85
845.5183	908.5358	65376.15	64402.45
845.6635	910.5658	65345.55	64369.5
845.8086	912.595	65343.55	64370.25
845.9538	914.6236	65222.15	64248.75
846.0989	916.6515	65401.3	64427.95
846.2441	918.6786	65226.2	64254.15
846.3892	920.7051	65271.65	64293.85
846.5344	922.7309	65225.75	64252.75
846.6795	924.756	65265.05	64291.1
846.8246	926.7804	65225.75	64252.1
846.9698	928.8041	65125.9	64150.8
847.1149	930.8272	65202.4	64230
847.2601	932.8495	65193.8	64218.35
847.4052	934.8711	65120.4	64146.7
847.5504	936.892	65060.1	64083.4
847.6955	938.9123	65088.35	64114.7
847.8407	940.9318	65040.9	64066.35
847.9858	942.9506	65032.25	64059.7
848.131	944.9688	65044.75	64073.7
848.2761	946.9862	64921.05	63945.8
848.4213	949.003	64982.25	64005.85
848.5664	951.019	64852.25	63880.8
848.7115	953.0344	64882.4	63907.55
848.8567	955.0491	64862.25	63890.95
849.0018	957.063	64893.25	63918.35
849.147	959.0763	64907.15	63931.5
849.2921	961.0888	64823.5	63848.65
849.4373	963.1007	64909.7	63936.35
849.5824	965.1119	64889.35	63922.25
849.7275	967.1223	64806.45	63851.4
849.8727	969.1321	64905.1	63950.05
850.0178	971.1412	64763.25	63799.8
850.1629	973.1495	64688.1	63717.05
850.3081	975.1572	64793.3	63768
850.4532	977.1641	64693.55	63719.1
850.5983	979.1704	64684.5	63713.95
850.7435	981.1759	64694.65	63720.1
850.8886	983.1808	64527.15	63551.9
851.0337	985.1849	64540.45	63559.65
851.1788	987.1884	64636.5	63666.65
851.324	989.1911	64740.5	63766.6
851.4691	991.1932	64327.8	63355.8
851.6142	993.1945	64444.85	63475.1
851.7593	995.1951	64605.35	63634.7
851.9045	997.1951	64298.2	63317.2
852.0496	999.1943	64236.35	63261.3
852.1947	1001.1928	64089.7	63118.5
852.3398	1003.1906	64201.55	63231.2
852.4849	1005.1877	63632.85	62661.2
852.63	1007.1841	63562.1	62594.2
852.7751	1009.1798	63620.15	62651.5
852.9202	1011.1748	63530.75	62562.3
853.0653	1013.1691	63439.2	62467
853.2104	1015.1627	62257.8	61289.5
853.3555	1017.1556	62777.25	61808.55
853.5006	1019.1477	62904.8	61939
853.6457	1021.1392	62376	61412.35
853.7908	1023.1299	61606.95	60650.5
853.9359	1025.12	62126.55	61172.4
854.081	1027.1093	61793.2	60853.7
854.2261	1029.0979	61794.25	60856.05
854.3712	1031.0859	61662.65	60717.45
854.5163	1033.0731	60980.8	60024
854.6613	1035.0596	61356.7	60396.2
854.8064	1037.0454	61102.65	60142.45
854.9515	1039.0304	60717.8	59752.55
855.0965	1041.0148	59703.2	58736.85
855.2416	1042.9985	59940.35	58975
855.3867	1044.9814	60496.5	59531.1
855.5317	1046.9636	59452	58483.6
855.6768	1048.9452	59607.3	58641.35
855.8219	1050.926	59352.4	58387.4
855.9669	1052.9061	59336.6	58372.2
856.112	1054.8855	59336.95	58369.75
856.257	1056.8642	58894.9	57927.5
856.4021	1058.8421	58483.8	57512.05
856.5471	1060.8194	58564	57596.1
856.6921	1062.7959	58071.75	57101.9
856.8372	1064.7717	58652.4	57685.4
856.9822	1066.7469	58262.2	57295.65
857.1272	1068.7213	58229.9	57261.75
857.2723	1070.695	57722.45	56758.6
857.4173	1072.6679	57229.35	56260.3
857.5623	1074.6402	57628.45	56663.2
857.7073	1076.6117	57086.9	56111.65
857.8523	1078.5826	57054.5	56085.4
857.9973	1080.5527	57112.95	56144.25
858.1423	1082.5221	56804.45	55840.5
858.2873	1084.4908	57083.2	56118.7
858.4323	1086.4587	56987.7	56022.25
858.5773	1088.426	57065.9	56098.65
858.7223	1090.3925	56914.8	55945.9
858.8673	1092.3584	56767.75	55800.65
859.0123	1094.3235	56073.75	55111.5
859.1573	1096.2879	55885.85	54918.4
859.3022	1098.2515	55954.05	54988.3
859.4472	1100.2145	55666.65	54702
859.5922	1102.1767	55502.6	54531.7
859.7371	1104.1382	55716.5	54756.6
859.8821	1106.099	55563.5	54601.85
860.027	1108.0591	55492.5	54529
860.172	1110.0185	54927.4	53960
860.3169	1111.9771	55571.05	54607.95
860.4619	1113.9351	54970.7	54005.4
860.6068	1115.8923	54455.3	53488.55
860.7517	1117.8488	53911.2	52940.6
860.8967	1119.8045	53297.9	52336.3
861.0416	1121.7596	53281.75	52316.3
861.1865	1123.7139	52934.1	51974.3
861.3314	1125.6675	52854.5	51891.8
861.4763	1127.6204	52707.9	51746.85
861.6212	1129.5726	52427.3	51462.7
861.7661	1131.524	52529.5	51568.25
861.911	1133.4748	52602.3	51639.15
862.0559	1135.4248	52288.4	51320.35
862.2008	1137.3741	52254.35	51289.55
862.3457	1139.3226	52084.45	51120.3
862.4905	1141.2705	51989.8	51025.4
862.6354	1143.2176	51732.9	50765.3
862.7803	1145.164	51476	50510.95
862.9251	1147.1097	51466.6	50503.5
863.07	1149.0546	51371.35	50407.4
863.2148	1150.9989	51334.8	50371.75
863.3597	1152.9424	50925.4	49962.3
863.5045	1154.8852	50768.95	49803.4
863.6493	1156.8272	50417.7	49452.55
863.7942	1158.7686	50531.7	49559.3
863.939	1160.7092	49961	48996.75
864.0838	1162.6491	49789.35	48823.05
864.2286	1164.5883	49880.6	48915.3
864.3734	1166.5267	49613.4	48650.1
864.5182	1168.4644	49775.6	48810.5
864.663	1170.4014	49807.9	48841.6
864.8078	1172.3377	49994.85	49034.7
864.9526	1174.2732	50196.65	49232.3
865.0974	1176.2081	50081.75	49121.5
865.2421	1178.1421	50126.9	49161.25
865.3869	1180.0755	50302.45	49342.7
865.5317	1182.0082	49973.95	49014.6
865.6764	1183.9401	49875.85	48918.1
865.8212	1185.8713	49468	48515.65
865.9659	1187.8017	49146.5	48200.55
866.1106	1189.7315	48832	47894.55
866.2554	1191.6605	48364.6	47426.7
866.4001	1193.5888	47986.25	47039.15
866.5448	1195.5163	47767.45	46817.6
866.6895	1197.4432	47548	46590.75
866.8342	1199.3693	47356.35	46399.1
866.9789	1201.2947	47096.05	46131.3
867.1236	1203.2193	46927.5	45968.85
867.2683	1205.1432	46746.75	45788.95
867.413	1207.0664	46695	45737.85
867.5576	1208.9889	46551.5	45589.4
867.7023	1210.9106	46466.65	45507.2
867.847	1212.8316	46316.2	45361.15
867.9916	1214.7519	46304.25	45336.5
868.1363	1216.6715	46164.75	45208.2
868.2809	1218.5903	46053	45095.3
868.4255	1220.5084	45849.85	44892.95
868.5701	1222.4257	45785.85	44826.8
868.7148	1224.3424	45402.6	44445.85
868.8594	1226.2583	45353.25	44393.7
869.004	1228.1735	45386.2	44430
869.1486	1230.0879	45240.5	44281.25
869.2932	1232.0016	45250.2	44290.6
869.4377	1233.9146	45143.2	44183.75
869.5823	1235.8269	44890.95	43932.9
869.7269	1237.7384	44780.6	43826.25
869.8715	1239.6492	44331.85	43380.75
870.016	1241.5592	44249.8	43293.5
870.1606	1243.4686	43948.2	42991.2
870.3051	1245.3772	43745	42787.35
870.4496	1247.285	43552.7	42597.75
870.5941	1249.1922	43295.3	42338.6
870.7387	1251.0986	43186.2	42232.55
870.8832	1253.0042	43040.65	42085.05
871.0277	1254.9092	43002.5	42047.95
871.1722	1256.8134	42941.8	41988.4
871.3167	1258.7169	42987.1	42029.8
871.4611	1260.6196	42935.8	41979.75
871.6056	1262.5216	43129.4	42174.75
871.7501	1264.4229	43127.2	42176.25
871.8945	1266.3234	43166.75	42214.2
872.039	1268.2232	43206.45	42248.5
872.1834	1270.1223	42997.85	42045.2
872.3278	1272.0207	42946.1	41988.1
872.4723	1273.9183	42737.85	41777.1
872.6167	1275.8151	42603.4	41650.8
872.7611	1277.7113	42414.8	41460.25
872.9055	1279.6067	42118.7	41165.1
873.0499	1281.5014	41869.45	40912.65
873.1943	1283.3953	41634.8	40679.65
873.3386	1285.2885	41480.75	40526.05
873.483	1287.181	41237.05	40284.1
873.6274	1289.0727	41225.2	40275.15
873.7717	1290.9637	41128.4	40177.25
873.9161	1292.854	41196.4	40240.85
874.0604	1294.7435	41127.95	40174.05
874.2047	1296.6323	41300.9	40347.95
874.349	1298.5204	41490.35	40537.3
874.4933	1300.4077	41644.85	40689
874.6376	1302.2943	41700.15	40745.25
874.7819	1304.1802	41789.9	40836.55
874.9262	1306.0653	41601.15	40645.15
875.0705	1307.9497	41380.3	40426.55
875.2147	1309.8333	41237.95	40285.9
875.359	1311.7162	41150.5	40194.3
875.5032	1313.5984	41160.3	40203.6
875.6475	1315.4798	41145.05	40180.45
875.7917	1317.3605	41180.55	40223.1
875.9359	1319.2405	41322.65	40369.35
876.0801	1321.1197	41260.25	40307.15
876.2243	1322.9982	41079.55	40119.8
876.3685	1324.876	41054.4	40102.2
876.5127	1326.753	40924.55	39969.6
876.6569	1328.6293	40870.95	39917.35
876.801	1330.5048	40925.95	39967.7
876.9452	1332.3796	40766.35	39811.2
877.0893	1334.2537	40706.95	39731
877.2335	1336.127	40568.95	39614
877.3776	1337.9996	40415.45	39465.75
877.5217	1339.8714	40304.25	39350.35
877.6658	1341.7426	40144.4	39145.65
877.8099	1343.6129	39980	39021.4
877.954	1345.4826	39848.6	38889.45
878.0981	1347.3515	39778.9	38821.15
878.2422	1349.2196	39609.05	38653.8
878.3862	1351.087	39566.7	38614.25
878.5303	1352.9537	39511.9	38560.3
878.6743	1354.8197	39578.55	38623.2
878.8184	1356.6849	39685.05	38734.5
878.9624	1358.5493	39708.5	38754.6
879.1064	1360.4131	39598.15	38649.6
879.2504	1362.276	39407.2	38456.35
879.3944	1364.1383	39140.85	38187.05
879.5384	1365.9998	38849.55	37891.8
879.6823	1367.8606	38447.35	37495.8
879.8263	1369.7206	38164.95	37215
879.9702	1371.5799	37815.75	36860.5
880.1142	1373.4384	37585.75	36632.2
880.2581	1375.2962	37414.75	36464.05
880.402	1377.1533	37054.9	36104.65
880.5459	1379.0096	36595.95	35648.15
880.6898	1380.8652	36335.55	35389.5
880.8337	1382.7201	35967.55	35021.35
880.9776	1384.5742	35609.2	34658.45
881.1215	1386.4275	35382.4	34428.85
881.2653	1388.2802	35147.6	34194.55
881.4092	1390.132	34936.45	33984.5
881.553	1391.9832	34819.95	33868.7
881.6968	1393.8336	34567.75	33617.35
881.8406	1395.6832	34465.95	33515.05
881.9844	1397.5322	34290.25	33340.05
882.1282	1399.3803	34161.2	33207.9
882.272	1401.2278	34002.55	33051.7
882.4158	1403.0745	33861.75	32913.6
882.5595	1404.9204	33701.25	32752.7
882.7033	1406.7656	33662.1	32713.15
882.847	1408.6101	33543.05	32590.3
882.9908	1410.4538	33384.1	32434.05
883.1345	1412.2968	33347.15	32397.8
883.2782	1414.139	33186.75	32235.9
883.4219	1415.9805	33255.3	32306.8
883.5656	1417.8213	33200	32233.85
883.7092	1419.6613	33155.85	32207.15
883.8529	1421.5006	33286.1	32336.7
883.9965	1423.3391	33432	32482.9
884.1402	1425.1769	33612.7	32665.95
884.2838	1427.0139	34070.2	33123.4
884.4274	1428.8502	34590.05	33641.95
884.571	1430.6858	35094.05	34144.75
884.7146	1432.5206	35348.3	34401.5
884.8582	1434.3547	35569.55	34620.35
885.0018	1436.188	35565.75	34616
885.1453	1438.0206	35490.2	34543.45
885.2889	1439.8524	35232.4	34287.25
885.4324	1441.6835	35125.6	34178.55
885.5759	1443.5139	34903.6	33954.15
885.7194	1445.3435	34721.5	33773.3
885.8629	1447.1724	34632.65	33688.35
886.0064	1449.0005	34504.15	33559.45
886.1499	1450.8279	34271.55	33326.3
886.2933	1452.6545	34219.55	33274.65
886.4368	1454.4804	34232.7	33289.65
886.5802	1456.3056	34201.85	33250.1
886.7237	1458.13	33998.05	33056.8
886.8671	1459.9536	33816.45	32870.2
887.0105	1461.7766	33390.6	32447.15
887.1539	1463.5987	32853.5	31906.15
887.2972	1465.4202	32456	31511.1
887.4406	1467.2409	31999.4	31053.2
887.584	1469.0608	31754.35	30807.25
887.7273	1470.88	31394.5	30450.8
887.8706	1472.6984	31117.8	30173.3
888.0139	1474.5161	30776	29829.8
888.1572	1476.3331	30607.85	29661.95
888.3005	1478.1493	30408.3	29462.05
888.4438	1479.9648	30328.1	29383.25
888.5871	1481.7795	30149.55	29206.2
888.7303	1483.5935	30044.6	29100.45
888.8736	1485.4067	29965.7	29021
889.0168	1487.2192	29863.8	28917.45
889.16	1489.031	29758.95	28811.65
889.3032	1490.842	29624.65	28682.05
889.4464	1492.6522	29583.75	28640.3
889.5896	1494.4618	29427.75	28482.25
889.7327	1496.2705	29398.25	28454
889.8759	1498.0785	29337.3	28392.55
890.019	1499.8858	29257.8	28312.45
890.1622	1501.6924	29098.95	28153.75
890.3053	1503.4981	29074.5	28130.4
890.4484	1505.3032	29018.3	28074.9
890.5914	1507.1075	28955.7	28011.6
890.7345	1508.911	28857.65	27914.2
890.8776	1510.7138	28757.35	27812.1
891.0206	1512.5159	28589.05	27648.65
891.1637	1514.3172	28536.1	27596.6
891.3067	1516.1178	28383.8	27443.5
891.4497	1517.9176	28322.95	27377.6
891.5927	1519.7166	28215.5	27275
891.7357	1521.515	28085.1	27139.9
891.8786	1523.3126	28065.05	27124.1
892.0216	1525.1094	27970.85	27029.1
892.1645	1526.9055	27815.55	26875.65
892.3074	1528.7008	27733.5	26794.45
892.4503	1530.4954	27522.35	26578.1
892.5932	1532.2893	27532.6	26596.1
892.7361	1534.0824	27359.3	26421.85
892.879	1535.8747	27333.7	26397.35
893.0218	1537.6663	27207.65	26271
893.1647	1539.4572	27113.5	26174
893.3075	1541.2473	27065.6	26130.9
893.4503	1543.0367	26984.3	26047.35
893.5931	1544.8253	26879.45	25936.3
893.7359	1546.6132	26839.75	25898.55
893.8787	1548.4003	26681.05	25733.45
894.0214	1550.1867	26663.45	25719.45
894.1642	1551.9723	26615.65	25677.25
894.3069	1553.7572	26567.15	25635.15
894.4496	1555.5414	26496.05	25561.25
894.5923	1557.3247	26458.1	25526.3
894.735	1559.1074	26410.1	25482.35
894.8777	1560.8893	26420.4	25495.65
895.0204	1562.6705	26292.4	25362.2
895.163	1564.4509	26354.25	25428.65
895.3056	1566.2305	26296.85	25373.05
895.4482	1568.0094	26409.2	25488.8
895.5908	1569.7876	26437.25	25511.25
895.7334	1571.565	26442	25512.05
895.876	1573.3417	26450	25520.3
896.0186	1575.1176	26384.5	25457.55
896.1611	1576.8928	26324.4	25401.5
896.3036	1578.6672	26151.2	25235.5
896.4461	1580.4409	25985.45	25067.7
896.5886	1582.2138	25822.7	24902.05
896.7311	1583.986	25606.05	24683.4
896.8736	1585.7575	25494.9	24568.05
897.0161	1587.5282	25326.05	24406.45
897.1585	1589.2981	25233.25	24313.6
897.3009	1591.0673	25081.65	24162.75
897.4433	1592.8358	25030.7	24114.35
897.5857	1594.6035	24916.95	23992.65
897.7281	1596.3704	24820.5	23893.6
897.8705	1598.1366	24746.55	23825.3
898.0128	1599.9021	24725.2	23805.1
898.1551	1601.6668	24664.6	23741.9
898.2975	1603.4308	24631.35	23708.45
898.4398	1605.194	24695.7	23770.5
898.5821	1606.9564	24637.85	23722
898.7243	1608.7182	24695.4	23781.85
898.8666	1610.4791	24771.8	23866.7
899.0088	1612.2394	24799.9	23896.2
899.1511	1613.9988	24879.15	23971.1
899.2933	1615.7576	25078	24166.9
899.4355	1617.5156	25263.3	24334.5
899.5776	1619.2728	25470.55	24547.65
899.7198	1621.0293	25524.3	24604.1
899.862	1622.785	25557.3	24641.45
900.0041	1624.54	25484.75	24569.25
900.1462	1626.2942	25320.5	24405.35
900.2883	1628.0477	24975.85	24060.7
900.4304	1629.8005	24682.05	23765.35
900.5725	1631.5525	24398.05	23487.25
900.7145	1633.3037	24164.7	23251.95
900.8566	1635.0542	23945.55	23032.95
900.9986	1636.804	23757.75	22844.5
901.1406	1638.553	23659.8	22701.9
901.2826	1640.3013	23483.45	22571.1
901.4245	1642.0488	23367.9	22453.6
901.5665	1643.7955	23331.55	22419.05
901.7085	1645.5416	23296.4	22386.9
901.8504	1647.2868	23290.65	22376.45
901.9923	1649.0313	23239.9	22325.35
902.1342	1650.7751	23377.4	22461.55
902.2761	1652.5181	23500	22589
902.4179	1654.2604	23601.15	22691.9
902.5598	1656.0019	23827.35	22916.8
902.7016	1657.7427	24085.7	23169.6
902.8434	1659.4828	24422.9	23507.45
902.9852	1661.222	24606.55	23691.6
903.127	1662.9606	24601.05	23687.5
903.2687	1664.6984	24498.65	23580
903.4105	1666.4354	24106.3	23190
903.5522	1668.1717	23662.4	22743.15
903.6939	1669.9072	23180.65	22261.7
903.8356	1671.642	22756.8	21836
903.9773	1673.3761	22419.15	21501.4
904.119	1675.1094	22113.3	21197.95
904.2606	1676.8419	21889.85	20975.2
904.4022	1678.5737	21667.6	20754.1
904.5439	1680.3048	21539.7	20623.15
904.6855	1682.0351	21356	20440.85
904.827	1683.7646	21200.25	20280.7
904.9686	1685.4934	21097.4	20185.2
905.1101	1687.2215	21000.55	20085.4
905.2517	1688.9488	20867	19954.75
905.3932	1690.6754	20764.5	19853.5
905.5347	1692.4012	20731.35	19815.3
905.6761	1694.1263	20613.05	19698.6
905.8176	1695.8506	20588.45	19673.7
905.9591	1697.5742	20503.3	19593.35
906.1005	1699.297	20413.95	19506.5
906.2419	1701.0191	20289.9	19385.8
906.3833	1702.7404	20216.85	19309.5
906.5246	1704.461	20097.4	19186.05
906.666	1706.1808	20001.85	19091.25
906.8073	1707.8999	19948.75	19038.35
906.9487	1709.6182	19872.75	18969.45
907.09	1711.3358	19820.1	18917.1
907.2313	1713.0527	19759.55	18858.55
907.3725	1714.7688	19665.85	18751.15
907.5138	1716.4841	19581.9	18673.95
907.655	1718.1987	19576.15	18662.5
907.7962	1719.9126	19503.55	18599
907.9374	1721.6257	19399.05	18494.25
908.0786	1723.338	19353.6	18451.75
908.2198	1725.0496	19257.6	18350.35
908.3609	1726.7605	19204	18296.15
908.502	1728.4706	19122.7	18216.7
908.6431	1730.18	19043.9	18137.15
908.7842	1731.8886	19014.5	18112.35
908.9253	1733.5964	18986.6	18061.65
909.0664	1735.3036	18894.65	17987.9
909.2074	1737.0099	18819.8	17914.85
909.3484	1738.7156	18808.9	17906.4
909.4894	1740.4204	18719.9	17811.8
909.6304	1742.1246	18674.9	17768.3
909.7714	1743.8279	18644.15	17738.85
909.9123	1745.5306	18576.1	17675.05
910.0532	1747.2325	18498.5	17597.9
910.1941	1748.9336	18430.3	17526.75
910.335	1750.634	18397.9	17489.1
910.4759	1752.3336	18343.05	17438.75
910.6168	1754.0325	18323.65	17422.75
910.7576	1755.7307	18248.35	17346.25
910.8984	1757.4281	18230.6	17326.65
911.0392	1759.1247	18209.15	17295
911.18	1760.8206	18145.4	17234.9
911.3208	1762.5158	18151.05	17239.1
911.4615	1764.2102	18047.7	17142.55
911.6022	1765.9039	17988	17084.4
911.7429	1767.5968	17946.55	17049.6
911.8836	1769.289	17897.4	16998.3
912.0243	1770.9804	17869.1	16963.9
912.1649	1772.6711	17842.9	16935.95
912.3056	1774.361	17737.15	16830.3
912.4462	1776.0502	17716.6	16810.2
912.5868	1777.7386	17689.8	16783.15
912.7274	1779.4263	17589.9	16686.3
912.8679	1781.1132	17617.35	16719.15
913.0084	1782.7994	17514.25	16617.9
913.149	1784.4849	17469.65	16571.55
913.2895	1786.1696	17457.35	16537.05
913.4299	1787.8535	17397.05	16498.6
913.5704	1789.5367	17353.85	16456.6
913.7108	1791.2192	17316.6	16419.65
913.8513	1792.9009	17253.45	16327.1
913.9917	1794.5818	17236.75	16332.35
914.132	1796.2621	17142.45	16240.1
914.2724	1797.9415	17135.85	16232.25
914.4128	1799.6202	17080.2	16179.25
914.5531	1801.2982	17000.6	16098.45
914.6934	1802.9755	17000.55	16095.8
914.8337	1804.6519	16947.6	16044.5
914.9739	1806.3277	16900.8	15999.55
915.1142	1808.0027	16792.95	15895.55
915.2544	1809.6769	16779.95	15883.55
915.3946	1811.3504	16767.1	15869.75
915.5348	1813.0231	16737.6	15839.2
915.675	1814.6951	16697.25	15798.05
915.8151	1816.3664	16676.05	15774.2
915.9553	1818.0369	16663	15761.35
916.0954	1819.7067	16591.85	15690.1
916.2355	1821.3757	16535.15	15632.8
916.3755	1823.044	16500.05	15595.65
916.5156	1824.7115	16461.2	15559.4
916.6556	1826.3783	16379.9	15477.85
916.7956	1828.0443	16374.8	15474.35
916.9356	1829.7096	16313.2	15410.5
917.0756	1831.3741	16262.5	15358.35
917.2155	1833.0379	16240	15342.1
917.3555	1834.701	16177.4	15280.4
917.4954	1836.3633	16164.65	15268.55
917.6353	1838.0248	16137.4	15238.2
917.7751	1839.6856	16071.8	15172.5
917.915	1841.3457	16057.75	15156.8
918.0548	1843.005	16044.2	15144.15
918.1946	1844.6636	16010.45	15108.8
918.3344	1846.3214	15959.5	15058.15
918.4742	1847.9785	15943.25	15043.2
918.6139	1849.6349	15897.5	14994.35
918.7537	1851.2904	15873.35	14959.1
918.8934	1852.9453	15831.4	14927.7
919.0331	1854.5994	15782.95	14877.1
919.1727	1856.2528	15816.6	14908.25
919.3124	1857.9054	15715.4	14814
919.452	1859.5572	15730.75	14831.3
919.5916	1861.2083	15647	14744.2
919.7312	1862.8587	15654.55	14751.1
919.8708	1864.5084	15591.6	14683.75
920.0103	1866.1572	15568.35	14663.85
920.1498	1867.8054	15507.3	14596.95
920.2893	1869.4528	15475.8	14569.2
920.4288	1871.0994	15408.2	14505.65
920.5683	1872.7453	15392.1	14489.75
920.7077	1874.3905	15336.65	14428.05
920.8471	1876.0349	15276.7	14374.95
920.9865	1877.6786	15275.65	14371.35
921.1259	1879.3215	15257.6	14353.7
921.2653	1880.9637	15239.35	14337.45
921.4046	1882.6051	15201.4	14301.85
921.5439	1884.2458	15128.7	14227.4
921.6832	1885.8858	15090.3	14188.8
921.8225	1887.525	15045.65	14145.9
921.9617	1889.1634	14977.55	14073.65
922.101	1890.8011	14949.2	14046.15
922.2402	1892.4381	14936.55	14034.05
922.3794	1894.0743	14904.8	14000.55
922.5185	1895.7098	14878.15	13977.45
922.6577	1897.3446	14822.3	13921.05
922.7968	1898.9786	14803.95	13898
922.9359	1900.6118	14782.15	13882.4
923.075	1902.2443	14701.55	13797.85
923.214	1903.8761	14668.45	13767.9
923.3531	1905.5071	14559.1	13657.25
923.4921	1907.1374	14524.5	13623.3
923.6311	1908.7669	14503.9	13604.15
923.77	1910.3957	14464.7	13563.8
923.909	1912.0237	14394.15	13496.8
924.0479	1913.651	14365.55	13464.45
924.1868	1915.2776	14307.65	13410.15
924.3257	1916.9034	14262.8	13366.05
924.4646	1918.5285	14208.8	13311.7
924.6034	1920.1528	14165.8	13265.8
924.7422	1921.7764	14123	13222.15
924.881	1923.3992	14093.75	13193.35
925.0198	1925.0213	13956.9	13056.6
925.1586	1926.6427	13908.4	13008.4
925.2973	1928.2633	13956.05	12988.25
925.436	1929.8832	13886.75	12985.25
925.5747	1931.5023	13836.45	12937.25
925.7134	1933.1207	13799.45	12900.65
925.852	1934.7383	13744.1	12844.4
925.9906	1936.3552	13688.25	12791.45
926.1292	1937.9714	13650.15	12749.05
926.2678	1939.5868	13616.45	12716.3
926.4064	1941.2015	13537.45	12636.65
926.5449	1942.8154	13486.65	12583.65
926.6834	1944.4286	13427.8	12524.6
926.8219	1946.041	13404.75	12486.05
926.9604	1947.6528	13300.6	12396.6
927.0988	1949.2637	13298.55	12401
927.2372	1950.8739	13240.5	12339.7
927.3756	1952.4834	13223.1	12325
927.514	1954.0921	13205.2	12303.5
927.6523	1955.7001	13126.35	12224.8
927.7907	1957.3074	13086.5	12190.2
927.929	1958.9139	13044.7	12148.7
928.0673	1960.5197	13018.8	12122.65
928.2055	1962.1247	12961.05	12067.55
928.3438	1963.729	12895.2	12000.55
928.482	1965.3325	12850.2	11931.35
928.6202	1966.9353	12812.75	11921.4
928.7584	1968.5374	12795.8	11899.85
928.8965	1970.1387	12743.15	11847.25
929.0346	1971.7393	12666.95	11772.4
929.1727	1973.3392	12645.9	11752.5
929.3108	1974.9383	12575.8	11683.35
929.4489	1976.5366	12532.95	11641.6
929.5869	1978.1342	12523.4	11627.55
929.7249	1979.7311	12493.95	11598.8
929.8629	1981.3273	12462.65	11571.3
930.0009	1982.9227	12415.85	11523.35
930.1388	1984.5173	12373.6	11482.5
930.2767	1986.1112	12296	11402.65
930.4146	1987.7044	12279.7	11390.25
930.5525	1989.2968	12243.3	11350.35
930.6904	1990.8885	12209	11312.65
930.8282	1992.4795	12193.4	11300.8
930.966	1994.0697	12127.2	11238.2
931.1038	1995.6592	12119.05	11226.65
931.2415	1997.2479	12070.4	11178.45
931.3793	1998.8359	12044.6	11153.45
931.517	2000.4232	12009.15	11122.1
931.6547	2002.0097	11964.2	11079.7
931.7923	2003.5955	11907.6	11020.65
931.93	2005.1805	11896.45	11005.6
932.0676	2006.7648	11848.8	10960.15
932.2052	2008.3484	11817.5	10929.35
932.3427	2009.9312	11819.2	10931.8
932.4803	2011.5133	11761.55	10876.45
932.6178	2013.0946	11747.5	10860.2
932.7553	2014.6752	11717.85	10831.05
932.8928	2016.2551	11687.25	10796.3
933.0302	2017.8342	11608.55	10722.3
933.1676	2019.4126	11584.7	10698.3
933.305	2020.9902	11548.6	10663.35
933.4424	2022.5672	11530.7	10645.05
933.5798	2024.1433	11509.35	10617.3
933.7171	2025.7188	11431.3	10547.25
933.8544	2027.2935	11411.2	10526.15
933.9917	2028.8674	11370.8	10488.7
934.129	2030.4406	11356.25	10473.7
934.2662	2032.0131	11304.1	10420
934.4034	2033.5849	11294.65	10400.95
934.5406	2035.1559	11259.75	10377.25
934.6778	2036.7261	11218.4	10328.75
934.8149	2038.2957	11183.55	10293.65
934.952	2039.8645	11157.5	10267.05
935.0891	2041.4325	11153.95	10261.35
935.2262	2042.9998	11092.1	10204.85
935.3632	2044.5664	11072.35	10184.8
935.5002	2046.1323	11039.5	10154.15
935.6372	2047.6974	11004.85	10119.55
935.7742	2049.2617	10955.05	10071.05
935.9111	2050.8254	10961.5	10070.6
936.048	2052.3883	10949.6	10061.35
936.1849	2053.9504	10901	10010.95
936.3218	2055.5118	10862.2	9970.15
936.4586	2057.0725	10793.25	9900.7
936.5955	2058.6325	10795.75	9908.65
936.7323	2060.1917	10758.55	9873.25
936.869	2061.7502	10738.7	9852.9
937.0058	2063.3079	10681.85	9797.25
937.1425	2064.8649	10623.55	9735.75
937.2792	2066.4212	10632.3	9745.15
937.4159	2067.9767	10599.5	9710.65
937.5525	2069.5315	10566.3	9679.4
937.6891	2071.0856	10503.05	9615.4
937.8257	2072.6389	10475.35	9589.4
937.9623	2074.1915	10429.6	9546.3
938.0989	2075.7433	10378.5	9490.8
938.2354	2077.2945	10353.4	9468.1
938.3719	2078.8448	10350.75	9461.15
938.5084	2080.3945	10323.65	9435
938.6448	2081.9434	10297.7	9408.55
938.7812	2083.4916	10255.05	9363.1
938.9176	2085.039	10209.85	9316.3
939.054	2086.5857	10206	9310.7
939.1903	2088.1317	10149.35	9254.25
939.3267	2089.677	10152.4	9255.65
939.463	2091.2215	10101.05	9204.4
939.5992	2092.7652	10094.65	9195.8
939.7355	2094.3083	10083.1	9186.25
939.8717	2095.8506	10053.2	9163.5
940.0079	2097.3921	10044.15	9153.75
940.1441	2098.933	9987	9096.55
940.2802	2100.4731	9969.5	9076.35
940.4163	2102.0124	9954.35	9053.2
940.5524	2103.5511	9955.3	9064.05
940.6885	2105.089	9919.3	9027.1
940.8245	2106.6261	9885.2	8994.05
940.9606	2108.1626	9844.9	8953.3
941.0965	2109.6983	9871.25	8954
941.2325	2111.2332	9799.5	8909.1
941.3684	2112.7675	9763.7	8870.6
941.5044	2114.301	9765.85	8873.45
941.6403	2115.8337	9734.9	8842.6
941.7761	2117.3657	9715.95	8824.2
941.912	2118.897	9666.8	8773.15
942.0478	2120.4276	9637.35	8736.75
942.1835	2121.9575	9599.85	8704.85
942.3193	2123.4866	9581.65	8686.15
942.455	2125.0149	9535.95	8642.65
942.5907	2126.5426	9505.5	8615.3
942.7264	2128.0695	9492.45	8600.25
942.8621	2129.5956	9482.3	8597
942.9977	2131.1211	9466.3	8575.15
943.1333	2132.6458	9448.3	8557.4
943.2689	2134.1698	9435.6	8541.3
943.4044	2135.693	9400.25	8503.15
943.54	2137.2155	9385.15	8488.4
943.6755	2138.7373	9352.85	8461.1
943.8109	2140.2584	9300.9	8413.8
943.9464	2141.7787	9284.7	8392.9
944.0818	2143.2983	9234.8	8349.45
944.2172	2144.8171	9187.55	8303.8
944.3526	2146.3353	9170.55	8278.95
944.4879	2147.8527	9129.2	8240.4
944.6232	2149.3693	9140.7	8248.3
944.7585	2150.8853	9100.05	8205.3
944.8938	2152.4005	9055.45	8160.1
945.029	2153.9149	9066.45	8172.4
945.1642	2155.4287	9122.4	8116.05
945.2994	2156.9417	9037.25	8142.95
945.4346	2158.454	8978.55	8086.45
945.5697	2159.9655	8963.25	8077.1
945.7048	2161.4764	8941.75	8051.75
945.8399	2162.9865	8885.2	7997.7
945.9749	2164.4958	8881.35	7991.55
946.1099	2166.0045	8838.75	7946.45
946.2449	2167.5124	8825.1	7934.15
946.3799	2169.0195	8806.2	7915.85
946.5148	2170.526	8797.3	7905.4
946.6498	2172.0317	8800.25	7908.9
946.7846	2173.5367	8768.1	7875.65
946.9195	2175.0409	8750.05	7859.35
947.0543	2176.5445	8716.4	7825.95
947.1891	2178.0473	8684.4	7791.65
947.3239	2179.5494	8627.4	7729.6
947.4587	2181.0507	8612.15	7719.65
947.5934	2182.5513	8566.9	7677
947.7281	2184.0512	8587.55	7694
947.8628	2185.5504	8571.65	7679.85
947.9974	2187.0488	8507.05	7617.5
948.132	2188.5465	8469.55	7581.7
948.2666	2190.0435	8453.65	7564.3
948.4012	2191.5397	8404	7510.9
948.5357	2193.0353	8411.7	7518.75
948.6702	2194.5301	8379.4	7483.5
948.8047	2196.0241	8341.4	7445.95
948.9392	2197.5175	8307.55	7409.55
949.0736	2199.0101	8284.1	7383.35
949.208	2200.502	8249.7	7358.3
949.3424	2201.9931	8212.6	7323.55
949.4767	2203.4835	8174.8	7282.95
949.611	2204.9733	8183	7277.95
949.7453	2206.4622	8168.35	7282
949.8796	2207.9505	8111.35	7219.4
950.0138	2209.438	8096.7	7211.15
950.148	2210.9248	8066.85	7177.1
950.2822	2212.4109	8043.4	7152.9
950.4164	2213.8962	8023.2	7125.8
950.5505	2215.3809	7989.9	7091.9
950.6846	2216.8648	7990.45	7092.75
950.8186	2218.3479	7968.35	7064.85
950.9527	2219.8304	7939.6	7039.7
951.0867	2221.3121	7897.15	6997.45
951.2207	2222.7931	7881.45	6988.4
951.3546	2224.2733	7837.2	6944.1
951.4886	2225.7529	7829.35	6936.3
951.6225	2227.2317	7787.8	6897
951.7563	2228.7098	7771.75	6882.4
951.8902	2230.1872	7720.6	6834.25
952.024	2231.6638	7732.4	6843.95
952.1578	2233.1397	7717	6823
952.2916	2234.6149	7699.25	6811.15
952.4253	2236.0894	7654.6	6766.6
952.559	2237.5632	7643.2	6748.6
952.6927	2239.0362	7592.1	6701.2
952.8263	2240.5085	7568.8	6675
952.9599	2241.9801	7542	6647.8
953.0935	2243.4509	7532.1	6638.6
953.2271	2244.921	7499.2	6603.65
953.3606	2246.3904	7476.85	6580.75
953.4941	2247.8591	7468.25	6575.05
953.6276	2249.3271	7440.85	6547.9
953.7611	2250.7943	7400.55	6505.2
953.8945	2252.2608	7382.2	6485.8
954.0279	2253.7266	7365	6470.55
954.1612	2255.1917	7329.35	6435.1
954.2946	2256.656	7308.9	6415.95
954.4279	2258.1197	7297.4	6407.9
954.5612	2259.5826	7285.3	6393.9
954.6944	2261.0447	7259.95	6368.25
954.8276	2262.5062	7231.65	6335.85
954.9608	2263.9669	7213.55	6316.9
955.094	2265.4269	7197.1	6303.4
955.2271	2266.8862	7185.4	6293.15
955.3602	2268.3448	7167.35	6277.9
955.4933	2269.8026	7161.2	6269.6
955.6264	2271.2598	7114.65	6224.25
955.7594	2272.7162	7101.2	6211.45
955.8924	2274.1719	7095.1	6203.2
956.0253	2275.6268	7073.9	6179.3
956.1583	2277.0811	7067.6	6174.5
956.2912	2278.5346	7043.3	6151.35
956.4241	2279.9874	7022.6	6133
956.5569	2281.4395	7015.35	6126.45
956.6897	2282.8908	6979.3	6083.95
956.8225	2284.3414	6970.25	6077.75
956.9553	2285.7914	6974.15	6082.95
957.088	2287.2406	6935.1	6041.75
957.2207	2288.689	6912.1	6012.7
957.3534	2290.1368	6900.15	5999.25
957.486	2291.5838	6892.4	5991.1
957.6186	2293.0302	6859.8	5959.5
957.7512	2294.4758	6839.75	5943.6
957.8838	2295.9206	6804.1	5908.4
958.0163	2297.3648	6767.4	5874.95
958.1488	2298.8082	6771.4	5879.35
958.2813	2300.251	6758.2	5864.85
958.4137	2301.693	6739.1	5841.05
958.5461	2303.1343	6733.1	5835.95
958.6785	2304.5748	6700.45	5806.4
958.8108	2306.0147	6678	5787.2
958.9432	2307.4538	6657.9	5765.85
959.0754	2308.8922	6625.75	5739.25
959.2077	2310.3299	6606.2	5717.05
959.3399	2311.7669	6574.15	5686.15
959.4721	2313.2031	6555.85	5663.8
959.6043	2314.6387	6544.3	5650.2
959.7365	2316.0735	6532.95	5638.8
959.8686	2317.5076	6514.45	5619.65
960.0006	2318.941	6522.6	5628.5
960.1327	2320.3737	6464.55	5568.6
960.2647	2321.8056	6466.65	5569.8
960.3967	2323.2369	6443.2	5551.45
960.5287	2324.6674	6424.95	5529.9
960.6606	2326.0972	6404.75	5511.25
960.7925	2327.5263	6389.6	5497.25
960.9244	2328.9547	6363.55	5466.35
961.0562	2330.3823	6379.9	5482.5
961.1881	2331.8092	6362.4	5463
961.3198	2333.2355	6336.6	5440.2
961.4516	2334.661	6319.1	5423.15
961.5833	2336.0858	6284.6	5388.95
961.715	2337.5098	6302.9	5406.7
961.8467	2338.9332	6247.4	5354.35
961.9783	2340.3558	6224.45	5328.85
962.1099	2341.7778	6215.9	5325
962.2415	2343.199	6176	5282.7
962.373	2344.6195	6155.75	5264.6
962.5045	2346.0393	6164.75	5272.35
962.636	2347.4583	6150.95	5258.85
962.7675	2348.8767	6127.6	5233.15
962.8989	2350.2943	6125.4	5227.85
963.0303	2351.7113	6110.7	5214.4
963.1617	2353.1275	6088.85	5189.7
963.293	2354.543	6075.75	5171.25
963.4243	2355.9578	6061.5	5167
963.5556	2357.3718	6013.7	5122.7
963.6868	2358.7852	5989.8	5095.4
963.818	2360.1978	5971.7	5080.25
963.9492	2361.6098	5966	5073.7
964.0803	2363.021	5950.55	5055.05
964.2114	2364.4315	5917.35	5023.3
964.3425	2365.8413	5919.25	5025.55
964.4736	2367.2504	5901.85	5008.95
964.6046	2368.6587	5857.7	4965.55
964.7356	2370.0664	5853.2	4962.55
964.8666	2371.4733	5844.05	4949.55
964.9975	2372.8795	5817.45	4926.05
965.1284	2374.285	5791.25	4897.4
965.2593	2375.6899	5741.65	4848.4
965.3901	2377.0939	5738.45	4847.7
965.5209	2378.4973	5719.2	4829.2
965.6517	2379.9	5710.45	4817.9
965.7825	2381.3019	5693.85	4802.15
965.9132	2382.7032	5674.35	4784.8
966.0439	2384.1037	5656.75	4771.4
966.1745	2385.5035	5619.1	4729.9
966.3051	2386.9027	5611.1	4726.4
966.4357	2388.3011	5602.7	4709.3
966.5663	2389.6987	5582.55	4692.7
966.6968	2391.0957	5570.45	4681.05
966.8273	2392.492	5534.5	4644.4
966.9578	2393.8876	5506.9	4618.25
967.0882	2395.2824	5470.6	4581.9
967.2186	2396.6765	5488.6	4599.55
967.349	2398.07	5453.6	4562.6
967.4793	2399.4627	5443.35	4548.6
967.6097	2400.8547	5429	4535.55
967.7399	2402.246	5412.8	4516.5
967.8702	2403.6366	5379	4486.65
968.0004	2405.0265	5353.45	4463.65
968.1306	2406.4156	5359.4	4465.5
968.2607	2407.8041	5322.2	4427.8
968.3909	2409.1918	5316.2	4421.2
968.521	2410.5789	5314.3	4420.35
968.651	2411.9652	5282.4	4388.2
968.781	2413.3508	5275.85	4381.9
968.911	2414.7358	5253.05	4359.7
969.041	2416.12	5226.15	4335.95
969.1709	2417.5035	5235.1	4345.4
969.3008	2418.8863	5202.9	4313.15
969.4307	2420.2684	5173.95	4280.55
969.5606	2421.6497	5145.65	4253.55
969.6904	2423.0304	5127.25	4235.45
969.8201	2424.4104	5140.25	4248.05
969.9499	2425.7896	5100.6	4210.15
970.0796	2427.1682	5091.4	4199.95
970.2093	2428.546	5083.9	4191.7
970.3389	2429.9232	5065.5	4174.45
970.4685	2431.2996	5060.35	4168.25
970.5981	2432.6753	5037.35	4146.55
970.7277	2434.0503	5029.5	4136.3
970.8572	2435.4246	5027.3	4135.8
970.9867	2436.7982	4989.45	4097.65
971.1161	2438.1711	4989.2	4096.6
971.2456	2439.5433	4980.9	4086.95
971.375	2440.9148	4950.3	4055.15
971.5043	2442.2856	4947.2	4054.95
971.6336	2443.6557	4908.8	4016.1
971.7629	2445.025	4910.95	4019.1
971.8922	2446.3937	4902.5	4008.05
972.0214	2447.7617	4874.7	3981.45
972.1506	2449.1289	4873.25	3978.55
972.2798	2450.4955	4858.65	3963.95
972.4089	2451.8613	4848.75	3957.35
972.538	2453.2265	4834.8	3944
972.6671	2454.5909	4829.5	3937.95
972.7961	2455.9546	4815.7	3925.1
972.9251	2457.3177	4796.4	3904.25
973.0541	2458.68	4781.25	3887.85
973.1831	2460.0416	4792.05	3896.85
973.312	2461.4025	4775.1	3882.75
973.4408	2462.7627	4767.7	3866.4
973.5697	2464.1222	4745.25	3856.7
973.6985	2465.4811	4741.55	3850.75
973.8273	2466.8392	4711.1	3823
973.956	2468.1966	4697.8	3804.55
974.0847	2469.5533	4682.35	3785.55
974.2134	2470.9093	4677.5	3786.05
974.3421	2472.2645	4665.8	3771.95
974.4707	2473.6191	4666.25	3775.8
974.5993	2474.973	4635.05	3743.15
974.7278	2476.3262	4623.95	3727.4
974.8563	2477.6787	4619.7	3729.35
974.9848	2479.0305	4596.85	3704.6
975.1132	2480.3816	4579.8	3688
975.2417	2481.7319	4548.85	3655.95
975.37	2483.0816	4536.2	3643.9
975.4984	2484.4306	4523.25	3629.75
975.6267	2485.7789	4514.7	3624
975.755	2487.1264	4488.45	3595.75
975.8833	2488.4733	4485.5	3594.85
976.0115	2489.8195	4482.25	3572.9
976.1397	2491.165	4457.85	3563
976.2678	2492.5097	4444.85	3551.85
976.3959	2493.8538	4430.95	3541.3
976.524	2495.1972	4426.65	3535.15
976.6521	2496.5398	4413.65	3518.7
976.7801	2497.8818	4395.7	3499.25
976.9081	2499.2231	4390.8	3495.85
977.036	2500.5637	4370.25	3474.05
977.164	2501.9035	4359.75	3463.95
977.2918	2503.2427	4347.7	3449.25
977.4197	2504.5812	4328.8	3437.45
977.5475	2505.919	4334.8	3442.1
977.6753	2507.256	4311.2	3418.5
977.8031	2508.5924	4291.2	3400.75
977.9308	2509.9281	4284.9	3385.5
978.0585	2511.2631	4265.9	3374.95
978.1861	2512.5974	4252.85	3361.5
978.3137	2513.9309	4244.15	3351.15
978.4413	2515.2638	4237.75	3318.3
978.5689	2516.596	4227.65	3334.5
978.6964	2517.9275	4210.4	3315.9
978.8239	2519.2583	4189	3297.15
978.9513	2520.5884	4177.45	3282.1
979.0788	2521.9178	4173.1	3279.7
979.2062	2523.2465	4155.4	3266.4
979.3335	2524.5745	4150.4	3255.75
979.4608	2525.9018	4119.3	3229.35
979.5881	2527.2284	4112.7	3220.75
979.7154	2528.5543	4119.35	3229.8
979.8426	2529.8796	4112.55	3222.65
979.9698	2531.2041	4105	3212.9
980.0969	2532.5279	4094.05	3205.3
980.224	2533.851	4095.15	3202.3
980.3511	2535.1735	4061.1	3170.9
980.4781	2536.4952	4064.1	3171.65
980.6052	2537.8163	4044	3149.55
980.7321	2539.1366	4059.8	3167.5
980.8591	2540.4562	4024.45	3128.75
980.986	2541.7752	4027.2	3132.4
981.1129	2543.0935	4010.35	3115.9
981.2397	2544.411	4015.8	3122
981.3665	2545.7279	4016.6	3124
981.4933	2547.0441	3994.25	3100.15
981.62	2548.3596	3987.2	3091.45
981.7467	2549.6744	3973.45	3080.7
981.8734	2550.9885	3959.6	3064.1
982.0001	2552.3019	3956.95	3064.2
982.1267	2553.6146	3952.8	3060
982.2532	2554.9266	3928.65	3035.05
982.3798	2556.2379	3918.2	3022.2
982.5063	2557.5485	3918.75	3026.85
982.6327	2558.8585	3917.7	3019
982.7592	2560.1677	3893.7	2998.35
982.8856	2561.4762	3903.2	3010.4
983.0119	2562.7841	3891.6	2996.1
983.1383	2564.0913	3871	2977.8
983.2646	2565.3977	3874.95	2984.3
983.3908	2566.7035	3845.75	2952.1
983.517	2568.0086	3858.35	2964.2
983.6432	2569.313	3843.25	2947.9
983.7694	2570.6167	3847.9	2950
983.8955	2571.9197	3823.4	2930.15
984.0216	2573.222	3823	2926.9
984.1476	2574.5236	3817.95	2924.3
984.2737	2575.8246	3807.8	2913.05
984.3996	2577.1248	3809.3	2916.05
984.5256	2578.4244	3799.85	2906.1
984.6515	2579.7232	3779.95	2885.5
984.7774	2581.0214	3810.5	2886.1
984.9032	2582.3189	3765.15	2871.8
985.029	2583.6157	3754.35	2856.4
985.1548	2584.9118	3747.9	2856.3
985.2806	2586.2072	3745.6	2851.45
985.4063	2587.5019	3736.25	2841.4
985.5319	2588.7959	3730.05	2836.3
985.6576	2590.0893	3723.2	2826.35
985.7832	2591.3819	3727.15	2832.8
985.9087	2592.6739	3710.55	2819.1
986.0343	2593.9652	3727.45	2833.55
986.1597	2595.2557	3708.5	2815.75
986.2852	2596.5456	3706.75	2811.8
986.4106	2597.8348	3682.7	2790.55
986.536	2599.1234	3681.25	2787.95
986.6614	2600.4112	3663.1	2769.85
986.7867	2601.6983	3659	2764.85
986.912	2602.9848	3645.05	2751.3
987.0372	2604.2705	3634.1	2732.55
987.1624	2605.5556	3630.1	2736.2
987.2876	2606.84	3610.75	2717.65
987.4128	2608.1237	3614.75	2722.5
987.5379	2609.4067	3589.05	2696.05
987.6629	2610.689	3588.55	2689.1
987.788	2611.9707	3567.6	2670.9
987.913	2613.2516	3569.35	2669.85
988.0379	2614.5319	3553.75	2663
988.1629	2615.8115	3533.5	2640.25
988.2878	2617.0903	3542.55	2649.65
988.4126	2618.3685	3514.5	2620.65
988.5375	2619.6461	3512.95	2617.15
988.6622	2620.9229	3511.9	2619.25
988.787	2622.199	3487.75	2595.15
988.9117	2623.4745	3493.35	2601.75
989.0364	2624.7493	3472.4	2581.75
989.161	2626.0234	3477.75	2587.5
989.2857	2627.2968	3445.2	2552.95
989.4102	2628.5695	3454.25	2559.45
989.5348	2629.8415	3442.85	2550.5
989.6593	2631.1128	3437.15	2545
989.7837	2632.3835	3417.45	2525.05
989.9082	2633.6535	3391.4	2499.15
990.0326	2634.9228	3397.75	2505.55
990.1569	2636.1914	3391.7	2499.15
990.2812	2637.4593	3398.2	2501.3
990.4055	2638.7265	3377.25	2482.65
990.5298	2639.9931	3358.5	2466.4
990.654	2641.259	3359.2	2465.7
990.7782	2642.5242	3353.45	2461.35
990.9023	2643.7887	3342.15	2451.55
991.0264	2645.0525	3339.9	2447.7
991.1505	2646.3156	3339.35	2433.15
991.2745	2647.5781	3320.15	2428.4
991.3985	2648.8398	3296.95	2405.3
991.5225	2650.1009	3296.85	2396.75
991.6464	2651.3613	3290.1	2398.3
991.7703	2652.6211	3275.35	2381.6
991.8942	2653.8801	3267.25	2375.75
992.018	2655.1385	3269.15	2373.35
992.1418	2656.3961	3258.9	2368
992.2655	2657.6531	3268.9	2377.8
992.3892	2658.9094	3251.85	2358.2
992.5129	2660.1651	3237.4	2345.1
992.6366	2661.42	3241.45	2349.25
992.7602	2662.6743	3242.35	2348.95
992.8837	2663.9279	3230.65	2339.75
993.0073	2665.1808	3210.55	2317.45
993.1307	2666.433	3202.1	2307.6
993.2542	2667.6846	3209.3	2319.15
993.3776	2668.9354	3206.1	2311.5
993.501	2670.1856	3194.5	2302.35
993.6244	2671.4351	3196.3	2304.45
993.7477	2672.6839	3199.15	2304.95
993.8709	2673.9321	3172.35	2280.85
993.9942	2675.1795	3163.8	2271.8
994.1174	2676.4263	3175.05	2282.9
994.2405	2677.6724	3158.35	2268
994.3637	2678.9179	3172.75	2279.45
994.4868	2680.1626	3157.1	2265.55
994.6098	2681.4067	3164.15	2271.35
994.7328	2682.6501	3143.7	2250.6
994.8558	2683.8928	3142.05	2250.25
994.9788	2685.1348	3136.55	2244.2
995.1017	2686.3761	3121.6	2229.5
995.2245	2687.6168	3115.9	2223.7
995.3474	2688.8568	3108.8	2215.7
995.4702	2690.0961	3089.2	2200.65
995.5929	2691.3348	3075.2	2182.95
995.7156	2692.5727	3066.55	2174.7
995.8383	2693.81	3064.5	2172.45
995.961	2695.0466	3049.2	2161.55
996.0836	2696.2826	3058.25	2167.4
996.2062	2697.5178	3048.2	2152.6
996.3287	2698.7524	3040.35	2148.45
996.4512	2699.9863	3032.7	2138.7
996.5737	2701.2195	3023.9	2133.25
996.6961	2702.452	3034.5	2140.5
996.8185	2703.6839	3014.2	2124.15
996.9408	2704.9151	3015.1	2125.2
997.0631	2706.1456	3004.35	2113.95
997.1854	2707.3755	3016.6	2123.3
997.3077	2708.6046	3010.9	2117.75
997.4299	2709.8331	3008.8	2117.05
997.552	2711.0609	3001.6	2109.6
997.6742	2712.2881	3012.75	2121.9
997.7963	2713.5145	3011.45	2119.4
997.9183	2714.7403	3015.2	2124.45
998.0403	2715.9654	3010.15	2119.2
998.1623	2717.1899	3027.9	2123.15
998.2842	2718.4136	3032.5	2142.85
998.4062	2719.6367	3027.85	2136.75
998.528	2720.8591	3045.05	2145.1
998.6498	2722.0809	3028.9	2138.8
998.7716	2723.3019	3032.85	2137.3
998.8934	2724.5223	3040.45	2148.9
999.0151	2725.7421	3036.35	2145.2
999.1368	2726.9611	3021.65	2129.6
999.2584	2728.1795	3029.25	2135.8
999.38	2729.3972	2997.5	2106.35
999.5016	2730.6142	2980.55	2080.4
999.6231	2731.8306	2980.6	2088.2
999.7446	2733.0462	2955.6	2063.2
999.8661	2734.2612	2943.15	2048.7
999.9875	2735.4756	2906.9	2013.85
1000.1089	2736.6892	2884.6	1993.35
1000.2302	2737.9022	2875.65	1987.6
1000.3515	2739.1145	2854.35	1963
1000.4728	2740.3262	2840.75	1943.9
1000.594	2741.5372	2822.2	1931.2
1000.7152	2742.7475	2802.9	1912.9
1000.8363	2743.9571	2788.8	1897.45
1000.9575	2745.1661	2774.65	1878.65
1001.0785	2746.3744	2768.85	1879.05
1001.1996	2747.582	2748.75	1859.5
1001.3206	2748.7889	2727.65	1836.55
1001.4415	2749.9952	2717	1827.85
1001.5625	2751.2008	2709.6	1818.3
1001.6833	2752.4057	2695.3	1804.2
1001.8042	2753.61	2694.65	1802.95
1001.925	2754.8136	2688.35	1795.85
1002.0458	2756.0165	2676.65	1787.55
1002.1665	2757.2188	2691.45	1803.05
1002.2872	2758.4204	2674.75	1786.85
1002.4078	2759.6213	2667.05	1773.45
1002.5285	2760.8215	2656	1760.95
1002.649	2762.0211	2650.95	1758.1
1002.7696	2763.22	2639.15	1745.15
1002.8901	2764.4182	2630.75	1739.1
1003.0106	2765.6158	2626.5	1738.2
1003.131	2766.8127	2625.75	1737.7
1003.2514	2768.009	2609.1	1719.8
1003.3717	2769.2045	2594.45	1702.7
1003.492	2770.3994	2594.3	1703.1
1003.6123	2771.5936	2581.3	1690.95
1003.7325	2772.7872	2567.95	1679.2
1003.8527	2773.9801	2567.15	1676.65
1003.9729	2775.1723	2581.7	1676.05
1004.093	2776.3639	2564.3	1675.35
1004.2131	2777.5548	2564.85	1672.4
1004.3331	2778.745	2553.85	1662.7
1004.4531	2779.9346	2544.95	1657.9
1004.5731	2781.1235	2549.7	1661.15
1004.693	2782.3117	2545.85	1658.4
1004.8129	2783.4992	2543.25	1655.4
1004.9328	2784.6861	2541.1	1650.9
1005.0526	2785.8723	2551.1	1659.6
1005.1723	2787.0579	2555.55	1664.75
1005.2921	2788.2428	2542.9	1653.95
1005.4118	2789.427	2540.3	1652.6
1005.5314	2790.6106	2552.05	1663.4
1005.651	2791.7935	2547.2	1658.95
1005.7706	2792.9757	2562.65	1675.65
1005.8902	2794.1573	2573.25	1681.85
1006.0097	2795.3382	2569.8	1683.05
1006.1291	2796.5184	2580.9	1693.6
1006.2485	2797.698	2602.05	1711.95
1006.3679	2798.8769	2611.45	1723.45
1006.4873	2800.0551	2621	1733.35
1006.6066	2801.2327	2629.4	1737.2
1006.7258	2802.4096	2636.45	1748.15
1006.8451	2803.5859	2664.05	1773.6
1006.9642	2804.7615	2660.15	1774
1007.0834	2805.9364	2685.2	1798.95
1007.2025	2807.1106	2716.3	1829.3
1007.3216	2808.2842	2719.3	1829.7
1007.4406	2809.4572	2757.2	1868.1
1007.5596	2810.6294	2792.3	1903.2
1007.6785	2811.801	2829.4	1942.4
1007.7975	2812.972	2864.5	1975.6
1007.9163	2814.1423	2895.9	2009.1
1008.0352	2815.3119	2948.25	2058.4
1008.154	2816.4808	2986.8	2097.95
1008.2727	2817.6491	3019.3	2132
1008.3914	2818.8167	3069.25	2182.65
1008.5101	2819.9837	3117.7	2224.6
1008.6288	2821.15	3143	2253.3
1008.7474	2822.3157	3193.3	2306.85
1008.8659	2823.4807	3231.7	2343.95
1008.9844	2824.645	3289.15	2402.35
1009.1029	2825.8086	3317.6	2431.05
1009.2214	2826.9716	3351.7	2465.4
1009.3398	2828.134	3372.75	2484.5
1009.4581	2829.2957	3422.7	2531.4
1009.5764	2830.4567	3443.3	2557.5
1009.6947	2831.617	3453.45	2565.85
1009.813	2832.7767	3464.95	2578.75
1009.9312	2833.9358	3464.1	2577.1
1010.0493	2835.0941	3458.25	2568.85
1010.1675	2836.2519	3447.6	2561.2
1010.2855	2837.4089	3422.6	2532.8
1010.4036	2838.5653	3426.15	2536.6
1010.5216	2839.7211	3408.35	2521.4
1010.6396	2840.8761	3430.55	2540.8
1010.7575	2842.0306	3434.15	2548.2
1010.8754	2843.1843	3455.65	2567.5
1010.9932	2844.3374	3508.9	2623.2
1011.111	2845.4899	3569.1	2681.4
1011.2288	2846.6417	3629.4	2743.4
1011.3465	2847.7928	3705.05	2817.1
1011.4642	2848.9433	3773.65	2885.55
1011.5818	2850.0931	3847.1	2960.8
1011.6995	2851.2422	3927.55	3036.6
1011.817	2852.3907	3979.35	3092.25
1011.9345	2853.5385	4057.5	3168.2
1012.052	2854.6857	4108.75	3216.1
1012.1695	2855.8323	4154.85	3266.35
1012.2869	2856.9781	4194.35	3308.75
1012.4042	2858.1233	4232.25	3345.45
1012.5216	2859.2679	4270.35	3385.05
1012.6389	2860.4118	4311.35	3425.5
1012.7561	2861.555	4359.75	3467.2
1012.8733	2862.6976	4385.65	3497.8
1012.9905	2863.8395	4419.3	3531.1
1013.1076	2864.9808	4442.7	3554.6
1013.2247	2866.1214	4438.7	3552.9
1013.3417	2867.2614	4449.75	3562.4
1013.4587	2868.4007	4461.7	3574.3
1013.5757	2869.5393	4479.2	3589.6
1013.6926	2870.6773	4486.35	3596
1013.8095	2871.8146	4490.25	3599.25
1013.9263	2872.9513	4481.8	3590.7
1014.0431	2874.0874	4476.85	3589.85
1014.1599	2875.2227	4462.7	3576.25
1014.2766	2876.3574	4444.5	3557.9
1014.3933	2877.4915	4430.8	3547.8
1014.51	2878.6249	4389.5	3505.2
1014.6266	2879.7577	4371.2	3485.2
1014.7431	2880.8898	4361.35	3460.95
1014.8596	2882.0212	4305.05	3417.8
1014.9761	2883.152	4303.95	3418.4
1015.0925	2884.2821	4283.95	3398.25
1015.2089	2885.4116	4268.05	3383.95
1015.3253	2886.5405	4259.2	3372.35
1015.4416	2887.6686	4286.1	3397.65
1015.5579	2888.7962	4279.05	3394.45
1015.6741	2889.923	4281.9	3396.15
1015.7903	2891.0493	4296.05	3411.55
1015.9065	2892.1748	4288.35	3402.65
1016.0226	2893.2997	4295.75	3406.9
1016.1387	2894.424	4319.9	3434.55
1016.2547	2895.5476	4312.6	3425.85
1016.3707	2896.6706	4338.6	3453.6
1016.4866	2897.7929	4363.1	3477
1016.6025	2898.9145	4395.55	3509.55
1016.7184	2900.0355	4415.3	3526.15
1016.8342	2901.1559	4441.95	3555.7
1016.95	2902.2756	4472.85	3587.6
1017.0658	2903.3946	4496.25	3609.15
1017.1815	2904.513	4518.9	3628.25
1017.2971	2905.6308	4545	3659.8
1017.4127	2906.7479	4567.35	3681.75
1017.5283	2907.8643	4603.6	3716.55
1017.6439	2908.9801	4582.3	3694.7
1017.7594	2910.0953	4603.8	3716.35
1017.8748	2911.2098	4590.45	3703.5
1017.9902	2912.3236	4576.9	3683.25
1018.1056	2913.4368	4578.45	3688.85
1018.2209	2914.5494	4562.25	3676.8
1018.3362	2915.6613	4514.55	3622.6
1018.4515	2916.7725	4495.4	3606.8
1018.5667	2917.8831	4487.95	3602
1018.6819	2918.9931	4438.45	3551.7
1018.797	2920.1024	4411.3	3523.7
1018.9121	2921.211	4378.3	3492.05
1019.0271	2922.319	4352.9	3466.05
1019.1421	2923.4264	4336.25	3451.25
1019.2571	2924.5331	4316.05	3430.25
1019.372	2925.6391	4300.2	3415
1019.4869	2926.7445	4293.35	3410.2
1019.6017	2927.8493	4291	3405.1
1019.7165	2928.9534	4278.3	3393.75
1019.8313	2930.0569	4265.15	3375.3
1019.946	2931.1597	4242.4	3355.95
1020.0606	2932.2619	4232.85	3346.65
1020.1753	2933.3634	4222.7	3336.8
1020.2899	2934.4643	4225.7	3334.55
1020.4044	2935.5645	4195.4	3304.15
1020.5189	2936.6641	4153.6	3263.35
1020.6334	2937.763	4108.05	3224.8
1020.7478	2938.8613	4072.05	3185.45
1020.8622	2939.959	4013.85	3124.3
1020.9765	2941.056	3956	3073.4
1021.0908	2942.1523	3854.1	2966.6
1021.2051	2943.248	3775.2	2889.95
1021.3193	2944.3431	3673.1	2787.85
1021.4334	2945.4375	3578.2	2692.25
1021.5476	2946.5313	3493.45	2610.2
1021.6617	2947.6244	3380.4	2496.4
1021.7757	2948.7169	3286.8	2399.9
1021.8897	2949.8087	3193.65	2308.5
1022.0037	2950.8999	3099.25	2210.75
1022.1176	2951.9904	3010.5	2124.55
1022.2315	2953.0803	2932.9	2048.25
1022.3453	2954.1696	2873.2	1986.85
1022.4591	2955.2582	2818.15	1933.9
1022.5728	2956.3462	2771.55	1886.45
1022.6865	2957.4335	2719.4	1833.95
1022.8002	2958.5202	2695.6	1806.95
1022.9138	2959.6062	2654.75	1769.5
1023.0274	2960.6916	2632.25	1747.55
1023.141	2961.7764	2613.55	1728.05
1023.2545	2962.8605	2586.05	1699.7
1023.3679	2963.9439	2572.1	1688.2
1023.4813	2965.0267	2548.45	1662.8
1023.5947	2966.1089	2564.1	1655.35
1023.708	2967.1905	2545.15	1660.2
1023.8213	2968.2714	2530	1644.85
1023.9346	2969.3516	2528.15	1645.35
1024.0478	2970.4312	2536.3	1643.4
1024.1609	2971.5102	2517.7	1634.15
1024.274	2972.5885	2530.45	1648.05
1024.3871	2973.6662	2530.85	1641.8
1024.5002	2974.7432	2506.1	1622.8
1024.6132	2975.8196	2499.25	1611.95
1024.7261	2976.8954	2487.9	1602.4
1024.839	2977.9705	2475.95	1591.75
1024.9519	2979.045	2465.55	1581.7
1025.0647	2980.1188	2441	1558.65
1025.1775	2981.192	2429.9	1547.75
1025.2902	2982.2645	2402.6	1519.2
1025.4029	2983.3364	2374.45	1489.75
1025.5156	2984.4077	2342.15	1457.6
1025.6282	2985.4783	2331.55	1442.2
1025.7407	2986.5483	2282.25	1400.3
1025.8532	2987.6177	2260.25	1376.55
1025.9657	2988.6864	2219.6	1335.1
1026.0782	2989.7545	2194.9	1308.1
1026.1906	2990.8219	2158.15	1275.45
1026.3029	2991.8887	2116.45	1229.15
1026.4152	2992.9548	2092.4	1209.75
1026.5275	2994.0204	2051.5	1167.95
1026.6397	2995.0852	2015.45	1132.4
1026.7519	2996.1495	1990.65	1105
1026.864	2997.2131	1975.15	1092.35
1026.9761	2998.276	1954.05	1069.4
1027.0882	2999.3383	1930.85	1046.5
1027.2002	3000.4	1915.15	1028.05
1027.3122	3001.4611	1886.6	1001.8
1027.4241	3002.5215	1877.7	992.85
1027.536	3003.5812	1860.8	975.5
1027.6478	3004.6404	1841.9	957.2
1027.7596	3005.6989	1830.4	947.25
1027.8714	3006.7567	1822.85	939.95
1027.9831	3007.8139	1839.45	933.8
1028.0947	3008.8705	1813.3	928.95
1028.2064	3009.9264	1821	920.9
1028.3179	3010.9818	1803.25	919.6
1028.4295	3012.0364	1787.15	903.25
1028.541	3013.0905	1785.7	901.35
1028.6524	3014.1439	1773.4	889.5
1028.7638	3015.1966	1771.4	889.05
1028.8752	3016.2487	1765.5	882.85
1028.9865	3017.3002	1780.05	887.85
1029.0978	3018.3511	1766.25	883.7
1029.209	3019.4013	1769.5	886.9
1029.3202	3020.4509	1765	882.85
1029.4314	3021.4998	1764.35	879.4
1029.5425	3022.5481	1762.45	878.45
1029.6535	3023.5958	1755	870.45
1029.7645	3024.6428	1760.25	874.1
1029.8755	3025.6892	1748.95	866.3
1029.9864	3026.735	1760.5	876.3
1030.0973	3027.7802	1762.65	878.3
1030.2082	3028.8247	1758.35	874.55
1030.319	3029.8685	1760.1	877.6
1030.4297	3030.9118	1760.75	876.4
1030.5404	3031.9544	1764.55	881.75
1030.6511	3032.9963	1762.1	879.85
1030.7617	3034.0376	1775.55	892.65
1030.8723	3035.0783	1764.65	877.25
1030.9829	3036.1184	1771.3	887.8
1031.0934	3037.1578	1769.6	887
1031.2038	3038.1966	1776	890.9
1031.3142	3039.2348	1768.5	886.35
1031.4246	3040.2723	1779.9	886.8
1031.5349	3041.3092	1764.7	882.6
1031.6452	3042.3455	1769.15	885.3
1031.7554	3043.3811	1758.8	874.6
1031.8656	3044.4161	1753.55	867.25
1031.9758	3045.4505	1741.85	860.55
1032.0859	3046.4842	1748.4	864.8
1032.1959	3047.5173	1739.2	858.7
1032.3059	3048.5498	1729.05	845.25
1032.4159	3049.5816	1721.8	837.5
1032.5258	3050.6128	1708.35	823.4
1032.6357	3051.6434	1700.7	814.5
1032.7455	3052.6734	1688.85	803.95
1032.8553	3053.7027	1683.65	801.05
1032.9651	3054.7314	1679	795.8
1033.0748	3055.7594	1675.5	792.5
1033.1845	3056.7868	1669.4	784.8
1033.2941	3057.8136	1663.1	780.9
1033.4037	3058.8398	1654.55	773.1
1033.5132	3059.8653	1642.35	759.35
1033.6227	3060.8902	1642.05	760.6
1033.7321	3061.9145	1630.1	745.55
1033.8415	3062.9381	1622.35	739.55
1033.9509	3063.9612	1631.4	731.75
1034.0602	3064.9835	1609.55	727.4
1034.1694	3066.0053	1608.7	723.65
1034.2787	3067.0264	1588.5	707.15
1034.3878	3068.0469	1587.2	703.35
1034.497	3069.0668	1585.1	698.55
1034.6061	3070.086	1575.55	694.25
1034.7151	3071.1046	1568.6	685.85
1034.8241	3072.1226	1547.5	661.5
1034.9331	3073.1399	1545.55	665.1
1035.042	3074.1567	1538	654.3
1035.1508	3075.1727	1517.8	632.75
1035.2597	3076.1882	1508.25	622.7
1035.3684	3077.203	1498.4	616.4
1035.4772	3078.2173	1493.3	610.7
1035.5859	3079.2308	1483.55	597.25
1035.6945	3080.2438	1477.55	592.1
1035.8031	3081.2561	1469.15	584.8
1035.9117	3082.2678	1448.95	566.4
1036.0202	3083.2789	1443.35	561.35
1036.1286	3084.2893	1437.3	553.4
1036.2371	3085.2991	1435.2	552.1
1036.3454	3086.3083	1427.3	540.25
1036.4538	3087.3169	1419.8	535.4
1036.562	3088.3248	1417.5	531.55
1036.6703	3089.3321	1410.25	524.15
1036.7785	3090.3388	1405.6	524.6
1036.8866	3091.3449	1396.5	513.8
1036.9948	3092.3503	1393.5	508.65
1037.1028	3093.3551	1390.5	509.9
1037.2108	3094.3593	1378.35	496.8
1037.3188	3095.3629	1381.7	501.05
1037.4267	3096.3658	1372.4	487.7
1037.5346	3097.3681	1370.95	490.2
1037.6425	3098.3698	1367.35	482.55
1037.7503	3099.3708	1365.1	475.95
1037.858	3100.3713	1353.75	473.6
1037.9657	3101.3711	1351.1	467.7
1038.0734	3102.3702	1479.45	459.9
1038.181	3103.3688	1358.1	472.2
1038.2886	3104.3667	1343.35	461.9
1038.3961	3105.364	1342	460.75
1038.5036	3106.3607	1336.55	452.65
1038.611	3107.3568	1332.05	450.9
1038.7184	3108.3522	1325.6	446.75
1038.8257	3109.347	1328.15	443.75
1038.933	3110.3412	1331.5	443.65
1039.0403	3111.3348	1315.75	433.8
1039.1475	3112.3277	1323.8	440.6
1039.2547	3113.32	1312.15	432
1039.3618	3114.3117	1316.65	431.85
1039.4689	3115.3028	1308.2	425.3
1039.5759	3116.2932	1308.95	424.85
1039.6829	3117.2831	1304.05	417.5
1039.7898	3118.2723	1302.65	421.55
1039.8967	3119.2608	1304.35	421
1040.0035	3120.2488	1298	415.8
1040.1103	3121.2361	1289.95	408.25
1040.2171	3122.2229	1282.65	401.2
1040.3238	3123.209	1284.15	400.65
1040.4305	3124.1944	1283.1	399.9
1040.5371	3125.1793	1283.4	399.55
1040.6437	3126.1635	1276.75	395.6
1040.7502	3127.1471	1282.2	400.45
1040.8567	3128.1301	1274.1	391.1
1040.9631	3129.1125	1273.5	392.2
1041.0695	3130.0942	1272.4	389.1
1041.1759	3131.0753	1282.6	390.3
1041.2822	3132.0558	1268.75	382.15
1041.3884	3133.0357	1264	380
1041.4946	3134.015	1254.95	371.85
1041.6008	3134.9936	1254.85	372.9
1041.7069	3135.9716	1278.25	374.95
1041.813	3136.949	1255.45	373.75
1041.919	3137.9258	1275.9	374.65
1042.025	3138.902	1254.8	366.2
1042.1309	3139.8775	1253.25	372.4
1042.2368	3140.8524	1247.7	366.3
1042.3427	3141.8267	1245.8	362.3
1042.4485	3142.8004	1242.95	363.15
1042.5542	3143.7735	1242.4	354.35
1042.6599	3144.7459	1242.15	358.4
1042.7656	3145.7178	1244.55	361.7
1042.8712	3146.689	1230.15	348.3
1042.9768	3147.6596	1234.25	350.95
1043.0823	3148.6295	1234.15	348.95
1043.1878	3149.5989	1230.5	348.85
1043.2932	3150.5676	1223.25	345.15
1043.3986	3151.5357	1221.7	339.75
1043.5039	3152.5032	1221.1	340.9
1043.6092	3153.4701	1213.85	332.55
1043.7145	3154.4364	1218.1	333
1043.8197	3155.402	1210.15	329.2
1043.9248	3156.367	1218.6	334.35
1044.03	3157.3315	1254.55	332.4
1044.135	3158.2952	1214.2	330.75
1044.24	3159.2584	1205.25	323.6
1044.345	3160.221	1207.5	322.35
1044.4499	3161.1829	1202.5	319.3
1044.5548	3162.1442	1199.3	316.4
1044.6596	3163.105	1200.95	320.3
1044.7644	3164.065	1196.6	313.35
1044.8692	3165.0245	1195.75	311.7
1044.9739	3165.9834	1190.05	308.75
1045.0785	3166.9416	1191.6	310.85
1045.1831	3167.8993	1184.8	302.95
1045.2877	3168.8563	1193.45	309.95
1045.3922	3169.8127	1187.5	306.25
1045.4966	3170.7684	1183.6	302
1045.6011	3171.7236	1182.95	301.2
1045.7054	3172.6782	1179.8	297.45
1045.8098	3173.6321	1177.45	296.45
1045.914	3174.5854	1182.85	297.85
1046.0183	3175.5381	1175.15	294.7
1046.1224	3176.4902	1180.3	298.95
1046.2266	3177.4417	1170.75	288.45
1046.3307	3178.3926	1175.5	293.8
1046.4347	3179.3428	1172.1	291.7
1046.5387	3180.2924	1170	289.85
1046.6427	3181.2415	1164.35	280.2
1046.7466	3182.1899	1166.5	284.95
1046.8504	3183.1377	1162.9	282.1
1046.9542	3184.0848	1163.7	280.15
1047.058	3185.0314	1159.95	278.2
1047.1617	3185.9773	1162.65	280
1047.2654	3186.9227	1158.05	274.8
1047.369	3187.8674	1154.85	273.55
1047.4726	3188.8115	1160.1	273.3
1047.5761	3189.755	1152.95	272.2
1047.6796	3190.6979	1146.6	264.85
1047.783	3191.6402	1149.55	268.5
1047.8864	3192.5818	1148.7	267.3
1047.9898	3193.5229	1154.7	265.75
1048.0931	3194.4633	1146.2	264.6
1048.1963	3195.4031	1144.6	263.3
1048.2995	3196.3423	1143.9	262.55
1048.4027	3197.2809	1138.95	257.6
1048.5058	3198.2189	1139.15	257.5
1048.6089	3199.1563	1146.75	259.6
1048.7119	3200.0931	1133.55	251.85
1048.8148	3201.0292	1134.35	254.6
1048.9178	3201.9648	1132.25	250.15
1049.0206	3202.8997	1135.8	250.6
1049.1235	3203.834	1128.05	247.2
1049.2262	3204.7677	1126.8	242.95
1049.329	3205.7008	1128.55	246.45
1049.4317	3206.6333	1125.85	245.6
1049.5343	3207.5652	1130.55	247.9
1049.6369	3208.4964	1129.95	249.15
1049.7394	3209.4271	1122.85	243.05
1049.8419	3210.3571	1120.9	239.55
1049.9444	3211.2865	1122.3	238.1
1050.0468	3212.2154	1123.7	239.3
1050.1491	3213.1436	1123.55	240
1050.2514	3214.0712	1126.9	238.15
1050.3537	3214.9982	1119.35	237.15
1050.4559	3215.9246	1114.15	232.65
1050.5581	3216.8503	1116.6	236.05
1050.6602	3217.7755	1116.95	236.45
1050.7623	3218.7001	1113.05	232
1050.8643	3219.624	1115.65	234.55
1050.9663	3220.5473	1111.85	229.85
1051.0682	3221.4701	1113.55	228.65
1051.1701	3222.3922	1109.4	228.8
1051.2719	3223.3137	1110.3	228.2
1051.3737	3224.2346	1103.75	222.1
1051.4754	3225.1549	1104.6	225.4
1051.5771	3226.0746	1099.55	218.65
1051.6788	3226.9937	1104.4	223.4
1051.7804	3227.9121	1104.4	222.7
1051.8819	3228.83	1101.8	221.8
1051.9834	3229.7473	1102.3	221.25
1052.0849	3230.6639	1098.75	218.4
1052.1863	3231.5799	1094.15	215.7
1052.2876	3232.4954	1094.95	212.85
1052.3889	3233.4102	1090.3	209.65
1052.4902	3234.3244	1090.65	208.35
1052.5914	3235.238	1089.4	207.25
1052.6926	3236.151	1111.3	202.25
1052.7937	3237.0634	1086.4	206.2
1052.8948	3237.9752	1081.65	198.5
1052.9958	3238.8864	1085.9	203.75
1053.0968	3239.797	1088.1	206.25
1053.1977	3240.7069	1079.4	199.8
1053.2986	3241.6163	1082.8	201.2
1053.3994	3242.5251	1077.2	194.05
1053.5002	3243.4332	1079.35	200.6
1053.6009	3244.3408	1073.4	192.95
1053.7016	3245.2477	1073.95	192
1053.8022	3246.154	1076.15	194.7
1053.9028	3247.0598	1072.95	191.65
1054.0034	3247.9649	1071	189.05
1054.1039	3248.8694	1074.75	193.55
1054.2043	3249.7733	1071.85	191.45
1054.3047	3250.6766	1070	187.35
1054.4051	3251.5793	1067.7	183.95
1054.5054	3252.4814	1066.95	186.6
1054.6056	3253.3829	1064.5	183.65
1054.7058	3254.2838	1060.3	179
1054.806	3255.1841	1060.55	180.15
1054.9061	3256.0838	1064.05	180.85
1055.0061	3256.9829	1058.15	179.55
1055.1062	3257.8814	1057.65	175.55
1055.2061	3258.7792	1056.55	173.15
1055.306	3259.6765	1055.4	173.85
1055.4059	3260.5731	1056.6	174.95
1055.5057	3261.4692	1049.7	169.2
1055.6055	3262.3647	1046.45	164.5
1055.7052	3263.2595	1047.25	166.1
1055.8049	3264.1538	1040.95	161.65
1055.9045	3265.0474	1043.15	162.45
1056.0041	3265.9404	1038.1	159.25
1056.1036	3266.8329	1036.75	157.85
1056.2031	3267.7247	1046.15	155.6
1056.3025	3268.616	1027.25	148.35
1056.4019	3269.5066	1025.1	144.9
1056.5013	3270.3966	1028	143.6
1056.6005	3271.286	1018.8	140.3
