Software Version:	3.9.2.0
Unit SN:	10000200
Spectrometer SN:	6960
Date:	3/26/2024 2:25:27 PM
Data Line Index:	25
Spectral Points:	2048
Integration time (ms):	125
Averages:	20
Delay (ms):	30000
Sequence Number:	1
Processing:	dark subtract
Laser Power (mW):	300
Laser Current (mA):	820
Laser Diode Temp (C):	25
Laser Case Temp (C):	27.7
System Temp (C):	27.8
Spectrometer Temp (C):	25.5
CCD Temp (C):	0.008
Secondary Temp (C):	20.011
Heatsink Temp (C):	23.489
CCDPCB Temp (C):	37.141
SecondaryPCB Temp (C):	34.328

Wavelength	RamanShift	Raw Counts	Dark Subtracted
787.061	30.1047	659.9	250.15
787.2016	32.3739	673.2	265.05
787.3422	34.6426	691.45	282.7
787.4828	36.9109	711.35	301.25
787.6235	39.1787	735.45	319.7
787.7642	41.4461	761.55	341.7
787.9049	43.7131	788.85	367.3
788.0456	45.9796	814.95	385.7
788.1863	48.2456	840.45	409.8
788.3271	50.5112	866.1	428.95
788.4679	52.7764	895.25	458.3
788.6087	55.0411	926.35	485.5
788.7496	57.3054	971	526
788.8904	59.5692	1000.3	550.7
789.0313	61.8326	1044.75	591.55
789.1722	64.0955	1077.2	621.1
789.3132	66.3579	1139.4	678.35
789.4541	68.6199	1200.05	734.35
789.5951	70.8815	1297.8	831.2
789.7361	73.1426	1521.2	1049.75
789.8771	75.4032	2074.55	1598.7
790.0181	77.6634	3431.4	2947.05
790.1592	79.9231	6881.85	6388.75
790.3003	82.1824	14778.6	14266.75
790.4414	84.4412	34731.3	34186.95
790.5825	86.6995	62715.8	62123.3
790.7237	88.9574	65535	64900
790.8648	91.2148	65535	64873.25
791.006	93.4717	65535	64851.45
791.1472	95.7282	65535	64836.35
791.2885	97.9842	65535	64829.65
791.4297	100.2398	65535	64834.6
791.571	102.4949	65535	64827.4
791.7123	104.7495	65535	64830.9
791.8536	107.0036	65535	64818.75
791.9949	109.2573	65535	64821.95
792.1363	111.5105	65535	64818.85
792.2777	113.7632	65535	64817.55
792.4191	116.0154	65535	64804.8
792.5605	118.2672	65535	64814.2
792.7019	120.5185	65535	64814.35
792.8434	122.7693	65535	64810.45
792.9849	125.0197	65535	64809.9
793.1264	127.2696	65535	64807.05
793.2679	129.519	65535	64801.3
793.4094	131.7679	65535	64795.85
793.551	134.0163	65535	64794.95
793.6926	136.2642	65535	64790.3
793.8342	138.5117	65535	64789.5
793.9758	140.7587	65535	64785.05
794.1175	143.0052	65535	64781.25
794.2591	145.2512	65535	64786.65
794.4008	147.4967	65535	64783.8
794.5425	149.7417	65535	64780.4
794.6842	151.9863	65535	64780.3
794.826	154.2304	65535	64772.9
794.9677	156.4739	65535	64770.9
795.1095	158.717	65535	64772.05
795.2513	160.9596	65535	64762.85
795.3931	163.2017	65535	64762
795.535	165.4433	65535	64760.35
795.6768	167.6844	65535	64758.05
795.8187	169.925	65535	64757.1
795.9606	172.1651	65535	64757.25
796.1025	174.4047	65535	64754
796.2445	176.6439	65535	64755.7
796.3864	178.8825	65535	64748.45
796.5284	181.1206	65535	64743.6
796.6704	183.3582	65535	64736.1
796.8124	185.5954	65535	64739.6
796.9544	187.832	65535	64736.7
797.0965	190.0681	65535	64737.1
797.2386	192.3037	65535	64730.45
797.3806	194.5388	65535	64723.05
797.5228	196.7734	65535	64729.1
797.6649	199.0075	65535	64715.5
797.807	201.2411	65535	64716.95
797.9492	203.4742	65535	64717.25
798.0914	205.7068	65535	64717.45
798.2336	207.9389	65535	64719.4
798.3758	210.1704	65535	64712.95
798.518	212.4015	65535	64711.35
798.6603	214.632	65535	64711.55
798.8025	216.862	65535	64722
798.9448	219.0915	65535	64726.4
799.0871	221.3205	65535	64728.35
799.2294	223.549	65535	64727.45
799.3718	225.777	65535	64733.4
799.5141	228.0044	65535	64733.2
799.6565	230.2314	65535	64733.75
799.7989	232.4578	65535	64732.8
799.9413	234.6837	65535	64728.95
800.0837	236.909	65535	64722.35
800.2262	239.1339	65535	64699.65
800.3687	241.3582	65535	64712.1
800.5111	243.582	65535	64683.75
800.6536	245.8053	65535	64691.9
800.7961	248.0281	65535	64699.3
800.9387	250.2503	65535	64697.75
801.0812	252.472	65535	64687.1
801.2238	254.6932	65535	64688.75
801.3664	256.9139	65535	64685.75
801.509	259.134	65535	64682.25
801.6516	261.3536	65535	64683.55
801.7942	263.5727	65535	64680.85
801.9369	265.7912	65535	64679.15
802.0795	268.0092	65535	64678.75
802.2222	270.2267	65535	64682.85
802.3649	272.4436	65535	64682.45
802.5076	274.6601	65535	64676.95
802.6504	276.8759	65535	64680.5
802.7931	279.0913	65535	64677.1
802.9359	281.3061	65535	64678.4
803.0787	283.5204	65535	64672.55
803.2215	285.7341	65535	64672.95
803.3643	287.9473	65535	64657.1
803.5071	290.16	65535	64662.6
803.6499	292.3721	65535	64667.35
803.7928	294.5837	65535	64664.75
803.9357	296.7947	65535	64667.25
804.0786	299.0052	65535	64668.45
804.2215	301.2152	65535	64665.55
804.3644	303.4246	65535	64668.4
804.5074	305.6334	65535	64671.45
804.6503	307.8418	65535	64665.6
804.7933	310.0495	65535	64665.75
804.9363	312.2568	65535	64666.2
805.0793	314.4635	65535	64661.8
805.2223	316.6696	65535	64662.5
805.3653	318.8752	65535	64655.3
805.5084	321.0802	65535	64663.05
805.6514	323.2847	65535	64657.7
805.7945	325.4887	65535	64654.3
805.9376	327.692	65535	64660.35
806.0807	329.8949	65535	64658.2
806.2238	332.0972	65535	64659.05
806.367	334.2989	65535	64652.2
806.5101	336.5001	65535	64652.35
806.6533	338.7007	65535	64646.7
806.7965	340.9008	65535	64648.45
806.9397	343.1003	65535	64649.5
807.0829	345.2992	65535	64649
807.2261	347.4976	65535	64646.75
807.3693	349.6955	65535	64641.95
807.5126	351.8927	65535	64643.25
807.6559	354.0895	65535	64632.2
807.7991	356.2856	65535	64645.05
807.9424	358.4812	65535	64640.75
808.0857	360.6763	65535	64637
808.2291	362.8707	65535	64636.1
808.3724	365.0646	65535	64637.1
808.5158	367.258	65535	64636.75
808.6591	369.4508	65535	64629.6
808.8025	371.643	65535	64630.35
808.9459	373.8346	65535	64629.5
809.0893	376.0257	65535	64625.5
809.2327	378.2162	65535	64629.55
809.3762	380.4062	65535	64625.35
809.5196	382.5956	65535	64626.9
809.6631	384.7844	65535	64627.8
809.8066	386.9726	65535	64627.9
809.9501	389.1603	65535	64627.4
810.0936	391.3474	65535	64592.3
810.2371	393.5339	65535	64632.15
810.3806	395.7199	65535	64634.6
810.5241	397.9052	65535	64632.75
810.6677	400.09	65535	64636.65
810.8113	402.2743	65535	64639.2
810.9548	404.4579	65535	64639.8
811.0984	406.641	65535	64639.65
811.2421	408.8235	65535	64642.3
811.3857	411.0054	65535	64640
811.5293	413.1868	65535	64631.45
811.673	415.3675	65535	64629.5
811.8166	417.5477	65535	64630.8
811.9603	419.7273	65535	64632.3
812.104	421.9064	65535	64625.2
812.2477	424.0848	65535	64627.35
812.3914	426.2627	65535	64626.7
812.5351	428.4399	65535	64620.85
812.6788	430.6166	65535	64619.2
812.8226	432.7928	65535	64623
812.9663	434.9683	65535	64623.25
813.1101	437.1432	65535	64623.3
813.2539	439.3176	65535	64627.5
813.3977	441.4914	65535	64628.45
813.5415	443.6645	65535	64626.1
813.6853	445.8371	65535	64621.3
813.8291	448.0091	65535	64623.8
813.973	450.1806	65535	64620.85
814.1168	452.3514	65535	64626.65
814.2607	454.5216	65535	64615.65
814.4046	456.6913	65535	64620.95
814.5485	458.8603	65535	64622.7
814.6924	461.0288	65535	64628.7
814.8363	463.1967	65535	64631.6
814.9802	465.3639	65535	64624.65
815.1241	467.5306	65535	64626.9
815.2681	469.6967	65535	64624.2
815.412	471.8622	65535	64630.7
815.556	474.0271	65535	64624.8
815.7	476.1914	65535	64619.75
815.844	478.3551	65535	64619.4
815.988	480.5182	65535	64624.35
816.132	482.6807	65535	64628.4
816.276	484.8426	65535	64636.2
816.4201	487.0039	65535	64632.7
816.5641	489.1647	65535	64619.5
816.7082	491.3248	65535	64619.25
816.8522	493.4843	65535	64622.7
816.9963	495.6432	65535	64624.3
817.1404	497.8015	65535	64615.85
817.2845	499.9592	65535	64609
817.4286	502.1163	65535	64615.6
817.5727	504.2728	65535	64616.55
817.7168	506.4287	65535	64629.5
817.861	508.5839	65535	64628.7
818.0051	510.7386	65535	64620.35
818.1493	512.8927	65535	64611.5
818.2935	515.0461	65535	64617.8
818.4377	517.199	65535	64611.6
818.5818	519.3512	65535	64612.15
818.726	521.5029	65535	64612.95
818.8703	523.6539	65535	64614.1
819.0145	525.8043	65535	64611.6
819.1587	527.9541	65535	64612.05
819.303	530.1033	65535	64615.2
819.4472	532.2519	65535	64614.55
819.5915	534.3999	65535	64612.9
819.7357	536.5472	65535	64615.05
819.88	538.694	65535	64614.15
820.0243	540.8401	65535	64612.8
820.1686	542.9856	65535	64604.35
820.3129	545.1305	65535	64598.25
820.4572	547.2748	65535	64594.65
820.6016	549.4185	65535	64594.75
820.7459	551.5615	65535	64601.25
820.8902	553.704	65535	64594.9
821.0346	555.8458	65535	64599.4
821.1789	557.987	65535	64601.3
821.3233	560.1276	65535	64600.8
821.4677	562.2675	65535	64597.65
821.6121	564.4069	65535	64598.05
821.7565	566.5456	65535	64602.8
821.9009	568.6837	65535	64601.15
822.0453	570.8212	65535	64604.3
822.1897	572.958	65535	64603.35
822.3342	575.0942	65535	64607.25
822.4786	577.2299	65535	64613.95
822.6231	579.3648	65535	64623.1
822.7675	581.4992	65535	64627.6
822.912	583.6329	65535	64631.7
823.0565	585.766	65535	64627
823.201	587.8985	65535	64620.9
823.3454	590.0304	65535	64587.55
823.4899	592.1616	65535	64607.5
823.6345	594.2922	65535	64603.1
823.779	596.4222	65535	64600.45
823.9235	598.5515	65535	64598
824.068	600.6802	65535	64595
824.2126	602.8083	65535	64602.9
824.3571	604.9358	65535	64598.55
824.5017	607.0626	65535	64598.2
824.6462	609.1888	65535	64593.6
824.7908	611.3144	65535	64588.6
824.9354	613.4393	65535	64595.2
825.08	615.5636	65535	64591.7
825.2246	617.6873	65535	64594.3
825.3692	619.8103	65535	64598.45
825.5138	621.9327	65535	64596.9
825.6584	624.0544	65535	64603.95
825.803	626.1756	65535	64604.25
825.9477	628.2961	65535	64596.4
826.0923	630.4159	65535	64599
826.237	632.5351	65535	64594.55
826.3816	634.6537	65535	64593.65
826.5263	636.7716	65535	64589.75
826.6709	638.8889	65535	64592.15
826.8156	641.0056	65535	64585.75
826.9603	643.1216	65535	64592.25
827.105	645.237	65535	64592.6
827.2497	647.3518	65535	64598.2
827.3944	649.4659	65535	64603.6
827.5391	651.5793	65535	64599.3
827.6838	653.6922	65535	64600.8
827.8285	655.8043	65535	64601.5
827.9733	657.9159	65535	64594.5
828.118	660.0268	65535	64595.8
828.2627	662.137	65535	64592.4
828.4075	664.2466	65535	64587.4
828.5522	666.3556	65535	64590.65
828.697	668.4639	65535	64593.7
828.8418	670.5716	65535	64601.25
828.9865	672.6786	65535	64594.3
829.1313	674.785	65535	64590.55
829.2761	676.8907	65535	64592.1
829.4209	678.9958	65535	64600.05
829.5657	681.1002	65535	64594.35
829.7105	683.204	65535	64586.5
829.8553	685.3072	65535	64587.6
830.0001	687.4097	65535	64589.95
830.1449	689.5115	65535	64590.1
830.2898	691.6127	65535	64593.3
830.4346	693.7132	65535	64592.6
830.5794	695.8131	65535	64574
830.7243	697.9123	65535	64584.4
830.8691	700.0109	65535	64585.55
831.014	702.1089	65535	64590.65
831.1588	704.2061	65535	64587.9
831.3037	706.3028	65535	64586.1
831.4486	708.3987	65535	64587.7
831.5935	710.4941	65535	64588.95
831.7383	712.5887	65535	64589.45
831.8832	714.6827	65535	64588.3
832.0281	716.7761	65535	64592.55
832.173	718.8688	65535	64591
832.3179	720.9608	65535	64581.75
832.4628	723.0522	65535	64577.35
832.6077	725.1429	65535	64586
832.7527	727.233	65535	64584.45
832.8976	729.3224	65535	64583.35
833.0425	731.4112	65535	64590.25
833.1874	733.4993	65535	64586
833.3324	735.5867	65535	64587.45
833.4773	737.6735	65535	64588
833.6222	739.7596	65535	64582.75
833.7672	741.845	65535	64582.25
833.9122	743.9298	65535	64587.3
834.0571	746.014	65535	64585.15
834.2021	748.0974	65535	64582.2
834.347	750.1802	65535	64579.2
834.492	752.2624	65535	64580.1
834.637	754.3439	65535	64579.65
834.782	756.4247	65535	64575.45
834.9269	758.5048	65535	64580.1
835.0719	760.5843	65535	64579.5
835.2169	762.6631	65535	64577.45
835.3619	764.7413	65535	64581.7
835.5069	766.8188	65535	64579.1
835.6519	768.8956	65535	64582.8
835.7969	770.9718	65535	64580.15
835.9419	773.0473	65535	64581.6
836.0869	775.1221	65535	64581.95
836.232	777.1962	65535	64584.05
836.377	779.2697	65535	64581.15
836.522	781.3426	65535	64560.35
836.667	783.4147	65535	64577
836.8121	785.4862	65535	64580.75
836.9571	787.557	65535	64577.9
837.1021	789.6271	65535	64580.05
837.2472	791.6966	65535	64579.8
837.3922	793.7654	65535	64582
837.5373	795.8335	65535	64584
837.6823	797.901	65535	64577.95
837.8274	799.9678	65535	64582.65
837.9724	802.0339	65535	64579.35
838.1175	804.0993	65535	64568.3
838.2626	806.1641	65535	64578.4
838.4076	808.2282	65535	64585.55
838.5527	810.2916	65535	64579.5
838.6978	812.3544	65535	64584.15
838.8428	814.4164	65535	64582.8
838.9879	816.4778	65535	64577.5
839.133	818.5385	65535	64575.35
839.2781	820.5986	65535	64578.9
839.4232	822.658	65535	64576.6
839.5682	824.7166	65535	64574.45
839.7133	826.7747	65535	64578.55
839.8584	828.832	65535	64576.2
840.0035	830.8886	65535	64578.2
840.1486	832.9446	65535	64575
840.2937	834.9999	65535	64576.25
840.4388	837.0545	65535	64570.95
840.5839	839.1085	65535	64578.75
840.729	841.1618	65535	64576.3
840.8741	843.2143	65535	64577.4
841.0192	845.2662	65535	64573
841.1643	847.3175	65535	64577.55
841.3095	849.368	65522.2	64564.55
841.4546	851.4179	65535	64576.2
841.5997	853.467	65530.55	64574.3
841.7448	855.5155	65535	64573.85
841.8899	857.5633	65517.35	64562.65
842.0351	859.6105	65511.15	64555.95
842.1802	861.6569	65519.15	64560.5
842.3253	863.7027	65472.6	64510.75
842.4704	865.7478	65506.05	64547.4
842.6156	867.7922	65500.65	64543.15
842.7607	869.8359	65514.75	64554.65
842.9058	871.8789	65456.75	64495.95
843.0509	873.9212	65496.25	64504.55
843.1961	875.9629	65508.3	64547.8
843.3412	878.0039	65498.2	64540.85
843.4863	880.0441	65477.35	64519.1
843.6315	882.0837	65471.6	64513.1
843.7766	884.1226	65443.95	64484.65
843.9218	886.1609	65442	64484.65
844.0669	888.1984	65377.6	64418.7
844.212	890.2352	65470.95	64515.4
844.3572	892.2714	65335.35	64373.45
844.5023	894.3069	65406.95	64446
844.6475	896.3416	65337.25	64381.05
844.7926	898.3757	65331.85	64376.2
844.9377	900.4091	65102.65	64141.25
845.0829	902.4418	65371.2	64405.45
845.228	904.4739	65241.6	64280
845.3732	906.5052	65237.45	64274.3
845.5183	908.5358	65143.2	64177.7
845.6635	910.5658	65085.35	64126.55
845.8086	912.595	65064.45	64105.3
845.9538	914.6236	64692.95	63733
846.0989	916.6515	65176.4	64214.35
846.2441	918.6786	64694.35	63728.9
846.3892	920.7051	64849.3	63888.55
846.5344	922.7309	64775.85	63811.75
846.6795	924.756	64876.35	63916.95
846.8246	926.7804	64676.6	63715.9
846.9698	928.8041	64114.25	63153.8
847.1149	930.8272	64560.05	63597.2
847.2601	932.8495	64607	63642.75
847.4052	934.8711	64159.1	63197.45
847.5504	936.892	63790.05	62829.5
847.6955	938.9123	64012.95	63047.2
847.8407	940.9318	63630.25	62667.9
847.9858	942.9506	63538.8	62577.5
848.131	944.9688	63623.2	62663.75
848.2761	946.9862	62734.25	61773.8
848.4213	949.003	63145.45	62185.9
848.5664	951.019	62297.15	61334.2
848.7115	953.0344	62460.5	61499.7
848.8567	955.0491	62367.9	61407.85
849.0018	957.063	62656.95	61695.3
849.147	959.0763	62721.6	61751.95
849.2921	961.0888	62067.75	61107.85
849.4373	963.1007	62574.9	61617.75
849.5824	965.1119	62536.5	61584.1
849.7275	967.1223	62039.6	61096.1
849.8727	969.1321	62661.3	61716.2
850.0178	971.1412	61885.6	60932.65
850.1629	973.1495	61611.1	60655.25
850.3081	975.1572	61949.2	60938.65
850.4532	977.1641	61633.9	60671.7
850.5983	979.1704	61498.15	60537.75
850.7435	981.1759	61622.35	60661.55
850.8886	983.1808	61124.05	60162.1
851.0337	985.1849	61177.65	60207.85
851.1788	987.1884	61403.65	60442.55
851.324	989.1911	61830.15	60869.05
851.4691	991.1932	60626.75	59670
851.6142	993.1945	60934.75	59977.55
851.7593	995.1951	61215.8	60260.4
851.9045	997.1951	60508.4	59544.5
852.0496	999.1943	60276.75	59313.95
852.1947	1001.1928	60047.9	59088.2
852.3398	1003.1906	60228.4	59268.6
852.4849	1005.1877	59288.5	58327.2
852.63	1007.1841	59023.2	58062.95
852.7751	1009.1798	58939	57984.5
852.9202	1011.1748	58849.6	57894.85
853.0653	1013.1691	58571.6	57612.2
853.2104	1015.1627	57127.45	56166.65
853.3555	1017.1556	57303.15	56346.75
853.5006	1019.1477	57521.25	56566
853.6457	1021.1392	56744.8	55796.5
853.7908	1023.1299	55965.1	55016.1
853.9359	1025.12	56381.6	55438.3
854.081	1027.1093	55859.35	54925.85
854.2261	1029.0979	55884.95	54953.8
854.3712	1031.0859	55777.45	54840.7
854.5163	1033.0731	55066.7	54122
854.6613	1035.0596	55138	54189.55
854.8064	1037.0454	54942.8	53991.85
854.9515	1039.0304	54454.25	53501.55
855.0965	1041.0148	53813.25	52861.15
855.2416	1042.9985	53780.95	52824.55
855.3867	1044.9814	53902.9	52954.4
855.5317	1046.9636	53404.35	52444.35
855.6768	1048.9452	53262.55	52308.95
855.8219	1050.926	53137.95	52184.95
855.9669	1052.9061	52955.8	52000.55
856.112	1054.8855	52944.65	51989.9
856.257	1056.8642	52610.95	51658
856.4021	1058.8421	52479.6	51517.25
856.5471	1060.8194	52428.8	51474.25
856.6921	1062.7959	52195.3	51242.35
856.8372	1064.7717	52183.25	51224.75
856.9822	1066.7469	52036.25	51080.3
857.1272	1068.7213	51921.8	50961.95
857.2723	1070.695	51643.6	50691.3
857.4173	1072.6679	51212.7	50258.85
857.5623	1074.6402	51204.75	50250.1
857.7073	1076.6117	51001.15	50042.05
857.8523	1078.5826	50972	50014.75
857.9973	1080.5527	50860.2	49903.1
858.1423	1082.5221	50815.3	49862.25
858.2873	1084.4908	50937.2	49984.5
858.4323	1086.4587	50998	50039.95
858.5773	1088.426	51064.05	50107.3
858.7223	1090.3925	50816.25	49855.45
858.8673	1092.3584	50667.8	49711.6
859.0123	1094.3235	50143.55	49189.9
859.1573	1096.2879	49926.75	48972.05
859.3022	1098.2515	49770.45	48817.65
859.4472	1100.2145	49712.55	48762.3
859.5922	1102.1767	49552.15	48596.85
859.7371	1104.1382	49619.7	48666.35
859.8821	1106.099	49636.3	48681.75
860.027	1108.0591	49638.75	48683.95
860.172	1110.0185	49491.5	48533.3
860.3169	1111.9771	49537.6	48584.05
860.4619	1113.9351	49059.15	48106.1
860.6068	1115.8923	48500.2	47546.85
860.7517	1117.8488	48044.5	47090.9
860.8967	1119.8045	47515.8	46560.05
861.0416	1121.7596	47292.25	46336.1
861.1865	1123.7139	47034.55	46083.7
861.3314	1125.6675	46920.45	45970
861.4763	1127.6204	46955.05	46004.3
861.6212	1129.5726	46760.7	45805.05
861.7661	1131.524	46824.3	45871.1
861.911	1133.4748	46747.1	45794.25
862.0559	1135.4248	46591	45636.35
862.2008	1137.3741	46536.4	45585.9
862.3457	1139.3226	46389.2	45435.9
862.4905	1141.2705	46318.75	45367.3
862.6354	1143.2176	45903.4	44945.35
862.7803	1145.164	45895.9	44940.6
862.9251	1147.1097	45757.35	44803.8
863.07	1149.0546	45698.1	44744.9
863.2148	1150.9989	45527.15	44574.35
863.3597	1152.9424	45282.75	44328.6
863.5045	1154.8852	45028.95	44073.85
863.6493	1156.8272	44741.85	43790.85
863.7942	1158.7686	44599.15	43637.4
863.939	1160.7092	44376	43421.95
864.0838	1162.6491	44139.8	43185.85
864.2286	1164.5883	44187.45	43235.75
864.3734	1166.5267	44118.7	43163.5
864.5182	1168.4644	44159.65	43207.7
864.663	1170.4014	44174.45	43219.85
864.8078	1172.3377	44361.85	43412.75
864.9526	1174.2732	44472.6	43525.8
865.0974	1176.2081	44579.2	43631.25
865.2421	1178.1421	44581.5	43626.7
865.3869	1180.0755	44681.65	43730
865.5317	1182.0082	44482.5	43531.5
865.6764	1183.9401	44328.15	43381.7
865.8212	1185.8713	43978.3	43035.55
865.9659	1187.8017	43598.95	42657.7
866.1106	1189.7315	43259.3	42328.1
866.2554	1191.6605	42767	41834.4
866.4001	1193.5888	42456.65	41519.2
866.5448	1195.5163	42325.75	41382.1
866.6895	1197.4432	42029	41082.65
866.8342	1199.3693	41828.55	40881.85
866.9789	1201.2947	41607.6	40653.25
867.1236	1203.2193	41420.85	40472.6
867.2683	1205.1432	41344.75	40397.6
867.413	1207.0664	41224.75	40279.2
867.5576	1208.9889	41181.3	40228.55
867.7023	1210.9106	41047.95	40097
867.847	1212.8316	41047.05	40098.35
867.9916	1214.7519	40982.35	40025.25
868.1363	1216.6715	40876.05	39927.7
868.2809	1218.5903	40814.95	39865.7
868.4255	1220.5084	40599.65	39652.15
868.5701	1222.4257	40494.4	39550.4
868.7148	1224.3424	40183.75	39240.15
868.8594	1226.2583	40085.1	39133
869.004	1228.1735	40067.05	39120.35
869.1486	1230.0879	40049	39098.9
869.2932	1232.0016	40094.65	39149.05
869.4377	1233.9146	39930.35	38981.5
869.5823	1235.8269	39723.35	38776.85
869.7269	1237.7384	39575.6	38630.3
869.8715	1239.6492	39166.15	38222
870.016	1241.5592	39035	38085.85
870.1606	1243.4686	38781.6	37836
870.3051	1245.3772	38605.15	37655.35
870.4496	1247.285	38426.95	37479.35
870.5941	1249.1922	38223.8	37282.15
870.7387	1251.0986	38139.25	37195.85
870.8832	1253.0042	38012.5	37067.95
871.0277	1254.9092	37946.3	37000.75
871.1722	1256.8134	37916.05	36970.55
871.3167	1258.7169	37987.9	37039.25
871.4611	1260.6196	38081.05	37134.5
871.6056	1262.5216	38203.65	37257.65
871.7501	1264.4229	38238.95	37295.9
871.8945	1266.3234	38288.35	37342.7
872.039	1268.2232	38183.45	37238.8
872.1834	1270.1223	38074.75	37128.1
872.3278	1272.0207	37949.05	37003.6
872.4723	1273.9183	37805.4	36855.7
872.6167	1275.8151	37646.3	36701.55
872.7611	1277.7113	37478.8	36535.25
872.9055	1279.6067	37216.45	36275.2
873.0499	1281.5014	36915	35971.1
873.1943	1283.3953	36710.8	35764.7
873.3386	1285.2885	36470.2	35527.6
873.483	1287.181	36335.6	35392
873.6274	1289.0727	36331.2	35386.95
873.7717	1290.9637	36199.2	35258.35
873.9161	1292.854	36350.15	35409.2
874.0604	1294.7435	36320.3	35374.15
874.2047	1296.6323	36477.7	35532.35
874.349	1298.5204	36673.45	35726.4
874.4933	1300.4077	36844.7	35903.55
874.6376	1302.2943	36926.9	35981.95
874.7819	1304.1802	37020.9	36079.6
874.9262	1306.0653	36869.15	35925.65
875.0705	1307.9497	36605.35	35664.05
875.2147	1309.8333	36489.6	35546.95
875.359	1311.7162	36404.5	35462.15
875.5032	1313.5984	36443.9	35495.6
875.6475	1315.4798	36472.85	35518.5
875.7917	1317.3605	36578.1	35619.6
875.9359	1319.2405	36717.1	35771.35
876.0801	1321.1197	36645.8	35697.95
876.2243	1322.9982	36540.95	35593.15
876.3685	1324.876	36516.75	35576.95
876.5127	1326.753	36360.55	35418.15
876.6569	1328.6293	36338.95	35392.15
876.801	1330.5048	36349.45	35404.05
876.9452	1332.3796	36227.4	35283.65
877.0893	1334.2537	36163.2	35198.8
877.2335	1336.127	35983.65	35041.5
877.3776	1337.9996	35863.75	34921.7
877.5217	1339.8714	35740.85	34798.65
877.6658	1341.7426	35617.35	34628.6
877.8099	1343.6129	35444.95	34503.45
877.954	1345.4826	35264.6	34323.4
878.0981	1347.3515	35226	34279.35
878.2422	1349.2196	35047.55	34101
878.3862	1351.087	35014.9	34069.95
878.5303	1352.9537	34986.7	34040.85
878.6743	1354.8197	35068.15	34124.55
878.8184	1356.6849	35253.6	34306.75
878.9624	1358.5493	35158.2	34217.15
879.1064	1360.4131	35094.45	34152.35
879.2504	1362.276	34887.45	33947.4
879.3944	1364.1383	34651.35	33709.65
879.5384	1365.9998	34311.1	33364.55
879.6823	1367.8606	33962.45	33020.35
879.8263	1369.7206	33595.6	32651.35
879.9702	1371.5799	33360.9	32413.1
880.1142	1373.4384	33177.65	32237.4
880.2581	1375.2962	33030.45	32088.4
880.402	1377.1533	32625.7	31685.7
880.5459	1379.0096	32194.5	31256.05
880.6898	1380.8652	31895.15	30957.8
880.8337	1382.7201	31581.95	30643.15
880.9776	1384.5742	31250.85	30310.5
881.1215	1386.4275	30965.05	30023.9
881.2653	1388.2802	30756.7	29814.7
881.4092	1390.132	30558.15	29617.1
881.553	1391.9832	30461.8	29520.3
881.6968	1393.8336	30234.75	29292.1
881.8406	1395.6832	30126.55	29186.15
881.9844	1397.5322	29993.8	29051.15
882.1282	1399.3803	29954.7	29007.8
882.272	1401.2278	29701.15	28761.15
882.4158	1403.0745	29627.65	28689
882.5595	1404.9204	29470.05	28534.25
882.7033	1406.7656	29398.3	28457.8
882.847	1408.6101	29343.6	28402.15
882.9908	1410.4538	29204.6	28264.4
883.1345	1412.2968	29165.75	28226.9
883.2782	1414.139	29085.35	28144.65
883.4219	1415.9805	29111.85	28173.1
883.5656	1417.8213	29058	28096.2
883.7092	1419.6613	29069.65	28133.3
883.8529	1421.5006	29248.6	28310.2
883.9965	1423.3391	29400.6	28459.3
884.1402	1425.1769	29663.3	28725.4
884.2838	1427.0139	30120.6	29181.85
884.4274	1428.8502	30692.95	29751.6
884.571	1430.6858	31222	30282.75
884.7146	1432.5206	31550.35	30610.55
884.8582	1434.3547	31753.25	30813.85
885.0018	1436.188	31749.25	30808.75
885.1453	1438.0206	31644.85	30705.65
885.2889	1439.8524	31458.3	30520.7
885.4324	1441.6835	31267.35	30330.1
885.5759	1443.5139	31069.15	30127.65
885.7194	1445.3435	30907.4	29969.6
885.8629	1447.1724	30863.1	29927.65
886.0064	1449.0005	30693.1	29758.6
886.1499	1450.8279	30547.7	29611.05
886.2933	1452.6545	30482.3	29542.85
886.4368	1454.4804	30467.65	29532.55
886.5802	1456.3056	30375.55	29435.3
886.7237	1458.13	30248.75	29313
886.8671	1459.9536	30034.55	29099.05
887.0105	1461.7766	29577.05	28638.65
887.1539	1463.5987	29064.85	28125.8
887.2972	1465.4202	28588.25	27651.05
887.4406	1467.2409	28151.95	27216.1
887.584	1469.0608	27895.55	26959.1
887.7273	1470.88	27588.65	26652.05
887.8706	1472.6984	27297.85	26361.55
888.0139	1474.5161	27004.1	26065.75
888.1572	1476.3331	26744.7	25807.5
888.3005	1478.1493	26613.2	25676.5
888.4438	1479.9648	26515.25	25578.35
888.5871	1481.7795	26332.8	25398.3
888.7303	1483.5935	26224.7	25289.4
888.8736	1485.4067	26149.9	25214.15
889.0168	1487.2192	26062.65	25126
889.16	1489.031	25945.75	25007.2
889.3032	1490.842	25861.45	24930.95
889.4464	1492.6522	25831.95	24894.95
889.5896	1494.4618	25708.8	24772.05
889.7327	1496.2705	25646.4	24711.6
889.8759	1498.0785	25563.7	24628.65
890.019	1499.8858	25476.75	24539.2
890.1622	1501.6924	25393.5	24458
890.3053	1503.4981	25338.4	24402.1
890.4484	1505.3032	25274.4	24337.7
890.5914	1507.1075	25203.85	24268.3
890.7345	1508.911	25117.85	24184.1
890.8776	1510.7138	25043.55	24107.4
891.0206	1512.5159	24906	23971.9
891.1637	1514.3172	24778.15	23844
891.3067	1516.1178	24672.95	23740.55
891.4497	1517.9176	24638.35	23702.85
891.5927	1519.7166	24528.4	23594.3
891.7357	1521.515	24468.45	23530.6
891.8786	1523.3126	24360.7	23429.65
892.0216	1525.1094	24275.2	23343.9
892.1645	1526.9055	24170.1	23237.4
892.3074	1528.7008	24064.9	23133.4
892.4503	1530.4954	23936.95	23002.2
892.5932	1532.2893	23935.75	23006.5
892.7361	1534.0824	23759.75	22826.95
892.879	1535.8747	23760.35	22833.2
893.0218	1537.6663	23655.75	22727.7
893.1647	1539.4572	23561.25	22633.15
893.3075	1541.2473	23525.85	22597.1
893.4503	1543.0367	23442.8	22516.1
893.5931	1544.8253	23357.3	22424.65
893.7359	1546.6132	23295.75	22363.45
893.8787	1548.4003	23204.65	22268
894.0214	1550.1867	23156.4	22218.9
894.1642	1551.9723	23108.85	22178.8
894.3069	1553.7572	23077.05	22149.5
894.4496	1555.5414	23026.9	22102.75
894.5923	1557.3247	22990.45	22064.6
894.735	1559.1074	22954.5	22031.5
894.8777	1560.8893	22951.2	22026.7
895.0204	1562.6705	22912	21986.15
895.163	1564.4509	22925.35	22004.35
895.3056	1566.2305	22934.4	22016
895.4482	1568.0094	23020.8	22102.65
895.5908	1569.7876	23070.7	22149.85
895.7334	1571.565	23095.05	22170.55
895.876	1573.3417	23097.75	22175.65
896.0186	1575.1176	23094.45	22175.45
896.1611	1576.8928	22988.4	22071.7
896.3036	1578.6672	22862.3	21948.15
896.4461	1580.4409	22683.8	21769.65
896.5886	1582.2138	22483.1	21566.75
896.7311	1583.986	22309.2	21391.75
896.8736	1585.7575	22199.95	21282.5
897.0161	1587.5282	22028.25	21113.8
897.1585	1589.2981	21902.3	20991.1
897.3009	1591.0673	21781.9	20866.1
897.4433	1592.8358	21712	20798.85
897.5857	1594.6035	21659.2	20742.2
897.7281	1596.3704	21577.5	20658.75
897.8705	1598.1366	21533.55	20615.5
898.0128	1599.9021	21493.8	20578.3
898.1551	1601.6668	21424.5	20506.25
898.2975	1603.4308	21408.2	20491.7
898.4398	1605.194	21451.15	20528.8
898.5821	1606.9564	21485.15	20574.05
898.7243	1608.7182	21510.1	20599.2
898.8666	1610.4791	21545.75	20643.95
899.0088	1612.2394	21612.1	20710.75
899.1511	1613.9988	21739.65	20836.5
899.2933	1615.7576	21937.1	21027.6
899.4355	1617.5156	22116.1	21193.6
899.5776	1619.2728	22340.85	21422.9
899.7198	1621.0293	22510.55	21595.85
899.862	1622.785	22523.4	21609.35
900.0041	1624.54	22403.45	21491.9
900.1462	1626.2942	22240.45	21329.45
900.2883	1628.0477	21897.75	20986.8
900.4304	1629.8005	21622.55	20711.9
900.5725	1631.5525	21275.05	20367.2
900.7145	1633.3037	21050.15	20140.95
900.8566	1635.0542	20836.45	19931.15
900.9986	1636.804	20652.85	19741.9
901.1406	1638.553	20547.15	19593.5
901.2826	1640.3013	20379.45	19469.65
901.4245	1642.0488	20277.85	19366.1
901.5665	1643.7955	20243	19339.2
901.7085	1645.5416	20180.05	19273.5
901.8504	1647.2868	20172.6	19266.25
901.9923	1649.0313	20168.45	19256.5
902.1342	1650.7751	20279.6	19364.2
902.2761	1652.5181	20383.75	19475.8
902.4179	1654.2604	20537.5	19631.7
902.5598	1656.0019	20860.65	19954.6
902.7016	1657.7427	21163.95	20255.25
902.8434	1659.4828	21501.7	20588.7
902.9852	1661.222	21722.85	20811.35
903.127	1662.9606	21757.6	20844.75
903.2687	1664.6984	21564	20652.8
903.4105	1666.4354	21228	20311.5
903.5522	1668.1717	20725.4	19811.15
903.6939	1669.9072	20209	19295.95
903.8356	1671.642	19816.85	18903.95
903.9773	1673.3761	19502	18592.7
904.119	1675.1094	19205.6	18294.5
904.2606	1676.8419	18962.45	18052.9
904.4022	1678.5737	18777.95	17865
904.5439	1680.3048	18628	17716.95
904.6855	1682.0351	18477.2	17568.2
904.827	1683.7646	18336.45	17422.8
904.9686	1685.4934	18240.95	17330.6
905.1101	1687.2215	18166.25	17258
905.2517	1688.9488	18034.05	17127.55
905.3932	1690.6754	17933.35	17023.5
905.5347	1692.4012	17895	16984.85
905.6761	1694.1263	17845.75	16935.7
905.8176	1695.8506	17807.25	16898.75
905.9591	1697.5742	17727.5	16822.6
906.1005	1699.297	17633.5	16729.55
906.2419	1701.0191	17540.55	16638.75
906.3833	1702.7404	17487.85	16584.75
906.5246	1704.461	17327.4	16420.6
906.666	1706.1808	17254.25	16345.7
906.8073	1707.8999	17197.65	16292.05
906.9487	1709.6182	17151.8	16251.25
907.09	1711.3358	17111.9	16209.85
907.2313	1713.0527	17058.25	16158.3
907.3725	1714.7688	16952.7	16044.65
907.5138	1716.4841	16894.95	15988.15
907.655	1718.1987	16854	15943.5
907.7962	1719.9126	16785.05	15885
907.9374	1721.6257	16731.45	15829
908.0786	1723.338	16731.6	15832.75
908.2198	1725.0496	16586.75	15684.8
908.3609	1726.7605	16557.4	15651.9
908.502	1728.4706	16508.2	15608.25
908.6431	1730.18	16412	15510.15
908.7842	1731.8886	16405.4	15507.9
908.9253	1733.5964	16346.95	15426.65
909.0664	1735.3036	16291.15	15388.1
909.2074	1737.0099	16252.85	15353.15
909.3484	1738.7156	16216.05	15320.3
909.4894	1740.4204	16140.4	15239
909.6304	1742.1246	16136.65	15234.15
909.7714	1743.8279	16048.05	15147.45
909.9123	1745.5306	15996.75	15096.35
910.0532	1747.2325	15940.8	15043.4
910.1941	1748.9336	15901.45	14999.6
910.335	1750.634	15829.05	14925.25
910.4759	1752.3336	15804.55	14903.6
910.6168	1754.0325	15786.7	14891.65
910.7576	1755.7307	15724.9	14825.55
910.8984	1757.4281	15742.6	14843.25
911.0392	1759.1247	15710.45	14800.55
911.18	1760.8206	15646.1	14740
911.3208	1762.5158	15621.9	14716.45
911.4615	1764.2102	15539.95	14640.1
911.6022	1765.9039	15490.95	14591.85
911.7429	1767.5968	15452.9	14558.2
911.8836	1769.289	15411.7	14513.35
912.0243	1770.9804	15355.1	14454.25
912.1649	1772.6711	15353.45	14450.85
912.3056	1774.361	15292.85	14389.55
912.4462	1776.0502	15254.9	14350.55
912.5868	1777.7386	15240.1	14336.9
912.7274	1779.4263	15183.15	14284
912.8679	1781.1132	15159.55	14262.7
913.0084	1782.7994	15094.5	14199.05
913.149	1784.4849	15066.35	14172.5
913.2895	1786.1696	15029.3	14111.55
913.4299	1787.8535	14963	14068.3
913.5704	1789.5367	14922.95	14028.7
913.7108	1791.2192	14908.2	14012.8
913.8513	1792.9009	14859.9	13933.05
913.9917	1794.5818	14801.6	13898.25
914.132	1796.2621	14770.55	13871.75
914.2724	1797.9415	14740.4	13840.15
914.4128	1799.6202	14681.75	13781.05
914.5531	1801.2982	14669.4	13768.4
914.6934	1802.9755	14642.1	13742.2
914.8337	1804.6519	14628.55	13731.15
914.9739	1806.3277	14527.4	13629.15
915.1142	1808.0027	14457.45	13562.5
915.2544	1809.6769	14451.1	13556.1
915.3946	1811.3504	14404.45	13509.3
915.5348	1813.0231	14362.4	13467.75
915.675	1814.6951	14364.8	13469.6
915.8151	1816.3664	14360.45	13459.55
915.9553	1818.0369	14327.2	13429.15
916.0954	1819.7067	14274.8	13378.2
916.2355	1821.3757	14232.25	13331.7
916.3755	1823.044	14203.25	13303.9
916.5156	1824.7115	14163.15	13263.15
916.6556	1826.3783	14121.9	13225.4
916.7956	1828.0443	14054.45	13158
916.9356	1829.7096	14044.15	13145.5
917.0756	1831.3741	14031.95	13132.1
917.2155	1833.0379	13974.8	13078.95
917.3555	1834.701	13918.65	13022.8
917.4954	1836.3633	13919.6	13025.95
917.6353	1838.0248	13875.65	12979.5
917.7751	1839.6856	13833.3	12936.2
917.915	1841.3457	13837.5	12939.95
918.0548	1843.005	13789.7	12889.35
918.1946	1844.6636	13771.55	12873.8
918.3344	1846.3214	13728.1	12829.35
918.4742	1847.9785	13715.8	12818.4
918.6139	1849.6349	13665.95	12766.8
918.7537	1851.2904	13671.95	12764.05
918.8934	1852.9453	13594.6	12693.9
919.0331	1854.5994	13579.45	12678
919.1727	1856.2528	13581.95	12677.55
919.3124	1857.9054	13517.35	12619.1
919.452	1859.5572	13517	12618.15
919.5916	1861.2083	13495.85	12597.65
919.7312	1862.8587	13489.15	12588.05
919.8708	1864.5084	13456.4	12556.15
920.0103	1866.1572	13376.2	12476
920.1498	1867.8054	13300.45	12399.15
920.2893	1869.4528	13294.75	12395.6
920.4288	1871.0994	13231.9	12332.05
920.5683	1872.7453	13232.75	12333.65
920.7077	1874.3905	13198.3	12282.65
920.8471	1876.0349	13141.2	12241.6
920.9865	1877.6786	13154.65	12253.2
921.1259	1879.3215	13121.8	12221.15
921.2653	1880.9637	13069.95	12169.15
921.4046	1882.6051	13052.45	12155.05
921.5439	1884.2458	13030.4	12133.7
921.6832	1885.8858	12972.25	12077.35
921.8225	1887.525	12944	12043.85
921.9617	1889.1634	12880.35	11981.25
922.101	1890.8011	12854.85	11955.6
922.2402	1892.4381	12842.45	11941
922.3794	1894.0743	12787.6	11889.6
922.5185	1895.7098	12769.75	11873.15
922.6577	1897.3446	12727.4	11831.6
922.7968	1898.9786	12718.1	11817.95
922.9359	1900.6118	12665.3	11767.8
923.075	1902.2443	12597.3	11698.3
923.214	1903.8761	12590.7	11694
923.3531	1905.5071	12506	11608.15
923.4921	1907.1374	12483.25	11585.4
923.6311	1908.7669	12462.8	11567.85
923.77	1910.3957	12454.35	11557.75
923.909	1912.0237	12376.1	11479.55
924.0479	1913.651	12333.25	11434.8
924.1868	1915.2776	12300	11405.7
924.3257	1916.9034	12248.25	11351.9
924.4646	1918.5285	12172.6	11276.55
924.6034	1920.1528	12146.15	11250.35
924.7422	1921.7764	12164.85	11269.45
924.881	1923.3992	12103.15	11206.2
925.0198	1925.0213	12025.7	11127.55
925.1586	1926.6427	11989.15	11094.3
925.2973	1928.2633	12029	11063.05
925.436	1929.8832	11942.2	11043.2
925.5747	1931.5023	11877.9	10980.1
925.7134	1933.1207	11847.3	10950.95
925.852	1934.7383	11835.6	10938.5
925.9906	1936.3552	11772	10876.45
926.1292	1937.9714	11741.9	10845.65
926.2678	1939.5868	11712.95	10814.9
926.4064	1941.2015	11619.2	10721.65
926.5449	1942.8154	11575.45	10676.9
926.6834	1944.4286	11521.75	10623.1
926.8219	1946.041	11519.65	10598.45
926.9604	1947.6528	11428.9	10526.95
927.0988	1949.2637	11439.6	10541.85
927.2372	1950.8739	11399.95	10503.9
927.3756	1952.4834	11375.4	10478.95
927.514	1954.0921	11354.35	10457.55
927.6523	1955.7001	11310.95	10410.4
927.7907	1957.3074	11257.7	10368.45
927.929	1958.9139	11222.6	10330.4
928.0673	1960.5197	11196.35	10300.15
928.2055	1962.1247	11121.85	10228.1
928.3438	1963.729	11099.3	10207.45
928.482	1965.3325	11055.45	10139.65
928.6202	1966.9353	11011.9	10118.8
928.7584	1968.5374	10960.85	10067
928.8965	1970.1387	10942.75	10049.15
929.0346	1971.7393	10881.85	9986.75
929.1727	1973.3392	10855.8	9962.55
929.3108	1974.9383	10812	9921.6
929.4489	1976.5366	10787.05	9896.15
929.5869	1978.1342	10771.05	9880.6
929.7249	1979.7311	10716.8	9824.95
929.8629	1981.3273	10719.6	9826.8
930.0009	1982.9227	10682.25	9790.55
930.1388	1984.5173	10622.75	9733.95
930.2767	1986.1112	10582.3	9693.8
930.4146	1987.7044	10550.25	9660.65
930.5525	1989.2968	10520.7	9630
930.6904	1990.8885	10509.65	9614.65
930.8282	1992.4795	10488.75	9599.1
930.966	1994.0697	10443.55	9555.5
931.1038	1995.6592	10383.05	9495.05
931.2415	1997.2479	10376.7	9487.45
931.3793	1998.8359	10359.75	9467.6
931.517	2000.4232	10298.45	9410.8
931.6547	2002.0097	10279.8	9393
931.7923	2003.5955	10197.55	9310.4
931.93	2005.1805	10202.05	9311
932.0676	2006.7648	10190.55	9301.85
932.2052	2008.3484	10166.05	9275.5
932.3427	2009.9312	10150.9	9264.75
932.4803	2011.5133	10112.05	9228.2
932.6178	2013.0946	10053.1	9166.45
932.7553	2014.6752	10056.5	9168.85
932.8928	2016.2551	10029.35	9141.85
933.0302	2017.8342	9998.6	9109.75
933.1676	2019.4126	9963.75	9078.8
933.305	2020.9902	9888.65	9002.25
933.4424	2022.5672	9910.75	9022.75
933.5798	2024.1433	9876.7	8985
933.7171	2025.7188	9836.7	8953.05
933.8544	2027.2935	9803.85	8917.9
933.9917	2028.8674	9767.75	8883.6
934.129	2030.4406	9725	8843.25
934.2662	2032.0131	9676.9	8792.95
934.4034	2033.5849	9667.05	8780.15
934.5406	2035.1559	9646.95	8762.9
934.6778	2036.7261	9649	8761.25
934.8149	2038.2957	9610.65	8721.55
934.952	2039.8645	9596.05	8705.4
935.0891	2041.4325	9586.5	8693.35
935.2262	2042.9998	9522.45	8636.6
935.3632	2044.5664	9531.65	8645.2
935.5002	2046.1323	9490.55	8605.65
935.6372	2047.6974	9449.6	8565.8
935.7742	2049.2617	9433.2	8549.5
935.9111	2050.8254	9433	8541.95
936.048	2052.3883	9399.5	8509.3
936.1849	2053.9504	9365.7	8475.7
936.3218	2055.5118	9341.55	8451.5
936.4586	2057.0725	9288.85	8398.6
936.5955	2058.6325	9268.55	8381.3
936.7323	2060.1917	9252.2	8367.05
936.869	2061.7502	9228.35	8340.55
937.0058	2063.3079	9178.2	8292.6
937.1425	2064.8649	9138.25	8250.7
937.2792	2066.4212	9135.2	8248.45
937.4159	2067.9767	9124.75	8237.65
937.5525	2069.5315	9076.6	8190.7
937.6891	2071.0856	9039.6	8150.6
937.8257	2072.6389	9014.95	8127.5
937.9623	2074.1915	8957.55	8074.45
938.0989	2075.7433	8941.65	8053.45
938.2354	2077.2945	8909.65	8024.1
938.3719	2078.8448	8879.85	7991.25
938.5084	2080.3945	8858.25	7970.65
938.6448	2081.9434	8837.35	7948.5
938.7812	2083.4916	8830.2	7937.3
938.9176	2085.039	8771.6	7878
939.054	2086.5857	8786.65	7891.7
939.1903	2088.1317	8754.15	7857.75
939.3267	2089.677	8731.55	7838.8
939.463	2091.2215	8707.8	7814.65
939.5992	2092.7652	8651.35	7754.8
939.7355	2094.3083	8659	7766.4
939.8717	2095.8506	8653.05	7761.55
940.0079	2097.3921	8631.05	7742.6
940.1441	2098.933	8595.95	7708.7
940.2802	2100.4731	8598.45	7708.7
940.4163	2102.0124	8596.55	7698.15
940.5524	2103.5511	8544.1	7652.1
940.6885	2105.089	8528.45	7635.7
940.8245	2106.6261	8511.4	7620.6
940.9606	2108.1626	8477	7584.95
941.0965	2109.6983	8466.7	7548.8
941.2325	2111.2332	8444.65	7552.55
941.3684	2112.7675	8408.85	7519.2
941.5044	2114.301	8397.45	7503.6
941.6403	2115.8337	8376.3	7485.9
941.7761	2117.3657	8344.65	7454.25
941.912	2118.897	8338.1	7446.1
942.0478	2120.4276	8306.1	7409.85
942.1835	2121.9575	8245.75	7350.35
942.3193	2123.4866	8267.4	7371.85
942.455	2125.0149	8253.3	7359
942.5907	2126.5426	8200.55	7311.05
942.7264	2128.0695	8170.7	7278.8
942.8621	2129.5956	8168.75	7282.8
942.9977	2131.1211	8134.95	7243.25
943.1333	2132.6458	8103.35	7212.55
943.2689	2134.1698	8095.85	7203.7
943.4044	2135.693	8079.95	7184.35
943.54	2137.2155	8048.85	7154.25
943.6755	2138.7373	8036.6	7144.7
943.8109	2140.2584	8024.7	7135.2
943.9464	2141.7787	7984.3	7092.2
944.0818	2143.2983	7950.5	7064.4
944.2172	2144.8171	7917.45	7033.8
944.3526	2146.3353	7892.2	7002.3
944.4879	2147.8527	7873.2	6984.25
944.6232	2149.3693	7885.55	6993.95
944.7585	2150.8853	7850.85	6955.5
944.8938	2152.4005	7787.15	6894.2
945.029	2153.9149	7805.4	6911.95
945.1642	2155.4287	7843.5	6844.8
945.2994	2156.9417	7784.1	6890.95
945.4346	2158.454	7746.65	6856.25
945.5697	2159.9655	7715.15	6827.3
945.7048	2161.4764	7701.4	6813.65
945.8399	2162.9865	7657.65	6769.95
945.9749	2164.4958	7640.75	6750.5
946.1099	2166.0045	7631.4	6739.6
946.2449	2167.5124	7607.15	6715.8
946.3799	2169.0195	7615.5	6724.5
946.5148	2170.526	7616.1	6725.25
946.6498	2172.0317	7568.65	6677.6
946.7846	2173.5367	7547.85	6658.95
946.9195	2175.0409	7520.95	6630.7
947.0543	2176.5445	7497.1	6605.45
947.1891	2178.0473	7480.55	6587.95
947.3239	2179.5494	7447.35	6549.95
947.4587	2181.0507	7437.15	6545.5
947.5934	2182.5513	7394.05	6502.4
947.7281	2184.0512	7367.2	6476.45
947.8628	2185.5504	7346.25	6456.75
947.9974	2187.0488	7314.55	6424
948.132	2188.5465	7300.3	6414.15
948.2666	2190.0435	7289.2	6399.25
948.4012	2191.5397	7254.55	6363.9
948.5357	2193.0353	7243.95	6351
948.6702	2194.5301	7196.2	6302.4
948.8047	2196.0241	7187.45	6291.2
948.9392	2197.5175	7164.3	6268.4
949.0736	2199.0101	7139.35	6243.55
949.208	2200.502	7113.1	6222.75
949.3424	2201.9931	7087.55	6197.95
949.4767	2203.4835	7054.6	6165.6
949.611	2204.9733	7060.9	6155.5
949.7453	2206.4622	7058.65	6171.8
949.8796	2207.9505	7003.85	6114.05
950.0138	2209.438	6963.6	6077.35
950.148	2210.9248	6957.95	6068.3
950.2822	2212.4109	6941.85	6051.25
950.4164	2213.8962	6913.75	6016.15
950.5505	2215.3809	6915.3	6019.85
950.6846	2216.8648	6891.25	5997
950.8186	2218.3479	6862	5959.2
950.9527	2219.8304	6832.35	5933.5
951.0867	2221.3121	6825.8	5929.75
951.2207	2222.7931	6786.7	5893.9
951.3546	2224.2733	6768.8	5875.4
951.4886	2225.7529	6746.4	5853.75
951.6225	2227.2317	6704.9	5811.35
951.7563	2228.7098	6713.8	5824.3
951.8902	2230.1872	6686.3	5799.3
952.024	2231.6638	6659.9	5771.55
952.1578	2233.1397	6641.05	5748.85
952.2916	2234.6149	6602.55	5714
952.4253	2236.0894	6609.05	5719.5
952.559	2237.5632	6578.5	5685.7
952.6927	2239.0362	6558.05	5667
952.8263	2240.5085	6539.1	5649.85
952.9599	2241.9801	6516.85	5624.3
953.0935	2243.4509	6498.55	5604.2
953.2271	2244.921	6474.05	5580.35
953.3606	2246.3904	6451.8	5556.9
953.4941	2247.8591	6432.9	5542.25
953.6276	2249.3271	6413.55	5521.7
953.7611	2250.7943	6409.1	5516.9
953.8945	2252.2608	6370.6	5478.3
954.0279	2253.7266	6365.65	5472.65
954.1612	2255.1917	6328.7	5436.15
954.2946	2256.656	6322	5433.1
954.4279	2258.1197	6307.95	5419.45
954.5612	2259.5826	6278.15	5384.6
954.6944	2261.0447	6281.8	5391.65
954.8276	2262.5062	6244.5	5349.05
954.9608	2263.9669	6252.4	5359.95
955.094	2265.4269	6218.05	5325.95
955.2271	2266.8862	6212.3	5321.65
955.3602	2268.3448	6204.5	5313.9
955.4933	2269.8026	6164.7	5274
955.6264	2271.2598	6158.65	5270
955.7594	2272.7162	6147.35	5257.85
955.8924	2274.1719	6138.2	5245.5
956.0253	2275.6268	6112.45	5219.95
956.1583	2277.0811	6092.6	5198.7
956.2912	2278.5346	6092.9	5202.65
956.4241	2279.9874	6053.5	5164.05
956.5569	2281.4395	6060.85	5171.05
956.6897	2282.8908	6051.4	5155.55
956.8225	2284.3414	6025.05	5133.35
956.9553	2285.7914	6006.3	5115.45
957.088	2287.2406	5990.6	5095.15
957.2207	2288.689	5985.55	5089.85
957.3534	2290.1368	5968.15	5070.5
957.486	2291.5838	5951.15	5054.1
957.6186	2293.0302	5918.9	5021
957.7512	2294.4758	5918.45	5023.85
957.8838	2295.9206	5880.6	4985.2
958.0163	2297.3648	5863.35	4972.8
958.1488	2298.8082	5849.05	4956.45
958.2813	2300.251	5837.6	4942
958.4137	2301.693	5840.75	4944.15
958.5461	2303.1343	5833.75	4937.55
958.6785	2304.5748	5787.85	4894.35
958.8108	2306.0147	5756.75	4865.65
958.9432	2307.4538	5762.55	4871.25
959.0754	2308.8922	5732.85	4846.5
959.2077	2310.3299	5729.45	4841.1
959.3399	2311.7669	5703.2	4813.15
959.4721	2313.2031	5678.3	4788.35
959.6043	2314.6387	5679.45	4786.7
959.7365	2316.0735	5651.8	4760.5
959.8686	2317.5076	5630.4	4737.55
960.0006	2318.941	5625.65	4733.3
960.1327	2320.3737	5606.9	4709.45
960.2647	2321.8056	5600.75	4705.2
960.3967	2323.2369	5565.75	4669.15
960.5287	2324.6674	5545.25	4650.5
960.6606	2326.0972	5551.45	4657.9
960.7925	2327.5263	5515.55	4622.85
960.9244	2328.9547	5516.15	4623.1
961.0562	2330.3823	5499.45	4604.8
961.1881	2331.8092	5508.45	4609.2
961.3198	2333.2355	5464.1	4568.55
961.4516	2334.661	5463.05	4567.9
961.5833	2336.0858	5457.35	4562.6
961.715	2337.5098	5443.55	4550.4
961.8467	2338.9332	5429.8	4535.25
961.9783	2340.3558	5418.55	4522.5
962.1099	2341.7778	5372.1	4480.85
962.2415	2343.199	5360.55	4470.25
962.373	2344.6195	5345.4	4453.85
962.5045	2346.0393	5339.2	4446.95
962.636	2347.4583	5352.9	4460
962.7675	2348.8767	5315.15	4419.6
962.8989	2350.2943	5316.2	4419
963.0303	2351.7113	5303.65	4406.6
963.1617	2353.1275	5285.85	4389.55
963.293	2354.543	5290.1	4386.8
963.4243	2355.9578	5244.4	4350.75
963.5556	2357.3718	5221.1	4330.1
963.6868	2358.7852	5193.5	4301.3
963.818	2360.1978	5183.2	4290.35
963.9492	2361.6098	5188.65	4296
964.0803	2363.021	5161.15	4264.75
964.2114	2364.4315	5146.55	4254.6
964.3425	2365.8413	5140.35	4246.45
964.4736	2367.2504	5095.9	4206.9
964.6046	2368.6587	5086.35	4195.3
964.7356	2370.0664	5076.3	4185.15
964.8666	2371.4733	5044.95	4153.4
964.9975	2372.8795	5044.8	4153.8
965.1284	2374.285	5019.45	4128.75
965.2593	2375.6899	4993.35	4102.1
965.3901	2377.0939	4964.5	4074.05
965.5209	2378.4973	4950.95	4061.85
965.6517	2379.9	4945.8	4057
965.7825	2381.3019	4946.35	4056.05
965.9132	2382.7032	4925.45	4035.2
966.0439	2384.1037	4909.35	4023.15
966.1745	2385.5035	4876.35	3988.1
966.3051	2386.9027	4868.65	3980.7
966.4357	2388.3011	4868.2	3977.2
966.5663	2389.6987	4857.5	3967.8
966.6968	2391.0957	4834.3	3945.15
966.8273	2392.492	4818.5	3929.5
966.9578	2393.8876	4773.85	3885.15
967.0882	2395.2824	4756.1	3864.85
967.2186	2396.6765	4751.4	3862.9
967.349	2398.07	4726.7	3835.65
967.4793	2399.4627	4740.55	3848.25
967.6097	2400.8547	4718.55	3827.8
967.7399	2402.246	4709.25	3811.25
967.8702	2403.6366	4675.65	3785.9
968.0004	2405.0265	4664.05	3774.5
968.1306	2406.4156	4645.15	3751.85
968.2607	2407.8041	4641	3747.65
968.3909	2409.1918	4622.8	3730.45
968.521	2410.5789	4601.15	3707.9
968.651	2411.9652	4588.95	3696.75
968.781	2413.3508	4572.4	3681.5
968.911	2414.7358	4562.95	3670.55
969.041	2416.12	4552	3661.85
969.1709	2417.5035	4532.15	3640.7
969.3008	2418.8863	4510	3618.25
969.4307	2420.2684	4506.8	3615.8
969.5606	2421.6497	4483.7	3591.25
969.6904	2423.0304	4469.7	3579.45
969.8201	2424.4104	4462.15	3570.35
969.9499	2425.7896	4451.1	3559.45
970.0796	2427.1682	4439.5	3549.15
970.2093	2428.546	4427.8	3536.1
970.3389	2429.9232	4424.7	3533.75
970.4685	2431.2996	4406.25	3514.55
970.5981	2432.6753	4391.85	3500.85
970.7277	2434.0503	4378.5	3487.65
970.8572	2435.4246	4365.75	3472.75
970.9867	2436.7982	4359.65	3464.15
971.1161	2438.1711	4342.6	3451.25
971.2456	2439.5433	4333.15	3439.6
971.375	2440.9148	4333.85	3435.8
971.5043	2442.2856	4288.25	3398.3
971.6336	2443.6557	4283.45	3392.3
971.7629	2445.025	4276.1	3384.45
971.8922	2446.3937	4273.15	3382.35
972.0214	2447.7617	4270.85	3378.45
972.1506	2449.1289	4259.45	3368.3
972.2798	2450.4955	4240.15	3344.55
972.4089	2451.8613	4221.15	3331.1
972.538	2453.2265	4236.1	3344.2
972.6671	2454.5909	4224.1	3333.2
972.7961	2455.9546	4203.15	3310.75
972.9251	2457.3177	4197.2	3307.55
973.0541	2458.68	4182	3289.25
973.1831	2460.0416	4174.9	3283.05
973.312	2461.4025	4156.8	3265.6
973.4408	2462.7627	4172.05	3270.6
973.5697	2464.1222	4140.85	3251.8
973.6985	2465.4811	4139.8	3248.3
973.8273	2466.8392	4112.75	3223.4
973.956	2468.1966	4107.8	3214.9
974.0847	2469.5533	4106.7	3213.3
974.2134	2470.9093	4105.7	3212.45
974.3421	2472.2645	4085.1	3192.1
974.4707	2473.6191	4088.2	3199.05
974.5993	2474.973	4069.7	3178.9
974.7278	2476.3262	4064.15	3171.9
974.8563	2477.6787	4043.7	3153.55
974.9848	2479.0305	4017.05	3124.3
975.1132	2480.3816	4004.6	3109.45
975.2417	2481.7319	3994.65	3103.4
975.37	2483.0816	3978.35	3086.75
975.4984	2484.4306	3976.6	3085.65
975.6267	2485.7789	3953.1	3060.2
975.755	2487.1264	3947.35	3055.2
975.8833	2488.4733	3936.65	3048.55
976.0115	2489.8195	3935.8	3028.8
976.1397	2491.165	3911.45	3017.4
976.2678	2492.5097	3904.1	3011
976.3959	2493.8538	3879.4	2988.55
976.524	2495.1972	3868	2975.7
976.6521	2496.5398	3863.3	2969.95
976.7801	2497.8818	3857.05	2962.65
976.9081	2499.2231	3831.8	2939.55
977.036	2500.5637	3823.55	2930.05
977.164	2501.9035	3816.7	2920.95
977.2918	2503.2427	3824.25	2928.35
977.4197	2504.5812	3795.45	2904.05
977.5475	2505.919	3786.85	2893.2
977.6753	2507.256	3790.25	2898.6
977.8031	2508.5924	3765.65	2875.05
977.9308	2509.9281	3758	2861.5
978.0585	2511.2631	3751.7	2860.5
978.1861	2512.5974	3741.2	2850.9
978.3137	2513.9309	3725.65	2836.15
978.4413	2515.2638	3729.8	2809.5
978.5689	2516.596	3709.6	2818.3
978.6964	2517.9275	3687.8	2795.6
978.8239	2519.2583	3687.1	2794.7
978.9513	2520.5884	3658.7	2766.45
979.0788	2521.9178	3652.05	2761.8
979.2062	2523.2465	3644	2754.35
979.3335	2524.5745	3629.65	2737.65
979.4608	2525.9018	3633.85	2742.2
979.5881	2527.2284	3613.2	2721.35
979.7154	2528.5543	3616.2	2724
979.8426	2529.8796	3603.35	2711.5
979.9698	2531.2041	3592.9	2701.7
980.0969	2532.5279	3597.3	2706.55
980.224	2533.851	3590.3	2699.6
980.3511	2535.1735	3579.9	2687.95
980.4781	2536.4952	3563.85	2671.45
980.6052	2537.8163	3553.4	2660.7
980.7321	2539.1366	3542.65	2650.75
980.8591	2540.4562	3541.6	2648.9
980.986	2541.7752	3534.8	2641.9
981.1129	2543.0935	3539	2648.55
981.2397	2544.411	3521.65	2625.85
981.3665	2545.7279	3516.65	2625.75
981.4933	2547.0441	3512.4	2619.9
981.62	2548.3596	3507.7	2611.6
981.7467	2549.6744	3500.4	2607.95
981.8734	2550.9885	3499.05	2603.15
982.0001	2552.3019	3474.35	2582.45
982.1267	2553.6146	3478.65	2583.55
982.2532	2554.9266	3458.6	2568
982.3798	2556.2379	3443.1	2550.85
982.5063	2557.5485	3447.6	2557.05
982.6327	2558.8585	3437.1	2538.7
982.7592	2560.1677	3433.3	2540.1
982.8856	2561.4762	3424.1	2530.85
983.0119	2562.7841	3429.25	2533.4
983.1383	2564.0913	3407.35	2516.55
983.2646	2565.3977	3404.6	2512.3
983.3908	2566.7035	3399.25	2508.7
983.517	2568.0086	3392.4	2497.75
983.6432	2569.313	3389	2495.5
983.7694	2570.6167	3379	2481.8
983.8955	2571.9197	3364.35	2472.35
984.0216	2573.222	3375.65	2481.2
984.1476	2574.5236	3361.4	2466.55
984.2737	2575.8246	3366.75	2470.95
984.3996	2577.1248	3356.95	2464.1
984.5256	2578.4244	3346.3	2454.6
984.6515	2579.7232	3342.4	2450.7
984.7774	2581.0214	3363.35	2440.8
984.9032	2582.3189	3330	2438.85
985.029	2583.6157	3327.2	2431.5
985.1548	2584.9118	3331.2	2436.1
985.2806	2586.2072	3302.95	2409.65
985.4063	2587.5019	3314.7	2420.95
985.5319	2588.7959	3314.4	2420.5
985.6576	2590.0893	3303.85	2411.4
985.7832	2591.3819	3287.9	2397.1
985.9087	2592.6739	3297.75	2405.55
986.0343	2593.9652	3283	2387.45
986.1597	2595.2557	3271.15	2377.95
986.2852	2596.5456	3266.2	2373.7
986.4106	2597.8348	3261.1	2368.55
986.536	2599.1234	3250.4	2357.9
986.6614	2600.4112	3251.7	2358.45
986.7867	2601.6983	3242.05	2346.15
986.912	2602.9848	3228.35	2334.5
987.0372	2604.2705	3226.1	2325.95
987.1624	2605.5556	3214.4	2321.2
987.2876	2606.84	3201.3	2308.75
987.4128	2608.1237	3192.8	2300.15
987.5379	2609.4067	3173.5	2279.5
987.6629	2610.689	3183.1	2282.95
987.788	2611.9707	3177.2	2278.35
987.913	2613.2516	3169.9	2272.2
988.0379	2614.5319	3153.3	2260.8
988.1629	2615.8115	3142.7	2249.45
988.2878	2617.0903	3128.55	2235.1
988.4126	2618.3685	3120.9	2228.6
988.5375	2619.6461	3117.25	2226.65
988.6622	2620.9229	3109.35	2216.7
988.787	2622.199	3101.65	2209.35
988.9117	2623.4745	3098.95	2206.1
989.0364	2624.7493	3098.2	2204.3
989.161	2626.0234	3076.05	2186.75
989.2857	2627.2968	3078	2185.95
989.4102	2628.5695	3072.15	2178.45
989.5348	2629.8415	3054.45	2162.75
989.6593	2631.1128	3042.7	2150.6
989.7837	2632.3835	3043	2151.9
989.9082	2633.6535	3033.05	2140.65
990.0326	2634.9228	3025.05	2134.4
990.1569	2636.1914	3012.55	2122.6
990.2812	2637.4593	3018.1	2120.75
990.4055	2638.7265	3004.75	2110.65
990.5298	2639.9931	2997.3	2104.7
990.654	2641.259	2986.55	2092.9
990.7782	2642.5242	2986.35	2093.15
990.9023	2643.7887	2982.65	2090.25
991.0264	2645.0525	2968.5	2078.65
991.1505	2646.3156	2970.65	2063.8
991.2745	2647.5781	2956.4	2065.1
991.3985	2648.8398	2948.5	2058
991.5225	2650.1009	2949.2	2033.2
991.6464	2651.3613	2923.35	2032
991.7703	2652.6211	2909	2016.55
991.8942	2653.8801	2915.35	2024.95
992.018	2655.1385	2907.15	2013
992.1418	2656.3961	2914	2022.1
992.2655	2657.6531	2918.15	2027.2
992.3892	2658.9094	2901.7	2010.1
992.5129	2660.1651	2902	2011.2
992.6366	2661.42	2890.2	1999.1
992.7602	2662.6743	2890.05	1997.15
992.8837	2663.9279	2883.7	1992.15
993.0073	2665.1808	2886.1	1994.25
993.1307	2666.433	2872.25	1977.8
993.2542	2667.6846	2876.7	1983.75
993.3776	2668.9354	2864.15	1967.15
993.501	2670.1856	2875	1981.5
993.6244	2671.4351	2860.4	1967.05
993.7477	2672.6839	2869.9	1977.85
993.8709	2673.9321	2852.3	1962.3
993.9942	2675.1795	2845.9	1957
994.1174	2676.4263	2849.55	1958.2
994.2405	2677.6724	2839.4	1949.15
994.3637	2678.9179	2832.2	1938.3
994.4868	2680.1626	2839.15	1947.75
994.6098	2681.4067	2826.25	1934.2
994.7328	2682.6501	2835.3	1944.35
994.8558	2683.8928	2825.25	1933.05
994.9788	2685.1348	2817.1	1926.85
995.1017	2686.3761	2803.2	1911.35
995.2245	2687.6168	2798.15	1907.75
995.3474	2688.8568	2777.1	1886
995.4702	2690.0961	2776.1	1884.7
995.5929	2691.3348	2768.4	1876.25
995.7156	2692.5727	2754.85	1863.85
995.8383	2693.81	2748.05	1855.45
995.961	2695.0466	2752.35	1861.65
996.0836	2696.2826	2740.05	1848.35
996.2062	2697.5178	2734.25	1841
996.3287	2698.7524	2742.9	1851.3
996.4512	2699.9863	2732.2	1837.7
996.5737	2701.2195	2716.2	1825.15
996.6961	2702.452	2717.9	1825.5
996.8185	2703.6839	2711.35	1819.2
996.9408	2704.9151	2709.6	1821
997.0631	2706.1456	2719.5	1829.35
997.1854	2707.3755	2715.55	1825.55
997.3077	2708.6046	2728.5	1835.8
997.4299	2709.8331	2716.55	1826.1
997.552	2711.0609	2722	1831.85
997.6742	2712.2881	2719	1827.1
997.7963	2713.5145	2730	1836
997.9183	2714.7403	2731.1	1839.3
998.0403	2715.9654	2730.85	1840.65
998.1623	2717.1899	2748.85	1843.9
998.2842	2718.4136	2753.05	1861.45
998.4062	2719.6367	2751.65	1860
998.528	2720.8591	2753.4	1858.5
998.6498	2722.0809	2754.5	1863.05
998.7716	2723.3019	2765.75	1872.7
998.8934	2724.5223	2771.2	1881.6
999.0151	2725.7421	2768.95	1875.9
999.1368	2726.9611	2772.65	1879.7
999.2584	2728.1795	2760.8	1866.75
999.38	2729.3972	2739.3	1848.4
999.5016	2730.6142	2733.05	1833.4
999.6231	2731.8306	2711.1	1820.35
999.7446	2733.0462	2697.05	1805.3
999.8661	2734.2612	2675.45	1780.85
999.9875	2735.4756	2655.75	1763.85
1000.1089	2736.6892	2618.65	1727.9
1000.2302	2737.9022	2605.05	1715.25
1000.3515	2739.1145	2581.1	1690.6
1000.4728	2740.3262	2571.4	1673.5
1000.594	2741.5372	2550.8	1661.3
1000.7152	2742.7475	2547.7	1656.4
1000.8363	2743.9571	2525.55	1634.5
1000.9575	2745.1661	2520.35	1625.15
1001.0785	2746.3744	2496.25	1605.05
1001.1996	2747.582	2487.85	1598.1
1001.3206	2748.7889	2469.3	1576.9
1001.4415	2749.9952	2459.15	1569.4
1001.5625	2751.2008	2443.15	1553.5
1001.6833	2752.4057	2449.2	1558.4
1001.8042	2753.61	2434.8	1543.9
1001.925	2754.8136	2423.7	1532.5
1002.0458	2756.0165	2427.75	1538.05
1002.1665	2757.2188	2417.7	1526.1
1002.2872	2758.4204	2410.75	1524.4
1002.4078	2759.6213	2414.2	1522.65
1002.5285	2760.8215	2414.5	1522
1002.649	2762.0211	2407.85	1515.15
1002.7696	2763.22	2399.9	1507.7
1002.8901	2764.4182	2397.4	1506.65
1003.0106	2765.6158	2392.85	1503.95
1003.131	2766.8127	2380.15	1490.8
1003.2514	2768.009	2360.25	1470.05
1003.3717	2769.2045	2367.8	1476.9
1003.492	2770.3994	2368.85	1477.65
1003.6123	2771.5936	2348.45	1456.6
1003.7325	2772.7872	2343.8	1457.05
1003.8527	2773.9801	2336.9	1444.75
1003.9729	2775.1723	2353.65	1447.55
1004.093	2776.3639	2332.7	1444.65
1004.2131	2777.5548	2331.25	1438.35
1004.3331	2778.745	2320.45	1428.8
1004.4531	2779.9346	2326.4	1437.55
1004.5731	2781.1235	2324.95	1433.5
1004.693	2782.3117	2311.7	1422.85
1004.8129	2783.4992	2313.05	1424.55
1004.9328	2784.6861	2319.7	1429.6
1005.0526	2785.8723	2310.45	1420.05
1005.1723	2787.0579	2329.05	1439.6
1005.2921	2788.2428	2324.4	1435.1
1005.4118	2789.427	2324.9	1439.6
1005.5314	2790.6106	2340.2	1450.95
1005.651	2791.7935	2346.05	1457
1005.7706	2792.9757	2355.9	1467
1005.8902	2794.1573	2362.1	1472.5
1006.0097	2795.3382	2362.6	1474.5
1006.1291	2796.5184	2371.4	1483.45
1006.2485	2797.698	2394.3	1504.8
1006.3679	2798.8769	2396.95	1509.25
1006.4873	2800.0551	2421.6	1531.05
1006.6066	2801.2327	2433.35	1542.55
1006.7258	2802.4096	2442.55	1554.6
1006.8451	2803.5859	2460.35	1571.5
1006.9642	2804.7615	2476.6	1587.25
1007.0834	2805.9364	2508.85	1621.2
1007.2025	2807.1106	2531.05	1643.1
1007.3216	2808.2842	2552.6	1664
1007.4406	2809.4572	2584.85	1698.85
1007.5596	2810.6294	2625.35	1736.35
1007.6785	2811.801	2660.05	1773.8
1007.7975	2812.972	2700.15	1812.65
1007.9163	2814.1423	2731.1	1842.35
1008.0352	2815.3119	2771.6	1880.85
1008.154	2816.4808	2820.6	1931.7
1008.2727	2817.6491	2858.05	1969.8
1008.3914	2818.8167	2909.7	2023.55
1008.5101	2819.9837	2972.9	2078.8
1008.6288	2821.15	2999.15	2112.15
1008.7474	2822.3157	3057.7	2168.8
1008.8659	2823.4807	3099.45	2211
1008.9844	2824.645	3149.2	2261.15
1009.1029	2825.8086	3180.6	2294.25
1009.2214	2826.9716	3208.3	2321.4
1009.3398	2828.134	3234.55	2346.2
1009.4581	2829.2957	3294.35	2406.05
1009.5764	2830.4567	3306.9	2420.15
1009.6947	2831.617	3318.7	2430.8
1009.813	2832.7767	3339.7	2451.7
1009.9312	2833.9358	3328	2440.45
1010.0493	2835.0941	3319.4	2429.15
1010.1675	2836.2519	3292.75	2404.35
1010.2855	2837.4089	3290.9	2401.4
1010.4036	2838.5653	3295.45	2407.8
1010.5216	2839.7211	3283.5	2397.25
1010.6396	2840.8761	3288.4	2400
1010.7575	2842.0306	3319.95	2433.75
1010.8754	2843.1843	3338.9	2452.05
1010.9932	2844.3374	3407.75	2519.25
1011.111	2845.4899	3450.75	2561.7
1011.2288	2846.6417	3527.25	2638.5
1011.3465	2847.7928	3596.45	2710
1011.4642	2848.9433	3676.75	2791.05
1011.5818	2850.0931	3750.3	2864.05
1011.6995	2851.2422	3840.2	2951.55
1011.817	2852.3907	3906.9	3017.2
1011.9345	2853.5385	3971.1	3080.7
1012.052	2854.6857	4032.65	3136.35
1012.1695	2855.8323	4073.55	3187.15
1012.2869	2856.9781	4134	3246.05
1012.4042	2858.1233	4176.3	3289.45
1012.5216	2859.2679	4202.15	3316.1
1012.6389	2860.4118	4271.45	3384.15
1012.7561	2861.555	4296	3404.6
1012.8733	2862.6976	4332.45	3445.4
1012.9905	2863.8395	4365.75	3477.85
1013.1076	2864.9808	4367.75	3481.65
1013.2247	2866.1214	4393.6	3508.15
1013.3417	2867.2614	4399.6	3511.25
1013.4587	2868.4007	4409.2	3519.45
1013.5757	2869.5393	4406.1	3517.75
1013.6926	2870.6773	4421.1	3529.3
1013.8095	2871.8146	4436.1	3545.5
1013.9263	2872.9513	4424.3	3533.8
1014.0431	2874.0874	4411.05	3523.3
1014.1599	2875.2227	4424	3537.55
1014.2766	2876.3574	4380.7	3495.8
1014.3933	2877.4915	4376.5	3490.35
1014.51	2878.6249	4346.3	3460.7
1014.6266	2879.7577	4325.35	3437.55
1014.7431	2880.8898	4303.95	3403.8
1014.8596	2882.0212	4271.25	3385.15
1014.9761	2883.152	4275.6	3388.5
1015.0925	2884.2821	4233.2	3349.05
1015.2089	2885.4116	4228.4	3342.55
1015.3253	2886.5405	4227.35	3341.6
1015.4416	2887.6686	4230.4	3340.2
1015.5579	2888.7962	4231.4	3344.85
1015.6741	2889.923	4231.6	3345.6
1015.7903	2891.0493	4240.9	3354
1015.9065	2892.1748	4258.2	3371.9
1016.0226	2893.2997	4261.6	3373.35
1016.1387	2894.424	4286	3398.9
1016.2547	2895.5476	4291.5	3406.45
1016.3707	2896.6706	4311.85	3425.05
1016.4866	2897.7929	4343.35	3455.9
1016.6025	2898.9145	4360.2	3472.45
1016.7184	2900.0355	4392.8	3505.95
1016.8342	2901.1559	4414	3524.85
1016.95	2902.2756	4448.05	3562.7
1017.0658	2903.3946	4486.55	3599.55
1017.1815	2904.513	4494.3	3605.65
1017.2971	2905.6308	4528.2	3641.7
1017.4127	2906.7479	4551.9	3665.85
1017.5283	2907.8643	4579.45	3693.6
1017.6439	2908.9801	4585.75	3699.9
1017.7594	2910.0953	4578.1	3691
1017.8748	2911.2098	4588.85	3699.35
1017.9902	2912.3236	4600.1	3705.4
1018.1056	2913.4368	4558.4	3669.2
1018.2209	2914.5494	4543.15	3655.05
1018.3362	2915.6613	4519	3628.7
1018.4515	2916.7725	4509.15	3618.25
1018.5667	2917.8831	4487.9	3599.25
1018.6819	2918.9931	4429.95	3539.75
1018.797	2920.1024	4381.15	3494.9
1018.9121	2921.211	4345.6	3460.45
1019.0271	2922.319	4345.05	3458.25
1019.1421	2923.4264	4326.4	3439.85
1019.2571	2924.5331	4322.05	3437.25
1019.372	2925.6391	4287.9	3400.7
1019.4869	2926.7445	4290.3	3407.35
1019.6017	2927.8493	4278.15	3391.9
1019.7165	2928.9534	4255.55	3368.4
1019.8313	2930.0569	4245.8	3356.7
1019.946	2931.1597	4237.75	3349.35
1020.0606	2932.2619	4229.15	3343.45
1020.1753	2933.3634	4213.65	3327.2
1020.2899	2934.4643	4214.8	3322.25
1020.4044	2935.5645	4193.4	3301.35
1020.5189	2936.6641	4156.3	3265.55
1020.6334	2937.763	4105.65	3221.05
1020.7478	2938.8613	4045.85	3160.75
1020.8622	2939.959	3988.95	3098.55
1020.9765	2941.056	3903	3018
1021.0908	2942.1523	3816.75	2929.95
1021.2051	2943.248	3743.1	2857.15
1021.3193	2944.3431	3642	2756
1021.4334	2945.4375	3520.4	2634.35
1021.5476	2946.5313	3434	2552.4
1021.6617	2947.6244	3333.15	2447.65
1021.7757	2948.7169	3207.6	2322.15
1021.8897	2949.8087	3105.4	2219.85
1022.0037	2950.8999	3019.8	2134
1022.1176	2951.9904	2932.35	2048.3
1022.2315	2953.0803	2863.05	1975.7
1022.3453	2954.1696	2783.6	1897.3
1022.4591	2955.2582	2736.9	1848.7
1022.5728	2956.3462	2679.1	1793.7
1022.6865	2957.4335	2645.25	1757.45
1022.8002	2958.5202	2604.1	1716.7
1022.9138	2959.6062	2567.5	1682.55
1023.0274	2960.6916	2548.7	1663.95
1023.141	2961.7764	2520.6	1633.25
1023.2545	2962.8605	2517.95	1631.9
1023.3679	2963.9439	2498.1	1615.8
1023.4813	2965.0267	2472.55	1588.05
1023.5947	2966.1089	2489.45	1582.05
1023.708	2967.1905	2470.35	1584.05
1023.8213	2968.2714	2466.8	1582.25
1023.9346	2969.3516	2459.55	1574.75
1024.0478	2970.4312	2464.9	1571.85
1024.1609	2971.5102	2452.65	1566.8
1024.274	2972.5885	2456.45	1572.2
1024.3871	2973.6662	2455.35	1565.65
1024.5002	2974.7432	2452.3	1569.25
1024.6132	2975.8196	2434.15	1548.35
1024.7261	2976.8954	2412.75	1528.15
1024.839	2977.9705	2410.9	1524.4
1024.9519	2979.045	2389.25	1504.2
1025.0647	2980.1188	2376.5	1490.85
1025.1775	2981.192	2359.6	1473.85
1025.2902	2982.2645	2342.9	1458.2
1025.4029	2983.3364	2303.8	1419.55
1025.5156	2984.4077	2264.45	1380
1025.6282	2985.4783	2261	1369.95
1025.7407	2986.5483	2215.15	1330.5
1025.8532	2987.6177	2170.85	1288.15
1025.9657	2988.6864	2135.4	1249.85
1026.0782	2989.7545	2110.15	1224.1
1026.1906	2990.8219	2061.65	1178
1026.3029	2991.8887	2034.65	1147.2
1026.4152	2992.9548	2001.85	1115.6
1026.5275	2994.0204	1964.35	1077.05
1026.6397	2995.0852	1928.5	1044.3
1026.7519	2996.1495	1913.3	1028.85
1026.864	2997.2131	1888.6	1002.95
1026.9761	2998.276	1875.7	991.7
1027.0882	2999.3383	1838.55	953.4
1027.2002	3000.4	1824.9	938.35
1027.3122	3001.4611	1804.05	919.8
1027.4241	3002.5215	1793.6	908.4
1027.536	3003.5812	1777.4	892.8
1027.6478	3004.6404	1768.55	885.25
1027.7596	3005.6989	1755.5	867
1027.8714	3006.7567	1737.5	852.35
1027.9831	3007.8139	1747.4	840.75
1028.0947	3008.8705	1726.15	840.9
1028.2064	3009.9264	1736.15	833.55
1028.3179	3010.9818	1712.2	827.2
1028.4295	3012.0364	1714.1	828.6
1028.541	3013.0905	1702.75	818.15
1028.6524	3014.1439	1695.05	811.4
1028.7638	3015.1966	1693.65	810.1
1028.8752	3016.2487	1694.45	808.2
1028.9865	3017.3002	1695	803.85
1029.0978	3018.3511	1694.2	809.65
1029.209	3019.4013	1685.55	800.35
1029.3202	3020.4509	1688.2	804.7
1029.4314	3021.4998	1683.25	796.5
1029.5425	3022.5481	1690.5	808.65
1029.6535	3023.5958	1680.85	797.1
1029.7645	3024.6428	1686.95	802.35
1029.8755	3025.6892	1689.85	806.2
1029.9864	3026.735	1681.8	795.55
1030.0973	3027.7802	1680.5	795.35
1030.2082	3028.8247	1682.35	796.3
1030.319	3029.8685	1681.75	798.25
1030.4297	3030.9118	1689.5	802.6
1030.5404	3031.9544	1693.65	809.05
1030.6511	3032.9963	1698.5	814.85
1030.7617	3034.0376	1702.05	817.1
1030.8723	3035.0783	1702.95	816.7
1030.9829	3036.1184	1712.7	828.6
1031.0934	3037.1578	1711.6	828.35
1031.2038	3038.1966	1707.4	820.6
1031.3142	3039.2348	1705.5	822.05
1031.4246	3040.2723	1711.55	820.55
1031.5349	3041.3092	1713.5	830.8
1031.6452	3042.3455	1707.1	820.35
1031.7554	3043.3811	1696.55	812.35
1031.8656	3044.4161	1693.55	809.2
1031.9758	3045.4505	1679.05	797.35
1032.0859	3046.4842	1679.7	793.9
1032.1959	3047.5173	1666.45	782.35
1032.3059	3048.5498	1669.15	784.6
1032.4159	3049.5816	1655.75	772.25
1032.5258	3050.6128	1644.3	757.05
1032.6357	3051.6434	1641.55	754.3
1032.7455	3052.6734	1631.15	744.85
1032.8553	3053.7027	1617.95	733.5
1032.9651	3054.7314	1612.75	730.25
1033.0748	3055.7594	1606.9	721.7
1033.1845	3056.7868	1608.45	721.8
1033.2941	3057.8136	1594.8	710.55
1033.4037	3058.8398	1588.85	703.95
1033.5132	3059.8653	1583.7	699.1
1033.6227	3060.8902	1574.4	689.55
1033.7321	3061.9145	1569.3	685.3
1033.8415	3062.9381	1561.75	677.9
1033.9509	3063.9612	1567.3	666.5
1034.0602	3064.9835	1544	658.45
1034.1694	3066.0053	1537.25	651.45
1034.2787	3067.0264	1530.05	645.95
1034.3878	3068.0469	1530.25	646.6
1034.497	3069.0668	1512.75	625.15
1034.6061	3070.086	1499.3	615.5
1034.7151	3071.1046	1496.35	608.6
1034.8241	3072.1226	1484.6	598.9
1034.9331	3073.1399	1475.1	591.65
1035.042	3074.1567	1455.95	572.5
1035.1508	3075.1727	1444.55	558.25
1035.2597	3076.1882	1443.6	559.25
1035.3684	3077.203	1431.65	547.15
1035.4772	3078.2173	1425.3	540.95
1035.5859	3079.2308	1420.55	532.1
1035.6945	3080.2438	1412.55	527.3
1035.8031	3081.2561	1400.95	517.55
1035.9117	3082.2678	1389	505.9
1036.0202	3083.2789	1378.3	496.5
1036.1286	3084.2893	1377.25	493.2
1036.2371	3085.2991	1373.5	489.25
1036.3454	3086.3083	1366.4	478.4
1036.4538	3087.3169	1352.8	467.3
1036.562	3088.3248	1347.2	463.6
1036.6703	3089.3321	1338.9	453.95
1036.7785	3090.3388	1334.4	452.2
1036.8866	3091.3449	1325.05	440.6
1036.9948	3092.3503	1328.15	440.95
1037.1028	3093.3551	1318.35	435.35
1037.2108	3094.3593	1314.95	430.35
1037.3188	3095.3629	1311.5	428.5
1037.4267	3096.3658	1311.15	423.8
1037.5346	3097.3681	1303.3	420.9
1037.6425	3098.3698	1303.7	419.2
1037.7503	3099.3708	1307.65	416.7
1037.858	3100.3713	1297.75	413.7
1037.9657	3101.3711	1293.75	409.35
1038.0734	3102.3702	1424.7	404.95
1038.181	3103.3688	1280.75	395.95
1038.2886	3104.3667	1277	395.6
1038.3961	3105.364	1270.7	386.2
1038.5036	3106.3607	1275.05	389.2
1038.611	3107.3568	1273.5	389.55
1038.7184	3108.3522	1266.9	384.2
1038.8257	3109.347	1266.45	379.75
1038.933	3110.3412	1269.85	383.05
1039.0403	3111.3348	1261.15	377.6
1039.1475	3112.3277	1260.15	376.35
1039.2547	3113.32	1251.85	368.7
1039.3618	3114.3117	1253	368.95
1039.4689	3115.3028	1246.25	361.35
1039.5759	3116.2932	1250.25	365.5
1039.6829	3117.2831	1250.6	362.1
1039.7898	3118.2723	1245.35	361.05
1039.8967	3119.2608	1241.25	356.75
1040.0035	3120.2488	1237.4	354.7
1040.1103	3121.2361	1232.3	350.25
1040.2171	3122.2229	1239.35	354.45
1040.3238	3123.209	1239.4	355.3
1040.4305	3124.1944	1228.35	344.55
1040.5371	3125.1793	1231.5	346.9
1040.6437	3126.1635	1225.35	342.1
1040.7502	3127.1471	1221.55	339.65
1040.8567	3128.1301	1218.85	334.65
1040.9631	3129.1125	1217.8	335
1041.0695	3130.0942	1215.25	330.25
1041.1759	3131.0753	1225.15	334
1041.2822	3132.0558	1215.85	330.5
1041.3884	3133.0357	1216.05	332.85
1041.4946	3134.015	1205.2	321
1041.6008	3134.9936	1202.2	316.05
1041.7069	3135.9716	1224.65	321.65
1041.813	3136.949	1203.85	318.9
1041.919	3137.9258	1223.05	323.75
1042.025	3138.902	1207.2	317.8
1042.1309	3139.8775	1200.6	316.85
1042.2368	3140.8524	1206.25	324.6
1042.3427	3141.8267	1197.2	311.3
1042.4485	3142.8004	1191	309.6
1042.5542	3143.7735	1198.1	311.95
1042.6599	3144.7459	1196.65	311.45
1042.7656	3145.7178	1188.7	305.25
1042.8712	3146.689	1183.7	300.5
1042.9768	3147.6596	1179.2	292.95
1043.0823	3148.6295	1183.75	301.3
1043.1878	3149.5989	1179	294.65
1043.2932	3150.5676	1172.7	293.35
1043.3986	3151.5357	1175.65	293.15
1043.5039	3152.5032	1176.35	294.95
1043.6092	3153.4701	1171.25	286.6
1043.7145	3154.4364	1167	281.25
1043.8197	3155.402	1164.1	281.55
1043.9248	3156.367	1171.3	287.7
1044.03	3157.3315	1197.95	278.15
1044.135	3158.2952	1164.6	279.15
1044.24	3159.2584	1166.1	285.15
1044.345	3160.221	1158.3	273.7
1044.4499	3161.1829	1157.65	274.7
1044.5548	3162.1442	1157.85	274.65
1044.6596	3163.105	1151.75	269.25
1044.7644	3164.065	1146.85	265
1044.8692	3165.0245	1156.25	271.5
1044.9739	3165.9834	1150.2	269.45
1045.0785	3166.9416	1147.3	265.3
1045.1831	3167.8993	1148.6	264.4
1045.2877	3168.8563	1145.8	261.7
1045.3922	3169.8127	1144.6	261.85
1045.4966	3170.7684	1138.8	255.95
1045.6011	3171.7236	1140.05	256.4
1045.7054	3172.6782	1138.05	254.25
1045.8098	3173.6321	1137.4	254.35
1045.914	3174.5854	1143.5	255.65
1046.0183	3175.5381	1130.3	249.8
1046.1224	3176.4902	1136.7	253.6
1046.2266	3177.4417	1131.45	246.8
1046.3307	3178.3926	1127.8	245.55
1046.4347	3179.3428	1124.2	243.7
1046.5387	3180.2924	1125.1	242.8
1046.6427	3181.2415	1128.15	245.6
1046.7466	3182.1899	1127.15	242.85
1046.8504	3183.1377	1121.6	241.2
1046.9542	3184.0848	1120.4	236.85
1047.058	3185.0314	1119.25	237.8
1047.1617	3185.9773	1122	239.9
1047.2654	3186.9227	1117.55	231.4
1047.369	3187.8674	1116.1	230.55
1047.4726	3188.8115	1114.1	227.6
1047.5761	3189.755	1111.95	229.7
1047.6796	3190.6979	1112.05	226.5
1047.783	3191.6402	1106.55	225.35
1047.8864	3192.5818	1110.1	229.9
1047.9898	3193.5229	1117.45	228.75
1048.0931	3194.4633	1109.25	226.55
1048.1963	3195.4031	1110.25	226.35
1048.2995	3196.3423	1105.45	224
1048.4027	3197.2809	1105.55	223.65
1048.5058	3198.2189	1099.65	215.35
1048.6089	3199.1563	1108.15	221.35
1048.7119	3200.0931	1095.9	214.1
1048.8148	3201.0292	1104.35	224.2
1048.9178	3201.9648	1099.1	215.25
1049.0206	3202.8997	1099.4	212.15
1049.1235	3203.834	1094.95	211.65
1049.2262	3204.7677	1097.75	216.45
1049.329	3205.7008	1094.6	209.05
1049.4317	3206.6333	1093.65	212.95
1049.5343	3207.5652	1095.05	209.45
1049.6369	3208.4964	1093.45	211.9
1049.7394	3209.4271	1090.55	209.25
1049.8419	3210.3571	1086.15	204.45
1049.9444	3211.2865	1085.65	203.7
1050.0468	3212.2154	1091.55	208.5
1050.1491	3213.1436	1086.9	203.35
1050.2514	3214.0712	1092.45	203.2
1050.3537	3214.9982	1083.5	201.1
1050.4559	3215.9246	1081.25	199.5
1050.5581	3216.8503	1083.75	201.25
1050.6602	3217.7755	1080.7	199.2
1050.7623	3218.7001	1078.8	197.05
1050.8643	3219.624	1078.3	195.05
1050.9663	3220.5473	1075.5	193
1051.0682	3221.4701	1082.3	198.25
1051.1701	3222.3922	1079.4	195.95
1051.2719	3223.3137	1072.9	190.45
1051.3737	3224.2346	1073.85	189.75
1051.4754	3225.1549	1074.6	192.2
1051.5771	3226.0746	1073.75	191.75
1051.6788	3226.9937	1063.25	180.75
1051.7804	3227.9121	1069.9	188.4
1051.8819	3228.83	1070.1	189.55
1051.9834	3229.7473	1065.7	181.25
1052.0849	3230.6639	1066.1	182.35
1052.1863	3231.5799	1066	183.35
1052.2876	3232.4954	1065.05	183.05
1052.3889	3233.4102	1065.45	184.85
1052.4902	3234.3244	1062.1	178.65
1052.5914	3235.238	1056.5	176.05
1052.6926	3236.151	1088.8	183.1
1052.7937	3237.0634	1062.2	181.5
1052.8948	3237.9752	1056.95	175.95
1052.9958	3238.8864	1053.65	168.75
1053.0968	3239.797	1055.75	174.95
1053.1977	3240.7069	1055.1	170.4
1053.2986	3241.6163	1053.5	169.05
1053.3994	3242.5251	1052.75	171.05
1053.5002	3243.4332	1047.3	167
1053.6009	3244.3408	1050.45	167.95
1053.7016	3245.2477	1049.4	167.7
1053.8022	3246.154	1048.5	165.85
1053.9028	3247.0598	1047.2	164.8
1054.0034	3247.9649	1047.25	163.2
1054.1039	3248.8694	1047.15	163.9
1054.2043	3249.7733	1045.85	161.6
1054.3047	3250.6766	1046.25	165.65
1054.4051	3251.5793	1043.4	158.45
1054.5054	3252.4814	1038.55	157.25
1054.6056	3253.3829	1037.45	157.85
1054.7058	3254.2838	1036.85	155.55
1054.806	3255.1841	1034.5	153.5
1054.9061	3256.0838	1034.25	152.1
1055.0061	3256.9829	1032.85	152.8
1055.1062	3257.8814	1034.35	150.8
1055.2061	3258.7792	1032.7	147.55
1055.306	3259.6765	1030.5	147.5
1055.4059	3260.5731	1029.15	148.1
1055.5057	3261.4692	1027	144.75
1055.6055	3262.3647	1022.85	140.9
1055.7052	3263.2595	1020.7	138.95
1055.8049	3264.1538	1021.7	137.15
1055.9045	3265.0474	1019.65	136.45
1056.0041	3265.9404	1016.2	135.4
1056.1036	3266.8329	1017.5	135.55
1056.2031	3267.7247	1023.15	132.3
1056.3025	3268.616	1009.85	130.2
1056.4019	3269.5066	1007.2	123.35
1056.5013	3270.3966	1006.45	125.4
1056.6005	3271.286	993.65	112.35
