Software Version:	3.9.2.0
Unit SN:	10000200
Spectrometer SN:	6960
Date:	3/26/2024 1:50:38 PM
Data Line Index:	25
Spectral Points:	2048
Integration time (ms):	125
Averages:	20
Delay (ms):	30000
Sequence Number:	1
Processing:	dark subtract
Laser Power (mW):	305
Laser Current (mA):	820
Laser Diode Temp (C):	25
Laser Case Temp (C):	27.2
System Temp (C):	27.3
Spectrometer Temp (C):	25.1
CCD Temp (C):	0.007
Secondary Temp (C):	20.008
Heatsink Temp (C):	22.614
CCDPCB Temp (C):	36.774
SecondaryPCB Temp (C):	34.362

Wavelength	RamanShift	Raw Counts	Dark Subtracted
787.061	30.1047	612.25	201.9
787.2016	32.3739	622.25	215
787.3422	34.6426	635.65	225.2
787.4828	36.9109	652.45	241.6
787.6235	39.1787	672.9	257.5
787.7642	41.4461	697	276.7
787.9049	43.7131	715.9	292.05
788.0456	45.9796	732.95	306.35
788.1863	48.2456	765.3	333.8
788.3271	50.5112	785.65	349.35
788.4679	52.7764	808.85	373.1
788.6087	55.0411	835.25	395.2
788.7496	57.3054	863.05	417.1
788.8904	59.5692	889.4	441.6
789.0313	61.8326	923.2	470.5
789.1722	64.0955	955.1	498.3
789.3132	66.3579	1002	539.6
789.4541	68.6199	1050.55	585.5
789.5951	70.8815	1140.85	673.6
789.7361	73.1426	1317.25	845.7
789.8771	75.4032	1786.1	1307.85
790.0181	77.6634	2953.95	2469.8
790.1592	79.9231	5829.25	5334.65
790.3003	82.1824	12418.5	11905.3
790.4414	84.4412	26696.55	26153.35
790.5825	86.6995	50139.85	49550.1
790.7237	88.9574	60035.4	59401.3
790.8648	91.2148	63022.25	62362.15
791.006	93.4717	63603.05	62927.25
791.1472	95.7282	63846.6	63155.65
791.2885	97.9842	63949.15	63255.45
791.4297	100.2398	63899.4	63202.15
791.571	102.4949	63865.65	63168.4
791.7123	104.7495	63820	63119.5
791.8536	107.0036	63696.25	62989.65
791.9949	109.2573	63790.8	63087.35
792.1363	111.5105	63638.5	62931.9
792.2777	113.7632	63640.5	62931.65
792.4191	116.0154	63664.4	62942.2
792.5605	118.2672	63749.55	63040.3
792.7019	120.5185	63736.05	63024.6
792.8434	122.7693	63717.3	63003
792.9849	125.0197	63533.15	62813.2
793.1264	127.2696	63827.05	63105.8
793.2679	129.519	63752.95	63030.25
793.4094	131.7679	63852.35	63125.4
793.551	134.0163	63538.85	62805.8
793.6926	136.2642	63640.3	62900.95
793.8342	138.5117	63821.05	63081
793.9758	140.7587	63722.55	62982.45
794.1175	143.0052	63703.05	62959.4
794.2591	145.2512	63533.75	62792.5
794.4008	147.4967	63724.55	62984.95
794.5425	149.7417	63649.25	62901.25
794.6842	151.9863	63623.05	62880.2
794.826	154.2304	63490.3	62737.15
794.9677	156.4739	63605.4	62849
795.1095	158.717	63719.8	62963.35
795.2513	160.9596	63597.6	62835.85
795.3931	163.2017	63410.2	62650.55
795.535	165.4433	63576.15	62811.1
795.6768	167.6844	63459.85	62695.75
795.8187	169.925	63528.2	62758.55
795.9606	172.1651	63426.45	62656.75
796.1025	174.4047	63433.4	62662.45
796.2445	176.6439	63426.25	62653.3
796.3864	178.8825	63367.8	62587.6
796.5284	181.1206	63482.15	62700.85
796.6704	183.3582	63458	62677
796.8124	185.5954	63351	62570.25
796.9544	187.832	63364.5	62575.55
797.0965	190.0681	63256.2	62464.15
797.2386	192.3037	63465.2	62670.35
797.3806	194.5388	63654.2	62857.9
797.5228	196.7734	63194.95	62393.65
797.6649	199.0075	63595.95	62787.7
797.807	201.2411	63424.85	62614.35
797.9492	203.4742	63650.5	62844.65
798.0914	205.7068	63616.2	62807.35
798.2336	207.9389	63588.3	62773.75
798.3758	210.1704	63555.25	62741.1
798.518	212.4015	63741	62928.75
798.6603	214.632	63520.25	62707.5
798.8025	216.862	63747.45	62939.8
798.9448	219.0915	63654	62855.1
799.0871	221.3205	63618.75	62824
799.2294	223.549	63809.35	63019.4
799.3718	225.777	63769.05	62981.5
799.5141	228.0044	63853.7	63055.95
799.6565	230.2314	63792.6	62998.5
799.7989	232.4578	63814.45	63023.65
799.9413	234.6837	63846.55	63049.05
800.0837	236.909	64192.3	63390.15
800.2262	239.1339	63697.7	62869.65
800.3687	241.3582	63890.55	63075.95
800.5111	243.582	63889.25	63044.95
800.6536	245.8053	63863.3	63032.4
800.7961	248.0281	63864.35	63035.7
800.9387	250.2503	63933.5	63099.3
801.0812	252.472	63772.5	62939.3
801.2238	254.6932	63871.85	63034
801.3664	256.9139	63824.2	62990.6
801.509	259.134	64116.35	63272.65
801.6516	261.3536	63757.05	62920.4
801.7942	263.5727	63980.7	63141.1
801.9369	265.7912	63885.95	63046.9
802.0795	268.0092	63935.85	63095.9
802.2222	270.2267	63956.05	63116.05
802.3649	272.4436	63799.4	62959.5
802.5076	274.6601	63931.6	63083.75
802.6504	276.8759	64011.75	63169.1
802.7931	279.0913	63929.8	63078.95
802.9359	281.3061	63949.9	63102.2
803.0787	283.5204	63978.85	63126.7
803.2215	285.7341	63918.55	63064.45
803.3643	287.9473	64090.3	63224.55
803.5071	290.16	63944.4	63080.55
803.6499	292.3721	64055.65	63200.25
803.7928	294.5837	63915.3	63053.9
803.9357	296.7947	63843.9	62989.75
804.0786	299.0052	64072.7	63217.1
804.2215	301.2152	63959.2	63098.3
804.3644	303.4246	64069.85	63219.5
804.5074	305.6334	64041.55	63188.7
804.6503	307.8418	63803.4	62946.3
804.7933	310.0495	63823.05	62966.8
804.9363	312.2568	63758.45	62897.35
805.0793	314.4635	63759.35	62896.35
805.2223	316.6696	63825.95	62964.7
805.3653	318.8752	63908.95	63037
805.5084	321.0802	63587.7	62724.85
805.6514	323.2847	63707.25	62842
805.7945	325.4887	63724	62856.7
805.9376	327.692	63624.35	62758.35
806.0807	329.8949	63706.5	62839.3
806.2238	332.0972	63607.8	62739.35
806.367	334.2989	63641.65	62769.95
806.5101	336.5001	63717	62841.2
806.6533	338.7007	63496.6	62625.25
806.7965	340.9008	63605.7	62730.2
806.9397	343.1003	63601.15	62730.6
807.0829	345.2992	63698.15	62822.35
807.2261	347.4976	63576.2	62698.95
807.3693	349.6955	63620.15	62736.75
807.5126	351.8927	63533.3	62650.1
807.6559	354.0895	63636.95	62744.6
807.7991	356.2856	63599.05	62713.1
807.9424	358.4812	63695.9	62817.45
808.0857	360.6763	63528.15	62644.1
808.2291	362.8707	63631	62746.2
808.3724	365.0646	63554.8	62672.45
808.5158	367.258	63568.9	62682.2
808.6591	369.4508	63458.15	62571.3
808.8025	371.643	63612.9	62723.75
808.9459	373.8346	63579.3	62683.85
809.0893	376.0257	63559.45	62661.65
809.2327	378.2162	63516.5	62623.15
809.3762	380.4062	63396.4	62502.4
809.5196	382.5956	63458.6	62565.15
809.6631	384.7844	63478.85	62582.4
809.8066	386.9726	63495.1	62600.45
809.9501	389.1603	63489.55	62595.85
810.0936	391.3474	63348.5	62413
810.2371	393.5339	63486.7	62586.9
810.3806	395.7199	63302.3	62407.35
810.5241	397.9052	63324.25	62432.05
810.6677	400.09	63367.55	62482.4
810.8113	402.2743	63450.4	62569.85
810.9548	404.4579	63351.8	62465.35
811.0984	406.641	63330.5	62443.75
811.2421	408.8235	63424.2	62541.7
811.3857	411.0054	63417.75	62531.25
811.5293	413.1868	63436.15	62545.15
811.673	415.3675	63426.55	62536.15
811.8166	417.5477	63461.4	62570.4
811.9603	419.7273	63431.2	62538.8
812.104	421.9064	63388.6	62482.25
812.2477	424.0848	63427.05	62528.9
812.3914	426.2627	63483.05	62582.45
812.5351	428.4399	63308.85	62407.7
812.6788	430.6166	63201.2	62297.95
812.8226	432.7928	63302.5	62398.95
812.9663	434.9683	63160.9	62263.8
813.1101	437.1432	63148.6	62247
813.2539	439.3176	63213.7	62314.95
813.3977	441.4914	63055.4	62163.3
813.5415	443.6645	63094.6	62193.3
813.6853	445.8371	63078.6	62172.45
813.8291	448.0091	63011.25	62111.95
813.973	450.1806	62968.45	62071.6
814.1168	452.3514	62946.5	62049.35
814.2607	454.5216	62907.9	62007.05
814.4046	456.6913	62949.15	62049.1
814.5485	458.8603	62950.25	62050.1
814.6924	461.0288	62847.25	61951.5
814.8363	463.1967	62947.15	62049.35
814.9802	465.3639	62940.85	62043.65
815.1241	467.5306	62781.15	61879.05
815.2681	469.6967	62838.05	61940.6
815.412	471.8622	62907.05	62010.35
815.556	474.0271	62861.05	61958.05
815.7	476.1914	62879.8	61973.65
815.844	478.3551	62869.2	61965.65
815.988	480.5182	62975.15	62077.55
816.132	482.6807	62865.35	61969.5
816.276	484.8426	62890.5	62003.8
816.4201	487.0039	63017.25	62123.75
816.5641	489.1647	63026.05	62126.1
816.7082	491.3248	62935.55	62036.1
816.8522	493.4843	63040.65	62139.65
816.9963	495.6432	63045.1	62144.4
817.1404	497.8015	62902.55	61993.2
817.2845	499.9592	62975.9	62067.65
817.4286	502.1163	62988.1	62080.7
817.5727	504.2728	62930.3	62024.35
817.7168	506.4287	62912.3	62016.05
817.861	508.5839	62787.35	61888.15
818.0051	510.7386	62815.4	61913.45
818.1493	512.8927	62849.35	61937.4
818.2935	515.0461	62808.7	61901.85
818.4377	517.199	62853.55	61942.75
818.5818	519.3512	62831.5	61922.9
818.726	521.5029	62796.05	61883.55
818.8703	523.6539	62828.35	61920.1
819.0145	525.8043	62742.25	61831.45
819.1587	527.9541	62813.75	61900.3
819.303	530.1033	62802.5	61887.9
819.4472	532.2519	62727.95	61816.8
819.5915	534.3999	62799.9	61891.3
819.7357	536.5472	62844	61931
819.88	538.694	62745.35	61836.7
820.0243	540.8401	62867.75	61951.65
820.1686	542.9856	62879.35	61962.85
820.3129	545.1305	62919.4	61994.55
820.4572	547.2748	62854.35	61928.3
820.6016	549.4185	62809.6	61881.85
820.7459	551.5615	62854.05	61927.6
820.8902	553.704	62808.4	61884.2
821.0346	555.8458	62731.35	61813.15
821.1789	557.987	62775.35	61857.95
821.3233	560.1276	62822.4	61898.9
821.4677	562.2675	62803.55	61884.75
821.6121	564.4069	62832	61913.5
821.7565	566.5456	62881.05	61963.95
821.9009	568.6837	62799	61879.55
822.0453	570.8212	62805.25	61890.85
822.1897	572.958	62616.1	61695.75
822.3342	575.0942	62675.8	61759.35
822.4786	577.2299	62574.25	61665.35
822.6231	579.3648	62529.2	61626.7
822.7675	581.4992	62485.5	61588
822.912	583.6329	62471.75	61577.15
823.0565	585.766	62482.5	61581.6
823.201	587.8985	62536.05	61631.2
823.3454	590.0304	62339.5	61401.45
823.4899	592.1616	62444.4	61523.45
823.6345	594.2922	62388.95	61468.8
823.779	596.4222	62236.95	61313.2
823.9235	598.5515	62232.6	61306.4
824.068	600.6802	62290.15	61366.2
824.2126	602.8083	62127.05	61209.75
824.3571	604.9358	62106.55	61185.8
824.5017	607.0626	62232.25	61306.25
824.6462	609.1888	62030.35	61101.75
824.7908	611.3144	62164.15	61232.2
824.9354	613.4393	62059	61128.8
825.08	615.5636	61954.95	61028.6
825.2246	617.6873	62060.65	61131.9
825.3692	619.8103	61919.75	60996.35
825.5138	621.9327	62056.35	61131.3
825.6584	624.0544	62038.15	61118.25
825.803	626.1756	61934.55	61011.3
825.9477	628.2961	61894.15	60967.6
826.0923	630.4159	61821.6	60897.4
826.237	632.5351	61790.75	60863.5
826.3816	634.6537	62003.45	61076.5
826.5263	636.7716	61748.05	60814.2
826.6709	638.8889	61816.6	60884.85
826.8156	641.0056	61803.3	60869.85
826.9603	643.1216	61812.95	60878.5
827.105	645.237	61863.75	60937.2
827.2497	647.3518	61735.65	60814
827.3944	649.4659	61769.3	60846.9
827.5391	651.5793	61759.65	60838.1
827.6838	653.6922	61764.65	60841.65
827.8285	655.8043	61591.65	60667.65
827.9733	657.9159	61813.95	60890.4
828.118	660.0268	61435.6	60508.5
828.2627	662.137	61642.15	60715.3
828.4075	664.2466	61660.65	60724.9
828.5522	666.3556	61596.9	60661.45
828.697	668.4639	61615.5	60689.8
828.8418	670.5716	61548.55	60626
828.9865	672.6786	61587.65	60660.4
829.1313	674.785	61447.25	60513.75
829.2761	676.8907	61452.8	60523.45
829.4209	678.9958	61529.05	60608.65
829.5657	681.1002	61506.1	60580.75
829.7105	683.204	61382.5	60447.95
829.8553	685.3072	61314.75	60381.2
830.0001	687.4097	61342.9	60411.5
830.1449	689.5115	61299.65	60364.8
830.2898	691.6127	61393.55	60464.7
830.4346	693.7132	61269.9	60345.65
830.5794	695.8131	61334.05	60384.7
830.7243	697.9123	61326.25	60388.35
830.8691	700.0109	61313.15	60381.1
831.014	702.1089	61152.35	60221.15
831.1588	704.2061	61215.4	60281.7
831.3037	706.3028	61225.3	60293.25
831.4486	708.3987	61213.35	60278.35
831.5935	710.4941	61147.75	60217.05
831.7383	712.5887	61260.15	60330.35
831.8832	714.6827	61230.35	60297.35
832.0281	716.7761	61284.5	60359.2
832.173	718.8688	61322.45	60389.75
832.3179	720.9608	61220.7	60280.35
832.4628	723.0522	61287.15	60345.45
832.6077	725.1429	61161.1	60229.05
832.7527	727.233	61358.5	60423.8
832.8976	729.3224	60914.9	59979.65
833.0425	731.4112	61120.25	60186.8
833.1874	733.4993	61084.3	60149.65
833.3324	735.5867	61012.95	60079.05
833.4773	737.6735	60846.4	59911.2
833.6222	739.7596	60705.25	59769
833.7672	741.845	60670.55	59734.75
833.9122	743.9298	60864.25	59924.9
834.0571	746.014	60637	59699.2
834.2021	748.0974	60490.65	59546.25
834.347	750.1802	60735.35	59793.6
834.492	752.2624	60411.35	59470
834.637	754.3439	60436.55	59495.2
834.782	756.4247	60497.8	59549.25
834.9269	758.5048	60384.3	59450
835.0719	760.5843	60437.35	59500.2
835.2169	762.6631	60536.15	59596.05
835.3619	764.7413	60561.85	59626.15
835.5069	766.8188	60664.55	59727.1
835.6519	768.8956	60837.65	59899.8
835.7969	770.9718	60848.6	59910.1
835.9419	773.0473	60734.15	59799.45
836.0869	775.1221	60533.4	59594.05
836.232	777.1962	60446.95	59508.25
836.377	779.2697	60249.55	59308.95
836.522	781.3426	60331.9	59382.1
836.667	783.4147	60410.2	59471.95
836.8121	785.4862	60390.3	59452.4
836.9571	787.557	60207.7	59267.75
837.1021	789.6271	60279.7	59337.55
837.2472	791.6966	60014.8	59074.7
837.3922	793.7654	59765.4	58825.2
837.5373	795.8335	59706	58770.2
837.6823	797.901	59672.4	58734.95
837.8274	799.9678	59575.7	58637.3
837.9724	802.0339	59491.35	58549.5
838.1175	804.0993	59512.75	58561.4
838.2626	806.1641	59431.2	58491.6
838.4076	808.2282	59374.45	58433.85
838.5527	810.2916	59325.55	58384.95
838.6978	812.3544	59386.85	58449.45
838.8428	814.4164	59166.6	58227.95
838.9879	816.4778	59213.65	58267.4
839.133	818.5385	59172.95	58229
839.2781	820.5986	59197.85	58256.75
839.4232	822.658	59277.1	58333.85
839.5682	824.7166	59292.15	58352.6
839.7133	826.7747	59197.9	58259.35
839.8584	828.832	59323.8	58383.05
840.0035	830.8886	59414.1	58467.15
840.1486	832.9446	59440.35	58498.4
840.2937	834.9999	59105.95	58165.05
840.4388	837.0545	59216.55	58271.6
840.5839	839.1085	59184.65	58242.45
840.729	841.1618	59097.05	58151.45
840.8741	843.2143	58830.55	57887.75
841.0192	845.2662	58747.3	57806.6
841.1643	847.3175	58815.2	57873.7
841.3095	849.368	58467.7	57521.9
841.4546	851.4179	58675.1	57736.2
841.5997	853.467	58434.45	57494.9
841.7448	855.5155	58507.55	57561.85
841.8899	857.5633	58262.65	57319.4
842.0351	859.6105	58095.3	57153.15
842.1802	861.6569	58195.1	57251.2
842.3253	863.7027	57917.1	56973.1
842.4704	865.7478	58008.9	57064.95
842.6156	867.7922	57951.95	57007.65
842.7607	869.8359	58058	57113.95
842.9058	871.8789	57686.15	56742.95
843.0509	873.9212	57943.95	56968.9
843.1961	875.9629	57947.65	57001.55
843.3412	878.0039	57895.95	56951.75
843.4863	880.0441	57751.95	56810.95
843.6315	882.0837	57797.6	56856.25
843.7766	884.1226	57779.05	56834.4
843.9218	886.1609	57745.35	56802.05
844.0669	888.1984	57623.95	56684.75
844.212	890.2352	57900.25	56958.45
844.3572	892.2714	57528.75	56580.6
844.5023	894.3069	57675.4	56732.2
844.6475	896.3416	57385.45	56437.85
844.7926	898.3757	57307.25	56361.9
844.9377	900.4091	56729.15	55783.2
845.0829	902.4418	57369	56419.95
845.228	904.4739	57001.6	56056.3
845.3732	906.5052	57078.95	56133.95
845.5183	908.5358	56832.45	55889.55
845.6635	910.5658	56601.4	55655.9
845.8086	912.595	56507.9	55560.45
845.9538	914.6236	55888.55	54941.7
846.0989	916.6515	56695.3	55749.8
846.2441	918.6786	55803.75	54854.35
846.3892	920.7051	55983.45	55037.3
846.5344	922.7309	55870.55	54927
846.6795	924.756	55953.4	55008
846.8246	926.7804	55704.3	54757.6
846.9698	928.8041	55138.65	54193.2
847.1149	930.8272	55498.15	54550.9
847.2601	932.8495	55449	54504.3
847.4052	934.8711	55058.9	54112.65
847.5504	936.892	54765.4	53820.35
847.6955	938.9123	54969.85	54022
847.8407	940.9318	54681.85	53736.7
847.9858	942.9506	54594.05	53649.1
848.131	944.9688	54646.6	53701.05
848.2761	946.9862	53903.45	52959
848.4213	949.003	54089.55	53148.35
848.5664	951.019	53422.4	52479.55
848.7115	953.0344	53493.1	52549.45
848.8567	955.0491	53410.8	52464.5
849.0018	957.063	53569.6	52624.75
849.147	959.0763	53689.45	52738.2
849.2921	961.0888	53204.65	52257.85
849.4373	963.1007	53515.45	52570.15
849.5824	965.1119	53435.45	52499.7
849.7275	967.1223	53085.35	52152.4
849.8727	969.1321	53400.95	52466.15
850.0178	971.1412	52842.2	51904.9
850.1629	973.1495	52640.6	51698.3
850.3081	975.1572	52860.25	51878.05
850.4532	977.1641	52667.1	51723.8
850.5983	979.1704	52475.05	51529.45
850.7435	981.1759	52534.05	51583.6
850.8886	983.1808	52169.2	51222.75
851.0337	985.1849	52224	51271.3
851.1788	987.1884	52281.3	51339.1
851.324	989.1911	52535.35	51591.5
851.4691	991.1932	51818.8	50875.2
851.6142	993.1945	51936.5	50996.2
851.7593	995.1951	52024.3	51079.75
851.9045	997.1951	51548	50599.55
852.0496	999.1943	51390.85	50447.2
852.1947	1001.1928	51241.4	50297.55
852.3398	1003.1906	51245.05	50302.05
852.4849	1005.1877	50856.05	49912.95
852.63	1007.1841	50692.3	49746.4
852.7751	1009.1798	50655.95	49716.7
852.9202	1011.1748	50465.35	49522.95
853.0653	1013.1691	50235.3	49288.75
853.2104	1015.1627	49401.35	48457.75
853.3555	1017.1556	49373.65	48433.8
853.5006	1019.1477	49403.45	48467.55
853.6457	1021.1392	48888.45	47952.05
853.7908	1023.1299	48440.1	47505.55
853.9359	1025.12	48530.25	47601.65
854.081	1027.1093	48242.25	47320
854.2261	1029.0979	48260.4	47339.55
854.3712	1031.0859	48198.2	47275.05
854.5163	1033.0731	47804.4	46870.9
854.6613	1035.0596	47804.4	46870.05
854.8064	1037.0454	47596	46661.8
854.9515	1039.0304	47340.2	46401.2
855.0965	1041.0148	46909.25	45969.65
855.2416	1042.9985	46847.45	45910.4
855.3867	1044.9814	46805.85	45868.4
855.5317	1046.9636	46404.4	45464.55
855.6768	1048.9452	46297.65	45362.1
855.8219	1050.926	46320.85	45385.5
855.9669	1052.9061	46195.75	45256.35
856.112	1054.8855	46170.3	45231.75
856.257	1056.8642	45959.1	45022.2
856.4021	1058.8421	45907.1	44960.4
856.5471	1060.8194	45862.8	44922.45
856.6921	1062.7959	45717.6	44778.25
856.8372	1064.7717	45768.35	44829.25
856.9822	1066.7469	45620.7	44683.85
857.1272	1068.7213	45618.95	44675.65
857.2723	1070.695	45515.05	44574.9
857.4173	1072.6679	45291.6	44352.2
857.5623	1074.6402	45332.65	44394.75
857.7073	1076.6117	45150.3	44206.95
857.8523	1078.5826	45010.9	44067.7
857.9973	1080.5527	44883.55	43939
858.1423	1082.5221	44664.5	43726.9
858.2873	1084.4908	44639.1	43700.8
858.4323	1086.4587	44609.5	43668.95
858.5773	1088.426	44613	43673.45
858.7223	1090.3925	44416.6	43475.45
858.8673	1092.3584	44406.5	43471.2
859.0123	1094.3235	44075.25	43137.35
859.1573	1096.2879	43976.7	43036.95
859.3022	1098.2515	43974.9	43036.3
859.4472	1100.2145	44048.1	43110.65
859.5922	1102.1767	44017.85	43077.15
859.7371	1104.1382	44130.5	43195.2
859.8821	1106.099	44177.85	43238.05
860.027	1108.0591	44198	43257.2
860.172	1110.0185	44123.8	43180.75
860.3169	1111.9771	44236.25	43297.45
860.4619	1113.9351	43933.4	42992.95
860.6068	1115.8923	43641.25	42703.35
860.7517	1117.8488	43275.6	42336.6
860.8967	1119.8045	42940.05	42001.55
861.0416	1121.7596	42840.5	41902.95
861.1865	1123.7139	42582.8	41648.65
861.3314	1125.6675	42545.05	41607.35
861.4763	1127.6204	42605	41667.4
861.6212	1129.5726	42340.65	41398.8
861.7661	1131.524	42265.95	41329.65
861.911	1133.4748	42127.15	41190.35
862.0559	1135.4248	41821.2	40883.5
862.2008	1137.3741	41722.1	40787.5
862.3457	1139.3226	41545.2	40604.6
862.4905	1141.2705	41522.7	40582.4
862.6354	1143.2176	41221.2	40276.2
862.7803	1145.164	41107.4	40167.1
862.9251	1147.1097	40967.05	40029.4
863.07	1149.0546	40873.15	39932.9
863.2148	1150.9989	40725.4	39787.3
863.3597	1152.9424	40644.3	39706.5
863.5045	1154.8852	40447.7	39511.75
863.6493	1156.8272	40313.15	39376.35
863.7942	1158.7686	40339.95	39395.35
863.939	1160.7092	40094.95	39156.9
864.0838	1162.6491	39907.45	38970.95
864.2286	1164.5883	40049.35	39112.15
864.3734	1166.5267	40044.7	39108.7
864.5182	1168.4644	40108.25	39172.9
864.663	1170.4014	40124.6	39186.65
864.8078	1172.3377	40272.35	39336.25
864.9526	1174.2732	40471.25	39538.25
865.0974	1176.2081	40721.9	39785.8
865.2421	1178.1421	40928.75	39988.85
865.3869	1180.0755	41221.25	40286.6
865.5317	1182.0082	41239.7	40307.95
865.6764	1183.9401	41301.3	40367.55
865.8212	1185.8713	41047.9	40120
865.9659	1187.8017	40808.6	39879.9
866.1106	1189.7315	40468	39546.65
866.2554	1191.6605	39987.05	39065.1
866.4001	1193.5888	39684.95	38758.45
866.5448	1195.5163	39442.85	38511.9
866.6895	1197.4432	39244.85	38312.75
866.8342	1199.3693	39114.2	38183.2
866.9789	1201.2947	38938.2	38001.45
867.1236	1203.2193	38824.6	37892.5
867.2683	1205.1432	38797.25	37866.15
867.413	1207.0664	38647.6	37713.55
867.5576	1208.9889	38522.4	37588.1
867.7023	1210.9106	38383.15	37450.25
867.847	1212.8316	38220.95	37287.7
867.9916	1214.7519	38206.15	37262.5
868.1363	1216.6715	38103.6	37170.25
868.2809	1218.5903	38076.4	37140.75
868.4255	1220.5084	37994.65	37060
868.5701	1222.4257	38048.05	37115.2
868.7148	1224.3424	37879.2	36950.85
868.8594	1226.2583	37901.65	36968.4
869.004	1228.1735	37880.7	36948.4
869.1486	1230.0879	37796.4	36864.25
869.2932	1232.0016	37862.05	36928.4
869.4377	1233.9146	37834	36899.35
869.5823	1235.8269	37718.85	36787.1
869.7269	1237.7384	37606.1	36674.55
869.8715	1239.6492	37323.55	36392.3
870.016	1241.5592	37263.35	36329.4
870.1606	1243.4686	37107	36174.7
870.3051	1245.3772	37127.15	36198.3
870.4496	1247.285	37123.75	36194.9
870.5941	1249.1922	37080.45	36150.7
870.7387	1251.0986	37094.8	36162.85
870.8832	1253.0042	36911.75	35979.5
871.0277	1254.9092	36967.3	36035
871.1722	1256.8134	36930.8	36003.55
871.3167	1258.7169	37049.2	36118.3
871.4611	1260.6196	37052.75	36120.9
871.6056	1262.5216	37252.95	36320.2
871.7501	1264.4229	37245.3	36314.8
871.8945	1266.3234	37407.85	36479.6
872.039	1268.2232	37379.7	36448.45
872.1834	1270.1223	37366.85	36434.1
872.3278	1272.0207	37316.85	36385
872.4723	1273.9183	37227.95	36290.7
872.6167	1275.8151	37070.65	36138.7
872.7611	1277.7113	36972.3	36043.25
872.9055	1279.6067	36855.9	35926.25
873.0499	1281.5014	36880.65	35947.55
873.1943	1283.3953	37006.55	36076.2
873.3386	1285.2885	37254.55	36324.85
873.483	1287.181	37416.75	36486.55
873.6274	1289.0727	37725.15	36799.35
873.7717	1290.9637	37818.1	36890.55
873.9161	1292.854	37924.9	36992.2
874.0604	1294.7435	37850.55	36921.75
874.2047	1296.6323	37847.6	36915.05
874.349	1298.5204	37741.4	36807.85
874.4933	1300.4077	37640.05	36711.15
874.6376	1302.2943	37494.8	36566.55
874.7819	1304.1802	37298	36368.05
874.9262	1306.0653	36860.2	35928.75
875.0705	1307.9497	36551.1	35622.05
875.2147	1309.8333	36261.65	35332.75
875.359	1311.7162	36006.6	35075.5
875.5032	1313.5984	35830	34900.6
875.6475	1315.4798	35716.45	34773.65
875.7917	1317.3605	35638.75	34694.4
875.9359	1319.2405	35629.5	34697.35
876.0801	1321.1197	35447.5	34515
876.2243	1322.9982	35141.95	34209.85
876.3685	1324.876	34961.85	34033.4
876.5127	1326.753	34710.15	33779.8
876.6569	1328.6293	34587.15	33655.65
876.801	1330.5048	34465.7	33532.05
876.9452	1332.3796	34289.7	33362.55
877.0893	1334.2537	34229.4	33277.85
877.2335	1336.127	34039.3	33110.2
877.3776	1337.9996	33963.75	33034.5
877.5217	1339.8714	33919.1	32992.95
877.6658	1341.7426	33891.3	32914.1
877.8099	1343.6129	33802.7	32869.05
877.954	1345.4826	33677.55	32750.15
878.0981	1347.3515	33729.65	32795.9
878.2422	1349.2196	33599.7	32670.4
878.3862	1351.087	33583.5	32650.75
878.5303	1352.9537	33591.5	32663
878.6743	1354.8197	33663.85	32732.5
878.8184	1356.6849	33771	32839.65
878.9624	1358.5493	33768.05	32840.15
879.1064	1360.4131	33865.3	32934.35
879.2504	1362.276	33832.75	32904.9
879.3944	1364.1383	33710.05	32784.05
879.5384	1365.9998	33501.75	32569.3
879.6823	1367.8606	33084.75	32155.65
879.8263	1369.7206	32771.95	31838.8
879.9702	1371.5799	32440.35	31509.25
880.1142	1373.4384	32152.85	31223.55
880.2581	1375.2962	31944.35	31014.2
880.402	1377.1533	31565.8	30637.75
880.5459	1379.0096	31159.35	30233.3
880.6898	1380.8652	30864.05	29936.7
880.8337	1382.7201	30532.35	29604.3
880.9776	1384.5742	30219.95	29291.2
881.1215	1386.4275	29949.8	29019.75
881.2653	1388.2802	29765.55	28837.85
881.4092	1390.132	29543.15	28612.95
881.553	1391.9832	29495.95	28565.65
881.6968	1393.8336	29288.95	28360.6
881.8406	1395.6832	29180.65	28250.45
881.9844	1397.5322	29039.3	28110.4
882.1282	1399.3803	28941.2	28010.5
882.272	1401.2278	28791.6	27865.45
882.4158	1403.0745	28781.35	27854.9
882.5595	1404.9204	28579.5	27656.25
882.7033	1406.7656	28560	27632.75
882.847	1408.6101	28457.05	27528.15
882.9908	1410.4538	28347.85	27420.95
883.1345	1412.2968	28344.7	27415.25
883.2782	1414.139	28285.25	27356.8
883.4219	1415.9805	28306.4	27379.75
883.5656	1417.8213	28303.85	27355.55
883.7092	1419.6613	28279.1	27356.5
883.8529	1421.5006	28355.05	27429.25
883.9965	1423.3391	28500.8	27575.85
884.1402	1425.1769	28597.4	27669.2
884.2838	1427.0139	28901.75	27975.6
884.4274	1428.8502	29297.75	28370.4
884.571	1430.6858	29728	28798.5
884.7146	1432.5206	29955.85	29031.6
884.8582	1434.3547	30124.5	29198.45
885.0018	1436.188	30120.75	29195.05
885.1453	1438.0206	30030	29103.45
885.2889	1439.8524	29775.7	28851.1
885.4324	1441.6835	29633.75	28709.85
885.5759	1443.5139	29488.35	28560.9
885.7194	1445.3435	29337.65	28413
885.8629	1447.1724	29269.9	28344.6
886.0064	1449.0005	29182.9	28261.1
886.1499	1450.8279	29059.75	28134.4
886.2933	1452.6545	29071.6	28150.45
886.4368	1454.4804	29108.8	28187.9
886.5802	1456.3056	28994.1	28066.85
886.7237	1458.13	28868.25	27946.85
886.8671	1459.9536	28703.85	27783.15
887.0105	1461.7766	28453.6	27529.15
887.1539	1463.5987	28081.6	27155.8
887.2972	1465.4202	27735.7	26808
887.4406	1467.2409	27412.8	26488.95
887.584	1469.0608	27200.7	26275.9
887.7273	1470.88	26923.75	25998.85
887.8706	1472.6984	26706.4	25785.7
888.0139	1474.5161	26442.15	25516.2
888.1572	1476.3331	26208.3	25285
888.3005	1478.1493	26120.8	25194.85
888.4438	1479.9648	26026.15	25103.6
888.5871	1481.7795	25873.6	24949.65
888.7303	1483.5935	25788.35	24864.2
888.8736	1485.4067	25716.45	24796.7
889.0168	1487.2192	25675.5	24752.6
889.16	1489.031	25559.05	24632.55
889.3032	1490.842	25462.8	24539.95
889.4464	1492.6522	25411.3	24488.3
889.5896	1494.4618	25332.5	24407.05
889.7327	1496.2705	25291.15	24369.7
889.8759	1498.0785	25179.15	24255.5
890.019	1499.8858	25093.65	24171.45
890.1622	1501.6924	25023.4	24101.7
890.3053	1503.4981	24977.5	24056.35
890.4484	1505.3032	24933.05	24012.35
890.5914	1507.1075	24867.85	23946.25
890.7345	1508.911	24791.85	23870.25
890.8776	1510.7138	24737.15	23814.95
891.0206	1512.5159	24599.35	23676
891.1637	1514.3172	24508.55	23586.05
891.3067	1516.1178	24401.4	23482.3
891.4497	1517.9176	24381.85	23458.8
891.5927	1519.7166	24236.7	23316.55
891.7357	1521.515	24178.9	23252.9
891.8786	1523.3126	24138.85	23218.4
892.0216	1525.1094	24025.4	23106.15
892.1645	1526.9055	23939.7	23021.55
892.3074	1528.7008	23841.05	22921.7
892.4503	1530.4954	23689.8	22765.4
892.5932	1532.2893	23693.9	22778.15
892.7361	1534.0824	23555.4	22633.5
892.879	1535.8747	23540.6	22621.25
893.0218	1537.6663	23478.8	22561.25
893.1647	1539.4572	23400.45	22483
893.3075	1541.2473	23367.05	22448.25
893.4503	1543.0367	23279.3	22359.9
893.5931	1544.8253	23173.15	22252.4
893.7359	1546.6132	23202.2	22282.25
893.8787	1548.4003	23118.75	22191.85
894.0214	1550.1867	23125.4	22198.85
894.1642	1551.9723	23085.4	22167.8
894.3069	1553.7572	23102.1	22185.2
894.4496	1555.5414	23084.5	22166.8
894.5923	1557.3247	23098.75	22185.9
894.735	1559.1074	23160.3	22249.85
894.8777	1560.8893	23232.05	22323.05
895.0204	1562.6705	23246.85	22337.8
895.163	1564.4509	23328.7	22418.35
895.3056	1566.2305	23293.25	22385
895.4482	1568.0094	23388	22482.25
895.5908	1569.7876	23341.85	22432.65
895.7334	1571.565	23298.4	22385.05
895.876	1573.3417	23298.5	22386.45
896.0186	1575.1176	23228.85	22318.2
896.1611	1576.8928	23186	22278.95
896.3036	1578.6672	23075.65	22170.25
896.4461	1580.4409	22998.8	22096.75
896.5886	1582.2138	22888.25	21980.3
896.7311	1583.986	22841.85	21933.55
896.8736	1585.7575	22815.7	21906.65
897.0161	1587.5282	22802.35	21895.4
897.1585	1589.2981	22823.7	21919
897.3009	1591.0673	22747.6	21844.7
897.4433	1592.8358	22756.55	21852.05
897.5857	1594.6035	22820.9	21911.05
897.7281	1596.3704	22760.9	21851
897.8705	1598.1366	22803.9	21896.95
898.0128	1599.9021	22804.8	21898.55
898.1551	1601.6668	22796.2	21891.35
898.2975	1603.4308	22830.05	21923.55
898.4398	1605.194	22900.45	21987.9
898.5821	1606.9564	22982.95	22082.85
898.7243	1608.7182	23143.15	22241.45
898.8666	1610.4791	23313.25	22416.85
899.0088	1612.2394	23424.35	22527.8
899.1511	1613.9988	23589.15	22689.75
899.2933	1615.7576	23770.55	22870.3
899.4355	1617.5156	23921.05	23006.7
899.5776	1619.2728	24026.55	23119.3
899.7198	1621.0293	24021.35	23114.9
899.862	1622.785	23882.05	22977.75
900.0041	1624.54	23595.15	22693.05
900.1462	1626.2942	23358.3	22454.9
900.2883	1628.0477	23014.95	22110.1
900.4304	1629.8005	22667.05	21762.75
900.5725	1631.5525	22396.4	21495.15
900.7145	1633.3037	22155.55	21255.35
900.8566	1635.0542	21978.45	21076.75
900.9986	1636.804	21826.75	20924.7
901.1406	1638.553	21732.8	20779.6
901.2826	1640.3013	21544.75	20645.15
901.4245	1642.0488	21478.25	20575.9
901.5665	1643.7955	21481.8	20584.7
901.7085	1645.5416	21493.9	20594.15
901.8504	1647.2868	21528.15	20628.3
901.9923	1649.0313	21530.15	20627.2
902.1342	1650.7751	21655.4	20750.1
902.2761	1652.5181	21753.75	20852.5
902.4179	1654.2604	21805.65	20905.55
902.5598	1656.0019	21941.75	21043.35
902.7016	1657.7427	22115.75	21213.6
902.8434	1659.4828	22327.85	21424.6
902.9852	1661.222	22391.65	21489.45
903.127	1662.9606	22358.1	21455.35
903.2687	1664.6984	22128.05	21223.7
903.4105	1666.4354	21808.35	20900.65
903.5522	1668.1717	21329.6	20421.9
903.6939	1669.9072	20801.7	19894.15
903.8356	1671.642	20415.95	19509.65
903.9773	1673.3761	20055.8	19152.8
904.119	1675.1094	19763.05	18860.9
904.2606	1676.8419	19486.5	18583.8
904.4022	1678.5737	19250.3	18347.7
904.5439	1680.3048	19080.75	18175.25
904.6855	1682.0351	18942.95	18040.8
904.827	1683.7646	18793.8	17886.55
904.9686	1685.4934	18700	17797.85
905.1101	1687.2215	18596	17692.5
905.2517	1688.9488	18497.65	17595.9
905.3932	1690.6754	18375.3	17473.15
905.5347	1692.4012	18309.95	17404.35
905.6761	1694.1263	18232.7	17328.15
905.8176	1695.8506	18160.7	17258.05
905.9591	1697.5742	18095.45	17196.85
906.1005	1699.297	18012.15	17113.5
906.2419	1701.0191	17910.15	17013.45
906.3833	1702.7404	17873.9	16975.25
906.5246	1704.461	17713.45	16812
906.666	1706.1808	17666.35	16766.85
906.8073	1707.8999	17591.65	16691
906.9487	1709.6182	17533.35	16634.9
907.09	1711.3358	17488	16593.6
907.2313	1713.0527	17411.65	16516.95
907.3725	1714.7688	17329.35	16428.7
907.5138	1716.4841	17251.95	16353.05
907.655	1718.1987	17259.35	16353.85
907.7962	1719.9126	17126.75	16230.05
907.9374	1721.6257	17101.75	16204.55
908.0786	1723.338	17094	16198.75
908.2198	1725.0496	16979.6	16081.05
908.3609	1726.7605	16953.55	16052.35
908.502	1728.4706	16899.85	16000.55
908.6431	1730.18	16808.25	15910.45
908.7842	1731.8886	16771.45	15878.3
908.9253	1733.5964	16762.35	15847.95
909.0664	1735.3036	16712.5	15814.1
909.2074	1737.0099	16632.85	15737.85
909.3484	1738.7156	16594.2	15698.7
909.4894	1740.4204	16491.25	15593.8
909.6304	1742.1246	16466.75	15566.95
909.7714	1743.8279	16428.95	15531.4
909.9123	1745.5306	16412.1	15518.1
910.0532	1747.2325	16323.05	15426.2
910.1941	1748.9336	16256.05	15359.9
910.335	1750.634	16209.85	15310.55
910.4759	1752.3336	16164.55	15269.15
910.6168	1754.0325	16137.85	15248.05
910.7576	1755.7307	16094.95	15203.95
910.8984	1757.4281	16085.75	15188.7
911.0392	1759.1247	16066.4	15158.7
911.18	1760.8206	16042.35	15138.5
911.3208	1762.5158	15975.4	15074.35
911.4615	1764.2102	15907	15011.85
911.6022	1765.9039	15871	14976.9
911.7429	1767.5968	15825.5	14932.95
911.8836	1769.289	15789.9	14895
912.0243	1770.9804	15780.1	14885.8
912.1649	1772.6711	15751.65	14854.85
912.3056	1774.361	15717.05	14815.25
912.4462	1776.0502	15697	14797.4
912.5868	1777.7386	15640.65	14741
912.7274	1779.4263	15601.1	14705.45
912.8679	1781.1132	15582.4	14689.25
913.0084	1782.7994	15520.45	14627.8
913.149	1784.4849	15486.4	14594.25
913.2895	1786.1696	15455.45	14555.4
913.4299	1787.8535	15414.3	14522.7
913.5704	1789.5367	15355.35	14466.7
913.7108	1791.2192	15344.1	14452.65
913.8513	1792.9009	15329.15	14405.95
913.9917	1794.5818	15287.5	14391.15
914.132	1796.2621	15211.95	14315.7
914.2724	1797.9415	15172.95	14277.65
914.4128	1799.6202	15133	14233.35
914.5531	1801.2982	15115.4	14217.6
914.6934	1802.9755	15040.75	14144.3
914.8337	1804.6519	15061.7	14166.55
914.9739	1806.3277	14966.45	14073.4
915.1142	1808.0027	14910.1	14019.2
915.2544	1809.6769	14903.45	14011.2
915.3946	1811.3504	14836.35	13943.35
915.5348	1813.0231	14784.9	13893.45
915.675	1814.6951	14822.8	13930.35
915.8151	1816.3664	14805.9	13911.1
915.9553	1818.0369	14766.7	13870.25
916.0954	1819.7067	14696.8	13802.6
916.2355	1821.3757	14703.3	13804.9
916.3755	1823.044	14672.8	13776.85
916.5156	1824.7115	14665.9	13769.4
916.6556	1826.3783	14544.15	13651.3
916.7956	1828.0443	14534.45	13640.5
916.9356	1829.7096	14517.2	13621.95
917.0756	1831.3741	14484.25	13588.45
917.2155	1833.0379	14473.55	13581
917.3555	1834.701	14395.2	13501.45
917.4954	1836.3633	14394.9	13504
917.6353	1838.0248	14366.25	13473.25
917.7751	1839.6856	14301.1	13407.6
917.915	1841.3457	14307.2	13413.6
918.0548	1843.005	14252.15	13356.4
918.1946	1844.6636	14259.65	13365.55
918.3344	1846.3214	14187.3	13293.7
918.4742	1847.9785	14203.55	13313
918.6139	1849.6349	14133.55	13237.65
918.7537	1851.2904	14138.05	13232.15
918.8934	1852.9453	14101.4	13205.3
919.0331	1854.5994	14033.3	13135
919.1727	1856.2528	14061.35	13160.55
919.3124	1857.9054	14008.5	13112.65
919.452	1859.5572	13972.1	13077.75
919.5916	1861.2083	13980.25	13083.85
919.7312	1862.8587	13955.4	13058.35
919.8708	1864.5084	13943.75	13045.85
920.0103	1866.1572	13900.5	13004.2
920.1498	1867.8054	13843.7	12946.75
920.2893	1869.4528	13826.9	12930.25
920.4288	1871.0994	13773.5	12878.1
920.5683	1872.7453	13763.05	12867.4
920.7077	1874.3905	13704.55	12801.7
920.8471	1876.0349	13678.25	12781.7
920.9865	1877.6786	13679.3	12783.25
921.1259	1879.3215	13650.15	12755.35
921.2653	1880.9637	13602.6	12706.75
921.4046	1882.6051	13613.1	12721.65
921.5439	1884.2458	13561.35	12665.5
921.6832	1885.8858	13532.85	12636.8
921.8225	1887.525	13514.7	12619.5
921.9617	1889.1634	13401.75	12506.6
922.101	1890.8011	13374.35	12473.4
922.2402	1892.4381	13358.85	12464.35
922.3794	1894.0743	13355.6	12461.05
922.5185	1895.7098	13322.1	12427.9
922.6577	1897.3446	13296.35	12400
922.7968	1898.9786	13244.9	12343.6
922.9359	1900.6118	13211.7	12318.7
923.075	1902.2443	13159.3	12264.7
923.214	1903.8761	13143.15	12248.05
923.3531	1905.5071	13064.45	12168.35
923.4921	1907.1374	13032.95	12138.9
923.6311	1908.7669	13000.9	12106.55
923.77	1910.3957	12996.95	12103.4
923.909	1912.0237	12912.9	12020.05
924.0479	1913.651	12917.85	12022.85
924.1868	1915.2776	12890.15	11998.05
924.3257	1916.9034	12818.8	11926.9
924.4646	1918.5285	12747.25	11854.2
924.6034	1920.1528	12689.6	11794.75
924.7422	1921.7764	12678.7	11786
924.881	1923.3992	12668.35	11774.6
925.0198	1925.0213	12541.7	11646
925.1586	1926.6427	12522.6	11632.5
925.2973	1928.2633	12534.1	11574
925.436	1929.8832	12444.55	11550
925.5747	1931.5023	12425.2	11532
925.7134	1933.1207	12414.2	11519.3
925.852	1934.7383	12397.7	11503.65
925.9906	1936.3552	12317.95	11424.25
926.1292	1937.9714	12294.6	11402.4
926.2678	1939.5868	12270.75	11377.65
926.4064	1941.2015	12180.55	11285.85
926.5449	1942.8154	12163.9	11269.4
926.6834	1944.4286	12098.45	11201.75
926.8219	1946.041	12077.4	11162.1
926.9604	1947.6528	12006.95	11108.3
927.0988	1949.2637	11965.6	11072.35
927.2372	1950.8739	11943.5	11050.15
927.3756	1952.4834	11945.8	11052.55
927.514	1954.0921	11889.9	10996.15
927.6523	1955.7001	11859.2	10962.7
927.7907	1957.3074	11827.85	10940.2
927.929	1958.9139	11757.65	10870.9
928.0673	1960.5197	11762.25	10873.15
928.2055	1962.1247	11716.5	10826.15
928.3438	1963.729	11644.3	10754.8
928.482	1965.3325	11603.45	10690.15
928.6202	1966.9353	11567.05	10678.5
928.7584	1968.5374	11552.05	10662.65
928.8965	1970.1387	11492.8	10600.35
929.0346	1971.7393	11453.45	10561.1
929.1727	1973.3392	11413.05	10523.55
929.3108	1974.9383	11378.65	10491.35
929.4489	1976.5366	11346	10458.1
929.5869	1978.1342	11327.35	10439.8
929.7249	1979.7311	11298.15	10408.35
929.8629	1981.3273	11270.5	10383.05
930.0009	1982.9227	11218	10329.85
930.1388	1984.5173	11187.45	10301.7
930.2767	1986.1112	11142.35	10253.45
930.4146	1987.7044	11143.55	10257
930.5525	1989.2968	11088.15	10199.9
930.6904	1990.8885	11082.05	10191.55
930.8282	1992.4795	11041.6	10156.05
930.966	1994.0697	11005.15	10118.35
931.1038	1995.6592	10963.65	10077.6
931.2415	1997.2479	10930.1	10044.85
931.3793	1998.8359	10904.9	10018.65
931.517	2000.4232	10862.65	9980.85
931.6547	2002.0097	10816.9	9935.45
931.7923	2003.5955	10780.65	9896.2
931.93	2005.1805	10776.3	9889.15
932.0676	2006.7648	10754.2	9868.4
932.2052	2008.3484	10740.5	9854.25
932.3427	2009.9312	10757.65	9872.7
932.4803	2011.5133	10668.8	9788.25
932.6178	2013.0946	10655.7	9773.05
932.7553	2014.6752	10598.15	9714.4
932.8928	2016.2551	10569.5	9685.2
933.0302	2017.8342	10556.35	9672.9
933.1676	2019.4126	10531.4	9645.9
933.305	2020.9902	10473.05	9591.6
933.4424	2022.5672	10455.05	9570.55
933.5798	2024.1433	10442.9	9553.4
933.7171	2025.7188	10385.75	9503.1
933.8544	2027.2935	10371.45	9487.5
933.9917	2028.8674	10347.4	9465.5
934.129	2030.4406	10307	9428.6
934.2662	2032.0131	10284.75	9401.35
934.4034	2033.5849	10228.05	9340.9
934.5406	2035.1559	10241.8	9358.55
934.6778	2036.7261	10199.3	9315.15
934.8149	2038.2957	10171.9	9286.4
934.952	2039.8645	10157.85	9272.6
935.0891	2041.4325	10142.1	9254.1
935.2262	2042.9998	10101.75	9217.3
935.3632	2044.5664	10077.25	9190.7
935.5002	2046.1323	10041.1	9156.7
935.6372	2047.6974	9988.15	9105.6
935.7742	2049.2617	9990.5	9107.45
935.9111	2050.8254	9992.05	9085.7
936.048	2052.3883	9954.35	9067.3
936.1849	2053.9504	9929.9	9045.2
936.3218	2055.5118	9895.85	9009.7
936.4586	2057.0725	9861.7	8973.2
936.5955	2058.6325	9828.2	8943.95
936.7323	2060.1917	9789.45	8905.55
936.869	2061.7502	9811.15	8924.15
937.0058	2063.3079	9762.1	8877.6
937.1425	2064.8649	9739.5	8853.75
937.2792	2066.4212	9721.25	8836.2
937.4159	2067.9767	9719.3	8837.35
937.5525	2069.5315	9672.05	8789.15
937.6891	2071.0856	9573.45	8689.75
937.8257	2072.6389	9565.9	8683.55
937.9623	2074.1915	9538.05	8657.1
938.0989	2075.7433	9501.2	8615.6
938.2354	2077.2945	9477.6	8595.15
938.3719	2078.8448	9423.35	8538.8
938.5084	2080.3945	9389.3	8506.2
938.6448	2081.9434	9420.5	8536.8
938.7812	2083.4916	9352.35	8467.4
938.9176	2085.039	9315.65	8426.5
939.054	2086.5857	9310.75	8421.75
939.1903	2088.1317	9310.25	8421.95
939.3267	2089.677	9307.4	8417.05
939.463	2091.2215	9257.1	8368.7
939.5992	2092.7652	9227.05	8336.9
939.7355	2094.3083	9194.25	8304.4
939.8717	2095.8506	9201.55	8315.05
940.0079	2097.3921	9204.25	8319.75
940.1441	2098.933	9153.15	8266.6
940.2802	2100.4731	9143.7	8260.15
940.4163	2102.0124	9141.35	8247.15
940.5524	2103.5511	9099.05	8213.8
940.6885	2105.089	9073.85	8185.75
940.8245	2106.6261	9068.65	8181.65
940.9606	2108.1626	9040.1	8153.7
941.0965	2109.6983	9022.85	8110
941.2325	2111.2332	8987.95	8100.2
941.3684	2112.7675	8974.9	8088.55
941.5044	2114.301	8947.45	8060.85
941.6403	2115.8337	8926.7	8038.95
941.7761	2117.3657	8907.25	8021.45
941.912	2118.897	8876.6	7988.95
942.0478	2120.4276	8861.45	7968.8
942.1835	2121.9575	8818.55	7929.55
942.3193	2123.4866	8816.85	7927.2
942.455	2125.0149	8789.85	7901.15
942.5907	2126.5426	8743.5	7857.75
942.7264	2128.0695	8714.7	7826.6
942.8621	2129.5956	8736	7854.5
942.9977	2131.1211	8702.35	7814.7
943.1333	2132.6458	8666.75	7782.35
943.2689	2134.1698	8654.7	7768.35
943.4044	2135.693	8636.45	7745.65
943.54	2137.2155	8630.35	7741.35
943.6755	2138.7373	8583.9	7697.6
943.8109	2140.2584	8565.15	7681.15
943.9464	2141.7787	8535.4	7646.55
944.0818	2143.2983	8520.25	7637.75
944.2172	2144.8171	8473.8	7591.95
944.3526	2146.3353	8435.85	7551
944.4879	2147.8527	8416.35	7533.05
944.6232	2149.3693	8414.95	7530.75
944.7585	2150.8853	8398.1	7508.7
944.8938	2152.4005	8366.45	7479.65
945.029	2153.9149	8358	7471.65
945.1642	2155.4287	8390.7	7400.45
945.2994	2156.9417	8322.7	7435.2
945.4346	2158.454	8273.35	7384.5
945.5697	2159.9655	8249.45	7365.3
945.7048	2161.4764	8236.3	7353.5
945.8399	2162.9865	8196.8	7313
945.9749	2164.4958	8185.35	7300.4
946.1099	2166.0045	8150.45	7262.95
946.2449	2167.5124	8143.3	7258.45
946.3799	2169.0195	8107.4	7223.9
946.5148	2170.526	8109.15	7221.45
946.6498	2172.0317	8075.3	7190.3
946.7846	2173.5367	8052	7164.85
946.9195	2175.0409	8027.85	7143.6
947.0543	2176.5445	8054.45	7168.15
947.1891	2178.0473	8033.6	7146.4
947.3239	2179.5494	7981.25	7090.35
947.4587	2181.0507	7985	7099.55
947.5934	2182.5513	7930.7	7044.7
947.7281	2184.0512	7924.8	7038.65
947.8628	2185.5504	7911.55	7026.35
947.9974	2187.0488	7877.7	6992.2
948.132	2188.5465	7837.2	6953.45
948.2666	2190.0435	7796.4	6909.45
948.4012	2191.5397	7771.4	6884.2
948.5357	2193.0353	7788.85	6901.65
948.6702	2194.5301	7721.55	6832.95
948.8047	2196.0241	7694.9	6806.6
948.9392	2197.5175	7692	6801.75
949.0736	2199.0101	7663.85	6770.6
949.208	2200.502	7622.9	6738.1
949.3424	2201.9931	7599.05	6714
949.4767	2203.4835	7560.05	6676.4
949.611	2204.9733	7573.05	6671.9
949.7453	2206.4622	7536.95	6654.5
949.8796	2207.9505	7503.65	6617.9
950.0138	2209.438	7484.4	6603.25
950.148	2210.9248	7460.65	6575.15
950.2822	2212.4109	7430.6	6547
950.4164	2213.8962	7413.1	6524.05
950.5505	2215.3809	7410.3	6521.2
950.6846	2216.8648	7376.4	6487.65
950.8186	2218.3479	7377.35	6483.5
950.9527	2219.8304	7347.95	6454.2
951.0867	2221.3121	7315.1	6424.45
951.2207	2222.7931	7293.6	6405.1
951.3546	2224.2733	7287.1	6399.7
951.4886	2225.7529	7244.25	6356.2
951.6225	2227.2317	7226.6	6339.05
951.7563	2228.7098	7234.15	6351.9
951.8902	2230.1872	7169.65	6286.4
952.024	2231.6638	7170.6	6285.25
952.1578	2233.1397	7146.5	6257.6
952.2916	2234.6149	7141.95	6257.7
952.4253	2236.0894	7090.75	6205.75
952.559	2237.5632	7085.3	6198
952.6927	2239.0362	7044.55	6160.75
952.8263	2240.5085	7048.15	6162.85
952.9599	2241.9801	7017.6	6131.75
953.0935	2243.4509	6991.2	6104.2
953.2271	2244.921	6958.2	6072.65
953.3606	2246.3904	6907.45	6016.95
953.4941	2247.8591	6932.05	6045.55
953.6276	2249.3271	6924.8	6037.1
953.7611	2250.7943	6886.7	5999.35
953.8945	2252.2608	6857.3	5968.75
954.0279	2253.7266	6837.55	5951.6
954.1612	2255.1917	6821.15	5935.15
954.2946	2256.656	6809.85	5925.5
954.4279	2258.1197	6791.8	5907.85
954.5612	2259.5826	6769.7	5883
954.6944	2261.0447	6760.5	5872.2
954.8276	2262.5062	6741	5852.45
954.9608	2263.9669	6735.75	5846.35
955.094	2265.4269	6732.6	5847
955.2271	2266.8862	6696.4	5812.3
955.3602	2268.3448	6685.55	5801.9
955.4933	2269.8026	6665.8	5780.7
955.6264	2271.2598	6648.7	5762.15
955.7594	2272.7162	6620.85	5736.4
955.8924	2274.1719	6615.75	5727.8
956.0253	2275.6268	6594.6	5705.55
956.1583	2277.0811	6599.7	5710.95
956.2912	2278.5346	6563.45	5678.45
956.4241	2279.9874	6542.95	5658.1
956.5569	2281.4395	6547.4	5664.8
956.6897	2282.8908	6495.45	5604.1
956.8225	2284.3414	6499.7	5612.95
956.9553	2285.7914	6472.4	5587
957.088	2287.2406	6447.3	5556.2
957.2207	2288.689	6455.1	5566.7
957.3534	2290.1368	6439.15	5548.35
957.486	2291.5838	6401.85	5512.05
957.6186	2293.0302	6415.2	5523.45
957.7512	2294.4758	6347.4	5458.2
957.8838	2295.9206	6340.15	5452.8
958.0163	2297.3648	6326.15	5441.05
958.1488	2298.8082	6333.8	5445.9
958.2813	2300.251	6312.95	5425.85
958.4137	2301.693	6298	5407.8
958.5461	2303.1343	6293.2	5404.6
958.6785	2304.5748	6242.7	5355.6
958.8108	2306.0147	6230.65	5347.05
958.9432	2307.4538	6214.55	5328.35
959.0754	2308.8922	6196.2	5313.3
959.2077	2310.3299	6179.85	5295.4
959.3399	2311.7669	6156.25	5272.3
959.4721	2313.2031	6142.05	5256.7
959.6043	2314.6387	6127.8	5239.1
959.7365	2316.0735	6113.25	5226.25
959.8686	2317.5076	6085.25	5198.8
960.0006	2318.941	6107.9	5219.95
960.1327	2320.3737	6063.2	5172.95
960.2647	2321.8056	6053.8	5163.95
960.3967	2323.2369	6006.7	5118.85
960.5287	2324.6674	6021.25	5132.2
960.6606	2326.0972	5986	5096.45
960.7925	2327.5263	5969.75	5082.65
960.9244	2328.9547	5957.65	5071.45
961.0562	2330.3823	5939.6	5050.05
961.1881	2331.8092	5944.65	5052.6
961.3198	2333.2355	5915.4	5027.95
961.4516	2334.661	5913.7	5023.85
961.5833	2336.0858	5895.6	5005.45
961.715	2337.5098	5868.65	4979.5
961.8467	2338.9332	5856.45	4968.05
961.9783	2340.3558	5855.4	4965.3
962.1099	2341.7778	5824.2	4938.05
962.2415	2343.199	5804.15	4916.25
962.373	2344.6195	5789.3	4902.45
962.5045	2346.0393	5771.85	4886.9
962.636	2347.4583	5774.5	4889
962.7675	2348.8767	5741.75	4854.1
962.8989	2350.2943	5755.55	4864.9
963.0303	2351.7113	5737.05	4844.85
963.1617	2353.1275	5725.3	4835.4
963.293	2354.543	5721.95	4807.6
963.4243	2355.9578	5694.65	4805.4
963.5556	2357.3718	5655.3	4768.15
963.6868	2358.7852	5633.7	4746.4
963.818	2360.1978	5631.1	4743.5
963.9492	2361.6098	5602.65	4715.95
964.0803	2363.021	5565.2	4674.6
964.2114	2364.4315	5580.25	4695.35
964.3425	2365.8413	5572.35	4681.2
964.4736	2367.2504	5555.9	4668.6
964.6046	2368.6587	5520.45	4634.45
964.7356	2370.0664	5485.55	4598.2
964.8666	2371.4733	5477.45	4589.1
964.9975	2372.8795	5474	4587.05
965.1284	2374.285	5452.65	4562.7
965.2593	2375.6899	5415.3	4529.05
965.3901	2377.0939	5403.3	4515.25
965.5209	2378.4973	5413.35	4527.05
965.6517	2379.9	5375.45	4487.8
965.7825	2381.3019	5357.05	4470.05
965.9132	2382.7032	5351.85	4465.8
966.0439	2384.1037	5342.85	4459.7
966.1745	2385.5035	5334.15	4448.05
966.3051	2386.9027	5307.25	4424.25
966.4357	2388.3011	5290.3	4399.75
966.5663	2389.6987	5278.15	4390.9
966.6968	2391.0957	5262.1	4375.6
966.8273	2392.492	5240.95	4354.5
966.9578	2393.8876	5218.65	4333.5
967.0882	2395.2824	5190.15	4303.9
967.2186	2396.6765	5181.5	4295.6
967.349	2398.07	5163.6	4276.1
967.4793	2399.4627	5169.9	4278.65
967.6097	2400.8547	5135.3	4245.1
967.7399	2402.246	5140.25	4247.85
967.8702	2403.6366	5097.65	4210.6
968.0004	2405.0265	5066.5	4179.35
968.1306	2406.4156	5076.15	4184.4
968.2607	2407.8041	5057.65	4167.15
968.3909	2409.1918	5047.1	4158.35
968.521	2410.5789	5018	4129.85
968.651	2411.9652	5008.5	4117.85
968.781	2413.3508	4995.2	4104.55
968.911	2414.7358	4980	4092
969.041	2416.12	4954.35	4067.25
969.1709	2417.5035	4939.4	4054.15
969.3008	2418.8863	4931.85	4043.8
969.4307	2420.2684	4932.05	4042.9
969.5606	2421.6497	4898.35	4005.3
969.6904	2423.0304	4863.6	3975.2
969.8201	2424.4104	4865.75	3977
969.9499	2425.7896	4854.3	3965.35
970.0796	2427.1682	4839.2	3951.65
970.2093	2428.546	4821.1	3932.4
970.3389	2429.9232	4805.55	3915.35
970.4685	2431.2996	4806.65	3918.35
970.5981	2432.6753	4793.65	3904.85
970.7277	2434.0503	4772.6	3883.55
970.8572	2435.4246	4760.6	3872.45
970.9867	2436.7982	4747.4	3852.35
971.1161	2438.1711	4729.45	3842.6
971.2456	2439.5433	4732.25	3843.05
971.375	2440.9148	4701.4	3805.15
971.5043	2442.2856	4694.3	3805.45
971.6336	2443.6557	4673.9	3782.65
971.7629	2445.025	4654.15	3764.6
971.8922	2446.3937	4659.6	3767.5
972.0214	2447.7617	4650.75	3761.25
972.1506	2449.1289	4606.55	3717.4
972.2798	2450.4955	4607.1	3714.95
972.4089	2451.8613	4596.3	3709.55
972.538	2453.2265	4595.6	3708.15
972.6671	2454.5909	4583.85	3695.3
972.7961	2455.9546	4562.9	3675.6
972.9251	2457.3177	4550.95	3664.2
973.0541	2458.68	4546.3	3657.1
973.1831	2460.0416	4539.9	3651.5
973.312	2461.4025	4534.7	3647.1
973.4408	2462.7627	4527.2	3631.6
973.5697	2464.1222	4515.85	3628.3
973.6985	2465.4811	4502.05	3615.4
973.8273	2466.8392	4489.95	3601.1
973.956	2468.1966	4471.75	3580.8
974.0847	2469.5533	4469.5	3579.75
974.2134	2470.9093	4462.7	3575.3
974.3421	2472.2645	4459.05	3571.5
974.4707	2473.6191	4433.15	3547.25
974.5993	2474.973	4411.05	3524.35
974.7278	2476.3262	4390.45	3499.95
974.8563	2477.6787	4390.45	3502.7
974.9848	2479.0305	4367.15	3480.2
975.1132	2480.3816	4378.6	3491.75
975.2417	2481.7319	4340.8	3454.75
975.37	2483.0816	4338.45	3449.35
975.4984	2484.4306	4317.5	3429.8
975.6267	2485.7789	4311.9	3426
975.755	2487.1264	4298	3410.9
975.8833	2488.4733	4258	3373.1
976.0115	2489.8195	4282.35	3380.95
976.1397	2491.165	4243.25	3354.15
976.2678	2492.5097	4251.7	3365.5
976.3959	2493.8538	4223.85	3337.75
976.524	2495.1972	4212.2	3326.25
976.6521	2496.5398	4207.55	3318
976.7801	2497.8818	4186.7	3297.85
976.9081	2499.2231	4179.85	3292.6
977.036	2500.5637	4154	3264.35
977.164	2501.9035	4164.15	3272.65
977.2918	2503.2427	4151.7	3259.4
977.4197	2504.5812	4139.2	3249.2
977.5475	2505.919	4124.4	3235.6
977.6753	2507.256	4105.15	3217.15
977.8031	2508.5924	4095.75	3209.4
977.9308	2509.9281	4074.75	3182.7
978.0585	2511.2631	4069.55	3181.9
978.1861	2512.5974	4062	3175
978.3137	2513.9309	4051.7	3165.7
978.4413	2515.2638	4056.6	3143.55
978.5689	2516.596	4043.15	3156.35
978.6964	2517.9275	4007.55	3119.25
978.8239	2519.2583	4006.5	3119.55
978.9513	2520.5884	3979.1	3091.55
979.0788	2521.9178	3970.05	3083.55
979.2062	2523.2465	3975.3	3088.95
979.3335	2524.5745	3955.1	3067.65
979.4608	2525.9018	3940.5	3050.9
979.5881	2527.2284	3926.45	3041.1
979.7154	2528.5543	3914.1	3026.8
979.8426	2529.8796	3925.15	3036.8
979.9698	2531.2041	3911.5	3025
980.0969	2532.5279	3911.4	3025.25
980.224	2533.851	3911.4	3023.25
980.3511	2535.1735	3899.4	3012.85
980.4781	2536.4952	3886.3	2998.85
980.6052	2537.8163	3882.3	2997.4
980.7321	2539.1366	3855.75	2969.25
980.8591	2540.4562	3851.5	2962.9
980.986	2541.7752	3853.1	2966.85
981.1129	2543.0935	3846.55	2958.35
981.2397	2544.411	3849.6	2960.4
981.3665	2545.7279	3825.95	2937.2
981.4933	2547.0441	3822.05	2935.05
981.62	2548.3596	3817.75	2926.8
981.7467	2549.6744	3814	2926.7
981.8734	2550.9885	3810.2	2919.6
982.0001	2552.3019	3793.85	2907
982.1267	2553.6146	3790.5	2902
982.2532	2554.9266	3775.85	2886.8
982.3798	2556.2379	3759.05	2870.55
982.5063	2557.5485	3750.35	2864.35
982.6327	2558.8585	3748.15	2852.45
982.7592	2560.1677	3744.1	2852.45
982.8856	2561.4762	3731.75	2842.7
983.0119	2562.7841	3738.65	2847.4
983.1383	2564.0913	3700.55	2815.3
983.2646	2565.3977	3709.6	2823
983.3908	2566.7035	3684.45	2796.4
983.517	2568.0086	3704.55	2811.15
983.6432	2569.313	3691.95	2802.15
983.7694	2570.6167	3689	2796.9
983.8955	2571.9197	3663.25	2775.1
984.0216	2573.222	3667.3	2775.2
984.1476	2574.5236	3662.25	2773.85
984.2737	2575.8246	3644.2	2753.85
984.3996	2577.1248	3637.3	2747.2
984.5256	2578.4244	3639.8	2752.45
984.6515	2579.7232	3650	2764
984.7774	2581.0214	3664.3	2747.9
984.9032	2582.3189	3629.85	2743
985.029	2583.6157	3624.85	2730.7
985.1548	2584.9118	3616.5	2726.7
985.2806	2586.2072	3597.2	2708.05
985.4063	2587.5019	3603.8	2715.15
985.5319	2588.7959	3583.4	2693.3
985.6576	2590.0893	3585.95	2696.05
985.7832	2591.3819	3571.5	2684.35
985.9087	2592.6739	3565.75	2679.65
986.0343	2593.9652	3546.45	2656.4
986.1597	2595.2557	3555.45	2666.45
986.2852	2596.5456	3531	2642.5
986.4106	2597.8348	3532.85	2644.4
986.536	2599.1234	3515.25	2627
986.6614	2600.4112	3502.15	2611.35
986.7867	2601.6983	3509.6	2618.6
986.912	2602.9848	3479.8	2593.3
987.0372	2604.2705	3486.8	2594.15
987.1624	2605.5556	3475.45	2587.3
987.2876	2606.84	3475.05	2587.95
987.4128	2608.1237	3455.65	2566.85
987.5379	2609.4067	3447.05	2559.45
987.6629	2610.689	3439.05	2545.65
987.788	2611.9707	3437.2	2545.9
987.913	2613.2516	3426.15	2533.15
988.0379	2614.5319	3392.95	2505.7
988.1629	2615.8115	3407.75	2518.85
988.2878	2617.0903	3385	2495.65
988.4126	2618.3685	3388.15	2502.6
988.5375	2619.6461	3369.35	2480.45
988.6622	2620.9229	3355.6	2467.45
988.787	2622.199	3350.3	2461.85
988.9117	2623.4745	3335.2	2446.25
989.0364	2624.7493	3335.4	2447.65
989.161	2626.0234	3321.5	2435.4
989.2857	2627.2968	3315.15	2426.55
989.4102	2628.5695	3302.55	2415.8
989.5348	2629.8415	3296.65	2409.45
989.6593	2631.1128	3279.65	2388.65
989.7837	2632.3835	3272.85	2386.15
989.9082	2633.6535	3262.4	2374.3
990.0326	2634.9228	3263.1	2375.25
990.1569	2636.1914	3247	2361.95
990.2812	2637.4593	3241.6	2352.6
990.4055	2638.7265	3235.45	2345.8
990.5298	2639.9931	3227.2	2339.95
990.654	2641.259	3220	2332.05
990.7782	2642.5242	3213.35	2325.5
990.9023	2643.7887	3204.8	2317.3
991.0264	2645.0525	3197.75	2309.65
991.1505	2646.3156	3200.15	2298
991.2745	2647.5781	3179.45	2292.2
991.3985	2648.8398	3164.7	2278.25
991.5225	2650.1009	3171.9	2261.25
991.6464	2651.3613	3163.65	2274.55
991.7703	2652.6211	3140.2	2255.8
991.8942	2653.8801	3132.45	2245.15
992.018	2655.1385	3124.25	2233.05
992.1418	2656.3961	3129.75	2243.1
992.2655	2657.6531	3136.1	2248.65
992.3892	2658.9094	3113.5	2225.55
992.5129	2660.1651	3095.6	2209.35
992.6366	2661.42	3097.15	2209.55
992.7602	2662.6743	3101.85	2212.25
992.8837	2663.9279	3108	2223.15
993.0073	2665.1808	3091.2	2203.95
993.1307	2666.433	3088.6	2200.7
993.2542	2667.6846	3075.8	2189.2
993.3776	2668.9354	3087.35	2198.15
993.501	2670.1856	3071.5	2184.2
993.6244	2671.4351	3072.75	2187.15
993.7477	2672.6839	3069.35	2182.55
993.8709	2673.9321	3067	2180.25
993.9942	2675.1795	3056.2	2168.3
994.1174	2676.4263	3031.25	2142.95
994.2405	2677.6724	3041.85	2156.6
994.3637	2678.9179	3032.9	2144.85
994.4868	2680.1626	3032.95	2146.35
994.6098	2681.4067	3022.6	2134.45
994.7328	2682.6501	3025.2	2136.65
994.8558	2683.8928	3010.8	2123.65
994.9788	2685.1348	3005.9	2122.9
995.1017	2686.3761	2986.5	2101.4
995.2245	2687.6168	2981.9	2094.9
995.3474	2688.8568	2978.55	2092.2
995.4702	2690.0961	2974.1	2090.55
995.5929	2691.3348	2948.95	2061.1
995.7156	2692.5727	2950.25	2062.4
995.8383	2693.81	2942.15	2053.1
995.961	2695.0466	2943.1	2056.8
996.0836	2696.2826	2923.5	2036.4
996.2062	2697.5178	2923.85	2035.65
996.3287	2698.7524	2914.1	2026.4
996.4512	2699.9863	2917.55	2027.8
996.5737	2701.2195	2905.35	2020.9
996.6961	2702.452	2897.9	2012.05
996.8185	2703.6839	2910.35	2023.4
996.9408	2704.9151	2906.65	2021
997.0631	2706.1456	2899.25	2012.15
997.1854	2707.3755	2891.45	2005
997.3077	2708.6046	2887	1998.1
997.4299	2709.8331	2898.4	2011.1
997.552	2711.0609	2891.65	2004.95
997.6742	2712.2881	2898.9	2010.65
997.7963	2713.5145	2899.45	2010.75
997.9183	2714.7403	2888.8	2004.7
998.0403	2715.9654	2880.5	1991.65
998.1623	2717.1899	2895.55	1993.55
998.2842	2718.4136	2878.85	1992.8
998.4062	2719.6367	2880.1	1993.4
998.528	2720.8591	2891.1	1998.5
998.6498	2722.0809	2895.6	2010
998.7716	2723.3019	2904.6	2014.85
998.8934	2724.5223	2903.85	2018.45
999.0151	2725.7421	2904.3	2015.4
999.1368	2726.9611	2900.35	2013.9
999.2584	2728.1795	2891.85	1998.7
999.38	2729.3972	2873.1	1986.3
999.5016	2730.6142	2863.55	1969.9
999.6231	2731.8306	2844.9	1958.6
999.7446	2733.0462	2818.3	1931.55
999.8661	2734.2612	2810.25	1917.05
999.9875	2735.4756	2800.8	1912.7
1000.1089	2736.6892	2768.7	1882.65
1000.2302	2737.9022	2745.75	1860.7
1000.3515	2739.1145	2734.7	1848.4
1000.4728	2740.3262	2729.65	1835.9
1000.594	2741.5372	2703.1	1819.45
1000.7152	2742.7475	2684.35	1797.65
1000.8363	2743.9571	2683.8	1794.55
1000.9575	2745.1661	2679.1	1786.95
1001.0785	2746.3744	2657.95	1769.8
1001.1996	2747.582	2645.3	1758.7
1001.3206	2748.7889	2628.25	1741.25
1001.4415	2749.9952	2629.7	1743.95
1001.5625	2751.2008	2609.05	1722.8
1001.6833	2752.4057	2606.75	1718.8
1001.8042	2753.61	2601.1	1711.5
1001.925	2754.8136	2574.55	1686.8
1002.0458	2756.0165	2575.7	1690.75
1002.1665	2757.2188	2565.8	1683.2
1002.2872	2758.4204	2569.8	1684.35
1002.4078	2759.6213	2553.1	1664.65
1002.5285	2760.8215	2564	1674.25
1002.649	2762.0211	2544.15	1657.75
1002.7696	2763.22	2542.75	1654.75
1002.8901	2764.4182	2530.6	1643.35
1003.0106	2765.6158	2527.6	1642.25
1003.131	2766.8127	2525.9	1640.3
1003.2514	2768.009	2518.25	1632.2
1003.3717	2769.2045	2505.7	1619.05
1003.492	2770.3994	2509.7	1621.9
1003.6123	2771.5936	2502.75	1616.85
1003.7325	2772.7872	2484.55	1601.35
1003.8527	2773.9801	2481.2	1594.75
1003.9729	2775.1723	2486.8	1586.85
1004.093	2776.3639	2470.5	1586.95
1004.2131	2777.5548	2475.95	1589.8
1004.3331	2778.745	2469.6	1584.35
1004.4531	2779.9346	2460.15	1574.75
1004.5731	2781.1235	2448.9	1562.65
1004.693	2782.3117	2448.75	1564.9
1004.8129	2783.4992	2443.85	1558.85
1004.9328	2784.6861	2439.95	1556.3
1005.0526	2785.8723	2439.5	1554.3
1005.1723	2787.0579	2449	1564.75
1005.2921	2788.2428	2439.35	1553.85
1005.4118	2789.427	2427.35	1542.8
1005.5314	2790.6106	2433.75	1550.9
1005.651	2791.7935	2438.45	1553.4
1005.7706	2792.9757	2442.6	1557.95
1005.8902	2794.1573	2442.35	1554.6
1006.0097	2795.3382	2446.15	1562
1006.1291	2796.5184	2450.4	1566.7
1006.2485	2797.698	2454.6	1568.5
1006.3679	2798.8769	2462.6	1579.2
1006.4873	2800.0551	2468.05	1582.85
1006.6066	2801.2327	2469.8	1582.35
1006.7258	2802.4096	2480.6	1596.45
1006.8451	2803.5859	2491.15	1603.8
1006.9642	2804.7615	2485.8	1599.7
1007.0834	2805.9364	2507.9	1622.8
1007.2025	2807.1106	2524.6	1641.4
1007.3216	2808.2842	2531.7	1648
1007.4406	2809.4572	2559.05	1674.1
1007.5596	2810.6294	2580.45	1695.05
1007.6785	2811.801	2597.45	1716.25
1007.7975	2812.972	2626	1742.4
1007.9163	2814.1423	2656.55	1772.5
1008.0352	2815.3119	2695.85	1811.1
1008.154	2816.4808	2724.5	1842.65
1008.2727	2817.6491	2774.85	1888.6
1008.3914	2818.8167	2806.6	1923.5
1008.5101	2819.9837	2830.8	1941.15
1008.6288	2821.15	2877.4	1993.25
1008.7474	2822.3157	2916.55	2034.1
1008.8659	2823.4807	2955.1	2069.45
1008.9844	2824.645	3002.95	2119.9
1009.1029	2825.8086	3040.3	2155
1009.2214	2826.9716	3082.85	2199.85
1009.3398	2828.134	3125	2240.85
1009.4581	2829.2957	3162.3	2276.9
1009.5764	2830.4567	3175.8	2292.9
1009.6947	2831.617	3185.9	2300.7
1009.813	2832.7767	3189.4	2305.2
1009.9312	2833.9358	3192.95	2309.25
1010.0493	2835.0941	3195.1	2310.55
1010.1675	2836.2519	3177.05	2292.05
1010.2855	2837.4089	3169.15	2285.75
1010.4036	2838.5653	3148.8	2266.25
1010.5216	2839.7211	3130.75	2248.35
1010.6396	2840.8761	3129	2243.9
1010.7575	2842.0306	3132.6	2249.7
1010.8754	2843.1843	3166.6	2283.9
1010.9932	2844.3374	3194.55	2311.65
1011.111	2845.4899	3219.8	2336.3
1011.2288	2846.6417	3262	2378.65
1011.3465	2847.7928	3304.25	2422.65
1011.4642	2848.9433	3357.75	2472.7
1011.5818	2850.0931	3403.7	2521.45
1011.6995	2851.2422	3447.05	2562
1011.817	2852.3907	3529.15	2644.95
1011.9345	2853.5385	3558.8	2675.6
1012.052	2854.6857	3594.8	2703.8
1012.1695	2855.8323	3632	2748.6
1012.2869	2856.9781	3681.9	2798.9
1012.4042	2858.1233	3688.15	2803.75
1012.5216	2859.2679	3738.15	2855.6
1012.6389	2860.4118	3785.35	2900.45
1012.7561	2861.555	3806.75	2921.35
1012.8733	2862.6976	3843.65	2957.9
1012.9905	2863.8395	3877.1	2992.9
1013.1076	2864.9808	3892.3	3009.3
1013.2247	2866.1214	3875.65	2992.35
1013.3417	2867.2614	3902.8	3017.05
1013.4587	2868.4007	3919.85	3035.45
1013.5757	2869.5393	3935.1	3048.7
1013.6926	2870.6773	3940.55	3053.05
1013.8095	2871.8146	3949.25	3060.7
1013.9263	2872.9513	3930.85	3043.5
1014.0431	2874.0874	3917.45	3034.9
1014.1599	2875.2227	3919.9	3037.15
1014.2766	2876.3574	3900.75	3018.1
1014.3933	2877.4915	3876.65	2995.65
1014.51	2878.6249	3835.2	2956.4
1014.6266	2879.7577	3826.65	2942.9
1014.7431	2880.8898	3817.5	2923.85
1014.8596	2882.0212	3793.5	2909.2
1014.9761	2883.152	3777.05	2892.7
1015.0925	2884.2821	3763.15	2879.85
1015.2089	2885.4116	3770.95	2887.65
1015.3253	2886.5405	3761.8	2878
1015.4416	2887.6686	3751.65	2865.9
1015.5579	2888.7962	3751.25	2869.6
1015.6741	2889.923	3752.3	2869.25
1015.7903	2891.0493	3757.9	2876.9
1015.9065	2892.1748	3759.6	2877.45
1016.0226	2893.2997	3770.35	2887.3
1016.1387	2894.424	3779.15	2895.35
1016.2547	2895.5476	3785.9	2902.4
1016.3707	2896.6706	3801.7	2918.8
1016.4866	2897.7929	3813.9	2930.25
1016.6025	2898.9145	3832.75	2948.5
1016.7184	2900.0355	3845.1	2960.1
1016.8342	2901.1559	3872	2987.05
1016.95	2902.2756	3887.05	3006.5
1017.0658	2903.3946	3912.05	3029.4
1017.1815	2904.513	3944.3	3058.95
1017.2971	2905.6308	3956.4	3075.35
1017.4127	2906.7479	3976.65	3092.65
1017.5283	2907.8643	3989.2	3106.2
1017.6439	2908.9801	3994.3	3112.65
1017.7594	2910.0953	3989.65	3106.35
1017.8748	2911.2098	3991.8	3104.9
1017.9902	2912.3236	3980.35	3088.15
1018.1056	2913.4368	3964.45	3079
1018.2209	2914.5494	3963.15	3080.15
1018.3362	2915.6613	3917.4	3028.3
1018.4515	2916.7725	3896.6	3011.2
1018.5667	2917.8831	3866.3	2983.1
1018.6819	2918.9931	3834.65	2950.15
1018.797	2920.1024	3801.5	2919.75
1018.9121	2921.211	3810.4	2928
1019.0271	2922.319	3768.8	2886.8
1019.1421	2923.4264	3762.3	2879.6
1019.2571	2924.5331	3748.5	2866.3
1019.372	2925.6391	3748.4	2866.85
1019.4869	2926.7445	3722.85	2841.25
1019.6017	2927.8493	3731.1	2846.05
1019.7165	2928.9534	3728.1	2846.35
1019.8313	2930.0569	3732	2847.25
1019.946	2931.1597	3727.3	2843.75
1020.0606	2932.2619	3711.4	2829.6
1020.1753	2933.3634	3717	2834.9
1020.2899	2934.4643	3715.25	2826.2
1020.4044	2935.5645	3702.1	2811.35
1020.5189	2936.6641	3689.1	2803.55
1020.6334	2937.763	3648.6	2765.2
1020.7478	2938.8613	3608.65	2725.5
1020.8622	2939.959	3568.35	2680.45
1020.9765	2941.056	3522.5	2641
1021.0908	2942.1523	3459.7	2575.65
1021.2051	2943.248	3394	2512.7
1021.3193	2944.3431	3313.3	2431.3
1021.4334	2945.4375	3230.95	2347.8
1021.5476	2946.5313	3143.55	2263.1
1021.6617	2947.6244	3077.1	2194.1
1021.7757	2948.7169	2978.25	2093.95
1021.8897	2949.8087	2902.05	2018.2
1022.0037	2950.8999	2835.45	1953
1022.1176	2951.9904	2746.85	1865.35
1022.2315	2953.0803	2695.55	1812.45
1022.3453	2954.1696	2650.65	1769.1
1022.4591	2955.2582	2599.15	1717.15
1022.5728	2956.3462	2543.05	1661.6
1022.6865	2957.4335	2526.85	1646.3
1022.8002	2958.5202	2488.55	1602.55
1022.9138	2959.6062	2456.55	1574.55
1023.0274	2960.6916	2432.5	1551.25
1023.141	2961.7764	2409.7	1526.75
1023.2545	2962.8605	2388.15	1505.65
1023.3679	2963.9439	2383.9	1501.05
1023.4813	2965.0267	2374.3	1490.1
1023.5947	2966.1089	2385.65	1481.2
1023.708	2967.1905	2362.6	1481.2
1023.8213	2968.2714	2349.25	1468.35
1023.9346	2969.3516	2354.75	1474.3
1024.0478	2970.4312	2355.75	1465.65
1024.1609	2971.5102	2342.1	1460.15
1024.274	2972.5885	2348.2	1465.25
1024.3871	2973.6662	2350.95	1464.95
1024.5002	2974.7432	2347.95	1466.7
1024.6132	2975.8196	2338.45	1456.25
1024.7261	2976.8954	2317.9	1436.5
1024.839	2977.9705	2323.75	1441.5
1024.9519	2979.045	2300.9	1421
1025.0647	2980.1188	2286.9	1403.9
1025.1775	2981.192	2278.65	1398.15
1025.2902	2982.2645	2270.25	1387.55
1025.4029	2983.3364	2246.6	1365.25
1025.5156	2984.4077	2217.6	1334.7
1025.6282	2985.4783	2201.8	1314.3
1025.7407	2986.5483	2162.55	1283.35
1025.8532	2987.6177	2123.3	1242.65
1025.9657	2988.6864	2112.15	1229.7
1026.0782	2989.7545	2076	1192.05
1026.1906	2990.8219	2055.95	1175.1
1026.3029	2991.8887	2027.35	1142.5
1026.4152	2992.9548	1991.45	1110.6
1026.5275	2994.0204	1968.25	1086.2
1026.6397	2995.0852	1939.05	1059.85
1026.7519	2996.1495	1912.95	1032
1026.864	2997.2131	1890.55	1009.8
1026.9761	2998.276	1869.7	987.65
1027.0882	2999.3383	1848.45	965.7
1027.2002	3000.4	1832.7	950.35
1027.3122	3001.4611	1820.4	940.15
1027.4241	3002.5215	1799.4	918.15
1027.536	3003.5812	1785.55	903.65
1027.6478	3004.6404	1766.2	884.45
1027.7596	3005.6989	1763.9	880.1
1027.8714	3006.7567	1753.6	872.5
1027.9831	3007.8139	1751.05	847.95
1028.0947	3008.8705	1726.9	847.35
1028.2064	3009.9264	1746.9	848.45
1028.3179	3010.9818	1711.6	829.4
1028.4295	3012.0364	1714	831.25
1028.541	3013.0905	1698.2	815.85
1028.6524	3014.1439	1699.75	818.85
1028.7638	3015.1966	1683.05	802.3
1028.8752	3016.2487	1687.6	805.15
1028.9865	3017.3002	1683.15	796.35
1029.0978	3018.3511	1679.65	799.9
1029.209	3019.4013	1667.15	784.9
1029.3202	3020.4509	1672.45	792.75
1029.4314	3021.4998	1662.6	779.75
1029.5425	3022.5481	1662.05	781.2
1029.6535	3023.5958	1657.7	776.2
1029.7645	3024.6428	1658.3	777.05
1029.8755	3025.6892	1650.85	770.15
1029.9864	3026.735	1656.85	774.75
1030.0973	3027.7802	1661.9	781.7
1030.2082	3028.8247	1644.15	763.65
1030.319	3029.8685	1647.4	765.7
1030.4297	3030.9118	1649.1	766.65
1030.5404	3031.9544	1649.35	767.9
1030.6511	3032.9963	1652.9	771.75
1030.7617	3034.0376	1644.7	762.25
1030.8723	3035.0783	1644.7	759.4
1030.9829	3036.1184	1652.05	769.45
1031.0934	3037.1578	1647.15	765.35
1031.2038	3038.1966	1653.6	771.85
1031.3142	3039.2348	1648.1	769
1031.4246	3040.2723	1657.15	764.65
1031.5349	3041.3092	1644.3	764.2
1031.6452	3042.3455	1646.45	765.5
1031.7554	3043.3811	1638	755.4
1031.8656	3044.4161	1634	751.7
1031.9758	3045.4505	1632.35	751.7
1032.0859	3046.4842	1626.9	745.05
1032.1959	3047.5173	1621.15	741.15
1032.3059	3048.5498	1623.7	742.9
1032.4159	3049.5816	1619.35	737.45
1032.5258	3050.6128	1616.1	733.45
1032.6357	3051.6434	1605.95	723.8
1032.7455	3052.6734	1606.35	725.2
1032.8553	3053.7027	1602.5	722.6
1032.9651	3054.7314	1584.3	703.5
1033.0748	3055.7594	1591.65	712.55
1033.1845	3056.7868	1583.7	702.4
1033.2941	3057.8136	1578.95	697.35
1033.4037	3058.8398	1570.95	689.3
1033.5132	3059.8653	1564.55	683.7
1033.6227	3060.8902	1568.75	687
1033.7321	3061.9145	1560.6	680.65
1033.8415	3062.9381	1556.3	673.6
1033.9509	3063.9612	1564.15	668.2
1034.0602	3064.9835	1552.75	670.7
1034.1694	3066.0053	1544.55	660.95
1034.2787	3067.0264	1531.95	650.95
1034.3878	3068.0469	1530.1	647.5
1034.497	3069.0668	1528.05	644.65
1034.6061	3070.086	1519	639.35
1034.7151	3071.1046	1517.05	636.45
1034.8241	3072.1226	1506.2	624.05
1034.9331	3073.1399	1500.4	617.7
1035.042	3074.1567	1501.4	619.35
1035.1508	3075.1727	1490.35	607.25
1035.2597	3076.1882	1478.9	597.55
1035.3684	3077.203	1470.95	587.9
1035.4772	3078.2173	1462.85	580.5
1035.5859	3079.2308	1459.2	574.6
1035.6945	3080.2438	1449.8	565.85
1035.8031	3081.2561	1442.9	562.65
1035.9117	3082.2678	1432.7	550.95
1036.0202	3083.2789	1432.75	552.6
1036.1286	3084.2893	1417.4	534.6
1036.2371	3085.2991	1419.4	537.85
1036.3454	3086.3083	1412	528.65
1036.4538	3087.3169	1403.25	521.85
1036.562	3088.3248	1403.8	522.85
1036.6703	3089.3321	1392.35	510.9
1036.7785	3090.3388	1389.05	507.4
1036.8866	3091.3449	1386	505.7
1036.9948	3092.3503	1383.5	501.1
1037.1028	3093.3551	1372.6	495.25
1037.2108	3094.3593	1363.65	483.4
1037.3188	3095.3629	1372.7	494.1
1037.4267	3096.3658	1368.75	488.5
1037.5346	3097.3681	1364.05	482.2
1037.6425	3098.3698	1357.45	475.15
1037.7503	3099.3708	1355.05	469.85
1037.858	3100.3713	1345.8	465.5
1037.9657	3101.3711	1341.5	460.2
1038.0734	3102.3702	1467.35	452.1
1038.181	3103.3688	1347.9	463.9
1038.2886	3104.3667	1326.1	447.1
1038.3961	3105.364	1332.9	452.55
1038.5036	3106.3607	1332.1	450.85
1038.611	3107.3568	1318.95	436.55
1038.7184	3108.3522	1322.3	443.15
1038.8257	3109.347	1320.6	438.6
1038.933	3110.3412	1322.5	438
1039.0403	3111.3348	1314.45	432.75
1039.1475	3112.3277	1312.9	431.4
1039.2547	3113.32	1301.45	421.25
1039.3618	3114.3117	1308.75	426.9
1039.4689	3115.3028	1299.25	418.15
1039.5759	3116.2932	1307.75	425.95
1039.6829	3117.2831	1297.4	409.85
1039.7898	3118.2723	1287.7	405.8
1039.8967	3119.2608	1282.5	402.6
1040.0035	3120.2488	1284.95	402.4
1040.1103	3121.2361	1287.3	405.95
1040.2171	3122.2229	1284.55	403.65
1040.3238	3123.209	1273.5	392.4
1040.4305	3124.1944	1277.35	398.75
1040.5371	3125.1793	1271.7	388.85
1040.6437	3126.1635	1268.25	388.55
1040.7502	3127.1471	1267.65	387.9
1040.8567	3128.1301	1267.6	387.2
1040.9631	3129.1125	1265.65	387.15
1041.0695	3130.0942	1257.6	377.15
1041.1759	3131.0753	1266.25	376.75
1041.2822	3132.0558	1261.3	379
1041.3884	3133.0357	1251.65	372.35
1041.4946	3134.015	1252	371.65
1041.6008	3134.9936	1255.1	373.1
1041.7069	3135.9716	1272.05	369.3
1041.813	3136.949	1243.5	364
1041.919	3137.9258	1259.05	360.75
1042.025	3138.902	1249.75	363.25
1042.1309	3139.8775	1245.15	364.8
1042.2368	3140.8524	1239.3	360.5
1042.3427	3141.8267	1236.4	353.05
1042.4485	3142.8004	1238.3	357.35
1042.5542	3143.7735	1239.6	350.55
1042.6599	3144.7459	1230.25	347.35
1042.7656	3145.7178	1227.35	344.9
1042.8712	3146.689	1221.8	344.05
1042.9768	3147.6596	1225.15	343.85
1043.0823	3148.6295	1229.5	350.15
1043.1878	3149.5989	1215.75	336.1
1043.2932	3150.5676	1217.1	336.3
1043.3986	3151.5357	1216.45	336.75
1043.5039	3152.5032	1216.6	338.2
1043.6092	3153.4701	1212.3	330.4
1043.7145	3154.4364	1213.35	331.45
1043.8197	3155.402	1213.9	335
1043.9248	3156.367	1206.6	323.85
1044.03	3157.3315	1238.15	323.35
1044.135	3158.2952	1208.9	327.35
1044.24	3159.2584	1196.1	316.75
1044.345	3160.221	1199.55	317.55
1044.4499	3161.1829	1200.85	320.6
1044.5548	3162.1442	1194.95	315.15
1044.6596	3163.105	1193.45	311.9
1044.7644	3164.065	1191.45	311.85
1044.8692	3165.0245	1192.7	311.9
1044.9739	3165.9834	1188.7	309.3
1045.0785	3166.9416	1182.95	303.95
1045.1831	3167.8993	1187.4	307.25
1045.2877	3168.8563	1181.1	300
1045.3922	3169.8127	1179.9	299.85
1045.4966	3170.7684	1178.6	298.25
1045.6011	3171.7236	1177.35	295.35
1045.7054	3172.6782	1174.05	292.9
1045.8098	3173.6321	1175.55	293.85
1045.914	3174.5854	1176.4	291.75
1046.0183	3175.5381	1168.9	289.7
1046.1224	3176.4902	1161.7	280.95
1046.2266	3177.4417	1162.45	283.7
1046.3307	3178.3926	1170.15	290.95
1046.4347	3179.3428	1164.5	285.85
1046.5387	3180.2924	1163.95	285.55
1046.6427	3181.2415	1159.9	280.75
1046.7466	3182.1899	1163.9	281.5
1046.8504	3183.1377	1156.7	276.85
1046.9542	3184.0848	1158.2	274.05
1047.058	3185.0314	1152.55	271.65
1047.1617	3185.9773	1157.65	275.65
1047.2654	3186.9227	1151.5	269.55
1047.369	3187.8674	1143.75	261.6
1047.4726	3188.8115	1146.1	262.9
1047.5761	3189.755	1151.75	275.05
1047.6796	3190.6979	1147.55	268.7
1047.783	3191.6402	1139.1	260.4
1047.8864	3192.5818	1143.9	263.05
1047.9898	3193.5229	1148.2	260.4
1048.0931	3194.4633	1146.65	267.7
1048.1963	3195.4031	1138.2	256.6
1048.2995	3196.3423	1134	253.65
1048.4027	3197.2809	1132.8	253.95
1048.5058	3198.2189	1135.35	256
1048.6089	3199.1563	1139.2	252.5
1048.7119	3200.0931	1130.4	251.45
1048.8148	3201.0292	1131.5	250.85
1048.9178	3201.9648	1131.2	249.9
1049.0206	3202.8997	1131.3	248.85
1049.1235	3203.834	1124.45	245.15
1049.2262	3204.7677	1121.6	242.1
1049.329	3205.7008	1121.75	240.45
1049.4317	3206.6333	1124.5	245.95
1049.5343	3207.5652	1123.75	239.45
1049.6369	3208.4964	1117.5	239.8
1049.7394	3209.4271	1118	238.45
1049.8419	3210.3571	1114.7	236.35
1049.9444	3211.2865	1117.35	235.25
1050.0468	3212.2154	1112.5	232.9
1050.1491	3213.1436	1117.85	235.15
1050.2514	3214.0712	1123.25	237.6
1050.3537	3214.9982	1116.15	234.95
1050.4559	3215.9246	1114	233.8
1050.5581	3216.8503	1113.85	234.5
1050.6602	3217.7755	1107.65	228.2
1050.7623	3218.7001	1109.5	229.5
1050.8643	3219.624	1112.85	233.25
1050.9663	3220.5473	1107.95	228.95
1051.0682	3221.4701	1096.8	216.25
1051.1701	3222.3922	1105.7	226.25
1051.2719	3223.3137	1101.3	222.8
1051.3737	3224.2346	1102.05	224.1
1051.4754	3225.1549	1098.1	218.8
1051.5771	3226.0746	1100.7	221.85
1051.6788	3226.9937	1096.25	214.45
1051.7804	3227.9121	1094.4	216.4
1051.8819	3228.83	1093.6	212.05
1051.9834	3229.7473	1092.1	212.35
1052.0849	3230.6639	1091.9	211.75
1052.1863	3231.5799	1090.1	210.2
1052.2876	3232.4954	1086.35	205.45
1052.3889	3233.4102	1087.7	208.9
1052.4902	3234.3244	1087.6	207.55
1052.5914	3235.238	1085.35	205.7
1052.6926	3236.151	1107.35	200.5
1052.7937	3237.0634	1080.35	201.6
1052.8948	3237.9752	1084	204.9
1052.9958	3238.8864	1082.8	201.6
1053.0968	3239.797	1078.85	198.6
1053.1977	3240.7069	1083.85	205.75
1053.2986	3241.6163	1080.4	198.95
1053.3994	3242.5251	1074.3	198.05
1053.5002	3243.4332	1073.25	195.55
1053.6009	3244.3408	1075.3	195.55
1053.7016	3245.2477	1068.1	187.8
1053.8022	3246.154	1069.4	188.6
1053.9028	3247.0598	1073.9	192.1
1054.0034	3247.9649	1067.05	186
1054.1039	3248.8694	1067	187
1054.2043	3249.7733	1064.65	185.55
1054.3047	3250.6766	1066.7	188.55
1054.4051	3251.5793	1063.45	182.7
1054.5054	3252.4814	1061.55	181.95
1054.6056	3253.3829	1061.25	181.95
1054.7058	3254.2838	1056.7	176.95
1054.806	3255.1841	1059.9	182.2
1054.9061	3256.0838	1055.25	175.8
1055.0061	3256.9829	1052.85	175.55
1055.1062	3257.8814	1061.6	181.15
1055.2061	3258.7792	1055.65	175.2
1055.306	3259.6765	1051.05	170.8
1055.4059	3260.5731	1051.85	172.95
1055.5057	3261.4692	1044.85	164.75
1055.6055	3262.3647	1041.85	162.05
1055.7052	3263.2595	1038.45	158.35
1055.8049	3264.1538	1037.8	160.45
1055.9045	3265.0474	1043.1	163.3
1056.0041	3265.9404	1036.8	158.15
1056.1036	3266.8329	1033.75	152.9
1056.2031	3267.7247	1042.9	155.8
1056.3025	3268.616	1027.1	149.05
1056.4019	3269.5066	1023.4	143.05
1056.5013	3270.3966	1014.9	132.9
1056.6005	3271.286	1015.2	137.15
