Software Version:	3.9.2.0
Unit SN:	10000200
Spectrometer SN:	6960
Date:	3/26/2024 2:44:21 PM
Data Line Index:	25
Spectral Points:	2048
Integration time (ms):	125
Averages:	20
Delay (ms):	30000
Sequence Number:	1
Processing:	dark subtract
Laser Power (mW):	300
Laser Current (mA):	821
Laser Diode Temp (C):	25.1
Laser Case Temp (C):	27.9
System Temp (C):	28
Spectrometer Temp (C):	25.9
CCD Temp (C):	0
Secondary Temp (C):	20.003
Heatsink Temp (C):	23.283
CCDPCB Temp (C):	37.596
SecondaryPCB Temp (C):	34.573

Wavelength	RamanShift	Raw Counts	Dark Subtracted
787.061	30.1047	634.85	225.85
787.2016	32.3739	643.05	234.35
787.3422	34.6426	657.4	249.15
787.4828	36.9109	681	270.2
787.6235	39.1787	701.75	288.6
787.7642	41.4461	725.1	306.15
787.9049	43.7131	749.4	327.25
788.0456	45.9796	770.65	343.95
788.1863	48.2456	799.85	368
788.3271	50.5112	822.95	388.9
788.4679	52.7764	851.3	414.8
788.6087	55.0411	881.25	440.25
788.7496	57.3054	906	461.4
788.8904	59.5692	949.5	500.35
789.0313	61.8326	974.7	521.15
789.1722	64.0955	1015.05	559.05
789.3132	66.3579	1067.2	605.7
789.4541	68.6199	1120.7	656.7
789.5951	70.8815	1219.95	751.1
789.7361	73.1426	1411.9	938.55
789.8771	75.4032	1921.55	1443.8
790.0181	77.6634	3169.75	2686.25
790.1592	79.9231	6321.95	5829
790.3003	82.1824	13538.8	13026.65
790.4414	84.4412	29849.45	29305.9
790.5825	86.6995	57240.35	56648.7
790.7237	88.9574	65515.4	64879.3
790.8648	91.2148	65535	64867.25
791.006	93.4717	65535	64850.7
791.1472	95.7282	65535	64845.9
791.2885	97.9842	65535	64832.9
791.4297	100.2398	65535	64836.1
791.571	102.4949	65535	64835.95
791.7123	104.7495	65535	64823.45
791.8536	107.0036	65535	64831.6
791.9949	109.2573	65535	64829.15
792.1363	111.5105	65535	64826.85
792.2777	113.7632	65535	64825
792.4191	116.0154	65535	64814.5
792.5605	118.2672	65535	64814.35
792.7019	120.5185	65535	64820.1
792.8434	122.7693	65535	64813.6
792.9849	125.0197	65535	64809.2
793.1264	127.2696	65535	64805.75
793.2679	129.519	65535	64802.4
793.4094	131.7679	65535	64798.85
793.551	134.0163	65535	64798.9
793.6926	136.2642	65535	64795.4
793.8342	138.5117	65535	64788.45
793.9758	140.7587	65535	64792.35
794.1175	143.0052	65535	64789.5
794.2591	145.2512	65535	64794.6
794.4008	147.4967	65535	64788.4
794.5425	149.7417	65535	64786
794.6842	151.9863	65535	64782.65
794.826	154.2304	65535	64778.4
794.9677	156.4739	65535	64770.4
795.1095	158.717	65535	64774.55
795.2513	160.9596	65535	64765
795.3931	163.2017	65535	64768.85
795.535	165.4433	65535	64764.8
795.6768	167.6844	65535	64764.25
795.8187	169.925	65535	64760.6
795.9606	172.1651	65535	64762.5
796.1025	174.4047	65535	64757.85
796.2445	176.6439	65535	64756.05
796.3864	178.8825	65535	64754.3
796.5284	181.1206	65535	64746.3
796.6704	183.3582	65535	64742.25
796.8124	185.5954	65535	64741.8
796.9544	187.832	65535	64740.9
797.0965	190.0681	65535	64737.1
797.2386	192.3037	65535	64734.25
797.3806	194.5388	65535	64733.65
797.5228	196.7734	65535	64724.85
797.6649	199.0075	65535	64724.15
797.807	201.2411	65535	64722.8
797.9492	203.4742	65535	64721.2
798.0914	205.7068	65535	64721.1
798.2336	207.9389	65535	64720.15
798.3758	210.1704	65535	64714.35
798.518	212.4015	65535	64716.9
798.6603	214.632	65535	64725.2
798.8025	216.862	65535	64729.85
798.9448	219.0915	65535	64733.05
799.0871	221.3205	65535	64733.7
799.2294	223.549	65535	64736.15
799.3718	225.777	65535	64737.25
799.5141	228.0044	65535	64732.7
799.6565	230.2314	65535	64737.3
799.7989	232.4578	65535	64739.15
799.9413	234.6837	65535	64726.8
800.0837	236.909	65535	64725.25
800.2262	239.1339	65535	64701.15
800.3687	241.3582	65535	64713.85
800.5111	243.582	65535	64685.25
800.6536	245.8053	65535	64696.7
800.7961	248.0281	65535	64702.5
800.9387	250.2503	65535	64699
801.0812	252.472	65535	64691.4
801.2238	254.6932	65535	64695.45
801.3664	256.9139	65535	64691.25
801.509	259.134	65535	64680.05
801.6516	261.3536	65535	64690.3
801.7942	263.5727	65535	64689.9
801.9369	265.7912	65535	64684.5
802.0795	268.0092	65535	64684.95
802.2222	270.2267	65535	64684.8
802.3649	272.4436	65535	64688.15
802.5076	274.6601	65535	64676
802.6504	276.8759	65535	64685.95
802.7931	279.0913	65535	64681.55
802.9359	281.3061	65535	64678.5
803.0787	283.5204	65535	64678.15
803.2215	285.7341	65535	64675.05
803.3643	287.9473	65535	64663.15
803.5071	290.16	65535	64668.25
803.6499	292.3721	65535	64674.35
803.7928	294.5837	65535	64669.2
803.9357	296.7947	65535	64675
804.0786	299.0052	65535	64669.45
804.2215	301.2152	65535	64670.15
804.3644	303.4246	65535	64674.25
804.5074	305.6334	65535	64675.8
804.6503	307.8418	65535	64671.25
804.7933	310.0495	65535	64672.1
804.9363	312.2568	65535	64670
805.0793	314.4635	65535	64670.1
805.2223	316.6696	65535	64665.95
805.3653	318.8752	65535	64655.3
805.5084	321.0802	65535	64666.4
805.6514	323.2847	65535	64660.4
805.7945	325.4887	65535	64666.15
805.9376	327.692	65535	64662.5
806.0807	329.8949	65535	64662.25
806.2238	332.0972	65535	64660.25
806.367	334.2989	65535	64657
806.5101	336.5001	65535	64659.3
806.6533	338.7007	65535	64657.05
806.7965	340.9008	65535	64654.55
806.9397	343.1003	65535	64658.15
807.0829	345.2992	65535	64652.7
807.2261	347.4976	65535	64649.05
807.3693	349.6955	65535	64646.55
807.5126	351.8927	65535	64649.75
807.6559	354.0895	65535	64632.7
807.7991	356.2856	65535	64644.75
807.9424	358.4812	65535	64649
808.0857	360.6763	65535	64647.45
808.2291	362.8707	65535	64644.65
808.3724	365.0646	65535	64648.05
808.5158	367.258	65535	64640.55
808.6591	369.4508	65535	64638.05
808.8025	371.643	65535	64634.65
808.9459	373.8346	65535	64634.75
809.0893	376.0257	65535	64632.75
809.2327	378.2162	65535	64637
809.3762	380.4062	65535	64635.65
809.5196	382.5956	65535	64634.6
809.6631	384.7844	65535	64632.8
809.8066	386.9726	65535	64635.9
809.9501	389.1603	65535	64632.75
810.0936	391.3474	65535	64595.3
810.2371	393.5339	65535	64634.15
810.3806	395.7199	65535	64637.75
810.5241	397.9052	65535	64640.15
810.6677	400.09	65535	64640.95
810.8113	402.2743	65535	64643.05
810.9548	404.4579	65535	64644.25
811.0984	406.641	65535	64641.6
811.2421	408.8235	65535	64642.8
811.3857	411.0054	65535	64640.65
811.5293	413.1868	65535	64639
811.673	415.3675	65535	64636.2
811.8166	417.5477	65535	64634.3
811.9603	419.7273	65535	64632.1
812.104	421.9064	65535	64628.2
812.2477	424.0848	65535	64633.5
812.3914	426.2627	65535	64630.7
812.5351	428.4399	65535	64629
812.6788	430.6166	65535	64627
812.8226	432.7928	65535	64624.65
812.9663	434.9683	65535	64627.55
813.1101	437.1432	65535	64627.9
813.2539	439.3176	65535	64635.15
813.3977	441.4914	65535	64630.7
813.5415	443.6645	65535	64628.6
813.6853	445.8371	65535	64627.75
813.8291	448.0091	65535	64630.25
813.973	450.1806	65535	64629.95
814.1168	452.3514	65535	64629.05
814.2607	454.5216	65535	64622.6
814.4046	456.6913	65535	64628.1
814.5485	458.8603	65535	64627.25
814.6924	461.0288	65535	64635.5
814.8363	463.1967	65535	64634.3
814.9802	465.3639	65535	64630
815.1241	467.5306	65535	64629.2
815.2681	469.6967	65535	64631
815.412	471.8622	65535	64633.2
815.556	474.0271	65535	64627.9
815.7	476.1914	65535	64628.45
815.844	478.3551	65535	64626.2
815.988	480.5182	65535	64630.8
816.132	482.6807	65535	64633.45
816.276	484.8426	65535	64638.95
816.4201	487.0039	65535	64636.5
816.5641	489.1647	65535	64624.95
816.7082	491.3248	65535	64624.8
816.8522	493.4843	65535	64628.9
816.9963	495.6432	65535	64632.9
817.1404	497.8015	65535	64622.55
817.2845	499.9592	65535	64614.45
817.4286	502.1163	65535	64617.35
817.5727	504.2728	65535	64623.4
817.7168	506.4287	65535	64633.4
817.861	508.5839	65535	64633.6
818.0051	510.7386	65535	64629.05
818.1493	512.8927	65535	64615
818.2935	515.0461	65535	64619.55
818.4377	517.199	65535	64615.05
818.5818	519.3512	65535	64618.45
818.726	521.5029	65535	64615.7
818.8703	523.6539	65535	64618
819.0145	525.8043	65535	64616.35
819.1587	527.9541	65535	64613.85
819.303	530.1033	65535	64615.25
819.4472	532.2519	65535	64616.7
819.5915	534.3999	65535	64614.05
819.7357	536.5472	65535	64615.05
819.88	538.694	65535	64618.35
820.0243	540.8401	65535	64616.6
820.1686	542.9856	65535	64607.6
820.3129	545.1305	65535	64603
820.4572	547.2748	65535	64602.35
820.6016	549.4185	65535	64600.95
820.7459	551.5615	65535	64605.55
820.8902	553.704	65535	64604.05
821.0346	555.8458	65535	64610.1
821.1789	557.987	65535	64607.25
821.3233	560.1276	65535	64607.75
821.4677	562.2675	65535	64605.1
821.6121	564.4069	65535	64608.5
821.7565	566.5456	65535	64606.85
821.9009	568.6837	65535	64609.65
822.0453	570.8212	65535	64609.85
822.1897	572.958	65535	64612.55
822.3342	575.0942	65535	64611.35
822.4786	577.2299	65535	64621.3
822.6231	579.3648	65535	64629.25
822.7675	581.4992	65535	64634
822.912	583.6329	65535	64634.6
823.0565	585.766	65535	64628.55
823.201	587.8985	65535	64627.7
823.3454	590.0304	65535	64591.95
823.4899	592.1616	65535	64609.2
823.6345	594.2922	65535	64604.95
823.779	596.4222	65535	64604.85
823.9235	598.5515	65535	64599.45
824.068	600.6802	65535	64607.35
824.2126	602.8083	65535	64609.65
824.3571	604.9358	65535	64603.8
824.5017	607.0626	65535	64602.7
824.6462	609.1888	65535	64599.2
824.7908	611.3144	65535	64600
824.9354	613.4393	65535	64598
825.08	615.5636	65535	64597.55
825.2246	617.6873	65535	64598.1
825.3692	619.8103	65535	64600.75
825.5138	621.9327	65535	64605.55
825.6584	624.0544	65535	64610.75
825.803	626.1756	65535	64606.4
825.9477	628.2961	65535	64605.7
826.0923	630.4159	65535	64601.65
826.237	632.5351	65535	64601.4
826.3816	634.6537	65535	64598.85
826.5263	636.7716	65535	64594.7
826.6709	638.8889	65535	64595.5
826.8156	641.0056	65535	64594.85
826.9603	643.1216	65535	64596.15
827.105	645.237	65535	64600.45
827.2497	647.3518	65535	64601.55
827.3944	649.4659	65535	64607.7
827.5391	651.5793	65535	64611.95
827.6838	653.6922	65535	64604.1
827.8285	655.8043	65535	64603.75
827.9733	657.9159	65535	64603.5
828.118	660.0268	65535	64599.5
828.2627	662.137	65535	64602.3
828.4075	664.2466	65535	64593.05
828.5522	666.3556	65535	64595.45
828.697	668.4639	65535	64600.9
828.8418	670.5716	65535	64603.7
828.9865	672.6786	65535	64599.65
829.1313	674.785	65535	64593.35
829.2761	676.8907	65535	64605.2
829.4209	678.9958	65535	64604.9
829.5657	681.1002	65535	64598.8
829.7105	683.204	65535	64593.35
829.8553	685.3072	65535	64594.45
830.0001	687.4097	65535	64597.55
830.1449	689.5115	65535	64591.55
830.2898	691.6127	65535	64598
830.4346	693.7132	65535	64597.8
830.5794	695.8131	65535	64578.85
830.7243	697.9123	65535	64592.95
830.8691	700.0109	65535	64593.35
831.014	702.1089	65533.35	64593.05
831.1588	704.2061	65535	64595.4
831.3037	706.3028	65535	64586.65
831.4486	708.3987	65535	64591.95
831.5935	710.4941	65535	64595.75
831.7383	712.5887	65535	64599.75
831.8832	714.6827	65535	64593.95
832.0281	716.7761	65535	64598.2
832.173	718.8688	65535	64593.95
832.3179	720.9608	65535	64589.65
832.4628	723.0522	65535	64584.5
832.6077	725.1429	65534.75	64591.6
832.7527	727.233	65535	64594.6
832.8976	729.3224	65446.65	64504.05
833.0425	731.4112	65519.85	64578.45
833.1874	733.4993	65522.85	64576.65
833.3324	735.5867	65521.7	64582
833.4773	737.6735	65479.4	64535.8
833.6222	739.7596	65398.45	64451.9
833.7672	741.845	65384.8	64445.55
833.9122	743.9298	65512.25	64570.8
834.0571	746.014	65382.9	64441.65
834.2021	748.0974	65250.05	64302.4
834.347	750.1802	65487.4	64538.9
834.492	752.2624	65188.8	64241.15
834.637	754.3439	65233.35	64287.95
834.782	756.4247	65325.95	64371.4
834.9269	758.5048	65191.4	64246.4
835.0719	760.5843	65274.95	64326.2
835.2169	762.6631	65363.35	64411.85
835.3619	764.7413	65312.2	64366.6
835.5069	766.8188	65363.65	64417.1
835.6519	768.8956	65487.75	64540.65
835.7969	770.9718	65484	64539.65
835.9419	773.0473	65439.3	64492.3
836.0869	775.1221	65151.35	64204.5
836.232	777.1962	65132.85	64190.25
836.377	779.2697	64818.45	63872.9
836.522	781.3426	65085.1	64126.7
836.667	783.4147	65226.35	64276.4
836.8121	785.4862	65218	64274.75
836.9571	787.557	64883.3	63935.9
837.1021	789.6271	65152.15	64201.25
837.2472	791.6966	64784.1	63838.45
837.3922	793.7654	64334.3	63385.35
837.5373	795.8335	64346.45	63401.9
837.6823	797.901	64444.35	63497.05
837.8274	799.9678	64216.25	63265.7
837.9724	802.0339	64176.4	63225.25
838.1175	804.0993	64217.55	63254.1
838.2626	806.1641	64085.45	63135.1
838.4076	808.2282	64004.95	63060.8
838.5527	810.2916	63851.95	62903.05
838.6978	812.3544	64080.1	63134
838.8428	814.4164	63573.85	62631.2
838.9879	816.4778	63595.8	62644.8
839.133	818.5385	63653	62702.2
839.2781	820.5986	63585.4	62633.05
839.4232	822.658	63682.8	62732.8
839.5682	824.7166	63682.55	62733.3
839.7133	826.7747	63133.05	62183.15
839.8584	828.832	63358	62410.45
840.0035	830.8886	63670.95	62719.95
840.1486	832.9446	63685.95	62733.2
840.2937	834.9999	62885.3	61933.95
840.4388	837.0545	63360.25	62407.6
840.5839	839.1085	63618.55	62666.35
840.729	841.1618	63455.9	62500.5
840.8741	843.2143	62829.45	61879.8
841.0192	845.2662	62810.2	61863.1
841.1643	847.3175	63009.05	62057
841.3095	849.368	62206.85	61255.9
841.4546	851.4179	62773.95	61821.4
841.5997	853.467	62244.05	61294.55
841.7448	855.5155	62429.8	61478.85
841.8899	857.5633	61923.15	60975.4
842.0351	859.6105	61630.6	60680.3
842.1802	861.6569	61944.55	60992.4
842.3253	863.7027	61265.5	60316.75
842.4704	865.7478	61506.15	60556.05
842.6156	867.7922	61309.25	60362.35
842.7607	869.8359	61692.5	60742.65
842.9058	871.8789	60979.3	60027
843.0509	873.9212	61442.05	60459.2
843.1961	875.9629	61492.05	60539.55
843.3412	878.0039	61469.05	60516.45
843.4863	880.0441	61221.8	60274.85
843.6315	882.0837	61206.1	60254.45
843.7766	884.1226	61079.75	60129
843.9218	886.1609	60886.7	59936.3
844.0669	888.1984	60474.95	59526.35
844.212	890.2352	60897.45	59950
844.3572	892.2714	60062	59105.35
844.5023	894.3069	60385.7	59431.9
844.6475	896.3416	59996.45	59043.2
844.7926	898.3757	59883.8	58933.5
844.9377	900.4091	59031.1	58077.05
845.0829	902.4418	60091.5	59131.8
845.228	904.4739	59381.8	58424
845.3732	906.5052	59434.65	58479.25
845.5183	908.5358	59051.35	58100.55
845.6635	910.5658	58678.15	57721.9
845.8086	912.595	58595.3	57639.85
845.9538	914.6236	57786.2	56831.75
846.0989	916.6515	58891.4	57935.75
846.2441	918.6786	57561.55	56607.45
846.3892	920.7051	57879.8	56923.5
846.5344	922.7309	57807	56852.75
846.6795	924.756	58034.4	57082.9
846.8246	926.7804	57626.95	56673.05
846.9698	928.8041	56878.55	55924.2
847.1149	930.8272	57326.45	56374.3
847.2601	932.8495	57284	56328.75
847.4052	934.8711	56573	55617.8
847.5504	936.892	56144.7	55191.85
847.6955	938.9123	56201.15	55246.95
847.8407	940.9318	55711.1	54757.4
847.9858	942.9506	55486.95	54533.15
848.131	944.9688	55429.3	54482.35
848.2761	946.9862	54580.65	53627.5
848.4213	949.003	54829.7	53874.9
848.5664	951.019	54197.5	53244
848.7115	953.0344	54331.85	53378.5
848.8567	955.0491	54217.7	53265.25
849.0018	957.063	54421.2	53468.7
849.147	959.0763	54446.85	53486.65
849.2921	961.0888	54086.45	53133.7
849.4373	963.1007	54375.95	53426.1
849.5824	965.1119	54220.2	53274.25
849.7275	967.1223	53975.75	53035.55
849.8727	969.1321	54169.75	53226.15
850.0178	971.1412	53758.55	52815.5
850.1629	973.1495	53538.7	52590
850.3081	975.1572	53611.25	52626.55
850.4532	977.1641	53489.65	52535.1
850.5983	979.1704	53264.3	52312.45
850.7435	981.1759	53242.95	52287.85
850.8886	983.1808	53020.25	52070.15
851.0337	985.1849	52961.35	51995.85
851.1788	987.1884	53101	52147.8
851.324	989.1911	53413	52459.85
851.4691	991.1932	52938.5	51988.5
851.6142	993.1945	52955.95	52008.7
851.7593	995.1951	52864.8	51912.95
851.9045	997.1951	52564.2	51607.55
852.0496	999.1943	52243.55	51293.85
852.1947	1001.1928	52013.65	51060.15
852.3398	1003.1906	51898.15	50945.1
852.4849	1005.1877	51566.05	50611.75
852.63	1007.1841	51329.95	50378.2
852.7751	1009.1798	51100.7	50150.85
852.9202	1011.1748	50697	49746.55
853.0653	1013.1691	50431.4	49482.9
853.2104	1015.1627	49839.9	48890.05
853.3555	1017.1556	49436.15	48490.3
853.5006	1019.1477	49378.35	48431.65
853.6457	1021.1392	48901.1	47959.6
853.7908	1023.1299	48596.4	47655.4
853.9359	1025.12	48558.3	47621.65
854.081	1027.1093	48326.7	47399.5
854.2261	1029.0979	48265.8	47342.35
854.3712	1031.0859	48106.75	47176.6
854.5163	1033.0731	47902.5	46964.15
854.6613	1035.0596	47675	46733.95
854.8064	1037.0454	47324.75	46378.45
854.9515	1039.0304	47067.55	46122.55
855.0965	1041.0148	46725.45	45777.65
855.2416	1042.9985	46532.7	45582.4
855.3867	1044.9814	46484.6	45538.2
855.5317	1046.9636	46199.2	45254.75
855.6768	1048.9452	45947.25	45000.1
855.8219	1050.926	45899.05	44951.75
855.9669	1052.9061	45744.2	44796.6
856.112	1054.8855	45604.55	44655.8
856.257	1056.8642	45468.05	44518.65
856.4021	1058.8421	45427.95	44475.65
856.5471	1060.8194	45342.25	44390.4
856.6921	1062.7959	45178.85	44231.15
856.8372	1064.7717	45049.5	44097.95
856.9822	1066.7469	44935.05	43984.95
857.1272	1068.7213	44755.35	43803.6
857.2723	1070.695	44643.9	43699.7
857.4173	1072.6679	44303.65	43357.05
857.5623	1074.6402	44173.95	43226.65
857.7073	1076.6117	44115.95	43160.45
857.8523	1078.5826	44046.4	43098.3
857.9973	1080.5527	43951.85	43001.55
858.1423	1082.5221	44003.8	43055.1
858.2873	1084.4908	44063.65	43116.9
858.4323	1086.4587	44193.2	43244.7
858.5773	1088.426	44216.75	43269.9
858.7223	1090.3925	44049.35	43097.15
858.8673	1092.3584	43899.7	42952.35
859.0123	1094.3235	43506.4	42563.3
859.1573	1096.2879	43261.95	42313.35
859.3022	1098.2515	43069.3	42124.6
859.4472	1100.2145	43070.9	42125.45
859.5922	1102.1767	42921	41972.1
859.7371	1104.1382	42923.35	41977.6
859.8821	1106.099	42971.55	42022.3
860.027	1108.0591	43079.65	42134.8
860.172	1110.0185	43080.8	42135.15
860.3169	1111.9771	43059.4	42114.1
860.4619	1113.9351	42653.4	41705.85
860.6068	1115.8923	42136.4	41191.8
860.7517	1117.8488	41670	40722.3
860.8967	1119.8045	41168	40222.3
861.0416	1121.7596	40984.7	40041.55
861.1865	1123.7139	40730.25	39786.1
861.3314	1125.6675	40602.25	39659.1
861.4763	1127.6204	40713.7	39769.8
861.6212	1129.5726	40558.05	39610
861.7661	1131.524	40565.75	39620.65
861.911	1133.4748	40510.5	39565.95
862.0559	1135.4248	40369.55	39419.7
862.2008	1137.3741	40386	39440
862.3457	1139.3226	40197.1	39249.3
862.4905	1141.2705	40177.85	39230.75
862.6354	1143.2176	39785.45	38834.6
862.7803	1145.164	39794.85	38848.05
862.9251	1147.1097	39721.85	38772.75
863.07	1149.0546	39647	38700.45
863.2148	1150.9989	39448.7	38503.7
863.3597	1152.9424	39305.55	38359.3
863.5045	1154.8852	38990.3	38043.5
863.6493	1156.8272	38736	37792.5
863.7942	1158.7686	38640.15	37687.95
863.939	1160.7092	38427.4	37480.95
864.0838	1162.6491	38224.4	37280.9
864.2286	1164.5883	38245.4	37300.45
864.3734	1166.5267	38224.85	37276.95
864.5182	1168.4644	38247.85	37303.45
864.663	1170.4014	38392.85	37446
864.8078	1172.3377	38567.35	37627.1
864.9526	1174.2732	38657.75	37715.85
865.0974	1176.2081	38788.9	37845.6
865.2421	1178.1421	38846.45	37899.25
865.3869	1180.0755	38948.95	38006.35
865.5317	1182.0082	38722.9	37778.85
865.6764	1183.9401	38597.9	37657.4
865.8212	1185.8713	38255.5	37316.6
865.9659	1187.8017	37902	36966.4
866.1106	1189.7315	37597	36670.3
866.2554	1191.6605	37093.25	36168.15
866.4001	1193.5888	36875.1	35945.75
866.5448	1195.5163	36642.45	35704.3
866.6895	1197.4432	36464	35521.8
866.8342	1199.3693	36269.55	35328.95
866.9789	1201.2947	36062.65	35111.95
867.1236	1203.2193	35852.95	34913.6
867.2683	1205.1432	35883.15	34941.75
867.413	1207.0664	35766.45	34826.2
867.5576	1208.9889	35783	34837.8
867.7023	1210.9106	35717.95	34777.1
867.847	1212.8316	35630.3	34690.6
867.9916	1214.7519	35648.3	34699.4
868.1363	1216.6715	35547.2	34608.5
868.2809	1218.5903	35461.25	34520.45
868.4255	1220.5084	35226	34283.45
868.5701	1222.4257	35145.15	34207
868.7148	1224.3424	34947.15	34011.6
868.8594	1226.2583	34926.9	33983.75
869.004	1228.1735	34908.7	33968.1
869.1486	1230.0879	34885.25	33946.75
869.2932	1232.0016	34948.75	34009.2
869.4377	1233.9146	34838.6	33892.9
869.5823	1235.8269	34666.8	33729.15
869.7269	1237.7384	34487.65	33551.4
869.8715	1239.6492	34105.55	33167.1
870.016	1241.5592	33918.2	32975.7
870.1606	1243.4686	33763.4	32822.55
870.3051	1245.3772	33582.4	32641.25
870.4496	1247.285	33399.4	32460.75
870.5941	1249.1922	33257.4	32320.25
870.7387	1251.0986	33176.5	32235.3
870.8832	1253.0042	32988.9	32049.7
871.0277	1254.9092	33004.5	32065.6
871.1722	1256.8134	33006	32069.65
871.3167	1258.7169	33151.3	32213.45
871.4611	1260.6196	33203.35	32265.85
871.6056	1262.5216	33353	32415.2
871.7501	1264.4229	33391.3	32455.35
871.8945	1266.3234	33483.3	32542.25
872.039	1268.2232	33452.2	32513.85
872.1834	1270.1223	33309.7	32369.2
872.3278	1272.0207	33207.5	32267.6
872.4723	1273.9183	33080.5	32136.25
872.6167	1275.8151	32945.7	32008.55
872.7611	1277.7113	32799.05	31864.6
872.9055	1279.6067	32503.2	31567.45
873.0499	1281.5014	32266.55	31329.15
873.1943	1283.3953	31991.1	31051.15
873.3386	1285.2885	31850.7	30910.9
873.483	1287.181	31707.8	30770.15
873.6274	1289.0727	31709.6	30773.65
873.7717	1290.9637	31640.8	30702
873.9161	1292.854	31676.4	30739.05
874.0604	1294.7435	31729.7	30792.15
874.2047	1296.6323	31883.35	30948.35
874.349	1298.5204	32152.95	31211.6
874.4933	1300.4077	32320.15	31382.4
874.6376	1302.2943	32460.35	31524
874.7819	1304.1802	32498.1	31562.35
874.9262	1306.0653	32284.95	31345.1
875.0705	1307.9497	32128.75	31190.7
875.2147	1309.8333	32029.3	31096.55
875.359	1311.7162	31950.8	31012.5
875.5032	1313.5984	31982.7	31043
875.6475	1315.4798	32026.5	31078.6
875.7917	1317.3605	32134.9	31179.55
875.9359	1319.2405	32330.25	31392.2
876.0801	1321.1197	32274.35	31336.15
876.2243	1322.9982	32150.65	31207.65
876.3685	1324.876	32104.35	31167.7
876.5127	1326.753	31990.3	31053.8
876.6569	1328.6293	31999	31060.6
876.801	1330.5048	32004.4	31062.85
876.9452	1332.3796	31890.1	30951.35
877.0893	1334.2537	31839.1	30877.9
877.2335	1336.127	31726	30790.45
877.3776	1337.9996	31570.95	30633.15
877.5217	1339.8714	31452.7	30516.5
877.6658	1341.7426	31343.1	30358.15
877.8099	1343.6129	31190.25	30253.4
877.954	1345.4826	31088.4	30152.8
878.0981	1347.3515	31024	30085.6
878.2422	1349.2196	30905.4	29967.75
878.3862	1351.087	30838.5	29901.75
878.5303	1352.9537	30784.75	29844.5
878.6743	1354.8197	30887.95	29951.2
878.8184	1356.6849	30999.4	30059.8
878.9624	1358.5493	31003.7	30067.65
879.1064	1360.4131	30906.3	29973.4
879.2504	1362.276	30709.3	29776.9
879.3944	1364.1383	30548.15	29612.65
879.5384	1365.9998	30199.1	29257.8
879.6823	1367.8606	29887.55	28949.25
879.8263	1369.7206	29538.95	28603.05
879.9702	1371.5799	29334.95	28392.75
880.1142	1373.4384	29114.55	28175.8
880.2581	1375.2962	28954.4	28018.1
880.402	1377.1533	28611.4	27677.6
880.5459	1379.0096	28214.7	27282.55
880.6898	1380.8652	27865.2	26934.75
880.8337	1382.7201	27592.05	26660.2
880.9776	1384.5742	27287.7	26354.55
881.1215	1386.4275	27049.6	26117.95
881.2653	1388.2802	26861.5	25928.45
881.4092	1390.132	26665.4	25729.2
881.553	1391.9832	26595.35	25659.95
881.6968	1393.8336	26378.95	25442.3
881.8406	1395.6832	26267.1	25327.05
881.9844	1397.5322	26152.5	25220.6
882.1282	1399.3803	26081.85	25144.2
882.272	1401.2278	25909.55	24974.75
882.4158	1403.0745	25844.75	24910.85
882.5595	1404.9204	25716.1	24788.3
882.7033	1406.7656	25722.15	24788
882.847	1408.6101	25590	24654.35
882.9908	1410.4538	25524.85	24594.4
883.1345	1412.2968	25514.85	24583.4
883.2782	1414.139	25399.8	24467.05
883.4219	1415.9805	25482.3	24550.8
883.5656	1417.8213	25489.6	24532.15
883.7092	1419.6613	25460.25	24528.2
883.8529	1421.5006	25584.05	24652.3
883.9965	1423.3391	25856.35	24924.45
884.1402	1425.1769	26083.55	25148.55
884.2838	1427.0139	26587.15	25654.15
884.4274	1428.8502	27161.3	26226.75
884.571	1430.6858	27670.75	26740.25
884.7146	1432.5206	28046.9	27114.25
884.8582	1434.3547	28248.95	27317.3
885.0018	1436.188	28226.4	27294.3
885.1453	1438.0206	28155.8	27220.15
885.2889	1439.8524	27902.15	26971.5
885.4324	1441.6835	27771.95	26840.55
885.5759	1443.5139	27616.55	26685.4
885.7194	1445.3435	27487	26558.4
885.8629	1447.1724	27393.65	26465.15
886.0064	1449.0005	27294.45	26366
886.1499	1450.8279	27148.05	26217.15
886.2933	1452.6545	27059.3	26129.25
886.4368	1454.4804	27037.9	26107.75
886.5802	1456.3056	26975.05	26035.75
886.7237	1458.13	26848.15	25920.1
886.8671	1459.9536	26627.8	25698.1
887.0105	1461.7766	26190.6	25261.45
887.1539	1463.5987	25693.75	24761.6
887.2972	1465.4202	25271.95	24343.55
887.4406	1467.2409	24806.75	23874.25
887.584	1469.0608	24590.25	23658.2
887.7273	1470.88	24221.3	23294.45
887.8706	1472.6984	23999	23071.5
888.0139	1474.5161	23675.9	22741.65
888.1572	1476.3331	23485.4	22557.35
888.3005	1478.1493	23333.55	22401.25
888.4438	1479.9648	23213.95	22282.95
888.5871	1481.7795	23031.55	22098.4
888.7303	1483.5935	22972.8	22039.8
888.8736	1485.4067	22891.3	21960.25
889.0168	1487.2192	22802.6	21872.65
889.16	1489.031	22711.85	21780.8
889.3032	1490.842	22659	21730.3
889.4464	1492.6522	22582.25	21653.2
889.5896	1494.4618	22465.8	21534.2
889.7327	1496.2705	22417.7	21485.35
889.8759	1498.0785	22350	21418.15
890.019	1499.8858	22268.05	21338.35
890.1622	1501.6924	22216.9	21285.95
890.3053	1503.4981	22206.05	21278.45
890.4484	1505.3032	22142.15	21209.65
890.5914	1507.1075	22055.8	21126.55
890.7345	1508.911	21969.1	21042.15
890.8776	1510.7138	21880.65	20950.5
891.0206	1512.5159	21763.65	20837.3
891.1637	1514.3172	21684.55	20758.7
891.3067	1516.1178	21584.6	20657.1
891.4497	1517.9176	21558.7	20628.3
891.5927	1519.7166	21469.2	20541.35
891.7357	1521.515	21402.05	20469.9
891.8786	1523.3126	21354.15	20430
892.0216	1525.1094	21258.35	20328.9
892.1645	1526.9055	21156.95	20230.85
892.3074	1528.7008	21080.3	20154.55
892.4503	1530.4954	20954.6	20022.45
892.5932	1532.2893	20915.55	19993.15
892.7361	1534.0824	20763	19835.45
892.879	1535.8747	20776.9	19859.1
893.0218	1537.6663	20688.05	19763.05
893.1647	1539.4572	20624.4	19700.05
893.3075	1541.2473	20563.15	19640
893.4503	1543.0367	20529.3	19606.45
893.5931	1544.8253	20434.85	19508.95
893.7359	1546.6132	20417.05	19491.35
893.8787	1548.4003	20302.7	19368.3
894.0214	1550.1867	20293	19361.1
894.1642	1551.9723	20250.1	19325.2
894.3069	1553.7572	20232.9	19311.9
894.4496	1555.5414	20210.35	19290.15
894.5923	1557.3247	20136.4	19217.55
894.735	1559.1074	20117.1	19200.7
894.8777	1560.8893	20107.6	19190.55
895.0204	1562.6705	20151.9	19233.95
895.163	1564.4509	20173.5	19257.1
895.3056	1566.2305	20160.5	19245.5
895.4482	1568.0094	20261.5	19350.4
895.5908	1569.7876	20325.45	19407.8
895.7334	1571.565	20368.05	19449.8
895.876	1573.3417	20351.45	19432.7
896.0186	1575.1176	20332.05	19415.95
896.1611	1576.8928	20273	19358.9
896.3036	1578.6672	20138.25	19227.65
896.4461	1580.4409	19951.7	19045.25
896.5886	1582.2138	19762.45	18851.95
896.7311	1583.986	19602.7	18689.45
896.8736	1585.7575	19476.35	18565.7
897.0161	1587.5282	19356.85	18443.35
897.1585	1589.2981	19225.35	18315.35
897.3009	1591.0673	19092.15	18184.8
897.4433	1592.8358	19058.25	18149.55
897.5857	1594.6035	19026.9	18113.2
897.7281	1596.3704	18949.15	18036.7
897.8705	1598.1366	18868.25	17958.2
898.0128	1599.9021	18850.95	17940.05
898.1551	1601.6668	18793.6	17879.75
898.2975	1603.4308	18834.1	17921.25
898.4398	1605.194	18851.6	17936.65
898.5821	1606.9564	18857.75	17949.85
898.7243	1608.7182	18952.6	18048.75
898.8666	1610.4791	19056.8	18155.5
899.0088	1612.2394	19096.3	18198.5
899.1511	1613.9988	19226.9	18326.35
899.2933	1615.7576	19405	18498.35
899.4355	1617.5156	19694.35	18778.85
899.5776	1619.2728	19855.7	18944.2
899.7198	1621.0293	20013.8	19105.8
899.862	1622.785	20055.4	19146.8
900.0041	1624.54	19954.05	19047.9
900.1462	1626.2942	19752.8	18846.7
900.2883	1628.0477	19407.9	18502.9
900.4304	1629.8005	19189.2	18281.7
900.5725	1631.5525	18854.75	17951.05
900.7145	1633.3037	18547.05	17640.9
900.8566	1635.0542	18396.15	17491.4
900.9986	1636.804	18223.6	17316.4
901.1406	1638.553	18143.45	17166.25
901.2826	1640.3013	17939.85	17033.8
901.4245	1642.0488	17837.45	16929.2
901.5665	1643.7955	17817	16917.4
901.7085	1645.5416	17791	16887.95
901.8504	1647.2868	17798.1	16894.05
901.9923	1649.0313	17776.9	16869.35
902.1342	1650.7751	17889.35	16981.45
902.2761	1652.5181	18025.9	17121.5
902.4179	1654.2604	18211.75	17306.95
902.5598	1656.0019	18499.75	17597.4
902.7016	1657.7427	18832.5	17927.65
902.8434	1659.4828	19187.65	18282.85
902.9852	1661.222	19368.05	18458.85
903.127	1662.9606	19397.45	18491.35
903.2687	1664.6984	19243.15	18334.6
903.4105	1666.4354	18877.5	17965.55
903.5522	1668.1717	18399.6	17486.55
903.6939	1669.9072	17899.25	16989
903.8356	1671.642	17500	16588.2
903.9773	1673.3761	17185.8	16280.65
904.119	1675.1094	16898.1	15993.1
904.2606	1676.8419	16672	15762.6
904.4022	1678.5737	16512.65	15607.4
904.5439	1680.3048	16371.15	15466
904.6855	1682.0351	16237.45	15330.85
904.827	1683.7646	16089.3	15180.5
904.9686	1685.4934	16037.15	15132.3
905.1101	1687.2215	15932.25	15026.3
905.2517	1688.9488	15844.35	14943.1
905.3932	1690.6754	15742.05	14839.6
905.5347	1692.4012	15742.75	14837.75
905.6761	1694.1263	15644.15	14737.45
905.8176	1695.8506	15598.65	14691.3
905.9591	1697.5742	15500.6	14597.4
906.1005	1699.297	15444.8	14544.35
906.2419	1701.0191	15342.35	14445.15
906.3833	1702.7404	15299.6	14399.5
906.5246	1704.461	15220.45	14317.5
906.666	1706.1808	15166.05	14262.55
906.8073	1707.8999	15101.25	14198.1
906.9487	1709.6182	15076.05	14178.7
907.09	1711.3358	15017.85	14121.85
907.2313	1713.0527	14958.6	14063.9
907.3725	1714.7688	14880.05	13976.95
907.5138	1716.4841	14827.35	13926.4
907.655	1718.1987	14806.2	13901.1
907.7962	1719.9126	14756.3	13856.7
907.9374	1721.6257	14671.9	13774.3
908.0786	1723.338	14655.9	13759
908.2198	1725.0496	14571.8	13673.2
908.3609	1726.7605	14532.5	13634
908.502	1728.4706	14488.7	13590.15
908.6431	1730.18	14387.05	13487.7
908.7842	1731.8886	14323.15	13427.35
908.9253	1733.5964	14302.85	13384.35
909.0664	1735.3036	14287.05	13389.25
909.2074	1737.0099	14247	13350.15
909.3484	1738.7156	14248	13351.5
909.4894	1740.4204	14133.55	13234.3
909.6304	1742.1246	14117.05	13217.75
909.7714	1743.8279	14105.15	13210.5
909.9123	1745.5306	14054.95	13160.2
910.0532	1747.2325	13990.8	13094.1
910.1941	1748.9336	13945.35	13050.55
910.335	1750.634	13911.65	13011.9
910.4759	1752.3336	13857.55	12959.75
910.6168	1754.0325	13839.25	12943.85
910.7576	1755.7307	13799.85	12905.75
910.8984	1757.4281	13823.35	12927.05
911.0392	1759.1247	13778.95	12872.65
911.18	1760.8206	13746.2	12842
911.3208	1762.5158	13720.4	12820.05
911.4615	1764.2102	13669.8	12771.15
911.6022	1765.9039	13581.75	12684.6
911.7429	1767.5968	13554.4	12659.9
911.8836	1769.289	13523.45	12627.45
912.0243	1770.9804	13459.6	12560.85
912.1649	1772.6711	13497.25	12597.45
912.3056	1774.361	13438.85	12538.45
912.4462	1776.0502	13427.85	12529.1
912.5868	1777.7386	13370.25	12469.2
912.7274	1779.4263	13316.9	12420.9
912.8679	1781.1132	13337.5	12444.9
913.0084	1782.7994	13239.45	12344.95
913.149	1784.4849	13200.8	12307.05
913.2895	1786.1696	13172.45	12271.7
913.4299	1787.8535	13146.05	12253.25
913.5704	1789.5367	13093.75	12200.45
913.7108	1791.2192	13087.55	12195.6
913.8513	1792.9009	13046	12123.4
913.9917	1794.5818	13017.8	12118.85
914.132	1796.2621	12959.7	12065.3
914.2724	1797.9415	12941.85	12045.1
914.4128	1799.6202	12916.95	12020.95
914.5531	1801.2982	12903.25	12005.7
914.6934	1802.9755	12867.3	11971.75
914.8337	1804.6519	12827.3	11932.25
914.9739	1806.3277	12777.85	11885.2
915.1142	1808.0027	12714.3	11822.4
915.2544	1809.6769	12717.8	11824.1
915.3946	1811.3504	12660.5	11766.5
915.5348	1813.0231	12665.5	11772.25
915.675	1814.6951	12616.1	11723.95
915.8151	1816.3664	12631.1	11734.55
915.9553	1818.0369	12575.2	11680.5
916.0954	1819.7067	12497.4	11603.9
916.2355	1821.3757	12516.3	11619.6
916.3755	1823.044	12469.15	11572.75
916.5156	1824.7115	12440.6	11543.4
916.6556	1826.3783	12394	11498.15
916.7956	1828.0443	12350.3	11455.8
916.9356	1829.7096	12348.7	11451
917.0756	1831.3741	12320.8	11423.95
917.2155	1833.0379	12311.4	11418.95
917.3555	1834.701	12242.6	11349.55
917.4954	1836.3633	12216.45	11326.5
917.6353	1838.0248	12212.45	11319.3
917.7751	1839.6856	12169.2	11276.05
917.915	1841.3457	12151.9	11257.3
918.0548	1843.005	12107.7	11214.9
918.1946	1844.6636	12082.1	11187.6
918.3344	1846.3214	12069.1	11176.5
918.4742	1847.9785	12033.8	11142.05
918.6139	1849.6349	12016.2	11119.5
918.7537	1851.2904	11995.5	11092.1
918.8934	1852.9453	11968.7	11070.4
919.0331	1854.5994	11965.05	11066.8
919.1727	1856.2528	11944	11043.8
919.3124	1857.9054	11904.55	11010.2
919.452	1859.5572	11880.1	10986.3
919.5916	1861.2083	11843.55	10947.8
919.7312	1862.8587	11826.35	10932.5
919.8708	1864.5084	11793.45	10898.05
920.0103	1866.1572	11777.55	10881.3
920.1498	1867.8054	11718	10822.85
920.2893	1869.4528	11683.55	10786.8
920.4288	1871.0994	11653.2	10754.65
920.5683	1872.7453	11652.15	10756.1
920.7077	1874.3905	11633.5	10721.55
920.8471	1876.0349	11560.4	10662.8
920.9865	1877.6786	11550.15	10653.85
921.1259	1879.3215	11556.35	10663
921.2653	1880.9637	11549.8	10653.1
921.4046	1882.6051	11482.55	10589.15
921.5439	1884.2458	11465.9	10571.5
921.6832	1885.8858	11407.15	10512.95
921.8225	1887.525	11372.25	10476.6
921.9617	1889.1634	11323.45	10428.9
922.101	1890.8011	11307.1	10413.15
922.2402	1892.4381	11296.5	10400.45
922.3794	1894.0743	11283.9	10386.95
922.5185	1895.7098	11239.85	10345.75
922.6577	1897.3446	11207.95	10314.05
922.7968	1898.9786	11174.35	10275.65
922.9359	1900.6118	11177.75	10283.85
923.075	1902.2443	11101.95	10207.4
923.214	1903.8761	11097.7	10204.85
923.3531	1905.5071	11000.4	10106.75
923.4921	1907.1374	11010.55	10117.8
923.6311	1908.7669	10987.6	10095.05
923.77	1910.3957	10945.75	10052.75
923.909	1912.0237	10904.75	10012.8
924.0479	1913.651	10885.1	9992.05
924.1868	1915.2776	10845.95	9955.25
924.3257	1916.9034	10793.85	9900.95
924.4646	1918.5285	10759.4	9866.55
924.6034	1920.1528	10712.3	9817.6
924.7422	1921.7764	10694.7	9801.25
924.881	1923.3992	10642.4	9748.9
925.0198	1925.0213	10589.5	9696.9
925.1586	1926.6427	10545.2	9655.5
925.2973	1928.2633	10576.95	9611.7
925.436	1929.8832	10504.55	9608.75
925.5747	1931.5023	10483.2	9589.25
925.7134	1933.1207	10425.4	9531.65
925.852	1934.7383	10395.7	9502.85
925.9906	1936.3552	10371.85	9478.95
926.1292	1937.9714	10325.75	9434.85
926.2678	1939.5868	10312.05	9417.85
926.4064	1941.2015	10254.05	9359.85
926.5449	1942.8154	10217.4	9322.3
926.6834	1944.4286	10173.7	9280.05
926.8219	1946.041	10147.9	9234
926.9604	1947.6528	10105.25	9206.95
927.0988	1949.2637	10079.15	9189.65
927.2372	1950.8739	10056.5	9162.8
927.3756	1952.4834	10018.5	9126.9
927.514	1954.0921	10001.35	9109.5
927.6523	1955.7001	9946.35	9050.5
927.7907	1957.3074	9924.6	9035.5
927.929	1958.9139	9864.6	8974.8
928.0673	1960.5197	9845.65	8953.25
928.2055	1962.1247	9800.75	8912.9
928.3438	1963.729	9766.1	8876.8
928.482	1965.3325	9753.5	8838.55
928.6202	1966.9353	9712.45	8824.55
928.7584	1968.5374	9710.35	8819.9
928.8965	1970.1387	9636.7	8746.95
929.0346	1971.7393	9591.45	8699.75
929.1727	1973.3392	9569.4	8678.8
929.3108	1974.9383	9540.1	8652.9
929.4489	1976.5366	9481.55	8594.9
929.5869	1978.1342	9496.35	8607.2
929.7249	1979.7311	9486.5	8596.8
929.8629	1981.3273	9436.35	8549.2
930.0009	1982.9227	9405.95	8517.15
930.1388	1984.5173	9364	8477.8
930.2767	1986.1112	9346.45	8459.95
930.4146	1987.7044	9313.65	8426.55
930.5525	1989.2968	9283.6	8393.5
930.6904	1990.8885	9278.9	8388.65
930.8282	1992.4795	9233.9	8347.15
930.966	1994.0697	9202.75	8316.85
931.1038	1995.6592	9187.3	8302.8
931.2415	1997.2479	9174.05	8285.35
931.3793	1998.8359	9124.7	8238.05
931.517	2000.4232	9089.9	8204.25
931.6547	2002.0097	9044.4	8163.3
931.7923	2003.5955	9029.3	8145.35
931.93	2005.1805	9022.45	8135.35
932.0676	2006.7648	8987.25	8104.35
932.2052	2008.3484	8979.6	8093
932.3427	2009.9312	8984.6	8100.45
932.4803	2011.5133	8928.65	8045.3
932.6178	2013.0946	8924.1	8041.1
932.7553	2014.6752	8903.05	8020.8
932.8928	2016.2551	8879	7991.85
933.0302	2017.8342	8821.85	7937.9
933.1676	2019.4126	8804	7919.9
933.305	2020.9902	8779.35	7894.6
933.4424	2022.5672	8737.1	7855.75
933.5798	2024.1433	8717	7827.6
933.7171	2025.7188	8691.5	7808.75
933.8544	2027.2935	8675.05	7791.8
933.9917	2028.8674	8627.85	7743.65
934.129	2030.4406	8609.3	7728.8
934.2662	2032.0131	8579.65	7699.05
934.4034	2033.5849	8544.9	7655.55
934.5406	2035.1559	8537.4	7655.7
934.6778	2036.7261	8547.05	7661.6
934.8149	2038.2957	8496.6	7611.6
934.952	2039.8645	8482.7	7596.65
935.0891	2041.4325	8468.5	7579.55
935.2262	2042.9998	8426.75	7541.85
935.3632	2044.5664	8442.65	7556.3
935.5002	2046.1323	8403.85	7523.95
935.6372	2047.6974	8348.1	7466.55
935.7742	2049.2617	8348.55	7467.2
935.9111	2050.8254	8330.1	7440.6
936.048	2052.3883	8318.8	7432.55
936.1849	2053.9504	8281.05	7395.9
936.3218	2055.5118	8254.9	7369.75
936.4586	2057.0725	8215	7325.45
936.5955	2058.6325	8204.4	7321.3
936.7323	2060.1917	8172.7	7290.05
936.869	2061.7502	8181.6	7295.6
937.0058	2063.3079	8129.65	7247.35
937.1425	2064.8649	8120.4	7233.15
937.2792	2066.4212	8093.65	7210.25
937.4159	2067.9767	8084.7	7199.95
937.5525	2069.5315	8040.65	7155.85
937.6891	2071.0856	7998.45	7115.1
937.8257	2072.6389	7963.45	7078.95
937.9623	2074.1915	7931	7050.15
938.0989	2075.7433	7897.3	7012.8
938.2354	2077.2945	7885	7001
938.3719	2078.8448	7861.45	6976.15
938.5084	2080.3945	7845.05	6959.35
938.6448	2081.9434	7840.3	6954.05
938.7812	2083.4916	7820.4	6932.7
938.9176	2085.039	7786.45	6896.9
939.054	2086.5857	7776.75	6886.3
939.1903	2088.1317	7753.1	6863.2
939.3267	2089.677	7725.95	6835.75
939.463	2091.2215	7716.05	6827.3
939.5992	2092.7652	7688.7	6795.3
939.7355	2094.3083	7652.8	6764.15
939.8717	2095.8506	7645.8	6757.5
940.0079	2097.3921	7649.5	6763.65
940.1441	2098.933	7629.05	6741
940.2802	2100.4731	7609.75	6723.25
940.4163	2102.0124	7609.3	6714.9
940.5524	2103.5511	7570.15	6680.15
940.6885	2105.089	7570.7	6683.45
940.8245	2106.6261	7547.6	6660.45
940.9606	2108.1626	7521.05	6633.8
941.0965	2109.6983	7507.05	6593.1
941.2325	2111.2332	7477.4	6588.3
941.3684	2112.7675	7439.55	6552.15
941.5044	2114.301	7423	6532.6
941.6403	2115.8337	7419.5	6527.7
941.7761	2117.3657	7405.2	6519.6
941.912	2118.897	7394.4	6505.4
942.0478	2120.4276	7367.85	6474.1
942.1835	2121.9575	7335.15	6444.6
942.3193	2123.4866	7338.05	6435.25
942.455	2125.0149	7326.95	6434.75
942.5907	2126.5426	7269.5	6384.4
942.7264	2128.0695	7246.15	6358.7
942.8621	2129.5956	7261.55	6380.45
942.9977	2131.1211	7225.8	6336.9
943.1333	2132.6458	7217.4	6330.55
943.2689	2134.1698	7178.6	6290.65
943.4044	2135.693	7174.5	6282.95
943.54	2137.2155	7151.4	6259.8
943.6755	2138.7373	7143.65	6259.35
943.8109	2140.2584	7117.6	6233.55
943.9464	2141.7787	7100.45	6210.95
944.0818	2143.2983	7078.2	6194.85
944.2172	2144.8171	7037.05	6156.15
944.3526	2146.3353	7026.4	6139.9
944.4879	2147.8527	7006.9	6120.75
944.6232	2149.3693	7009.6	6123.05
944.7585	2150.8853	6973.7	6085.05
944.8938	2152.4005	6940.2	6052.9
945.029	2153.9149	6942.35	6051.1
945.1642	2155.4287	7000.2	6002.4
945.2994	2156.9417	6928.55	6036.2
945.4346	2158.454	6906.1	6016.9
945.5697	2159.9655	6855.9	5972
945.7048	2161.4764	6842.55	5956.75
945.8399	2162.9865	6824.95	5938.15
945.9749	2164.4958	6815.3	5929.15
946.1099	2166.0045	6792.65	5904.3
946.2449	2167.5124	6775	5888.6
946.3799	2169.0195	6766.75	5878.95
946.5148	2170.526	6749.6	5860.4
946.6498	2172.0317	6714.95	5826.65
946.7846	2173.5367	6707.7	5818.3
946.9195	2175.0409	6673.7	5788.9
947.0543	2176.5445	6693.8	5805.85
947.1891	2178.0473	6673.05	5783.35
947.3239	2179.5494	6639.2	5746.95
947.4587	2181.0507	6606.2	5717.5
947.5934	2182.5513	6593.7	5707
947.7281	2184.0512	6563.95	5673.65
947.8628	2185.5504	6534.7	5648.65
947.9974	2187.0488	6521.15	5635.9
948.132	2188.5465	6502.4	5619
948.2666	2190.0435	6499.7	5613.75
948.4012	2191.5397	6452.05	5566.45
948.5357	2193.0353	6429.05	5542.15
948.6702	2194.5301	6420.55	5531
948.8047	2196.0241	6411	5517.65
948.9392	2197.5175	6405.9	5514.3
949.0736	2199.0101	6364.4	5470
949.208	2200.502	6327.75	5438.95
949.3424	2201.9931	6301.9	5415.25
949.4767	2203.4835	6279.65	5391.1
949.611	2204.9733	6276	5383.7
949.7453	2206.4622	6259.85	5374.95
949.8796	2207.9505	6234	5346.95
950.0138	2209.438	6196.6	5315.4
950.148	2210.9248	6193.75	5309
950.2822	2212.4109	6193.45	5307.65
950.4164	2213.8962	6181.7	5288.9
950.5505	2215.3809	6156.8	5262.6
950.6846	2216.8648	6123.55	5233
950.8186	2218.3479	6137	5237.2
950.9527	2219.8304	6115.55	5220.8
951.0867	2221.3121	6062.25	5167.95
951.2207	2222.7931	6073.85	5182.15
951.3546	2224.2733	6031.2	5140.15
951.4886	2225.7529	6022.3	5131.05
951.6225	2227.2317	6001.65	5110.55
951.7563	2228.7098	5992.35	5106.55
951.8902	2230.1872	5953.55	5066.7
952.024	2231.6638	5951.65	5065.9
952.1578	2233.1397	5931.75	5042.75
952.2916	2234.6149	5920.7	5035.5
952.4253	2236.0894	5897.1	5011.35
952.559	2237.5632	5882.35	4995.25
952.6927	2239.0362	5865.25	4977.9
952.8263	2240.5085	5848.95	4962
952.9599	2241.9801	5817	4928.85
953.0935	2243.4509	5811	4922.2
953.2271	2244.921	5797.6	4908.25
953.3606	2246.3904	5785.2	4894.7
953.4941	2247.8591	5753.95	4864.5
953.6276	2249.3271	5729.3	4840.45
953.7611	2250.7943	5712.9	4822.1
953.8945	2252.2608	5694.8	4804.45
954.0279	2253.7266	5691.1	4800.8
954.1612	2255.1917	5667.6	4780.65
954.2946	2256.656	5667.6	4780.85
954.4279	2258.1197	5615.55	4730.25
954.5612	2259.5826	5606.15	4718.55
954.6944	2261.0447	5615.85	4724.85
954.8276	2262.5062	5588.8	4694.9
954.9608	2263.9669	5584.4	4693.25
955.094	2265.4269	5564.5	4676.15
955.2271	2266.8862	5543.5	4655.7
955.3602	2268.3448	5539.3	4653.6
955.4933	2269.8026	5519.3	4632.3
955.6264	2271.2598	5513.9	4628.55
955.7594	2272.7162	5511.05	4623.6
955.8924	2274.1719	5480.3	4592.35
956.0253	2275.6268	5482.35	4593
956.1583	2277.0811	5487.6	4596.6
956.2912	2278.5346	5444.3	4559.25
956.4241	2279.9874	5449.9	4563.95
956.5569	2281.4395	5423.4	4537.1
956.6897	2282.8908	5406.95	4516.6
956.8225	2284.3414	5397.8	4508.05
956.9553	2285.7914	5367.4	4478.8
957.088	2287.2406	5344	4452.65
957.2207	2288.689	5349.5	4457.4
957.3534	2290.1368	5349.25	4455.95
957.486	2291.5838	5333.3	4436.95
957.6186	2293.0302	5301.25	4407.9
957.7512	2294.4758	5287.95	4396.2
957.8838	2295.9206	5268.95	4376.65
958.0163	2297.3648	5252.5	4364.9
958.1488	2298.8082	5234.3	4346.4
958.2813	2300.251	5225.1	4335.8
958.4137	2301.693	5215.9	4323.4
958.5461	2303.1343	5210.25	4319.8
958.6785	2304.5748	5183.3	4293.25
958.8108	2306.0147	5170.25	4283.5
958.9432	2307.4538	5154.8	4266.9
959.0754	2308.8922	5137.75	4250.5
959.2077	2310.3299	5120.7	4233.75
959.3399	2311.7669	5098.55	4212.45
959.4721	2313.2031	5109.6	4224.2
959.6043	2314.6387	5092.7	4204.75
959.7365	2316.0735	5071.1	4182.75
959.8686	2317.5076	5067.05	4177.1
960.0006	2318.941	5042.1	4153.65
960.1327	2320.3737	5038.9	4147.55
960.2647	2321.8056	5026.25	4133.35
960.3967	2323.2369	4987.85	4099.3
960.5287	2324.6674	4985.55	4093.65
960.6606	2326.0972	4976.05	4087.35
960.7925	2327.5263	4969.7	4079.15
960.9244	2328.9547	4936.75	4046.4
961.0562	2330.3823	4950.8	4061.8
961.1881	2331.8092	4932.75	4038.4
961.3198	2333.2355	4912.25	4018.35
961.4516	2334.661	4907.4	4016.2
961.5833	2336.0858	4891	3997.3
961.715	2337.5098	4867.35	3978.35
961.8467	2338.9332	4861.65	3970.9
961.9783	2340.3558	4837.5	3946.4
962.1099	2341.7778	4823.55	3937
962.2415	2343.199	4821.4	3932.9
962.373	2344.6195	4808.15	3919.95
962.5045	2346.0393	4789.95	3902.5
962.636	2347.4583	4791.9	3901.2
962.7675	2348.8767	4769.4	3877.95
962.8989	2350.2943	4780.3	3888.75
963.0303	2351.7113	4760.1	3867.65
963.1617	2353.1275	4725.85	3832.2
963.293	2354.543	4751.2	3833.9
963.4243	2355.9578	4727.6	3837.45
963.5556	2357.3718	4683.7	3794.95
963.6868	2358.7852	4659.8	3770.35
963.818	2360.1978	4647.4	3759.2
963.9492	2361.6098	4656.9	3769.9
964.0803	2363.021	4645.65	3751.8
964.2114	2364.4315	4626	3735.3
964.3425	2365.8413	4624.8	3729.5
964.4736	2367.2504	4587.95	3702.65
964.6046	2368.6587	4579.2	3691.3
964.7356	2370.0664	4570.05	3681.45
964.8666	2371.4733	4553.4	3666.05
964.9975	2372.8795	4542.55	3652.8
965.1284	2374.285	4528.85	3639.7
965.2593	2375.6899	4504.8	3616.05
965.3901	2377.0939	4481.4	3595.1
965.5209	2378.4973	4482.45	3596.05
965.6517	2379.9	4460.45	3574.75
965.7825	2381.3019	4451.7	3563.55
965.9132	2382.7032	4414.15	3529.5
966.0439	2384.1037	4420.35	3534.6
966.1745	2385.5035	4401.4	3513.55
966.3051	2386.9027	4396	3510.3
966.4357	2388.3011	4367.85	3478.6
966.5663	2389.6987	4367.1	3480.65
966.6968	2391.0957	4357.05	3472.35
966.8273	2392.492	4340.75	3453.9
966.9578	2393.8876	4319.95	3433.8
967.0882	2395.2824	4290.7	3404
967.2186	2396.6765	4294.45	3407.05
967.349	2398.07	4291.55	3405.25
967.4793	2399.4627	4295.2	3404.2
967.6097	2400.8547	4255.5	3368.35
967.7399	2402.246	4243.35	3349.8
967.8702	2403.6366	4214.25	3328.2
968.0004	2405.0265	4210.45	3325.55
968.1306	2406.4156	4209.55	3317.8
968.2607	2407.8041	4200.6	3311.5
968.3909	2409.1918	4162.85	3273.45
968.521	2410.5789	4158.7	3272.5
968.651	2411.9652	4153.8	3264.15
968.781	2413.3508	4133.35	3244.3
968.911	2414.7358	4122.45	3234.3
969.041	2416.12	4117.85	3230.15
969.1709	2417.5035	4101.15	3213.7
969.3008	2418.8863	4090.4	3203.55
969.4307	2420.2684	4077.85	3188.05
969.5606	2421.6497	4056.25	3168.3
969.6904	2423.0304	4045.55	3160.6
969.8201	2424.4104	4041.75	3156.25
969.9499	2425.7896	4019.2	3130.9
970.0796	2427.1682	4011.5	3125
970.2093	2428.546	4015.4	3127.05
970.3389	2429.9232	3985.85	3095.95
970.4685	2431.2996	4002.8	3113.3
970.5981	2432.6753	3987.05	3098
970.7277	2434.0503	3969.55	3081.2
970.8572	2435.4246	3960.35	3071.25
970.9867	2436.7982	3947.8	3058.5
971.1161	2438.1711	3920.8	3031.3
971.2456	2439.5433	3921.5	3033.75
971.375	2440.9148	3915.15	3024.1
971.5043	2442.2856	3892.55	3005.3
971.6336	2443.6557	3892.65	3005.45
971.7629	2445.025	3870.55	2983.5
971.8922	2446.3937	3867.75	2977.7
972.0214	2447.7617	3865.75	2975.95
972.1506	2449.1289	3858.65	2970.6
972.2798	2450.4955	3849.3	2957.4
972.4089	2451.8613	3823.05	2935.95
972.538	2453.2265	3826.5	2937.7
972.6671	2454.5909	3811.55	2925.6
972.7961	2455.9546	3809.5	2923.2
972.9251	2457.3177	3791.4	2904.35
973.0541	2458.68	3792.95	2904.25
973.1831	2460.0416	3774.05	2885.05
973.312	2461.4025	3777.85	2891.05
973.4408	2462.7627	3768.3	2869
973.5697	2464.1222	3761.25	2875.6
973.6985	2465.4811	3746.7	2859.75
973.8273	2466.8392	3730.7	2842.05
973.956	2468.1966	3731.6	2840.5
974.0847	2469.5533	3720.1	2828.25
974.2134	2470.9093	3710.7	2821.1
974.3421	2472.2645	3705	2815.45
974.4707	2473.6191	3699.45	2814.3
974.5993	2474.973	3686	2795.95
974.7278	2476.3262	3689.05	2800
974.8563	2477.6787	3665.55	2778.4
974.9848	2479.0305	3652.85	2765.7
975.1132	2480.3816	3641.75	2752.55
975.2417	2481.7319	3627.5	2738.45
975.37	2483.0816	3607.9	2719.4
975.4984	2484.4306	3598.3	2710.4
975.6267	2485.7789	3592.45	2706.2
975.755	2487.1264	3578.85	2690.9
975.8833	2488.4733	3564.5	2678.3
976.0115	2489.8195	3570.55	2677.65
976.1397	2491.165	3548.55	2660.7
976.2678	2492.5097	3539.2	2649.7
976.3959	2493.8538	3526.9	2642.05
976.524	2495.1972	3514.6	2625.35
976.6521	2496.5398	3502.05	2614.35
976.7801	2497.8818	3499.15	2608.6
976.9081	2499.2231	3485.1	2595.2
977.036	2500.5637	3474.95	2583.15
977.164	2501.9035	3461.9	2572.1
977.2918	2503.2427	3471.3	2580.55
977.4197	2504.5812	3438.35	2549.8
977.5475	2505.919	3439.85	2548.75
977.6753	2507.256	3456.45	2567.85
977.8031	2508.5924	3417.8	2530.4
977.9308	2509.9281	3409.05	2516.3
978.0585	2511.2631	3409.95	2521.15
978.1861	2512.5974	3397.1	2511.45
978.3137	2513.9309	3395.5	2505.6
978.4413	2515.2638	3397.5	2484.45
978.5689	2516.596	3382.4	2495.25
978.6964	2517.9275	3365	2476.35
978.8239	2519.2583	3361.95	2474.7
978.9513	2520.5884	3348.6	2459.1
979.0788	2521.9178	3338.8	2448.1
979.2062	2523.2465	3322.6	2436.75
979.3335	2524.5745	3333.7	2447.8
979.4608	2525.9018	3317.35	2429.8
979.5881	2527.2284	3296.6	2408.7
979.7154	2528.5543	3295.05	2408.1
979.8426	2529.8796	3293.1	2406.85
979.9698	2531.2041	3281.25	2395.7
980.0969	2532.5279	3289.15	2404.7
980.224	2533.851	3271.55	2383
980.3511	2535.1735	3256.05	2368.1
980.4781	2536.4952	3253.75	2366.25
980.6052	2537.8163	3249.25	2360.3
980.7321	2539.1366	3247.35	2358.6
980.8591	2540.4562	3231.55	2341.5
980.986	2541.7752	3232.15	2343.1
981.1129	2543.0935	3226.25	2335.7
981.2397	2544.411	3209.85	2319.5
981.3665	2545.7279	3201.25	2312.5
981.4933	2547.0441	3204.4	2316.3
981.62	2548.3596	3217.4	2326.95
981.7467	2549.6744	3199.5	2312
981.8734	2550.9885	3193.5	2297.15
982.0001	2552.3019	3176.2	2287.65
982.1267	2553.6146	3173.45	2284.45
982.2532	2554.9266	3164.7	2273.8
982.3798	2556.2379	3148.6	2260
982.5063	2557.5485	3154.8	2268.45
982.6327	2558.8585	3143.35	2248.9
982.7592	2560.1677	3145.75	2251.15
982.8856	2561.4762	3127.2	2237.95
983.0119	2562.7841	3122.3	2232.25
983.1383	2564.0913	3121.9	2235.5
983.2646	2565.3977	3111.7	2222.55
983.3908	2566.7035	3105.9	2219.25
983.517	2568.0086	3113.9	2220.5
983.6432	2569.313	3108.2	2219.5
983.7694	2570.6167	3090.8	2195.95
983.8955	2571.9197	3079.3	2191
984.0216	2573.222	3087.35	2195.95
984.1476	2574.5236	3085.9	2195.9
984.2737	2575.8246	3074.2	2183.45
984.3996	2577.1248	3060.95	2168.9
984.5256	2578.4244	3072	2182.3
984.6515	2579.7232	3050.55	2162.9
984.7774	2581.0214	3075	2157.25
984.9032	2582.3189	3033.5	2145.45
985.029	2583.6157	3046.2	2153.8
985.1548	2584.9118	3040.35	2152.3
985.2806	2586.2072	3032.65	2144.65
985.4063	2587.5019	3034.5	2145.6
985.5319	2588.7959	3035.35	2146.2
985.6576	2590.0893	3016.3	2125.75
985.7832	2591.3819	3021.65	2131.75
985.9087	2592.6739	3000.6	2112.65
986.0343	2593.9652	3011.8	2119.8
986.1597	2595.2557	3010.6	2121.85
986.2852	2596.5456	2998.7	2108.85
986.4106	2597.8348	2979.6	2090.8
986.536	2599.1234	2976.05	2086.25
986.6614	2600.4112	2982.25	2093.5
986.7867	2601.6983	2967.45	2074.9
986.912	2602.9848	2965.8	2077.3
987.0372	2604.2705	2970.95	2074.55
987.1624	2605.5556	2950.45	2061.75
987.2876	2606.84	2944.75	2057.9
987.4128	2608.1237	2931.4	2042.5
987.5379	2609.4067	2909.6	2020.75
987.6629	2610.689	2924.25	2026.75
987.788	2611.9707	2915.85	2023.15
987.913	2613.2516	2906.15	2013.9
988.0379	2614.5319	2892.95	2004.75
988.1629	2615.8115	2882.05	1993.1
988.2878	2617.0903	2874.05	1984.7
988.4126	2618.3685	2867.9	1979.25
988.5375	2619.6461	2857.75	1967.8
988.6622	2620.9229	2871.3	1981.5
988.787	2622.199	2850.3	1960.6
988.9117	2623.4745	2849.6	1960.25
989.0364	2624.7493	2846.7	1958.15
989.161	2626.0234	2834.95	1945.3
989.2857	2627.2968	2823.8	1932.4
989.4102	2628.5695	2821	1933.3
989.5348	2629.8415	2818.45	1930.95
989.6593	2631.1128	2804.2	1915.8
989.7837	2632.3835	2807.45	1919.7
989.9082	2633.6535	2792.85	1907.1
990.0326	2634.9228	2780.95	1894.7
990.1569	2636.1914	2777.55	1890.85
990.2812	2637.4593	2786.65	1897.3
990.4055	2638.7265	2769.4	1877.55
990.5298	2639.9931	2762.5	1874.45
990.654	2641.259	2748.7	1858.6
990.7782	2642.5242	2742.85	1856
990.9023	2643.7887	2732.7	1843.05
991.0264	2645.0525	2729.75	1841.55
991.1505	2646.3156	2736.05	1844.65
991.2745	2647.5781	2722.7	1834.7
991.3985	2648.8398	2717.15	1829.35
991.5225	2650.1009	2728.2	1816.1
991.6464	2651.3613	2709.9	1821
991.7703	2652.6211	2689.85	1801.2
991.8942	2653.8801	2693.1	1806.45
992.018	2655.1385	2690.15	1799.1
992.1418	2656.3961	2673.9	1784.75
992.2655	2657.6531	2676.2	1788.3
992.3892	2658.9094	2676.05	1787
992.5129	2660.1651	2665.75	1778.05
992.6366	2661.42	2673.2	1785.65
992.7602	2662.6743	2665.9	1776.8
992.8837	2663.9279	2661.85	1775.45
993.0073	2665.1808	2662.85	1772.2
993.1307	2666.433	2654.75	1763.75
993.2542	2667.6846	2644.65	1756.9
993.3776	2668.9354	2647.6	1756.55
993.501	2670.1856	2653.55	1764.05
993.6244	2671.4351	2634.3	1747.15
993.7477	2672.6839	2645.6	1755.75
993.8709	2673.9321	2641.85	1754.6
993.9942	2675.1795	2639.75	1752.5
994.1174	2676.4263	2633.3	1745.45
994.2405	2677.6724	2632	1743.7
994.3637	2678.9179	2628.95	1742.05
994.4868	2680.1626	2639.5	1755.1
994.6098	2681.4067	2618.35	1730.75
994.7328	2682.6501	2616.2	1728.15
994.8558	2683.8928	2612.05	1724.8
994.9788	2685.1348	2599.2	1714.15
995.1017	2686.3761	2599.4	1712.45
995.2245	2687.6168	2597.55	1711.65
995.3474	2688.8568	2570.5	1683.65
995.4702	2690.0961	2578.7	1691.8
995.5929	2691.3348	2574.4	1684
995.7156	2692.5727	2569.05	1682.45
995.8383	2693.81	2550	1663
995.961	2695.0466	2542.5	1657.7
996.0836	2696.2826	2543.1	1655.1
996.2062	2697.5178	2536.75	1648
996.3287	2698.7524	2530.85	1645.5
996.4512	2699.9863	2536.9	1645.75
996.5737	2701.2195	2524.25	1639.55
996.6961	2702.452	2515.8	1625.4
996.8185	2703.6839	2534.9	1646.8
996.9408	2704.9151	2525.65	1639.85
997.0631	2706.1456	2524.75	1637.7
997.1854	2707.3755	2525.3	1636.9
997.3077	2708.6046	2529.6	1641
997.4299	2709.8331	2528.35	1641.5
997.552	2711.0609	2528	1641.7
997.6742	2712.2881	2537.95	1653.1
997.7963	2713.5145	2549.85	1661
997.9183	2714.7403	2541.6	1654.7
998.0403	2715.9654	2538.9	1651.25
998.1623	2717.1899	2565.65	1663.65
998.2842	2718.4136	2563.8	1676.1
998.4062	2719.6367	2573.65	1687.55
998.528	2720.8591	2568.35	1675.2
998.6498	2722.0809	2574.25	1687.25
998.7716	2723.3019	2590.1	1700.2
998.8934	2724.5223	2580.6	1690.45
999.0151	2725.7421	2596.6	1707.65
999.1368	2726.9611	2595	1706.05
999.2584	2728.1795	2579.7	1686.8
999.38	2729.3972	2567.45	1682.45
999.5016	2730.6142	2561.5	1662.75
999.6231	2731.8306	2530.6	1644.45
999.7446	2733.0462	2507.8	1620.85
999.8661	2734.2612	2494.6	1603.5
999.9875	2735.4756	2480.15	1592.45
1000.1089	2736.6892	2460.85	1572.65
1000.2302	2737.9022	2431.55	1545.45
1000.3515	2739.1145	2413.5	1525.25
1000.4728	2740.3262	2413.1	1519.55
1000.594	2741.5372	2388.3	1500.3
1000.7152	2742.7475	2371.5	1483.05
1000.8363	2743.9571	2364.45	1476.55
1000.9575	2745.1661	2349.45	1459.2
1001.0785	2746.3744	2329.85	1442.3
1001.1996	2747.582	2322.5	1436.45
1001.3206	2748.7889	2318.15	1428.75
1001.4415	2749.9952	2286.6	1399.35
1001.5625	2751.2008	2295.45	1408.7
1001.6833	2752.4057	2294	1402.75
1001.8042	2753.61	2282.55	1393.9
1001.925	2754.8136	2269.35	1380.05
1002.0458	2756.0165	2257.35	1372.05
1002.1665	2757.2188	2264.8	1379.45
1002.2872	2758.4204	2252.85	1367.55
1002.4078	2759.6213	2259.8	1370.1
1002.5285	2760.8215	2253.15	1364.1
1002.649	2762.0211	2245.15	1355.7
1002.7696	2763.22	2245.2	1357.15
1002.8901	2764.4182	2243.85	1356.8
1003.0106	2765.6158	2232.8	1345.95
1003.131	2766.8127	2224.45	1338.9
1003.2514	2768.009	2206.2	1320.5
1003.3717	2769.2045	2207.1	1319.5
1003.492	2770.3994	2205.05	1317
1003.6123	2771.5936	2197.55	1310.25
1003.7325	2772.7872	2191	1305.7
1003.8527	2773.9801	2184.7	1297.35
1003.9729	2775.1723	2210.95	1307.75
1004.093	2776.3639	2178.05	1294.8
1004.2131	2777.5548	2190.95	1305.8
1004.3331	2778.745	2182.3	1294.9
1004.4531	2779.9346	2171.2	1286.75
1004.5731	2781.1235	2164.8	1277.05
1004.693	2782.3117	2172.85	1289
1004.8129	2783.4992	2173.15	1289.55
1004.9328	2784.6861	2181.55	1294.75
1005.0526	2785.8723	2180.75	1294.2
1005.1723	2787.0579	2173.3	1284.9
1005.2921	2788.2428	2184.55	1299.5
1005.4118	2789.427	2187.75	1300.75
1005.5314	2790.6106	2191.65	1307.8
1005.651	2791.7935	2207.6	1324.1
1005.7706	2792.9757	2206.25	1321.7
1005.8902	2794.1573	2215.05	1327.65
1006.0097	2795.3382	2234.25	1348.4
1006.1291	2796.5184	2243	1359.85
1006.2485	2797.698	2262.85	1377
1006.3679	2798.8769	2275.15	1389.5
1006.4873	2800.0551	2275	1387.75
1006.6066	2801.2327	2297.4	1410.15
1006.7258	2802.4096	2313.9	1429.65
1006.8451	2803.5859	2322.8	1437.8
1006.9642	2804.7615	2347.45	1463.65
1007.0834	2805.9364	2375.55	1490.9
1007.2025	2807.1106	2390.2	1504.65
1007.3216	2808.2842	2429.65	1541.95
1007.4406	2809.4572	2453.2	1566.85
1007.5596	2810.6294	2480.25	1593.75
1007.6785	2811.801	2529.85	1644.8
1007.7975	2812.972	2579.95	1693.95
1007.9163	2814.1423	2602.6	1717.35
1008.0352	2815.3119	2654.25	1769.25
1008.154	2816.4808	2697.1	1813.3
1008.2727	2817.6491	2744.35	1858.05
1008.3914	2818.8167	2787.45	1904.15
1008.5101	2819.9837	2840	1948.85
1008.6288	2821.15	2880.4	1995.2
1008.7474	2822.3157	2919	2033.5
1008.8659	2823.4807	2963.1	2076.7
1008.9844	2824.645	3000.4	2115.75
1009.1029	2825.8086	3055.6	2173.6
1009.2214	2826.9716	3085.85	2201.85
1009.3398	2828.134	3122.2	2238.4
1009.4581	2829.2957	3154.75	2269
1009.5764	2830.4567	3179.15	2294.85
1009.6947	2831.617	3192.65	2307.85
1009.813	2832.7767	3198.65	2315.15
1009.9312	2833.9358	3203.3	2320.25
1010.0493	2835.0941	3199.8	2314.2
1010.1675	2836.2519	3172.15	2286.95
1010.2855	2837.4089	3179.6	2293.55
1010.4036	2838.5653	3172.35	2286.95
1010.5216	2839.7211	3159.25	2276.8
1010.6396	2840.8761	3169.65	2282.8
1010.7575	2842.0306	3186.1	2302.4
1010.8754	2843.1843	3232.45	2350.15
1010.9932	2844.3374	3275.35	2391.7
1011.111	2845.4899	3342.2	2457.3
1011.2288	2846.6417	3410.1	2526.15
1011.3465	2847.7928	3487.5	2604.5
1011.4642	2848.9433	3570.35	2686.55
1011.5818	2850.0931	3640.75	2754.35
1011.6995	2851.2422	3719.6	2835.75
1011.817	2852.3907	3782.4	2896.65
1011.9345	2853.5385	3862.95	2976.95
1012.052	2854.6857	3907.15	3015.1
1012.1695	2855.8323	3956.5	3073.55
1012.2869	2856.9781	4014.75	3128.8
1012.4042	2858.1233	4045.6	3161.2
1012.5216	2859.2679	4087.5	3202.25
1012.6389	2860.4118	4138.45	3254.15
1012.7561	2861.555	4174.3	3284.1
1012.8733	2862.6976	4213.1	3327.25
1012.9905	2863.8395	4238.8	3355.25
1013.1076	2864.9808	4251	3367.35
1013.2247	2866.1214	4261.9	3380.2
1013.3417	2867.2614	4281.6	3397.9
1013.4587	2868.4007	4306.1	3421.9
1013.5757	2869.5393	4307.25	3421.75
1013.6926	2870.6773	4321.75	3435.05
1013.8095	2871.8146	4322.3	3438.5
1013.9263	2872.9513	4316.85	3430.25
1014.0431	2874.0874	4304.25	3421.9
1014.1599	2875.2227	4289.05	3403.85
1014.2766	2876.3574	4285.85	3402.7
1014.3933	2877.4915	4244.15	3360.9
1014.51	2878.6249	4221.95	3336.85
1014.6266	2879.7577	4215.3	3329.05
1014.7431	2880.8898	4180.15	3286
1014.8596	2882.0212	4178	3295.2
1014.9761	2883.152	4161.15	3278.7
1015.0925	2884.2821	4135.8	3253.25
1015.2089	2885.4116	4120.15	3236.8
1015.3253	2886.5405	4120.05	3237.15
1015.4416	2887.6686	4146	3261.6
1015.5579	2888.7962	4143.2	3260.45
1015.6741	2889.923	4126.9	3242.3
1015.7903	2891.0493	4133.4	3252.7
1015.9065	2892.1748	4146.1	3262.65
1016.0226	2893.2997	4171.9	3286.2
1016.1387	2894.424	4170.2	3289.8
1016.2547	2895.5476	4182.45	3301
1016.3707	2896.6706	4217.75	3335.4
1016.4866	2897.7929	4233.9	3352
1016.6025	2898.9145	4262.6	3377.5
1016.7184	2900.0355	4280.8	3396.65
1016.8342	2901.1559	4319.8	3434.25
1016.95	2902.2756	4362.85	3478
1017.0658	2903.3946	4378.1	3496.4
1017.1815	2904.513	4413.45	3527.45
1017.2971	2905.6308	4420.2	3536.5
1017.4127	2906.7479	4452.05	3568
1017.5283	2907.8643	4475.25	3593.65
1017.6439	2908.9801	4505.1	3621.45
1017.7594	2910.0953	4492.1	3608.85
1017.8748	2911.2098	4486.25	3601.3
1017.9902	2912.3236	4501.85	3609.55
1018.1056	2913.4368	4478.55	3591.4
1018.2209	2914.5494	4433	3550.8
1018.3362	2915.6613	4402.35	3514.15
1018.4515	2916.7725	4370.75	3486
1018.5667	2917.8831	4353.3	3471.55
1018.6819	2918.9931	4325.75	3440.2
1018.797	2920.1024	4301.3	3418.2
1018.9121	2921.211	4283.8	3401.35
1019.0271	2922.319	4243.45	3359.2
1019.1421	2923.4264	4234.9	3353.9
1019.2571	2924.5331	4210.7	3329.6
1019.372	2925.6391	4195.4	3313.8
1019.4869	2926.7445	4192.2	3309
1019.6017	2927.8493	4184.45	3299.3
1019.7165	2928.9534	4173.7	3291.8
1019.8313	2930.0569	4153.25	3265.9
1019.946	2931.1597	4134.25	3247.4
1020.0606	2932.2619	4132	3249.4
1020.1753	2933.3634	4129.9	3247.05
1020.2899	2934.4643	4118.6	3229.3
1020.4044	2935.5645	4092.2	3203.7
1020.5189	2936.6641	4059.95	3172.6
1020.6334	2937.763	4004.9	3122.85
1020.7478	2938.8613	3953.85	3072.15
1020.8622	2939.959	3892.4	3004.2
1020.9765	2941.056	3817.65	2935.8
1021.0908	2942.1523	3731.65	2847.2
1021.2051	2943.248	3640.8	2757.2
1021.3193	2944.3431	3526.45	2642.75
1021.4334	2945.4375	3441.3	2557.55
1021.5476	2946.5313	3326.85	2446.45
1021.6617	2947.6244	3213.75	2329.85
1021.7757	2948.7169	3127.8	2245.4
1021.8897	2949.8087	3038.15	2155.55
1022.0037	2950.8999	2939.35	2054.75
1022.1176	2951.9904	2842.85	1961.35
1022.2315	2953.0803	2760.9	1878.55
1022.3453	2954.1696	2724.65	1840.35
1022.4591	2955.2582	2652.7	1772.25
1022.5728	2956.3462	2611.45	1731.4
1022.6865	2957.4335	2559.85	1676.5
1022.8002	2958.5202	2524.25	1639.15
1022.9138	2959.6062	2501.05	1619.4
1023.0274	2960.6916	2470.1	1589.15
1023.141	2961.7764	2452.85	1570.15
1023.2545	2962.8605	2434.95	1552.7
1023.3679	2963.9439	2429.1	1548.25
1023.4813	2965.0267	2402.3	1517.45
1023.5947	2966.1089	2421.4	1515.35
1023.708	2967.1905	2385.8	1503.15
1023.8213	2968.2714	2389.45	1508.65
1023.9346	2969.3516	2385.2	1502.2
1024.0478	2970.4312	2390.05	1500.55
1024.1609	2971.5102	2379.45	1499.05
1024.274	2972.5885	2381.35	1500.55
1024.3871	2973.6662	2390.5	1502.4
1024.5002	2974.7432	2373.15	1490.4
1024.6132	2975.8196	2358.85	1475.45
1024.7261	2976.8954	2346.9	1464
1024.839	2977.9705	2337.8	1454.45
1024.9519	2979.045	2332.75	1452.2
1025.0647	2980.1188	2313.25	1431.7
1025.1775	2981.192	2278.75	1396.2
1025.2902	2982.2645	2263.75	1382.15
1025.4029	2983.3364	2244.2	1361.85
1025.5156	2984.4077	2207.3	1325.45
1025.6282	2985.4783	2179.95	1293
1025.7407	2986.5483	2133.55	1252.1
1025.8532	2987.6177	2108.6	1227.7
1025.9657	2988.6864	2074.95	1193.25
1026.0782	2989.7545	2037.65	1153.85
1026.1906	2990.8219	1990.8	1111
1026.3029	2991.8887	1974.5	1090.85
1026.4152	2992.9548	1929.75	1047.3
1026.5275	2994.0204	1904.85	1024.4
1026.6397	2995.0852	1876.85	996.65
1026.7519	2996.1495	1850.65	966.15
1026.864	2997.2131	1825.75	942.25
1026.9761	2998.276	1798.4	918.45
1027.0882	2999.3383	1780	897.8
1027.2002	3000.4	1760.45	876.95
1027.3122	3001.4611	1737	854.35
1027.4241	3002.5215	1737	855.8
1027.536	3003.5812	1700.95	819.85
1027.6478	3004.6404	1695	813.05
1027.7596	3005.6989	1691.8	806.8
1027.8714	3006.7567	1662.4	780.85
1027.9831	3007.8139	1682.95	783.45
1028.0947	3008.8705	1664.55	781.5
1028.2064	3009.9264	1673	772.95
1028.3179	3010.9818	1651.6	770.7
1028.4295	3012.0364	1642.3	758.6
1028.541	3013.0905	1638.5	755.6
1028.6524	3014.1439	1640	758.6
1028.7638	3015.1966	1638.95	757.35
1028.8752	3016.2487	1630.25	748.1
1028.9865	3017.3002	1647.9	759.55
1029.0978	3018.3511	1637.05	755.35
1029.209	3019.4013	1622.8	740.95
1029.3202	3020.4509	1629.95	750
1029.4314	3021.4998	1630.05	750.05
1029.5425	3022.5481	1629.45	748.35
1029.6535	3023.5958	1621.65	739.85
1029.7645	3024.6428	1629.35	745.45
1029.8755	3025.6892	1630.75	750.25
1029.9864	3026.735	1626.75	745.95
1030.0973	3027.7802	1630.2	749.95
1030.2082	3028.8247	1631.1	748.75
1030.319	3029.8685	1631.55	750.55
1030.4297	3030.9118	1633.2	751.05
1030.5404	3031.9544	1636.25	757.5
1030.6511	3032.9963	1644.1	760.6
1030.7617	3034.0376	1639.2	757.8
1030.8723	3035.0783	1650.5	766.65
1030.9829	3036.1184	1650.5	769.4
1031.0934	3037.1578	1659.3	780.55
1031.2038	3038.1966	1652.05	770.65
1031.3142	3039.2348	1642.35	760.6
1031.4246	3040.2723	1647.1	756.15
1031.5349	3041.3092	1647.05	768.4
1031.6452	3042.3455	1648.85	767.65
1031.7554	3043.3811	1640.15	759.7
1031.8656	3044.4161	1636.05	753.95
1031.9758	3045.4505	1622.1	742.25
1032.0859	3046.4842	1625.55	745.6
1032.1959	3047.5173	1612.65	731.6
1032.3059	3048.5498	1610.2	727.7
1032.4159	3049.5816	1603.05	720.7
1032.5258	3050.6128	1593.6	710.1
1032.6357	3051.6434	1587.35	706.2
1032.7455	3052.6734	1574.5	693.75
1032.8553	3053.7027	1583.6	702.3
1032.9651	3054.7314	1565.25	684.85
1033.0748	3055.7594	1555.9	674.85
1033.1845	3056.7868	1555.95	674.35
1033.2941	3057.8136	1545.2	663.75
1033.4037	3058.8398	1544.6	665.8
1033.5132	3059.8653	1527.2	644.7
1033.6227	3060.8902	1519.3	639.9
1033.7321	3061.9145	1522	640.25
1033.8415	3062.9381	1514.3	633.45
1033.9509	3063.9612	1521.2	624.8
1034.0602	3064.9835	1505	624.85
1034.1694	3066.0053	1497.25	613.15
1034.2787	3067.0264	1484.2	602.95
1034.3878	3068.0469	1473.4	591.15
1034.497	3069.0668	1467.2	585.4
1034.6061	3070.086	1455.35	575.85
1034.7151	3071.1046	1449.45	564.95
1034.8241	3072.1226	1442.9	560.55
1034.9331	3073.1399	1427.3	547
1035.042	3074.1567	1416.9	534.35
1035.1508	3075.1727	1410.9	526.15
1035.2597	3076.1882	1398.5	517.6
1035.3684	3077.203	1392.3	511.95
1035.4772	3078.2173	1382.4	501.25
1035.5859	3079.2308	1368.85	486.05
1035.6945	3080.2438	1357.4	475.8
1035.8031	3081.2561	1353.5	472.95
1035.9117	3082.2678	1338.35	457.45
1036.0202	3083.2789	1337.35	456.65
1036.1286	3084.2893	1335.45	455.65
1036.2371	3085.2991	1319.75	436.9
1036.3454	3086.3083	1323.85	439.3
1036.4538	3087.3169	1312.95	428.55
1036.562	3088.3248	1307.5	426.75
1036.6703	3089.3321	1295.65	411.45
1036.7785	3090.3388	1296.6	416.5
1036.8866	3091.3449	1287.25	406.1
1036.9948	3092.3503	1286.15	403.1
1037.1028	3093.3551	1272.85	395.2
1037.2108	3094.3593	1274.55	395.15
1037.3188	3095.3629	1267.55	388.15
1037.4267	3096.3658	1264.65	383.4
1037.5346	3097.3681	1262.3	380.25
1037.6425	3098.3698	1258.5	374.55
1037.7503	3099.3708	1257	369
1037.858	3100.3713	1251.15	372.3
1037.9657	3101.3711	1249.85	370
1038.0734	3102.3702	1378.7	359.7
1038.181	3103.3688	1240.35	358.35
1038.2886	3104.3667	1234.35	354.3
1038.3961	3105.364	1233.55	353.8
1038.5036	3106.3607	1235.7	353.45
1038.611	3107.3568	1230.65	347.35
1038.7184	3108.3522	1226.65	347.4
1038.8257	3109.347	1223.95	342.5
1038.933	3110.3412	1224.3	340.15
1039.0403	3111.3348	1220.95	339.45
1039.1475	3112.3277	1217.25	336.55
1039.2547	3113.32	1217.4	337.3
1039.3618	3114.3117	1213.8	333.65
1039.4689	3115.3028	1210.75	329.6
1039.5759	3116.2932	1206.95	325
1039.6829	3117.2831	1207.2	321.45
1039.7898	3118.2723	1203.45	324.95
1039.8967	3119.2608	1202.8	324.05
1040.0035	3120.2488	1202.6	322.85
1040.1103	3121.2361	1199.6	316.05
1040.2171	3122.2229	1194.8	314.2
1040.3238	3123.209	1194.8	313.05
1040.4305	3124.1944	1192.8	313.4
1040.5371	3125.1793	1190.85	308.25
1040.6437	3126.1635	1190.2	307.6
1040.7502	3127.1471	1189.2	309.8
1040.8567	3128.1301	1185.9	305.2
1040.9631	3129.1125	1180.15	298.85
1041.0695	3130.0942	1178.4	297.15
1041.1759	3131.0753	1184.9	296.95
1041.2822	3132.0558	1184.2	301.75
1041.3884	3133.0357	1175.55	292.35
1041.4946	3134.015	1172.8	291.15
1041.6008	3134.9936	1174.45	293.85
1041.7069	3135.9716	1192.25	289.55
1041.813	3136.949	1163.55	282.6
1041.919	3137.9258	1182.25	282.75
1042.025	3138.902	1171	284.6
1042.1309	3139.8775	1166.5	285
1042.2368	3140.8524	1155.95	275.75
1042.3427	3141.8267	1158.15	276.8
1042.4485	3142.8004	1154.35	272.5
1042.5542	3143.7735	1165.45	279.4
1042.6599	3144.7459	1165.3	284
1042.7656	3145.7178	1151.6	270.55
1042.8712	3146.689	1148.95	271.45
1042.9768	3147.6596	1149.7	267.65
1043.0823	3148.6295	1142.5	262.7
1043.1878	3149.5989	1145.85	263.7
1043.2932	3150.5676	1141.1	261
1043.3986	3151.5357	1137.95	258.8
1043.5039	3152.5032	1143.35	264.95
1043.6092	3153.4701	1137.95	258.65
1043.7145	3154.4364	1139.35	256.75
1043.8197	3155.402	1136.8	256.55
1043.9248	3156.367	1133.85	252.65
1044.03	3157.3315	1159.3	251.2
1044.135	3158.2952	1133.45	251.25
1044.24	3159.2584	1130	249
1044.345	3160.221	1127.4	246.2
1044.4499	3161.1829	1126.35	248.55
1044.5548	3162.1442	1123.6	244.5
1044.6596	3163.105	1123.6	242.2
1044.7644	3164.065	1120.8	243.2
1044.8692	3165.0245	1123.2	238.7
1044.9739	3165.9834	1120.2	241.6
1045.0785	3166.9416	1115.3	236.1
1045.1831	3167.8993	1113.15	232.85
1045.2877	3168.8563	1116.4	236.1
1045.3922	3169.8127	1104.2	222.3
1045.4966	3170.7684	1113.05	235.65
1045.6011	3171.7236	1107.3	226.2
1045.7054	3172.6782	1110.8	230.1
1045.8098	3173.6321	1107.7	227.95
1045.914	3174.5854	1107.35	221.85
1046.0183	3175.5381	1105.15	224.9
1046.1224	3176.4902	1103.45	223.5
1046.2266	3177.4417	1101.95	221.7
1046.3307	3178.3926	1099.35	220.75
1046.4347	3179.3428	1099.55	220.2
1046.5387	3180.2924	1096.9	219.35
1046.6427	3181.2415	1093.55	212
1046.7466	3182.1899	1093	208.6
1046.8504	3183.1377	1093.95	214.5
1046.9542	3184.0848	1095.9	211.55
1047.058	3185.0314	1087.2	206.5
1047.1617	3185.9773	1093.05	211.85
1047.2654	3186.9227	1086.05	204.95
1047.369	3187.8674	1091.4	212.25
1047.4726	3188.8115	1089.6	206.35
1047.5761	3189.755	1085.05	206.55
1047.6796	3190.6979	1083.3	203.45
1047.783	3191.6402	1081.3	202.8
1047.8864	3192.5818	1087.55	209.1
1047.9898	3193.5229	1091.2	197.15
1048.0931	3194.4633	1083.85	203.95
1048.1963	3195.4031	1081.15	200.45
1048.2995	3196.3423	1078.3	198.5
1048.4027	3197.2809	1077.8	199.4
1048.5058	3198.2189	1074.5	194.6
1048.6089	3199.1563	1081.2	195.45
1048.7119	3200.0931	1072.5	194.25
1048.8148	3201.0292	1072.6	192.75
1048.9178	3201.9648	1073.85	193
1049.0206	3202.8997	1075.25	192.6
1049.1235	3203.834	1070	191.65
1049.2262	3204.7677	1066.8	185.75
1049.329	3205.7008	1071.55	188
1049.4317	3206.6333	1064.1	185.8
1049.5343	3207.5652	1062.25	181.65
1049.6369	3208.4964	1066.4	185.35
1049.7394	3209.4271	1061.1	182.2
1049.8419	3210.3571	1061.5	182.9
1049.9444	3211.2865	1060.45	181.5
1050.0468	3212.2154	1062.3	183.5
1050.1491	3213.1436	1065.1	181.8
1050.2514	3214.0712	1070.35	184.45
1050.3537	3214.9982	1060.55	181.75
1050.4559	3215.9246	1053.35	173.65
1050.5581	3216.8503	1055.2	176.95
1050.6602	3217.7755	1061.2	181.15
1050.7623	3218.7001	1057.85	179.15
1050.8643	3219.624	1053.5	174.4
1050.9663	3220.5473	1056.1	177.05
1051.0682	3221.4701	1052.95	172.8
1051.1701	3222.3922	1051.7	170.3
1051.2719	3223.3137	1054.85	175.05
1051.3737	3224.2346	1048.25	170.05
1051.4754	3225.1549	1045.85	166.1
1051.5771	3226.0746	1047.25	168.4
1051.6788	3226.9937	1046.6	165.25
1051.7804	3227.9121	1044.45	167
1051.8819	3228.83	1040.1	160.5
1051.9834	3229.7473	1044.2	164.55
1052.0849	3230.6639	1042.9	163.25
1052.1863	3231.5799	1043	164.3
1052.2876	3232.4954	1043.25	163.95
1052.3889	3233.4102	1041.5	164.25
1052.4902	3234.3244	1038.8	158.35
1052.5914	3235.238	1034.85	156.75
1052.6926	3236.151	1060	157.7
1052.7937	3237.0634	1037.6	160.6
1052.8948	3237.9752	1034.25	155.5
1052.9958	3238.8864	1033.95	153.25
1053.0968	3239.797	1036	157.6
1053.1977	3240.7069	1034.55	153.35
1053.2986	3241.6163	1032.65	154.15
1053.3994	3242.5251	1032.75	153.2
1053.5002	3243.4332	1027.2	144.75
1053.6009	3244.3408	1028.95	148.65
1053.7016	3245.2477	1025.15	146.95
1053.8022	3246.154	1027.65	148.45
1053.9028	3247.0598	1026.4	147.25
1054.0034	3247.9649	1027.2	146.55
1054.1039	3248.8694	1025.35	145.45
1054.2043	3249.7733	1021.85	141.45
1054.3047	3250.6766	1023.15	145.4
1054.4051	3251.5793	1024.25	142.3
1054.5054	3252.4814	1020.1	141.15
1054.6056	3253.3829	1020.4	140.5
1054.7058	3254.2838	1020.55	141.35
1054.806	3255.1841	1017.75	137.1
1054.9061	3256.0838	1018.3	139.05
1055.0061	3256.9829	1014.8	135.55
1055.1062	3257.8814	1014.2	134.7
1055.2061	3258.7792	1012.25	129.65
1055.306	3259.6765	1011.9	131.6
1055.4059	3260.5731	1010.55	131
1055.5057	3261.4692	1009.95	129.95
1055.6055	3262.3647	1007.45	127.8
1055.7052	3263.2595	1002.2	124.4
1055.8049	3264.1538	1004.25	123.6
1055.9045	3265.0474	999.8	120.6
1056.0041	3265.9404	997.75	119.35
1056.1036	3266.8329	995.6	117.95
1056.2031	3267.7247	1003.55	113.4
1056.3025	3268.616	988.15	110.75
1056.4019	3269.5066	990.5	111.7
1056.5013	3270.3966	988.6	107.7
1056.6005	3271.286	981.75	105.05
