Software Version:	3.9.2.0
Unit SN:	10000200
Spectrometer SN:	6960
Date:	3/26/2024 1:38:41 PM
Data Line Index:	25
Spectral Points:	2048
Integration time (ms):	125
Averages:	20
Delay (ms):	30000
Sequence Number:	1
Processing:	dark subtract
Laser Power (mW):	300
Laser Current (mA):	819
Laser Diode Temp (C):	25
Laser Case Temp (C):	27.1
System Temp (C):	27
Spectrometer Temp (C):	24.9
CCD Temp (C):	0.009
Secondary Temp (C):	20.011
Heatsink Temp (C):	22.708
CCDPCB Temp (C):	36.774
SecondaryPCB Temp (C):	34.239

Wavelength	RamanShift	Raw Counts	Dark Subtracted
787.061	30.1047	616.75	207.15
787.2016	32.3739	626.15	218.2
787.3422	34.6426	642	231.95
787.4828	36.9109	656.75	243.6
787.6235	39.1787	674.75	257.55
787.7642	41.4461	700.7	279
787.9049	43.7131	724.3	301.25
788.0456	45.9796	743.55	315.95
788.1863	48.2456	757.65	324.85
788.3271	50.5112	789.45	350.7
788.4679	52.7764	812.65	375.65
788.6087	55.0411	840.15	399.55
788.7496	57.3054	867.85	421.6
788.8904	59.5692	894.45	446.95
789.0313	61.8326	928.85	477.15
789.1722	64.0955	964.9	506.4
789.3132	66.3579	1011	549.65
789.4541	68.6199	1060.6	595.5
789.5951	70.8815	1146.95	681.55
789.7361	73.1426	1338.55	864.7
789.8771	75.4032	1823.05	1345.4
790.0181	77.6634	3054.65	2570.5
790.1592	79.9231	6095.95	5604.35
790.3003	82.1824	12988.8	12478.4
790.4414	84.4412	27673.15	27136.2
790.5825	86.6995	52094	51516.55
790.7237	88.9574	62719.05	62105.3
790.8648	91.2148	64879.1	64238.85
791.006	93.4717	65089.25	64436.45
791.1472	95.7282	65194.75	64533.15
791.2885	97.9842	65244.4	64575.15
791.4297	100.2398	65208	64535.9
791.571	102.4949	65203.15	64526.65
791.7123	104.7495	65161.35	64484.9
791.8536	107.0036	65099.65	64423.25
791.9949	109.2573	65142.9	64465.6
792.1363	111.5105	65078.9	64402.65
792.2777	113.7632	65070.65	64393.45
792.4191	116.0154	65090.8	64397.65
792.5605	118.2672	65124.8	64437.95
792.7019	120.5185	65112.05	64423.6
792.8434	122.7693	65104.4	64417.65
792.9849	125.0197	65003.6	64312.7
793.1264	127.2696	65161.3	64470.5
793.2679	129.519	65105.55	64410.35
793.4094	131.7679	65166.7	64465
793.551	134.0163	65009.2	64306.3
793.6926	136.2642	65055.75	64346.6
793.8342	138.5117	65142.5	64423.2
793.9758	140.7587	65098.4	64382.55
794.1175	143.0052	65082	64363.1
794.2591	145.2512	64992.75	64281.9
794.4008	147.4967	65077.9	64360.15
794.5425	149.7417	65047.45	64324.7
794.6842	151.9863	65037.05	64316.55
794.826	154.2304	64987.55	64260.55
794.9677	156.4739	65008.3	64275.25
795.1095	158.717	65077.65	64345.75
795.2513	160.9596	65014.6	64279.45
795.3931	163.2017	64923.4	64185.75
795.535	165.4433	65001	64261.25
795.6768	167.6844	64935.7	64195.35
795.8187	169.925	64975.5	64229.35
795.9606	172.1651	64921.95	64176.1
796.1025	174.4047	64959.6	64211
796.2445	176.6439	64924.95	64176.55
796.3864	178.8825	64883.8	64131
796.5284	181.1206	64961.2	64201.75
796.6704	183.3582	64943.85	64178.35
796.8124	185.5954	64916.9	64153.1
796.9544	187.832	64900.1	64129.15
797.0965	190.0681	64843.3	64075.35
797.2386	192.3037	64953.4	64180.25
797.3806	194.5388	65070.8	64290.95
797.5228	196.7734	64796.8	64015.6
797.6649	199.0075	65038.25	64254.95
797.807	201.2411	64937.6	64152.9
797.9492	203.4742	65094.8	64304.05
798.0914	205.7068	65044.2	64255.3
798.2336	207.9389	65033.1	64247.05
798.3758	210.1704	65027.1	64235.55
798.518	212.4015	65121.1	64331.8
798.6603	214.632	64995.85	64205.3
798.8025	216.862	65137.9	64352.15
798.9448	219.0915	65065.55	64291.55
799.0871	221.3205	65045.1	64268.5
799.2294	223.549	65153.4	64377.35
799.3718	225.777	65146.45	64376.15
799.5141	228.0044	65200.2	64423
799.6565	230.2314	65151.4	64382.85
799.7989	232.4578	65159.2	64389.75
799.9413	234.6837	65184.85	64409.4
800.0837	236.909	65298.1	64519.5
800.2262	239.1339	65099.1	64292.6
800.3687	241.3582	65205.1	64408.45
800.5111	243.582	65206.75	64385.65
800.6536	245.8053	65188.15	64378.45
800.7961	248.0281	65198.65	64395.2
800.9387	250.2503	65219.25	64409.15
801.0812	252.472	65138.15	64323.3
801.2238	254.6932	65198.15	64379.65
801.3664	256.9139	65179.7	64363.5
801.509	259.134	65294.2	64474.1
801.6516	261.3536	65186.65	64367.05
801.7942	263.5727	65245.4	64418.05
801.9369	265.7912	65213.5	64390.75
802.0795	268.0092	65237.4	64416.3
802.2222	270.2267	65255.7	64428.55
802.3649	272.4436	65203.5	64379.35
802.5076	274.6601	65255.35	64424
802.6504	276.8759	65276.8	64452.05
802.7931	279.0913	65230.7	64404
802.9359	281.3061	65253.3	64423.65
803.0787	283.5204	65246.2	64412.55
803.2215	285.7341	65238.15	64400.45
803.3643	287.9473	65290	64440.5
803.5071	290.16	65251.35	64405.85
803.6499	292.3721	65266.7	64426.7
803.7928	294.5837	65237.35	64399.35
803.9357	296.7947	65207.95	64367.9
804.0786	299.0052	65291.15	64453.2
804.2215	301.2152	65255.85	64415.55
804.3644	303.4246	65280.45	64445
804.5074	305.6334	65266.7	64431.4
804.6503	307.8418	65202.65	64360.95
804.7933	310.0495	65183.45	64342.7
804.9363	312.2568	65176.25	64329.2
805.0793	314.4635	65177.45	64330.3
805.2223	316.6696	65193.4	64349.75
805.3653	318.8752	65219.25	64359.4
805.5084	321.0802	65057.85	64207.3
805.6514	323.2847	65146.8	64294.35
805.7945	325.4887	65134.45	64284
805.9376	327.692	65103.6	64251.05
806.0807	329.8949	65134.5	64282.2
806.2238	332.0972	65082.6	64229.3
806.367	334.2989	65121.1	64261.9
806.5101	336.5001	65172.45	64313.9
806.6533	338.7007	65002.25	64137.8
806.7965	340.9008	65079.9	64217.15
806.9397	343.1003	65091.8	64228.85
807.0829	345.2992	65145.1	64281.95
807.2261	347.4976	65044.65	64179.45
807.3693	349.6955	65078.25	64211.8
807.5126	351.8927	65016.35	64146.5
807.6559	354.0895	65082.5	64205.5
807.7991	356.2856	65074.35	64203
807.9424	358.4812	65138.75	64269.95
808.0857	360.6763	65014.25	64140.2
808.2291	362.8707	65135.45	64262.85
808.3724	365.0646	65052	64178.15
808.5158	367.258	65062.95	64190.4
808.6591	369.4508	65002.45	64123.25
808.8025	371.643	65117.95	64240.1
808.9459	373.8346	65051.1	64169.3
809.0893	376.0257	65070.35	64187.6
809.2327	378.2162	65044.65	64162.35
809.3762	380.4062	64946.65	64063.65
809.5196	382.5956	65015.25	64128.05
809.6631	384.7844	64998.35	64113.5
809.8066	386.9726	65044.8	64157.85
809.9501	389.1603	65027.7	64142.75
810.0936	391.3474	64946.9	64021.15
810.2371	393.5339	65015.2	64128.45
810.3806	395.7199	64901.3	64020.6
810.5241	397.9052	64925.6	64050.65
810.6677	400.09	64967.35	64090.6
810.8113	402.2743	65050.4	64175.9
810.9548	404.4579	64950.1	64077.1
811.0984	406.641	64967.5	64088.1
811.2421	408.8235	65013.65	64140.8
811.3857	411.0054	65019.8	64143.3
811.5293	413.1868	65032.85	64151.6
811.673	415.3675	65002.45	64119.7
811.8166	417.5477	65004.25	64119.2
811.9603	419.7273	65013.15	64128.6
812.104	421.9064	64995.45	64104.8
812.2477	424.0848	65002	64115.25
812.3914	426.2627	65050.55	64156.15
812.5351	428.4399	64915.35	64024.45
812.6788	430.6166	64840.45	63946.35
812.8226	432.7928	64934.2	64040.3
812.9663	434.9683	64845.45	63955.5
813.1101	437.1432	64833.35	63944.75
813.2539	439.3176	64898.75	64011
813.3977	441.4914	64769.45	63881.25
813.5415	443.6645	64784.8	63891.75
813.6853	445.8371	64788.55	63897.9
813.8291	448.0091	64748.5	63851.3
813.973	450.1806	64709.25	63818.85
814.1168	452.3514	64741.3	63851.4
814.2607	454.5216	64670	63770.55
814.4046	456.6913	64736.45	63842.8
814.5485	458.8603	64753.4	63861.15
814.6924	461.0288	64669.55	63780.3
814.8363	463.1967	64760.75	63876.4
814.9802	465.3639	64745.55	63856.4
815.1241	467.5306	64558.25	63664.3
815.2681	469.6967	64677.15	63785.65
815.412	471.8622	64714.45	63823.95
815.556	474.0271	64672.25	63780.85
815.7	476.1914	64680	63780.5
815.844	478.3551	64702.1	63805.8
815.988	480.5182	64762.65	63870.3
816.132	482.6807	64662.95	63779.7
816.276	484.8426	64681.5	63801.6
816.4201	487.0039	64807.15	63919.1
816.5641	489.1647	64812.65	63918.6
816.7082	491.3248	64686.85	63793.3
816.8522	493.4843	64827.1	63935.65
816.9963	495.6432	64822.9	63930.7
817.1404	497.8015	64682.15	63777.75
817.2845	499.9592	64764.75	63858.35
817.4286	502.1163	64752.75	63848.7
817.5727	504.2728	64704.45	63806.5
817.7168	506.4287	64683.65	63797.75
817.861	508.5839	64605.3	63715
818.0051	510.7386	64654.45	63759.7
818.1493	512.8927	64656.2	63748.9
818.2935	515.0461	64628.6	63729.8
818.4377	517.199	64700.1	63798.4
818.5818	519.3512	64649.5	63741.1
818.726	521.5029	64645.75	63739.95
818.8703	523.6539	64668.1	63762.55
819.0145	525.8043	64558.65	63654.55
819.1587	527.9541	64676.7	63767.95
819.303	530.1033	64645.65	63738.9
819.4472	532.2519	64575.25	63669.3
819.5915	534.3999	64665.35	63757
819.7357	536.5472	64716.75	63813.55
819.88	538.694	64552.65	63650
820.0243	540.8401	64666.4	63763.2
820.1686	542.9856	64690.65	63774.5
820.3129	545.1305	64730.05	63806.7
820.4572	547.2748	64625.95	63700.45
820.6016	549.4185	64622.1	63696.5
820.7459	551.5615	64690.85	63764.9
820.8902	553.704	64652.95	63731.2
821.0346	555.8458	64592.75	63675.5
821.1789	557.987	64641.6	63727.65
821.3233	560.1276	64671.95	63755.15
821.4677	562.2675	64649.8	63728.25
821.6121	564.4069	64699.75	63776.35
821.7565	566.5456	64764.75	63845.8
821.9009	568.6837	64677.3	63761.65
822.0453	570.8212	64687.95	63774.45
822.1897	572.958	64503.2	63586.5
822.3342	575.0942	64602.15	63688.15
822.4786	577.2299	64460.85	63552.9
822.6231	579.3648	64428.6	63529.4
822.7675	581.4992	64398.8	63506.55
822.912	583.6329	64389.15	63499.75
823.0565	585.766	64421.5	63524.35
823.201	587.8985	64458.25	63559.95
823.3454	590.0304	64263	63329.55
823.4899	592.1616	64407	63489.1
823.6345	594.2922	64307.25	63389.3
823.779	596.4222	64167.15	63246.9
823.9235	598.5515	64194.4	63266.2
824.068	600.6802	64260.85	63337.9
824.2126	602.8083	64082.45	63164.4
824.3571	604.9358	64085.15	63165.35
824.5017	607.0626	64237.35	63313.65
824.6462	609.1888	63986.05	63058.55
824.7908	611.3144	64148.25	63219.85
824.9354	613.4393	64067.85	63136.2
825.08	615.5636	63971.55	63049.45
825.2246	617.6873	64089.6	63162.8
825.3692	619.8103	63904.9	62976.85
825.5138	621.9327	64095.7	63170.5
825.6584	624.0544	64084.4	63166.5
825.803	626.1756	63948.35	63031.05
825.9477	628.2961	63947.35	63022.5
826.0923	630.4159	63856.5	62933.6
826.237	632.5351	63814.65	62889.1
826.3816	634.6537	64074.95	63146.15
826.5263	636.7716	63738.6	62807.35
826.6709	638.8889	63852.8	62919.85
826.8156	641.0056	63838.7	62906.3
826.9603	643.1216	63878.05	62945.85
827.105	645.237	63920.05	62985.7
827.2497	647.3518	63720.05	62795
827.3944	649.4659	63789.15	62868.7
827.5391	651.5793	63806.6	62883.7
827.6838	653.6922	63869.65	62946.35
827.8285	655.8043	63569.75	62646.45
827.9733	657.9159	63923.4	63002.1
828.118	660.0268	63290.4	62364.85
828.2627	662.137	63691.1	62761.7
828.4075	664.2466	63714.1	62780.95
828.5522	666.3556	63613.65	62677.4
828.697	668.4639	63707.55	62775.9
828.8418	670.5716	63498.2	62574.75
828.9865	672.6786	63658.5	62727.35
829.1313	674.785	63418.2	62484.75
829.2761	676.8907	63447.25	62517.75
829.4209	678.9958	63554.2	62626.9
829.5657	681.1002	63601.6	62671.95
829.7105	683.204	63394.2	62453.15
829.8553	685.3072	63261.1	62321
830.0001	687.4097	63348.9	62416.85
830.1449	689.5115	63244.25	62308.45
830.2898	691.6127	63456.55	62526.95
830.4346	693.7132	63248.95	62317.55
830.5794	695.8131	63287.4	62343.35
830.7243	697.9123	63354.75	62415.7
830.8691	700.0109	63371.1	62430.75
831.014	702.1089	63087.75	62154.25
831.1588	704.2061	63155.5	62216.65
831.3037	706.3028	63210.8	62276.7
831.4486	708.3987	63249.35	62310.05
831.5935	710.4941	63145.5	62209.7
831.7383	712.5887	63294.55	62361.1
831.8832	714.6827	63178	62239.95
832.0281	716.7761	63307.6	62378.9
832.173	718.8688	63352.35	62419.55
832.3179	720.9608	63202.85	62260.1
832.4628	723.0522	63255.25	62311.2
832.6077	725.1429	63124.1	62183.15
832.7527	727.233	63579.7	62639.25
832.8976	729.3224	62787.65	61851.55
833.0425	731.4112	63110.25	62174.45
833.1874	733.4993	63066.2	62125.55
833.3324	735.5867	63042.4	62106.95
833.4773	737.6735	62809.8	61867.9
833.6222	739.7596	62588.2	61649.2
833.7672	741.845	62549.65	61608.85
833.9122	743.9298	62846.5	61903.65
834.0571	746.014	62526.8	61583.05
834.2021	748.0974	62292.05	61346.65
834.347	750.1802	62752.75	61810.75
834.492	752.2624	62213.8	61268.65
834.637	754.3439	62299.6	61356.15
834.782	756.4247	62442.2	61491
834.9269	758.5048	62209.7	61264.9
835.0719	760.5843	62382.95	61435.45
835.2169	762.6631	62520.15	61575.2
835.3619	764.7413	62514.25	61566.35
835.5069	766.8188	62693	61746.75
835.6519	768.8956	62909.6	61967.35
835.7969	770.9718	62940.3	61997.65
835.9419	773.0473	62844.75	61899.95
836.0869	775.1221	62557.75	61613.95
836.232	777.1962	62509.2	61566.95
836.377	779.2697	62157.9	61210.7
836.522	781.3426	62381.9	61422.9
836.667	783.4147	62450.5	61501.35
836.8121	785.4862	62405.45	61461.3
836.9571	787.557	62071.7	61122.2
837.1021	789.6271	62283.6	61338.45
837.2472	791.6966	61868.3	60919.25
837.3922	793.7654	61369.95	60422.45
837.5373	795.8335	61339.7	60393.45
837.6823	797.901	61411.2	60466.9
837.8274	799.9678	61146.6	60196.3
837.9724	802.0339	60993.55	60047.35
838.1175	804.0993	61031.3	60066.75
838.2626	806.1641	60824	59875.55
838.4076	808.2282	60676.95	59731.6
838.5527	810.2916	60611.8	59661.85
838.6978	812.3544	60841.8	59895.05
838.8428	814.4164	60308.3	59364
838.9879	816.4778	60405.8	59454.8
839.133	818.5385	60463.9	59515.7
839.2781	820.5986	60463.15	59513.55
839.4232	822.658	60594.25	59643.85
839.5682	824.7166	60782.8	59835.25
839.7133	826.7747	60528.05	59581.6
839.8584	828.832	60883.95	59935.35
840.0035	830.8886	61205.7	60257
840.1486	832.9446	61253	60297.8
840.2937	834.9999	60358.25	59408.75
840.4388	837.0545	60656	59706.1
840.5839	839.1085	60708.15	59757.35
840.729	841.1618	60408.75	59452.8
840.8741	843.2143	59766.35	58817.9
841.0192	845.2662	59717.45	58768.25
841.1643	847.3175	59923.15	58971.35
841.3095	849.368	59193	58243.8
841.4546	851.4179	59678.1	58726.75
841.5997	853.467	59183.7	58235.25
841.7448	855.5155	59466.15	58514.1
841.8899	857.5633	59010.9	58059.55
842.0351	859.6105	58771.15	57820.9
842.1802	861.6569	58986.5	58030.5
842.3253	863.7027	58389.7	57436.8
842.4704	865.7478	58597.3	57644.7
842.6156	867.7922	58457.15	57506.45
842.7607	869.8359	58774.25	57822.35
842.9058	871.8789	58078.9	57126.1
843.0509	873.9212	58410.5	57428.65
843.1961	875.9629	58464	57509.55
843.3412	878.0039	58393	57439.9
843.4863	880.0441	58227.1	57274.8
843.6315	882.0837	58209.2	57257.4
843.7766	884.1226	58218.2	57268.1
843.9218	886.1609	58236.15	57287.7
844.0669	888.1984	58022.35	57070.65
844.212	890.2352	58535.85	57587.65
844.3572	892.2714	57912.55	56954.85
844.5023	894.3069	58147.15	57194.85
844.6475	896.3416	57766.5	56813.3
844.7926	898.3757	57657.5	56704.7
844.9377	900.4091	56920.8	55965.45
845.0829	902.4418	57725.6	56763.9
845.228	904.4739	57216.6	56258.55
845.3732	906.5052	57365.85	56410.05
845.5183	908.5358	57086.3	56129.9
845.6635	910.5658	56847.5	55890.7
845.8086	912.595	56688.9	55733
845.9538	914.6236	55940.7	54984.1
846.0989	916.6515	56834.05	55880.9
846.2441	918.6786	55674.65	54720.15
846.3892	920.7051	55906.5	54949.45
846.5344	922.7309	55781.4	54827.25
846.6795	924.756	55926.45	54969.25
846.8246	926.7804	55647.2	54687.95
846.9698	928.8041	55019.6	54065.65
847.1149	930.8272	55500.65	54545.6
847.2601	932.8495	55413.35	54457.7
847.4052	934.8711	54948.85	53990
847.5504	936.892	54663.8	53707
847.6955	938.9123	54828.8	53873.35
847.8407	940.9318	54583.55	53629.4
847.9858	942.9506	54458.5	53505.6
848.131	944.9688	54513.7	53561.2
848.2761	946.9862	53781.25	52827
848.4213	949.003	53884.6	52928.6
848.5664	951.019	53210.25	52255.45
848.7115	953.0344	53288.25	52331.65
848.8567	955.0491	53169.65	52214.8
849.0018	957.063	53303.9	52350.15
849.147	959.0763	53407.6	52445.6
849.2921	961.0888	53022	52068.9
849.4373	963.1007	53296.85	52344
849.5824	965.1119	53201.6	52258.3
849.7275	967.1223	52954	52013.55
849.8727	969.1321	53239.55	52297.15
850.0178	971.1412	52712.15	51766.6
850.1629	973.1495	52466	51515.1
850.3081	975.1572	52607.4	51635.35
850.4532	977.1641	52487.5	51534.45
850.5983	979.1704	52307.9	51353.1
850.7435	981.1759	52243	51288.3
850.8886	983.1808	51991.25	51035
851.0337	985.1849	51953.25	50990.75
851.1788	987.1884	51964.9	51009.5
851.324	989.1911	52226.65	51271.15
851.4691	991.1932	51673.6	50717.85
851.6142	993.1945	51641.9	50690.3
851.7593	995.1951	51575	50623.6
851.9045	997.1951	51354.45	50392.9
852.0496	999.1943	51100.1	50145.6
852.1947	1001.1928	51011.85	50054.7
852.3398	1003.1906	50970.7	50014.7
852.4849	1005.1877	50695.85	49739.7
852.63	1007.1841	50532.85	49583.8
852.7751	1009.1798	50415.35	49462.7
852.9202	1011.1748	50272	49320.85
853.0653	1013.1691	50075.75	49122.45
853.2104	1015.1627	49423	48468.05
853.3555	1017.1556	49152.35	48194.9
853.5006	1019.1477	49115.2	48162.45
853.6457	1021.1392	48645.8	47701.85
853.7908	1023.1299	48286.35	47342.2
853.9359	1025.12	48341.65	47402.8
854.081	1027.1093	48088.15	47160.05
854.2261	1029.0979	48063.1	47134.2
854.3712	1031.0859	48054.6	47118.95
854.5163	1033.0731	47766.2	46825.65
854.6613	1035.0596	47644.05	46698
854.8064	1037.0454	47402.4	46454.45
854.9515	1039.0304	47142.6	46192.35
855.0965	1041.0148	46764	45812.95
855.2416	1042.9985	46633.4	45685
855.3867	1044.9814	46627.4	45682.8
855.5317	1046.9636	46346.55	45395.9
855.6768	1048.9452	46147.3	45198.25
855.8219	1050.926	46159.1	45210.65
855.9669	1052.9061	46102.15	45155.1
856.112	1054.8855	45998.1	45042.7
856.257	1056.8642	45835.45	44884.8
856.4021	1058.8421	45841.8	44884.6
856.5471	1060.8194	45752.95	44798.55
856.6921	1062.7959	45690.25	44739.75
856.8372	1064.7717	45578.55	44626.8
856.9822	1066.7469	45539	44587.25
857.1272	1068.7213	45559.75	44608.4
857.2723	1070.695	45480.4	44528.5
857.4173	1072.6679	45248.9	44298.4
857.5623	1074.6402	45260.85	44309.6
857.7073	1076.6117	45112.6	44156.25
857.8523	1078.5826	44968.7	44014.5
857.9973	1080.5527	44786.7	43831
858.1423	1082.5221	44574.4	43622.95
858.2873	1084.4908	44553.75	43605.45
858.4323	1086.4587	44407	43457.55
858.5773	1088.426	44423.9	43474.95
858.7223	1090.3925	44249.75	43295.8
858.8673	1092.3584	44219.4	43273.1
859.0123	1094.3235	43960.15	43010.65
859.1573	1096.2879	43899.3	42949.05
859.3022	1098.2515	43926.35	42979.9
859.4472	1100.2145	44011.15	43060.1
859.5922	1102.1767	43998.3	43050.05
859.7371	1104.1382	44055.7	43107.05
859.8821	1106.099	44202.85	43251.5
860.027	1108.0591	44223.9	43275.3
860.172	1110.0185	44175.05	43220.8
860.3169	1111.9771	44247.45	43297.45
860.4619	1113.9351	43976.7	43026.1
860.6068	1115.8923	43687.45	42737.9
860.7517	1117.8488	43393.65	42442.05
860.8967	1119.8045	43042.3	42090.35
861.0416	1121.7596	42984.15	42037.15
861.1865	1123.7139	42655.6	41704.9
861.3314	1125.6675	42597.5	41650.2
861.4763	1127.6204	42638.75	41692.25
861.6212	1129.5726	42460.6	41510.8
861.7661	1131.524	42299.35	41349.5
861.911	1133.4748	42188.35	41239.85
862.0559	1135.4248	41872.6	40925.7
862.2008	1137.3741	41723.1	40772.85
862.3457	1139.3226	41530.45	40578.9
862.4905	1141.2705	41485.4	40534.65
862.6354	1143.2176	41151.95	40196.55
862.7803	1145.164	41094.45	40141.65
862.9251	1147.1097	40969.4	40018.4
863.07	1149.0546	40838.8	39889.4
863.2148	1150.9989	40727.95	39781.4
863.3597	1152.9424	40603.2	39653.65
863.5045	1154.8852	40376.55	39426.15
863.6493	1156.8272	40274.6	39326.2
863.7942	1158.7686	40302.05	39346.2
863.939	1160.7092	40119.9	39172.2
864.0838	1162.6491	39971	39019.3
864.2286	1164.5883	40096	39148.25
864.3734	1166.5267	39996.35	39046.8
864.5182	1168.4644	40139	39192.6
864.663	1170.4014	40205.2	39258.75
864.8078	1172.3377	40434.45	39489.45
864.9526	1174.2732	40549.05	39604.65
865.0974	1176.2081	40816.85	39870.45
865.2421	1178.1421	41145.45	40196.55
865.3869	1180.0755	41537.3	40591.95
865.5317	1182.0082	41610.1	40666.25
865.6764	1183.9401	41649.6	40705.65
865.8212	1185.8713	41452.05	40512.85
865.9659	1187.8017	41101.4	40168
866.1106	1189.7315	40695.2	39766
866.2554	1191.6605	40233.75	39306.55
866.4001	1193.5888	39825	38889.9
866.5448	1195.5163	39672.75	38733.8
866.6895	1197.4432	39447.55	38505.9
866.8342	1199.3693	39294.3	38352.3
866.9789	1201.2947	39095.55	38147.4
867.1236	1203.2193	38979.75	38034.95
867.2683	1205.1432	38951.65	38008.4
867.413	1207.0664	38781.25	37840.95
867.5576	1208.9889	38696.6	37752.25
867.7023	1210.9106	38543.65	37602.25
867.847	1212.8316	38410.15	37468.6
867.9916	1214.7519	38353.4	37402.05
868.1363	1216.6715	38288.45	37346.75
868.2809	1218.5903	38232.4	37287.45
868.4255	1220.5084	38233.15	37288.7
868.5701	1222.4257	38239.5	37298.7
868.7148	1224.3424	38056.35	37117.15
868.8594	1226.2583	38119.25	37173.15
869.004	1228.1735	38109.05	37169.4
869.1486	1230.0879	38068.1	37124.6
869.2932	1232.0016	38207.7	37265.45
869.4377	1233.9146	38167.05	37223.1
869.5823	1235.8269	38026.6	37085.35
869.7269	1237.7384	37985	37041.5
869.8715	1239.6492	37750.9	36807.25
870.016	1241.5592	37678.75	36734.55
870.1606	1243.4686	37587.35	36648.3
870.3051	1245.3772	37567	36624.15
870.4496	1247.285	37630.85	36689.45
870.5941	1249.1922	37695.8	36750.85
870.7387	1251.0986	37752.15	36809.7
870.8832	1253.0042	37667.55	36727.15
871.0277	1254.9092	37683.65	36741.75
871.1722	1256.8134	37703.05	36764.8
871.3167	1258.7169	37714	36772.45
871.4611	1260.6196	37769	36827.3
871.6056	1262.5216	37950.15	37005.4
871.7501	1264.4229	38007.3	37066.35
871.8945	1266.3234	38206.2	37264.2
872.039	1268.2232	38173.35	37230.4
872.1834	1270.1223	38122.65	37179.05
872.3278	1272.0207	38159.6	37218.2
872.4723	1273.9183	37985	37041.95
872.6167	1275.8151	37861.1	36919.65
872.7611	1277.7113	37748.95	36809.9
872.9055	1279.6067	37755.9	36817.4
873.0499	1281.5014	37858.65	36917.65
873.1943	1283.3953	38014.1	37071.05
873.3386	1285.2885	38394.6	37456.85
873.483	1287.181	38686	37746.6
873.6274	1289.0727	39091.8	38155.25
873.7717	1290.9637	39179.9	38237.05
873.9161	1292.854	39383.4	38444.4
874.0604	1294.7435	39263.4	38322.3
874.2047	1296.6323	39169.75	38228.9
874.349	1298.5204	39035.3	38091.55
874.4933	1300.4077	38799.95	37858.2
874.6376	1302.2943	38571.45	37632
874.7819	1304.1802	38331.6	37389.6
874.9262	1306.0653	37884.95	36940.35
875.0705	1307.9497	37428.35	36491.35
875.2147	1309.8333	37083.25	36146.4
875.359	1311.7162	36805.6	35865.5
875.5032	1313.5984	36609.45	35667.55
875.6475	1315.4798	36380.5	35428.3
875.7917	1317.3605	36339.25	35381.7
875.9359	1319.2405	36190.8	35248.2
876.0801	1321.1197	35932.15	34992.95
876.2243	1322.9982	35597.75	34655.15
876.3685	1324.876	35402.7	34463.3
876.5127	1326.753	35087.5	34149.9
876.6569	1328.6293	34980.7	34039.05
876.801	1330.5048	34759.25	33813.3
876.9452	1332.3796	34590.65	33650.55
877.0893	1334.2537	34488.4	33526.05
877.2335	1336.127	34337.25	33396.7
877.3776	1337.9996	34213.05	33273.15
877.5217	1339.8714	34176.65	33237.55
877.6658	1341.7426	34102.35	33118.55
877.8099	1343.6129	34058.45	33116.3
877.954	1345.4826	34000.35	33061.4
878.0981	1347.3515	34013.1	33070.7
878.2422	1349.2196	33849.95	32909.85
878.3862	1351.087	33898.95	32957.6
878.5303	1352.9537	33858.05	32915.85
878.6743	1354.8197	33907.45	32968.05
878.8184	1356.6849	34061.2	33120.45
878.9624	1358.5493	34088.65	33148.2
879.1064	1360.4131	34207.95	33271.5
879.2504	1362.276	34196.75	33256.75
879.3944	1364.1383	34164.05	33228.5
879.5384	1365.9998	33903.5	32957.35
879.6823	1367.8606	33489.75	32548.05
879.8263	1369.7206	33166.15	32224.45
879.9702	1371.5799	32797.1	31854.75
880.1142	1373.4384	32483.15	31542.05
880.2581	1375.2962	32274.25	31333.25
880.402	1377.1533	31845.7	30908.45
880.5459	1379.0096	31397.7	30464.15
880.6898	1380.8652	31114.8	30179.6
880.8337	1382.7201	30810.9	29876.3
880.9776	1384.5742	30416.3	29479.7
881.1215	1386.4275	30198.25	29257.3
881.2653	1388.2802	29962.95	29026.15
881.4092	1390.132	29776.1	28834.1
881.553	1391.9832	29696.65	28758.45
881.6968	1393.8336	29502.4	28564.35
881.8406	1395.6832	29411.85	28471.6
881.9844	1397.5322	29277.5	28339.95
882.1282	1399.3803	29131.15	28189.3
882.272	1401.2278	28943.3	28008.45
882.4158	1403.0745	28915.5	27979.65
882.5595	1404.9204	28740.65	27807.55
882.7033	1406.7656	28785.25	27850.15
882.847	1408.6101	28693	27755.9
882.9908	1410.4538	28560.6	27624.5
883.1345	1412.2968	28508.85	27568.25
883.2782	1414.139	28453.7	27514.2
883.4219	1415.9805	28496.25	27560.1
883.5656	1417.8213	28483.95	27526.8
883.7092	1419.6613	28433.9	27501.5
883.8529	1421.5006	28546.05	27612.45
883.9965	1423.3391	28666.35	27731.55
884.1402	1425.1769	28803.1	27867.25
884.2838	1427.0139	29173.7	28237
884.4274	1428.8502	29582.05	28646.35
884.571	1430.6858	29919	28983.45
884.7146	1432.5206	30204.7	29269.85
884.8582	1434.3547	30373.05	29438.05
885.0018	1436.188	30328.75	29393.15
885.1453	1438.0206	30266.4	29330
885.2889	1439.8524	29954.95	29018.75
885.4324	1441.6835	29875.8	28940.55
885.5759	1443.5139	29719.85	28779.6
885.7194	1445.3435	29588	28651.4
885.8629	1447.1724	29525.1	28592.7
886.0064	1449.0005	29443.95	28509.65
886.1499	1450.8279	29323	28391.5
886.2933	1452.6545	29310.7	28375.05
886.4368	1454.4804	29278.25	28349.3
886.5802	1456.3056	29232.35	28294.35
886.7237	1458.13	29070.5	28139.6
886.8671	1459.9536	28952.95	28019.1
887.0105	1461.7766	28699.3	27763.9
887.1539	1463.5987	28309.35	27373
887.2972	1465.4202	28000.15	27064.5
887.4406	1467.2409	27644.65	26712.6
887.584	1469.0608	27433.3	26500.35
887.7273	1470.88	27146.75	26211.8
887.8706	1472.6984	26860.8	25928.7
888.0139	1474.5161	26598.35	25663
888.1572	1476.3331	26419.65	25487.9
888.3005	1478.1493	26332	25398.2
888.4438	1479.9648	26231.55	25297.25
888.5871	1481.7795	26022.25	25088.4
888.7303	1483.5935	25967.95	25036.55
888.8736	1485.4067	25877.55	24944.85
889.0168	1487.2192	25831.65	24898.3
889.16	1489.031	25774.9	24838.6
889.3032	1490.842	25703.9	24772.25
889.4464	1492.6522	25639.15	24705.8
889.5896	1494.4618	25528.65	24593.5
889.7327	1496.2705	25461.15	24528.8
889.8759	1498.0785	25390.5	24457.75
890.019	1499.8858	25299.35	24367.25
890.1622	1501.6924	25263.2	24334.25
890.3053	1503.4981	25188.45	24256.4
890.4484	1505.3032	25096.65	24166.6
890.5914	1507.1075	24996.1	24063.7
890.7345	1508.911	24916.1	23986.55
890.8776	1510.7138	24860.15	23930
891.0206	1512.5159	24762.3	23826.95
891.1637	1514.3172	24678.05	23748.65
891.3067	1516.1178	24549.55	23622.6
891.4497	1517.9176	24527.8	23592.9
891.5927	1519.7166	24380.5	23451.3
891.7357	1521.515	24338.05	23401.5
891.8786	1523.3126	24251.35	23321.05
892.0216	1525.1094	24212.65	23281.6
892.1645	1526.9055	24061	23134
892.3074	1528.7008	23976.6	23047.2
892.4503	1530.4954	23865.8	22932.4
892.5932	1532.2893	23844.5	22918.95
892.7361	1534.0824	23726.1	22794.05
892.879	1535.8747	23676.6	22753.75
893.0218	1537.6663	23628.95	22701.95
893.1647	1539.4572	23531.65	22605.9
893.3075	1541.2473	23523.6	22597.9
893.4503	1543.0367	23479.35	22553.2
893.5931	1544.8253	23394.4	22467.25
893.7359	1546.6132	23368.9	22438.5
893.8787	1548.4003	23273.65	22339.35
894.0214	1550.1867	23268.7	22335.3
894.1642	1551.9723	23272.85	22345.1
894.3069	1553.7572	23324.65	22402.4
894.4496	1555.5414	23351.7	22429.2
894.5923	1557.3247	23385.15	22464.4
894.735	1559.1074	23479.6	22560.4
894.8777	1560.8893	23538	22621.45
895.0204	1562.6705	23591.15	22671.1
895.163	1564.4509	23699.35	22782.9
895.3056	1566.2305	23632.35	22717.35
895.4482	1568.0094	23684.5	22769.1
895.5908	1569.7876	23671.9	22753.6
895.7334	1571.565	23650.35	22728.1
895.876	1573.3417	23573.45	22655.15
896.0186	1575.1176	23539.3	22622.85
896.1611	1576.8928	23465	22548.05
896.3036	1578.6672	23382.15	22472.3
896.4461	1580.4409	23326.5	22419.5
896.5886	1582.2138	23276	22361.6
896.7311	1583.986	23253.95	22338.8
896.8736	1585.7575	23282.6	22368.9
897.0161	1587.5282	23269.95	22357.2
897.1585	1589.2981	23284.8	22376.5
897.3009	1591.0673	23301.4	22389.75
897.4433	1592.8358	23340.75	22428.95
897.5857	1594.6035	23395.15	22479.6
897.7281	1596.3704	23376.1	22459.15
897.8705	1598.1366	23388.65	22472.7
898.0128	1599.9021	23376.15	22465.1
898.1551	1601.6668	23386.75	22471.8
898.2975	1603.4308	23435.7	22521.05
898.4398	1605.194	23573.05	22655.35
898.5821	1606.9564	23641.8	22734.5
898.7243	1608.7182	23805.55	22899.45
898.8666	1610.4791	23995.85	23096.65
899.0088	1612.2394	24193.5	23295.55
899.1511	1613.9988	24409.2	23506.9
899.2933	1615.7576	24634.2	23726.95
899.4355	1617.5156	24768.3	23850.05
899.5776	1619.2728	24821.75	23907.45
899.7198	1621.0293	24794.4	23884.15
899.862	1622.785	24562.25	23653.15
900.0041	1624.54	24282.7	23375.75
900.1462	1626.2942	23944.35	23037.3
900.2883	1628.0477	23558.65	22650.25
900.4304	1629.8005	23193	22282.5
900.5725	1631.5525	22889.7	21980.7
900.7145	1633.3037	22600	21693.3
900.8566	1635.0542	22418.65	21514.05
900.9986	1636.804	22221.15	21315.7
901.1406	1638.553	22079.85	21120.2
901.2826	1640.3013	21911.15	21004.4
901.4245	1642.0488	21826.7	20916.95
901.5665	1643.7955	21872.4	20967.1
901.7085	1645.5416	21855.75	20950.9
901.8504	1647.2868	21886.55	20979.9
901.9923	1649.0313	21883.2	20974.35
902.1342	1650.7751	21996.2	21087.4
902.2761	1652.5181	22087.7	21183.9
902.4179	1654.2604	22162	21256.05
902.5598	1656.0019	22349.95	21444.85
902.7016	1657.7427	22524.65	21620.85
902.8434	1659.4828	22707.9	21800.9
902.9852	1661.222	22784.3	21876.55
903.127	1662.9606	22749.75	21843.05
903.2687	1664.6984	22545.5	21637.6
903.4105	1666.4354	22112.65	21200.9
903.5522	1668.1717	21631.5	20718.25
903.6939	1669.9072	21097.5	20185.05
903.8356	1671.642	20661.45	19750.9
903.9773	1673.3761	20293.05	19387
904.119	1675.1094	19974.75	19066.45
904.2606	1676.8419	19701.8	18794.7
904.4022	1678.5737	19460.95	18552.9
904.5439	1680.3048	19265.2	18356.75
904.6855	1682.0351	19074.4	18166.15
904.827	1683.7646	18956.15	18044.2
904.9686	1685.4934	18858.15	17949.8
905.1101	1687.2215	18756.9	17851.7
905.2517	1688.9488	18590.45	17685.05
905.3932	1690.6754	18495.7	17590.3
905.5347	1692.4012	18440	17534.75
905.6761	1694.1263	18353.75	17448.7
905.8176	1695.8506	18274.05	17367.8
905.9591	1697.5742	18229.6	17325.65
906.1005	1699.297	18142.95	17241.6
906.2419	1701.0191	18032.1	17131.1
906.3833	1702.7404	17946.1	17043.15
906.5246	1704.461	17826.9	16922.7
906.666	1706.1808	17739.75	16833.7
906.8073	1707.8999	17684.45	16779.45
906.9487	1709.6182	17639.85	16740.7
907.09	1711.3358	17573.5	16677
907.2313	1713.0527	17530.05	16633.05
907.3725	1714.7688	17447	16543.85
907.5138	1716.4841	17364.95	16462.05
907.655	1718.1987	17323.85	16416.5
907.7962	1719.9126	17257.65	16358.3
907.9374	1721.6257	17204.5	16304.75
908.0786	1723.338	17167.45	16268.2
908.2198	1725.0496	17038.1	16138.55
908.3609	1726.7605	17040.95	16139
908.502	1728.4706	16984.35	16082.4
908.6431	1730.18	16895.85	15994.75
908.7842	1731.8886	16896.2	15998.65
908.9253	1733.5964	16874.6	15970
909.0664	1735.3036	16786.25	15884.55
909.2074	1737.0099	16732.55	15834.35
909.3484	1738.7156	16693.1	15797.45
909.4894	1740.4204	16597.35	15696
909.6304	1742.1246	16561.2	15659.65
909.7714	1743.8279	16537.65	15638.05
909.9123	1745.5306	16477.35	15580.8
910.0532	1747.2325	16400.9	15500.25
910.1941	1748.9336	16355.45	15456.35
910.335	1750.634	16322.7	15419.5
910.4759	1752.3336	16277.65	15379.45
910.6168	1754.0325	16233.4	15337.65
910.7576	1755.7307	16191.5	15292.75
910.8984	1757.4281	16216.55	15317.2
911.0392	1759.1247	16177	15269.35
911.18	1760.8206	16105.3	15198.45
911.3208	1762.5158	16077.65	15172.05
911.4615	1764.2102	16026.65	15126.2
911.6022	1765.9039	15992.25	15094.4
911.7429	1767.5968	15952.65	15056.1
911.8836	1769.289	15903.45	15005.2
912.0243	1770.9804	15863.1	14962.05
912.1649	1772.6711	15868.8	14965.05
912.3056	1774.361	15811.05	14910.1
912.4462	1776.0502	15786.85	14885.8
912.5868	1777.7386	15718.2	14815.8
912.7274	1779.4263	15677.6	14778.3
912.8679	1781.1132	15639.8	14743.55
913.0084	1782.7994	15597.5	14702.2
913.149	1784.4849	15583.25	14688.25
913.2895	1786.1696	15530.5	14627.9
913.4299	1787.8535	15512	14616.45
913.5704	1789.5367	15474.95	14579.5
913.7108	1791.2192	15431.05	14535.7
913.8513	1792.9009	15421.75	14497.5
913.9917	1794.5818	15351.75	14448.4
914.132	1796.2621	15303.2	14405.45
914.2724	1797.9415	15278.15	14377.75
914.4128	1799.6202	15225.9	14325.3
914.5531	1801.2982	15192.7	14293.75
914.6934	1802.9755	15175.95	14277
914.8337	1804.6519	15164.3	14263.9
914.9739	1806.3277	15059.85	14163.05
915.1142	1808.0027	15000.8	14107.1
915.2544	1809.6769	14980.55	14085.35
915.3946	1811.3504	14946.5	14052.85
915.5348	1813.0231	14889.05	13992.95
915.675	1814.6951	14893	13996.85
915.8151	1816.3664	14908.8	14007.65
915.9553	1818.0369	14877.75	13979.75
916.0954	1819.7067	14799.75	13900.25
916.2355	1821.3757	14773.2	13873.1
916.3755	1823.044	14773.9	13873.2
916.5156	1824.7115	14716.9	13815.75
916.6556	1826.3783	14667.1	13772.1
916.7956	1828.0443	14639.65	13743.7
916.9356	1829.7096	14624.9	13725.95
917.0756	1831.3741	14592.2	13689.65
917.2155	1833.0379	14561.4	13666.3
917.3555	1834.701	14516.8	13620.45
917.4954	1836.3633	14484.05	13588.9
917.6353	1838.0248	14447.35	13550.6
917.7751	1839.6856	14399.2	13502.35
917.915	1841.3457	14411.15	13512.3
918.0548	1843.005	14367.05	13468.85
918.1946	1844.6636	14331.15	13434.05
918.3344	1846.3214	14273.35	13374
918.4742	1847.9785	14295.1	13399.25
918.6139	1849.6349	14251.6	13352.4
918.7537	1851.2904	14213.3	13305.7
918.8934	1852.9453	14182.45	13281.6
919.0331	1854.5994	14137.2	13235.95
919.1727	1856.2528	14134.5	13231.05
919.3124	1857.9054	14105.45	13209.1
919.452	1859.5572	14073.95	13178
919.5916	1861.2083	14038.05	13140.8
919.7312	1862.8587	14069.1	13169.75
919.8708	1864.5084	14021.15	13120.9
920.0103	1866.1572	14006.3	13106.45
920.1498	1867.8054	13929.85	13029.7
920.2893	1869.4528	13923.25	13024.3
920.4288	1871.0994	13887.55	12988.65
920.5683	1872.7453	13845.85	12945.6
920.7077	1874.3905	13841.15	12936.25
920.8471	1876.0349	13773.2	12876.3
920.9865	1877.6786	13740.55	12839.95
921.1259	1879.3215	13753.85	12856
921.2653	1880.9637	13700.4	12803.6
921.4046	1882.6051	13661.4	12765.25
921.5439	1884.2458	13610.95	12713.8
921.6832	1885.8858	13580.1	12683.35
921.8225	1887.525	13535.3	12635.85
921.9617	1889.1634	13496.65	12599.65
922.101	1890.8011	13459.45	12560.8
922.2402	1892.4381	13429.65	12530.5
922.3794	1894.0743	13399.65	12501.45
922.5185	1895.7098	13374.4	12477.45
922.6577	1897.3446	13352.55	12454.35
922.7968	1898.9786	13338.7	12434.85
922.9359	1900.6118	13312	12416.3
923.075	1902.2443	13259.3	12358.1
923.214	1903.8761	13218	12321.2
923.3531	1905.5071	13157.1	12259.7
923.4921	1907.1374	13131.85	12233.95
923.6311	1908.7669	13122.65	12229.25
923.77	1910.3957	13081.85	12185.7
923.909	1912.0237	12979.65	12082.35
924.0479	1913.651	13013.05	12116
924.1868	1915.2776	12973.8	12077.9
924.3257	1916.9034	12917.75	12022.45
924.4646	1918.5285	12874.2	11979.4
924.6034	1920.1528	12792.45	11894.25
924.7422	1921.7764	12791.8	11894.2
924.881	1923.3992	12703.95	11807.25
925.0198	1925.0213	12649.6	11752.95
925.1586	1926.6427	12630.4	11735.2
925.2973	1928.2633	12656.5	11683.25
925.436	1929.8832	12585.95	11686.6
925.5747	1931.5023	12498.15	11599.95
925.7134	1933.1207	12507.15	11609.2
925.852	1934.7383	12492.85	11595.05
925.9906	1936.3552	12414.45	11520.05
926.1292	1937.9714	12394.25	11499.45
926.2678	1939.5868	12344.2	11444.35
926.4064	1941.2015	12253.9	11356.15
926.5449	1942.8154	12226.6	11327.1
926.6834	1944.4286	12169.65	11272.85
926.8219	1946.041	12155.7	11236.9
926.9604	1947.6528	12084.45	11182.75
927.0988	1949.2637	12062.45	11165.45
927.2372	1950.8739	12024.65	11127.4
927.3756	1952.4834	12015.1	11118
927.514	1954.0921	11994.75	11099.6
927.6523	1955.7001	11941.7	11041.95
927.7907	1957.3074	11925.8	11032.85
927.929	1958.9139	11863.8	10971.85
928.0673	1960.5197	11816.15	10921.35
928.2055	1962.1247	11777	10882.25
928.3438	1963.729	11718.55	10827.2
928.482	1965.3325	11690.8	10773.9
928.6202	1966.9353	11655.45	10763.3
928.7584	1968.5374	11607.8	10714.45
928.8965	1970.1387	11577.6	10683.25
929.0346	1971.7393	11531.15	10636.65
929.1727	1973.3392	11509.95	10615.65
929.3108	1974.9383	11475.4	10583.4
929.4489	1976.5366	11417.7	10526.95
929.5869	1978.1342	11405.25	10511.25
929.7249	1979.7311	11375.7	10483.15
929.8629	1981.3273	11349.4	10458.6
930.0009	1982.9227	11312	10420.75
930.1388	1984.5173	11290.1	10399.1
930.2767	1986.1112	11245.1	10352.8
930.4146	1987.7044	11221.8	10332.2
930.5525	1989.2968	11212	10321.7
930.6904	1990.8885	11172.2	10278.5
930.8282	1992.4795	11137.6	10247
930.966	1994.0697	11103.9	10215.25
931.1038	1995.6592	11059.8	10167.4
931.2415	1997.2479	11027.75	10136.9
931.3793	1998.8359	11012.95	10121.35
931.517	2000.4232	10944.1	10056
931.6547	2002.0097	10912.25	10025.25
931.7923	2003.5955	10883.45	9995.95
931.93	2005.1805	10886.8	9997.6
932.0676	2006.7648	10829.55	9942.3
932.2052	2008.3484	10811.3	9921.1
932.3427	2009.9312	10819.15	9929.3
932.4803	2011.5133	10774.95	9887.6
932.6178	2013.0946	10721.8	9833.95
932.7553	2014.6752	10714.8	9827.9
932.8928	2016.2551	10673.35	9784.2
933.0302	2017.8342	10629.4	9740.8
933.1676	2019.4126	10608.9	9722.55
933.305	2020.9902	10561.75	9677.05
933.4424	2022.5672	10539.55	9650
933.5798	2024.1433	10529.6	9638.15
933.7171	2025.7188	10475.1	9590.05
933.8544	2027.2935	10439.25	9552.55
933.9917	2028.8674	10411.7	9526.15
934.129	2030.4406	10403.55	9518.05
934.2662	2032.0131	10343.95	9461.3
934.4034	2033.5849	10312.9	9421
934.5406	2035.1559	10294.75	9407.8
934.6778	2036.7261	10314.95	9426.75
934.8149	2038.2957	10263.9	9375.6
934.952	2039.8645	10215.8	9326.2
935.0891	2041.4325	10229.9	9335.05
935.2262	2042.9998	10171.05	9283.6
935.3632	2044.5664	10213.65	9323.6
935.5002	2046.1323	10122.5	9236.95
935.6372	2047.6974	10098.1	9212.05
935.7742	2049.2617	10066.75	9180.25
935.9111	2050.8254	10077.65	9164.45
936.048	2052.3883	10057.3	9166.15
936.1849	2053.9504	10025.65	9135.45
936.3218	2055.5118	9973.75	9083.95
936.4586	2057.0725	9918.35	9027.95
936.5955	2058.6325	9911.75	9022.7
936.7323	2060.1917	9887.3	9000.35
936.869	2061.7502	9870.65	8981.3
937.0058	2063.3079	9831.5	8944.75
937.1425	2064.8649	9802.45	8913.85
937.2792	2066.4212	9777.85	8890.1
937.4159	2067.9767	9783.25	8894.65
937.5525	2069.5315	9718.1	8830.5
937.6891	2071.0856	9692.35	8804.25
937.8257	2072.6389	9651.55	8763.95
937.9623	2074.1915	9619.8	8734.5
938.0989	2075.7433	9565.3	8677.95
938.2354	2077.2945	9544.55	8655.15
938.3719	2078.8448	9527.2	8639.15
938.5084	2080.3945	9506.9	8617.35
938.6448	2081.9434	9498.5	8609.1
938.7812	2083.4916	9451.6	8559.2
938.9176	2085.039	9428.45	8533.6
939.054	2086.5857	9417.9	8523.5
939.1903	2088.1317	9391.6	8496.65
939.3267	2089.677	9381.8	8487.65
939.463	2091.2215	9332.15	8437.9
939.5992	2092.7652	9315.05	8418
939.7355	2094.3083	9293.6	8399.55
939.8717	2095.8506	9266.25	8376.9
940.0079	2097.3921	9265.2	8375.85
940.1441	2098.933	9239.7	8347
940.2802	2100.4731	9225.45	8335
940.4163	2102.0124	9213.45	8314.7
940.5524	2103.5511	9190.15	8297.5
940.6885	2105.089	9171.1	8277.55
940.8245	2106.6261	9136.75	8246.25
940.9606	2108.1626	9092.75	8202.7
941.0965	2109.6983	9092.4	8173.4
941.2325	2111.2332	9081.85	8189.45
941.3684	2112.7675	9078.15	8184.55
941.5044	2114.301	9030	8136.8
941.6403	2115.8337	9031.45	8137.8
941.7761	2117.3657	8996.05	8103.65
941.912	2118.897	8962.2	8068.85
942.0478	2120.4276	8929.3	8030.4
942.1835	2121.9575	8918.1	8022.45
942.3193	2123.4866	8920.6	8024.7
942.455	2125.0149	8900.5	8004.15
942.5907	2126.5426	8822.45	7933.35
942.7264	2128.0695	8827.45	7937.4
942.8621	2129.5956	8786.4	7902
942.9977	2131.1211	8782.25	7888.15
943.1333	2132.6458	8759	7867.25
943.2689	2134.1698	8726.55	7833.5
943.4044	2135.693	8713.1	7815.85
943.54	2137.2155	8681.95	7786.95
943.6755	2138.7373	8673.95	7782.1
943.8109	2140.2584	8643	7753.5
943.9464	2141.7787	8597.7	7704.75
944.0818	2143.2983	8578.2	7690.15
944.2172	2144.8171	8552.6	7665.75
944.3526	2146.3353	8524.8	7635.35
944.4879	2147.8527	8482.1	7592.45
944.6232	2149.3693	8484.9	7591.75
944.7585	2150.8853	8459.3	7565.5
944.8938	2152.4005	8430.2	7536.8
945.029	2153.9149	8421.8	7527.85
945.1642	2155.4287	8457.5	7466.1
945.2994	2156.9417	8403.55	7508.6
945.4346	2158.454	8364.45	7473.6
945.5697	2159.9655	8339.4	7450.95
945.7048	2161.4764	8296.8	7407.5
945.8399	2162.9865	8282.25	7391.8
945.9749	2164.4958	8271.15	7381.4
946.1099	2166.0045	8236	7343.2
946.2449	2167.5124	8237.15	7346.25
946.3799	2169.0195	8223.9	7332.2
946.5148	2170.526	8214.85	7323.2
946.6498	2172.0317	8177.2	7285.1
946.7846	2173.5367	8128.85	7236.8
946.9195	2175.0409	8123.15	7233.35
947.0543	2176.5445	8120.4	7229.05
947.1891	2178.0473	8106.1	7213.45
947.3239	2179.5494	8069.45	7172.75
947.4587	2181.0507	8032.1	7141.15
947.5934	2182.5513	8024.1	7132.3
947.7281	2184.0512	8005.25	7113.8
947.8628	2185.5504	7994.1	7102.05
947.9974	2187.0488	7947.45	7058
948.132	2188.5465	7923	7032.55
948.2666	2190.0435	7892.5	7002.4
948.4012	2191.5397	7874.25	6983.65
948.5357	2193.0353	7844.45	6951.8
948.6702	2194.5301	7818.15	6921.3
948.8047	2196.0241	7795.55	6898.2
948.9392	2197.5175	7765.6	6870.1
949.0736	2199.0101	7741.75	6842.9
949.208	2200.502	7717.9	6828.2
949.3424	2201.9931	7690.85	6800.85
949.4767	2203.4835	7664.25	6774.05
949.611	2204.9733	7656.1	6751.85
949.7453	2206.4622	7626.75	6738.75
949.8796	2207.9505	7589.1	6698.3
950.0138	2209.438	7578.7	6692.4
950.148	2210.9248	7547.75	6657.6
950.2822	2212.4109	7519.15	6629.6
950.4164	2213.8962	7491.5	6596.1
950.5505	2215.3809	7478.3	6580.6
950.6846	2216.8648	7456.15	6559.75
950.8186	2218.3479	7455.55	6556.9
950.9527	2219.8304	7419.4	6519.6
951.0867	2221.3121	7398.9	6501.3
951.2207	2222.7931	7366.9	6472.55
951.3546	2224.2733	7330.4	6434.15
951.4886	2225.7529	7317.2	6424.15
951.6225	2227.2317	7293.45	6400.15
951.7563	2228.7098	7284.5	6396.4
951.8902	2230.1872	7253.45	6364.55
952.024	2231.6638	7254.45	6367.45
952.1578	2233.1397	7188.6	6296.4
952.2916	2234.6149	7189.1	6298.4
952.4253	2236.0894	7193.1	6299.85
952.559	2237.5632	7185.3	6293.2
952.6927	2239.0362	7143.4	6252.55
952.8263	2240.5085	7105.4	6212.45
952.9599	2241.9801	7082.6	6192.05
953.0935	2243.4509	7070.9	6176.95
953.2271	2244.921	7072.7	6177.1
953.3606	2246.3904	7039	6143.85
953.4941	2247.8591	7005.05	6110.85
953.6276	2249.3271	6990.55	6098.55
953.7611	2250.7943	6942.95	6049
953.8945	2252.2608	6935.4	6041.65
954.0279	2253.7266	6905.35	6011.45
954.1612	2255.1917	6896.85	6003.4
954.2946	2256.656	6870.55	5977.65
954.4279	2258.1197	6860.6	5970.4
954.5612	2259.5826	6864.15	5971.8
954.6944	2261.0447	6849.15	5956.25
954.8276	2262.5062	6817.3	5921.9
954.9608	2263.9669	6804.05	5906.3
955.094	2265.4269	6778.4	5885.5
955.2271	2266.8862	6771.1	5879.2
955.3602	2268.3448	6757.2	5867.1
955.4933	2269.8026	6740.6	5849.2
955.6264	2271.2598	6733.2	5842.05
955.7594	2272.7162	6706.3	5815.4
955.8924	2274.1719	6696.95	5803.55
956.0253	2275.6268	6674.7	5781.55
956.1583	2277.0811	6667.6	5771.6
956.2912	2278.5346	6640.4	5747.7
956.4241	2279.9874	6628.35	5738.55
956.5569	2281.4395	6609.85	5720.25
956.6897	2282.8908	6584.8	5690.1
956.8225	2284.3414	6579.1	5685.5
956.9553	2285.7914	6551.3	5656.9
957.088	2287.2406	6552.8	5659
957.2207	2288.689	6509.45	5615
957.3534	2290.1368	6504.6	5603
957.486	2291.5838	6493.1	5593.35
957.6186	2293.0302	6483.3	5583.25
957.7512	2294.4758	6446.75	5550.2
957.8838	2295.9206	6429.5	5534.2
958.0163	2297.3648	6397.6	5505.45
958.1488	2298.8082	6410.8	5516.25
958.2813	2300.251	6380.35	5484.15
958.4137	2301.693	6357.4	5459.8
958.5461	2303.1343	6361.1	5466.95
958.6785	2304.5748	6351.65	5458
958.8108	2306.0147	6303	5411.6
958.9432	2307.4538	6298.35	5405.45
959.0754	2308.8922	6294.8	5404.5
959.2077	2310.3299	6268.9	5378.4
959.3399	2311.7669	6238.25	5348.4
959.4721	2313.2031	6216.45	5322.75
959.6043	2314.6387	6194.6	5301.9
959.7365	2316.0735	6179.75	5288.55
959.8686	2317.5076	6171.6	5277.2
960.0006	2318.941	6158.55	5264.5
960.1327	2320.3737	6138.15	5242.35
960.2647	2321.8056	6141.8	5244.8
960.3967	2323.2369	6093.55	5197.7
960.5287	2324.6674	6101.05	5204.9
960.6606	2326.0972	6059.5	5164.7
960.7925	2327.5263	6044.4	5154.2
960.9244	2328.9547	6032.05	5139.45
961.0562	2330.3823	6008.7	5111.7
961.1881	2331.8092	6014.2	5116.75
961.3198	2333.2355	5981.35	5084.2
961.4516	2334.661	5968.2	5073.35
961.5833	2336.0858	5971.05	5074.1
961.715	2337.5098	5962.35	5066.2
961.8467	2338.9332	5954.4	5060.2
961.9783	2340.3558	5907.55	5013.25
962.1099	2341.7778	5900.2	5007.95
962.2415	2343.199	5868.35	4975
962.373	2344.6195	5887.55	4993.9
962.5045	2346.0393	5842.4	4951.9
962.636	2347.4583	5851.25	4955.8
962.7675	2348.8767	5818.35	4923.1
962.8989	2350.2943	5810.7	4915.25
963.0303	2351.7113	5803.55	4908.1
963.1617	2353.1275	5780.35	4882.7
963.293	2354.543	5798.05	4877.25
963.4243	2355.9578	5758.3	4864.8
963.5556	2357.3718	5699.55	4805.85
963.6868	2358.7852	5694.7	4801.3
963.818	2360.1978	5689.45	4795.3
963.9492	2361.6098	5680.35	4786.1
964.0803	2363.021	5677.45	4778.95
964.2114	2364.4315	5657.5	4761.85
964.3425	2365.8413	5617.05	4722.45
964.4736	2367.2504	5611.35	4720.5
964.6046	2368.6587	5588.25	4696.85
964.7356	2370.0664	5562.95	4673.15
964.8666	2371.4733	5556.55	4660.15
964.9975	2372.8795	5546.35	4652.6
965.1284	2374.285	5515.5	4621.55
965.2593	2375.6899	5492.7	4600.35
965.3901	2377.0939	5476.75	4584.55
965.5209	2378.4973	5463.8	4573.1
965.6517	2379.9	5457.2	4564.3
965.7825	2381.3019	5437.7	4545.25
965.9132	2382.7032	5403.6	4514
966.0439	2384.1037	5391.8	4502.8
966.1745	2385.5035	5392.35	4503.35
966.3051	2386.9027	5360.1	4471.15
966.4357	2388.3011	5358.15	4463.6
966.5663	2389.6987	5339.95	4447.3
966.6968	2391.0957	5325.15	4434.45
966.8273	2392.492	5300.45	4408.25
966.9578	2393.8876	5273	4382.7
967.0882	2395.2824	5276.95	4384.4
967.2186	2396.6765	5236.95	4345.95
967.349	2398.07	5229.8	4337.15
967.4793	2399.4627	5235.3	4340.95
967.6097	2400.8547	5203.8	4307.8
967.7399	2402.246	5206	4306.45
967.8702	2403.6366	5173.2	4280.8
968.0004	2405.0265	5156.8	4268.5
968.1306	2406.4156	5128.85	4233.5
968.2607	2407.8041	5113.05	4218.5
968.3909	2409.1918	5093.8	4198.3
968.521	2410.5789	5078.75	4185.25
968.651	2411.9652	5070.45	4174.45
968.781	2413.3508	5065.85	4171.9
968.911	2414.7358	5032.5	4139.15
969.041	2416.12	5021.35	4130.15
969.1709	2417.5035	5007.15	4113.95
969.3008	2418.8863	4985.95	4091.6
969.4307	2420.2684	4988.5	4095.65
969.5606	2421.6497	4973.5	4079.25
969.6904	2423.0304	4949.2	4057.2
969.8201	2424.4104	4922.65	4028.6
969.9499	2425.7896	4891.6	3997.3
970.0796	2427.1682	4897.15	4005.9
970.2093	2428.546	4904.65	4010.2
970.3389	2429.9232	4895.65	3999.95
970.4685	2431.2996	4865	3970.95
970.5981	2432.6753	4848.1	3954.25
970.7277	2434.0503	4841.25	3948.6
970.8572	2435.4246	4823.05	3929.3
970.9867	2436.7982	4804.85	3909.9
971.1161	2438.1711	4801.25	3907.5
971.2456	2439.5433	4783.3	3889.75
971.375	2440.9148	4768.4	3870.1
971.5043	2442.2856	4742.05	3849.2
971.6336	2443.6557	4728.55	3834.85
971.7629	2445.025	4715.65	3822.6
971.8922	2446.3937	4719.05	3825.1
972.0214	2447.7617	4693.35	3798.65
972.1506	2449.1289	4693.65	3801.05
972.2798	2450.4955	4665.45	3768.9
972.4089	2451.8613	4642.7	3751.1
972.538	2453.2265	4635.9	3743.25
972.6671	2454.5909	4647.8	3754.1
972.7961	2455.9546	4630.6	3736.3
972.9251	2457.3177	4606.95	3713.85
973.0541	2458.68	4598.7	3705.9
973.1831	2460.0416	4608.1	3715.95
973.312	2461.4025	4593.95	3699.65
973.4408	2462.7627	4569.8	3664.95
973.5697	2464.1222	4573.25	3681.5
973.6985	2465.4811	4569.85	3678.5
973.8273	2466.8392	4533.8	3642.95
973.956	2468.1966	4520.25	3626.6
974.0847	2469.5533	4540.8	3644.9
974.2134	2470.9093	4510.2	3616.8
974.3421	2472.2645	4514.3	3622.45
974.4707	2473.6191	4485.15	3593.5
974.5993	2474.973	4483.3	3590.8
974.7278	2476.3262	4465.75	3571.75
974.8563	2477.6787	4453.9	3560.7
974.9848	2479.0305	4421.35	3530.95
975.1132	2480.3816	4412.75	3519
975.2417	2481.7319	4409.5	3517.85
975.37	2483.0816	4395.9	3503.5
975.4984	2484.4306	4375.85	3484.45
975.6267	2485.7789	4375.6	3485.1
975.755	2487.1264	4359.8	3468.15
975.8833	2488.4733	4325.35	3434.35
976.0115	2489.8195	4334.65	3424.65
976.1397	2491.165	4313.95	3418.15
976.2678	2492.5097	4297.75	3405.5
976.3959	2493.8538	4276.1	3385.3
976.524	2495.1972	4265.1	3371.7
976.6521	2496.5398	4249.95	3355.75
976.7801	2497.8818	4244.55	3347.85
976.9081	2499.2231	4227.2	3333.15
977.036	2500.5637	4212.6	3316.95
977.164	2501.9035	4227.45	3330.65
977.2918	2503.2427	4205.25	3308.4
977.4197	2504.5812	4190.05	3296.2
977.5475	2505.919	4176.3	3282.15
977.6753	2507.256	4169.05	3275.65
977.8031	2508.5924	4143.95	3250.9
977.9308	2509.9281	4143.65	3244.5
978.0585	2511.2631	4127.7	3238.55
978.1861	2512.5974	4113.4	3220.7
978.3137	2513.9309	4109.4	3217
978.4413	2515.2638	4134.15	3212.7
978.5689	2516.596	4081.55	3189.35
978.6964	2517.9275	4070.2	3176.45
978.8239	2519.2583	4052.3	3159
978.9513	2520.5884	4047.65	3154.8
979.0788	2521.9178	4030.25	3137.2
979.2062	2523.2465	4024.1	3133.2
979.3335	2524.5745	3999.6	3107.9
979.4608	2525.9018	3992.55	3099.7
979.5881	2527.2284	4000.35	3108.7
979.7154	2528.5543	3993.65	3101.8
979.8426	2529.8796	3986.25	3093.8
979.9698	2531.2041	3968.9	3076.15
980.0969	2532.5279	3950	3059.75
980.224	2533.851	3964.55	3070.55
980.3511	2535.1735	3950	3057.65
980.4781	2536.4952	3930.25	3037.4
980.6052	2537.8163	3912	3018.8
980.7321	2539.1366	3914.45	3019.6
980.8591	2540.4562	3909.5	3014.1
980.986	2541.7752	3897.75	3005.6
981.1129	2543.0935	3883.65	2990.55
981.2397	2544.411	3896.95	3003.05
981.3665	2545.7279	3881	2987.6
981.4933	2547.0441	3882.4	2987.7
981.62	2548.3596	3873.5	2977.2
981.7467	2549.6744	3867.9	2977
981.8734	2550.9885	3861.75	2967.95
982.0001	2552.3019	3845.85	2952.15
982.1267	2553.6146	3832.5	2938.75
982.2532	2554.9266	3842.6	2948.5
982.3798	2556.2379	3832.65	2938.45
982.5063	2557.5485	3801.4	2910.85
982.6327	2558.8585	3817.3	2918.25
982.7592	2560.1677	3800.1	2903.25
982.8856	2561.4762	3792.25	2899.4
983.0119	2562.7841	3770.5	2875.65
983.1383	2564.0913	3769.05	2876.05
983.2646	2565.3977	3765.9	2872.75
983.3908	2566.7035	3760.1	2867.05
983.517	2568.0086	3769.8	2877.9
983.6432	2569.313	3763.7	2867.7
983.7694	2570.6167	3742.35	2845.9
983.8955	2571.9197	3726.95	2833.25
984.0216	2573.222	3726.85	2831.25
984.1476	2574.5236	3716.3	2820.95
984.2737	2575.8246	3714.45	2819.95
984.3996	2577.1248	3715.95	2821.6
984.5256	2578.4244	3699.1	2807.8
984.6515	2579.7232	3686.7	2795.25
984.7774	2581.0214	3712.9	2789.85
984.9032	2582.3189	3694.55	2802.6
985.029	2583.6157	3684.2	2786.6
985.1548	2584.9118	3672.6	2779.95
985.2806	2586.2072	3663.3	2770.25
985.4063	2587.5019	3650.45	2758.55
985.5319	2588.7959	3653.55	2758.6
985.6576	2590.0893	3643.7	2746.45
985.7832	2591.3819	3632.15	2740.15
985.9087	2592.6739	3615.1	2720.25
986.0343	2593.9652	3608.35	2713.15
986.1597	2595.2557	3607.6	2713.65
986.2852	2596.5456	3596.2	2700.75
986.4106	2597.8348	3587.65	2695.55
986.536	2599.1234	3572.35	2678.7
986.6614	2600.4112	3570.2	2679.6
986.7867	2601.6983	3560.55	2665.25
986.912	2602.9848	3549.8	2657.8
987.0372	2604.2705	3543.1	2645.35
987.1624	2605.5556	3548.75	2654.55
987.2876	2606.84	3519.7	2625.85
987.4128	2608.1237	3503.9	2611.1
987.5379	2609.4067	3497	2604.5
987.6629	2610.689	3492.6	2592.55
987.788	2611.9707	3471.95	2575.75
987.913	2613.2516	3465.35	2569.9
988.0379	2614.5319	3454.45	2562.3
988.1629	2615.8115	3445.25	2553.15
988.2878	2617.0903	3430.95	2539.9
988.4126	2618.3685	3416.6	2521.5
988.5375	2619.6461	3419	2525.5
988.6622	2620.9229	3392.85	2499.7
988.787	2622.199	3387.95	2496.5
988.9117	2623.4745	3392.7	2501.5
989.0364	2624.7493	3373.75	2484.5
989.161	2626.0234	3367.25	2478.05
989.2857	2627.2968	3366.75	2473.1
989.4102	2628.5695	3346	2453.95
989.5348	2629.8415	3335.25	2443.75
989.6593	2631.1128	3345.15	2451.4
989.7837	2632.3835	3315.8	2425.05
989.9082	2633.6535	3321.45	2428.9
990.0326	2634.9228	3305.4	2414.1
990.1569	2636.1914	3296.05	2406
990.2812	2637.4593	3293.85	2399.6
990.4055	2638.7265	3290.5	2396.85
990.5298	2639.9931	3275.3	2384.65
990.654	2641.259	3264.35	2370.45
990.7782	2642.5242	3241.8	2349.75
990.9023	2643.7887	3245.15	2352.15
991.0264	2645.0525	3234.05	2341
991.1505	2646.3156	3255.7	2347.75
991.2745	2647.5781	3231.1	2340.75
991.3985	2648.8398	3209.5	2319.45
991.5225	2650.1009	3229.45	2313.4
991.6464	2651.3613	3200.2	2308.4
991.7703	2652.6211	3189.2	2296.55
991.8942	2653.8801	3167.6	2277.95
992.018	2655.1385	3170.05	2275.2
992.1418	2656.3961	3163.4	2270.65
992.2655	2657.6531	3162.15	2271.7
992.3892	2658.9094	3151.7	2259.15
992.5129	2660.1651	3163.4	2272.8
992.6366	2661.42	3150.65	2259.65
992.7602	2662.6743	3155.15	2266.05
992.8837	2663.9279	3137.95	2247.4
993.0073	2665.1808	3141.45	2250.15
993.1307	2666.433	3136.3	2244.75
993.2542	2667.6846	3122.45	2229.65
993.3776	2668.9354	3117.05	2221.6
993.501	2670.1856	3117.3	2225.4
993.6244	2671.4351	3115.95	2226.15
993.7477	2672.6839	3116.65	2226.05
993.8709	2673.9321	3098.55	2207.55
993.9942	2675.1795	3100.9	2213.25
994.1174	2676.4263	3089.05	2198.15
994.2405	2677.6724	3076.8	2185.6
994.3637	2678.9179	3087.35	2195.75
994.4868	2680.1626	3078.45	2185.55
994.6098	2681.4067	3073.9	2183.85
994.7328	2682.6501	3064	2171.7
994.8558	2683.8928	3044.25	2155.1
994.9788	2685.1348	3033.45	2142.4
995.1017	2686.3761	3044.7	2153.85
995.2245	2687.6168	3017.8	2128.05
995.3474	2688.8568	3012.7	2122.45
995.4702	2690.0961	3004.35	2114.15
995.5929	2691.3348	3000.7	2109.2
995.7156	2692.5727	2983.8	2090.95
995.8383	2693.81	2969.8	2079.25
995.961	2695.0466	2970.3	2081.05
996.0836	2696.2826	2973.8	2082.05
996.2062	2697.5178	2982.1	2087.85
996.3287	2698.7524	2970.45	2080.35
996.4512	2699.9863	2966.7	2075.4
996.5737	2701.2195	2951	2061.1
996.6961	2702.452	2946.35	2055.25
996.8185	2703.6839	2955.2	2061.75
996.9408	2704.9151	2936.25	2045.95
997.0631	2706.1456	2928.65	2037.8
997.1854	2707.3755	2938.75	2045.3
997.3077	2708.6046	2935.2	2041.7
997.4299	2709.8331	2941.75	2052.25
997.552	2711.0609	2941.15	2049.1
997.6742	2712.2881	2933.5	2042.35
997.7963	2713.5145	2940.8	2050.25
997.9183	2714.7403	2916	2025.3
998.0403	2715.9654	2920.7	2029.9
998.1623	2717.1899	2944.9	2038.85
998.2842	2718.4136	2929.75	2039.7
998.4062	2719.6367	2938.25	2048.95
998.528	2720.8591	2946.6	2048.9
998.6498	2722.0809	2934.05	2044.6
998.7716	2723.3019	2950.15	2055.15
998.8934	2724.5223	2957.05	2066.7
999.0151	2725.7421	2948.25	2057.05
999.1368	2726.9611	2943.85	2050.15
999.2584	2728.1795	2932.15	2038.45
999.38	2729.3972	2926.55	2035.95
999.5016	2730.6142	2905.85	2008.7
999.6231	2731.8306	2878.9	1986.5
999.7446	2733.0462	2861.35	1969.85
999.8661	2734.2612	2848.45	1953.05
999.9875	2735.4756	2836	1943.75
1000.1089	2736.6892	2796.05	1904.55
1000.2302	2737.9022	2782.95	1894.1
1000.3515	2739.1145	2769.35	1878.5
1000.4728	2740.3262	2754.65	1858.8
1000.594	2741.5372	2743.15	1854.2
1000.7152	2742.7475	2724.05	1832.45
1000.8363	2743.9571	2723.75	1834.05
1000.9575	2745.1661	2717	1821.95
1001.0785	2746.3744	2699.75	1809
1001.1996	2747.582	2681.7	1792.45
1001.3206	2748.7889	2670.65	1780.1
1001.4415	2749.9952	2659.45	1769.95
1001.5625	2751.2008	2652.3	1763.25
1001.6833	2752.4057	2648.45	1755.2
1001.8042	2753.61	2632.6	1743.1
1001.925	2754.8136	2629.4	1736.85
1002.0458	2756.0165	2612.05	1722.25
1002.1665	2757.2188	2611.35	1721.1
1002.2872	2758.4204	2600.15	1711.3
1002.4078	2759.6213	2591.15	1699.2
1002.5285	2760.8215	2588.05	1693.7
1002.649	2762.0211	2595.8	1704.85
1002.7696	2763.22	2584.25	1691.25
1002.8901	2764.4182	2582.95	1691.75
1003.0106	2765.6158	2571.15	1682.75
1003.131	2766.8127	2563.55	1672.8
1003.2514	2768.009	2551.75	1664.75
1003.3717	2769.2045	2558.35	1667.05
1003.492	2770.3994	2544.65	1651.95
1003.6123	2771.5936	2542.75	1653.75
1003.7325	2772.7872	2530.9	1643
1003.8527	2773.9801	2519.7	1628.3
1003.9729	2775.1723	2525.75	1619
1004.093	2776.3639	2508.6	1619.5
1004.2131	2777.5548	2499	1609.1
1004.3331	2778.745	2490.45	1599.15
1004.4531	2779.9346	2483.05	1595.8
1004.5731	2781.1235	2491.45	1601
1004.693	2782.3117	2489.3	1600.9
1004.8129	2783.4992	2486.8	1597.25
1004.9328	2784.6861	2479.35	1590.55
1005.0526	2785.8723	2476.35	1586.05
1005.1723	2787.0579	2475.95	1587.8
1005.2921	2788.2428	2472.35	1580.2
1005.4118	2789.427	2477.1	1588.6
1005.5314	2790.6106	2461.15	1572.15
1005.651	2791.7935	2474.45	1585
1005.7706	2792.9757	2466.8	1578.3
1005.8902	2794.1573	2459.6	1568.45
1006.0097	2795.3382	2472.85	1585.5
1006.1291	2796.5184	2489.2	1600.1
1006.2485	2797.698	2479.25	1590
1006.3679	2798.8769	2492.85	1603.5
1006.4873	2800.0551	2487.25	1597.55
1006.6066	2801.2327	2485.75	1596
1006.7258	2802.4096	2503.35	1616.2
1006.8451	2803.5859	2508.95	1619.7
1006.9642	2804.7615	2526.1	1636.2
1007.0834	2805.9364	2528.85	1638.5
1007.2025	2807.1106	2552.9	1664.05
1007.3216	2808.2842	2571.35	1682.25
1007.4406	2809.4572	2585.1	1696.35
1007.5596	2810.6294	2621.2	1732.2
1007.6785	2811.801	2632.7	1744.25
1007.7975	2812.972	2657.1	1770.3
1007.9163	2814.1423	2685.2	1796.3
1008.0352	2815.3119	2721.9	1832.75
1008.154	2816.4808	2753.45	1866.6
1008.2727	2817.6491	2796.25	1907.4
1008.3914	2818.8167	2832.85	1945.35
1008.5101	2819.9837	2882.1	1987.9
1008.6288	2821.15	2902.25	2013.85
1008.7474	2822.3157	2963	2076.2
1008.8659	2823.4807	3005.05	2115.1
1008.9844	2824.645	3046.15	2156.2
1009.1029	2825.8086	3093.6	2205
1009.2214	2826.9716	3137.8	2253.15
1009.3398	2828.134	3187.6	2298.15
1009.4581	2829.2957	3220.85	2331.75
1009.5764	2830.4567	3223	2336.05
1009.6947	2831.617	3255.05	2365.45
1009.813	2832.7767	3271.95	2385.5
1009.9312	2833.9358	3270.75	2385.35
1010.0493	2835.0941	3258.85	2368.5
1010.1675	2836.2519	3237.5	2347.9
1010.2855	2837.4089	3232.35	2342
1010.4036	2838.5653	3204.7	2317.25
1010.5216	2839.7211	3188.55	2301.85
1010.6396	2840.8761	3172.75	2283.2
1010.7575	2842.0306	3197.6	2310
1010.8754	2843.1843	3212.8	2326.05
1010.9932	2844.3374	3217.2	2330.9
1011.111	2845.4899	3280.25	2390
1011.2288	2846.6417	3316.55	2429.4
1011.3465	2847.7928	3363	2476.35
1011.4642	2848.9433	3397	2509.3
1011.5818	2850.0931	3455.55	2568.5
1011.6995	2851.2422	3517.4	2626.8
1011.817	2852.3907	3564.05	2673.45
1011.9345	2853.5385	3601.7	2713.1
1012.052	2854.6857	3643.85	2747.2
1012.1695	2855.8323	3679.15	2789.55
1012.2869	2856.9781	3707.5	2819.8
1012.4042	2858.1233	3745.3	2857.5
1012.5216	2859.2679	3792.75	2906.35
1012.6389	2860.4118	3825.45	2937.4
1012.7561	2861.555	3869.55	2976.1
1012.8733	2862.6976	3894.5	3006.1
1012.9905	2863.8395	3934.35	3047.05
1013.1076	2864.9808	3963.65	3077.35
1013.2247	2866.1214	3963.05	3076.5
1013.3417	2867.2614	3994.35	3105.7
1013.4587	2868.4007	3987.3	3098.75
1013.5757	2869.5393	4003.7	3112.5
1013.6926	2870.6773	4007.35	3117.05
1013.8095	2871.8146	4017.55	3125.4
1013.9263	2872.9513	4015.2	3127.95
1014.0431	2874.0874	3994.25	3106.5
1014.1599	2875.2227	3983.05	3094.6
1014.2766	2876.3574	3949.4	3061.5
1014.3933	2877.4915	3924.2	3038.9
1014.51	2878.6249	3916.65	3030.55
1014.6266	2879.7577	3880.85	2992.25
1014.7431	2880.8898	3863.5	2967.1
1014.8596	2882.0212	3846.8	2957.8
1014.9761	2883.152	3826.85	2940.4
1015.0925	2884.2821	3810.2	2925.55
1015.2089	2885.4116	3808.15	2923.25
1015.3253	2886.5405	3808.05	2920.9
1015.4416	2887.6686	3818.9	2931.45
1015.5579	2888.7962	3806.35	2918.85
1015.6741	2889.923	3806.55	2923.05
1015.7903	2891.0493	3819.75	2933.65
1015.9065	2892.1748	3830.5	2941
1016.0226	2893.2997	3805.15	2919.45
1016.1387	2894.424	3827.6	2942.65
1016.2547	2895.5476	3829.75	2943.3
1016.3707	2896.6706	3872.55	2986.7
1016.4866	2897.7929	3876.95	2990.65
1016.6025	2898.9145	3894.3	3007.1
1016.7184	2900.0355	3909.4	3023
1016.8342	2901.1559	3933.35	3044.2
1016.95	2902.2756	3960.7	3074.95
1017.0658	2903.3946	3977.25	3092.8
1017.1815	2904.513	3986.9	3096.55
1017.2971	2905.6308	4012.6	3127.75
1017.4127	2906.7479	4026.5	3140.1
1017.5283	2907.8643	4054.45	3166.7
1017.6439	2908.9801	4050.95	3166.4
1017.7594	2910.0953	4052.95	3165.5
1017.8748	2911.2098	4064.55	3174.3
1017.9902	2912.3236	4055.55	3158.6
1018.1056	2913.4368	4019	3130.2
1018.2209	2914.5494	4020	3132.45
1018.3362	2915.6613	3991.7	3101.25
1018.4515	2916.7725	3963	3073.25
1018.5667	2917.8831	3921.85	3034.7
1018.6819	2918.9931	3914.4	3026.75
1018.797	2920.1024	3864.85	2977.6
1018.9121	2921.211	3844.1	2958.85
1019.0271	2922.319	3835.2	2948.75
1019.1421	2923.4264	3811.65	2924.3
1019.2571	2924.5331	3803.7	2919.6
1019.372	2925.6391	3799.55	2911.75
1019.4869	2926.7445	3784.95	2898.55
1019.6017	2927.8493	3789.35	2902.55
1019.7165	2928.9534	3782.85	2897.6
1019.8313	2930.0569	3786.6	2897.4
1019.946	2931.1597	3774.1	2888.3
1020.0606	2932.2619	3793.4	2905.45
1020.1753	2933.3634	3783.6	2900.55
1020.2899	2934.4643	3803.65	2910.9
1020.4044	2935.5645	3773.6	2878.2
1020.5189	2936.6641	3760.1	2869.6
1020.6334	2937.763	3723.4	2837.7
1020.7478	2938.8613	3684.25	2799.25
1020.8622	2939.959	3661.55	2768.45
1020.9765	2941.056	3589.6	2702.5
1021.0908	2942.1523	3533.15	2644.4
1021.2051	2943.248	3458.6	2570.1
1021.3193	2944.3431	3386.5	2500.85
1021.4334	2945.4375	3295	2406.4
1021.5476	2946.5313	3211.7	2324.85
1021.6617	2947.6244	3131.3	2243.3
1021.7757	2948.7169	3039.95	2155.35
1021.8897	2949.8087	2959.4	2072.65
1022.0037	2950.8999	2886.4	1998.9
1022.1176	2951.9904	2821.85	1935.75
1022.2315	2953.0803	2749.75	1863.5
1022.3453	2954.1696	2697.7	1811.85
1022.4591	2955.2582	2637.1	1753.05
1022.5728	2956.3462	2601.1	1714.8
1022.6865	2957.4335	2572.25	1684.85
1022.8002	2958.5202	2531	1643.1
1022.9138	2959.6062	2514.55	1628.25
1023.0274	2960.6916	2481	1595.6
1023.141	2961.7764	2474.05	1588.65
1023.2545	2962.8605	2434.95	1548.4
1023.3679	2963.9439	2432.3	1547.05
1023.4813	2965.0267	2413	1524.1
1023.5947	2966.1089	2427.7	1518.3
1023.708	2967.1905	2398.75	1513.9
1023.8213	2968.2714	2400	1512.45
1023.9346	2969.3516	2385.65	1500.85
1024.0478	2970.4312	2406.45	1512.55
1024.1609	2971.5102	2394.7	1507.8
1024.274	2972.5885	2384.5	1500.25
1024.3871	2973.6662	2399.35	1506.45
1024.5002	2974.7432	2381.65	1495.4
1024.6132	2975.8196	2386.5	1503.15
1024.7261	2976.8954	2379.75	1494.5
1024.839	2977.9705	2363.7	1476.5
1024.9519	2979.045	2353.8	1468.8
1025.0647	2980.1188	2346.8	1462
1025.1775	2981.192	2324.55	1440.7
1025.2902	2982.2645	2312.8	1425.85
1025.4029	2983.3364	2285.75	1399.2
1025.5156	2984.4077	2265.65	1380.95
1025.6282	2985.4783	2243.3	1353.9
1025.7407	2986.5483	2216.6	1332.65
1025.8532	2987.6177	2174.3	1289.7
1025.9657	2988.6864	2143.65	1258.25
1026.0782	2989.7545	2115.95	1230
1026.1906	2990.8219	2103.55	1217.7
1026.3029	2991.8887	2065.85	1178.35
1026.4152	2992.9548	2038.45	1153
1026.5275	2994.0204	1999.15	1115.9
1026.6397	2995.0852	1970.35	1085.8
1026.7519	2996.1495	1958.35	1072.15
1026.864	2997.2131	1927.15	1042.35
1026.9761	2998.276	1898.8	1013
1027.0882	2999.3383	1882.2	996.45
1027.2002	3000.4	1865.15	977.05
1027.3122	3001.4611	1842.8	960.2
1027.4241	3002.5215	1822.85	936.8
1027.536	3003.5812	1805.75	919.2
1027.6478	3004.6404	1792.45	905.2
1027.7596	3005.6989	1787.8	899.2
1027.8714	3006.7567	1768.4	883.85
1027.9831	3007.8139	1783.55	877.2
1028.0947	3008.8705	1757.8	872.5
1028.2064	3009.9264	1759	855.75
1028.3179	3010.9818	1731.65	846.4
1028.4295	3012.0364	1730.45	844.45
1028.541	3013.0905	1723.1	837.85
1028.6524	3014.1439	1719.35	834.8
1028.7638	3015.1966	1714.95	831.15
1028.8752	3016.2487	1707.1	821.55
1028.9865	3017.3002	1703.7	816.9
1029.0978	3018.3511	1690	805.75
1029.209	3019.4013	1690.25	803.6
1029.3202	3020.4509	1696.95	813.25
1029.4314	3021.4998	1687.3	802.65
1029.5425	3022.5481	1675.65	789.65
1029.6535	3023.5958	1678.7	793.75
1029.7645	3024.6428	1680.8	792
1029.8755	3025.6892	1669.5	783.6
1029.9864	3026.735	1669.65	784
1030.0973	3027.7802	1667.25	781.1
1030.2082	3028.8247	1664.95	781.2
1030.319	3029.8685	1664.2	778.15
1030.4297	3030.9118	1670.95	786.85
1030.5404	3031.9544	1661.6	778
1030.6511	3032.9963	1667.75	780.9
1030.7617	3034.0376	1666.25	781.35
1030.8723	3035.0783	1664.5	775.35
1030.9829	3036.1184	1666.9	780.7
1031.0934	3037.1578	1658.65	773.95
1031.2038	3038.1966	1671.1	784.5
1031.3142	3039.2348	1661.1	775.55
1031.4246	3040.2723	1669.9	774.95
1031.5349	3041.3092	1652.6	767
1031.6452	3042.3455	1656	771.2
1031.7554	3043.3811	1657.75	771.4
1031.8656	3044.4161	1654.3	768.55
1031.9758	3045.4505	1646.5	764.35
1032.0859	3046.4842	1638	753.6
1032.1959	3047.5173	1642.15	757.1
1032.3059	3048.5498	1631.9	746.25
1032.4159	3049.5816	1632.95	746.6
1032.5258	3050.6128	1624	735.85
1032.6357	3051.6434	1622.5	735.95
1032.7455	3052.6734	1616.85	731.9
1032.8553	3053.7027	1617.35	732.55
1032.9651	3054.7314	1611.2	725.35
1033.0748	3055.7594	1594.7	709.55
1033.1845	3056.7868	1597.6	712.05
1033.2941	3057.8136	1601.3	717.5
1033.4037	3058.8398	1596	710.5
1033.5132	3059.8653	1581.7	696.35
1033.6227	3060.8902	1571.75	686.85
1033.7321	3061.9145	1580.45	694.05
1033.8415	3062.9381	1574.5	689.7
1033.9509	3063.9612	1593.1	691.15
1034.0602	3064.9835	1571.3	689.1
1034.1694	3066.0053	1561.6	676.5
1034.2787	3067.0264	1553.75	669.1
1034.3878	3068.0469	1554	669.75
1034.497	3069.0668	1545.75	657.65
1034.6061	3070.086	1536.9	654.05
1034.7151	3071.1046	1537.8	654.75
1034.8241	3072.1226	1522.35	635.4
1034.9331	3073.1399	1518.3	635.6
1035.042	3074.1567	1506.2	620.5
1035.1508	3075.1727	1509.3	622
1035.2597	3076.1882	1501.9	617.95
1035.3684	3077.203	1490.1	606.6
1035.4772	3078.2173	1482.2	598.55
1035.5859	3079.2308	1480	593.1
1035.6945	3080.2438	1467.35	580.5
1035.8031	3081.2561	1458.05	573.65
1035.9117	3082.2678	1451.3	566.7
1036.0202	3083.2789	1444.45	559.15
1036.1286	3084.2893	1446.1	562.6
1036.2371	3085.2991	1434.95	551
1036.3454	3086.3083	1434.7	546.75
1036.4538	3087.3169	1426.1	539.95
1036.562	3088.3248	1418.5	533.3
1036.6703	3089.3321	1416.65	530.15
1036.7785	3090.3388	1408.95	525.2
1036.8866	3091.3449	1408.2	525.65
1036.9948	3092.3503	1403.3	515.25
1037.1028	3093.3551	1395.15	512.85
1037.2108	3094.3593	1391.1	507.3
1037.3188	3095.3629	1383.4	499.65
1037.4267	3096.3658	1382.9	497.4
1037.5346	3097.3681	1380.15	493.35
1037.6425	3098.3698	1382.05	495.25
1037.7503	3099.3708	1375.95	486.35
1037.858	3100.3713	1364.55	479.35
1037.9657	3101.3711	1367.85	482.8
1038.0734	3102.3702	1500	476.85
1038.181	3103.3688	1370.45	483.55
1038.2886	3104.3667	1347.45	464.15
1038.3961	3105.364	1351.35	468.15
1038.5036	3106.3607	1347.7	462.45
1038.611	3107.3568	1347.3	460.9
1038.7184	3108.3522	1333.35	451.2
1038.8257	3109.347	1335.8	451
1038.933	3110.3412	1339.05	450.3
1039.0403	3111.3348	1336	451.7
1039.1475	3112.3277	1324.85	440
1039.2547	3113.32	1323.3	439.4
1039.3618	3114.3117	1320.95	436.55
1039.4689	3115.3028	1313	428.3
1039.5759	3116.2932	1318.85	433.45
1039.6829	3117.2831	1320.55	430.7
1039.7898	3118.2723	1309.45	425.7
1039.8967	3119.2608	1308	424.6
1040.0035	3120.2488	1304.1	420.2
1040.1103	3121.2361	1293.7	410.1
1040.2171	3122.2229	1293.8	410.45
1040.3238	3123.209	1295.15	407.95
1040.4305	3124.1944	1295.9	412.7
1040.5371	3125.1793	1290.75	402.85
1040.6437	3126.1635	1286.85	403.8
1040.7502	3127.1471	1276.2	391.65
1040.8567	3128.1301	1277.75	396.2
1040.9631	3129.1125	1272	388.9
1041.0695	3130.0942	1275.4	391.65
1041.1759	3131.0753	1288.25	393.45
1041.2822	3132.0558	1280	392.2
1041.3884	3133.0357	1269.05	384.2
1041.4946	3134.015	1269.85	384.4
1041.6008	3134.9936	1265.05	380.35
1041.7069	3135.9716	1282.8	378.75
1041.813	3136.949	1257.1	374
1041.919	3137.9258	1280.8	377.75
1042.025	3138.902	1266	376.95
1042.1309	3139.8775	1262.95	380.35
1042.2368	3140.8524	1258.85	374.6
1042.3427	3141.8267	1255.6	369.95
1042.4485	3142.8004	1251.3	365.95
1042.5542	3143.7735	1260	369.05
1042.6599	3144.7459	1253.15	367.55
1042.7656	3145.7178	1243.55	357.25
1042.8712	3146.689	1240.65	357.65
1042.9768	3147.6596	1239.4	352
1043.0823	3148.6295	1235.45	352.6
1043.1878	3149.5989	1235.5	349.65
1043.2932	3150.5676	1229.1	345.8
1043.3986	3151.5357	1228.85	346.2
1043.5039	3152.5032	1231.45	347.95
1043.6092	3153.4701	1226.95	341.45
1043.7145	3154.4364	1224.65	337.1
1043.8197	3155.402	1220.55	338.6
1043.9248	3156.367	1230.6	345.3
1044.03	3157.3315	1255.05	335.3
1044.135	3158.2952	1218	334.85
1044.24	3159.2584	1215.7	330.65
1044.345	3160.221	1214.35	328.3
1044.4499	3161.1829	1208.35	325.1
1044.5548	3162.1442	1203.85	319
1044.6596	3163.105	1206.1	321.8
1044.7644	3164.065	1203.05	320.25
1044.8692	3165.0245	1203.6	316.35
1044.9739	3165.9834	1201.3	319.05
1045.0785	3166.9416	1200.35	316.65
1045.1831	3167.8993	1201.35	317.3
1045.2877	3168.8563	1196.95	313.55
1045.3922	3169.8127	1190.8	306.05
1045.4966	3170.7684	1193.55	311.55
1045.6011	3171.7236	1196.3	313.75
1045.7054	3172.6782	1189.65	305
1045.8098	3173.6321	1178.3	293.9
1045.914	3174.5854	1191	301.85
1046.0183	3175.5381	1186.45	303.3
1046.1224	3176.4902	1180.85	298.45
1046.2266	3177.4417	1174.1	292.2
1046.3307	3178.3926	1175.75	291.95
1046.4347	3179.3428	1173	290.65
1046.5387	3180.2924	1169.3	288.3
1046.6427	3181.2415	1171.9	285.65
1046.7466	3182.1899	1177.6	290.6
1046.8504	3183.1377	1171.55	287
1046.9542	3184.0848	1171.15	284.85
1047.058	3185.0314	1164.85	282.9
1047.1617	3185.9773	1166.9	281.75
1047.2654	3186.9227	1169.9	282.7
1047.369	3187.8674	1162.45	278
1047.4726	3188.8115	1162.05	274.9
1047.5761	3189.755	1157.45	272.6
1047.6796	3190.6979	1158.75	275.2
1047.783	3191.6402	1153.1	270.25
1047.8864	3192.5818	1150.7	268.7
1047.9898	3193.5229	1157.4	267.6
1048.0931	3194.4633	1154.3	270.6
1048.1963	3195.4031	1147.95	263.6
1048.2995	3196.3423	1152.4	270.1
1048.4027	3197.2809	1146.9	261.2
1048.5058	3198.2189	1149.6	265.9
1048.6089	3199.1563	1148.65	259.25
1048.7119	3200.0931	1144.9	262.8
1048.8148	3201.0292	1143.45	260.5
1048.9178	3201.9648	1139.2	255.95
1049.0206	3202.8997	1145.85	259.95
1049.1235	3203.834	1137.4	254.35
1049.2262	3204.7677	1138.8	256.05
1049.329	3205.7008	1136.55	252.75
1049.4317	3206.6333	1134.5	251.25
1049.5343	3207.5652	1132.85	245.9
1049.6369	3208.4964	1135.5	251.8
1049.7394	3209.4271	1130.6	245.2
1049.8419	3210.3571	1127.15	243.65
1049.9444	3211.2865	1126.3	241.6
1050.0468	3212.2154	1126.45	243.75
1050.1491	3213.1436	1128.9	244.8
1050.2514	3214.0712	1130.35	239.9
1050.3537	3214.9982	1121.8	235.25
1050.4559	3215.9246	1127.45	243.7
1050.5581	3216.8503	1116.2	234.4
1050.6602	3217.7755	1122.95	239.35
1050.7623	3218.7001	1115.95	231.8
1050.8643	3219.624	1115.95	231.55
1050.9663	3220.5473	1113.7	230.25
1051.0682	3221.4701	1114.3	229.15
1051.1701	3222.3922	1114.55	229
1051.2719	3223.3137	1113.1	230.75
1051.3737	3224.2346	1110.65	226.9
1051.4754	3225.1549	1109.6	225.25
1051.5771	3226.0746	1103.45	220.5
1051.6788	3226.9937	1108.55	226.5
1051.7804	3227.9121	1102.7	219.4
1051.8819	3228.83	1108.4	224.9
1051.9834	3229.7473	1104.7	220.7
1052.0849	3230.6639	1101.7	218.1
1052.1863	3231.5799	1101.3	218.75
1052.2876	3232.4954	1100.75	216.25
1052.3889	3233.4102	1098.75	214.35
1052.4902	3234.3244	1099.4	215.8
1052.5914	3235.238	1096.1	211.85
1052.6926	3236.151	1118.4	207.9
1052.7937	3237.0634	1088.2	205.45
1052.8948	3237.9752	1090.35	207.2
1052.9958	3238.8864	1093.45	210.05
1053.0968	3239.797	1088.05	207.85
1053.1977	3240.7069	1086.9	201.5
1053.2986	3241.6163	1088.35	202.9
1053.3994	3242.5251	1085.3	201.2
1053.5002	3243.4332	1083.1	199.65
1053.6009	3244.3408	1080.2	196.5
1053.7016	3245.2477	1079.8	195.65
1053.8022	3246.154	1081.65	196.7
1053.9028	3247.0598	1081.55	198.1
1054.0034	3247.9649	1076.45	192.45
1054.1039	3248.8694	1076.05	194.8
1054.2043	3249.7733	1076.3	192.45
1054.3047	3250.6766	1077.3	194.75
1054.4051	3251.5793	1070.05	184.9
1054.5054	3252.4814	1072.6	190.6
1054.6056	3253.3829	1069.6	185.75
1054.7058	3254.2838	1071.35	186.65
1054.806	3255.1841	1068.25	184.9
1054.9061	3256.0838	1064.95	180.7
1055.0061	3256.9829	1062.95	179.15
1055.1062	3257.8814	1065	180.1
1055.2061	3258.7792	1064.7	180.75
1055.306	3259.6765	1064.8	179.95
1055.4059	3260.5731	1059.55	175.2
1055.5057	3261.4692	1055.5	172.8
1055.6055	3262.3647	1052.65	168.6
1055.7052	3263.2595	1048.65	165.45
1055.8049	3264.1538	1045.7	161.2
1055.9045	3265.0474	1047.25	163.05
1056.0041	3265.9404	1046.3	162.15
1056.1036	3266.8329	1037.6	156.2
1056.2031	3267.7247	1048.15	156.35
1056.3025	3268.616	1031.75	149.55
1056.4019	3269.5066	1030.15	147.05
1056.5013	3270.3966	1029.15	144.45
1056.6005	3271.286	1020.6	136.6
