Software Version:	3.9.2.0
Unit SN:	10000200
Spectrometer SN:	6960
Date:	3/26/2024 1:15:41 PM
Data Line Index:	25
Spectral Points:	2048
Integration time (ms):	125
Averages:	20
Delay (ms):	30000
Sequence Number:	1
Processing:	dark subtract
Laser Power (mW):	305
Laser Current (mA):	819
Laser Diode Temp (C):	25.1
Laser Case Temp (C):	26.4
System Temp (C):	26.4
Spectrometer Temp (C):	24.1
CCD Temp (C):	0
Secondary Temp (C):	20.011
Heatsink Temp (C):	21.994
CCDPCB Temp (C):	36.329
SecondaryPCB Temp (C):	32.605

Wavelength	RamanShift	Raw Counts	Dark Subtracted
787.061	30.1047	426.4	14.6
787.2016	32.3739	425.45	16.25
787.3422	34.6426	426.15	16.5
787.4828	36.9109	431.9	18.45
787.6235	39.1787	437.55	22.35
787.7642	41.4461	441.8	21.2
787.9049	43.7131	446.8	23.9
788.0456	45.9796	450	21.3
788.1863	48.2456	454.05	21.7
788.3271	50.5112	461.3	25.05
788.4679	52.7764	467.9	28.7
788.6087	55.0411	469.95	29.05
788.7496	57.3054	478.65	32.3
788.8904	59.5692	481.8	33.55
789.0313	61.8326	487.1	36.2
789.1722	64.0955	495.85	39.05
789.3132	66.3579	505.45	43.95
789.4541	68.6199	513	49.55
789.5951	70.8815	523.8	58.15
789.7361	73.1426	546.8	77.15
789.8771	75.4032	604.6	129.6
790.0181	77.6634	732.4	254.8
790.1592	79.9231	1040.2	557.35
790.3003	82.1824	1702.95	1216.25
790.4414	84.4412	2796.4	2303.9
790.5825	86.6995	4327.2	3829
790.7237	88.9574	5859.65	5357.7
790.8648	91.2148	7018.1	6512
791.006	93.4717	7623.75	7114.7
791.1472	95.7282	7871	7357.45
791.2885	97.9842	7989.35	7472.95
791.4297	100.2398	7982.5	7462.2
791.571	102.4949	7983.25	7463.05
791.7123	104.7495	7979.4	7453.05
791.8536	107.0036	7929.85	7403.2
791.9949	109.2573	7879.55	7353
792.1363	111.5105	7826.6	7298.5
792.2777	113.7632	7773.1	7242.05
792.4191	116.0154	7718.8	7178.7
792.5605	118.2672	7689.15	7156.5
792.7019	120.5185	7619.7	7084.6
792.8434	122.7693	7556.25	7019.5
792.9849	125.0197	7503.05	6962.8
793.1264	127.2696	7465.9	6924.4
793.2679	129.519	7470.05	6924.15
793.4094	131.7679	7452.2	6903.95
793.551	134.0163	7441.2	6889.3
793.6926	136.2642	7442.45	6884.25
793.8342	138.5117	7437.7	6873.75
793.9758	140.7587	7398	6838.35
794.1175	143.0052	7398.8	6835.5
794.2591	145.2512	7344.25	6779.1
794.4008	147.4967	7295.2	6730.05
794.5425	149.7417	7259.15	6691.85
794.6842	151.9863	7236.05	6665.15
794.826	154.2304	7230.4	6657.35
794.9677	156.4739	7187.9	6607.9
795.1095	158.717	7195	6616.05
795.2513	160.9596	7204.45	6617.85
795.3931	163.2017	7221.25	6636.65
795.535	165.4433	7209.15	6619.55
795.6768	167.6844	7169.1	6578.9
795.8187	169.925	7154.45	6559.5
795.9606	172.1651	7091.15	6492.45
796.1025	174.4047	7079.7	6478.35
796.2445	176.6439	7049.3	6446.05
796.3864	178.8825	7043.1	6436.95
796.5284	181.1206	7033.3	6423.55
796.6704	183.3582	7002.1	6386.45
796.8124	185.5954	6976.2	6361.95
796.9544	187.832	6970.6	6351
797.0965	190.0681	6980.7	6359.05
797.2386	192.3037	6977.65	6354
797.3806	194.5388	6980.5	6354.75
797.5228	196.7734	6997.85	6367.4
797.6649	199.0075	6989.15	6356.45
797.807	201.2411	7021.05	6385.45
797.9492	203.4742	7044.7	6409.45
798.0914	205.7068	7061.3	6423.25
798.2336	207.9389	7049.05	6409.95
798.3758	210.1704	7052.15	6411
798.518	212.4015	7045	6399.5
798.6603	214.632	7067.65	6425.7
798.8025	216.862	7056.4	6418.7
798.9448	219.0915	7048.3	6417.85
799.0871	221.3205	7045.5	6416.6
799.2294	223.549	7080.9	6459.3
799.3718	225.777	7049.2	6424.85
799.5141	228.0044	7058.2	6430.55
799.6565	230.2314	7052.6	6429.45
799.7989	232.4578	7031.6	6406.2
799.9413	234.6837	7005.4	6370.95
800.0837	236.909	6999.65	6365
800.2262	239.1339	6995.7	6334.95
800.3687	241.3582	6969	6322.35
800.5111	243.582	7008.3	6332.9
800.6536	245.8053	6982.1	6318.1
800.7961	248.0281	6963.8	6305.55
800.9387	250.2503	6976.7	6314.05
801.0812	252.472	6974.9	6306.9
801.2238	254.6932	6988.8	6319.45
801.3664	256.9139	6968.15	6294.1
801.509	259.134	6977.55	6299.25
801.6516	261.3536	6976.85	6302.25
801.7942	263.5727	7000.4	6323.1
801.9369	265.7912	6991.95	6315.25
802.0795	268.0092	7041.05	6363.5
802.2222	270.2267	7057.95	6377.5
802.3649	272.4436	7089.55	6409.25
802.5076	274.6601	7085.9	6397.7
802.6504	276.8759	7095.9	6411.9
802.7931	279.0913	7115.45	6425.4
802.9359	281.3061	7120.3	6434.4
803.0787	283.5204	7135.7	6447.3
803.2215	285.7341	7121.6	6428.85
803.3643	287.9473	7177.65	6474.8
803.5071	290.16	7164.25	6463.65
803.6499	292.3721	7136.2	6441.95
803.7928	294.5837	7091.9	6395.2
803.9357	296.7947	7068.6	6372.75
804.0786	299.0052	7040	6342.65
804.2215	301.2152	6993.45	6291.95
804.3644	303.4246	6992.75	6295.95
804.5074	305.6334	6977.3	6281.65
804.6503	307.8418	6971	6269.15
804.7933	310.0495	6931.65	6229.7
804.9363	312.2568	6899.95	6200.65
805.0793	314.4635	6874.65	6171.8
805.2223	316.6696	6824.65	6119.75
805.3653	318.8752	6769.75	6056.75
805.5084	321.0802	6721.9	6015.2
805.6514	323.2847	6701.95	5994.05
805.7945	325.4887	6712.5	6004.9
805.9376	327.692	6720.25	6010
806.0807	329.8949	6747.85	6037.85
806.2238	332.0972	6756.05	6042.85
806.367	334.2989	6797.95	6081.95
806.5101	336.5001	6750.9	6034.55
806.6533	338.7007	6748.55	6030.3
806.7965	340.9008	6720.1	6000.85
806.9397	343.1003	6676.35	5954.55
807.0829	345.2992	6623	5900.7
807.2261	347.4976	6596.35	5871
807.3693	349.6955	6556.35	5828.5
807.5126	351.8927	6553.2	5824.15
807.6559	354.0895	6542.8	5801.8
807.7991	356.2856	6533.8	5802.95
807.9424	358.4812	6506.3	5775.6
808.0857	360.6763	6503.9	5774.2
808.2291	362.8707	6486.85	5752.8
808.3724	365.0646	6484.05	5748.25
808.5158	367.258	6471.35	5737.15
808.6591	369.4508	6478.25	5737.45
808.8025	371.643	6499.7	5759.85
808.9459	373.8346	6490.55	5747.15
809.0893	376.0257	6508.65	5761.9
809.2327	378.2162	6545.3	5799.35
809.3762	380.4062	6568.25	5817.95
809.5196	382.5956	6495.4	5743.8
809.6631	384.7844	6468.3	5717.35
809.8066	386.9726	6420.4	5666.25
809.9501	389.1603	6392.7	5641.25
810.0936	391.3474	6375.1	5592.2
810.2371	393.5339	6362.05	5612.65
810.3806	395.7199	6333.6	5588.55
810.5241	397.9052	6352.8	5611.1
810.6677	400.09	6357.05	5615.9
810.8113	402.2743	6371.3	5626.6
810.9548	404.4579	6374.6	5632.55
811.0984	406.641	6425	5681.35
811.2421	408.8235	6448.65	5703.2
811.3857	411.0054	6495.65	5749.75
811.5293	413.1868	6594.95	5846.75
811.673	415.3675	6672.2	5920.5
811.8166	417.5477	6741.45	5989.35
811.9603	419.7273	6629.6	5873.4
812.104	421.9064	6485.4	5721.45
812.2477	424.0848	6426.15	5664.65
812.3914	426.2627	6334.5	5570.25
812.5351	428.4399	6305.3	5541.45
812.6788	430.6166	6255.75	5488.1
812.8226	432.7928	6216.95	5448.8
812.9663	434.9683	6151.15	5383.45
813.1101	437.1432	6136.25	5364.6
813.2539	439.3176	6100.85	5331.2
813.3977	441.4914	6077	5304.45
813.5415	443.6645	6088.8	5314.1
813.6853	445.8371	6070.35	5296.05
813.8291	448.0091	6057.6	5283.45
813.973	450.1806	6036	5262.15
814.1168	452.3514	6010.65	5233.4
814.2607	454.5216	6016.4	5233.15
814.4046	456.6913	5977.25	5200.4
814.5485	458.8603	5991.55	5214.45
814.6924	461.0288	5990	5213.75
814.8363	463.1967	5966.95	5188.55
814.9802	465.3639	5971.85	5191.05
815.1241	467.5306	5960.4	5179.25
815.2681	469.6967	5949	5168.25
815.412	471.8622	5914.5	5132.65
815.556	474.0271	5921.85	5141.7
815.7	476.1914	5902.2	5118.65
815.844	478.3551	5896.9	5117.2
815.988	480.5182	5898.8	5115.45
816.132	482.6807	5915.1	5130.75
816.276	484.8426	5921.05	5138.1
816.4201	487.0039	5947.9	5162.3
816.5641	489.1647	5983.2	5195.75
816.7082	491.3248	6031.1	5247
816.8522	493.4843	6029.35	5244.3
816.9963	495.6432	6009.65	5224.2
817.1404	497.8015	5986.6	5197.15
817.2845	499.9592	5963.65	5175.5
817.4286	502.1163	5907.55	5118.65
817.5727	504.2728	5876.25	5083.95
817.7168	506.4287	5865	5076.05
817.861	508.5839	5840.55	5052
818.0051	510.7386	5819.1	5028.8
818.1493	512.8927	5849.55	5050.25
818.2935	515.0461	5846.1	5054.25
818.4377	517.199	5863.5	5069.45
818.5818	519.3512	5849.15	5055.1
818.726	521.5029	5917.55	5118.4
818.8703	523.6539	5957.15	5161.4
819.0145	525.8043	5962.25	5165.75
819.1587	527.9541	5917.5	5116.9
819.303	530.1033	5857.45	5059.35
819.4472	532.2519	5824.2	5028.05
819.5915	534.3999	5802.45	4999.3
819.7357	536.5472	5782.4	4980.4
819.88	538.694	5806.05	5006.2
820.0243	540.8401	5818.05	5016.9
820.1686	542.9856	5835.95	5032.5
820.3129	545.1305	5823.25	5019.35
820.4572	547.2748	5826.1	5023
820.6016	549.4185	5838.5	5033.7
820.7459	551.5615	5825.85	5020.4
820.8902	553.704	5858.35	5056.3
821.0346	555.8458	5840.2	5037.4
821.1789	557.987	5865.5	5061.8
821.3233	560.1276	5861.75	5058.95
821.4677	562.2675	5907.95	5107.65
821.6121	564.4069	5958.45	5154.9
821.7565	566.5456	5976.25	5172.65
821.9009	568.6837	5982.8	5177.05
822.0453	570.8212	5928.05	5124.6
822.1897	572.958	5854.15	5045.05
822.3342	575.0942	5833.1	5026.4
822.4786	577.2299	5807.1	4997.25
822.6231	579.3648	5772.55	4964.45
822.7675	581.4992	5717.45	4909.55
822.912	583.6329	5697.05	4888.8
823.0565	585.766	5722.05	4912.3
823.201	587.8985	5730.6	4920.2
823.3454	590.0304	5763.65	4940.2
823.4899	592.1616	5775.7	4962.8
823.6345	594.2922	5764.45	4950.4
823.779	596.4222	5739.55	4926.9
823.9235	598.5515	5697.4	4883
824.068	600.6802	5640.95	4827.1
824.2126	602.8083	5589.35	4775.15
824.3571	604.9358	5603.95	4787.8
824.5017	607.0626	5561.8	4745.55
824.6462	609.1888	5570.4	4750.4
824.7908	611.3144	5566.95	4749.35
824.9354	613.4393	5595.75	4778.2
825.08	615.5636	5639.85	4821.35
825.2246	617.6873	5668.05	4851.7
825.3692	619.8103	5707.5	4888.05
825.5138	621.9327	5687.75	4864
825.6584	624.0544	5651.9	4835.15
825.803	626.1756	5619.6	4803
825.9477	628.2961	5578.3	4759.6
826.0923	630.4159	5551.65	4731.1
826.237	632.5351	5566	4744.3
826.3816	634.6537	5533.05	4712.05
826.5263	636.7716	5534.35	4713.15
826.6709	638.8889	5535	4711.55
826.8156	641.0056	5538.9	4714.8
826.9603	643.1216	5572.1	4747.35
827.105	645.237	5568.2	4743.4
827.2497	647.3518	5525.4	4699.4
827.3944	649.4659	5519.55	4697.75
827.5391	651.5793	5485.45	4661.65
827.6838	653.6922	5470.95	4643.95
827.8285	655.8043	5454.4	4628.85
827.9733	657.9159	5454	4626.8
828.118	660.0268	5445.45	4617.95
828.2627	662.137	5426.85	4599.25
828.4075	664.2466	5445.7	4617.4
828.5522	666.3556	5416	4589.35
828.697	668.4639	5409.6	4576.7
828.8418	670.5716	5431.15	4602.5
828.9865	672.6786	5400.15	4570.35
829.1313	674.785	5395.4	4563.85
829.2761	676.8907	5374.25	4544.05
829.4209	678.9958	5373.9	4545.4
829.5657	681.1002	5366.35	4535.5
829.7105	683.204	5355.9	4523.3
829.8553	685.3072	5370.2	4538.1
830.0001	687.4097	5349.05	4516.8
830.1449	689.5115	5349.75	4516.35
830.2898	691.6127	5345.4	4511.95
830.4346	693.7132	5353.5	4518.9
830.5794	695.8131	5352.05	4503.6
830.7243	697.9123	5346.1	4509.55
830.8691	700.0109	5346.85	4512.45
831.014	702.1089	5333.6	4499.05
831.1588	704.2061	5360.65	4527.15
831.3037	706.3028	5366.5	4530.9
831.4486	708.3987	5382.9	4546.8
831.5935	710.4941	5373.85	4536.65
831.7383	712.5887	5374.95	4538.2
831.8832	714.6827	5376.2	4535.4
832.0281	716.7761	5362.35	4524.1
832.173	718.8688	5347.7	4510.25
832.3179	720.9608	5350.45	4510.65
832.4628	723.0522	5360.55	4518.2
832.6077	725.1429	5370.55	4533
832.7527	727.233	5403.25	4563.9
832.8976	729.3224	5431.85	4593.35
833.0425	731.4112	5475.7	4635.3
833.1874	733.4993	5467.5	4624.85
833.3324	735.5867	5447.75	4606.3
833.4773	737.6735	5385.3	4543.25
833.6222	739.7596	5357.5	4515
833.7672	741.845	5313.85	4471.45
833.9122	743.9298	5314.65	4469.25
834.0571	746.014	5338.6	4497.55
834.2021	748.0974	5338.8	4494.4
834.347	750.1802	5310.05	4467.8
834.492	752.2624	5309.05	4467.25
834.637	754.3439	5288.9	4443.65
834.782	756.4247	5255.6	4400.9
834.9269	758.5048	5226	4382.85
835.0719	760.5843	5237.15	4391.95
835.2169	762.6631	5235.1	4388.05
835.3619	764.7413	5265.2	4420.75
835.5069	766.8188	5311.7	4466.2
835.6519	768.8956	5332.8	4483.95
835.7969	770.9718	5388.1	4542.8
835.9419	773.0473	5365.05	4521.4
836.0869	775.1221	5351.6	4506.4
836.232	777.1962	5319.6	4473.45
836.377	779.2697	5343.05	4494.6
836.522	781.3426	5399.15	4531.75
836.667	783.4147	5436.15	4585.7
836.8121	785.4862	5436.8	4591.75
836.9571	787.557	5370.75	4523.85
837.1021	789.6271	5278.5	4430.35
837.2472	791.6966	5188.55	4340.7
837.3922	793.7654	5102.6	4252.7
837.5373	795.8335	5059.65	4211.05
837.6823	797.901	5036	4185.6
837.8274	799.9678	5033	4184.05
837.9724	802.0339	5027.35	4178.5
838.1175	804.0993	5026.8	4167.65
838.2626	806.1641	4995.45	4143.1
838.4076	808.2282	4972.8	4123.4
838.5527	810.2916	4960.1	4106.6
838.6978	812.3544	4953.3	4105.65
838.8428	814.4164	4948	4100.15
838.9879	816.4778	4951.95	4102.25
839.133	818.5385	4932.45	4081.75
839.2781	820.5986	4950.45	4100
839.4232	822.658	4978.75	4124.1
839.5682	824.7166	5001.7	4150.2
839.7133	826.7747	5072.35	4221.4
839.8584	828.832	5127.95	4275.75
840.0035	830.8886	5155.65	4300.1
840.1486	832.9446	5158.1	4304.6
840.2937	834.9999	5129.65	4279.2
840.4388	837.0545	5086.5	4231.55
840.5839	839.1085	5019.15	4164.9
840.729	841.1618	4969.95	4113.35
840.8741	843.2143	4924.4	4070.85
841.0192	845.2662	4865.7	4011.7
841.1643	847.3175	4869.15	4016.7
841.3095	849.368	4832.7	3979.2
841.4546	851.4179	4848.2	3996.15
841.5997	853.467	4826.15	3969.45
841.7448	855.5155	4824.45	3971.55
841.8899	857.5633	4826.9	3971.65
842.0351	859.6105	4805.15	3948.1
842.1802	861.6569	4780.45	3925.25
842.3253	863.7027	4757	3899.15
842.4704	865.7478	4770.1	3913.75
842.6156	867.7922	4741.05	3885.5
842.7607	869.8359	4731.9	3875.6
842.9058	871.8789	4722.05	3864.55
843.0509	873.9212	4751	3862.85
843.1961	875.9629	4706	3849.55
843.3412	878.0039	4707.45	3849.15
843.4863	880.0441	4708.8	3852.8
843.6315	882.0837	4731.3	3873.55
843.7766	884.1226	4729.9	3869.95
843.9218	886.1609	4742.4	3885.35
844.0669	888.1984	4784.8	3928
844.212	890.2352	4814.15	3955.9
844.3572	892.2714	4813.45	3951.75
844.5023	894.3069	4782.65	3924
844.6475	896.3416	4735.5	3877.05
844.7926	898.3757	4710.5	3853.35
844.9377	900.4091	4691.3	3831.65
845.0829	902.4418	4677.75	3815.1
845.228	904.4739	4668.85	3805.95
845.3732	906.5052	4691.3	3829.2
845.5183	908.5358	4660.3	3801.3
845.6635	910.5658	4662.95	3801.95
845.8086	912.595	4621.9	3762.3
845.9538	914.6236	4595.55	3737.55
846.0989	916.6515	4562.05	3701.8
846.2441	918.6786	4510.55	3649.35
846.3892	920.7051	4525.5	3662
846.5344	922.7309	4525.05	3665.2
846.6795	924.756	4504.95	3644.65
846.8246	926.7804	4499.25	3637.5
846.9698	928.8041	4474.75	3612.9
847.1149	930.8272	4485.6	3623.1
847.2601	932.8495	4474.1	3609.75
847.4052	934.8711	4475.05	3613.15
847.5504	936.892	4462.95	3599.6
847.6955	938.9123	4471.65	3608.75
847.8407	940.9318	4478.1	3612.7
847.9858	942.9506	4475.05	3612
848.131	944.9688	4459.9	3596.4
848.2761	946.9862	4459.2	3595.9
848.4213	949.003	4391.6	3529.45
848.5664	951.019	4382.45	3518.15
848.7115	953.0344	4362.5	3497.9
848.8567	955.0491	4339.55	3475.25
849.0018	957.063	4332.9	3469.65
849.147	959.0763	4331.85	3461.45
849.2921	961.0888	4326.75	3460.65
849.4373	963.1007	4314.6	3450.1
849.5824	965.1119	4284.2	3420.55
849.7275	967.1223	4287.55	3423.85
849.8727	969.1321	4268.75	3406.7
850.0178	971.1412	4263.95	3401.15
850.1629	973.1495	4244.6	3380.1
850.3081	975.1572	4264.6	3368.1
850.4532	977.1641	4231.4	3366.05
850.5983	979.1704	4232.2	3365.25
850.7435	981.1759	4218.45	3350.1
850.8886	983.1808	4206.75	3340.2
851.0337	985.1849	4189.35	3313.25
851.1788	987.1884	4165.75	3298.1
851.324	989.1911	4164.6	3296.15
851.4691	991.1932	4167.95	3299.45
851.6142	993.1945	4153.2	3285.45
851.7593	995.1951	4133.95	3268.1
851.9045	997.1951	4124	3252.75
852.0496	999.1943	4104.8	3240.05
852.1947	1001.1928	4096.5	3229.55
852.3398	1003.1906	4095	3228.45
852.4849	1005.1877	4098.05	3229.45
852.63	1007.1841	4096.35	3227.85
852.7751	1009.1798	4082.45	3215.15
852.9202	1011.1748	4065.35	3198.45
853.0653	1013.1691	4045.25	3176.85
853.2104	1015.1627	4021.3	3153.6
853.3555	1017.1556	3967.35	3100.5
853.5006	1019.1477	3950.55	3081.8
853.6457	1021.1392	3923.55	3057.95
853.7908	1023.1299	3908.85	3040.9
853.9359	1025.12	3893.05	3024.05
854.081	1027.1093	3886.05	3017.9
854.2261	1029.0979	3896.7	3030.75
854.3712	1031.0859	3889.1	3023
854.5163	1033.0731	3889.1	3018.3
854.6613	1035.0596	3881.75	3012.35
854.8064	1037.0454	3866.85	2996.9
854.9515	1039.0304	3844.35	2976.5
855.0965	1041.0148	3819.4	2951.1
855.2416	1042.9985	3787.45	2916.7
855.3867	1044.9814	3779	2910.4
855.5317	1046.9636	3768.05	2895.95
855.6768	1048.9452	3740.4	2870.95
855.8219	1050.926	3760.85	2893.15
855.9669	1052.9061	3759.85	2889.3
856.112	1054.8855	3738.05	2867.45
856.257	1056.8642	3733.75	2864.3
856.4021	1058.8421	3735.95	2860.75
856.5471	1060.8194	3714.2	2843.05
856.6921	1062.7959	3714.9	2847.25
856.8372	1064.7717	3708.2	2835.25
856.9822	1066.7469	3680.55	2809.35
857.1272	1068.7213	3704.7	2829.45
857.2723	1070.695	3672.85	2801.25
857.4173	1072.6679	3681.9	2809.8
857.5623	1074.6402	3698	2826.55
857.7073	1076.6117	3697.8	2820.3
857.8523	1078.5826	3687.15	2816.25
857.9973	1080.5527	3636.75	2763
858.1423	1082.5221	3618.3	2746.05
858.2873	1084.4908	3595	2722.3
858.4323	1086.4587	3563.15	2689.25
858.5773	1088.426	3555.1	2681.35
858.7223	1090.3925	3541.85	2663.4
858.8673	1092.3584	3536.4	2665.5
859.0123	1094.3235	3516.8	2646.15
859.1573	1096.2879	3522.2	2648.55
859.3022	1098.2515	3530	2659.15
859.4472	1100.2145	3543.6	2673.2
859.5922	1102.1767	3570.35	2695.65
859.7371	1104.1382	3591.65	2719.45
859.8821	1106.099	3609.65	2733.9
860.027	1108.0591	3623.7	2750.95
860.172	1110.0185	3648.8	2774.25
860.3169	1111.9771	3665.8	2793.7
860.4619	1113.9351	3696.65	2822.75
860.6068	1115.8923	3730.15	2856.35
860.7517	1117.8488	3749.9	2873.95
860.8967	1119.8045	3703.35	2830.4
861.0416	1121.7596	3632.55	2755.55
861.1865	1123.7139	3551.9	2681.1
861.3314	1125.6675	3498.8	2626
861.4763	1127.6204	3502.35	2628.75
861.6212	1129.5726	3483.35	2608.05
861.7661	1131.524	3487	2614.35
861.911	1133.4748	3466.1	2591.6
862.0559	1135.4248	3414.6	2537.85
862.2008	1137.3741	3393.85	2519.65
862.3457	1139.3226	3354.55	2480.4
862.4905	1141.2705	3332.15	2456.95
862.6354	1143.2176	3330.9	2450.65
862.7803	1145.164	3333.1	2459.8
862.9251	1147.1097	3322.1	2446.8
863.07	1149.0546	3298.4	2422.05
863.2148	1150.9989	3293.05	2419.5
863.3597	1152.9424	3263.25	2387.75
863.5045	1154.8852	3256.65	2381.5
863.6493	1156.8272	3240.2	2365.95
863.7942	1158.7686	3236.35	2355.9
863.939	1160.7092	3218.45	2344.5
864.0838	1162.6491	3230.4	2352
864.2286	1164.5883	3215.65	2340.45
864.3734	1166.5267	3218.35	2341.75
864.5182	1168.4644	3237.9	2362.1
864.663	1170.4014	3240.35	2359.35
864.8078	1172.3377	3271.55	2399.2
864.9526	1174.2732	3304.45	2429.55
865.0974	1176.2081	3347.05	2473.15
865.2421	1178.1421	3431.8	2551.05
865.3869	1180.0755	3502.3	2628.85
865.5317	1182.0082	3549.9	2674.2
865.6764	1183.9401	3543.9	2667.15
865.8212	1185.8713	3479.1	2604.1
865.9659	1187.8017	3379.25	2505.2
866.1106	1189.7315	3296.5	2421.3
866.2554	1191.6605	3226.3	2351.3
866.4001	1193.5888	3180.5	2306.15
866.5448	1195.5163	3140	2263.5
866.6895	1197.4432	3118.85	2240.55
866.8342	1199.3693	3101.2	2226.6
866.9789	1201.2947	3088.55	2210.2
867.1236	1203.2193	3072.6	2195.65
867.2683	1205.1432	3055.05	2178.85
867.413	1207.0664	3037.55	2162.2
867.5576	1208.9889	3033.45	2152.4
867.7023	1210.9106	3030.85	2153.5
867.847	1212.8316	3020.8	2142.75
867.9916	1214.7519	3028.2	2142.55
868.1363	1216.6715	3017.95	2142.5
868.2809	1218.5903	3034.4	2158.65
868.4255	1220.5084	3030.75	2152.6
868.5701	1222.4257	3038.15	2161.8
868.7148	1224.3424	3025.35	2150.15
868.8594	1226.2583	3038.2	2153.85
869.004	1228.1735	3051.35	2173.2
869.1486	1230.0879	3062.2	2180.7
869.2932	1232.0016	3082.35	2207.15
869.4377	1233.9146	3092.9	2211.4
869.5823	1235.8269	3104.3	2225.75
869.7269	1237.7384	3103.75	2226.25
869.8715	1239.6492	3096.1	2217.45
870.016	1241.5592	3108.55	2229.6
870.1606	1243.4686	3130.55	2252.15
870.3051	1245.3772	3155.6	2278.15
870.4496	1247.285	3217.3	2339
870.5941	1249.1922	3289.8	2413.65
870.7387	1251.0986	3328.8	2453
870.8832	1253.0042	3364.5	2486.25
871.0277	1254.9092	3423.75	2545.1
871.1722	1256.8134	3474.15	2597.35
871.3167	1258.7169	3525.3	2644.35
871.4611	1260.6196	3570.4	2692.55
871.6056	1262.5216	3582.5	2704.3
871.7501	1264.4229	3568	2688.15
871.8945	1266.3234	3546.1	2669.15
872.039	1268.2232	3511.95	2631.9
872.1834	1270.1223	3470.5	2591.65
872.3278	1272.0207	3440.05	2562.95
872.4723	1273.9183	3407.3	2521.35
872.6167	1275.8151	3401.4	2522.05
872.7611	1277.7113	3417.55	2535.15
872.9055	1279.6067	3481.2	2603.2
873.0499	1281.5014	3562.45	2680.05
873.1943	1283.3953	3674.35	2793.85
873.3386	1285.2885	3823.2	2943.15
873.483	1287.181	3933.3	3052.8
873.6274	1289.0727	3994.9	3115.25
873.7717	1290.9637	3947.05	3067.1
873.9161	1292.854	3876.3	2997.7
874.0604	1294.7435	3775.8	2894.55
874.2047	1296.6323	3687.9	2808.25
874.349	1298.5204	3613.5	2729.2
874.4933	1300.4077	3548.9	2668.15
874.6376	1302.2943	3503.6	2625.4
874.7819	1304.1802	3477.15	2598.35
874.9262	1306.0653	3434.1	2553.5
875.0705	1307.9497	3408.6	2528.85
875.2147	1309.8333	3391.4	2514.05
875.359	1311.7162	3368	2488.2
875.5032	1313.5984	3343.65	2459.6
875.6475	1315.4798	3330.6	2446.05
875.7917	1317.3605	3327.5	2441.3
875.9359	1319.2405	3324.7	2444.75
876.0801	1321.1197	3313.3	2432.25
876.2243	1322.9982	3283.35	2397.8
876.3685	1324.876	3237.6	2356.65
876.5127	1326.753	3156.8	2275.95
876.6569	1328.6293	3095.55	2215
876.801	1330.5048	3033.8	2153.15
876.9452	1332.3796	2973.5	2095.45
877.0893	1334.2537	2944.85	2043.75
877.2335	1336.127	2901.9	2022
877.3776	1337.9996	2858	1976.9
877.5217	1339.8714	2848.25	1967.3
877.6658	1341.7426	2859.3	1933.6
877.8099	1343.6129	2811.1	1931.6
877.954	1345.4826	2789.45	1909.75
878.0981	1347.3515	2776.05	1894.45
878.2422	1349.2196	2764.35	1882.1
878.3862	1351.087	2756.35	1875.85
878.5303	1352.9537	2756.3	1875.6
878.6743	1354.8197	2758.2	1878.45
878.8184	1356.6849	2756	1874.65
878.9624	1358.5493	2748.6	1867.75
879.1064	1360.4131	2773.9	1892.2
879.2504	1362.276	2791.25	1913.15
879.3944	1364.1383	2800	1919.25
879.5384	1365.9998	2820.75	1933.5
879.6823	1367.8606	2820.85	1937.6
879.8263	1369.7206	2797.15	1915.25
879.9702	1371.5799	2778.05	1894.3
880.1142	1373.4384	2784.5	1903.05
880.2581	1375.2962	2772.3	1889.8
880.402	1377.1533	2721.3	1841
880.5459	1379.0096	2678.1	1795.25
880.6898	1380.8652	2648.15	1767.2
880.8337	1382.7201	2631.2	1751.1
880.9776	1384.5742	2601.55	1718.25
881.1215	1386.4275	2567.65	1687.65
881.2653	1388.2802	2544.25	1662.5
881.4092	1390.132	2543.55	1662.3
881.553	1391.9832	2538.05	1655.85
881.6968	1393.8336	2523.5	1641.95
881.8406	1395.6832	2514.65	1630.6
881.9844	1397.5322	2496.3	1615.85
882.1282	1399.3803	2503.6	1617.35
882.272	1401.2278	2485.5	1603.9
882.4158	1403.0745	2474.75	1591.85
882.5595	1404.9204	2464.55	1582.7
882.7033	1406.7656	2444.15	1562.15
882.847	1408.6101	2439.25	1558.6
882.9908	1410.4538	2434.3	1552.5
883.1345	1412.2968	2416.9	1533.4
883.2782	1414.139	2419.15	1540.05
883.4219	1415.9805	2417	1537.05
883.5656	1417.8213	2433.05	1530.85
883.7092	1419.6613	2422	1542.05
883.8529	1421.5006	2445.8	1562.4
883.9965	1423.3391	2466.5	1585.35
884.1402	1425.1769	2498.4	1614
884.2838	1427.0139	2545.65	1660.85
884.4274	1428.8502	2599	1715.9
884.571	1430.6858	2650.7	1769
884.7146	1432.5206	2649.65	1769.4
884.8582	1434.3547	2656.1	1771.9
885.0018	1436.188	2630.9	1749.2
885.1453	1438.0206	2624.2	1741.8
885.2889	1439.8524	2615.15	1734.05
885.4324	1441.6835	2606.45	1724.35
885.5759	1443.5139	2609.2	1724.65
885.7194	1445.3435	2601.95	1719.95
885.8629	1447.1724	2604.2	1724.1
886.0064	1449.0005	2597.1	1712.7
886.1499	1450.8279	2591.35	1706.6
886.2933	1452.6545	2585.7	1703.2
886.4368	1454.4804	2588.2	1708.1
886.5802	1456.3056	2572	1684.4
886.7237	1458.13	2568.25	1686.4
886.8671	1459.9536	2529.95	1646.9
887.0105	1461.7766	2513.35	1632.1
887.1539	1463.5987	2475.85	1591.35
887.2972	1465.4202	2451.45	1570.8
887.4406	1467.2409	2418.15	1535.85
887.584	1469.0608	2398.7	1516.5
887.7273	1470.88	2356	1472.95
887.8706	1472.6984	2337.9	1455.1
888.0139	1474.5161	2318.95	1435.85
888.1572	1476.3331	2304.15	1422.2
888.3005	1478.1493	2302.6	1417.15
888.4438	1479.9648	2295.85	1413.15
888.5871	1481.7795	2281.8	1399.15
888.7303	1483.5935	2283	1402.15
888.8736	1485.4067	2277.4	1393.95
889.0168	1487.2192	2285.85	1403.05
889.16	1489.031	2289.85	1405.2
889.3032	1490.842	2274.85	1393.9
889.4464	1492.6522	2272.55	1389.1
889.5896	1494.4618	2260.4	1376.25
889.7327	1496.2705	2254.2	1370.15
889.8759	1498.0785	2248.8	1366.75
890.019	1499.8858	2245.05	1360.5
890.1622	1501.6924	2231.25	1350.15
890.3053	1503.4981	2229.45	1348.05
890.4484	1505.3032	2224.25	1342.55
890.5914	1507.1075	2218.2	1336.05
890.7345	1508.911	2201.2	1319.85
890.8776	1510.7138	2201.75	1317.7
891.0206	1512.5159	2184.55	1298.75
891.1637	1514.3172	2176.2	1291.6
891.3067	1516.1178	2170.7	1289.25
891.4497	1517.9176	2171.7	1287.5
891.5927	1519.7166	2160	1277.4
891.7357	1521.515	2160.8	1269.25
891.8786	1523.3126	2149.15	1264.75
892.0216	1525.1094	2139.8	1254.9
892.1645	1526.9055	2118.75	1237.85
892.3074	1528.7008	2115.75	1233.95
892.4503	1530.4954	2102.15	1218.6
892.5932	1532.2893	2099.1	1217.2
892.7361	1534.0824	2096.95	1209.7
892.879	1535.8747	2086.1	1202.6
893.0218	1537.6663	2093.45	1209.85
893.1647	1539.4572	2076.85	1193.3
893.3075	1541.2473	2082.2	1199.8
893.4503	1543.0367	2069.35	1187.85
893.5931	1544.8253	2075.15	1187.55
893.7359	1546.6132	2071.4	1183.55
893.8787	1548.4003	2072.8	1181.5
894.0214	1550.1867	2075.9	1183.8
894.1642	1551.9723	2080.4	1193.65
894.3069	1553.7572	2078.5	1193.45
894.4496	1555.5414	2074.95	1192.05
894.5923	1557.3247	2102.85	1219.65
894.735	1559.1074	2116.95	1233.15
894.8777	1560.8893	2146.25	1263.6
895.0204	1562.6705	2165.8	1282.35
895.163	1564.4509	2192.85	1310.65
895.3056	1566.2305	2192.15	1311.2
895.4482	1568.0094	2194.7	1311.25
895.5908	1569.7876	2192.6	1311.05
895.7334	1571.565	2187	1302.95
895.876	1573.3417	2173.6	1291.1
896.0186	1575.1176	2182.1	1299.25
896.1611	1576.8928	2185.45	1302.7
896.3036	1578.6672	2193.95	1312.1
896.4461	1580.4409	2204.35	1324.55
896.5886	1582.2138	2237.3	1353
896.7311	1583.986	2266.4	1382.25
896.8736	1585.7575	2297.05	1413.7
897.0161	1587.5282	2307.6	1426.55
897.1585	1589.2981	2337.05	1455.5
897.3009	1591.0673	2345	1462.8
897.4433	1592.8358	2339.75	1458.2
897.5857	1594.6035	2339.05	1452.1
897.7281	1596.3704	2320	1438.35
897.8705	1598.1366	2300.3	1417.25
898.0128	1599.9021	2278.7	1397.2
898.1551	1601.6668	2255.75	1372.05
898.2975	1603.4308	2237.45	1352.4
898.4398	1605.194	2235.4	1346.8
898.5821	1606.9564	2244.3	1361.2
898.7243	1608.7182	2294.75	1407.25
898.8666	1610.4791	2339.35	1458.8
899.0088	1612.2394	2411.2	1529.5
899.1511	1613.9988	2496.3	1614.9
899.2933	1615.7576	2556.8	1676.3
899.4355	1617.5156	2590.5	1701.85
899.5776	1619.2728	2558.6	1675.35
899.7198	1621.0293	2497.75	1616.6
899.862	1622.785	2406.7	1522.1
900.0041	1624.54	2320.85	1436.95
900.1462	1626.2942	2223.25	1339.7
900.2883	1628.0477	2134.75	1250.8
900.4304	1629.8005	2086.6	1198.7
900.5725	1631.5525	2024	1140.4
900.7145	1633.3037	1975.7	1094.35
900.8566	1635.0542	1942.25	1059.6
900.9986	1636.804	1906.2	1022.35
901.1406	1638.553	1939.8	1008.65
901.2826	1640.3013	1874.35	992.4
901.4245	1642.0488	1855.9	972.2
901.5665	1643.7955	1841.2	960.1
901.7085	1645.5416	1830.65	948.7
901.8504	1647.2868	1814.4	931.1
901.9923	1649.0313	1809.5	927.5
902.1342	1650.7751	1808.4	922.45
902.2761	1652.5181	1795.3	912.65
902.4179	1654.2604	1788.3	903.55
902.5598	1656.0019	1789.25	906.05
902.7016	1657.7427	1799.1	915.05
902.8434	1659.4828	1802.55	919.55
902.9852	1661.222	1826	941
903.127	1662.9606	1854.25	973.2
903.2687	1664.6984	1877.9	994.15
903.4105	1666.4354	1889.95	1006.9
903.5522	1668.1717	1873.4	992.9
903.6939	1669.9072	1836.95	953.85
903.8356	1671.642	1798.35	913.1
903.9773	1673.3761	1769.1	883.7
904.119	1675.1094	1741.65	859.7
904.2606	1676.8419	1718.15	836.5
904.4022	1678.5737	1705.7	822.1
904.5439	1680.3048	1692.5	810.05
904.6855	1682.0351	1679.4	796.7
904.827	1683.7646	1675.75	788.55
904.9686	1685.4934	1661.65	781.05
905.1101	1687.2215	1661.5	778.3
905.2517	1688.9488	1655.55	772.05
905.3932	1690.6754	1649.75	766.85
905.5347	1692.4012	1646.15	763.85
905.6761	1694.1263	1639.05	757.4
905.8176	1695.8506	1647.05	763.85
905.9591	1697.5742	1628.7	746.6
906.1005	1699.297	1630.2	747.2
906.2419	1701.0191	1624.4	743.75
906.3833	1702.7404	1610.75	727.05
906.5246	1704.461	1614.75	729.65
906.666	1706.1808	1606.5	721.85
906.8073	1707.8999	1605.6	721.1
906.9487	1709.6182	1594.25	709.65
907.09	1711.3358	1601.3	719.55
907.2313	1713.0527	1587.2	704.9
907.3725	1714.7688	1601.1	711.7
907.5138	1716.4841	1584.15	699
907.655	1718.1987	1587.35	696.75
907.7962	1719.9126	1582.1	701.85
907.9374	1721.6257	1577.95	693.45
908.0786	1723.338	1582.05	699.15
908.2198	1725.0496	1570.9	687.15
908.3609	1726.7605	1571.4	686.8
908.502	1728.4706	1565.7	682.5
908.6431	1730.18	1565.9	680.3
908.7842	1731.8886	1565.6	681.6
908.9253	1733.5964	1566.7	678.7
909.0664	1735.3036	1562.7	676.9
909.2074	1737.0099	1554.95	674.15
909.3484	1738.7156	1556.7	675.6
909.4894	1740.4204	1559.45	672.8
909.6304	1742.1246	1553.3	669.2
909.7714	1743.8279	1546.5	661.9
909.9123	1745.5306	1557.05	674.55
910.0532	1747.2325	1551.65	668.7
910.1941	1748.9336	1546.6	664.55
910.335	1750.634	1545.9	661.9
910.4759	1752.3336	1542.95	660
910.6168	1754.0325	1547.05	665.5
910.7576	1755.7307	1542.8	658.25
910.8984	1757.4281	1543.65	660.85
911.0392	1759.1247	1547.9	655.55
911.18	1760.8206	1545.7	655.7
911.3208	1762.5158	1540.65	654.7
911.4615	1764.2102	1538.25	656.95
911.6022	1765.9039	1525.55	641.9
911.7429	1767.5968	1530.3	646.85
911.8836	1769.289	1531.45	646.6
912.0243	1770.9804	1528.3	643.35
912.1649	1772.6711	1525.9	643.1
912.3056	1774.361	1522.25	639.05
912.4462	1776.0502	1519.55	635.9
912.5868	1777.7386	1517.8	631.3
912.7274	1779.4263	1521	638.25
912.8679	1781.1132	1511	627.6
913.0084	1782.7994	1512.8	626.5
913.149	1784.4849	1510.05	628.95
913.2895	1786.1696	1511.85	622.8
913.4299	1787.8535	1512.5	630.6
913.5704	1789.5367	1497.9	613.5
913.7108	1791.2192	1501.4	620.35
913.8513	1792.9009	1519.4	611.25
913.9917	1794.5818	1500.1	616.05
914.132	1796.2621	1495.05	611.45
914.2724	1797.9415	1495.05	610.25
914.4128	1799.6202	1488.65	605.15
914.5531	1801.2982	1491.15	607.5
914.6934	1802.9755	1493.95	607.65
914.8337	1804.6519	1490.55	606.3
914.9739	1806.3277	1492.1	610.25
915.1142	1808.0027	1484.4	601.7
915.2544	1809.6769	1474.8	590.15
915.3946	1811.3504	1474.85	590.4
915.5348	1813.0231	1477.75	594.7
915.675	1814.6951	1482.05	600.35
915.8151	1816.3664	1482.35	597.05
915.9553	1818.0369	1470.6	584.45
916.0954	1819.7067	1472.5	590.55
916.2355	1821.3757	1469.25	583.65
916.3755	1823.044	1469.75	586.1
916.5156	1824.7115	1471	587.45
916.6556	1826.3783	1466.75	585.2
916.7956	1828.0443	1457.1	573.65
916.9356	1829.7096	1465.25	580.2
917.0756	1831.3741	1472.95	587.1
917.2155	1833.0379	1464.95	581.7
917.3555	1834.701	1461.85	578.3
917.4954	1836.3633	1446.05	562.7
917.6353	1838.0248	1452	566.35
917.7751	1839.6856	1451.85	566.8
917.915	1841.3457	1449.5	566.55
918.0548	1843.005	1456.15	571.8
918.1946	1844.6636	1453.7	570.65
918.3344	1846.3214	1448.7	563.85
918.4742	1847.9785	1443.05	560.45
918.6139	1849.6349	1444.45	556.4
918.7537	1851.2904	1448.1	554.65
918.8934	1852.9453	1444.15	559.65
919.0331	1854.5994	1436.5	552.3
919.1727	1856.2528	1444.6	556.2
919.3124	1857.9054	1444.05	558.25
919.452	1859.5572	1435.05	552.05
919.5916	1861.2083	1428.9	544.35
919.7312	1862.8587	1437.4	556
919.8708	1864.5084	1434.9	549.75
920.0103	1866.1572	1432.05	547.35
920.1498	1867.8054	1428.8	544.25
920.2893	1869.4528	1424.95	541.8
920.4288	1871.0994	1426.9	542.55
920.5683	1872.7453	1421.65	536.6
920.7077	1874.3905	1426.15	534.75
920.8471	1876.0349	1421.35	536.35
920.9865	1877.6786	1423	536.4
921.1259	1879.3215	1418.15	534.35
921.2653	1880.9637	1415.75	530.15
921.4046	1882.6051	1417.7	535.2
921.5439	1884.2458	1414.8	528.7
921.6832	1885.8858	1418.05	534.8
921.8225	1887.525	1417.75	532.75
921.9617	1889.1634	1408.75	525.3
922.101	1890.8011	1403.4	518.8
922.2402	1892.4381	1409.15	523.85
922.3794	1894.0743	1413	529.55
922.5185	1895.7098	1401.15	518.95
922.6577	1897.3446	1401.6	517.1
922.7968	1898.9786	1407.95	520.6
922.9359	1900.6118	1407.65	525.25
923.075	1902.2443	1395.95	512.15
923.214	1903.8761	1395	512.85
923.3531	1905.5071	1389.7	503.95
923.4921	1907.1374	1400.25	516.4
923.6311	1908.7669	1393	508.75
923.77	1910.3957	1387.7	503.3
923.909	1912.0237	1390.05	506.65
924.0479	1913.651	1391.35	506.65
924.1868	1915.2776	1381	499.5
924.3257	1916.9034	1383.35	499.95
924.4646	1918.5285	1379.2	496.8
924.6034	1920.1528	1384.3	500.2
924.7422	1921.7764	1376.85	493.15
924.881	1923.3992	1371.4	490.65
925.0198	1925.0213	1376.2	492.05
925.1586	1926.6427	1366.45	483.6
925.2973	1928.2633	1439.7	484.25
925.436	1929.8832	1373.35	488.2
925.5747	1931.5023	1368.5	483.15
925.7134	1933.1207	1371.85	488.7
925.852	1934.7383	1368.25	482.05
925.9906	1936.3552	1361.75	479.45
926.1292	1937.9714	1367.95	482.8
926.2678	1939.5868	1366.55	481.55
926.4064	1941.2015	1360	476.4
926.5449	1942.8154	1362.3	480.25
926.6834	1944.4286	1349	465.3
926.8219	1946.041	1374.45	467.15
926.9604	1947.6528	1357.9	470.85
927.0988	1949.2637	1346.85	462.8
927.2372	1950.8739	1343.15	457.05
927.3756	1952.4834	1347.05	462.5
927.514	1954.0921	1350.75	464.6
927.6523	1955.7001	1348.1	461.2
927.7907	1957.3074	1342.15	459.35
927.929	1958.9139	1344.95	461.7
928.0673	1960.5197	1349.3	467.05
928.2055	1962.1247	1334.6	450.6
928.3438	1963.729	1334.9	452.35
928.482	1965.3325	1363.1	457.35
928.6202	1966.9353	1338.1	455.9
928.7584	1968.5374	1336.95	453.65
928.8965	1970.1387	1333	448.1
929.0346	1971.7393	1333.1	448.65
929.1727	1973.3392	1330.8	446.55
929.3108	1974.9383	1330.75	448.5
929.4489	1976.5366	1329.4	445.5
929.5869	1978.1342	1329.6	444.5
929.7249	1979.7311	1323.25	437.65
929.8629	1981.3273	1323.35	441.55
930.0009	1982.9227	1326.9	440.55
930.1388	1984.5173	1320.9	440.75
930.2767	1986.1112	1324.75	441.5
930.4146	1987.7044	1320.1	439.1
930.5525	1989.2968	1321	438.75
930.6904	1990.8885	1325.3	438.1
930.8282	1992.4795	1325.65	440.85
930.966	1994.0697	1320.45	436.3
931.1038	1995.6592	1311	426.9
931.2415	1997.2479	1311.3	427.1
931.3793	1998.8359	1310.7	427.2
931.517	2000.4232	1311.1	426.9
931.6547	2002.0097	1308.7	427.75
931.7923	2003.5955	1304.7	418.55
931.93	2005.1805	1318.25	434
932.0676	2006.7648	1304.3	420.1
932.2052	2008.3484	1306.25	423.9
932.3427	2009.9312	1306.9	420.25
932.4803	2011.5133	1302.5	420.85
932.6178	2013.0946	1306.95	424.75
932.7553	2014.6752	1301.45	420.65
932.8928	2016.2551	1297.85	413.7
933.0302	2017.8342	1303.75	419.25
933.1676	2019.4126	1300	417.25
933.305	2020.9902	1292.35	410.15
933.4424	2022.5672	1300.25	416.05
933.5798	2024.1433	1306.15	416.65
933.7171	2025.7188	1297.9	416.25
933.8544	2027.2935	1299	415.85
933.9917	2028.8674	1287.2	405.15
934.129	2030.4406	1294.2	413.05
934.2662	2032.0131	1292.1	410.25
934.4034	2033.5849	1297.65	412.4
934.5406	2035.1559	1283.65	400.7
934.6778	2036.7261	1288.4	405.7
934.8149	2038.2957	1290.7	406.75
934.952	2039.8645	1289.65	407.3
935.0891	2041.4325	1293.3	406.65
935.2262	2042.9998	1282.55	400.1
935.3632	2044.5664	1288.65	403
935.5002	2046.1323	1283.15	400.5
935.6372	2047.6974	1284.1	401
935.7742	2049.2617	1284.95	404.45
935.9111	2050.8254	1283.95	394.4
936.048	2052.3883	1285.05	403.1
936.1849	2053.9504	1281.75	397.65
936.3218	2055.5118	1278.4	393.35
936.4586	2057.0725	1282.05	395.3
936.5955	2058.6325	1285.15	400.35
936.7323	2060.1917	1278.45	396.4
936.869	2061.7502	1285.7	398.25
937.0058	2063.3079	1280.55	397.15
937.1425	2064.8649	1281.05	395.6
937.2792	2066.4212	1282.3	397.15
937.4159	2067.9767	1278.3	397.85
937.5525	2069.5315	1274.8	391.1
937.6891	2071.0856	1274.95	391.65
937.8257	2072.6389	1276.4	394.25
937.9623	2074.1915	1265.15	383.35
938.0989	2075.7433	1268.25	384.6
938.2354	2077.2945	1269.7	386.45
938.3719	2078.8448	1268.4	383.85
938.5084	2080.3945	1266.8	384.95
938.6448	2081.9434	1269.3	387.2
938.7812	2083.4916	1267.1	382.45
938.9176	2085.039	1273.85	389.25
939.054	2086.5857	1264.65	381.3
939.1903	2088.1317	1268.3	386.65
939.3267	2089.677	1263.8	377.65
939.463	2091.2215	1262.95	382.2
939.5992	2092.7652	1266.05	382.15
939.7355	2094.3083	1275	389.25
939.8717	2095.8506	1262.15	381.85
940.0079	2097.3921	1264.65	383.1
940.1441	2098.933	1264.8	380.7
940.2802	2100.4731	1259.65	377.45
940.4163	2102.0124	1272.4	381.95
940.5524	2103.5511	1259.2	376.3
940.6885	2105.089	1257.6	373.55
940.8245	2106.6261	1260	376.8
940.9606	2108.1626	1266.3	382.8
941.0965	2109.6983	1290.5	377.3
941.2325	2111.2332	1264.15	380.55
941.3684	2112.7675	1264.45	379.95
941.5044	2114.301	1261.9	377.65
941.6403	2115.8337	1262.65	380.45
941.7761	2117.3657	1257.6	374.2
941.912	2118.897	1249.85	367.1
942.0478	2120.4276	1259.95	371.65
942.1835	2121.9575	1260.35	375.8
942.3193	2123.4866	1270.55	370.9
942.455	2125.0149	1248.45	358.7
942.5907	2126.5426	1252.75	370.75
942.7264	2128.0695	1255.25	369.95
942.8621	2129.5956	1252.15	370.6
942.9977	2131.1211	1259.9	373.9
943.1333	2132.6458	1247.9	364.55
943.2689	2134.1698	1250.4	366.45
943.4044	2135.693	1248.6	362.9
943.54	2137.2155	1253.5	367
943.6755	2138.7373	1251	366.45
943.8109	2140.2584	1254.7	372.8
943.9464	2141.7787	1251.4	361.65
944.0818	2143.2983	1246.75	364.65
944.2172	2144.8171	1242.75	359.05
944.3526	2146.3353	1238.25	355.15
944.4879	2147.8527	1241.9	362
944.6232	2149.3693	1242.95	359.7
944.7585	2150.8853	1239.6	354.2
944.8938	2152.4005	1238.95	354.4
945.029	2153.9149	1241.75	358.4
945.1642	2155.4287	1342.85	360.7
945.2994	2156.9417	1245.15	361.5
945.4346	2158.454	1239.7	355.8
945.5697	2159.9655	1232.7	350.35
945.7048	2161.4764	1234.2	351.75
945.8399	2162.9865	1232.35	349.45
945.9749	2164.4958	1231.2	346.25
946.1099	2166.0045	1231.4	344.35
946.2449	2167.5124	1234.3	351.6
946.3799	2169.0195	1231.55	348.2
946.5148	2170.526	1238.6	355.85
946.6498	2172.0317	1234.7	349.1
946.7846	2173.5367	1232.05	347.1
946.9195	2175.0409	1228.8	347.35
947.0543	2176.5445	1225.25	342.5
947.1891	2178.0473	1228.65	345.35
947.3239	2179.5494	1232.7	345.65
947.4587	2181.0507	1228.6	345.55
947.5934	2182.5513	1227.55	342.85
947.7281	2184.0512	1219.8	337.45
947.8628	2185.5504	1226.25	346.15
947.9974	2187.0488	1229.15	347.1
948.132	2188.5465	1226.55	343.6
948.2666	2190.0435	1220.75	337.75
948.4012	2191.5397	1220.5	337.55
948.5357	2193.0353	1219.1	335.75
948.6702	2194.5301	1218.2	333.4
948.8047	2196.0241	1218.6	335.55
948.9392	2197.5175	1215.5	331.9
949.0736	2199.0101	1219.35	335.05
949.208	2200.502	1214.3	331.7
949.3424	2201.9931	1215.7	332.85
949.4767	2203.4835	1206.9	320.9
949.611	2204.9733	1232.2	331.4
949.7453	2206.4622	1208.65	326.65
949.8796	2207.9505	1212.95	329
950.0138	2209.438	1205.15	322.7
950.148	2210.9248	1212.35	327.45
950.2822	2212.4109	1200.15	316.2
950.4164	2213.8962	1202.65	317.15
950.5505	2215.3809	1209.25	325.25
950.6846	2216.8648	1197.8	316.35
950.8186	2218.3479	1203.05	315.15
950.9527	2219.8304	1199.4	311.65
951.0867	2221.3121	1206	320.65
951.2207	2222.7931	1196.3	313.35
951.3546	2224.2733	1200.85	318.6
951.4886	2225.7529	1198.3	314.2
951.6225	2227.2317	1203.5	318.05
951.7563	2228.7098	1190.5	307.35
951.8902	2230.1872	1192.9	309.65
952.024	2231.6638	1195.5	310.9
952.1578	2233.1397	1193.9	307.1
952.2916	2234.6149	1189.25	307.1
952.4253	2236.0894	1190.4	307.55
952.559	2237.5632	1190.4	306.2
952.6927	2239.0362	1189.7	305.4
952.8263	2240.5085	1187.1	304.35
952.9599	2241.9801	1181	298
953.0935	2243.4509	1185.6	301.35
953.2271	2244.921	1180.65	296.2
953.3606	2246.3904	1183.8	297.6
953.4941	2247.8591	1182.85	300.3
953.6276	2249.3271	1184.4	300.25
953.7611	2250.7943	1184.85	300.05
953.8945	2252.2608	1176.95	292.65
954.0279	2253.7266	1178.35	297
954.1612	2255.1917	1180.8	297.1
954.2946	2256.656	1181.2	297.5
954.4279	2258.1197	1172.25	289.6
954.5612	2259.5826	1181.25	294.5
954.6944	2261.0447	1172.15	286.1
954.8276	2262.5062	1182.15	296.15
954.9608	2263.9669	1176.7	290.7
955.094	2265.4269	1168.55	285.35
955.2271	2266.8862	1172.5	290.2
955.3602	2268.3448	1174.7	291.65
955.4933	2269.8026	1171.3	286.6
955.6264	2271.2598	1170.4	286.8
955.7594	2272.7162	1169.25	286.2
955.8924	2274.1719	1167.25	283.1
956.0253	2275.6268	1166.35	285.2
956.1583	2277.0811	1170.5	288.15
956.2912	2278.5346	1163.1	283.45
956.4241	2279.9874	1162.7	279.1
956.5569	2281.4395	1161.7	280
956.6897	2282.8908	1161.95	274.6
956.8225	2284.3414	1167	284.35
956.9553	2285.7914	1167.05	283.85
957.088	2287.2406	1160.5	274.6
957.2207	2288.689	1156.95	272.9
957.3534	2290.1368	1157.05	272.35
957.486	2291.5838	1159.05	272.7
957.6186	2293.0302	1157.35	273
957.7512	2294.4758	1160.95	278.15
957.8838	2295.9206	1157.85	272.25
958.0163	2297.3648	1158.15	275.55
958.1488	2298.8082	1154.35	268.15
958.2813	2300.251	1153.25	272.7
958.4137	2301.693	1153.6	268.6
958.5461	2303.1343	1160.2	276.35
958.6785	2304.5748	1156.05	272.8
958.8108	2306.0147	1147.5	264.35
958.9432	2307.4538	1150.7	264.7
959.0754	2308.8922	1149.3	267.2
959.2077	2310.3299	1149	267.3
959.3399	2311.7669	1148.4	265.7
959.4721	2313.2031	1148.9	266.35
959.6043	2314.6387	1151.6	268.6
959.7365	2316.0735	1143.1	258.95
959.8686	2317.5076	1146.7	264.05
960.0006	2318.941	1149.9	266.5
960.1327	2320.3737	1143.85	258.75
960.2647	2321.8056	1144.4	258.65
960.3967	2323.2369	1144.5	258.9
960.5287	2324.6674	1148.3	263
960.6606	2326.0972	1146.15	261.7
960.7925	2327.5263	1145.55	263.3
960.9244	2328.9547	1146.2	261.25
961.0562	2330.3823	1147.45	263.4
961.1881	2331.8092	1143.85	257.7
961.3198	2333.2355	1140.05	257
961.4516	2334.661	1132.7	249.15
961.5833	2336.0858	1142.6	257.2
961.715	2337.5098	1140.3	257.1
961.8467	2338.9332	1140.55	256.9
961.9783	2340.3558	1136.05	249.65
962.1099	2341.7778	1135.35	251.95
962.2415	2343.199	1138	252.2
962.373	2344.6195	1129.6	245.45
962.5045	2346.0393	1128.25	244.5
962.636	2347.4583	1128.95	244.45
962.7675	2348.8767	1133.6	247.45
962.8989	2350.2943	1131.9	248.25
963.0303	2351.7113	1130.9	246.9
963.1617	2353.1275	1128.8	244.8
963.293	2354.543	1146.65	237.75
963.4243	2355.9578	1129.55	244.6
963.5556	2357.3718	1122.8	238.9
963.6868	2358.7852	1123.95	238.45
963.818	2360.1978	1126.9	242
963.9492	2361.6098	1121.1	238.45
964.0803	2363.021	1126.25	236.65
964.2114	2364.4315	1121.8	238.5
964.3425	2365.8413	1128.85	238.45
964.4736	2367.2504	1123.05	240.4
964.6046	2368.6587	1115.55	231.15
964.7356	2370.0664	1118.2	234.7
964.8666	2371.4733	1121.1	237.15
964.9975	2372.8795	1115.15	232.45
965.1284	2374.285	1112.55	227.65
965.2593	2375.6899	1112	230.15
965.3901	2377.0939	1113	230.2
965.5209	2378.4973	1109.6	226.5
965.6517	2379.9	1109.3	226.5
965.7825	2381.3019	1108.6	224
965.9132	2382.7032	1110.3	226.6
966.0439	2384.1037	1109.1	227
966.1745	2385.5035	1110.75	226.35
966.3051	2386.9027	1105.75	223.1
966.4357	2388.3011	1110	223.3
966.5663	2389.6987	1110.1	225.55
966.6968	2391.0957	1100	213.7
966.8273	2392.492	1107.15	224.2
966.9578	2393.8876	1105.15	220.6
967.0882	2395.2824	1107.05	223.85
967.2186	2396.6765	1100.25	217.6
967.349	2398.07	1097.6	215.05
967.4793	2399.4627	1101.35	217.2
967.6097	2400.8547	1102.85	218.4
967.7399	2402.246	1105.65	214.65
967.8702	2403.6366	1099.3	214.4
968.0004	2405.0265	1096.1	212.45
968.1306	2406.4156	1103.35	214.2
968.2607	2407.8041	1098.35	211.5
968.3909	2409.1918	1099.3	212
968.521	2410.5789	1095	210.65
968.651	2411.9652	1093.65	208.55
968.781	2413.3508	1089.8	207.8
968.911	2414.7358	1092.5	208.35
969.041	2416.12	1086.9	204.4
969.1709	2417.5035	1087.5	202.1
969.3008	2418.8863	1090.9	206.1
969.4307	2420.2684	1089.4	204.9
969.5606	2421.6497	1086.15	201.4
969.6904	2423.0304	1083.75	199.6
969.8201	2424.4104	1087.3	201.65
969.9499	2425.7896	1088.25	200.35
970.0796	2427.1682	1082.25	198.65
970.2093	2428.546	1086.75	203
970.3389	2429.9232	1085.25	199.35
970.4685	2431.2996	1085.55	200.15
970.5981	2432.6753	1082.7	199.05
970.7277	2434.0503	1080.65	195.5
970.8572	2435.4246	1077.1	191.85
970.9867	2436.7982	1081.2	194.65
971.1161	2438.1711	1078.25	194.9
971.2456	2439.5433	1075.6	191.55
971.375	2440.9148	1082.5	192.8
971.5043	2442.2856	1074.45	191.55
971.6336	2443.6557	1080.45	195.3
971.7629	2445.025	1073.9	188.8
971.8922	2446.3937	1077.5	195.4
972.0214	2447.7617	1075.6	192.4
972.1506	2449.1289	1074.3	191.55
972.2798	2450.4955	1080	190.6
972.4089	2451.8613	1076.5	193.45
972.538	2453.2265	1073.05	188.75
972.6671	2454.5909	1069.3	183.05
972.7961	2455.9546	1070.25	186.7
972.9251	2457.3177	1071.4	187.6
973.0541	2458.68	1068.15	181.35
973.1831	2460.0416	1069.95	186.35
973.312	2461.4025	1071.4	185.55
973.4408	2462.7627	1077.5	181.15
973.5697	2464.1222	1067.75	186.35
973.6985	2465.4811	1066.65	184.5
973.8273	2466.8392	1069.4	184.9
973.956	2468.1966	1075.15	187
974.0847	2469.5533	1067.5	181.05
974.2134	2470.9093	1067.1	182.6
974.3421	2472.2645	1065.45	182.7
974.4707	2473.6191	1065.9	182.3
974.5993	2474.973	1062.2	179.7
974.7278	2476.3262	1060.25	174.8
974.8563	2477.6787	1063	180.45
974.9848	2479.0305	1064.1	179.55
975.1132	2480.3816	1059.1	174.45
975.2417	2481.7319	1063.5	178.85
975.37	2483.0816	1067.2	180.9
975.4984	2484.4306	1062.2	177.2
975.6267	2485.7789	1058.95	176.3
975.755	2487.1264	1059.2	173.15
975.8833	2488.4733	1055.85	173.9
976.0115	2489.8195	1071.05	171
976.1397	2491.165	1059.55	172.7
976.2678	2492.5097	1055.8	169.3
976.3959	2493.8538	1056.3	172.65
976.524	2495.1972	1057.35	173.5
976.6521	2496.5398	1057.65	172.6
976.7801	2497.8818	1056.25	172.3
976.9081	2499.2231	1054.05	170.95
977.036	2500.5637	1050.75	165.1
977.164	2501.9035	1052.1	165.4
977.2918	2503.2427	1057.35	168.15
977.4197	2504.5812	1047.3	164.3
977.5475	2505.919	1053.3	168.75
977.6753	2507.256	1048.4	163.9
977.8031	2508.5924	1049.4	165.15
977.9308	2509.9281	1053.3	162.8
978.0585	2511.2631	1048.3	166.2
978.1861	2512.5974	1044.9	161.25
978.3137	2513.9309	1041.6	156.05
978.4413	2515.2638	1069.8	159.4
978.5689	2516.596	1046.4	162.8
978.6964	2517.9275	1046.4	160.3
978.8239	2519.2583	1045.4	162.05
978.9513	2520.5884	1043.7	157.3
979.0788	2521.9178	1036.55	153.7
979.2062	2523.2465	1040.45	156.9
979.3335	2524.5745	1040.4	156.65
979.4608	2525.9018	1044.5	160.4
979.5881	2527.2284	1036.6	154
979.7154	2528.5543	1041	156.55
979.8426	2529.8796	1037.45	152.2
979.9698	2531.2041	1038.7	154.35
980.0969	2532.5279	1036	153.2
980.224	2533.851	1040.35	156.6
980.3511	2535.1735	1033.6	149.55
980.4781	2536.4952	1039.4	154.45
980.6052	2537.8163	1035.3	149.55
980.7321	2539.1366	1035.7	151.65
980.8591	2540.4562	1037	151.8
980.986	2541.7752	1036.85	153.55
981.1129	2543.0935	1034.25	150.15
981.2397	2544.411	1035.65	149.3
981.3665	2545.7279	1035.05	152.05
981.4933	2547.0441	1029.3	144.95
981.62	2548.3596	1033.9	149.1
981.7467	2549.6744	1031.3	148.8
981.8734	2550.9885	1035.1	149.15
982.0001	2552.3019	1028.3	145.2
982.1267	2553.6146	1033.7	149.55
982.2532	2554.9266	1027.35	142.45
982.3798	2556.2379	1029.65	143.75
982.5063	2557.5485	1028.1	145.5
982.6327	2558.8585	1036.85	146.2
982.7592	2560.1677	1030.35	142.85
982.8856	2561.4762	1029.8	145.3
983.0119	2562.7841	1028.7	142
983.1383	2564.0913	1027.1	143.65
983.2646	2565.3977	1027.75	142.95
983.3908	2566.7035	1029.55	145.75
983.517	2568.0086	1032.3	146.55
983.6432	2569.313	1027.6	144.05
983.7694	2570.6167	1033.15	145.4
983.8955	2571.9197	1024.4	142.35
984.0216	2573.222	1027.85	139.85
984.1476	2574.5236	1025.75	140.15
984.2737	2575.8246	1025.9	140.3
984.3996	2577.1248	1026.05	140.3
984.5256	2578.4244	1025.7	143.95
984.6515	2579.7232	1022	138.45
984.7774	2581.0214	1051.95	134.3
984.9032	2582.3189	1021.15	138.6
985.029	2583.6157	1033.45	134.55
985.1548	2584.9118	1024.9	143.55
985.2806	2586.2072	1020.7	136.35
985.4063	2587.5019	1019.75	136.45
985.5319	2588.7959	1018.95	134.35
985.6576	2590.0893	1024.75	139.1
985.7832	2591.3819	1022.4	139.8
985.9087	2592.6739	1017.9	135.3
986.0343	2593.9652	1022.7	136.8
986.1597	2595.2557	1019.1	135.4
986.2852	2596.5456	1018.25	133.6
986.4106	2597.8348	1018.15	135
986.536	2599.1234	1016.2	131.8
986.6614	2600.4112	1018.3	135.9
986.7867	2601.6983	1021.95	134.15
986.912	2602.9848	1016.9	133.75
987.0372	2604.2705	1023.35	131
987.1624	2605.5556	1011.8	128.35
987.2876	2606.84	1017.4	135.65
987.4128	2608.1237	1015.15	129.95
987.5379	2609.4067	1020	135.8
987.6629	2610.689	1025.95	134.3
987.788	2611.9707	1015.95	128.15
987.913	2613.2516	1013.15	125.45
988.0379	2614.5319	1007.75	123.7
988.1629	2615.8115	1010.6	127.7
988.2878	2617.0903	1012.75	128.25
988.4126	2618.3685	1007.2	122.05
988.5375	2619.6461	1007.7	124
988.6622	2620.9229	1008.3	124
988.787	2622.199	1010.7	125.55
988.9117	2623.4745	1011.6	126.2
989.0364	2624.7493	1006.8	123.3
989.161	2626.0234	1007.8	124.45
989.2857	2627.2968	1008.5	124.2
989.4102	2628.5695	1010.95	125.05
989.5348	2629.8415	1002.5	121.1
989.6593	2631.1128	1006.5	122
989.7837	2632.3835	1004.2	121.6
989.9082	2633.6535	1005.6	123.05
990.0326	2634.9228	1000.4	116.3
990.1569	2636.1914	1002.8	118.65
990.2812	2637.4593	1000.15	115.6
990.4055	2638.7265	1001.5	116.8
990.5298	2639.9931	1002.05	119.15
990.654	2641.259	1000.45	114.95
990.7782	2642.5242	1003.4	119.1
990.9023	2643.7887	1002.45	120.85
991.0264	2645.0525	998	113.7
991.1505	2646.3156	1012.9	114.3
991.2745	2647.5781	1000.55	117.85
991.3985	2648.8398	994.6	111.55
991.5225	2650.1009	1000.45	110.05
991.6464	2651.3613	998.2	116.15
991.7703	2652.6211	999	116.1
991.8942	2653.8801	995.75	113.65
992.018	2655.1385	997	108.85
992.1418	2656.3961	992.15	109.2
992.2655	2657.6531	995.15	110.2
992.3892	2658.9094	996.25	111.05
992.5129	2660.1651	993.8	111.25
992.6366	2661.42	995.05	110.1
992.7602	2662.6743	993.9	110.3
992.8837	2663.9279	995.35	113.7
993.0073	2665.1808	993.75	110.4
993.1307	2666.433	997.05	111.75
993.2542	2667.6846	995.1	112.55
993.3776	2668.9354	997.75	110.55
993.501	2670.1856	995.25	110.5
993.6244	2671.4351	988.95	104.9
993.7477	2672.6839	995.2	111.6
993.8709	2673.9321	993.7	111
993.9942	2675.1795	987.4	105.85
994.1174	2676.4263	987.65	105.45
994.2405	2677.6724	990.1	107.95
994.3637	2678.9179	995.05	109.6
994.4868	2680.1626	995.7	112.8
994.6098	2681.4067	992.95	107.75
994.7328	2682.6501	989.7	104.7
994.8558	2683.8928	993.8	109.7
994.9788	2685.1348	988.3	104.4
995.1017	2686.3761	987.05	102.25
995.2245	2687.6168	984.95	99.95
995.3474	2688.8568	986.45	102.9
995.4702	2690.0961	987	105.15
995.5929	2691.3348	983.25	98.85
995.7156	2692.5727	987.05	104.6
995.8383	2693.81	983.65	100.75
995.961	2695.0466	980.7	99
996.0836	2696.2826	984.7	99.95
996.2062	2697.5178	988.15	102.75
996.3287	2698.7524	982.5	99.1
996.4512	2699.9863	988.85	102.45
996.5737	2701.2195	981.8	99.95
996.6961	2702.452	983.5	97.1
996.8185	2703.6839	984.3	100.85
996.9408	2704.9151	982.3	99.55
997.0631	2706.1456	985.6	101.95
997.1854	2707.3755	984.9	101.2
997.3077	2708.6046	985.7	98.85
997.4299	2709.8331	985.15	101.85
997.552	2711.0609	981.1	96.25
997.6742	2712.2881	985.6	102.45
997.7963	2713.5145	984.7	99.2
997.9183	2714.7403	983.25	99.85
998.0403	2715.9654	980.9	96.9
998.1623	2717.1899	999.45	101.35
998.2842	2718.4136	985.35	102.55
998.4062	2719.6367	985.4	101.8
998.528	2720.8591	991.65	100.75
998.6498	2722.0809	984.85	98.45
998.7716	2723.3019	992.25	102.9
998.8934	2724.5223	987.5	103.2
999.0151	2725.7421	988.7	104
999.1368	2726.9611	986.15	101.1
999.2584	2728.1795	989.3	101.75
999.38	2729.3972	980.35	97.7
999.5016	2730.6142	986.05	94.55
999.6231	2731.8306	979.7	95.55
999.7446	2733.0462	981.8	97.05
999.8661	2734.2612	983.8	93.3
999.9875	2735.4756	978.9	95.2
1000.1089	2736.6892	973.8	89.55
1000.2302	2737.9022	971.8	88.8
1000.3515	2739.1145	972.15	86.95
1000.4728	2740.3262	983.35	92.3
1000.594	2741.5372	975.95	92.5
1000.7152	2742.7475	973.45	90.2
1000.8363	2743.9571	974.4	88.5
1000.9575	2745.1661	978.6	89.8
1001.0785	2746.3744	975.15	89.45
1001.1996	2747.582	969.8	85.75
1001.3206	2748.7889	966.35	80.35
1001.4415	2749.9952	971.1	87.65
1001.5625	2751.2008	967.6	83.7
1001.6833	2752.4057	971	86.2
1001.8042	2753.61	966.05	81.9
1001.925	2754.8136	966.3	81.45
1002.0458	2756.0165	967.95	83.5
1002.1665	2757.2188	964.85	82.5
1002.2872	2758.4204	966.75	83.25
1002.4078	2759.6213	965.6	80.1
1002.5285	2760.8215	969.05	82.85
1002.649	2762.0211	968.8	82.05
1002.7696	2763.22	967.6	81.15
1002.8901	2764.4182	965.5	78.95
1003.0106	2765.6158	961.65	77.7
1003.131	2766.8127	963.5	79.2
1003.2514	2768.009	963.6	78.95
1003.3717	2769.2045	965.25	78.9
1003.492	2770.3994	962.55	76.1
1003.6123	2771.5936	962.1	79.35
1003.7325	2772.7872	958.6	75.15
1003.8527	2773.9801	963.25	75.35
1003.9729	2775.1723	977.65	78.65
1004.093	2776.3639	960.7	78.3
1004.2131	2777.5548	962.2	78.45
1004.3331	2778.745	961.75	77.7
1004.4531	2779.9346	957.7	73.75
1004.5731	2781.1235	958.7	74.6
1004.693	2782.3117	961.65	78.65
1004.8129	2783.4992	958.95	75.65
1004.9328	2784.6861	961.55	77.3
1005.0526	2785.8723	959	74.85
1005.1723	2787.0579	956.65	73.1
1005.2921	2788.2428	956.6	71.6
1005.4118	2789.427	953.7	71
1005.5314	2790.6106	957.45	74.25
1005.651	2791.7935	958.65	74.3
1005.7706	2792.9757	956.95	76.15
1005.8902	2794.1573	960.6	72.05
1006.0097	2795.3382	956.65	71.55
1006.1291	2796.5184	955.85	73.6
1006.2485	2797.698	959.8	73.5
1006.3679	2798.8769	956	71.75
1006.4873	2800.0551	958.3	75.65
1006.6066	2801.2327	958.8	73
1006.7258	2802.4096	955.85	73.6
1006.8451	2803.5859	958.5	72.1
1006.9642	2804.7615	956.8	72.75
1007.0834	2805.9364	958.85	75.4
1007.2025	2807.1106	956.5	73.1
1007.3216	2808.2842	957.5	73.7
1007.4406	2809.4572	958.85	74.65
1007.5596	2810.6294	961.3	78.2
1007.6785	2811.801	961.35	80.65
1007.7975	2812.972	960.85	77.6
1007.9163	2814.1423	962.75	79.55
1008.0352	2815.3119	967.35	82.9
1008.154	2816.4808	962.4	80.35
1008.2727	2817.6491	968.55	85
1008.3914	2818.8167	971.55	89.7
1008.5101	2819.9837	977.8	90.25
1008.6288	2821.15	978.7	93.3
1008.7474	2822.3157	980.1	98.4
1008.8659	2823.4807	986.45	102.3
1008.9844	2824.645	989.5	104.55
1009.1029	2825.8086	996.15	113.75
1009.2214	2826.9716	1004.3	121.5
1009.3398	2828.134	1005	120
1009.4581	2829.2957	1015.35	134.6
1009.5764	2830.4567	1017.65	133.4
1009.6947	2831.617	1020.7	137.8
1009.813	2832.7767	1021.45	139.05
1009.9312	2833.9358	1022.15	140.15
1010.0493	2835.0941	1025.7	139.45
1010.1675	2836.2519	1024.25	142.65
1010.2855	2837.4089	1019.95	136.25
1010.4036	2838.5653	1010.45	126.6
1010.5216	2839.7211	1011.1	129.35
1010.6396	2840.8761	1009	122.55
1010.7575	2842.0306	1004.85	122.75
1010.8754	2843.1843	1005.1	122.8
1010.9932	2844.3374	1010.3	128.6
1011.111	2845.4899	1012.55	128.55
1011.2288	2846.6417	1011.9	129.7
1011.3465	2847.7928	1017.8	134
1011.4642	2848.9433	1012.15	127.05
1011.5818	2850.0931	1015.05	130.75
1011.6995	2851.2422	1021.9	137.3
1011.817	2852.3907	1013.35	129.65
1011.9345	2853.5385	1019.8	132.9
1012.052	2854.6857	1024.7	134.2
1012.1695	2855.8323	1016.1	134.25
1012.2869	2856.9781	1024.45	140.7
1012.4042	2858.1233	1023.65	139.55
1012.5216	2859.2679	1024.9	143.25
1012.6389	2860.4118	1023.6	141.05
1012.7561	2861.555	1038.7	150.2
1012.8733	2862.6976	1033.15	147.05
1012.9905	2863.8395	1032.3	149.15
1013.1076	2864.9808	1034.1	150.9
1013.2247	2866.1214	1032.7	149.7
1013.3417	2867.2614	1037	153.2
1013.4587	2868.4007	1040.85	155.95
1013.5757	2869.5393	1042.6	157.65
1013.6926	2870.6773	1042.85	156.25
1013.8095	2871.8146	1044.8	157.3
1013.9263	2872.9513	1052.8	166.8
1014.0431	2874.0874	1046.35	162.15
1014.1599	2875.2227	1050.95	167.5
1014.2766	2876.3574	1049	167.1
1014.3933	2877.4915	1045.35	162.15
1014.51	2878.6249	1051.45	168.1
1014.6266	2879.7577	1054.2	167.6
1014.7431	2880.8898	1061.25	166.8
1014.8596	2882.0212	1057.55	175.15
1014.9761	2883.152	1056.2	172.75
1015.0925	2884.2821	1058.6	177.6
1015.2089	2885.4116	1060.15	175.55
1015.3253	2886.5405	1058.8	176.3
1015.4416	2887.6686	1062.95	177.15
1015.5579	2888.7962	1063.2	181.2
1015.6741	2889.923	1061.65	178.05
1015.7903	2891.0493	1063	179.1
1015.9065	2892.1748	1061.95	176.55
1016.0226	2893.2997	1064.35	181.1
1016.1387	2894.424	1061	179.3
1016.2547	2895.5476	1059.15	176.75
1016.3707	2896.6706	1063.25	181.15
1016.4866	2897.7929	1062.55	178.85
1016.6025	2898.9145	1064.35	182.75
1016.7184	2900.0355	1060.25	177.25
1016.8342	2901.1559	1062.4	177.65
1016.95	2902.2756	1065.9	179.05
1017.0658	2903.3946	1060.85	179.15
1017.1815	2904.513	1059.7	173.65
1017.2971	2905.6308	1059.95	175.9
1017.4127	2906.7479	1056.95	173.35
1017.5283	2907.8643	1056.35	172.6
1017.6439	2908.9801	1056.1	173
1017.7594	2910.0953	1056.75	173.2
1017.8748	2911.2098	1058.05	172.6
1017.9902	2912.3236	1060	170.25
1018.1056	2913.4368	1062.35	176.4
1018.2209	2914.5494	1062.6	178.7
1018.3362	2915.6613	1059.9	169.65
1018.4515	2916.7725	1055.95	171.05
1018.5667	2917.8831	1052.85	169.65
1018.6819	2918.9931	1050.9	165.55
1018.797	2920.1024	1044	158.2
1018.9121	2921.211	1042.7	159.9
1019.0271	2922.319	1042.8	159.5
1019.1421	2923.4264	1038.7	155.6
1019.2571	2924.5331	1037.45	156.15
1019.372	2925.6391	1038.05	152.85
1019.4869	2926.7445	1040.65	160.35
1019.6017	2927.8493	1039.4	154.75
1019.7165	2928.9534	1036.95	155
1019.8313	2930.0569	1045.8	161.2
1019.946	2931.1597	1041	155.2
1020.0606	2932.2619	1043.7	161.15
1020.1753	2933.3634	1039.7	158.25
1020.2899	2934.4643	1051.3	160.45
1020.4044	2935.5645	1052.1	162.3
1020.5189	2936.6641	1049.8	162.75
1020.6334	2937.763	1042.75	160.65
1020.7478	2938.8613	1046.75	162.75
1020.8622	2939.959	1048.6	160.65
1020.9765	2941.056	1037.4	155.25
1021.0908	2942.1523	1034.85	150.3
1021.2051	2943.248	1031.7	149.85
1021.3193	2944.3431	1026.45	142.6
1021.4334	2945.4375	1021.25	136.5
1021.5476	2946.5313	1008.6	127.1
1021.6617	2947.6244	1006.8	121.95
1021.7757	2948.7169	1006.5	122.8
1021.8897	2949.8087	999.15	116.5
1022.0037	2950.8999	990.5	107.9
1022.1176	2951.9904	985.45	102.3
1022.2315	2953.0803	984.6	100.55
1022.3453	2954.1696	977.7	94.6
1022.4591	2955.2582	976.6	95
1022.5728	2956.3462	974.85	91.8
1022.6865	2957.4335	975.25	89.9
1022.8002	2958.5202	972.95	85.85
1022.9138	2959.6062	972.6	90.3
1023.0274	2960.6916	971.45	89.25
1023.141	2961.7764	972.75	88.7
1023.2545	2962.8605	972.7	88.35
1023.3679	2963.9439	969.4	86.4
1023.4813	2965.0267	972.65	88.15
1023.5947	2966.1089	996.8	90.6
1023.708	2967.1905	970.4	87.05
1023.8213	2968.2714	967.8	84.55
1023.9346	2969.3516	967.4	84.75
1024.0478	2970.4312	978.5	88.15
1024.1609	2971.5102	969.2	87.6
1024.274	2972.5885	966.5	81.1
1024.3871	2973.6662	973.6	84.75
1024.5002	2974.7432	967.8	86.9
1024.6132	2975.8196	966.75	84.35
1024.7261	2976.8954	971.1	89.05
1024.839	2977.9705	964.5	80.5
1024.9519	2979.045	969.95	86.05
1025.0647	2980.1188	966.15	82.4
1025.1775	2981.192	966.35	83.3
1025.2902	2982.2645	966	84.1
1025.4029	2983.3364	963.8	79.5
1025.5156	2984.4077	958.75	75.35
1025.6282	2985.4783	969	80.95
1025.7407	2986.5483	957.85	77.15
1025.8532	2987.6177	958.1	77.05
1025.9657	2988.6864	953.8	71
1026.0782	2989.7545	955	71.1
1026.1906	2990.8219	955	72.45
1026.3029	2991.8887	955.9	70.3
1026.4152	2992.9548	947.15	63.75
1026.5275	2994.0204	940.55	60.7
1026.6397	2995.0852	940.25	57.95
1026.7519	2996.1495	944.25	58.75
1026.864	2997.2131	939.45	57.95
1026.9761	2998.276	940.95	57
1027.0882	2999.3383	939.1	54.3
1027.2002	3000.4	936.25	52.65
1027.3122	3001.4611	932.5	49.65
1027.4241	3002.5215	934.4	51
1027.536	3003.5812	929.9	46.4
1027.6478	3004.6404	929.5	46.1
1027.7596	3005.6989	929.75	46.05
1027.8714	3006.7567	931.2	48.05
1027.9831	3007.8139	946.25	43.75
1028.0947	3008.8705	926.9	44.35
1028.2064	3009.9264	944.6	44.7
1028.3179	3010.9818	923.4	39.65
1028.4295	3012.0364	926.25	42.75
1028.541	3013.0905	922.2	39.5
1028.6524	3014.1439	925	40.85
1028.7638	3015.1966	924.1	41.2
1028.8752	3016.2487	920.95	36.45
1028.9865	3017.3002	926.35	39.35
1029.0978	3018.3511	921.3	38.6
1029.209	3019.4013	923	41.85
1029.3202	3020.4509	921.15	38.9
1029.4314	3021.4998	922.25	39.3
1029.5425	3022.5481	919.9	37.1
1029.6535	3023.5958	919.65	36.35
1029.7645	3024.6428	921.05	37.05
1029.8755	3025.6892	920.25	37.15
1029.9864	3026.735	921.55	39.55
1030.0973	3027.7802	919.15	37
1030.2082	3028.8247	919.6	36.95
1030.319	3029.8685	919.2	33.65
1030.4297	3030.9118	921.9	36.7
1030.5404	3031.9544	919.9	38.2
1030.6511	3032.9963	917	34.3
1030.7617	3034.0376	921.8	38.05
1030.8723	3035.0783	922.95	37.25
1030.9829	3036.1184	919.75	37.05
1031.0934	3037.1578	919	36.85
1031.2038	3038.1966	922.05	37.8
1031.3142	3039.2348	918	34.7
1031.4246	3040.2723	927	35.4
1031.5349	3041.3092	917.9	34.4
1031.6452	3042.3455	918.6	34.7
1031.7554	3043.3811	921	36.35
1031.8656	3044.4161	921.35	37.2
1031.9758	3045.4505	919.9	37.45
1032.0859	3046.4842	918.4	33.85
1032.1959	3047.5173	918.8	34.9
1032.3059	3048.5498	918.9	36.45
1032.4159	3049.5816	921.2	38.15
1032.5258	3050.6128	922.15	38.1
1032.6357	3051.6434	922.5	36.85
1032.7455	3052.6734	920.9	37
1032.8553	3053.7027	920.95	37.35
1032.9651	3054.7314	916.75	36.4
1033.0748	3055.7594	920.25	36.9
1033.1845	3056.7868	920.15	36.8
1033.2941	3057.8136	918.75	33.15
1033.4037	3058.8398	919.7	36.7
1033.5132	3059.8653	919.3	36.95
1033.6227	3060.8902	919.75	36.65
1033.7321	3061.9145	919.8	37.7
1033.8415	3062.9381	920.7	37.65
1033.9509	3063.9612	936.4	36.3
1034.0602	3064.9835	921.65	37.45
1034.1694	3066.0053	921.6	36.05
1034.2787	3067.0264	918.75	37.05
1034.3878	3068.0469	921.05	36.25
1034.497	3069.0668	922.8	36.5
1034.6061	3070.086	919.3	35.9
1034.7151	3071.1046	920.35	35.65
1034.8241	3072.1226	920.4	35.25
1034.9331	3073.1399	917.35	33.55
1035.042	3074.1567	918.7	35.7
1035.1508	3075.1727	920.1	34.55
1035.2597	3076.1882	918.8	37.35
1035.3684	3077.203	916.5	32.9
1035.4772	3078.2173	917.3	33.2
1035.5859	3079.2308	917.05	31.25
1035.6945	3080.2438	918.9	36.15
1035.8031	3081.2561	914.15	31.4
1035.9117	3082.2678	913.95	29.75
1036.0202	3083.2789	912.35	29.75
1036.1286	3084.2893	914.75	31.35
1036.2371	3085.2991	915.1	33.75
1036.3454	3086.3083	918.45	31.1
1036.4538	3087.3169	914.05	30.4
1036.562	3088.3248	913.05	28.15
1036.6703	3089.3321	914.35	29.75
1036.7785	3090.3388	912.2	31.85
1036.8866	3091.3449	909.8	27.6
1036.9948	3092.3503	913.2	26.4
1037.1028	3093.3551	911.85	31.35
1037.2108	3094.3593	907.5	25.45
1037.3188	3095.3629	909.25	24.65
1037.4267	3096.3658	911.8	27.2
1037.5346	3097.3681	909.15	27.75
1037.6425	3098.3698	910.35	25.65
1037.7503	3099.3708	918.85	30.6
1037.858	3100.3713	911.6	29.2
1037.9657	3101.3711	909.3	25.85
1038.0734	3102.3702	1042.15	27.75
1038.181	3103.3688	909.6	24
1038.2886	3104.3667	909.4	28.7
1038.3961	3105.364	906.2	24.95
1038.5036	3106.3607	908.85	25.15
1038.611	3107.3568	906.35	20.15
1038.7184	3108.3522	906.7	22.65
1038.8257	3109.347	907.8	24.65
1038.933	3110.3412	911.1	24.75
1039.0403	3111.3348	908.15	24.55
1039.1475	3112.3277	905.9	23.55
1039.2547	3113.32	905.65	23.5
1039.3618	3114.3117	906.1	22.95
1039.4689	3115.3028	904.8	22
1039.5759	3116.2932	906.5	22
1039.6829	3117.2831	911.5	20.95
1039.7898	3118.2723	905.75	24.15
1039.8967	3119.2608	905.3	21.85
1040.0035	3120.2488	905.8	22
1040.1103	3121.2361	904.6	21.45
1040.2171	3122.2229	903.25	21.7
1040.3238	3123.209	904.15	19.9
1040.4305	3124.1944	903.6	19.55
1040.5371	3125.1793	906.8	21.8
1040.6437	3126.1635	904.6	21.85
1040.7502	3127.1471	903.6	21.55
1040.8567	3128.1301	903.45	19.95
1040.9631	3129.1125	903.1	21
1041.0695	3130.0942	902.8	20.1
1041.1759	3131.0753	912.1	22.7
1041.2822	3132.0558	909.1	22.55
1041.3884	3133.0357	903.35	20.8
1041.4946	3134.015	903.75	19.15
1041.6008	3134.9936	903.15	17.25
1041.7069	3135.9716	921.2	19.65
1041.813	3136.949	902.2	19.65
1041.919	3137.9258	919	18.65
1042.025	3138.902	909.75	18
1042.1309	3139.8775	902.55	20.75
1042.2368	3140.8524	901.65	17.8
1042.3427	3141.8267	904.6	19.9
1042.4485	3142.8004	901.3	20.2
1042.5542	3143.7735	907.1	17.05
1042.6599	3144.7459	904.3	19.55
1042.7656	3145.7178	900.5	17.25
1042.8712	3146.689	899.6	17.65
1042.9768	3147.6596	901	16.6
1043.0823	3148.6295	903.85	20.35
1043.1878	3149.5989	902.2	18.35
1043.2932	3150.5676	899.35	19.5
1043.3986	3151.5357	901.2	17.15
1043.5039	3152.5032	900.85	18.95
1043.6092	3153.4701	900.55	19.65
1043.7145	3154.4364	904.2	19.75
1043.8197	3155.402	900.65	18.2
1043.9248	3156.367	902.3	19.5
1044.03	3157.3315	937.65	18.45
1044.135	3158.2952	899.25	14.7
1044.24	3159.2584	899.25	15.8
1044.345	3160.221	901.95	16.7
1044.4499	3161.1829	899.55	16.3
1044.5548	3162.1442	899.25	16.3
1044.6596	3163.105	900.5	18.35
1044.7644	3164.065	901.65	19.2
1044.8692	3165.0245	903.85	19.5
1044.9739	3165.9834	898.85	15.3
1045.0785	3166.9416	897.65	14.3
1045.1831	3167.8993	896.95	12.95
1045.2877	3168.8563	902	18.5
1045.3922	3169.8127	900.65	19.4
1045.4966	3170.7684	899.5	14.75
1045.6011	3171.7236	898.75	14.8
1045.7054	3172.6782	899.9	17.5
1045.8098	3173.6321	898.6	16.8
1045.914	3174.5854	902.75	15.15
1046.0183	3175.5381	899.45	16.3
1046.1224	3176.4902	898.1	14.45
1046.2266	3177.4417	897	17.3
1046.3307	3178.3926	898.75	14.65
1046.4347	3179.3428	897.75	17.35
1046.5387	3180.2924	898.7	17.05
1046.6427	3181.2415	898.2	15.55
1046.7466	3182.1899	900.1	17.45
1046.8504	3183.1377	898.05	16.45
1046.9542	3184.0848	901.55	13.2
1047.058	3185.0314	897.6	15.1
1047.1617	3185.9773	896.35	11.8
1047.2654	3186.9227	898.3	14.45
1047.369	3187.8674	896.65	12.1
1047.4726	3188.8115	899.75	14.05
1047.5761	3189.755	897.05	13.95
1047.6796	3190.6979	895.85	11.95
1047.783	3191.6402	897.35	15.05
1047.8864	3192.5818	897.1	14.5
1047.9898	3193.5229	904.4	14.5
1048.0931	3194.4633	899.1	14.2
1048.1963	3195.4031	896.6	11.25
1048.2995	3196.3423	897.25	14.15
1048.4027	3197.2809	895.9	10.7
1048.5058	3198.2189	895.55	12.05
1048.6089	3199.1563	903	13.4
1048.7119	3200.0931	894.65	11.5
1048.8148	3201.0292	894.15	12.3
1048.9178	3201.9648	898.7	14.15
1049.0206	3202.8997	898.2	10.7
1049.1235	3203.834	897.45	12.95
1049.2262	3204.7677	895.95	10.75
1049.329	3205.7008	896.6	11.75
1049.4317	3206.6333	894	12.15
1049.5343	3207.5652	898.65	12.25
1049.6369	3208.4964	895.15	12.9
1049.7394	3209.4271	893.8	11.65
1049.8419	3210.3571	896.4	14.05
1049.9444	3211.2865	896.75	11.6
1050.0468	3212.2154	896.8	12.15
1050.1491	3213.1436	899.95	13.3
1050.2514	3214.0712	900.8	11.45
1050.3537	3214.9982	896.2	11.9
1050.4559	3215.9246	895.15	11.85
1050.5581	3216.8503	895.1	13.75
1050.6602	3217.7755	895.95	11.6
1050.7623	3218.7001	893.2	10.65
1050.8643	3219.624	895.55	11.7
1050.9663	3220.5473	896.25	11.9
1051.0682	3221.4701	895.5	12.25
1051.1701	3222.3922	896.8	13.05
1051.2719	3223.3137	895.1	11.7
1051.3737	3224.2346	895.25	11.6
1051.4754	3225.1549	895.45	13.35
1051.5771	3226.0746	893.55	9.9
1051.6788	3226.9937	896.8	13.15
1051.7804	3227.9121	894.8	10.95
1051.8819	3228.83	894	11.6
1051.9834	3229.7473	894.85	12.1
1052.0849	3230.6639	895.25	11.7
1052.1863	3231.5799	892.75	9.65
1052.2876	3232.4954	896.05	12.15
1052.3889	3233.4102	893.25	11.85
1052.4902	3234.3244	894.7	9.9
1052.5914	3235.238	892.35	10.85
1052.6926	3236.151	919.2	14.05
1052.7937	3237.0634	894.4	13.3
1052.8948	3237.9752	892.15	7.95
1052.9958	3238.8864	893.35	8.35
1053.0968	3239.797	892.85	10.65
1053.1977	3240.7069	894.6	12.5
1053.2986	3241.6163	895.5	11.95
1053.3994	3242.5251	892.45	10.05
1053.5002	3243.4332	892.15	10.25
1053.6009	3244.3408	892.15	8.25
1053.7016	3245.2477	892.9	8.8
1053.8022	3246.154	895.65	11.35
1053.9028	3247.0598	893.35	9.9
1054.0034	3247.9649	892.5	8
1054.1039	3248.8694	892.95	8.9
1054.2043	3249.7733	893.55	12.5
1054.3047	3250.6766	894.4	10.1
1054.4051	3251.5793	894.2	10.25
1054.5054	3252.4814	890.85	8.7
1054.6056	3253.3829	891.55	8.45
1054.7058	3254.2838	893.55	10.8
1054.806	3255.1841	891.9	8.1
1054.9061	3256.0838	892.6	10.3
1055.0061	3256.9829	892.5	9.9
1055.1062	3257.8814	894.4	10.75
1055.2061	3258.7792	896.8	11.45
1055.306	3259.6765	893.3	9.45
1055.4059	3260.5731	890.9	5.55
1055.5057	3261.4692	892.5	8.9
1055.6055	3262.3647	892.3	7.25
1055.7052	3263.2595	891.15	9.2
1055.8049	3264.1538	892.25	9.35
1055.9045	3265.0474	894.85	9.8
1056.0041	3265.9404	890.65	6.4
1056.1036	3266.8329	894.15	15.3
1056.2031	3267.7247	899.25	6.2
1056.3025	3268.616	891	9.2
1056.4019	3269.5066	888.8	5.9
1056.5013	3270.3966	890.85	5.8
1056.6005	3271.286	889.3	9
