Software Version:	3.9.2.0
Unit SN:	10000200
Spectrometer SN:	6960
Date:	3/26/2024 2:19:08 PM
Data Line Index:	25
Spectral Points:	2048
Integration time (ms):	125
Averages:	20
Delay (ms):	30000
Sequence Number:	1
Processing:	dark subtract
Laser Power (mW):	300
Laser Current (mA):	819
Laser Diode Temp (C):	25.1
Laser Case Temp (C):	27.6
System Temp (C):	27.6
Spectrometer Temp (C):	25.5
CCD Temp (C):	0.007
Secondary Temp (C):	20.007
Heatsink Temp (C):	23.035
CCDPCB Temp (C):	37.041
SecondaryPCB Temp (C):	34.651

Wavelength	RamanShift	Raw Counts	Dark Subtracted
787.061	30.1047	660.15	251.7
787.2016	32.3739	675.7	269.3
787.3422	34.6426	690.55	281
787.4828	36.9109	709.5	299.05
787.6235	39.1787	729.6	313.05
787.7642	41.4461	761.25	341.2
787.9049	43.7131	789.75	367.3
788.0456	45.9796	807.85	380.6
788.1863	48.2456	835.05	402.95
788.3271	50.5112	867.05	431.25
788.4679	52.7764	900.6	463.95
788.6087	55.0411	932.9	492.35
788.7496	57.3054	964.3	518.35
788.8904	59.5692	999.1	550.95
789.0313	61.8326	1042.2	588.6
789.1722	64.0955	1088.8	632.1
789.3132	66.3579	1134.5	675.15
789.4541	68.6199	1195.45	730.4
789.5951	70.8815	1294.35	826
789.7361	73.1426	1513.6	1041.2
789.8771	75.4032	2057.5	1580.15
790.0181	77.6634	3424.6	2940.9
790.1592	79.9231	6828.2	6335.5
790.3003	82.1824	14694.65	14184.85
790.4414	84.4412	34385.6	33847.8
790.5825	86.6995	62287.45	61698.95
790.7237	88.9574	65535	64901.9
790.8648	91.2148	65535	64873.85
791.006	93.4717	65535	64859.25
791.1472	95.7282	65535	64849.75
791.2885	97.9842	65535	64842
791.4297	100.2398	65535	64840.05
791.571	102.4949	65535	64839.4
791.7123	104.7495	65535	64838.1
791.8536	107.0036	65535	64835.2
791.9949	109.2573	65535	64832.9
792.1363	111.5105	65535	64831.8
792.2777	113.7632	65535	64827.65
792.4191	116.0154	65535	64815.7
792.5605	118.2672	65535	64822.35
792.7019	120.5185	65535	64822.1
792.8434	122.7693	65535	64822.35
792.9849	125.0197	65535	64820.65
793.1264	127.2696	65535	64818.6
793.2679	129.519	65535	64811.25
793.4094	131.7679	65535	64807.6
793.551	134.0163	65535	64807
793.6926	136.2642	65535	64799.9
793.8342	138.5117	65535	64794.7
793.9758	140.7587	65535	64795.15
794.1175	143.0052	65535	64788.25
794.2591	145.2512	65535	64790.6
794.4008	147.4967	65535	64797.35
794.5425	149.7417	65535	64790.95
794.6842	151.9863	65535	64790.15
794.826	154.2304	65535	64786.85
794.9677	156.4739	65535	64776.5
795.1095	158.717	65535	64782
795.2513	160.9596	65535	64771.1
795.3931	163.2017	65535	64775.1
795.535	165.4433	65535	64770.85
795.6768	167.6844	65535	64774.35
795.8187	169.925	65535	64772.25
795.9606	172.1651	65535	64768.95
796.1025	174.4047	65535	64762.95
796.2445	176.6439	65535	64759.25
796.3864	178.8825	65535	64756.65
796.5284	181.1206	65535	64753.4
796.6704	183.3582	65535	64751.4
796.8124	185.5954	65535	64746.85
796.9544	187.832	65535	64748.75
797.0965	190.0681	65535	64749.05
797.2386	192.3037	65535	64743.6
797.3806	194.5388	65535	64732.95
797.5228	196.7734	65535	64736.9
797.6649	199.0075	65535	64729.45
797.807	201.2411	65535	64726.8
797.9492	203.4742	65535	64727.05
798.0914	205.7068	65535	64724.3
798.2336	207.9389	65535	64727.75
798.3758	210.1704	65535	64715.4
798.518	212.4015	65535	64722.9
798.6603	214.632	65535	64719.35
798.8025	216.862	65535	64733.65
798.9448	219.0915	65535	64739.55
799.0871	221.3205	65535	64739.65
799.2294	223.549	65535	64743.55
799.3718	225.777	65535	64744.65
799.5141	228.0044	65535	64740.75
799.6565	230.2314	65535	64744.2
799.7989	232.4578	65535	64740.1
799.9413	234.6837	65535	64739.2
800.0837	236.909	65535	64734.4
800.2262	239.1339	65535	64703.35
800.3687	241.3582	65535	64715.9
800.5111	243.582	65535	64690.2
800.6536	245.8053	65535	64704.7
800.7961	248.0281	65535	64710.35
800.9387	250.2503	65535	64700.3
801.0812	252.472	65535	64698.55
801.2238	254.6932	65535	64698
801.3664	256.9139	65535	64691.85
801.509	259.134	65535	64694.5
801.6516	261.3536	65535	64691.35
801.7942	263.5727	65535	64687.2
801.9369	265.7912	65535	64696.85
802.0795	268.0092	65535	64691.7
802.2222	270.2267	65535	64692.6
802.3649	272.4436	65535	64690.95
802.5076	274.6601	65535	64687.6
802.6504	276.8759	65535	64689.75
802.7931	279.0913	65535	64689.4
802.9359	281.3061	65535	64687.9
803.0787	283.5204	65535	64687.6
803.2215	285.7341	65535	64678.7
803.3643	287.9473	65535	64663.9
803.5071	290.16	65535	64667.4
803.6499	292.3721	65535	64681.4
803.7928	294.5837	65535	64681.05
803.9357	296.7947	65535	64676.85
804.0786	299.0052	65535	64680.75
804.2215	301.2152	65535	64676.9
804.3644	303.4246	65535	64679.95
804.5074	305.6334	65535	64677.9
804.6503	307.8418	65535	64677.05
804.7933	310.0495	65535	64676.95
804.9363	312.2568	65535	64678.1
805.0793	314.4635	65535	64675
805.2223	316.6696	65535	64673.85
805.3653	318.8752	65535	64667.3
805.5084	321.0802	65535	64674.35
805.6514	323.2847	65535	64670.35
805.7945	325.4887	65535	64670.4
805.9376	327.692	65535	64663.35
806.0807	329.8949	65535	64670.9
806.2238	332.0972	65535	64665.5
806.367	334.2989	65535	64663.1
806.5101	336.5001	65535	64657.75
806.6533	338.7007	65535	64665.6
806.7965	340.9008	65535	64658.05
806.9397	343.1003	65535	64656.75
807.0829	345.2992	65535	64656.25
807.2261	347.4976	65535	64655.8
807.3693	349.6955	65535	64650.6
807.5126	351.8927	65535	64653.75
807.6559	354.0895	65535	64639
807.7991	356.2856	65535	64650.1
807.9424	358.4812	65535	64650.55
808.0857	360.6763	65535	64651.8
808.2291	362.8707	65535	64647.45
808.3724	365.0646	65535	64645.1
808.5158	367.258	65535	64646.55
808.6591	369.4508	65535	64640.1
808.8025	371.643	65535	64641.4
808.9459	373.8346	65535	64638
809.0893	376.0257	65535	64634.95
809.2327	378.2162	65535	64641.8
809.3762	380.4062	65535	64636.95
809.5196	382.5956	65535	64634.6
809.6631	384.7844	65535	64639.45
809.8066	386.9726	65535	64635.35
809.9501	389.1603	65535	64641.6
810.0936	391.3474	65535	64605.45
810.2371	393.5339	65535	64638.25
810.3806	395.7199	65535	64642.8
810.5241	397.9052	65535	64644.55
810.6677	400.09	65535	64650.9
810.8113	402.2743	65535	64646.05
810.9548	404.4579	65535	64648.15
811.0984	406.641	65535	64648.8
811.2421	408.8235	65535	64648.55
811.3857	411.0054	65535	64643.5
811.5293	413.1868	65535	64636.1
811.673	415.3675	65535	64635.9
811.8166	417.5477	65535	64639.35
811.9603	419.7273	65535	64637
812.104	421.9064	65535	64633.8
812.2477	424.0848	65535	64634.65
812.3914	426.2627	65535	64632.4
812.5351	428.4399	65535	64630.4
812.6788	430.6166	65535	64630.7
812.8226	432.7928	65535	64625.75
812.9663	434.9683	65535	64633.5
813.1101	437.1432	65535	64633.05
813.2539	439.3176	65535	64635.95
813.3977	441.4914	65535	64635.75
813.5415	443.6645	65535	64634.6
813.6853	445.8371	65535	64629.25
813.8291	448.0091	65535	64630.6
813.973	450.1806	65535	64633.75
814.1168	452.3514	65535	64637
814.2607	454.5216	65535	64629.1
814.4046	456.6913	65535	64633.65
814.5485	458.8603	65535	64633.5
814.6924	461.0288	65535	64636.15
814.8363	463.1967	65535	64637.7
814.9802	465.3639	65535	64635.15
815.1241	467.5306	65535	64630.1
815.2681	469.6967	65535	64634
815.412	471.8622	65535	64633.95
815.556	474.0271	65535	64634.75
815.7	476.1914	65535	64625.8
815.844	478.3551	65535	64624.9
815.988	480.5182	65535	64632.45
816.132	482.6807	65535	64637.15
816.276	484.8426	65535	64640.3
816.4201	487.0039	65535	64637.65
816.5641	489.1647	65535	64630.8
816.7082	491.3248	65535	64626.45
816.8522	493.4843	65535	64635.3
816.9963	495.6432	65535	64630.3
817.1404	497.8015	65535	64623
817.2845	499.9592	65535	64616.2
817.4286	502.1163	65535	64615.55
817.5727	504.2728	65535	64626.3
817.7168	506.4287	65535	64635.45
817.861	508.5839	65535	64637.9
818.0051	510.7386	65535	64629.85
818.1493	512.8927	65535	64614.9
818.2935	515.0461	65535	64621.9
818.4377	517.199	65535	64621.3
818.5818	519.3512	65535	64618
818.726	521.5029	65535	64619.15
818.8703	523.6539	65535	64623.35
819.0145	525.8043	65535	64619.4
819.1587	527.9541	65535	64618.95
819.303	530.1033	65535	64619.4
819.4472	532.2519	65535	64619.65
819.5915	534.3999	65535	64617.1
819.7357	536.5472	65535	64623.35
819.88	538.694	65535	64624.15
820.0243	540.8401	65535	64621.95
820.1686	542.9856	65535	64609.95
820.3129	545.1305	65535	64606.85
820.4572	547.2748	65535	64604.45
820.6016	549.4185	65535	64603.8
820.7459	551.5615	65535	64605.8
820.8902	553.704	65535	64607.25
821.0346	555.8458	65535	64612.45
821.1789	557.987	65535	64613.05
821.3233	560.1276	65535	64608.95
821.4677	562.2675	65535	64609.5
821.6121	564.4069	65535	64606
821.7565	566.5456	65535	64614.45
821.9009	568.6837	65535	64612.85
822.0453	570.8212	65535	64610.55
822.1897	572.958	65535	64609.85
822.3342	575.0942	65535	64617.85
822.4786	577.2299	65535	64619.05
822.6231	579.3648	65535	64629.25
822.7675	581.4992	65535	64636.9
822.912	583.6329	65535	64631.7
823.0565	585.766	65535	64628.3
823.201	587.8985	65535	64628.8
823.3454	590.0304	65535	64612.05
823.4899	592.1616	65535	64612.05
823.6345	594.2922	65535	64609.2
823.779	596.4222	65535	64605.2
823.9235	598.5515	65535	64602.9
824.068	600.6802	65535	64609.75
824.2126	602.8083	65535	64613.05
824.3571	604.9358	65535	64607.3
824.5017	607.0626	65535	64605
824.6462	609.1888	65535	64597.25
824.7908	611.3144	65535	64603.5
824.9354	613.4393	65535	64599.85
825.08	615.5636	65535	64598.85
825.2246	617.6873	65535	64604.2
825.3692	619.8103	65535	64600.05
825.5138	621.9327	65535	64606.95
825.6584	624.0544	65535	64611.6
825.803	626.1756	65535	64610.35
825.9477	628.2961	65535	64603
826.0923	630.4159	65535	64606.4
826.237	632.5351	65535	64603.2
826.3816	634.6537	65535	64603.75
826.5263	636.7716	65535	64599.25
826.6709	638.8889	65535	64597.6
826.8156	641.0056	65535	64599.9
826.9603	643.1216	65535	64595.25
827.105	645.237	65535	64598.5
827.2497	647.3518	65535	64607.3
827.3944	649.4659	65535	64603.65
827.5391	651.5793	65535	64606.4
827.6838	653.6922	65535	64606.15
827.8285	655.8043	65535	64603.9
827.9733	657.9159	65535	64599.55
828.118	660.0268	65535	64605.2
828.2627	662.137	65535	64604.25
828.4075	664.2466	65535	64595.9
828.5522	666.3556	65535	64599.3
828.697	668.4639	65535	64600.25
828.8418	670.5716	65535	64608.35
828.9865	672.6786	65535	64602
829.1313	674.785	65535	64595.9
829.2761	676.8907	65535	64600.85
829.4209	678.9958	65535	64606.55
829.5657	681.1002	65535	64601.6
829.7105	683.204	65535	64591.4
829.8553	685.3072	65535	64593.75
830.0001	687.4097	65535	64598.75
830.1449	689.5115	65535	64597.9
830.2898	691.6127	65535	64599.75
830.4346	693.7132	65535	64599.8
830.5794	695.8131	65535	64582.1
830.7243	697.9123	65535	64595.25
830.8691	700.0109	65535	64589.9
831.014	702.1089	65535	64592.45
831.1588	704.2061	65535	64598.45
831.3037	706.3028	65535	64592.95
831.4486	708.3987	65535	64595.3
831.5935	710.4941	65535	64593
831.7383	712.5887	65535	64596.3
831.8832	714.6827	65535	64596.4
832.0281	716.7761	65535	64598.25
832.173	718.8688	65535	64599.25
832.3179	720.9608	65535	64587.15
832.4628	723.0522	65535	64585.45
832.6077	725.1429	65535	64596.65
832.7527	727.233	65535	64592.95
832.8976	729.3224	65535	64597.45
833.0425	731.4112	65535	64593.7
833.1874	733.4993	65535	64595.35
833.3324	735.5867	65535	64596.15
833.4773	737.6735	65535	64595.55
833.6222	739.7596	65535	64592.55
833.7672	741.845	65535	64591.3
833.9122	743.9298	65535	64592.5
834.0571	746.014	65535	64593.35
834.2021	748.0974	65535	64586.35
834.347	750.1802	65535	64583.75
834.492	752.2624	65535	64587.8
834.637	754.3439	65535	64589.45
834.782	756.4247	65535	64581.8
834.9269	758.5048	65535	64590.35
835.0719	760.5843	65535	64585
835.2169	762.6631	65535	64588.1
835.3619	764.7413	65535	64590.35
835.5069	766.8188	65535	64591.25
835.6519	768.8956	65535	64590.5
835.7969	770.9718	65535	64586.6
835.9419	773.0473	65535	64590.7
836.0869	775.1221	65535	64591.55
836.232	777.1962	65535	64593.3
836.377	779.2697	65535	64585.55
836.522	781.3426	65535	64572.2
836.667	783.4147	65535	64589.3
836.8121	785.4862	65535	64586.2
836.9571	787.557	65535	64588.25
837.1021	789.6271	65535	64588.3
837.2472	791.6966	65535	64584.75
837.3922	793.7654	65535	64589.2
837.5373	795.8335	65535	64587.1
837.6823	797.901	65535	64592.95
837.8274	799.9678	65535	64586.15
837.9724	802.0339	65535	64587.75
838.1175	804.0993	65535	64572.15
838.2626	806.1641	65535	64583.8
838.4076	808.2282	65535	64587.85
838.5527	810.2916	65533.55	64583.15
838.6978	812.3544	65535	64589.85
838.8428	814.4164	65532.8	64585.55
838.9879	816.4778	65530.55	64581.75
839.133	818.5385	65533.55	64582.6
839.2781	820.5986	65532	64582.75
839.4232	822.658	65532.5	64581.6
839.5682	824.7166	65535	64586.65
839.7133	826.7747	65521.45	64570.4
839.8584	828.832	65524.95	64573.15
840.0035	830.8886	65533.5	64583.05
840.1486	832.9446	65535	64581.55
840.2937	834.9999	65497.15	64548.75
840.4388	837.0545	65521.7	64568.8
840.5839	839.1085	65534.6	64585.45
840.729	841.1618	65527.45	64574.2
840.8741	843.2143	65495.2	64545.5
841.0192	845.2662	65494.15	64547.2
841.1643	847.3175	65518.85	64570.45
841.3095	849.368	65453.9	64500.2
841.4546	851.4179	65515.75	64569.05
841.5997	853.467	65467.15	64519.2
841.7448	855.5155	65492.9	64543.2
841.8899	857.5633	65443.5	64492.35
842.0351	859.6105	65420.45	64470.25
842.1802	861.6569	65462.2	64512
842.3253	863.7027	65390.8	64439.1
842.4704	865.7478	65407.9	64458.75
842.6156	867.7922	65403.4	64454.95
842.7607	869.8359	65425.8	64474.45
842.9058	871.8789	65350.75	64401.65
843.0509	873.9212	65398.05	64414.8
843.1961	875.9629	65423.4	64470.1
843.3412	878.0039	65406.45	64458.45
843.4863	880.0441	65384.1	64437.2
843.6315	882.0837	65384.05	64433.75
843.7766	884.1226	65378.6	64419.05
843.9218	886.1609	65360.95	64412.55
844.0669	888.1984	65300.95	64348.15
844.212	890.2352	65363.4	64412.4
844.3572	892.2714	65257.4	64299.15
844.5023	894.3069	65329	64375.35
844.6475	896.3416	65253.15	64299.4
844.7926	898.3757	65234.6	64286.2
844.9377	900.4091	65049.5	64092.2
845.0829	902.4418	65299.1	64341.25
845.228	904.4739	65170.8	64213.55
845.3732	906.5052	65182.05	64229.75
845.5183	908.5358	65079.05	64127.2
845.6635	910.5658	65005.6	64049.85
845.8086	912.595	65013.35	64059.05
845.9538	914.6236	64590.15	63639.05
846.0989	916.6515	65125.95	64172.25
846.2441	918.6786	64562.1	63607.45
846.3892	920.7051	64765.65	63805.45
846.5344	922.7309	64641.75	63690.05
846.6795	924.756	64755.3	63801.05
846.8246	926.7804	64570.25	63616.25
846.9698	928.8041	64007.3	63052.9
847.1149	930.8272	64463.05	63509.6
847.2601	932.8495	64502.6	63550.7
847.4052	934.8711	64085.6	63130.45
847.5504	936.892	63686.35	62732.1
847.6955	938.9123	63873.6	62920.7
847.8407	940.9318	63539.85	62585.7
847.9858	942.9506	63439.9	62487.1
848.131	944.9688	63464.45	62511.4
848.2761	946.9862	62671.6	61719.35
848.4213	949.003	63063.5	62109.9
848.5664	951.019	62252.1	61298.1
848.7115	953.0344	62423.35	61470.15
848.8567	955.0491	62301.25	61347.6
849.0018	957.063	62652.65	61697.4
849.147	959.0763	62725.05	61767.15
849.2921	961.0888	62055.4	61102.55
849.4373	963.1007	62554.15	61608.2
849.5824	965.1119	62520.7	61574.9
849.7275	967.1223	62023.85	61078.75
849.8727	969.1321	62600.45	61658.2
850.0178	971.1412	61834.05	60887.7
850.1629	973.1495	61546.8	60598.55
850.3081	975.1572	61908.65	60902.7
850.4532	977.1641	61575.3	60626.35
850.5983	979.1704	61425.2	60472.2
850.7435	981.1759	61495.7	60540.5
850.8886	983.1808	61064.95	60109.9
851.0337	985.1849	61166.25	60203.25
851.1788	987.1884	61365.45	60414.2
851.324	989.1911	61764.9	60813
851.4691	991.1932	60584.55	59630.55
851.6142	993.1945	60907.6	59958.55
851.7593	995.1951	61185.75	60231.9
851.9045	997.1951	60511.05	59552.45
852.0496	999.1943	60309.3	59358.55
852.1947	1001.1928	60062.1	59110.85
852.3398	1003.1906	60168.45	59218.05
852.4849	1005.1877	59372.35	58420.5
852.63	1007.1841	59114.3	58163.3
852.7751	1009.1798	59089.9	58137.55
852.9202	1011.1748	58919.35	57970.75
853.0653	1013.1691	58632	57678.3
853.2104	1015.1627	57196.3	56248.4
853.3555	1017.1556	57461.55	56516.7
853.5006	1019.1477	57679.6	56728.6
853.6457	1021.1392	56936.8	55992.75
853.7908	1023.1299	56124.8	55186.55
853.9359	1025.12	56568.35	55630.45
854.081	1027.1093	56095.9	55166.55
854.2261	1029.0979	56092.65	55166.45
854.3712	1031.0859	55958.3	55028.15
854.5163	1033.0731	55342.05	54403.65
854.6613	1035.0596	55424.15	54480.95
854.8064	1037.0454	55158.2	54216.95
854.9515	1039.0304	54652.8	53707.4
855.0965	1041.0148	54031.7	53083.2
855.2416	1042.9985	54035.6	53087.75
855.3867	1044.9814	54174.25	53226.3
855.5317	1046.9636	53558.1	52609.9
855.6768	1048.9452	53449.2	52504.55
855.8219	1050.926	53303.2	52357.6
855.9669	1052.9061	53179.3	52234.4
856.112	1054.8855	53141.05	52191.95
856.257	1056.8642	52733.9	51784.05
856.4021	1058.8421	52598.65	51645.25
856.5471	1060.8194	52588.9	51643.9
856.6921	1062.7959	52397.05	51448.85
856.8372	1064.7717	52397.9	51450.8
856.9822	1066.7469	52214.85	51263.05
857.1272	1068.7213	52084	51132.4
857.2723	1070.695	51800.35	50852.65
857.4173	1072.6679	51332.5	50382.8
857.5623	1074.6402	51340.95	50390.7
857.7073	1076.6117	51171.8	50217
857.8523	1078.5826	51116.75	50166.1
857.9973	1080.5527	51097.3	50145.7
858.1423	1082.5221	50942.25	49994.7
858.2873	1084.4908	51088.25	50139.4
858.4323	1086.4587	51232.25	50284.35
858.5773	1088.426	51240.85	50290.8
858.7223	1090.3925	51041.25	50086.85
858.8673	1092.3584	50809.7	49863.05
859.0123	1094.3235	50299.2	49353.85
859.1573	1096.2879	50123.1	49175.6
859.3022	1098.2515	50012.7	49064.35
859.4472	1100.2145	49890.7	48944.15
859.5922	1102.1767	49733.85	48783.2
859.7371	1104.1382	49728.65	48783.15
859.8821	1106.099	49791.7	48843.2
860.027	1108.0591	49806.45	48859
860.172	1110.0185	49667.1	48715.05
860.3169	1111.9771	49715.4	48766.7
860.4619	1113.9351	49210.55	48263.6
860.6068	1115.8923	48725.35	47780.45
860.7517	1117.8488	48233.35	47285.7
860.8967	1119.8045	47691.6	46746.8
861.0416	1121.7596	47490.8	46542.65
861.1865	1123.7139	47262.8	46318.4
861.3314	1125.6675	47114.2	46169.3
861.4763	1127.6204	47196.85	46251.95
861.6212	1129.5726	46974.85	46027.75
861.7661	1131.524	46967.05	46023.45
861.911	1133.4748	46913.5	45969.35
862.0559	1135.4248	46812.95	45865.25
862.2008	1137.3741	46778.15	45832.45
862.3457	1139.3226	46516.85	45571.2
862.4905	1141.2705	46451.25	45505.6
862.6354	1143.2176	46140.65	45187.2
862.7803	1145.164	46065.15	45118
862.9251	1147.1097	45957.7	45013.3
863.07	1149.0546	45907.7	44958.7
863.2148	1150.9989	45741.35	44796
863.3597	1152.9424	45513.2	44564.3
863.5045	1154.8852	45186.9	44237.8
863.6493	1156.8272	44934.75	43985.3
863.7942	1158.7686	44878.7	43922.4
863.939	1160.7092	44530.6	43582.7
864.0838	1162.6491	44329.3	43384.05
864.2286	1164.5883	44372.9	43427.85
864.3734	1166.5267	44242.85	43298.45
864.5182	1168.4644	44307.6	43358.35
864.663	1170.4014	44389.25	43441.15
864.8078	1172.3377	44545.5	43602.25
864.9526	1174.2732	44668.15	43724.05
865.0974	1176.2081	44787.9	43846.25
865.2421	1178.1421	44815.7	43869.15
865.3869	1180.0755	44820.8	43879.3
865.5317	1182.0082	44594.35	43654.95
865.6764	1183.9401	44506.4	43562.7
865.8212	1185.8713	44149.7	43211.85
865.9659	1187.8017	43773.1	42842.1
866.1106	1189.7315	43502.3	42577.05
866.2554	1191.6605	43068.4	42142.6
866.4001	1193.5888	42703.35	41774.1
866.5448	1195.5163	42452.4	41516.3
866.6895	1197.4432	42217.05	41276.5
866.8342	1199.3693	42045.65	41103.05
866.9789	1201.2947	41783.25	40837
867.1236	1203.2193	41550.5	40607.9
867.2683	1205.1432	41506.3	40567.3
867.413	1207.0664	41442.05	40500
867.5576	1208.9889	41389.4	40441.8
867.7023	1210.9106	41271.9	40332
867.847	1212.8316	41154	40212
867.9916	1214.7519	41144.1	40192.9
868.1363	1216.6715	41052.1	40110.8
868.2809	1218.5903	40901.35	39959.85
868.4255	1220.5084	40734.55	39794.3
868.5701	1222.4257	40616.85	39675.85
868.7148	1224.3424	40316.15	39379.55
868.8594	1226.2583	40259.75	39319.65
869.004	1228.1735	40256.1	39312.15
869.1486	1230.0879	40183.15	39240.3
869.2932	1232.0016	40200.25	39259.6
869.4377	1233.9146	40144.65	39199.5
869.5823	1235.8269	39873.05	38932.8
869.7269	1237.7384	39766.15	38821.3
869.8715	1239.6492	39361.55	38421.05
870.016	1241.5592	39204.3	38264.7
870.1606	1243.4686	38918.3	37979.05
870.3051	1245.3772	38756.9	37817.75
870.4496	1247.285	38572.1	37632.3
870.5941	1249.1922	38389.05	37447.7
870.7387	1251.0986	38343.25	37409.55
870.8832	1253.0042	38117.85	37181.1
871.0277	1254.9092	38097.95	37156.7
871.1722	1256.8134	38061.9	37127.9
871.3167	1258.7169	38163.7	37223
871.4611	1260.6196	38148.15	37209.85
871.6056	1262.5216	38328.6	37389.45
871.7501	1264.4229	38345.8	37409.15
871.8945	1266.3234	38399.25	37460.15
872.039	1268.2232	38357.3	37416.75
872.1834	1270.1223	38204.3	37264.5
872.3278	1272.0207	38139.5	37199.7
872.4723	1273.9183	37932.35	36988.25
872.6167	1275.8151	37762.9	36824.25
872.7611	1277.7113	37633.05	36696.2
872.9055	1279.6067	37374.9	36437.85
873.0499	1281.5014	37099.65	36161.8
873.1943	1283.3953	36891.55	35952.1
873.3386	1285.2885	36697.55	35762.5
873.483	1287.181	36483.8	35546.4
873.6274	1289.0727	36513.15	35576.6
873.7717	1290.9637	36369.45	35433.7
873.9161	1292.854	36495.15	35556.05
874.0604	1294.7435	36476.9	35538.25
874.2047	1296.6323	36602.8	35665.95
874.349	1298.5204	36825.95	35884.9
874.4933	1300.4077	37005.3	36069.2
874.6376	1302.2943	37118.95	36178.3
874.7819	1304.1802	37165.4	36228.55
874.9262	1306.0653	37022.2	36081.55
875.0705	1307.9497	36817.35	35882.05
875.2147	1309.8333	36616.7	35679.45
875.359	1311.7162	36582.35	35646.3
875.5032	1313.5984	36563.05	35626.65
875.6475	1315.4798	36615.75	35665.95
875.7917	1317.3605	36708.5	35767.5
875.9359	1319.2405	36824.3	35883
876.0801	1321.1197	36816	35876.95
876.2243	1322.9982	36677	35736.9
876.3685	1324.876	36625.15	35690.3
876.5127	1326.753	36446	35509.9
876.6569	1328.6293	36466.75	35528.6
876.801	1330.5048	36504.8	35565.1
876.9452	1332.3796	36344.65	35408.6
877.0893	1334.2537	36258.55	35297.75
877.2335	1336.127	36086.1	35149.25
877.3776	1337.9996	35971.15	35035.8
877.5217	1339.8714	35850.45	34912.5
877.6658	1341.7426	35708.8	34729.45
877.8099	1343.6129	35625.8	34687.6
877.954	1345.4826	35426.7	34490.55
878.0981	1347.3515	35336.1	34395.1
878.2422	1349.2196	35198.7	34257.9
878.3862	1351.087	35196.35	34258.65
878.5303	1352.9537	35143.6	34204.1
878.6743	1354.8197	35212.85	34276.55
878.8184	1356.6849	35342.5	34404.5
878.9624	1358.5493	35315.75	34377.1
879.1064	1360.4131	35212.7	34277.6
879.2504	1362.276	34997.1	34062.15
879.3944	1364.1383	34760.15	33824.7
879.5384	1365.9998	34470	33530.2
879.6823	1367.8606	34059.15	33120.6
879.8263	1369.7206	33750.25	32810.85
879.9702	1371.5799	33514.2	32574.85
880.1142	1373.4384	33349.7	32412.2
880.2581	1375.2962	33176.5	32240.6
880.402	1377.1533	32770.8	31833.95
880.5459	1379.0096	32363	31429.45
880.6898	1380.8652	32025.65	31092.55
880.8337	1382.7201	31746.65	30815.2
880.9776	1384.5742	31364.25	30430.1
881.1215	1386.4275	31068.55	30131.4
881.2653	1388.2802	30937.95	30002.8
881.4092	1390.132	30659	29722.1
881.553	1391.9832	30620	29681.95
881.6968	1393.8336	30377.9	29440.2
881.8406	1395.6832	30283	29347.95
881.9844	1397.5322	30171	29237.15
882.1282	1399.3803	30058.35	29115.75
882.272	1401.2278	29802.8	28866.6
882.4158	1403.0745	29763.2	28833.45
882.5595	1404.9204	29609.55	28677.85
882.7033	1406.7656	29598.2	28663.75
882.847	1408.6101	29496.2	28563
882.9908	1410.4538	29359.35	28425.8
883.1345	1412.2968	29317.5	28380.8
883.2782	1414.139	29194.75	28259.45
883.4219	1415.9805	29245.1	28311.2
883.5656	1417.8213	29206.35	28254.55
883.7092	1419.6613	29261.3	28331.8
883.8529	1421.5006	29404.2	28469.95
883.9965	1423.3391	29582.2	28647.3
884.1402	1425.1769	29785.7	28855.1
884.2838	1427.0139	30267.8	29332.25
884.4274	1428.8502	30847.3	29911.4
884.571	1430.6858	31323	30390.85
884.7146	1432.5206	31584.9	30651.6
884.8582	1434.3547	31844.05	30910.3
885.0018	1436.188	31831.7	30897.2
885.1453	1438.0206	31780.9	30849.9
885.2889	1439.8524	31459.85	30530.45
885.4324	1441.6835	31348.3	30417.1
885.5759	1443.5139	31156	30223.2
885.7194	1445.3435	31039.25	30107.75
885.8629	1447.1724	30951.3	30021.25
886.0064	1449.0005	30815.65	29885.2
886.1499	1450.8279	30666.55	29734
886.2933	1452.6545	30556.95	29625.55
886.4368	1454.4804	30590.55	29662.2
886.5802	1456.3056	30503.95	29566.9
886.7237	1458.13	30322.95	29395.25
886.8671	1459.9536	30099.65	29170.35
887.0105	1461.7766	29695.6	28766.85
887.1539	1463.5987	29192.7	28260.05
887.2972	1465.4202	28734.35	27801.45
887.4406	1467.2409	28276.25	27343.75
887.584	1469.0608	28048.7	27119.35
887.7273	1470.88	27707.65	26775.25
887.8706	1472.6984	27456.2	26527.1
888.0139	1474.5161	27079.85	26145.7
888.1572	1476.3331	26910.3	25980.4
888.3005	1478.1493	26767.25	25835.15
888.4438	1479.9648	26630.4	25699.6
888.5871	1481.7795	26474.55	25542.1
888.7303	1483.5935	26383.25	25453.1
888.8736	1485.4067	26255.25	25325.9
889.0168	1487.2192	26194.95	25264.4
889.16	1489.031	26096.5	25162.95
889.3032	1490.842	26014.25	25083.65
889.4464	1492.6522	25972.8	25044.5
889.5896	1494.4618	25845.9	24919.1
889.7327	1496.2705	25821	24891.6
889.8759	1498.0785	25670.75	24739.4
890.019	1499.8858	25607.15	24676.8
890.1622	1501.6924	25557.5	24627.9
890.3053	1503.4981	25498.95	24569.55
890.4484	1505.3032	25457.85	24526.9
890.5914	1507.1075	25367.7	24438.55
890.7345	1508.911	25283.6	24354.85
890.8776	1510.7138	25190.45	24260.45
891.0206	1512.5159	25054.75	24125.9
891.1637	1514.3172	24967.05	24038.05
891.3067	1516.1178	24846.7	23918.6
891.4497	1517.9176	24792.45	23860.25
891.5927	1519.7166	24731.85	23803.95
891.7357	1521.515	24593.75	23660.95
891.8786	1523.3126	24559.55	23632.3
892.0216	1525.1094	24450.2	23523
892.1645	1526.9055	24306.4	23377.05
892.3074	1528.7008	24230.35	23301.5
892.4503	1530.4954	24128.25	23196.05
892.5932	1532.2893	24011.7	23089.6
892.7361	1534.0824	23922.25	22993.45
892.879	1535.8747	23883.05	22960.7
893.0218	1537.6663	23833	22911.15
893.1647	1539.4572	23719.25	22793.65
893.3075	1541.2473	23675.1	22752.1
893.4503	1543.0367	23605.1	22684.05
893.5931	1544.8253	23459.1	22528.75
893.7359	1546.6132	23415.4	22487.05
893.8787	1548.4003	23343.6	22409.4
894.0214	1550.1867	23303.5	22370.9
894.1642	1551.9723	23269	22343.3
894.3069	1553.7572	23224.05	22302.4
894.4496	1555.5414	23186.85	22266.1
894.5923	1557.3247	23143.4	22223.15
894.735	1559.1074	23131.95	22215.85
894.8777	1560.8893	23093.05	22174.85
895.0204	1562.6705	23034.75	22117.1
895.163	1564.4509	23079.6	22163.35
895.3056	1566.2305	23087.4	22173
895.4482	1568.0094	23196	22280.9
895.5908	1569.7876	23207.3	22292
895.7334	1571.565	23231.05	22312.85
895.876	1573.3417	23261.25	22343.95
896.0186	1575.1176	23229.55	22313.4
896.1611	1576.8928	23129.7	22217.7
896.3036	1578.6672	22996.15	22086.7
896.4461	1580.4409	22823.15	21911.9
896.5886	1582.2138	22606.75	21692.7
896.7311	1583.986	22404.65	21489.4
896.8736	1585.7575	22315.7	21401.35
897.0161	1587.5282	22156.55	21245.85
897.1585	1589.2981	22089.15	21180.45
897.3009	1591.0673	21911.6	21004.15
897.4433	1592.8358	21883.25	20974.7
897.5857	1594.6035	21816.45	20904.75
897.7281	1596.3704	21712.85	20798.8
897.8705	1598.1366	21673.1	20760.6
898.0128	1599.9021	21661.05	20749.25
898.1551	1601.6668	21570.9	20657.75
898.2975	1603.4308	21542.75	20628.8
898.4398	1605.194	21619	20702.3
898.5821	1606.9564	21591.25	20685.25
898.7243	1608.7182	21705.45	20798.55
898.8666	1610.4791	21696.55	20798.3
899.0088	1612.2394	21794.8	20896.45
899.1511	1613.9988	21902.25	20999.4
899.2933	1615.7576	22072.55	21167.05
899.4355	1617.5156	22269.8	21352.55
899.5776	1619.2728	22508.9	21596.25
899.7198	1621.0293	22658.35	21745.25
899.862	1622.785	22664.85	21755.7
900.0041	1624.54	22525	21619.25
900.1462	1626.2942	22328.2	21422.7
900.2883	1628.0477	22028.8	21118.5
900.4304	1629.8005	21734.35	20824
900.5725	1631.5525	21467.65	20561.05
900.7145	1633.3037	21192.2	20286.1
900.8566	1635.0542	21005.6	20100.55
900.9986	1636.804	20783.95	19878.25
901.1406	1638.553	20681.85	19720.25
901.2826	1640.3013	20531.6	19625.35
901.4245	1642.0488	20388.15	19477.8
901.5665	1643.7955	20372	19468.4
901.7085	1645.5416	20351.8	19449.8
901.8504	1647.2868	20335.35	19430.25
901.9923	1649.0313	20316.9	19407.75
902.1342	1650.7751	20412.85	19504.25
902.2761	1652.5181	20568.95	19665.85
902.4179	1654.2604	20698.3	19795.2
902.5598	1656.0019	20965.1	20062.25
902.7016	1657.7427	21282.8	20376.6
902.8434	1659.4828	21599.15	20692.15
902.9852	1661.222	21814.8	20909.4
903.127	1662.9606	21865.2	20959.2
903.2687	1664.6984	21684.35	20776.4
903.4105	1666.4354	21327.7	20416.15
903.5522	1668.1717	20892.75	19980.75
903.6939	1669.9072	20344.55	19433.55
903.8356	1671.642	19949.75	19036.05
903.9773	1673.3761	19612.8	18706.7
904.119	1675.1094	19331.8	18425.05
904.2606	1676.8419	19111.05	18205.1
904.4022	1678.5737	18905.6	17998.85
904.5439	1680.3048	18750.1	17842.4
904.6855	1682.0351	18610.7	17701.5
904.827	1683.7646	18481	17571.75
904.9686	1685.4934	18397.7	17491.9
905.1101	1687.2215	18295.6	17388.15
905.2517	1688.9488	18175.1	17269.25
905.3932	1690.6754	18114.9	17212.95
905.5347	1692.4012	18064.2	17157.75
905.6761	1694.1263	17965.3	17057.7
905.8176	1695.8506	17906.4	17002.4
905.9591	1697.5742	17834.55	16930.8
906.1005	1699.297	17752.45	16852.05
906.2419	1701.0191	17629.35	16729.2
906.3833	1702.7404	17567	16663.3
906.5246	1704.461	17485.55	16581.75
906.666	1706.1808	17430.8	16526.35
906.8073	1707.8999	17361.95	16460.4
906.9487	1709.6182	17293.15	16394.8
907.09	1711.3358	17269.8	16371.4
907.2313	1713.0527	17225.3	16330.3
907.3725	1714.7688	17128	16224
907.5138	1716.4841	17032	16128
907.655	1718.1987	17033.75	16126.7
907.7962	1719.9126	16939.5	16039.2
907.9374	1721.6257	16864.4	15967.1
908.0786	1723.338	16855.45	15958.85
908.2198	1725.0496	16729.55	15829.05
908.3609	1726.7605	16705.95	15803.9
908.502	1728.4706	16645.2	15744.1
908.6431	1730.18	16507.2	15607.65
908.7842	1731.8886	16505	15608.1
908.9253	1733.5964	16490.15	15573.8
909.0664	1735.3036	16421.6	15521.6
909.2074	1737.0099	16374.8	15477.5
909.3484	1738.7156	16364.95	15469.25
909.4894	1740.4204	16261.05	15361.05
909.6304	1742.1246	16223.85	15323.05
909.7714	1743.8279	16192.6	15296.8
909.9123	1745.5306	16189.7	15291.35
910.0532	1747.2325	16089.6	15192.65
910.1941	1748.9336	16027.35	15130.45
910.335	1750.634	15995.2	15094.75
910.4759	1752.3336	15951.1	15054
910.6168	1754.0325	15962.05	15067.1
910.7576	1755.7307	15877.3	14986
910.8984	1757.4281	15856.45	14960.45
911.0392	1759.1247	15846.5	14939.35
911.18	1760.8206	15784.1	14879.4
911.3208	1762.5158	15763	14856.55
911.4615	1764.2102	15657.3	14758.8
911.6022	1765.9039	15624.9	14729.9
911.7429	1767.5968	15600.65	14705.55
911.8836	1769.289	15523.45	14629.6
912.0243	1770.9804	15505.75	14606.75
912.1649	1772.6711	15464.9	14565.25
912.3056	1774.361	15428.2	14528.45
912.4462	1776.0502	15398.6	14497.9
912.5868	1777.7386	15384.3	14484.8
912.7274	1779.4263	15327	14430.7
912.8679	1781.1132	15305.2	14412.55
913.0084	1782.7994	15246.45	14352.45
913.149	1784.4849	15214.25	14319.35
913.2895	1786.1696	15168.6	14256.35
913.4299	1787.8535	15113.7	14220.1
913.5704	1789.5367	15069.55	14175.75
913.7108	1791.2192	15061.5	14167.35
913.8513	1792.9009	14996.1	14072.4
913.9917	1794.5818	14947.3	14047
914.132	1796.2621	14906.1	14011.4
914.2724	1797.9415	14864.95	13968.3
914.4128	1799.6202	14827.2	13931.35
914.5531	1801.2982	14785.2	13887.05
914.6934	1802.9755	14745.95	13848.55
914.8337	1804.6519	14750.5	13852.35
914.9739	1806.3277	14629.2	13733.1
915.1142	1808.0027	14601.55	13708.6
915.2544	1809.6769	14553.9	13659.75
915.3946	1811.3504	14542.15	13648.05
915.5348	1813.0231	14529.95	13637.8
915.675	1814.6951	14504.55	13611.6
915.8151	1816.3664	14503.6	13606.35
915.9553	1818.0369	14440.85	13543.9
916.0954	1819.7067	14396.45	13501.3
916.2355	1821.3757	14370.35	13472.1
916.3755	1823.044	14341.5	13444.75
916.5156	1824.7115	14277.3	13378.15
916.6556	1826.3783	14198.85	13304.05
916.7956	1828.0443	14174.95	13279.75
916.9356	1829.7096	14179.35	13284.35
917.0756	1831.3741	14152.9	13252.75
917.2155	1833.0379	14101.95	13209.1
917.3555	1834.701	14076.1	13180.85
917.4954	1836.3633	14018.4	13125
917.6353	1838.0248	14006.1	13113.35
917.7751	1839.6856	13972.75	13078.45
917.915	1841.3457	13985.2	13090.8
918.0548	1843.005	13906.9	13011.6
918.1946	1844.6636	13892.05	12997.3
918.3344	1846.3214	13817.75	12924.05
918.4742	1847.9785	13846.75	12952.45
918.6139	1849.6349	13776.3	12878.4
918.7537	1851.2904	13802.3	12895.25
918.8934	1852.9453	13745.65	12848.45
919.0331	1854.5994	13691.1	12794.6
919.1727	1856.2528	13689.95	12791.05
919.3124	1857.9054	13670.6	12774.85
919.452	1859.5572	13658.85	12764.65
919.5916	1861.2083	13621.9	12725.55
919.7312	1862.8587	13593.25	12699.2
919.8708	1864.5084	13531.8	12633.25
920.0103	1866.1572	13489.65	12591.25
920.1498	1867.8054	13433.8	12538.25
920.2893	1869.4528	13435	12535.8
920.4288	1871.0994	13375.45	12478.85
920.5683	1872.7453	13388.5	12491.8
920.7077	1874.3905	13302.65	12403.35
920.8471	1876.0349	13267.15	12369.9
920.9865	1877.6786	13273.15	12375.6
921.1259	1879.3215	13267.05	12372.2
921.2653	1880.9637	13225.7	12328.4
921.4046	1882.6051	13189.65	12295.6
921.5439	1884.2458	13119.5	12222.35
921.6832	1885.8858	13084.8	12189.15
921.8225	1887.525	13082.25	12185.8
921.9617	1889.1634	13031	12135.35
922.101	1890.8011	12982.7	12085.8
922.2402	1892.4381	12920.75	12024.5
922.3794	1894.0743	12931.7	12039.7
922.5185	1895.7098	12901	12007.7
922.6577	1897.3446	12864.95	11968
922.7968	1898.9786	12861.2	11960.7
922.9359	1900.6118	12805.45	11913
923.075	1902.2443	12735.8	11837.2
923.214	1903.8761	12694.5	11799.75
923.3531	1905.5071	12635.5	11739.45
923.4921	1907.1374	12591.2	11696.3
923.6311	1908.7669	12568.05	11672.5
923.77	1910.3957	12549.7	11654
923.909	1912.0237	12465.8	11573.6
924.0479	1913.651	12457.65	11561.15
924.1868	1915.2776	12436.2	11541.2
924.3257	1916.9034	12407.45	11515.2
924.4646	1918.5285	12315.65	11423.05
924.6034	1920.1528	12282.75	11388.55
924.7422	1921.7764	12277.05	11383.65
924.881	1923.3992	12245.65	11351.3
925.0198	1925.0213	12136.3	11241.2
925.1586	1926.6427	12073.15	11180.95
925.2973	1928.2633	12148.4	11186
925.436	1929.8832	12040.25	11145.4
925.5747	1931.5023	12015.45	11120.7
925.7134	1933.1207	11969.15	11074.35
925.852	1934.7383	11969.65	11075.55
925.9906	1936.3552	11912.1	11022.5
926.1292	1937.9714	11856.1	10963.7
926.2678	1939.5868	11808.1	10912.8
926.4064	1941.2015	11757.3	10860.85
926.5449	1942.8154	11716.8	10821.05
926.6834	1944.4286	11684	10790.05
926.8219	1946.041	11639.55	10725.6
926.9604	1947.6528	11550.2	10652
927.0988	1949.2637	11547.4	10657.7
927.2372	1950.8739	11512.1	10618.4
927.3756	1952.4834	11486.4	10590.7
927.514	1954.0921	11443.9	10551
927.6523	1955.7001	11413.5	10517.05
927.7907	1957.3074	11386.5	10496.85
927.929	1958.9139	11326.2	10436.45
928.0673	1960.5197	11323.95	10429.95
928.2055	1962.1247	11247.25	10355.7
928.3438	1963.729	11200.8	10311
928.482	1965.3325	11168.65	10252.55
928.6202	1966.9353	11105.1	10215.5
928.7584	1968.5374	11084.8	10193.7
928.8965	1970.1387	11051.5	10160.8
929.0346	1971.7393	11005.9	10113.65
929.1727	1973.3392	10941.9	10051.65
929.3108	1974.9383	10935.1	10044.1
929.4489	1976.5366	10893.15	10004.5
929.5869	1978.1342	10860.4	9971.25
929.7249	1979.7311	10854.15	9965.35
929.8629	1981.3273	10822	9932.15
930.0009	1982.9227	10770.7	9879.5
930.1388	1984.5173	10751.3	9863.5
930.2767	1986.1112	10682.75	9797.2
930.4146	1987.7044	10684.45	9795.4
930.5525	1989.2968	10617.65	9728.95
930.6904	1990.8885	10607	9715.35
930.8282	1992.4795	10586.25	9699.5
930.966	1994.0697	10531.95	9644.55
931.1038	1995.6592	10505.75	9618.9
931.2415	1997.2479	10473.85	9583.55
931.3793	1998.8359	10441.25	9555.35
931.517	2000.4232	10402.1	9518.35
931.6547	2002.0097	10367.65	9483.45
931.7923	2003.5955	10341.3	9456.6
931.93	2005.1805	10344.35	9456.2
932.0676	2006.7648	10316.2	9432.15
932.2052	2008.3484	10270.95	9385.05
932.3427	2009.9312	10285.85	9401.3
932.4803	2011.5133	10243.6	9361.15
932.6178	2013.0946	10194.45	9311.25
932.7553	2014.6752	10172.95	9289.7
932.8928	2016.2551	10154.45	9266.9
933.0302	2017.8342	10112.95	9227.5
933.1676	2019.4126	10052.55	9167.65
933.305	2020.9902	10019.75	9137
933.4424	2022.5672	10001.65	9119
933.5798	2024.1433	9982.55	9092.15
933.7171	2025.7188	9933.25	9053.1
933.8544	2027.2935	9917.05	9032.55
933.9917	2028.8674	9846.3	8962.85
934.129	2030.4406	9825.45	8945.85
934.2662	2032.0131	9810.25	8930.25
934.4034	2033.5849	9781.9	8891
934.5406	2035.1559	9760.15	8876.5
934.6778	2036.7261	9750.1	8866.05
934.8149	2038.2957	9728.15	8841.75
934.952	2039.8645	9719.2	8832.8
935.0891	2041.4325	9692.8	8803.7
935.2262	2042.9998	9632.95	8747.55
935.3632	2044.5664	9616.3	8731.55
935.5002	2046.1323	9588.2	8703.75
935.6372	2047.6974	9550.5	8664.7
935.7742	2049.2617	9536.35	8654.25
935.9111	2050.8254	9524.5	8634.3
936.048	2052.3883	9507.8	8623.75
936.1849	2053.9504	9474.1	8587.6
936.3218	2055.5118	9441.85	8555.6
936.4586	2057.0725	9424	8536.65
936.5955	2058.6325	9369.95	8486.4
936.7323	2060.1917	9340.6	8455.7
936.869	2061.7502	9324.3	8437.7
937.0058	2063.3079	9291.35	8407.6
937.1425	2064.8649	9246.9	8360.55
937.2792	2066.4212	9236.8	8352.35
937.4159	2067.9767	9229.25	8343
937.5525	2069.5315	9180.2	8294.9
937.6891	2071.0856	9126.2	8242.35
937.8257	2072.6389	9084.3	8200.45
937.9623	2074.1915	9048.6	8167.9
938.0989	2075.7433	8998.35	8113.15
938.2354	2077.2945	9008.6	8124.85
938.3719	2078.8448	8946.9	8059.65
938.5084	2080.3945	8937.05	8051.4
938.6448	2081.9434	8946.15	8059.5
938.7812	2083.4916	8921.65	8031.3
938.9176	2085.039	8880.5	7989.4
939.054	2086.5857	8877.95	7984.35
939.1903	2088.1317	8836.05	7945.15
939.3267	2089.677	8834.2	7943.6
939.463	2091.2215	8785.1	7894.7
939.5992	2092.7652	8760.1	7868.7
939.7355	2094.3083	8721.9	7832.75
939.8717	2095.8506	8712.55	7824.5
940.0079	2097.3921	8743.15	7854.9
940.1441	2098.933	8690.45	7802
940.2802	2100.4731	8656.55	7768.2
940.4163	2102.0124	8668.4	7774.9
940.5524	2103.5511	8649.05	7760.95
940.6885	2105.089	8609.95	7720.75
940.8245	2106.6261	8599.45	7710.8
940.9606	2108.1626	8567.45	7680.25
941.0965	2109.6983	8568.15	7652.5
941.2325	2111.2332	8535.95	7648.5
941.3684	2112.7675	8507.5	7617.95
941.5044	2114.301	8441	7552.1
941.6403	2115.8337	8475.05	7587.2
941.7761	2117.3657	8416.45	7529.85
941.912	2118.897	8414.4	7526.2
942.0478	2120.4276	8391.35	7496.55
942.1835	2121.9575	8355.4	7466.05
942.3193	2123.4866	8351.25	7457.2
942.455	2125.0149	8313.3	7421.85
942.5907	2126.5426	8282.8	7395.3
942.7264	2128.0695	8258.3	7369.1
942.8621	2129.5956	8262.5	7378.7
942.9977	2131.1211	8227.45	7338
943.1333	2132.6458	8196.75	7307.5
943.2689	2134.1698	8191.35	7301.7
943.4044	2135.693	8181.75	7287.85
943.54	2137.2155	8163.55	7270.7
943.6755	2138.7373	8147.35	7258.95
943.8109	2140.2584	8107.45	7221.55
943.9464	2141.7787	8094.15	7203.25
944.0818	2143.2983	8071.5	7188.55
944.2172	2144.8171	7999.6	7114.25
944.3526	2146.3353	7990.25	7101.45
944.4879	2147.8527	7958.9	7072.5
944.6232	2149.3693	7949.15	7060
944.7585	2150.8853	7922.85	7032.2
944.8938	2152.4005	7893.45	7004.55
945.029	2153.9149	7853.7	6962.9
945.1642	2155.4287	7928.2	6931.55
945.2994	2156.9417	7854.6	6962.85
945.4346	2158.454	7816.2	6929.7
945.5697	2159.9655	7807.15	6920.75
945.7048	2161.4764	7782.35	6896.6
945.8399	2162.9865	7761.1	6874.75
945.9749	2164.4958	7729.5	6843.35
946.1099	2166.0045	7704.7	6814.25
946.2449	2167.5124	7696.5	6809.7
946.3799	2169.0195	7680.3	6794
946.5148	2170.526	7669.4	6781.7
946.6498	2172.0317	7652.75	6765.35
946.7846	2173.5367	7636.4	6749.15
946.9195	2175.0409	7594.2	6705.55
947.0543	2176.5445	7587.9	6699.3
947.1891	2178.0473	7545.1	6655.3
947.3239	2179.5494	7526.9	6633.65
947.4587	2181.0507	7482.75	6594.55
947.5934	2182.5513	7474.8	6587.95
947.7281	2184.0512	7450.5	6561.6
947.8628	2185.5504	7428.05	6541.05
947.9974	2187.0488	7386.45	6500.3
948.132	2188.5465	7360.85	6474.05
948.2666	2190.0435	7352.6	6464.6
948.4012	2191.5397	7318.65	6428.1
948.5357	2193.0353	7316.7	6428.55
948.6702	2194.5301	7277.8	6385.2
948.8047	2196.0241	7247.65	6356.3
948.9392	2197.5175	7238	6346
949.0736	2199.0101	7212.25	6314.85
949.208	2200.502	7193.85	6305.9
949.3424	2201.9931	7154.6	6266.1
949.4767	2203.4835	7121.65	6234.05
949.611	2204.9733	7135.7	6234.5
949.7453	2206.4622	7114.7	6227.6
949.8796	2207.9505	7097.7	6211.9
950.0138	2209.438	7052.55	6170.05
950.148	2210.9248	7022.15	6136.15
950.2822	2212.4109	7018.2	6131.05
950.4164	2213.8962	6985	6090.8
950.5505	2215.3809	6987.3	6093.35
950.6846	2216.8648	6969.75	6076.05
950.8186	2218.3479	6912.05	6013.95
950.9527	2219.8304	6888.4	5994.75
951.0867	2221.3121	6890.45	5995.3
951.2207	2222.7931	6856.2	5963.85
951.3546	2224.2733	6837.65	5946.85
951.4886	2225.7529	6830.85	5941.75
951.6225	2227.2317	6783.2	5892.3
951.7563	2228.7098	6796.6	5909.95
951.8902	2230.1872	6742.15	5856.7
952.024	2231.6638	6729.4	5845.7
952.1578	2233.1397	6703.15	5813.45
952.2916	2234.6149	6694.8	5809.05
952.4253	2236.0894	6670.55	5784.65
952.559	2237.5632	6670.65	5781.25
952.6927	2239.0362	6625	5739.35
952.8263	2240.5085	6623.3	5734.15
952.9599	2241.9801	6584.8	5696.45
953.0935	2243.4509	6559.65	5670.2
953.2271	2244.921	6527.85	5635.7
953.3606	2246.3904	6519.1	5625.2
953.4941	2247.8591	6499.3	5610.5
953.6276	2249.3271	6500.85	5611.95
953.7611	2250.7943	6448.15	5556.1
953.8945	2252.2608	6446.75	5555.9
954.0279	2253.7266	6433.55	5545.3
954.1612	2255.1917	6406.45	5518.5
954.2946	2256.656	6369.75	5481.9
954.4279	2258.1197	6343.8	5458.1
954.5612	2259.5826	6356.1	5466.9
954.6944	2261.0447	6345.9	5455.9
954.8276	2262.5062	6317.9	5423.7
954.9608	2263.9669	6291	5400.1
955.094	2265.4269	6294.4	5404.9
955.2271	2266.8862	6273.1	5382.95
955.3602	2268.3448	6260.2	5371.65
955.4933	2269.8026	6257.25	5368.25
955.6264	2271.2598	6237.9	5350.6
955.7594	2272.7162	6204.55	5317.8
955.8924	2274.1719	6186.9	5295.75
956.0253	2275.6268	6184.4	5293.75
956.1583	2277.0811	6157.55	5267.5
956.2912	2278.5346	6135.1	5246.2
956.4241	2279.9874	6145.35	5258.6
956.5569	2281.4395	6106.1	5218.15
956.6897	2282.8908	6106.5	5214.8
956.8225	2284.3414	6097.5	5207.15
956.9553	2285.7914	6071.45	5183.55
957.088	2287.2406	6057.8	5166.5
957.2207	2288.689	6026.55	5136.85
957.3534	2290.1368	6023.2	5129.7
957.486	2291.5838	6006.6	5109.55
957.6186	2293.0302	5997.35	5100.6
957.7512	2294.4758	5957.45	5064.8
957.8838	2295.9206	5938.3	5045
958.0163	2297.3648	5906.65	5018.8
958.1488	2298.8082	5936.4	5047.1
958.2813	2300.251	5894.65	5003.6
958.4137	2301.693	5889.7	4995.9
958.5461	2303.1343	5859.55	4965.7
958.6785	2304.5748	5832.75	4944.4
958.8108	2306.0147	5831.55	4941.45
958.9432	2307.4538	5806.5	4917.75
959.0754	2308.8922	5774.8	4888.55
959.2077	2310.3299	5784.05	4897
959.3399	2311.7669	5765.5	4878.1
959.4721	2313.2031	5729.05	4840.45
959.6043	2314.6387	5720.85	4829.25
959.7365	2316.0735	5709.55	4819.9
959.8686	2317.5076	5679.1	4789.55
960.0006	2318.941	5673.5	4781.6
960.1327	2320.3737	5664.6	4771.8
960.2647	2321.8056	5639.55	4743.65
960.3967	2323.2369	5623.65	4733.75
960.5287	2324.6674	5610.45	4718.8
960.6606	2326.0972	5613.2	4722.65
960.7925	2327.5263	5600.5	4711.65
960.9244	2328.9547	5555.25	4663.25
961.0562	2330.3823	5544.65	4652.35
961.1881	2331.8092	5545.2	4648.9
961.3198	2333.2355	5534.25	4642.2
961.4516	2334.661	5518.4	4626.05
961.5833	2336.0858	5498.5	4606.65
961.715	2337.5098	5479.35	4588.6
961.8467	2338.9332	5466.35	4575.9
961.9783	2340.3558	5449.3	4557.35
962.1099	2341.7778	5427.1	4539
962.2415	2343.199	5430.65	4540.75
962.373	2344.6195	5411.85	4523.65
962.5045	2346.0393	5400.65	4514.5
962.636	2347.4583	5386.1	4496.3
962.7675	2348.8767	5360.45	4470.55
962.8989	2350.2943	5360.75	4470.25
963.0303	2351.7113	5350.9	4456.2
963.1617	2353.1275	5328.4	4435.15
963.293	2354.543	5320.75	4420.85
963.4243	2355.9578	5297.15	4405.6
963.5556	2357.3718	5261.1	4372.7
963.6868	2358.7852	5257.65	4368.2
963.818	2360.1978	5234.6	4346.05
963.9492	2361.6098	5229.8	4342.7
964.0803	2363.021	5211.55	4318.5
964.2114	2364.4315	5193.55	4303.85
964.3425	2365.8413	5168.15	4278.5
964.4736	2367.2504	5143.2	4255.4
964.6046	2368.6587	5129.9	4241.95
964.7356	2370.0664	5103.7	4217.3
964.8666	2371.4733	5097.75	4208.25
964.9975	2372.8795	5082.65	4193.2
965.1284	2374.285	5056	4168.15
965.2593	2375.6899	5039.45	4153.15
965.3901	2377.0939	5031.05	4143.7
965.5209	2378.4973	5010.4	4124.15
965.6517	2379.9	5000.75	4112.9
965.7825	2381.3019	4978.8	4091.4
965.9132	2382.7032	4974.95	4087.6
966.0439	2384.1037	4954.75	4069.9
966.1745	2385.5035	4929.6	4043.85
966.3051	2386.9027	4913.1	4026.75
966.4357	2388.3011	4886.85	3998.2
966.5663	2389.6987	4889.1	4002.35
966.6968	2391.0957	4869.9	3983.45
966.8273	2392.492	4837.15	3951.4
966.9578	2393.8876	4818.7	3931.35
967.0882	2395.2824	4811.4	3923.3
967.2186	2396.6765	4790.65	3903.5
967.349	2398.07	4777.6	3889.45
967.4793	2399.4627	4767.8	3877.6
967.6097	2400.8547	4755.15	3864.1
967.7399	2402.246	4739.5	3844.4
967.8702	2403.6366	4715.3	3826.45
968.0004	2405.0265	4702.95	3815.25
968.1306	2406.4156	4697.5	3806.65
968.2607	2407.8041	4706.05	3815.75
968.3909	2409.1918	4660.95	3770.85
968.521	2410.5789	4652.05	3762.55
968.651	2411.9652	4634.45	3743.55
968.781	2413.3508	4619.95	3732.4
968.911	2414.7358	4618.65	3730.05
969.041	2416.12	4591.85	3703.7
969.1709	2417.5035	4588.6	3702.4
969.3008	2418.8863	4562.3	3674
969.4307	2420.2684	4537.75	3650.55
969.5606	2421.6497	4532.45	3643.75
969.6904	2423.0304	4500	3612.9
969.8201	2424.4104	4503.25	3615.35
969.9499	2425.7896	4484.15	3592.85
970.0796	2427.1682	4481.2	3592.65
970.2093	2428.546	4464.55	3577.95
970.3389	2429.9232	4440.15	3550.05
970.4685	2431.2996	4434.45	3547.5
970.5981	2432.6753	4435.5	3546.6
970.7277	2434.0503	4431.4	3544.55
970.8572	2435.4246	4414.6	3526.6
970.9867	2436.7982	4400	3508.15
971.1161	2438.1711	4384.75	3496.1
971.2456	2439.5433	4366.75	3477.5
971.375	2440.9148	4355.15	3459.85
971.5043	2442.2856	4330.25	3441.55
971.6336	2443.6557	4316.35	3425.5
971.7629	2445.025	4304.85	3417.65
971.8922	2446.3937	4307.05	3416.65
972.0214	2447.7617	4293.4	3403.25
972.1506	2449.1289	4286.4	3397.75
972.2798	2450.4955	4292.2	3399.45
972.4089	2451.8613	4260.35	3375.35
972.538	2453.2265	4252.3	3364.9
972.6671	2454.5909	4237.6	3348.45
972.7961	2455.9546	4234.1	3346.3
972.9251	2457.3177	4226.2	3338.55
973.0541	2458.68	4214.85	3323.7
973.1831	2460.0416	4209.65	3321.25
973.312	2461.4025	4196.2	3306.7
973.4408	2462.7627	4186.75	3289.15
973.5697	2464.1222	4179.9	3293.65
973.6985	2465.4811	4165.05	3277.6
973.8273	2466.8392	4148.65	3262.2
973.956	2468.1966	4135.05	3245.35
974.0847	2469.5533	4135.85	3245.3
974.2134	2470.9093	4128.5	3237.95
974.3421	2472.2645	4123.45	3233.2
974.4707	2473.6191	4113.35	3225.1
974.5993	2474.973	4094.7	3205.95
974.7278	2476.3262	4081.45	3191.75
974.8563	2477.6787	4071.75	3185
974.9848	2479.0305	4050.6	3163.9
975.1132	2480.3816	4039.1	3150.7
975.2417	2481.7319	4042.25	3152.65
975.37	2483.0816	4023.45	3136.65
975.4984	2484.4306	4004	3116.3
975.6267	2485.7789	3992.35	3106.4
975.755	2487.1264	3973.85	3082.9
975.8833	2488.4733	3954.65	3067.7
976.0115	2489.8195	3954.2	3049.9
976.1397	2491.165	3941.9	3049.05
976.2678	2492.5097	3924.65	3033.95
976.3959	2493.8538	3913.9	3026.7
976.524	2495.1972	3897.7	3010.75
976.6521	2496.5398	3889.2	3000.9
976.7801	2497.8818	3872.1	2981.1
976.9081	2499.2231	3865.1	2975.5
977.036	2500.5637	3857.8	2965.25
977.164	2501.9035	3846.6	2956.6
977.2918	2503.2427	3835.4	2942.9
977.4197	2504.5812	3816	2928.4
977.5475	2505.919	3804.25	2914
977.6753	2507.256	3805.65	2917.55
977.8031	2508.5924	3800.8	2914.15
977.9308	2509.9281	3785.3	2889.8
978.0585	2511.2631	3767.1	2880.3
978.1861	2512.5974	3764.9	2877.95
978.3137	2513.9309	3751.7	2863.25
978.4413	2515.2638	3759.7	2843.45
978.5689	2516.596	3737.6	2847.25
978.6964	2517.9275	3718.05	2828
978.8239	2519.2583	3722.7	2834.1
978.9513	2520.5884	3701.15	2810.95
979.0788	2521.9178	3675.6	2786
979.2062	2523.2465	3670.4	2784.55
979.3335	2524.5745	3655.95	2768.6
979.4608	2525.9018	3667.8	2780.75
979.5881	2527.2284	3646.95	2760.3
979.7154	2528.5543	3625	2734.3
979.8426	2529.8796	3620.3	2728.85
979.9698	2531.2041	3627	2739.2
980.0969	2532.5279	3610.1	2722.4
980.224	2533.851	3605.15	2715.6
980.3511	2535.1735	3598.35	2710.95
980.4781	2536.4952	3584.65	2696.35
980.6052	2537.8163	3584	2695.1
980.7321	2539.1366	3575.55	2686.2
980.8591	2540.4562	3568.35	2676.5
980.986	2541.7752	3573.1	2683.2
981.1129	2543.0935	3559.7	2669.5
981.2397	2544.411	3533.1	2644.2
981.3665	2545.7279	3540.35	2651.05
981.4933	2547.0441	3538.9	2651.5
981.62	2548.3596	3537.75	2644.9
981.7467	2549.6744	3509.1	2619.65
981.8734	2550.9885	3518.75	2627.1
982.0001	2552.3019	3495.95	2606.1
982.1267	2553.6146	3496.4	2607.5
982.2532	2554.9266	3489.1	2601.1
982.3798	2556.2379	3475.05	2584.45
982.5063	2557.5485	3462.65	2575.4
982.6327	2558.8585	3468.9	2571.95
982.7592	2560.1677	3459.25	2568.3
982.8856	2561.4762	3453.45	2562.9
983.0119	2562.7841	3442.65	2549.7
983.1383	2564.0913	3456.45	2568.05
983.2646	2565.3977	3424.4	2537.4
983.3908	2566.7035	3421.7	2533.75
983.517	2568.0086	3429.6	2538.4
983.6432	2569.313	3409.3	2520.9
983.7694	2570.6167	3411.4	2516.35
983.8955	2571.9197	3384.75	2496.55
984.0216	2573.222	3388.8	2495.8
984.1476	2574.5236	3382.7	2492.95
984.2737	2575.8246	3375.45	2481.5
984.3996	2577.1248	3371.65	2479.85
984.5256	2578.4244	3369.1	2479.65
984.6515	2579.7232	3359.85	2469.85
984.7774	2581.0214	3381.05	2460.55
984.9032	2582.3189	3351.5	2462.6
985.029	2583.6157	3348	2454
985.1548	2584.9118	3341.95	2452.2
985.2806	2586.2072	3333.25	2444.55
985.4063	2587.5019	3327.5	2437.25
985.5319	2588.7959	3324.1	2432.9
985.6576	2590.0893	3327.9	2437.9
985.7832	2591.3819	3314.95	2424.3
985.9087	2592.6739	3304.15	2416.65
986.0343	2593.9652	3306.15	2416.5
986.1597	2595.2557	3284.3	2396
986.2852	2596.5456	3285.8	2395.75
986.4106	2597.8348	3269.05	2380.3
986.536	2599.1234	3268.8	2379.65
986.6614	2600.4112	3270.75	2380.35
986.7867	2601.6983	3262.55	2370.35
986.912	2602.9848	3252.5	2362.25
987.0372	2604.2705	3253.5	2357.25
987.1624	2605.5556	3227.8	2339.7
987.2876	2606.84	3223.35	2333.15
987.4128	2608.1237	3214.35	2325.35
987.5379	2609.4067	3191.45	2301.5
987.6629	2610.689	3199.6	2300.6
987.788	2611.9707	3193.95	2299.85
987.913	2613.2516	3184.4	2291.55
988.0379	2614.5319	3159.95	2269.75
988.1629	2615.8115	3147.3	2256.6
988.2878	2617.0903	3153.5	2261.3
988.4126	2618.3685	3144.5	2254.4
988.5375	2619.6461	3127.1	2237.3
988.6622	2620.9229	3127.3	2239.55
988.787	2622.199	3130.4	2239.95
988.9117	2623.4745	3127.1	2236.2
989.0364	2624.7493	3110.35	2221.6
989.161	2626.0234	3108.55	2219.5
989.2857	2627.2968	3083.1	2194.35
989.4102	2628.5695	3082.25	2191.9
989.5348	2629.8415	3066.8	2180
989.6593	2631.1128	3071.35	2180.8
989.7837	2632.3835	3047.7	2158.75
989.9082	2633.6535	3050.7	2161.35
990.0326	2634.9228	3049.6	2161
990.1569	2636.1914	3027.85	2139.75
990.2812	2637.4593	3033.9	2139.35
990.4055	2638.7265	3020.35	2130.9
990.5298	2639.9931	3008.45	2119.5
990.654	2641.259	3016.9	2125.3
990.7782	2642.5242	3008.2	2118.4
990.9023	2643.7887	2989.85	2100.1
991.0264	2645.0525	2989.25	2100.05
991.1505	2646.3156	2991.75	2088.35
991.2745	2647.5781	2971.8	2082.6
991.3985	2648.8398	2969.75	2083.65
991.5225	2650.1009	2964.5	2051.85
991.6464	2651.3613	2949	2060.55
991.7703	2652.6211	2947.3	2057.25
991.8942	2653.8801	2929.1	2042.35
992.018	2655.1385	2922.15	2030.15
992.1418	2656.3961	2917.9	2028.2
992.2655	2657.6531	2919.65	2030.2
992.3892	2658.9094	2919.7	2030.4
992.5129	2660.1651	2908.45	2018.75
992.6366	2661.42	2903.25	2013.9
992.7602	2662.6743	2899.65	2009.55
992.8837	2663.9279	2891.15	2004.4
993.0073	2665.1808	2889.85	2000.15
993.1307	2666.433	2895.65	2006.4
993.2542	2667.6846	2875.1	1986.4
993.3776	2668.9354	2880.6	1986.45
993.501	2670.1856	2868.45	1978.45
993.6244	2671.4351	2874	1986.05
993.7477	2672.6839	2859.8	1968.75
993.8709	2673.9321	2862.35	1976.5
993.9942	2675.1795	2873.5	1985.15
994.1174	2676.4263	2869.2	1979.95
994.2405	2677.6724	2843.1	1955.45
994.3637	2678.9179	2845.3	1955.05
994.4868	2680.1626	2834.15	1947.45
994.6098	2681.4067	2831.5	1943.3
994.7328	2682.6501	2834.1	1945.2
994.8558	2683.8928	2829.6	1941.2
994.9788	2685.1348	2820.05	1932.65
995.1017	2686.3761	2806.1	1918.8
995.2245	2687.6168	2796.3	1909.25
995.3474	2688.8568	2784	1895.4
995.4702	2690.0961	2781.65	1894.7
995.5929	2691.3348	2785.15	1895.4
995.7156	2692.5727	2770.7	1884.15
995.8383	2693.81	2767.45	1879.85
995.961	2695.0466	2762.65	1873.95
996.0836	2696.2826	2738.75	1850.05
996.2062	2697.5178	2741.55	1849.25
996.3287	2698.7524	2735.1	1846.7
996.4512	2699.9863	2730.65	1841.05
996.5737	2701.2195	2733.2	1847.1
996.6961	2702.452	2719.5	1830.15
996.8185	2703.6839	2724.95	1834.8
996.9408	2704.9151	2723.55	1837.55
997.0631	2706.1456	2723	1834.95
997.1854	2707.3755	2721.65	1834.6
997.3077	2708.6046	2726.1	1835
997.4299	2709.8331	2729.15	1839
997.552	2711.0609	2712.6	1825.3
997.6742	2712.2881	2731.1	1843.05
997.7963	2713.5145	2732.2	1842.25
997.9183	2714.7403	2736.85	1849.85
998.0403	2715.9654	2740.35	1853.15
998.1623	2717.1899	2756	1857.2
998.2842	2718.4136	2752.75	1865.9
998.4062	2719.6367	2760.35	1872.95
998.528	2720.8591	2758.95	1864.2
998.6498	2722.0809	2755.05	1866.35
998.7716	2723.3019	2774.2	1883.7
998.8934	2724.5223	2774.15	1884.3
999.0151	2725.7421	2766.65	1878.35
999.1368	2726.9611	2768.35	1880.75
999.2584	2728.1795	2768.4	1876.9
999.38	2729.3972	2744.55	1857.75
999.5016	2730.6142	2737.95	1841.8
999.6231	2731.8306	2718.75	1828.9
999.7446	2733.0462	2695.5	1805.35
999.8661	2734.2612	2671.7	1777.95
999.9875	2735.4756	2651.4	1762.95
1000.1089	2736.6892	2627.35	1742.5
1000.2302	2737.9022	2618.4	1733.3
1000.3515	2739.1145	2595.35	1707.3
1000.4728	2740.3262	2594	1697.3
1000.594	2741.5372	2567.9	1679.85
1000.7152	2742.7475	2554.85	1664.25
1000.8363	2743.9571	2527.6	1638.7
1000.9575	2745.1661	2526.5	1636.1
1001.0785	2746.3744	2504.75	1617.5
1001.1996	2747.582	2492.45	1605.3
1001.3206	2748.7889	2480	1590.25
1001.4415	2749.9952	2462.55	1577.1
1001.5625	2751.2008	2461.15	1574
1001.6833	2752.4057	2461.25	1570.45
1001.8042	2753.61	2445.85	1557.05
1001.925	2754.8136	2434.7	1544.7
1002.0458	2756.0165	2427.75	1539.55
1002.1665	2757.2188	2431.15	1545.2
1002.2872	2758.4204	2414.75	1525.5
1002.4078	2759.6213	2414.65	1523.65
1002.5285	2760.8215	2425.15	1534.35
1002.649	2762.0211	2409.55	1521.9
1002.7696	2763.22	2405.35	1514.45
1002.8901	2764.4182	2387.4	1499.45
1003.0106	2765.6158	2394.6	1507.9
1003.131	2766.8127	2385.8	1499
1003.2514	2768.009	2369.3	1482.15
1003.3717	2769.2045	2369.2	1483.25
1003.492	2770.3994	2364.4	1476.95
1003.6123	2771.5936	2351.6	1463.8
1003.7325	2772.7872	2351.75	1466.15
1003.8527	2773.9801	2352.05	1463.9
1003.9729	2775.1723	2354.5	1455.1
1004.093	2776.3639	2328.5	1443.65
1004.2131	2777.5548	2330	1441.8
1004.3331	2778.745	2326	1438.45
1004.4531	2779.9346	2324.6	1437.8
1004.5731	2781.1235	2327.95	1441.2
1004.693	2782.3117	2325.35	1438.25
1004.8129	2783.4992	2328.45	1445.1
1004.9328	2784.6861	2323.85	1438.35
1005.0526	2785.8723	2338.35	1451.65
1005.1723	2787.0579	2322.35	1433.8
1005.2921	2788.2428	2338.9	1452.85
1005.4118	2789.427	2333.35	1448.1
1005.5314	2790.6106	2339.35	1451.5
1005.651	2791.7935	2348.95	1460.5
1005.7706	2792.9757	2357.95	1471.55
1005.8902	2794.1573	2359.2	1470.05
1006.0097	2795.3382	2370.95	1485.5
1006.1291	2796.5184	2381.6	1498
1006.2485	2797.698	2403.1	1515.1
1006.3679	2798.8769	2410.1	1522.4
1006.4873	2800.0551	2418.9	1531.9
1006.6066	2801.2327	2432.9	1544.25
1006.7258	2802.4096	2448.8	1562.15
1006.8451	2803.5859	2466.75	1581.5
1006.9642	2804.7615	2480.85	1594.95
1007.0834	2805.9364	2510.4	1625.8
1007.2025	2807.1106	2531.75	1646.2
1007.3216	2808.2842	2551.85	1666.7
1007.4406	2809.4572	2581.55	1693.75
1007.5596	2810.6294	2617.05	1731.05
1007.6785	2811.801	2655	1770.95
1007.7975	2812.972	2701.8	1817.95
1007.9163	2814.1423	2720.7	1836.8
1008.0352	2815.3119	2783.85	1900.45
1008.154	2816.4808	2820.7	1936.15
1008.2727	2817.6491	2862.4	1977.75
1008.3914	2818.8167	2913.95	2029.35
1008.5101	2819.9837	2958.15	2068.1
1008.6288	2821.15	2991.9	2104.7
1008.7474	2822.3157	3033.25	2148.85
1008.8659	2823.4807	3078.5	2194.95
1008.9844	2824.645	3123.35	2236.9
1009.1029	2825.8086	3161.8	2275.85
1009.2214	2826.9716	3196.4	2311.3
1009.3398	2828.134	3228.65	2343.65
1009.4581	2829.2957	3264.25	2377.85
1009.5764	2830.4567	3283.15	2397.6
1009.6947	2831.617	3297.85	2412.1
1009.813	2832.7767	3304.2	2420.55
1009.9312	2833.9358	3324.5	2438.55
1010.0493	2835.0941	3321.1	2435.35
1010.1675	2836.2519	3298.7	2413.45
1010.2855	2837.4089	3278.55	2391.9
1010.4036	2838.5653	3269.4	2383.3
1010.5216	2839.7211	3269.85	2386.3
1010.6396	2840.8761	3277.5	2391.85
1010.7575	2842.0306	3301.8	2416.85
1010.8754	2843.1843	3337.5	2453.8
1010.9932	2844.3374	3375.85	2488.65
1011.111	2845.4899	3444.35	2558.4
1011.2288	2846.6417	3501.9	2616.45
1011.3465	2847.7928	3567.4	2683.3
1011.4642	2848.9433	3655.25	2769.1
1011.5818	2850.0931	3761.15	2878.9
1011.6995	2851.2422	3813.75	2925.2
1011.817	2852.3907	3879.8	2994.55
1011.9345	2853.5385	3950.6	3061.75
1012.052	2854.6857	3994	3099.8
1012.1695	2855.8323	4039.3	3155.9
1012.2869	2856.9781	4080.3	3195.95
1012.4042	2858.1233	4143.05	3258.85
1012.5216	2859.2679	4174.3	3291.2
1012.6389	2860.4118	4225.25	3339.75
1012.7561	2861.555	4269	3380.95
1012.8733	2862.6976	4317.8	3431.1
1012.9905	2863.8395	4322.05	3437.55
1013.1076	2864.9808	4342.2	3458.35
1013.2247	2866.1214	4359.15	3476.5
1013.3417	2867.2614	4359.15	3473.4
1013.4587	2868.4007	4373.45	3486.95
1013.5757	2869.5393	4391.2	3503.9
1013.6926	2870.6773	4406.85	3519.6
1013.8095	2871.8146	4420.8	3531.65
1013.9263	2872.9513	4391.8	3504.9
1014.0431	2874.0874	4392.65	3508.55
1014.1599	2875.2227	4378.05	3493.35
1014.2766	2876.3574	4345.75	3461.2
1014.3933	2877.4915	4326.95	3442.05
1014.51	2878.6249	4314.25	3431.25
1014.6266	2879.7577	4278.85	3394.5
1014.7431	2880.8898	4261.85	3366.5
1014.8596	2882.0212	4229.9	3346.15
1014.9761	2883.152	4227.95	3342.35
1015.0925	2884.2821	4201.65	3320.2
1015.2089	2885.4116	4198.2	3313.7
1015.3253	2886.5405	4185.25	3302
1015.4416	2887.6686	4208.9	3321.4
1015.5579	2888.7962	4211.9	3329.1
1015.6741	2889.923	4191.15	3307.85
1015.7903	2891.0493	4225.6	3342.75
1015.9065	2892.1748	4209.6	3324.25
1016.0226	2893.2997	4225.1	3338.6
1016.1387	2894.424	4240.05	3357.35
1016.2547	2895.5476	4266.2	3382.2
1016.3707	2896.6706	4270.75	3387.25
1016.4866	2897.7929	4294.05	3409.4
1016.6025	2898.9145	4332.7	3448
1016.7184	2900.0355	4348.35	3461.55
1016.8342	2901.1559	4403.8	3516.85
1016.95	2902.2756	4406.65	3524.85
1017.0658	2903.3946	4438.55	3555.6
1017.1815	2904.513	4468.1	3580.55
1017.2971	2905.6308	4497.75	3613.45
1017.4127	2906.7479	4518.05	3632.75
1017.5283	2907.8643	4543.65	3658.3
1017.6439	2908.9801	4540.4	3656.55
1017.7594	2910.0953	4549.75	3666.6
1017.8748	2911.2098	4548.85	3660.1
1017.9902	2912.3236	4531.3	3638.85
1018.1056	2913.4368	4513.35	3625.55
1018.2209	2914.5494	4497.65	3612.6
1018.3362	2915.6613	4473.95	3583.55
1018.4515	2916.7725	4448.8	3563.7
1018.5667	2917.8831	4412.65	3528.65
1018.6819	2918.9931	4394.2	3508.1
1018.797	2920.1024	4337.6	3452.25
1018.9121	2921.211	4331.35	3447.8
1019.0271	2922.319	4300.9	3416.85
1019.1421	2923.4264	4265.1	3382.7
1019.2571	2924.5331	4248.2	3367.4
1019.372	2925.6391	4246.5	3361.5
1019.4869	2926.7445	4243	3362.6
1019.6017	2927.8493	4227.2	3344.25
1019.7165	2928.9534	4233.5	3349.8
1019.8313	2930.0569	4218.6	3331.45
1019.946	2931.1597	4219.85	3336.2
1020.0606	2932.2619	4197.65	3314
1020.1753	2933.3634	4177.7	3293.4
1020.2899	2934.4643	4173.8	3281.95
1020.4044	2935.5645	4155.2	3266.85
1020.5189	2936.6641	4111.3	3223.85
1020.6334	2937.763	4054.65	3172.15
1020.7478	2938.8613	4012.15	3130.45
1020.8622	2939.959	3951.1	3060.9
1020.9765	2941.056	3859	2977
1021.0908	2942.1523	3787.9	2902.7
1021.2051	2943.248	3685.75	2801.55
1021.3193	2944.3431	3600.75	2717.9
1021.4334	2945.4375	3496.9	2610.6
1021.5476	2946.5313	3392	2509.4
1021.6617	2947.6244	3282.35	2400.4
1021.7757	2948.7169	3189.85	2305.65
1021.8897	2949.8087	3102.1	2219.2
1022.0037	2950.8999	3000.85	2116.85
1022.1176	2951.9904	2909.75	2029.2
1022.2315	2953.0803	2845.4	1962.5
1022.3453	2954.1696	2779.1	1894.95
1022.4591	2955.2582	2722.05	1839.6
1022.5728	2956.3462	2698.55	1815.45
1022.6865	2957.4335	2627.15	1744
1022.8002	2958.5202	2593.7	1708.35
1022.9138	2959.6062	2568.4	1685.9
1023.0274	2960.6916	2540.45	1659.05
1023.141	2961.7764	2516.4	1633.4
1023.2545	2962.8605	2499.05	1614.6
1023.3679	2963.9439	2484.65	1601.55
1023.4813	2965.0267	2462.7	1578.25
1023.5947	2966.1089	2473.6	1566.25
1023.708	2967.1905	2448.15	1564.75
1023.8213	2968.2714	2452.45	1570.65
1023.9346	2969.3516	2442.85	1561.05
1024.0478	2970.4312	2460.25	1569.3
1024.1609	2971.5102	2436.9	1554.1
1024.274	2972.5885	2437	1554.45
1024.3871	2973.6662	2436.7	1547.85
1024.5002	2974.7432	2424.45	1543.8
1024.6132	2975.8196	2423.6	1540.95
1024.7261	2976.8954	2416.55	1533.25
1024.839	2977.9705	2409.8	1526.65
1024.9519	2979.045	2385	1502.8
1025.0647	2980.1188	2363.65	1480.15
1025.1775	2981.192	2340.45	1458.85
1025.2902	2982.2645	2322.15	1438.8
1025.4029	2983.3364	2299.8	1416.4
1025.5156	2984.4077	2262.35	1379.1
1025.6282	2985.4783	2230.45	1342.45
1025.7407	2986.5483	2204.75	1322.45
1025.8532	2987.6177	2162.05	1279.6
1025.9657	2988.6864	2121.05	1237.15
1026.0782	2989.7545	2100.7	1218.05
1026.1906	2990.8219	2062.05	1181
1026.3029	2991.8887	2025.05	1141.05
1026.4152	2992.9548	1998.25	1115.7
1026.5275	2994.0204	1958.75	1076.5
1026.6397	2995.0852	1934.75	1052.55
1026.7519	2996.1495	1907.05	1022.95
1026.864	2997.2131	1877.7	995.85
1026.9761	2998.276	1853.1	970.6
1027.0882	2999.3383	1845.55	962.7
1027.2002	3000.4	1813.3	928.25
1027.3122	3001.4611	1801.3	918.85
1027.4241	3002.5215	1785.3	902.95
1027.536	3003.5812	1762.75	880.05
1027.6478	3004.6404	1748.3	865.8
1027.7596	3005.6989	1745.75	864.1
1027.8714	3006.7567	1735.4	852.9
1027.9831	3007.8139	1746.9	843.45
1028.0947	3008.8705	1710.9	826.45
1028.2064	3009.9264	1726.9	828.7
1028.3179	3010.9818	1708.95	826.85
1028.4295	3012.0364	1711.65	830.5
1028.541	3013.0905	1696.8	815.05
1028.6524	3014.1439	1692.25	808.3
1028.7638	3015.1966	1697.9	816.45
1028.8752	3016.2487	1688.6	806.3
1028.9865	3017.3002	1689.95	800.05
1029.0978	3018.3511	1686.35	804.6
1029.209	3019.4013	1678.75	795.2
1029.3202	3020.4509	1689.4	807.25
1029.4314	3021.4998	1689.9	804.9
1029.5425	3022.5481	1686.8	805.4
1029.6535	3023.5958	1684.65	805.15
1029.7645	3024.6428	1687.25	804.25
1029.8755	3025.6892	1681.15	801.2
1029.9864	3026.735	1678.2	795.5
1030.0973	3027.7802	1683.7	801.9
1030.2082	3028.8247	1680.1	797.4
1030.319	3029.8685	1686.75	803.5
1030.4297	3030.9118	1689.65	807.65
1030.5404	3031.9544	1697.8	815.4
1030.6511	3032.9963	1685.85	804.95
1030.7617	3034.0376	1684.7	804.95
1030.8723	3035.0783	1704.3	818.6
1030.9829	3036.1184	1700.8	819.4
1031.0934	3037.1578	1704.8	823.45
1031.2038	3038.1966	1709.25	825.25
1031.3142	3039.2348	1702.85	822.8
1031.4246	3040.2723	1707.35	815.05
1031.5349	3041.3092	1698.85	818.2
1031.6452	3042.3455	1691.65	810.1
1031.7554	3043.3811	1691.8	810.45
1031.8656	3044.4161	1685.5	804.55
1031.9758	3045.4505	1681.65	800.45
1032.0859	3046.4842	1676.8	794.2
1032.1959	3047.5173	1663.65	782.35
1032.3059	3048.5498	1661.45	776.9
1032.4159	3049.5816	1649.2	766.6
1032.5258	3050.6128	1646.95	763.6
1032.6357	3051.6434	1632.65	749.7
1032.7455	3052.6734	1624.75	740.55
1032.8553	3053.7027	1618.55	736.4
1032.9651	3054.7314	1610.05	729.5
1033.0748	3055.7594	1607.5	725.85
1033.1845	3056.7868	1595.95	713.35
1033.2941	3057.8136	1588.6	705.55
1033.4037	3058.8398	1582.2	700.8
1033.5132	3059.8653	1581.45	701.35
1033.6227	3060.8902	1566.55	686.15
1033.7321	3061.9145	1566.85	685.65
1033.8415	3062.9381	1547.6	664.6
1033.9509	3063.9612	1569	671.65
1034.0602	3064.9835	1543.65	663.5
1034.1694	3066.0053	1538.55	654.15
1034.2787	3067.0264	1533.2	650.35
1034.3878	3068.0469	1523.4	639.05
1034.497	3069.0668	1511.25	627.65
1034.6061	3070.086	1503.05	622.6
1034.7151	3071.1046	1491.9	606.5
1034.8241	3072.1226	1489.15	606.8
1034.9331	3073.1399	1477.3	596.9
1035.042	3074.1567	1462.5	580.95
1035.1508	3075.1727	1455.55	571
1035.2597	3076.1882	1442.65	558.65
1035.3684	3077.203	1428.9	547.95
1035.4772	3078.2173	1425	543.75
1035.5859	3079.2308	1419.15	533.25
1035.6945	3080.2438	1410.85	529.75
1035.8031	3081.2561	1395.85	514.85
1035.9117	3082.2678	1388.6	507.8
1036.0202	3083.2789	1378.05	498.6
1036.1286	3084.2893	1375.3	493.05
1036.2371	3085.2991	1371.75	488.2
1036.3454	3086.3083	1368.65	482.05
1036.4538	3087.3169	1352.5	468.4
1036.562	3088.3248	1352.05	471.25
1036.6703	3089.3321	1344.6	461.25
1036.7785	3090.3388	1335.5	455.9
1036.8866	3091.3449	1329.65	449.05
1036.9948	3092.3503	1332.15	450.05
1037.1028	3093.3551	1320.7	440.15
1037.2108	3094.3593	1323.2	443.3
1037.3188	3095.3629	1314.35	432.75
1037.4267	3096.3658	1313.4	429.4
1037.5346	3097.3681	1303.5	421.65
1037.6425	3098.3698	1298.25	416.85
1037.7503	3099.3708	1306.35	418.1
1037.858	3100.3713	1290.1	409
1037.9657	3101.3711	1293.45	411.6
1038.0734	3102.3702	1413.95	398.25
1038.181	3103.3688	1284.45	401.35
1038.2886	3104.3667	1278.3	397.85
1038.3961	3105.364	1276.85	395.6
1038.5036	3106.3607	1269.35	384.55
1038.611	3107.3568	1273.35	391.05
1038.7184	3108.3522	1265.55	385.95
1038.8257	3109.347	1269.65	388
1038.933	3110.3412	1267.05	382.55
1039.0403	3111.3348	1260	380.35
1039.1475	3112.3277	1254.5	372.1
1039.2547	3113.32	1255.6	375.4
1039.3618	3114.3117	1256.95	375.95
1039.4689	3115.3028	1249.6	369.45
1039.5759	3116.2932	1251.05	368.2
1039.6829	3117.2831	1251.45	364.55
1039.7898	3118.2723	1243.8	365.55
1039.8967	3119.2608	1237.05	357.15
1040.0035	3120.2488	1244.6	362.95
1040.1103	3121.2361	1234.9	352.7
1040.2171	3122.2229	1229.95	348.1
1040.3238	3123.209	1228.05	345
1040.4305	3124.1944	1228.9	348.1
1040.5371	3125.1793	1232	349.1
1040.6437	3126.1635	1221.4	342.95
1040.7502	3127.1471	1221.3	338.5
1040.8567	3128.1301	1216.9	335.85
1040.9631	3129.1125	1212.45	332.75
1041.0695	3130.0942	1214.05	332.15
1041.1759	3131.0753	1222.85	332.85
1041.2822	3132.0558	1217.6	333
1041.3884	3133.0357	1207.85	328.25
1041.4946	3134.015	1207.25	325.4
1041.6008	3134.9936	1207.85	326.2
1041.7069	3135.9716	1225.85	325.45
1041.813	3136.949	1210	328.65
1041.919	3137.9258	1220.55	321.6
1042.025	3138.902	1198.3	311.6
1042.1309	3139.8775	1198.85	318.7
1042.2368	3140.8524	1191.95	311.55
1042.3427	3141.8267	1193.8	311.75
1042.4485	3142.8004	1191.35	310.45
1042.5542	3143.7735	1194.35	305.45
1042.6599	3144.7459	1193	309.25
1042.7656	3145.7178	1186.2	305.85
1042.8712	3146.689	1181.2	301.9
1042.9768	3147.6596	1183.6	299
1043.0823	3148.6295	1180.75	300.8
1043.1878	3149.5989	1182.05	300.55
1043.2932	3150.5676	1173.55	293.55
1043.3986	3151.5357	1172	293.35
1043.5039	3152.5032	1172.85	293.35
1043.6092	3153.4701	1175.25	292.7
1043.7145	3154.4364	1173.1	289.6
1043.8197	3155.402	1164.6	284.05
1043.9248	3156.367	1167.5	286.7
1044.03	3157.3315	1207.5	282.35
1044.135	3158.2952	1159.6	278.4
1044.24	3159.2584	1159.9	281.7
1044.345	3160.221	1166.5	284.3
1044.4499	3161.1829	1154.7	273.75
1044.5548	3162.1442	1155.1	273.25
1044.6596	3163.105	1151.8	272.35
1044.7644	3164.065	1149.95	269.2
1044.8692	3165.0245	1152.1	268.8
1044.9739	3165.9834	1151.3	271.55
1045.0785	3166.9416	1142.85	264.05
1045.1831	3167.8993	1148.25	268.45
1045.2877	3168.8563	1142.05	260.95
1045.3922	3169.8127	1142.8	264.1
1045.4966	3170.7684	1143.25	263.05
1045.6011	3171.7236	1143.3	260.65
1045.7054	3172.6782	1132.8	252.35
1045.8098	3173.6321	1136.05	252.05
1045.914	3174.5854	1137.1	254.55
1046.0183	3175.5381	1130.95	250.2
1046.1224	3176.4902	1134.95	254.95
1046.2266	3177.4417	1126.9	247.55
1046.3307	3178.3926	1126.95	247.2
1046.4347	3179.3428	1123.4	244.65
1046.5387	3180.2924	1123.3	243.65
1046.6427	3181.2415	1127.85	249.2
1046.7466	3182.1899	1121.65	239.55
1046.8504	3183.1377	1119.7	240.05
1046.9542	3184.0848	1119.5	235.6
1047.058	3185.0314	1116.85	235.95
1047.1617	3185.9773	1117.75	236.15
1047.2654	3186.9227	1119.5	237.75
1047.369	3187.8674	1107.3	226.05
1047.4726	3188.8115	1114.4	232.5
1047.5761	3189.755	1109.7	230.7
1047.6796	3190.6979	1110.85	229.95
1047.783	3191.6402	1111.6	231.8
1047.8864	3192.5818	1104.7	224.8
1047.9898	3193.5229	1110.8	225.05
1048.0931	3194.4633	1105.1	224.2
1048.1963	3195.4031	1102.15	219.95
1048.2995	3196.3423	1101.05	221.25
1048.4027	3197.2809	1101.2	220.15
1048.5058	3198.2189	1103.85	223.2
1048.6089	3199.1563	1108.3	221.5
1048.7119	3200.0931	1101.45	222.2
1048.8148	3201.0292	1095.5	217.45
1048.9178	3201.9648	1098.35	217
1049.0206	3202.8997	1095.05	210.3
1049.1235	3203.834	1094.75	215.35
1049.2262	3204.7677	1091.3	211.45
1049.329	3205.7008	1091.35	210.05
1049.4317	3206.6333	1089	211
1049.5343	3207.5652	1092.9	208.9
1049.6369	3208.4964	1088.8	209
1049.7394	3209.4271	1087.5	208.1
1049.8419	3210.3571	1078.65	198.4
1049.9444	3211.2865	1083.9	202.75
1050.0468	3212.2154	1088.5	206.45
1050.1491	3213.1436	1086.7	204.05
1050.2514	3214.0712	1090.05	204.35
1050.3537	3214.9982	1079.95	201.7
1050.4559	3215.9246	1084.7	202.85
1050.5581	3216.8503	1080.8	200.85
1050.6602	3217.7755	1075.5	194.55
1050.7623	3218.7001	1080.05	201.8
1050.8643	3219.624	1072.15	192
1050.9663	3220.5473	1076.7	197.65
1051.0682	3221.4701	1075.55	194.1
1051.1701	3222.3922	1074.65	192.8
1051.2719	3223.3137	1073.05	191.35
1051.3737	3224.2346	1069.3	188.45
1051.4754	3225.1549	1072.35	193.4
1051.5771	3226.0746	1068.15	189.05
1051.6788	3226.9937	1073.4	193.6
1051.7804	3227.9121	1063.75	184.35
1051.8819	3228.83	1064.05	185.8
1051.9834	3229.7473	1069.15	190.7
1052.0849	3230.6639	1062.5	181.75
1052.1863	3231.5799	1063.1	183.05
1052.2876	3232.4954	1065.25	184.9
1052.3889	3233.4102	1063.85	184.15
1052.4902	3234.3244	1062.6	183.2
1052.5914	3235.238	1056.15	175.8
1052.6926	3236.151	1083.65	179.4
1052.7937	3237.0634	1055	175.35
1052.8948	3237.9752	1053.7	173.75
1052.9958	3238.8864	1060.05	180.5
1053.0968	3239.797	1053.85	174.3
1053.1977	3240.7069	1053.65	171.3
1053.2986	3241.6163	1055.4	172.35
1053.3994	3242.5251	1051.6	172.7
1053.5002	3243.4332	1048.65	170.1
1053.6009	3244.3408	1049.85	169.15
1053.7016	3245.2477	1047.7	169
1053.8022	3246.154	1047.9	166.4
1053.9028	3247.0598	1045.85	165.25
1054.0034	3247.9649	1044.8	164.45
1054.1039	3248.8694	1041.5	160.3
1054.2043	3249.7733	1043	162.15
1054.3047	3250.6766	1042.6	162.5
1054.4051	3251.5793	1040.85	158.1
1054.5054	3252.4814	1038.5	159.95
1054.6056	3253.3829	1040.15	159.2
1054.7058	3254.2838	1041.65	162.2
1054.806	3255.1841	1036.15	158.5
1054.9061	3256.0838	1033.55	153.95
1055.0061	3256.9829	1032.8	153
1055.1062	3257.8814	1031.95	149.35
1055.2061	3258.7792	1032.65	149.75
1055.306	3259.6765	1030.1	151.45
1055.4059	3260.5731	1025.5	145.85
1055.5057	3261.4692	1022.8	142.05
1055.6055	3262.3647	1023.3	144.9
1055.7052	3263.2595	1019.95	140.35
1055.8049	3264.1538	1018.55	139.6
1055.9045	3265.0474	1017.4	134.95
1056.0041	3265.9404	1014.2	133.45
1056.1036	3266.8329	1014.75	135.15
1056.2031	3267.7247	1023.05	132.95
1056.3025	3268.616	1009	132.3
1056.4019	3269.5066	1005.9	127.15
1056.5013	3270.3966	1002.45	122.6
1056.6005	3271.286	996.8	119.35
