Software Version:	3.9.2.0
Unit SN:	10000200
Spectrometer SN:	6960
Date:	3/26/2024 12:56:34 PM
Data Line Index:	25
Spectral Points:	2048
Integration time (ms):	125
Averages:	20
Delay (ms):	30000
Sequence Number:	1
Processing:	dark subtract
Laser Power (mW):	305
Laser Current (mA):	816
Laser Diode Temp (C):	25
Laser Case Temp (C):	25.2
System Temp (C):	25.1
Spectrometer Temp (C):	23
CCD Temp (C):	0.031
Secondary Temp (C):	20.008
Heatsink Temp (C):	21.381
CCDPCB Temp (C):	35.662
SecondaryPCB Temp (C):	28.659

Wavelength	RamanShift	Raw Counts	Dark Subtracted
787.061	30.1047	427.4	15.2
787.2016	32.3739	425.35	16.3
787.3422	34.6426	429.6	18.7
787.4828	36.9109	430.2	16.65
787.6235	39.1787	436.2	18.6
787.7642	41.4461	443.3	20.35
787.9049	43.7131	446.45	19.2
788.0456	45.9796	451.95	24.75
788.1863	48.2456	458.45	25.6
788.3271	50.5112	460.9	24.35
788.4679	52.7764	465.65	25.8
788.6087	55.0411	471.65	30.95
788.7496	57.3054	477.4	30.65
788.8904	59.5692	482.75	34.8
789.0313	61.8326	487.45	36.3
789.1722	64.0955	496.95	39.85
789.3132	66.3579	504.6	42.95
789.4541	68.6199	510.2	44.2
789.5951	70.8815	523.25	57.2
789.7361	73.1426	549.5	82.05
789.8771	75.4032	608.55	136.2
790.0181	77.6634	742.2	263.65
790.1592	79.9231	1051.85	568.55
790.3003	82.1824	1718.75	1232.5
790.4414	84.4412	2834.25	2344.5
790.5825	86.6995	4343.75	3847.45
790.7237	88.9574	5856.65	5353
790.8648	91.2148	6959.5	6454.5
791.006	93.4717	7514.4	7006.15
791.1472	95.7282	7729.65	7214.8
791.2885	97.9842	7818.65	7302.9
791.4297	100.2398	7805.35	7287.15
791.571	102.4949	7804.2	7284.8
791.7123	104.7495	7757.35	7231.75
791.8536	107.0036	7694.4	7169.75
791.9949	109.2573	7646.55	7123.2
792.1363	111.5105	7580.2	7052.15
792.2777	113.7632	7509.85	6982.4
792.4191	116.0154	7435.9	6894.4
792.5605	118.2672	7385.95	6854.05
792.7019	120.5185	7269.75	6737.1
792.8434	122.7693	7216.55	6678.7
792.9849	125.0197	7141.25	6601.95
793.1264	127.2696	7041.6	6500.1
793.2679	129.519	7027.8	6482.45
793.4094	131.7679	6999.3	6449.55
793.551	134.0163	6978.55	6427.3
793.6926	136.2642	6958.3	6400.8
793.8342	138.5117	6973.85	6413.95
793.9758	140.7587	6937.55	6379.6
794.1175	143.0052	6931.9	6368.15
794.2591	145.2512	6867.75	6305.75
794.4008	147.4967	6809	6245
794.5425	149.7417	6776.65	6208.65
794.6842	151.9863	6718.45	6147.85
794.826	154.2304	6711.5	6141.4
794.9677	156.4739	6669.4	6091
795.1095	158.717	6681.1	6102.5
795.2513	160.9596	6694.65	6112.55
795.3931	163.2017	6713.6	6128.75
795.535	165.4433	6720.25	6132.95
795.6768	167.6844	6728.5	6137.45
795.8187	169.925	6713.3	6120.3
795.9606	172.1651	6629.95	6033.25
796.1025	174.4047	6593.95	5993.1
796.2445	176.6439	6533.2	5930.85
796.3864	178.8825	6514.9	5908.2
796.5284	181.1206	6494.9	5884.1
796.6704	183.3582	6479.8	5866
796.8124	185.5954	6468.15	5854.05
796.9544	187.832	6455.65	5839
797.0965	190.0681	6454.95	5835.75
797.2386	192.3037	6469.05	5847.4
797.3806	194.5388	6456.65	5829.6
797.5228	196.7734	6483.95	5854.85
797.6649	199.0075	6469.3	5837.25
797.807	201.2411	6531.45	5896.5
797.9492	203.4742	6556.15	5923.05
798.0914	205.7068	6569.95	5937.35
798.2336	207.9389	6572.65	5937.3
798.3758	210.1704	6583.25	5944.75
798.518	212.4015	6593.1	5948.65
798.6603	214.632	6602.4	5958.3
798.8025	216.862	6595.1	5961.4
798.9448	219.0915	6591.15	5965.05
799.0871	221.3205	6596.2	5971.05
799.2294	223.549	6605.45	5982.1
799.3718	225.777	6615.15	5992.55
799.5141	228.0044	6606.85	5980.25
799.6565	230.2314	6605.2	5981.7
799.7989	232.4578	6577.9	5952.3
799.9413	234.6837	6554.65	5919.45
800.0837	236.909	6564.15	5929.95
800.2262	239.1339	6577	5918.25
800.3687	241.3582	6549.95	5903.15
800.5111	243.582	6565.95	5892.35
800.6536	245.8053	6569.45	5908.3
800.7961	248.0281	6557.7	5901.5
800.9387	250.2503	6556.05	5892.05
801.0812	252.472	6589.25	5920.7
801.2238	254.6932	6595.25	5925.45
801.3664	256.9139	6559.5	5884.6
801.509	259.134	6577.3	5902.3
801.6516	261.3536	6579.3	5905.05
801.7942	263.5727	6630.8	5954.1
801.9369	265.7912	6631.25	5954.8
802.0795	268.0092	6688.75	6013.1
802.2222	270.2267	6753.25	6076.95
802.3649	272.4436	6783.55	6103.65
802.5076	274.6601	6800	6108.95
802.6504	276.8759	6836.35	6155.05
802.7931	279.0913	6845.85	6158.55
802.9359	281.3061	6859.95	6171.7
803.0787	283.5204	6892.4	6202.95
803.2215	285.7341	6908.5	6217
803.3643	287.9473	6959.85	6256.1
803.5071	290.16	6942.85	6242.75
803.6499	292.3721	6919.55	6225.9
803.7928	294.5837	6871.4	6177.4
803.9357	296.7947	6796	6103.9
804.0786	299.0052	6792.05	6095.7
804.2215	301.2152	6752.15	6052.6
804.3644	303.4246	6740.65	6043.8
804.5074	305.6334	6725.7	6030.35
804.6503	307.8418	6712.1	6011.25
804.7933	310.0495	6720.8	6021.1
804.9363	312.2568	6675.1	5976.4
805.0793	314.4635	6627.6	5926.05
805.2223	316.6696	6576	5870.8
805.3653	318.8752	6511.3	5798.2
805.5084	321.0802	6479.05	5773.75
805.6514	323.2847	6466.25	5758.85
805.7945	325.4887	6448.65	5742
805.9376	327.692	6478.05	5771.7
806.0807	329.8949	6508.4	5800.25
806.2238	332.0972	6546.75	5835.15
806.367	334.2989	6610.15	5893.9
806.5101	336.5001	6615.1	5899.1
806.6533	338.7007	6591.65	5874.15
806.7965	340.9008	6561.85	5843.6
806.9397	343.1003	6496.8	5775.8
807.0829	345.2992	6442	5720.6
807.2261	347.4976	6396.3	5674.8
807.3693	349.6955	6364	5640.35
807.5126	351.8927	6349.65	5623.85
807.6559	354.0895	6333.95	5595.05
807.7991	356.2856	6326.35	5599.75
807.9424	358.4812	6286.9	5558.65
808.0857	360.6763	6286.35	5556.1
808.2291	362.8707	6275.9	5543.3
808.3724	365.0646	6291.85	5556.5
808.5158	367.258	6286.15	5550.85
808.6591	369.4508	6283.85	5543.2
808.8025	371.643	6318.6	5581
808.9459	373.8346	6327.9	5585.15
809.0893	376.0257	6368.6	5622.3
809.2327	378.2162	6410.75	5663.65
809.3762	380.4062	6439.35	5689.95
809.5196	382.5956	6405.5	5652.65
809.6631	384.7844	6353.65	5605.7
809.8066	386.9726	6281.65	5530.8
809.9501	389.1603	6251.25	5500.85
810.0936	391.3474	6245.05	5450.5
810.2371	393.5339	6218	5466.2
810.3806	395.7199	6193	5446.95
810.5241	397.9052	6203.4	5459.3
810.6677	400.09	6237.2	5494.75
810.8113	402.2743	6293.3	5550.55
810.9548	404.4579	6328.05	5585.65
811.0984	406.641	6369.3	5624.9
811.2421	408.8235	6398.9	5652.75
811.3857	411.0054	6456.45	5710.95
811.5293	413.1868	6561.8	5812.7
811.673	415.3675	6678.8	5926.65
811.8166	417.5477	6721.15	5970.15
811.9603	419.7273	6667.7	5912.2
812.104	421.9064	6501.85	5741.25
812.2477	424.0848	6407.15	5649.15
812.3914	426.2627	6331.4	5570.6
812.5351	428.4399	6272.25	5509.75
812.6788	430.6166	6198.05	5429.75
812.8226	432.7928	6142.05	5372.4
812.9663	434.9683	6088.75	5321.45
813.1101	437.1432	6072.35	5302.9
813.2539	439.3176	6015.8	5246.8
813.3977	441.4914	5996.35	5225.25
813.5415	443.6645	5999.5	5225.55
813.6853	445.8371	5990.85	5214.55
813.8291	448.0091	5997.85	5224.15
813.973	450.1806	5976.25	5203.55
814.1168	452.3514	5968.45	5193.4
814.2607	454.5216	5966.7	5182.35
814.4046	456.6913	5929.7	5151.85
814.5485	458.8603	5945.85	5170.5
814.6924	461.0288	5953.85	5176.25
814.8363	463.1967	5942.25	5166.95
814.9802	465.3639	5943.5	5165.65
815.1241	467.5306	5923.45	5142.45
815.2681	469.6967	5907.95	5127.15
815.412	471.8622	5901.25	5120.3
815.556	474.0271	5916.3	5135.6
815.7	476.1914	5877.8	5092.85
815.844	478.3551	5881.85	5099.8
815.988	480.5182	5906.65	5122.75
816.132	482.6807	5886.35	5102.7
816.276	484.8426	5915.1	5130.85
816.4201	487.0039	5954.8	5168.25
816.5641	489.1647	6004.9	5219.5
816.7082	491.3248	6071.65	5283
816.8522	493.4843	6066.4	5282.6
816.9963	495.6432	6074.95	5288.8
817.1404	497.8015	6034.9	5242.75
817.2845	499.9592	6003.1	5214.95
817.4286	502.1163	5952.45	5163.05
817.5727	504.2728	5902.75	5110.55
817.7168	506.4287	5868.35	5078.6
817.861	508.5839	5850.25	5059.05
818.0051	510.7386	5845.4	5056.05
818.1493	512.8927	5853.25	5055.7
818.2935	515.0461	5842.4	5050
818.4377	517.199	5869.6	5077.1
818.5818	519.3512	5904.2	5111.75
818.726	521.5029	5954.55	5154.15
818.8703	523.6539	6016.25	5220.1
819.0145	525.8043	6047.35	5253.05
819.1587	527.9541	6004.55	5205.2
819.303	530.1033	5929.85	5131.15
819.4472	532.2519	5862.35	5065.35
819.5915	534.3999	5841.85	5041.5
819.7357	536.5472	5835	5035
819.88	538.694	5840.7	5039.85
820.0243	540.8401	5861.3	5060.75
820.1686	542.9856	5865.35	5062.4
820.3129	545.1305	5884.8	5080.9
820.4572	547.2748	5926.4	5122
820.6016	549.4185	5911.95	5105.55
820.7459	551.5615	5901.15	5096.75
820.8902	553.704	5921	5116.35
821.0346	555.8458	5908.05	5101.45
821.1789	557.987	5941.5	5135.7
821.3233	560.1276	5984.7	5177.75
821.4677	562.2675	6043.85	5239
821.6121	564.4069	6098.25	5292.25
821.7565	566.5456	6162.65	5357.65
821.9009	568.6837	6135.9	5330.4
822.0453	570.8212	6063.55	5257.05
822.1897	572.958	5969	5159.2
822.3342	575.0942	5933.85	5127.45
822.4786	577.2299	5892.8	5084.3
822.6231	579.3648	5830.25	5023.2
822.7675	581.4992	5794.6	4984.95
822.912	583.6329	5779.35	4971.65
823.0565	585.766	5795.2	4988.25
823.201	587.8985	5844.75	5036.75
823.3454	590.0304	5861.65	5039.3
823.4899	592.1616	5893.55	5081.15
823.6345	594.2922	5914.7	5102.85
823.779	596.4222	5890.45	5078.55
823.9235	598.5515	5832.4	5018.7
824.068	600.6802	5779.5	4965.95
824.2126	602.8083	5695.3	4881.15
824.3571	604.9358	5681.9	4863.15
824.5017	607.0626	5663.05	4846.75
824.6462	609.1888	5671.95	4853.1
824.7908	611.3144	5682.9	4865.45
824.9354	613.4393	5703.15	4885.8
825.08	615.5636	5759.1	4940.8
825.2246	617.6873	5812.7	4993.8
825.3692	619.8103	5863.5	5044.35
825.5138	621.9327	5877.85	5053.45
825.6584	624.0544	5873.6	5054.9
825.803	626.1756	5784.25	4964.65
825.9477	628.2961	5739.15	4919.3
826.0923	630.4159	5692.15	4872.55
826.237	632.5351	5677.4	4857.5
826.3816	634.6537	5674.75	4852.95
826.5263	636.7716	5651.85	4826.45
826.6709	638.8889	5638.75	4817.35
826.8156	641.0056	5664.75	4839.55
826.9603	643.1216	5682.9	4858.45
827.105	645.237	5713	4888.8
827.2497	647.3518	5682.25	4857.95
827.3944	649.4659	5662.9	4839.45
827.5391	651.5793	5620.25	4793.9
827.6838	653.6922	5592.4	4766.55
827.8285	655.8043	5582.1	4757.5
827.9733	657.9159	5550.45	4723.45
828.118	660.0268	5553.7	4724.4
828.2627	662.137	5514.85	4689
828.4075	664.2466	5531.9	4702.6
828.5522	666.3556	5541.75	4712.95
828.697	668.4639	5527.65	4695.55
828.8418	670.5716	5518.8	4688.9
828.9865	672.6786	5531.35	4703.7
829.1313	674.785	5496.4	4664.45
829.2761	676.8907	5478.95	4649
829.4209	678.9958	5502.6	4673.3
829.5657	681.1002	5481.75	4649.5
829.7105	683.204	5485.15	4650.3
829.8553	685.3072	5478.7	4646.05
830.0001	687.4097	5467.8	4636.5
830.1449	689.5115	5463.7	4627.95
830.2898	691.6127	5455.65	4623.45
830.4346	693.7132	5442.95	4607
830.5794	695.8131	5482.95	4633.7
830.7243	697.9123	5450.85	4616.85
830.8691	700.0109	5460.15	4623.75
831.014	702.1089	5464.45	4629.5
831.1588	704.2061	5479.2	4643.3
831.3037	706.3028	5490.2	4651.55
831.4486	708.3987	5515.35	4679.75
831.5935	710.4941	5510.5	4672.95
831.7383	712.5887	5538.8	4701.7
831.8832	714.6827	5522.1	4682.8
832.0281	716.7761	5500.05	4660.6
832.173	718.8688	5523.8	4686.1
832.3179	720.9608	5498.65	4657.35
832.4628	723.0522	5515.9	4673.95
832.6077	725.1429	5513.3	4676.6
832.7527	727.233	5556.95	4718.7
832.8976	729.3224	5619.15	4779.8
833.0425	731.4112	5656.75	4817.55
833.1874	733.4993	5683.65	4841.1
833.3324	735.5867	5638.2	4798.6
833.4773	737.6735	5571.4	4729.1
833.6222	739.7596	5503.95	4661.2
833.7672	741.845	5472.65	4631.65
833.9122	743.9298	5462.85	4618.9
834.0571	746.014	5464.6	4624.35
834.2021	748.0974	5494.7	4649.85
834.347	750.1802	5490.3	4647.5
834.492	752.2624	5473.3	4631.95
834.637	754.3439	5411.1	4564.75
834.782	756.4247	5397.85	4543.65
834.9269	758.5048	5374.15	4526.75
835.0719	760.5843	5386.35	4541.3
835.2169	762.6631	5381.35	4537.65
835.3619	764.7413	5422.65	4580.7
835.5069	766.8188	5487.45	4639.95
835.6519	768.8956	5573.05	4724.75
835.7969	770.9718	5619.6	4773.3
835.9419	773.0473	5595.7	4749.4
836.0869	775.1221	5562.75	4715.7
836.232	777.1962	5530.9	4684.45
836.377	779.2697	5587.65	4738.8
836.522	781.3426	5677.95	4812
836.667	783.4147	5759.25	4909
836.8121	785.4862	5774.7	4926.25
836.9571	787.557	5690.85	4841.55
837.1021	789.6271	5561	4712.85
837.2472	791.6966	5427.8	4578.55
837.3922	793.7654	5308.6	4457.3
837.5373	795.8335	5261.6	4412.75
837.6823	797.901	5183.1	4335.3
837.8274	799.9678	5154.25	4303.9
837.9724	802.0339	5154.45	4303.9
838.1175	804.0993	5164.8	4305.35
838.2626	806.1641	5142.6	4290.4
838.4076	808.2282	5141.3	4291.2
838.5527	810.2916	5112.5	4259.8
838.6978	812.3544	5093.2	4244.05
838.8428	814.4164	5064.1	4215.9
838.9879	816.4778	5075.45	4223.55
839.133	818.5385	5082.85	4232.25
839.2781	820.5986	5096.65	4246.6
839.4232	822.658	5149.35	4296.3
839.5682	824.7166	5190.6	4340.1
839.7133	826.7747	5284.9	4434.05
839.8584	828.832	5344.5	4491.3
840.0035	830.8886	5403.35	4548.6
840.1486	832.9446	5426.95	4573.95
840.2937	834.9999	5401.6	4549.25
840.4388	837.0545	5352.65	4499.3
840.5839	839.1085	5259.75	4404.25
840.729	841.1618	5162.85	4305.8
840.8741	843.2143	5088.8	4235.1
841.0192	845.2662	5047.7	4193.7
841.1643	847.3175	5015.65	4162.55
841.3095	849.368	4990.85	4136.8
841.4546	851.4179	5002.55	4147.75
841.5997	853.467	4978.95	4123.3
841.7448	855.5155	4984.4	4129.55
841.8899	857.5633	4969.45	4114.5
842.0351	859.6105	4951.55	4095.3
842.1802	861.6569	4951.2	4096.1
842.3253	863.7027	4937.1	4080.8
842.4704	865.7478	4924.1	4068.3
842.6156	867.7922	4892.25	4037.6
842.7607	869.8359	4872.75	4015.35
842.9058	871.8789	4868.95	4012.85
843.0509	873.9212	4902.55	4014.1
843.1961	875.9629	4854.9	3998.45
843.3412	878.0039	4838.4	3980.3
843.4863	880.0441	4860.55	4002.2
843.6315	882.0837	4887.9	4030.4
843.7766	884.1226	4891.6	4033.05
843.9218	886.1609	4912.45	4055.2
844.0669	888.1984	4953.9	4098.45
844.212	890.2352	5024.95	4167.95
844.3572	892.2714	5026.5	4163.75
844.5023	894.3069	5009.7	4150.7
844.6475	896.3416	4943.8	4081.25
844.7926	898.3757	4898.7	4040.85
844.9377	900.4091	4849.25	3989
845.0829	902.4418	4855.7	3992.5
845.228	904.4739	4852.45	3991.7
845.3732	906.5052	4869.2	4008.05
845.5183	908.5358	4874.35	4014.25
845.6635	910.5658	4853.1	3992.45
845.8086	912.595	4808.35	3950.5
845.9538	914.6236	4766.05	3905
846.0989	916.6515	4741.85	3881.35
846.2441	918.6786	4711.6	3850.45
846.3892	920.7051	4669.6	3806.6
846.5344	922.7309	4681.3	3821.95
846.6795	924.756	4655.95	3796
846.8246	926.7804	4675.2	3810.6
846.9698	928.8041	4655	3792.55
847.1149	930.8272	4674.45	3812.75
847.2601	932.8495	4658	3794.1
847.4052	934.8711	4660.35	3796.15
847.5504	936.892	4658.25	3794.35
847.6955	938.9123	4674.1	3810.65
847.8407	940.9318	4680.2	3817.75
847.9858	942.9506	4692.9	3828.95
848.131	944.9688	4675.35	3812.85
848.2761	946.9862	4646.9	3782.5
848.4213	949.003	4608.2	3743.5
848.5664	951.019	4579.15	3716.85
848.7115	953.0344	4543.3	3681.75
848.8567	955.0491	4527.3	3662.05
849.0018	957.063	4499.25	3633.5
849.147	959.0763	4521.3	3650.35
849.2921	961.0888	4488.7	3622.25
849.4373	963.1007	4486.65	3622.35
849.5824	965.1119	4472.7	3607.1
849.7275	967.1223	4463.35	3598.4
849.8727	969.1321	4445.45	3582.35
850.0178	971.1412	4427.25	3564.5
850.1629	973.1495	4416.4	3551.8
850.3081	975.1572	4441.85	3527.4
850.4532	977.1641	4408.7	3541.55
850.5983	979.1704	4384.3	3518.55
850.7435	981.1759	4381.3	3509.95
850.8886	983.1808	4383.8	3518.25
851.0337	985.1849	4352.9	3475.2
851.1788	987.1884	4353.1	3486.6
851.324	989.1911	4347.3	3478.65
851.4691	991.1932	4347.2	3479.25
851.6142	993.1945	4341.9	3475.55
851.7593	995.1951	4332.55	3464.45
851.9045	997.1951	4315.95	3443.2
852.0496	999.1943	4283.15	3416.35
852.1947	1001.1928	4265.35	3397.05
852.3398	1003.1906	4278.45	3411.3
852.4849	1005.1877	4306.9	3434.95
852.63	1007.1841	4307.95	3438.5
852.7751	1009.1798	4323.2	3455.3
852.9202	1011.1748	4312.55	3445.3
853.0653	1013.1691	4278.4	3408.85
853.2104	1015.1627	4232.95	3365.05
853.3555	1017.1556	4165.05	3295.95
853.5006	1019.1477	4146.9	3277.5
853.6457	1021.1392	4100.6	3230.9
853.7908	1023.1299	4091.2	3221.75
853.9359	1025.12	4085.05	3216.65
854.081	1027.1093	4069.3	3201.3
854.2261	1029.0979	4089.4	3222.25
854.3712	1031.0859	4080.75	3212.95
854.5163	1033.0731	4107.95	3237.5
854.6613	1035.0596	4099.95	3230.95
854.8064	1037.0454	4064.4	3194.6
854.9515	1039.0304	4070.25	3200.45
855.0965	1041.0148	4024.6	3156.7
855.2416	1042.9985	3980.15	3110.85
855.3867	1044.9814	3969.45	3100.7
855.5317	1046.9636	3947.2	3074.55
855.6768	1048.9452	3956.75	3086.5
855.8219	1050.926	3948.4	3078.65
855.9669	1052.9061	3957.35	3086.95
856.112	1054.8855	3974.85	3104.75
856.257	1056.8642	3983.15	3114.85
856.4021	1058.8421	3965.2	3089.4
856.5471	1060.8194	3947.9	3076.5
856.6921	1062.7959	3935.4	3064.55
856.8372	1064.7717	3920.05	3046
856.9822	1066.7469	3904.6	3030
857.1272	1068.7213	3897.05	3022.95
857.2723	1070.695	3907.25	3035.4
857.4173	1072.6679	3922.15	3050.35
857.5623	1074.6402	3944.55	3072.1
857.7073	1076.6117	3953.65	3077.3
857.8523	1078.5826	3935.45	3064.15
857.9973	1080.5527	3895.7	3021.35
858.1423	1082.5221	3844.85	2971.4
858.2873	1084.4908	3807.65	2935.05
858.4323	1086.4587	3790.95	2917.3
858.5773	1088.426	3764.85	2891.4
858.7223	1090.3925	3759.5	2882.9
858.8673	1092.3584	3748.55	2875.3
859.0123	1094.3235	3732.95	2864.1
859.1573	1096.2879	3749.7	2875.85
859.3022	1098.2515	3766.5	2892.3
859.4472	1100.2145	3793.25	2921.05
859.5922	1102.1767	3806.1	2929.45
859.7371	1104.1382	3849.7	2975.9
859.8821	1106.099	3891.7	3015.25
860.027	1108.0591	3931.25	3059.4
860.172	1110.0185	3962.05	3086.5
860.3169	1111.9771	3999.55	3127
860.4619	1113.9351	4024.35	3150.5
860.6068	1115.8923	4100.5	3227.25
860.7517	1117.8488	4125.8	3249.7
860.8967	1119.8045	4122.2	3249
861.0416	1121.7596	4018.6	3142.95
861.1865	1123.7139	3894.55	3019.25
861.3314	1125.6675	3816.7	2940.8
861.4763	1127.6204	3786.85	2912.5
861.6212	1129.5726	3805.85	2928.85
861.7661	1131.524	3813.65	2940.15
861.911	1133.4748	3794.3	2920.35
862.0559	1135.4248	3712.7	2837
862.2008	1137.3741	3665.65	2790.75
862.3457	1139.3226	3612.3	2737.4
862.4905	1141.2705	3596.05	2718.65
862.6354	1143.2176	3587.9	2705.75
862.7803	1145.164	3611.75	2735.1
862.9251	1147.1097	3611.45	2735.95
863.07	1149.0546	3603.35	2728.55
863.2148	1150.9989	3555.15	2678.15
863.3597	1152.9424	3526.85	2651.55
863.5045	1154.8852	3509.45	2633.3
863.6493	1156.8272	3482.7	2608.95
863.7942	1158.7686	3489.8	2606.75
863.939	1160.7092	3474.9	2599.1
864.0838	1162.6491	3477.85	2598.85
864.2286	1164.5883	3482.6	2608.7
864.3734	1166.5267	3481.95	2603.85
864.5182	1168.4644	3494	2617.3
864.663	1170.4014	3519.95	2639.95
864.8078	1172.3377	3570	2696.3
864.9526	1174.2732	3592.85	2716.9
865.0974	1176.2081	3668.35	2792.75
865.2421	1178.1421	3774.4	2893.45
865.3869	1180.0755	3913	3039
865.5317	1182.0082	4005.15	3128.75
865.6764	1183.9401	4027.25	3148.95
865.8212	1185.8713	3951.2	3071.25
865.9659	1187.8017	3807.35	2932.3
866.1106	1189.7315	3685.3	2809.25
866.2554	1191.6605	3578.9	2674.15
866.4001	1193.5888	3503.75	2627
866.5448	1195.5163	3446.2	2570.85
866.6895	1197.4432	3424.5	2546.9
866.8342	1199.3693	3391.4	2516
866.9789	1201.2947	3381.55	2496.65
867.1236	1203.2193	3349.45	2473
867.2683	1205.1432	3358.65	2479
867.413	1207.0664	3333.8	2457.25
867.5576	1208.9889	3334.15	2453.5
867.7023	1210.9106	3322.1	2445.35
867.847	1212.8316	3339	2462.3
867.9916	1214.7519	3323.8	2436.7
868.1363	1216.6715	3323.2	2445.15
868.2809	1218.5903	3314.1	2436.65
868.4255	1220.5084	3327.45	2449.7
868.5701	1222.4257	3338.05	2461.4
868.7148	1224.3424	3336.75	2458.25
868.8594	1226.2583	3348.2	2470.8
869.004	1228.1735	3372.7	2493
869.1486	1230.0879	3402.65	2523.5
869.2932	1232.0016	3428.55	2550.25
869.4377	1233.9146	3459.7	2578
869.5823	1235.8269	3469.55	2591.35
869.7269	1237.7384	3490.05	2610.35
869.8715	1239.6492	3471.1	2592.9
870.016	1241.5592	3475.9	2595.5
870.1606	1243.4686	3485.05	2606.5
870.3051	1245.3772	3551.7	2674.5
870.4496	1247.285	3639.3	2761.15
870.5941	1249.1922	3709.2	2829.3
870.7387	1251.0986	3779.35	2903.55
870.8832	1253.0042	3838	2959.45
871.0277	1254.9092	3925.1	3044.05
871.1722	1256.8134	4004.55	3126.95
871.3167	1258.7169	4124.4	3242.35
871.4611	1260.6196	4199.35	3320.65
871.6056	1262.5216	4272.75	3391.85
871.7501	1264.4229	4284.4	3407
871.8945	1266.3234	4256.5	3377.4
872.039	1268.2232	4173.35	3291.05
872.1834	1270.1223	4106.25	3226.65
872.3278	1272.0207	4054.95	3177.2
872.4723	1273.9183	4021.45	3135.05
872.6167	1275.8151	4013.5	3135.9
872.7611	1277.7113	4045.8	3164.75
872.9055	1279.6067	4094.4	3214.15
873.0499	1281.5014	4228.2	3346.65
873.1943	1283.3953	4433	3550.35
873.3386	1285.2885	4653.8	3773.05
873.483	1287.181	4855.7	3974.65
873.6274	1289.0727	4952.9	4074.35
873.7717	1290.9637	4916.9	4036.1
873.9161	1292.854	4775.15	3894.3
874.0604	1294.7435	4587.6	3706.7
874.2047	1296.6323	4448.45	3567.7
874.349	1298.5204	4306.6	3422.55
874.4933	1300.4077	4208.55	3325.65
874.6376	1302.2943	4143.95	3260.6
874.7819	1304.1802	4092.25	3211.95
874.9262	1306.0653	4035.15	3151.2
875.0705	1307.9497	4003	3121.65
875.2147	1309.8333	3959.4	3079.6
875.359	1311.7162	3943.6	3062.25
875.5032	1313.5984	3933	3050.1
875.6475	1315.4798	3912.3	3019.55
875.7917	1317.3605	3921.85	3033.4
875.9359	1319.2405	3937.85	3055.4
876.0801	1321.1197	3928.5	3046.45
876.2243	1322.9982	3917.55	3030.5
876.3685	1324.876	3874.3	2992.15
876.5127	1326.753	3787.5	2906.05
876.6569	1328.6293	3683.85	2800.15
876.801	1330.5048	3576.55	2692
876.9452	1332.3796	3452.95	2574.5
877.0893	1334.2537	3414.75	2511.2
877.2335	1336.127	3328.4	2446.25
877.3776	1337.9996	3310.45	2428.9
877.5217	1339.8714	3251.45	2371.05
877.6658	1341.7426	3274.2	2350.3
877.8099	1343.6129	3207.3	2325.6
877.954	1345.4826	3192.7	2309.85
878.0981	1347.3515	3160.1	2275.9
878.2422	1349.2196	3156.45	2273.25
878.3862	1351.087	3138.65	2256.95
878.5303	1352.9537	3118.55	2237.8
878.6743	1354.8197	3129.1	2247.9
878.8184	1356.6849	3129.85	2248.35
878.9624	1358.5493	3145.9	2264.8
879.1064	1360.4131	3154.45	2272.15
879.2504	1362.276	3190.15	2308.25
879.3944	1364.1383	3226.65	2345.65
879.5384	1365.9998	3248.5	2362.95
879.6823	1367.8606	3231.25	2349.95
879.8263	1369.7206	3229.6	2348.7
879.9702	1371.5799	3215.7	2332.3
880.1142	1373.4384	3209	2327.85
880.2581	1375.2962	3198.35	2315.75
880.402	1377.1533	3131.25	2249.3
880.5459	1379.0096	3071.7	2189.45
880.6898	1380.8652	3043.9	2161.6
880.8337	1382.7201	3010.65	2129.65
880.9776	1384.5742	2976.1	2093.9
881.1215	1386.4275	2936.1	2053.3
881.2653	1388.2802	2909.25	2029.2
881.4092	1390.132	2894.15	2010.9
881.553	1391.9832	2891.7	2006.65
881.6968	1393.8336	2861.2	1978.25
881.8406	1395.6832	2860.95	1977.6
881.9844	1397.5322	2854.05	1972.1
882.1282	1399.3803	2821.6	1934.75
882.272	1401.2278	2819	1934.9
882.4158	1403.0745	2804.75	1922.2
882.5595	1404.9204	2784.1	1902.6
882.7033	1406.7656	2785.7	1903.7
882.847	1408.6101	2771.15	1890
882.9908	1410.4538	2760	1876.6
883.1345	1412.2968	2746.15	1864.95
883.2782	1414.139	2744.45	1863.2
883.4219	1415.9805	2749.9	1869.65
883.5656	1417.8213	2761.9	1857.4
883.7092	1419.6613	2760.5	1879.7
883.8529	1421.5006	2794.4	1911.5
883.9965	1423.3391	2819	1935.4
884.1402	1425.1769	2875.35	1991.7
884.2838	1427.0139	2933.2	2048.9
884.4274	1428.8502	3021.7	2136.1
884.571	1430.6858	3107.85	2223.5
884.7146	1432.5206	3131.55	2248.65
884.8582	1434.3547	3131.05	2247.35
885.0018	1436.188	3118.1	2235.25
885.1453	1438.0206	3098.4	2213.95
885.2889	1439.8524	3069.8	2185.95
885.4324	1441.6835	3062.55	2180.2
885.5759	1443.5139	3070.75	2182.6
885.7194	1445.3435	3067.05	2183.05
885.8629	1447.1724	3073.75	2191.35
886.0064	1449.0005	3070.4	2186.3
886.1499	1450.8279	3054.35	2169.25
886.2933	1452.6545	3048.8	2165.3
886.4368	1454.4804	3057.85	2174.75
886.5802	1456.3056	3035.3	2143.4
886.7237	1458.13	3013.6	2132.3
886.8671	1459.9536	2977.95	2094.9
887.0105	1461.7766	2960.4	2075.8
887.1539	1463.5987	2908.55	2024.6
887.2972	1465.4202	2855.15	1973.1
887.4406	1467.2409	2815.6	1930.6
887.584	1469.0608	2780.9	1896.8
887.7273	1470.88	2751.85	1866.75
887.8706	1472.6984	2714.1	1830.1
888.0139	1474.5161	2689.3	1801.35
888.1572	1476.3331	2662.25	1779.25
888.3005	1478.1493	2642.65	1758.55
888.4438	1479.9648	2648.75	1765.35
888.5871	1481.7795	2640.15	1756.15
888.7303	1483.5935	2639.65	1756.55
888.8736	1485.4067	2625.8	1742.65
889.0168	1487.2192	2640.45	1756.25
889.16	1489.031	2630.25	1743.05
889.3032	1490.842	2637.4	1755
889.4464	1492.6522	2619.95	1735.95
889.5896	1494.4618	2634.9	1747.2
889.7327	1496.2705	2625.8	1743.6
889.8759	1498.0785	2606.05	1722.15
890.019	1499.8858	2601.95	1717.85
890.1622	1501.6924	2599.45	1716.25
890.3053	1503.4981	2595	1711.6
890.4484	1505.3032	2593.2	1709.6
890.5914	1507.1075	2581.65	1697.7
890.7345	1508.911	2562.55	1678.65
890.8776	1510.7138	2561.45	1675.55
891.0206	1512.5159	2545.75	1662.3
891.1637	1514.3172	2533.9	1650.25
891.3067	1516.1178	2530.7	1647.9
891.4497	1517.9176	2517.55	1629.35
891.5927	1519.7166	2510	1625.9
891.7357	1521.515	2512.1	1622.7
891.8786	1523.3126	2494.7	1610.25
892.0216	1525.1094	2490.15	1604.1
892.1645	1526.9055	2477.9	1594.45
892.3074	1528.7008	2462.6	1579.5
892.4503	1530.4954	2453.8	1564.35
892.5932	1532.2893	2450.45	1568.5
892.7361	1534.0824	2447.35	1558.1
892.879	1535.8747	2438.8	1553.9
893.0218	1537.6663	2431.6	1545.75
893.1647	1539.4572	2424.55	1537
893.3075	1541.2473	2412.95	1526.85
893.4503	1543.0367	2418.9	1534.9
893.5931	1544.8253	2417.85	1529.2
893.7359	1546.6132	2408.8	1520.3
893.8787	1548.4003	2414.85	1522.2
894.0214	1550.1867	2436.2	1542.35
894.1642	1551.9723	2429.15	1539.8
894.3069	1553.7572	2427.1	1541.75
894.4496	1555.5414	2451.3	1566.1
894.5923	1557.3247	2475	1588.95
894.735	1559.1074	2498	1615.8
894.8777	1560.8893	2534.9	1652.65
895.0204	1562.6705	2582.75	1698.75
895.163	1564.4509	2621.45	1738
895.3056	1566.2305	2633.25	1748.85
895.4482	1568.0094	2623.95	1741.55
895.5908	1569.7876	2618.25	1734.05
895.7334	1571.565	2622.6	1736.75
895.876	1573.3417	2618	1733.2
896.0186	1575.1176	2612.3	1727.7
896.1611	1576.8928	2640.3	1755.1
896.3036	1578.6672	2639.6	1757.7
896.4461	1580.4409	2681.85	1797.8
896.5886	1582.2138	2710.75	1826.1
896.7311	1583.986	2760.25	1875.9
896.8736	1585.7575	2812.45	1928
897.0161	1587.5282	2850.45	1968.25
897.1585	1589.2981	2882.8	1999.45
897.3009	1591.0673	2895.65	2011.35
897.4433	1592.8358	2902.6	2018.85
897.5857	1594.6035	2896.4	2010.05
897.7281	1596.3704	2878	1993.6
897.8705	1598.1366	2850.65	1966.15
898.0128	1599.9021	2817.9	1933.35
898.1551	1601.6668	2782.75	1896.45
898.2975	1603.4308	2739.35	1854.3
898.4398	1605.194	2736.1	1848.3
898.5821	1606.9564	2733.4	1849.3
898.7243	1608.7182	2802.75	1913.7
898.8666	1610.4791	2867.25	1982.45
899.0088	1612.2394	2980.6	2098.25
899.1511	1613.9988	3110.35	2224.8
899.2933	1615.7576	3222.6	2338.35
899.4355	1617.5156	3303.75	2414.35
899.5776	1619.2728	3290.05	2405.55
899.7198	1621.0293	3217.35	2334.1
899.862	1622.785	3090.65	2205.45
900.0041	1624.54	2940.95	2056.35
900.1462	1626.2942	2795.3	1909
900.2883	1628.0477	2661.4	1772.65
900.4304	1629.8005	2562.2	1673.5
900.5725	1631.5525	2469.95	1584.35
900.7145	1633.3037	2414.8	1528.7
900.8566	1635.0542	2343.65	1461.7
900.9986	1636.804	2311.1	1427.25
901.1406	1638.553	2321.85	1385.8
901.2826	1640.3013	2260.4	1376.25
901.4245	1642.0488	2237.55	1350.65
901.5665	1643.7955	2214.7	1333.75
901.7085	1645.5416	2191.6	1306.45
901.8504	1647.2868	2180.1	1295.9
901.9923	1649.0313	2165.5	1281.85
902.1342	1650.7751	2166.2	1278.2
902.2761	1652.5181	2143.75	1260.15
902.4179	1654.2604	2139.6	1256.3
902.5598	1656.0019	2144.65	1261.75
902.7016	1657.7427	2157	1274.45
902.8434	1659.4828	2168.5	1283.35
902.9852	1661.222	2197.6	1311.45
903.127	1662.9606	2222.1	1338.5
903.2687	1664.6984	2278.7	1393.55
903.4105	1666.4354	2297.25	1409.55
903.5522	1668.1717	2289.8	1404.75
903.6939	1669.9072	2253.2	1367.7
903.8356	1671.642	2197.45	1311.55
903.9773	1673.3761	2142.4	1257.05
904.119	1675.1094	2104.25	1218.2
904.2606	1676.8419	2083	1197.65
904.4022	1678.5737	2047.7	1162.95
904.5439	1680.3048	2037.4	1154
904.6855	1682.0351	2020.95	1138.3
904.827	1683.7646	2007.3	1119.8
904.9686	1685.4934	2004.95	1121.55
905.1101	1687.2215	1996.65	1111
905.2517	1688.9488	1983.05	1098.5
905.3932	1690.6754	1975	1088.9
905.5347	1692.4012	1972.55	1087.75
905.6761	1694.1263	1967.65	1082
905.8176	1695.8506	1969.4	1083.35
905.9591	1697.5742	1953.4	1069.65
906.1005	1699.297	1954.6	1069.85
906.2419	1701.0191	1940.55	1057.3
906.3833	1702.7404	1936.25	1050.9
906.5246	1704.461	1932.9	1046.2
906.666	1706.1808	1922.45	1035.25
906.8073	1707.8999	1923.5	1037.45
906.9487	1709.6182	1919.8	1034.3
907.09	1711.3358	1904.7	1018.6
907.2313	1713.0527	1902.1	1018.9
907.3725	1714.7688	1906.3	1016.65
907.5138	1716.4841	1900.2	1012.9
907.655	1718.1987	1899.9	1009.75
907.7962	1719.9126	1892.75	1009.3
907.9374	1721.6257	1893.5	1007.15
908.0786	1723.338	1895.55	1009.2
908.2198	1725.0496	1881.05	997.5
908.3609	1726.7605	1885.2	1000.8
908.502	1728.4706	1881.75	996.05
908.6431	1730.18	1861.55	973
908.7842	1731.8886	1860	973.65
908.9253	1733.5964	1870.2	978.25
909.0664	1735.3036	1868.8	981.2
909.2074	1737.0099	1868	982.75
909.3484	1738.7156	1857.75	974.05
909.4894	1740.4204	1858.65	970.45
909.6304	1742.1246	1858.85	970.15
909.7714	1743.8279	1852.6	968.15
909.9123	1745.5306	1859.5	974.95
910.0532	1747.2325	1850.7	966
910.1941	1748.9336	1846	960.6
910.335	1750.634	1836.3	949.8
910.4759	1752.3336	1833.95	949.45
910.6168	1754.0325	1834.4	952.15
910.7576	1755.7307	1836.2	951.25
910.8984	1757.4281	1834.35	947.9
911.0392	1759.1247	1840.4	949.2
911.18	1760.8206	1837.8	945.4
911.3208	1762.5158	1831.9	943.05
911.4615	1764.2102	1823.7	939.65
911.6022	1765.9039	1823.3	938.3
911.7429	1767.5968	1813.45	927.95
911.8836	1769.289	1811.8	925.85
912.0243	1770.9804	1809.8	923.05
912.1649	1772.6711	1809.6	923.95
912.3056	1774.361	1813.8	928.95
912.4462	1776.0502	1812.6	927.15
912.5868	1777.7386	1804.6	917.15
912.7274	1779.4263	1803.4	917.35
912.8679	1781.1132	1793.25	906.8
913.0084	1782.7994	1794.4	908.6
913.149	1784.4849	1789.95	903.7
913.2895	1786.1696	1798.8	909.3
913.4299	1787.8535	1794.75	911.05
913.5704	1789.5367	1786.25	898.95
913.7108	1791.2192	1787.7	902.6
913.8513	1792.9009	1799.65	896.05
913.9917	1794.5818	1778.9	892.8
914.132	1796.2621	1772.6	887.45
914.2724	1797.9415	1784.25	897.4
914.4128	1799.6202	1779.45	893.8
914.5531	1801.2982	1770.95	887.2
914.6934	1802.9755	1760.3	875.2
914.8337	1804.6519	1768.8	880.65
914.9739	1806.3277	1758.45	874.95
915.1142	1808.0027	1760.45	875.95
915.2544	1809.6769	1763.3	877.3
915.3946	1811.3504	1753.75	869.65
915.5348	1813.0231	1750	862.8
915.675	1814.6951	1746	859
915.8151	1816.3664	1754.25	867.35
915.9553	1818.0369	1747.25	860.95
916.0954	1819.7067	1742.3	858.45
916.2355	1821.3757	1745.55	858.85
916.3755	1823.044	1737.8	853.55
916.5156	1824.7115	1735.65	850.65
916.6556	1826.3783	1737.8	853.25
916.7956	1828.0443	1735.7	851.2
916.9356	1829.7096	1732.4	845.75
917.0756	1831.3741	1737.2	846.95
917.2155	1833.0379	1731.55	845.8
917.3555	1834.701	1732.95	845.25
917.4954	1836.3633	1727.15	839.95
917.6353	1838.0248	1729	843.4
917.7751	1839.6856	1722.45	837.45
917.915	1841.3457	1709.15	823.9
918.0548	1843.005	1714.1	829.3
918.1946	1844.6636	1714.8	829.45
918.3344	1846.3214	1712.45	827.45
918.4742	1847.9785	1713.65	828.1
918.6139	1849.6349	1706.3	818.85
918.7537	1851.2904	1722.75	828.2
918.8934	1852.9453	1707.45	819.5
919.0331	1854.5994	1701.35	814.9
919.1727	1856.2528	1701.7	810.5
919.3124	1857.9054	1701.35	817.2
919.452	1859.5572	1700.65	815.7
919.5916	1861.2083	1701.7	813.55
919.7312	1862.8587	1692.5	807.05
919.8708	1864.5084	1691.5	804.1
920.0103	1866.1572	1686.25	804.25
920.1498	1867.8054	1685.15	800.5
920.2893	1869.4528	1685.6	801.2
920.4288	1871.0994	1683.25	798.3
920.5683	1872.7453	1688.65	802.8
920.7077	1874.3905	1689.85	799.95
920.8471	1876.0349	1680.45	794.2
920.9865	1877.6786	1678.75	791.25
921.1259	1879.3215	1676.2	790.75
921.2653	1880.9637	1686.8	799.7
921.4046	1882.6051	1668.4	782.2
921.5439	1884.2458	1676.5	790.65
921.6832	1885.8858	1671.8	786.4
921.8225	1887.525	1679.2	793.65
921.9617	1889.1634	1665.1	780.9
922.101	1890.8011	1660.2	773.3
922.2402	1892.4381	1655	770.35
922.3794	1894.0743	1652.4	767.35
922.5185	1895.7098	1659.9	774.65
922.6577	1897.3446	1661.55	775.65
922.7968	1898.9786	1657.45	768.2
922.9359	1900.6118	1653.6	770.4
923.075	1902.2443	1651.9	766.55
923.214	1903.8761	1642.6	756.7
923.3531	1905.5071	1640.1	754.2
923.4921	1907.1374	1639.3	750.85
923.6311	1908.7669	1644.2	760.7
923.77	1910.3957	1634.65	748.85
923.909	1912.0237	1629.95	744
924.0479	1913.651	1629.95	743.8
924.1868	1915.2776	1635.3	748.75
924.3257	1916.9034	1623.6	739.35
924.4646	1918.5285	1616.7	731.1
924.6034	1920.1528	1617.05	730.5
924.7422	1921.7764	1619.85	733.65
924.881	1923.3992	1604.85	720.95
925.0198	1925.0213	1609.6	725.25
925.1586	1926.6427	1614.5	728.85
925.2973	1928.2633	1678.4	722.55
925.436	1929.8832	1607.3	721.75
925.5747	1931.5023	1598.8	713.3
925.7134	1933.1207	1604.35	718.45
925.852	1934.7383	1599.9	713.95
925.9906	1936.3552	1593.35	706.3
926.1292	1937.9714	1601.45	715.8
926.2678	1939.5868	1591.65	705.15
926.4064	1941.2015	1591.05	706.4
926.5449	1942.8154	1587.65	701.4
926.6834	1944.4286	1581.2	695.3
926.8219	1946.041	1608.4	700.15
926.9604	1947.6528	1585.3	694.75
927.0988	1949.2637	1584.45	699.35
927.2372	1950.8739	1573.65	687.75
927.3756	1952.4834	1578.15	691.85
927.514	1954.0921	1578.4	693.4
927.6523	1955.7001	1574.65	685.2
927.7907	1957.3074	1567.45	683
927.929	1958.9139	1566.9	681.75
928.0673	1960.5197	1563.3	676
928.2055	1962.1247	1554.5	669.4
928.3438	1963.729	1554.7	670.95
928.482	1965.3325	1577.4	666.7
928.6202	1966.9353	1552.25	668.3
928.7584	1968.5374	1546.6	659.65
928.8965	1970.1387	1553.7	668.7
929.0346	1971.7393	1550.05	663.85
929.1727	1973.3392	1542.6	658.6
929.3108	1974.9383	1543.45	658.5
929.4489	1976.5366	1547.4	662.75
929.5869	1978.1342	1541.8	655.1
929.7249	1979.7311	1542.1	656.4
929.8629	1981.3273	1529.8	643.65
930.0009	1982.9227	1539.25	651.7
930.1388	1984.5173	1532.85	647.2
930.2767	1986.1112	1529.7	644.9
930.4146	1987.7044	1530.15	645.8
930.5525	1989.2968	1527.15	639.2
930.6904	1990.8885	1536.9	648.5
930.8282	1992.4795	1525.7	636.6
930.966	1994.0697	1524.25	639.1
931.1038	1995.6592	1520.35	635.1
931.2415	1997.2479	1516.65	630.65
931.3793	1998.8359	1518.4	633.3
931.517	2000.4232	1513.5	628.1
931.6547	2002.0097	1507.75	625.2
931.7923	2003.5955	1518.45	632.45
931.93	2005.1805	1511.75	625.7
932.0676	2006.7648	1500.2	615.2
932.2052	2008.3484	1507.95	620.65
932.3427	2009.9312	1499.85	612.15
932.4803	2011.5133	1500.3	615.5
932.6178	2013.0946	1502.4	615.7
932.7553	2014.6752	1497.5	614.95
932.8928	2016.2551	1498.55	613.85
933.0302	2017.8342	1495.95	610.3
933.1676	2019.4126	1493.2	609.45
933.305	2020.9902	1487.4	602.05
933.4424	2022.5672	1490.2	604.45
933.5798	2024.1433	1501.35	610.05
933.7171	2025.7188	1488.2	606.5
933.8544	2027.2935	1484.15	598.05
933.9917	2028.8674	1485	599.6
934.129	2030.4406	1483.85	600.75
934.2662	2032.0131	1476.65	592.3
934.4034	2033.5849	1484.15	595.7
934.5406	2035.1559	1483.05	598.45
934.6778	2036.7261	1482.25	596.6
934.8149	2038.2957	1476.4	592.15
934.952	2039.8645	1469.4	583.4
935.0891	2041.4325	1473.7	587.2
935.2262	2042.9998	1472.7	589.7
935.3632	2044.5664	1476.65	587.7
935.5002	2046.1323	1474.85	588.45
935.6372	2047.6974	1471.8	587.7
935.7742	2049.2617	1465.7	580.9
935.9111	2050.8254	1487.95	581.2
936.048	2052.3883	1468.25	581.65
936.1849	2053.9504	1467.4	583.1
936.3218	2055.5118	1461.55	575.7
936.4586	2057.0725	1459.7	569.4
936.5955	2058.6325	1458.5	575.85
936.7323	2060.1917	1462.95	578.55
936.869	2061.7502	1463	574.95
937.0058	2063.3079	1452.3	568.85
937.1425	2064.8649	1455.45	568
937.2792	2066.4212	1456	569.2
937.4159	2067.9767	1454.95	569.1
937.5525	2069.5315	1449.05	563
937.6891	2071.0856	1446.6	560.45
937.8257	2072.6389	1454.45	566
937.9623	2074.1915	1450.35	567.25
938.0989	2075.7433	1439.4	553.4
938.2354	2077.2945	1444.95	562.45
938.3719	2078.8448	1439.7	557.25
938.5084	2080.3945	1434.8	550.3
938.6448	2081.9434	1444.25	561.25
938.7812	2083.4916	1433.95	546.25
938.9176	2085.039	1434.85	548.2
939.054	2086.5857	1433.5	547.65
939.1903	2088.1317	1431.05	546
939.3267	2089.677	1424.2	539.35
939.463	2091.2215	1425.15	539.7
939.5992	2092.7652	1428.45	540
939.7355	2094.3083	1432.05	547.2
939.8717	2095.8506	1420.5	537.1
940.0079	2097.3921	1428.25	543.6
940.1441	2098.933	1422	536.05
940.2802	2100.4731	1421.6	537
940.4163	2102.0124	1440.2	535.85
940.5524	2103.5511	1419.95	532.95
940.6885	2105.089	1413.95	529.2
940.8245	2106.6261	1421.4	536.15
940.9606	2108.1626	1420.15	534.5
941.0965	2109.6983	1458.55	547.65
941.2325	2111.2332	1422	535.9
941.3684	2112.7675	1422.7	538.4
941.5044	2114.301	1419.45	531.35
941.6403	2115.8337	1410.15	523.55
941.7761	2117.3657	1412.2	527.75
941.912	2118.897	1414.4	527.7
942.0478	2120.4276	1417.45	525.9
942.1835	2121.9575	1412.3	525.95
942.3193	2123.4866	1416.25	518.35
942.455	2125.0149	1406.85	519.35
942.5907	2126.5426	1408.1	524.65
942.7264	2128.0695	1401.45	511.15
942.8621	2129.5956	1406.45	522.75
942.9977	2131.1211	1407.35	516.5
943.1333	2132.6458	1404.4	521.15
943.2689	2134.1698	1417.7	532.65
943.4044	2135.693	1400.85	514.5
943.54	2137.2155	1404.55	517.05
943.6755	2138.7373	1401.45	516.9
943.8109	2140.2584	1398.15	514.25
943.9464	2141.7787	1396.25	506.65
944.0818	2143.2983	1392.85	506.8
944.2172	2144.8171	1391.7	507.1
944.3526	2146.3353	1393.6	506.15
944.4879	2147.8527	1389.3	505.3
944.6232	2149.3693	1386.3	502.1
944.7585	2150.8853	1387.45	500.1
944.8938	2152.4005	1380.2	494.5
945.029	2153.9149	1385.2	496.3
945.1642	2155.4287	1486.75	499.4
945.2994	2156.9417	1388	499.35
945.4346	2158.454	1385.1	497.3
945.5697	2159.9655	1378.5	494.9
945.7048	2161.4764	1379.45	492.8
945.8399	2162.9865	1382.45	498.4
945.9749	2164.4958	1369.1	483.4
946.1099	2166.0045	1378.05	489.15
946.2449	2167.5124	1368.9	483.35
946.3799	2169.0195	1368.55	483.15
946.5148	2170.526	1371.6	485.2
946.6498	2172.0317	1372.4	487.6
946.7846	2173.5367	1368.55	483.15
946.9195	2175.0409	1373.2	489
947.0543	2176.5445	1364.1	481.25
947.1891	2178.0473	1361.9	475.6
947.3239	2179.5494	1367.7	478.45
947.4587	2181.0507	1363.7	479.2
947.5934	2182.5513	1355.8	470.35
947.7281	2184.0512	1360.55	473.5
947.8628	2185.5504	1361.4	477.2
947.9974	2187.0488	1354.55	469.95
948.132	2188.5465	1347.1	461.2
948.2666	2190.0435	1353.6	469.2
948.4012	2191.5397	1342.85	457.3
948.5357	2193.0353	1357.5	473.8
948.6702	2194.5301	1350.1	463.45
948.8047	2196.0241	1349.05	463.25
948.9392	2197.5175	1342.7	458.85
949.0736	2199.0101	1345.45	457.65
949.208	2200.502	1346.35	462.8
949.3424	2201.9931	1342.6	458.05
949.4767	2203.4835	1344.9	459.4
949.611	2204.9733	1359.35	455.95
949.7453	2206.4622	1337.65	451.9
949.8796	2207.9505	1338.75	451.8
950.0138	2209.438	1332.8	447.55
950.148	2210.9248	1337.1	452.85
950.2822	2212.4109	1331.6	446.05
950.4164	2213.8962	1330.45	442.65
950.5505	2215.3809	1321.15	436.45
950.6846	2216.8648	1330.25	444.35
950.8186	2218.3479	1327.1	436.9
950.9527	2219.8304	1327.95	441.3
951.0867	2221.3121	1320.45	433.8
951.2207	2222.7931	1318.55	435.15
951.3546	2224.2733	1321.15	436.6
951.4886	2225.7529	1316.75	429.65
951.6225	2227.2317	1313.65	427.8
951.7563	2228.7098	1316.4	431.1
951.8902	2230.1872	1311	427.9
952.024	2231.6638	1316.7	430.95
952.1578	2233.1397	1307.85	419.4
952.2916	2234.6149	1310.2	425.4
952.4253	2236.0894	1310.55	424.75
952.559	2237.5632	1309.45	421.6
952.6927	2239.0362	1304.05	417.8
952.8263	2240.5085	1307.85	421.1
952.9599	2241.9801	1304.75	418.3
953.0935	2243.4509	1300	416.1
953.2271	2244.921	1306.1	419.95
953.3606	2246.3904	1299.9	412.45
953.4941	2247.8591	1299.8	414.85
953.6276	2249.3271	1299.3	413.35
953.7611	2250.7943	1297.7	412.25
953.8945	2252.2608	1298.8	414.05
954.0279	2253.7266	1298.5	415.1
954.1612	2255.1917	1297.85	410.25
954.2946	2256.656	1291.3	405.15
954.4279	2258.1197	1295.7	411.2
954.5612	2259.5826	1292.35	404.1
954.6944	2261.0447	1284.95	398.75
954.8276	2262.5062	1285.9	398.3
954.9608	2263.9669	1289.25	403.7
955.094	2265.4269	1281.55	397.45
955.2271	2266.8862	1282.35	397.55
955.3602	2268.3448	1280.4	395.1
955.4933	2269.8026	1278.7	392.7
955.6264	2271.2598	1281	396.15
955.7594	2272.7162	1282	398.55
955.8924	2274.1719	1276.95	391.55
956.0253	2275.6268	1275.75	390
956.1583	2277.0811	1276.35	388.6
956.2912	2278.5346	1278.45	392.75
956.4241	2279.9874	1273.9	389.5
956.5569	2281.4395	1272.45	388.9
956.6897	2282.8908	1279.45	391
956.8225	2284.3414	1270	383.8
956.9553	2285.7914	1267.05	382.5
957.088	2287.2406	1271.15	382.45
957.2207	2288.689	1276.85	393.2
957.3534	2290.1368	1265.65	378.3
957.486	2291.5838	1270.45	382.9
957.6186	2293.0302	1272.5	385.65
957.7512	2294.4758	1261.75	376.8
957.8838	2295.9206	1262.55	375.25
958.0163	2297.3648	1257.5	371.15
958.1488	2298.8082	1268.05	381.4
958.2813	2300.251	1261.7	376.2
958.4137	2301.693	1264.65	377.95
958.5461	2303.1343	1254.65	368.7
958.6785	2304.5748	1253.3	368.55
958.8108	2306.0147	1253.95	367.2
958.9432	2307.4538	1258.05	370.75
959.0754	2308.8922	1250.9	366.35
959.2077	2310.3299	1252	365.5
959.3399	2311.7669	1253.95	369.3
959.4721	2313.2031	1251.5	367.2
959.6043	2314.6387	1247.6	364.95
959.7365	2316.0735	1250.7	363.95
959.8686	2317.5076	1248.95	362.05
960.0006	2318.941	1242.8	358.1
960.1327	2320.3737	1246.5	362.25
960.2647	2321.8056	1242.3	351.9
960.3967	2323.2369	1246.55	360.9
960.5287	2324.6674	1247.7	360.85
960.6606	2326.0972	1244	356.75
960.7925	2327.5263	1242.5	354.5
960.9244	2328.9547	1239.75	352.3
961.0562	2330.3823	1246.3	360.7
961.1881	2331.8092	1247.7	359.7
961.3198	2333.2355	1235.3	349.55
961.4516	2334.661	1238.1	352.35
961.5833	2336.0858	1237.3	348.7
961.715	2337.5098	1232.95	349
961.8467	2338.9332	1233.2	345.8
961.9783	2340.3558	1236.1	347.3
962.1099	2341.7778	1232.15	347.4
962.2415	2343.199	1234.75	345.2
962.373	2344.6195	1226.9	341.7
962.5045	2346.0393	1229.85	343.5
962.636	2347.4583	1225.6	339.35
962.7675	2348.8767	1227.05	341.65
962.8989	2350.2943	1227.15	340.5
963.0303	2351.7113	1228.85	342.8
963.1617	2353.1275	1223.6	338.85
963.293	2354.543	1241.55	332.6
963.4243	2355.9578	1219.85	333.35
963.5556	2357.3718	1219.85	332.5
963.6868	2358.7852	1222.1	334.35
963.818	2360.1978	1221.9	335.25
963.9492	2361.6098	1212.45	328.35
964.0803	2363.021	1222.55	333.55
964.2114	2364.4315	1215.45	328.35
964.3425	2365.8413	1217.2	331.25
964.4736	2367.2504	1214.8	327.8
964.6046	2368.6587	1214.1	328
964.7356	2370.0664	1207.65	323.2
964.8666	2371.4733	1205.65	320.1
964.9975	2372.8795	1213.65	328.55
965.1284	2374.285	1206.25	320.3
965.2593	2375.6899	1207.95	322.15
965.3901	2377.0939	1203.5	318.25
965.5209	2378.4973	1203.35	318.85
965.6517	2379.9	1210.5	322
965.7825	2381.3019	1196.65	310.9
965.9132	2382.7032	1199.3	316.6
966.0439	2384.1037	1198.3	312.85
966.1745	2385.5035	1196.7	311.65
966.3051	2386.9027	1200.75	316
966.4357	2388.3011	1199.7	309.8
966.5663	2389.6987	1198.85	312.75
966.6968	2391.0957	1192.25	305.75
966.8273	2392.492	1189.2	304.15
966.9578	2393.8876	1196.7	310.65
967.0882	2395.2824	1192.1	307.25
967.2186	2396.6765	1189.35	303.3
967.349	2398.07	1189.9	306.55
967.4793	2399.4627	1189.9	302.55
967.6097	2400.8547	1188.85	302.25
967.7399	2402.246	1193.05	300.85
967.8702	2403.6366	1185.95	298.7
968.0004	2405.0265	1183	296.3
968.1306	2406.4156	1186.25	295.85
968.2607	2407.8041	1181.05	291.55
968.3909	2409.1918	1180.9	294.75
968.521	2410.5789	1175.55	289.2
968.651	2411.9652	1178.2	289.75
968.781	2413.3508	1171.95	285.85
968.911	2414.7358	1177.6	291.55
969.041	2416.12	1171	286.55
969.1709	2417.5035	1175.6	289.6
969.3008	2418.8863	1174.7	287.85
969.4307	2420.2684	1172.7	287.2
969.5606	2421.6497	1165.3	280.55
969.6904	2423.0304	1165.05	280.3
969.8201	2424.4104	1166.2	279.7
969.9499	2425.7896	1169.05	282.85
970.0796	2427.1682	1168.1	281.6
970.2093	2428.546	1165.9	279.15
970.3389	2429.9232	1167.95	279.7
970.4685	2431.2996	1165	279.15
970.5981	2432.6753	1160.15	273.95
970.7277	2434.0503	1166.1	277.85
970.8572	2435.4246	1159.05	273.8
970.9867	2436.7982	1164.95	277.95
971.1161	2438.1711	1156.55	273
971.2456	2439.5433	1160.75	275.1
971.375	2440.9148	1165.6	275.65
971.5043	2442.2856	1158.9	271.9
971.6336	2443.6557	1158.95	271.3
971.7629	2445.025	1155.25	268.9
971.8922	2446.3937	1158	271
972.0214	2447.7617	1152.3	266.4
972.1506	2449.1289	1148.7	264.3
972.2798	2450.4955	1154.55	266.3
972.4089	2451.8613	1149.45	264.5
972.538	2453.2265	1144.15	258.85
972.6671	2454.5909	1152.05	266.05
972.7961	2455.9546	1152.45	267.45
972.9251	2457.3177	1146.7	260.5
973.0541	2458.68	1150.85	264
973.1831	2460.0416	1148.2	262.35
973.312	2461.4025	1149.8	263.3
973.4408	2462.7627	1155.6	259.45
973.5697	2464.1222	1140.4	254.5
973.6985	2465.4811	1142	253.9
973.8273	2466.8392	1141.1	255.25
973.956	2468.1966	1144.65	257.45
974.0847	2469.5533	1143	253
974.2134	2470.9093	1143.15	255.65
974.3421	2472.2645	1145.95	258.15
974.4707	2473.6191	1137.05	250.45
974.5993	2474.973	1137.5	253
974.7278	2476.3262	1140.95	253.3
974.8563	2477.6787	1135.6	250.35
974.9848	2479.0305	1136.9	251.9
975.1132	2480.3816	1138	251.55
975.2417	2481.7319	1137.4	250.85
975.37	2483.0816	1131.95	244.15
975.4984	2484.4306	1132.85	245.9
975.6267	2485.7789	1132.4	248.3
975.755	2487.1264	1133.15	246
975.8833	2488.4733	1132.75	247.7
976.0115	2489.8195	1133.65	241.35
976.1397	2491.165	1134.6	243.5
976.2678	2492.5097	1127.1	240.3
976.3959	2493.8538	1127.55	243.75
976.524	2495.1972	1126.75	239.85
976.6521	2496.5398	1124.55	238.45
976.7801	2497.8818	1127.8	240.45
976.9081	2499.2231	1122.8	236.45
977.036	2500.5637	1125.4	238.8
977.164	2501.9035	1124.9	238.05
977.2918	2503.2427	1128.55	240.25
977.4197	2504.5812	1120.05	234.05
977.5475	2505.919	1124.05	236.75
977.6753	2507.256	1121.7	236.85
977.8031	2508.5924	1115.8	229.45
977.9308	2509.9281	1123.75	231.85
978.0585	2511.2631	1113.85	227.5
978.1861	2512.5974	1118.35	234.95
978.3137	2513.9309	1116.75	232.15
978.4413	2515.2638	1139.65	231.3
978.5689	2516.596	1110.8	224.55
978.6964	2517.9275	1114.85	228.5
978.8239	2519.2583	1112.95	225.8
978.9513	2520.5884	1115.35	228.05
979.0788	2521.9178	1108.25	222.8
979.2062	2523.2465	1110.8	225
979.3335	2524.5745	1110.45	224.85
979.4608	2525.9018	1107.8	223.4
979.5881	2527.2284	1106.9	222.8
979.7154	2528.5543	1109.15	226.1
979.8426	2529.8796	1101.55	215.05
979.9698	2531.2041	1103.6	217.6
980.0969	2532.5279	1102.65	217.5
980.224	2533.851	1104.4	218.4
980.3511	2535.1735	1100.3	215.45
980.4781	2536.4952	1104.9	219.4
980.6052	2537.8163	1103.95	217.6
980.7321	2539.1366	1101.95	216.2
980.8591	2540.4562	1104	214.8
980.986	2541.7752	1099.7	215.45
981.1129	2543.0935	1103.45	218.25
981.2397	2544.411	1101.75	214.3
981.3665	2545.7279	1097.15	209.2
981.4933	2547.0441	1100.05	214.45
981.62	2548.3596	1102.75	215.25
981.7467	2549.6744	1096.7	209.5
981.8734	2550.9885	1105.6	211.7
982.0001	2552.3019	1097.7	212.3
982.1267	2553.6146	1092.75	206.95
982.2532	2554.9266	1092.1	207.35
982.3798	2556.2379	1098.35	211.85
982.5063	2557.5485	1097.3	212.55
982.6327	2558.8585	1103.95	210.15
982.7592	2560.1677	1099.55	209.95
982.8856	2561.4762	1091.25	206.15
983.0119	2562.7841	1093	206.8
983.1383	2564.0913	1088.35	202.65
983.2646	2565.3977	1094.9	210.75
983.3908	2566.7035	1090.95	205.7
983.517	2568.0086	1090.65	201.8
983.6432	2569.313	1092.85	206.3
983.7694	2570.6167	1092.7	202.8
983.8955	2571.9197	1087.4	203.2
984.0216	2573.222	1092.45	201.9
984.1476	2574.5236	1109	223.2
984.2737	2575.8246	1252.8	363.15
984.3996	2577.1248	1155.55	266.15
984.5256	2578.4244	1098.85	216.7
984.6515	2579.7232	1086.85	201.8
984.7774	2581.0214	1113.9	196.55
984.9032	2582.3189	1083.25	196.1
985.029	2583.6157	1097.4	196.55
985.1548	2584.9118	1083.3	196.9
985.2806	2586.2072	1085.85	200.15
985.4063	2587.5019	1085.25	200.55
985.5319	2588.7959	1083.45	198.5
985.6576	2590.0893	1079.6	189.9
985.7832	2591.3819	1083.65	197.35
985.9087	2592.6739	1079.05	193.65
986.0343	2593.9652	1085.4	199.6
986.1597	2595.2557	1079.65	194.95
986.2852	2596.5456	1080.1	193.15
986.4106	2597.8348	1081.45	200.1
986.536	2599.1234	1081.65	195.95
986.6614	2600.4112	1081.3	197.05
986.7867	2601.6983	1079.5	190.35
986.912	2602.9848	1084.55	197.9
987.0372	2604.2705	1086.45	193.4
987.1624	2605.5556	1077.6	191.35
987.2876	2606.84	1077.55	191.6
987.4128	2608.1237	1079.55	195
987.5379	2609.4067	1078.85	191.5
987.6629	2610.689	1081.65	186
987.788	2611.9707	1076.95	187.45
987.913	2613.2516	1076.85	185.7
988.0379	2614.5319	1071.55	186.05
988.1629	2615.8115	1072.55	186.35
988.2878	2617.0903	1072.35	184.1
988.4126	2618.3685	1066.2	180.1
988.5375	2619.6461	1071.1	185.55
988.6622	2620.9229	1065.35	181.85
988.787	2622.199	1070.15	182.55
988.9117	2623.4745	1070	182.95
989.0364	2624.7493	1071.2	186.75
989.161	2626.0234	1071.35	188.5
989.2857	2627.2968	1066.45	181.05
989.4102	2628.5695	1062.45	175.65
989.5348	2629.8415	1064.1	178.85
989.6593	2631.1128	1062.7	175.4
989.7837	2632.3835	1064.55	178
989.9082	2633.6535	1060.9	175.8
990.0326	2634.9228	1058.55	173.65
990.1569	2636.1914	1056.8	171.7
990.2812	2637.4593	1068.15	175.85
990.4055	2638.7265	1064.3	178.1
990.5298	2639.9931	1057.55	171.8
990.654	2641.259	1063.4	177.95
990.7782	2642.5242	1058.1	170.75
990.9023	2643.7887	1055.6	170.5
991.0264	2645.0525	1054.1	166.8
991.1505	2646.3156	1068.4	168.5
991.2745	2647.5781	1051.05	166.25
991.3985	2648.8398	1053.8	168.9
991.5225	2650.1009	1064.1	171.65
991.6464	2651.3613	1050.8	164.8
991.7703	2652.6211	1053.9	168.35
991.8942	2653.8801	1050.65	167.7
992.018	2655.1385	1048.25	159
992.1418	2656.3961	1048	162.2
992.2655	2657.6531	1053.4	167.95
992.3892	2658.9094	1045.75	159.5
992.5129	2660.1651	1047.65	162
992.6366	2661.42	1051.15	166.3
992.7602	2662.6743	1046.55	158.3
992.8837	2663.9279	1049.5	163.75
993.0073	2665.1808	1047.4	162.3
993.1307	2666.433	1045.9	157.25
993.2542	2667.6846	1046.1	160.4
993.3776	2668.9354	1050.9	161.15
993.501	2670.1856	1050.4	163.85
993.6244	2671.4351	1047.3	161.65
993.7477	2672.6839	1051	165
993.8709	2673.9321	1047.7	164.05
993.9942	2675.1795	1047.9	161.65
994.1174	2676.4263	1048.7	163.45
994.2405	2677.6724	1045.85	162.6
994.3637	2678.9179	1045.55	159.6
994.4868	2680.1626	1047.3	162.4
994.6098	2681.4067	1042.2	157.3
994.7328	2682.6501	1045.6	159.1
994.8558	2683.8928	1044.25	157.15
994.9788	2685.1348	1045.1	159.8
995.1017	2686.3761	1040.1	153.7
995.2245	2687.6168	1044.15	159.35
995.3474	2688.8568	1036.7	149.7
995.4702	2690.0961	1039.1	154.85
995.5929	2691.3348	1036.6	149.75
995.7156	2692.5727	1037.8	152.3
995.8383	2693.81	1035.6	149.9
995.961	2695.0466	1035.55	152.9
996.0836	2696.2826	1033.65	144.6
996.2062	2697.5178	1034.3	147.2
996.3287	2698.7524	1032.85	147.2
996.4512	2699.9863	1034.65	147.55
996.5737	2701.2195	1035.5	149.85
996.6961	2702.452	1036.9	149.6
996.8185	2703.6839	1037.35	151.85
996.9408	2704.9151	1033.25	146.5
997.0631	2706.1456	1032.3	147.3
997.1854	2707.3755	1036.9	150.55
997.3077	2708.6046	1034.65	144.35
997.4299	2709.8331	1034.85	148.25
997.552	2711.0609	1039.5	151.35
997.6742	2712.2881	1031.6	144.55
997.7963	2713.5145	1040.9	153.7
997.9183	2714.7403	1033.45	149.45
998.0403	2715.9654	1034.15	148.8
998.1623	2717.1899	1050.65	148.9
998.2842	2718.4136	1035.25	149.25
998.4062	2719.6367	1037.5	152.45
998.528	2720.8591	1044.5	151.25
998.6498	2722.0809	1034	148.1
998.7716	2723.3019	1041.35	152.8
998.8934	2724.5223	1033	144.3
999.0151	2725.7421	1040.65	153
999.1368	2726.9611	1040.8	152.15
999.2584	2728.1795	1041.2	152.65
999.38	2729.3972	1035.3	149.1
999.5016	2730.6142	1043.45	144.65
999.6231	2731.8306	1029.9	142.55
999.7446	2733.0462	1030.95	141.85
999.8661	2734.2612	1035.85	146.55
999.9875	2735.4756	1024.45	136.45
1000.1089	2736.6892	1021.85	135.9
1000.2302	2737.9022	1024.4	140.6
1000.3515	2739.1145	1021.3	135.1
1000.4728	2740.3262	1030.3	137.65
1000.594	2741.5372	1021.2	134.95
1000.7152	2742.7475	1020.85	132.9
1000.8363	2743.9571	1025.15	137.45
1000.9575	2745.1661	1019.5	129.2
1001.0785	2746.3744	1016.05	129.1
1001.1996	2747.582	1014.45	130
1001.3206	2748.7889	1014.4	127.1
1001.4415	2749.9952	1011.45	127.25
1001.5625	2751.2008	1013.3	124.65
1001.6833	2752.4057	1015.25	127.8
1001.8042	2753.61	1010.8	123.25
1001.925	2754.8136	1013.3	126.75
1002.0458	2756.0165	1011.2	125.05
1002.1665	2757.2188	1008.6	124.15
1002.2872	2758.4204	1011.6	127.1
1002.4078	2759.6213	1013.95	127.5
1002.5285	2760.8215	1010.5	120.25
1002.649	2762.0211	1010.8	124.25
1002.7696	2763.22	1012.7	121.8
1002.8901	2764.4182	1007.75	120.45
1003.0106	2765.6158	1009.1	122.45
1003.131	2766.8127	1006.7	120.9
1003.2514	2768.009	1006.3	123.55
1003.3717	2769.2045	1006.8	120.85
1003.492	2770.3994	1008.2	119.65
1003.6123	2771.5936	1007.05	121.8
1003.7325	2772.7872	999.9	117.35
1003.8527	2773.9801	1005.7	118.65
1003.9729	2775.1723	1020.95	115.15
1004.093	2776.3639	1001.9	117.1
1004.2131	2777.5548	1003.5	115.15
1004.3331	2778.745	1000.5	113.6
1004.4531	2779.9346	998.5	114.35
1004.5731	2781.1235	1002.1	116.25
1004.693	2782.3117	998.85	114.65
1004.8129	2783.4992	998.65	113.05
1004.9328	2784.6861	999.4	113.45
1005.0526	2785.8723	1001.45	113.6
1005.1723	2787.0579	999.9	113.25
1005.2921	2788.2428	998.1	111.25
1005.4118	2789.427	996.1	111.6
1005.5314	2790.6106	998.85	113.95
1005.651	2791.7935	995.65	109.1
1005.7706	2792.9757	994.5	110.5
1005.8902	2794.1573	999.05	111.75
1006.0097	2795.3382	998.8	111
1006.1291	2796.5184	995.8	110.35
1006.2485	2797.698	1000.6	112.1
1006.3679	2798.8769	998.65	112.55
1006.4873	2800.0551	996.55	110.55
1006.6066	2801.2327	999.3	110.55
1006.7258	2802.4096	1000.65	113.85
1006.8451	2803.5859	1000.45	115.3
1006.9642	2804.7615	1001.55	114.75
1007.0834	2805.9364	999.3	115.15
1007.2025	2807.1106	999.75	113.9
1007.3216	2808.2842	1000.1	115
1007.4406	2809.4572	1002.5	117.55
1007.5596	2810.6294	1000	114.45
1007.6785	2811.801	1003	118.9
1007.7975	2812.972	1003.7	118.6
1007.9163	2814.1423	1007.95	123.35
1008.0352	2815.3119	1007.55	122.5
1008.154	2816.4808	1011.2	127.35
1008.2727	2817.6491	1016.55	131.15
1008.3914	2818.8167	1017.25	131.55
1008.5101	2819.9837	1024.2	131.2
1008.6288	2821.15	1028.6	142.2
1008.7474	2822.3157	1029.85	145.15
1008.8659	2823.4807	1037.2	149.25
1008.9844	2824.645	1048.75	162.7
1009.1029	2825.8086	1053.1	167.95
1009.2214	2826.9716	1061.75	176.95
1009.3398	2828.134	1073.75	188.4
1009.4581	2829.2957	1080.5	194.5
1009.5764	2830.4567	1087.4	204.2
1009.6947	2831.617	1093.65	208.75
1009.813	2832.7767	1092.25	208.7
1009.9312	2833.9358	1093.4	209.45
1010.0493	2835.0941	1096.15	208
1010.1675	2836.2519	1088.95	204.4
1010.2855	2837.4089	1087.65	201.85
1010.4036	2838.5653	1081.6	196.55
1010.5216	2839.7211	1075.55	189.5
1010.6396	2840.8761	1077.65	190.95
1010.7575	2842.0306	1070	185.65
1010.8754	2843.1843	1068.95	184.3
1010.9932	2844.3374	1076.35	191.6
1011.111	2845.4899	1076.35	190.95
1011.2288	2846.6417	1074.7	189.55
1011.3465	2847.7928	1079	194.5
1011.4642	2848.9433	1081.25	194.4
1011.5818	2850.0931	1077.85	194.1
1011.6995	2851.2422	1084.65	195.65
1011.817	2852.3907	1083.45	196.95
1011.9345	2853.5385	1083.15	195.85
1012.052	2854.6857	1091.7	197.15
1012.1695	2855.8323	1083.7	200.15
1012.2869	2856.9781	1084.1	200.7
1012.4042	2858.1233	1090.2	203.55
1012.5216	2859.2679	1090.5	206.35
1012.6389	2860.4118	1098.5	212.25
1012.7561	2861.555	1099.85	209.15
1012.8733	2862.6976	1107.9	220.4
1012.9905	2863.8395	1106.35	221.2
1013.1076	2864.9808	1110.2	226.4
1013.2247	2866.1214	1109.3	225.8
1013.3417	2867.2614	1112.9	228.1
1013.4587	2868.4007	1115.7	229.5
1013.5757	2869.5393	1122.55	233.7
1013.6926	2870.6773	1127.6	238.95
1013.8095	2871.8146	1125.25	235.9
1013.9263	2872.9513	1131.75	243.1
1014.0431	2874.0874	1130.9	247.05
1014.1599	2875.2227	1126	239.05
1014.2766	2876.3574	1129.55	243.65
1014.3933	2877.4915	1130.8	247
1014.51	2878.6249	1131.3	247.5
1014.6266	2879.7577	1138.3	252.5
1014.7431	2880.8898	1153.35	256.35
1014.8596	2882.0212	1141.65	257.3
1014.9761	2883.152	1143.65	257.85
1015.0925	2884.2821	1147.45	263.65
1015.2089	2885.4116	1147.6	262.15
1015.3253	2886.5405	1154.2	268.55
1015.4416	2887.6686	1154.25	266
1015.5579	2888.7962	1150.75	266.6
1015.6741	2889.923	1156.25	270.05
1015.7903	2891.0493	1153.2	268.45
1015.9065	2892.1748	1149.4	262.05
1016.0226	2893.2997	1150.9	266.4
1016.1387	2894.424	1149.9	265.25
1016.2547	2895.5476	1149.6	262.95
1016.3707	2896.6706	1145.45	262
1016.4866	2897.7929	1151.6	266.1
1016.6025	2898.9145	1155.65	269.25
1016.7184	2900.0355	1147.1	259.6
1016.8342	2901.1559	1149.4	261.85
1016.95	2902.2756	1149.55	260.7
1017.0658	2903.3946	1144.3	258.3
1017.1815	2904.513	1147.4	258
1017.2971	2905.6308	1141.8	256.65
1017.4127	2906.7479	1143.25	256.35
1017.5283	2907.8643	1139.3	252.9
1017.6439	2908.9801	1138.05	253.4
1017.7594	2910.0953	1140.7	255.8
1017.8748	2911.2098	1144.25	257.2
1017.9902	2912.3236	1147.9	253.3
1018.1056	2913.4368	1140.05	250.05
1018.2209	2914.5494	1135.15	248.45
1018.3362	2915.6613	1139.65	247
1018.4515	2916.7725	1133.2	243.3
1018.5667	2917.8831	1128.8	241.05
1018.6819	2918.9931	1125.3	237.85
1018.797	2920.1024	1122.45	235.85
1018.9121	2921.211	1119.35	233.85
1019.0271	2922.319	1112.15	225.85
1019.1421	2923.4264	1121.45	234.9
1019.2571	2924.5331	1109.4	225.2
1019.372	2925.6391	1112.95	227.7
1019.4869	2926.7445	1111	225.5
1019.6017	2927.8493	1110.55	226.05
1019.7165	2928.9534	1111.45	224.5
1019.8313	2930.0569	1117.25	229.25
1019.946	2931.1597	1121.2	234.7
1020.0606	2932.2619	1116.05	231.95
1020.1753	2933.3634	1117.75	234.5
1020.2899	2934.4643	1124.85	231.65
1020.4044	2935.5645	1125.25	233.45
1020.5189	2936.6641	1130	240.05
1020.6334	2937.763	1121.7	237.2
1020.7478	2938.8613	1124.9	237.6
1020.8622	2939.959	1122.05	231.55
1020.9765	2941.056	1116.85	232.4
1021.0908	2942.1523	1117.7	230.85
1021.2051	2943.248	1105.35	219.05
1021.3193	2944.3431	1090.15	204.55
1021.4334	2945.4375	1087.8	201.9
1021.5476	2946.5313	1078.4	194.8
1021.6617	2947.6244	1069.1	183.75
1021.7757	2948.7169	1060.55	173.75
1021.8897	2949.8087	1053.7	168.2
1022.0037	2950.8999	1049.7	164.7
1022.1176	2951.9904	1036.65	151.3
1022.2315	2953.0803	1039.85	154.9
1022.3453	2954.1696	1026.35	139.55
1022.4591	2955.2582	1023.3	139.95
1022.5728	2956.3462	1024.05	137.95
1022.6865	2957.4335	1021.65	136.3
1022.8002	2958.5202	1021.7	136.1
1022.9138	2959.6062	1020.75	134.8
1023.0274	2960.6916	1022	137.1
1023.141	2961.7764	1018.55	133.75
1023.2545	2962.8605	1019.95	132.85
1023.3679	2963.9439	1018.7	134.3
1023.4813	2965.0267	1018.5	130.4
1023.5947	2966.1089	1040.05	130.15
1023.708	2967.1905	1014.95	129.75
1023.8213	2968.2714	1017.5	133.55
1023.9346	2969.3516	1011.85	130
1024.0478	2970.4312	1020.75	125.6
1024.1609	2971.5102	1009.85	124.25
1024.274	2972.5885	1010.9	126.55
1024.3871	2973.6662	1019.3	128.5
1024.5002	2974.7432	1010.3	125.25
1024.6132	2975.8196	1012.55	128.2
1024.7261	2976.8954	1014.75	129.35
1024.839	2977.9705	1010.5	124.55
1024.9519	2979.045	1012.1	127
1025.0647	2980.1188	1008.5	125.15
1025.1775	2981.192	1007.8	124.65
1025.2902	2982.2645	1010.75	124
1025.4029	2983.3364	1006.5	120.35
1025.5156	2984.4077	1002.35	117.8
1025.6282	2985.4783	1007.8	117.4
1025.7407	2986.5483	998.9	114.2
1025.8532	2987.6177	995.45	110.95
1025.9657	2988.6864	992.75	107.55
1026.0782	2989.7545	992.4	105.65
1026.1906	2990.8219	991.1	105.95
1026.3029	2991.8887	987.95	100.4
1026.4152	2992.9548	983.9	97.1
1026.5275	2994.0204	977.2	94.85
1026.6397	2995.0852	979.2	95.55
1026.7519	2996.1495	973.5	87.75
1026.864	2997.2131	971.6	86.05
1026.9761	2998.276	966.9	82.5
1027.0882	2999.3383	968.65	82.05
1027.2002	3000.4	965.15	77.2
1027.3122	3001.4611	958.3	71.15
1027.4241	3002.5215	956.95	70.4
1027.536	3003.5812	957.45	70.8
1027.6478	3004.6404	955.4	70.7
1027.7596	3005.6989	955.6	69.65
1027.8714	3006.7567	953.35	66.3
1027.9831	3007.8139	972.5	66.2
1028.0947	3008.8705	953.15	67.65
1028.2064	3009.9264	950.95	61.05
1028.3179	3010.9818	950.05	62.8
1028.4295	3012.0364	948.95	63.8
1028.541	3013.0905	946.8	61.3
1028.6524	3014.1439	948.25	63.75
1028.7638	3015.1966	943.45	60.6
1028.8752	3016.2487	944.45	59.95
1028.9865	3017.3002	947.95	58
1029.0978	3018.3511	945.3	60
1029.209	3019.4013	942.25	56.85
1029.3202	3020.4509	942.45	57.15
1029.4314	3021.4998	944.25	58.45
1029.5425	3022.5481	943.4	57.9
1029.6535	3023.5958	940.4	55.6
1029.7645	3024.6428	942.7	57.6
1029.8755	3025.6892	942.15	56.85
1029.9864	3026.735	940.9	55.65
1030.0973	3027.7802	941.25	55.95
1030.2082	3028.8247	943.15	57.45
1030.319	3029.8685	943.2	58.25
1030.4297	3030.9118	943.15	57.05
1030.5404	3031.9544	942.25	57.45
1030.6511	3032.9963	940.7	55.35
1030.7617	3034.0376	939.1	55.35
1030.8723	3035.0783	945	57.7
1030.9829	3036.1184	941.35	56.1
1031.0934	3037.1578	942.9	57.8
1031.2038	3038.1966	941.9	54.75
1031.3142	3039.2348	940.95	58
1031.4246	3040.2723	950.2	54.5
1031.5349	3041.3092	941.15	57.2
1031.6452	3042.3455	940.7	55.6
1031.7554	3043.3811	941.55	55.8
1031.8656	3044.4161	939.1	54.65
1031.9758	3045.4505	937.95	55.35
1032.0859	3046.4842	939.7	54.05
1032.1959	3047.5173	938.4	54.6
1032.3059	3048.5498	940	54.85
1032.4159	3049.5816	941.15	57.25
1032.5258	3050.6128	941.55	54.95
1032.6357	3051.6434	940.85	52.4
1032.7455	3052.6734	943.35	57.05
1032.8553	3053.7027	938.8	52.9
1032.9651	3054.7314	940.55	54.7
1033.0748	3055.7594	938.7	54.45
1033.1845	3056.7868	943.2	57.45
1033.2941	3057.8136	938.8	54.2
1033.4037	3058.8398	938.7	54.35
1033.5132	3059.8653	939.6	54.3
1033.6227	3060.8902	940.05	54.95
1033.7321	3061.9145	942.7	56.45
1033.8415	3062.9381	941.1	57.25
1033.9509	3063.9612	954.7	52.2
1034.0602	3064.9835	942.1	58.3
1034.1694	3066.0053	941.8	53.35
1034.2787	3067.0264	942.15	57.5
1034.3878	3068.0469	941.5	55.55
1034.497	3069.0668	945.3	57.8
1034.6061	3070.086	938.2	55.95
1034.7151	3071.1046	940.2	54.2
1034.8241	3072.1226	941.4	54.3
1034.9331	3073.1399	938.2	53.55
1035.042	3074.1567	935.85	47.1
1035.1508	3075.1727	942.5	55.15
1035.2597	3076.1882	941.5	56.15
1035.3684	3077.203	939.2	54.9
1035.4772	3078.2173	936.5	49.1
1035.5859	3079.2308	939.25	53
1035.6945	3080.2438	937.6	51.7
1035.8031	3081.2561	932.2	48
1035.9117	3082.2678	930.3	44.5
1036.0202	3083.2789	932.85	48.65
1036.1286	3084.2893	933.6	49.9
1036.2371	3085.2991	929.85	44.6
1036.3454	3086.3083	933.55	42.9
1036.4538	3087.3169	929.5	42.65
1036.562	3088.3248	934.75	49.75
1036.6703	3089.3321	931.35	44.55
1036.7785	3090.3388	929.05	45.1
1036.8866	3091.3449	927.3	42.25
1036.9948	3092.3503	929.35	40.9
1037.1028	3093.3551	927.4	44
1037.2108	3094.3593	925.85	40.9
1037.3188	3095.3629	925.7	39.65
1037.4267	3096.3658	927.15	41.75
1037.5346	3097.3681	927.7	45
1037.6425	3098.3698	927.35	39.3
1037.7503	3099.3708	932.7	42.05
1037.858	3100.3713	921.2	35
1037.9657	3101.3711	925.55	39.4
1038.0734	3102.3702	1057.4	31.4
1038.181	3103.3688	925.45	36.15
1038.2886	3104.3667	923	38.75
1038.3961	3105.364	920.95	36.9
1038.5036	3106.3607	923.5	38.1
1038.611	3107.3568	923.7	38.3
1038.7184	3108.3522	922.4	38.6
1038.8257	3109.347	923.4	38.25
1038.933	3110.3412	924.95	34.6
1039.0403	3111.3348	920.75	33.85
1039.1475	3112.3277	920.9	35.85
1039.2547	3113.32	919.3	34.55
1039.3618	3114.3117	919.8	32.75
1039.4689	3115.3028	918.8	34.8
1039.5759	3116.2932	921.1	34.3
1039.6829	3117.2831	926.4	34.55
1039.7898	3118.2723	920.55	34.7
1039.8967	3119.2608	919.05	35.9
1040.0035	3120.2488	918.1	33.1
1040.1103	3121.2361	919	33.35
1040.2171	3122.2229	921.25	36.45
1040.3238	3123.209	917.5	31.15
1040.4305	3124.1944	916.25	30.45
1040.5371	3125.1793	918.5	31.35
1040.6437	3126.1635	916.95	33.15
1040.7502	3127.1471	916.7	33.3
1040.8567	3128.1301	916.75	32.35
1040.9631	3129.1125	916.65	32.35
1041.0695	3130.0942	918.9	33.9
1041.1759	3131.0753	922.95	29.35
1041.2822	3132.0558	919.35	31.3
1041.3884	3133.0357	917.3	30.65
1041.4946	3134.015	916.95	30.8
1041.6008	3134.9936	917.75	29
1041.7069	3135.9716	933.85	29.2
1041.813	3136.949	916.15	29.9
1041.919	3137.9258	936	33.25
1042.025	3138.902	918.65	28.85
1042.1309	3139.8775	913.1	27.4
1042.2368	3140.8524	915.25	30.3
1042.3427	3141.8267	916.2	28.4
1042.4485	3142.8004	915.65	33.2
1042.5542	3143.7735	919.45	28.1
1042.6599	3144.7459	916	29.35
1042.7656	3145.7178	914.65	27.95
1042.8712	3146.689	912.4	27.2
1042.9768	3147.6596	914.45	28.1
1043.0823	3148.6295	914.05	26.85
1043.1878	3149.5989	914.55	29.7
1043.2932	3150.5676	911.65	27.95
1043.3986	3151.5357	912.75	28.75
1043.5039	3152.5032	913.15	29.75
1043.6092	3153.4701	912.45	28.55
1043.7145	3154.4364	914.7	28.1
1043.8197	3155.402	910.25	25.3
1043.9248	3156.367	913.45	26.7
1044.03	3157.3315	948.75	28.7
1044.135	3158.2952	912.95	25.9
1044.24	3159.2584	913.4	27.15
1044.345	3160.221	910.5	23.85
1044.4499	3161.1829	913.35	27.85
1044.5548	3162.1442	910.6	24.65
1044.6596	3163.105	908.85	25.15
1044.7644	3164.065	910	24.8
1044.8692	3165.0245	913.25	23.9
1044.9739	3165.9834	908.55	24.55
1045.0785	3166.9416	912.85	27.35
1045.1831	3167.8993	912.95	27.25
1045.2877	3168.8563	911	24.25
1045.3922	3169.8127	909.3	26
1045.4966	3170.7684	910.25	24.4
1045.6011	3171.7236	911.65	26.1
1045.7054	3172.6782	909.1	22.85
1045.8098	3173.6321	910.5	24.4
1045.914	3174.5854	913.35	24
1046.0183	3175.5381	911.7	27.65
1046.1224	3176.4902	909.3	25.85
1046.2266	3177.4417	909	25.3
1046.3307	3178.3926	909.9	26.05
1046.4347	3179.3428	909.05	25.4
1046.5387	3180.2924	907.7	21.5
1046.6427	3181.2415	909.75	22.55
1046.7466	3182.1899	911	24.25
1046.8504	3183.1377	910.8	27.5
1046.9542	3184.0848	910.1	23.25
1047.058	3185.0314	908.8	22.75
1047.1617	3185.9773	907.7	20.95
1047.2654	3186.9227	906.25	19.35
1047.369	3187.8674	908.25	24.05
1047.4726	3188.8115	909.9	21.5
1047.5761	3189.755	907.85	22.7
1047.6796	3190.6979	908.85	22.85
1047.783	3191.6402	907.05	25.15
1047.8864	3192.5818	905	20.6
1047.9898	3193.5229	913.25	22.35
1048.0931	3194.4633	905.7	19.2
1048.1963	3195.4031	906.9	21.95
1048.2995	3196.3423	907.65	23.1
1048.4027	3197.2809	907.1	22.25
1048.5058	3198.2189	906	19.9
1048.6089	3199.1563	924.5	23.05
1048.7119	3200.0931	903.2	18.45
1048.8148	3201.0292	904.7	21.15
1048.9178	3201.9648	905	18.9
1049.0206	3202.8997	906.7	19.35
1049.1235	3203.834	905.1	20.25
1049.2262	3204.7677	907.35	22.4
1049.329	3205.7008	906.5	19
1049.4317	3206.6333	902.7	19.1
1049.5343	3207.5652	906.5	17.35
1049.6369	3208.4964	905	19.1
1049.7394	3209.4271	903.55	18.95
1049.8419	3210.3571	903.95	19.15
1049.9444	3211.2865	903.55	18.35
1050.0468	3212.2154	904.85	18.25
1050.1491	3213.1436	908.05	22.95
1050.2514	3214.0712	911.65	20
1050.3537	3214.9982	902.75	17.35
1050.4559	3215.9246	903.1	17.4
1050.5581	3216.8503	902.25	17.85
1050.6602	3217.7755	903.85	18.2
1050.7623	3218.7001	903.75	20.1
1050.8643	3219.624	906.75	21.95
1050.9663	3220.5473	904.1	20.25
1051.0682	3221.4701	905.95	18.3
1051.1701	3222.3922	906.4	19.9
1051.2719	3223.3137	902.95	17.7
1051.3737	3224.2346	903.2	18.05
1051.4754	3225.1549	903	17.6
1051.5771	3226.0746	901.4	15.7
1051.6788	3226.9937	902.05	16.7
1051.7804	3227.9121	901.4	18.1
1051.8819	3228.83	902.8	19.95
1051.9834	3229.7473	903.05	18.3
1052.0849	3230.6639	904.45	18.95
1052.1863	3231.5799	903.25	17.65
1052.2876	3232.4954	904.95	19.25
1052.3889	3233.4102	902.3	15.8
1052.4902	3234.3244	901.8	15.25
1052.5914	3235.238	898.75	13.5
1052.6926	3236.151	916.35	17.55
1052.7937	3237.0634	899.2	15.5
1052.8948	3237.9752	902.35	17.95
1052.9958	3238.8864	902.25	17.1
1053.0968	3239.797	901.8	16.55
1053.1977	3240.7069	901.65	16.2
1053.2986	3241.6163	903.9	16.85
1053.3994	3242.5251	901.4	16.75
1053.5002	3243.4332	900.2	15.5
1053.6009	3244.3408	898.4	12.95
1053.7016	3245.2477	901.5	16.45
1053.8022	3246.154	900.8	14.7
1053.9028	3247.0598	899.25	11.7
1054.0034	3247.9649	900.75	15.65
1054.1039	3248.8694	900.1	15.4
1054.2043	3249.7733	900.55	16.05
1054.3047	3250.6766	900.3	12.85
1054.4051	3251.5793	901.65	13.4
1054.5054	3252.4814	900.15	15.25
1054.6056	3253.3829	899	14.55
1054.7058	3254.2838	899.85	14.45
1054.806	3255.1841	901.2	16.35
1054.9061	3256.0838	899.8	14.05
1055.0061	3256.9829	899.2	16.2
1055.1062	3257.8814	901.6	15.3
1055.2061	3258.7792	902.85	15.6
1055.306	3259.6765	899.2	10.9
1055.4059	3260.5731	897.55	12.75
1055.5057	3261.4692	898.25	11.9
1055.6055	3262.3647	896.2	11.35
1055.7052	3263.2595	899.3	14.3
1055.8049	3264.1538	896.85	10.7
1055.9045	3265.0474	898.05	10.65
1056.0041	3265.9404	898.2	11.85
1056.1036	3266.8329	894.6	10.4
1056.2031	3267.7247	908.65	11.35
1056.3025	3268.616	896	12.1
1056.4019	3269.5066	896.9	12
1056.5013	3270.3966	897.6	9.3
1056.6005	3271.286	892.5	8.65
