Software Version:	3.9.2.0
Unit SN:	10000200
Spectrometer SN:	6960
Date:	3/26/2024 1:04:29 PM
Data Line Index:	25
Spectral Points:	2048
Integration time (ms):	125
Averages:	20
Delay (ms):	30000
Sequence Number:	1
Processing:	dark subtract
Laser Power (mW):	305
Laser Current (mA):	817
Laser Diode Temp (C):	25
Laser Case Temp (C):	25.9
System Temp (C):	25.8
Spectrometer Temp (C):	23.5
CCD Temp (C):	0.009
Secondary Temp (C):	20.008
Heatsink Temp (C):	21.655
CCDPCB Temp (C):	36.24
SecondaryPCB Temp (C):	30.104

Wavelength	RamanShift	Raw Counts	Dark Subtracted
787.061	30.1047	422.85	10.65
787.2016	32.3739	423.8	13.45
787.3422	34.6426	426.4	16.35
787.4828	36.9109	426.75	12.8
787.6235	39.1787	434.85	18.8
787.7642	41.4461	437.35	15.45
787.9049	43.7131	441.25	15.35
788.0456	45.9796	445.25	18.2
788.1863	48.2456	452.2	19.25
788.3271	50.5112	459.25	23.25
788.4679	52.7764	461.35	23.6
788.6087	55.0411	464.7	24.15
788.7496	57.3054	472.65	24.8
788.8904	59.5692	475.15	26
789.0313	61.8326	481.25	28.65
789.1722	64.0955	487.05	30.35
789.3132	66.3579	497.35	35.85
789.4541	68.6199	502.3	40.45
789.5951	70.8815	513.55	47
789.7361	73.1426	536.3	67.25
789.8771	75.4032	586.55	113.05
790.0181	77.6634	699.05	217.45
790.1592	79.9231	969.4	487.5
790.3003	82.1824	1532.35	1046.55
790.4414	84.4412	2472.5	1979.55
790.5825	86.6995	3745.5	3243
790.7237	88.9574	5038.25	4530.3
790.8648	91.2148	5952.3	5439.3
791.006	93.4717	6448.1	5933.45
791.1472	95.7282	6627.85	6107.15
791.2885	97.9842	6695.3	6173.55
791.4297	100.2398	6680.65	6156.25
791.571	102.4949	6660.15	6131.75
791.7123	104.7495	6629.3	6096.6
791.8536	107.0036	6600.3	6066.05
791.9949	109.2573	6530.05	5998
792.1363	111.5105	6476	5941.25
792.2777	113.7632	6417.9	5882.45
792.4191	116.0154	6378.35	5830.4
792.5605	118.2672	6316.25	5775.35
792.7019	120.5185	6254.15	5710.75
792.8434	122.7693	6198.75	5655.3
792.9849	125.0197	6115.8	5569.9
793.1264	127.2696	6070.15	5517.95
793.2679	129.519	6042.55	5488.3
793.4094	131.7679	6030.1	5474.95
793.551	134.0163	6011.75	5449.85
793.6926	136.2642	6001.55	5438
793.8342	138.5117	6021.3	5447.7
793.9758	140.7587	5975.2	5405.2
794.1175	143.0052	5945.3	5373.05
794.2591	145.2512	5903.65	5331.55
794.4008	147.4967	5850.85	5277.3
794.5425	149.7417	5818.65	5245.45
794.6842	151.9863	5789.3	5211.15
794.826	154.2304	5784.6	5201.35
794.9677	156.4739	5745.25	5160.25
795.1095	158.717	5771.45	5185.85
795.2513	160.9596	5755.3	5162.35
795.3931	163.2017	5777.55	5183.95
795.535	165.4433	5793.7	5197.1
795.6768	167.6844	5778.45	5182.7
795.8187	169.925	5754.6	5152.45
795.9606	172.1651	5704.4	5099.95
796.1025	174.4047	5673.1	5062.85
796.2445	176.6439	5628.4	5018.7
796.3864	178.8825	5588.65	4976
796.5284	181.1206	5585.25	4968.8
796.6704	183.3582	5574.8	4953.05
796.8124	185.5954	5577.55	4956.15
796.9544	187.832	5551.9	4925.5
797.0965	190.0681	5545.85	4916.4
797.2386	192.3037	5561.35	4930.95
797.3806	194.5388	5554.75	4920.45
797.5228	196.7734	5558	4921.4
797.6649	199.0075	5565.8	4924.35
797.807	201.2411	5604.85	4960.95
797.9492	203.4742	5603.75	4960.45
798.0914	205.7068	5619.25	4973.9
798.2336	207.9389	5621.2	4976.5
798.3758	210.1704	5658.05	5010.2
798.518	212.4015	5645.5	4994.6
798.6603	214.632	5636.65	4987.15
798.8025	216.862	5628.45	4988.9
798.9448	219.0915	5625.35	4988.9
799.0871	221.3205	5618.6	4984.65
799.2294	223.549	5617	4986.75
799.3718	225.777	5615.7	4986.05
799.5141	228.0044	5608.8	4973.7
799.6565	230.2314	5609.1	4975.95
799.7989	232.4578	5588.6	4953.8
799.9413	234.6837	5592.75	4950.95
800.0837	236.909	5588.55	4946.85
800.2262	239.1339	5567.55	4900.25
800.3687	241.3582	5569.2	4917.05
800.5111	243.582	5567.85	4884.45
800.6536	245.8053	5559.35	4889.65
800.7961	248.0281	5557.65	4889.45
800.9387	250.2503	5561.55	4889.75
801.0812	252.472	5558.4	4880.05
801.2238	254.6932	5570.5	4889.95
801.3664	256.9139	5539.65	4856.5
801.509	259.134	5565.75	4881.75
801.6516	261.3536	5562.35	4880.6
801.7942	263.5727	5594.95	4909.55
801.9369	265.7912	5591.1	4906.4
802.0795	268.0092	5664.15	4979.1
802.2222	270.2267	5665.45	4980.7
802.3649	272.4436	5691.5	5002.5
802.5076	274.6601	5711.6	5016.3
802.6504	276.8759	5711.05	5020.95
802.7931	279.0913	5744.9	5052.65
802.9359	281.3061	5734.45	5039.95
803.0787	283.5204	5757.3	5058.6
803.2215	285.7341	5780.8	5080.55
803.3643	287.9473	5811.8	5099.35
803.5071	290.16	5805.8	5098.6
803.6499	292.3721	5770.45	5068.6
803.7928	294.5837	5728.65	5028
803.9357	296.7947	5689.1	4987.2
804.0786	299.0052	5659.9	4957.9
804.2215	301.2152	5630.8	4924.35
804.3644	303.4246	5629.1	4927.05
804.5074	305.6334	5620.1	4919.15
804.6503	307.8418	5615.4	4909.65
804.7933	310.0495	5588.05	4881.1
804.9363	312.2568	5558.45	4851.85
805.0793	314.4635	5519.75	4809.1
805.2223	316.6696	5474.75	4761.1
805.3653	318.8752	5421.05	4700.1
805.5084	321.0802	5374.8	4663.6
805.6514	323.2847	5370.65	4656.65
805.7945	325.4887	5349.5	4632.15
805.9376	327.692	5379.35	4659.95
806.0807	329.8949	5392.25	4674.3
806.2238	332.0972	5419.4	4700.65
806.367	334.2989	5466.9	4742.85
806.5101	336.5001	5459.45	4735.15
806.6533	338.7007	5435.65	4712.1
806.7965	340.9008	5403.05	4678.15
806.9397	343.1003	5347.85	4620.25
807.0829	345.2992	5310.65	4583.3
807.2261	347.4976	5279.7	4547.8
807.3693	349.6955	5238.9	4506.05
807.5126	351.8927	5240.8	4506.3
807.6559	354.0895	5218.7	4472.85
807.7991	356.2856	5185.9	4448.95
807.9424	358.4812	5170.7	4434
808.0857	360.6763	5171.6	4434.35
808.2291	362.8707	5151.95	4411.1
808.3724	365.0646	5156.7	4413
808.5158	367.258	5160.45	4415.9
808.6591	369.4508	5152.3	4405.6
808.8025	371.643	5184.2	4437.3
808.9459	373.8346	5187.15	4437.8
809.0893	376.0257	5225.45	4472.3
809.2327	378.2162	5255.75	4501.65
809.3762	380.4062	5269.4	4511.05
809.5196	382.5956	5231.3	4474.2
809.6631	384.7844	5190.25	4432.85
809.8066	386.9726	5135.85	4379.1
809.9501	389.1603	5101.7	4346
810.0936	391.3474	5114.7	4317.35
810.2371	393.5339	5069.05	4313.55
810.3806	395.7199	5063.25	4311.85
810.5241	397.9052	5071.7	4323.8
810.6677	400.09	5086.7	4336.7
810.8113	402.2743	5137.05	4390.75
810.9548	404.4579	5132.25	4383
811.0984	406.641	5178.65	4427.65
811.2421	408.8235	5198.3	4446.8
811.3857	411.0054	5244.55	4490.35
811.5293	413.1868	5345.15	4589.8
811.673	415.3675	5471.9	4713
811.8166	417.5477	5511.7	4750.8
811.9603	419.7273	5430.1	4666.7
812.104	421.9064	5274.6	4506.55
812.2477	424.0848	5191.3	4423.8
812.3914	426.2627	5119.25	4350.2
812.5351	428.4399	5077.3	4308
812.6788	430.6166	5045.8	4272.3
812.8226	432.7928	4995.65	4221.65
812.9663	434.9683	4945.2	4171.65
813.1101	437.1432	4910.6	4132.15
813.2539	439.3176	4875.25	4099
813.3977	441.4914	4875.85	4099.5
813.5415	443.6645	4869.35	4090.2
813.6853	445.8371	4850	4069.15
813.8291	448.0091	4832.35	4053.9
813.973	450.1806	4826.2	4047.4
814.1168	452.3514	4806.65	4023.3
814.2607	454.5216	4820.65	4030.4
814.4046	456.6913	4779.15	3994.55
814.5485	458.8603	4790.75	4006.45
814.6924	461.0288	4815.75	4033.2
814.8363	463.1967	4780.55	3995
814.9802	465.3639	4780.05	3994.3
815.1241	467.5306	4768.25	3983.5
815.2681	469.6967	4752.85	3968.95
815.412	471.8622	4737.25	3951.8
815.556	474.0271	4743.85	3956.8
815.7	476.1914	4735.85	3946.25
815.844	478.3551	4748.6	3959.7
815.988	480.5182	4744.35	3957.8
816.132	482.6807	4734.25	3945.45
816.276	484.8426	4765.8	3976.75
816.4201	487.0039	4791.8	4001.8
816.5641	489.1647	4823.6	4030.6
816.7082	491.3248	4869.45	4078.85
816.8522	493.4843	4867.05	4075.25
816.9963	495.6432	4854.05	4060.15
817.1404	497.8015	4847.35	4049.95
817.2845	499.9592	4813.1	4019.35
817.4286	502.1163	4765.7	3970.5
817.5727	504.2728	4719.5	3924.6
817.7168	506.4287	4723.5	3929.3
817.861	508.5839	4682.05	3883.45
818.0051	510.7386	4684.7	3889.6
818.1493	512.8927	4683.25	3878.9
818.2935	515.0461	4674.55	3875.45
818.4377	517.199	4689.15	3891.25
818.5818	519.3512	4727.65	3929.8
818.726	521.5029	4775.3	3970.95
818.8703	523.6539	4809.75	4009.3
819.0145	525.8043	4822.7	4023.35
819.1587	527.9541	4791	3986.75
819.303	530.1033	4735.8	3931.35
819.4472	532.2519	4702.95	3898.85
819.5915	534.3999	4686.7	3879
819.7357	536.5472	4667.1	3862
819.88	538.694	4664.8	3861.35
820.0243	540.8401	4691.1	3881.45
820.1686	542.9856	4695.1	3888.7
820.3129	545.1305	4700.45	3893.25
820.4572	547.2748	4707.6	3899.9
820.6016	549.4185	4712.45	3901.5
820.7459	551.5615	4714.5	3903
820.8902	553.704	4742.35	3931.15
821.0346	555.8458	4759.55	3948.2
821.1789	557.987	4756.3	3948.6
821.3233	560.1276	4762.65	3952.45
821.4677	562.2675	4822.7	4013.45
821.6121	564.4069	4859.95	4050.55
821.7565	566.5456	4906.8	4097.4
821.9009	568.6837	4896.9	4085.8
822.0453	570.8212	4827	4016.1
822.1897	572.958	4775.3	3961.05
822.3342	575.0942	4753.7	3942.6
822.4786	577.2299	4730.8	3917.7
822.6231	579.3648	4676.55	3862.4
822.7675	581.4992	4637.2	3824.45
822.912	583.6329	4623.5	3811.1
823.0565	585.766	4634.35	3820.7
823.201	587.8985	4658	3843.6
823.3454	590.0304	4696.6	3869.35
823.4899	592.1616	4708.85	3888.25
823.6345	594.2922	4728.15	3909.55
823.779	596.4222	4698.2	3878.8
823.9235	598.5515	4649.4	3831.1
824.068	600.6802	4609.45	3789.2
824.2126	602.8083	4537.35	3717.7
824.3571	604.9358	4533.2	3712.1
824.5017	607.0626	4516.35	3694.85
824.6462	609.1888	4519.05	3698.4
824.7908	611.3144	4534.7	3710.95
824.9354	613.4393	4553.95	3732.15
825.08	615.5636	4592	3767.25
825.2246	617.6873	4642.2	3818.2
825.3692	619.8103	4684.8	3860.6
825.5138	621.9327	4680	3853
825.6584	624.0544	4664.45	3842.3
825.803	626.1756	4621.6	3797.55
825.9477	628.2961	4571.65	3745.3
826.0923	630.4159	4537.65	3711.1
826.237	632.5351	4540.85	3715.1
826.3816	634.6537	4531.65	3704.6
826.5263	636.7716	4512.4	3684.1
826.6709	638.8889	4510.45	3680.65
826.8156	641.0056	4535.15	3707.55
826.9603	643.1216	4510.6	3680.45
827.105	645.237	4539.65	3708.5
827.2497	647.3518	4521.35	3691.3
827.3944	649.4659	4504.45	3674.4
827.5391	651.5793	4479.7	3649.05
827.6838	653.6922	4460	3632.1
827.8285	655.8043	4457.75	3628.3
827.9733	657.9159	4433.1	3601.4
828.118	660.0268	4412.7	3577.3
828.2627	662.137	4412.75	3578.85
828.4075	664.2466	4437.4	3600.65
828.5522	666.3556	4421.25	3588.1
828.697	668.4639	4419.05	3583.9
828.8418	670.5716	4398.4	3567.05
828.9865	672.6786	4389.65	3555.5
829.1313	674.785	4395.55	3557.95
829.2761	676.8907	4370.25	3535.45
829.4209	678.9958	4377.75	3541.95
829.5657	681.1002	4379.55	3543.15
829.7105	683.204	4372.55	3533.6
829.8553	685.3072	4382.7	3543.3
830.0001	687.4097	4370.15	3534.4
830.1449	689.5115	4377.6	3539.75
830.2898	691.6127	4363	3526.3
830.4346	693.7132	4361.05	3523.45
830.5794	695.8131	4368.5	3514.1
830.7243	697.9123	4368.55	3528.9
830.8691	700.0109	4368.6	3529.75
831.014	702.1089	4376.1	3536.3
831.1588	704.2061	4382.75	3544.1
831.3037	706.3028	4381.8	3538.8
831.4486	708.3987	4385.65	3542.9
831.5935	710.4941	4409.5	3568.55
831.7383	712.5887	4412.45	3572.25
831.8832	714.6827	4413.7	3567.05
832.0281	716.7761	4407.75	3564.2
832.173	718.8688	4412.7	3569.7
832.3179	720.9608	4407.9	3562.4
832.4628	723.0522	4407.1	3562.7
832.6077	725.1429	4428.95	3586.35
832.7527	727.233	4440.5	3597.3
832.8976	729.3224	4486.6	3644.85
833.0425	731.4112	4524	3678
833.1874	733.4993	4553	3705.95
833.3324	735.5867	4519.9	3670.95
833.4773	737.6735	4464.2	3618.55
833.6222	739.7596	4424.8	3579.45
833.7672	741.845	4394.55	3547.4
833.9122	743.9298	4380.45	3530.65
834.0571	746.014	4401.9	3556.6
834.2021	748.0974	4422.45	3574.55
834.347	750.1802	4439.05	3590.2
834.492	752.2624	4402.25	3556.05
834.637	754.3439	4381.85	3532.95
834.782	756.4247	4353	3493.05
834.9269	758.5048	4335.2	3488.45
835.0719	760.5843	4320.3	3469.85
835.2169	762.6631	4328.25	3477.85
835.3619	764.7413	4359.75	3510.45
835.5069	766.8188	4405.55	3554.05
835.6519	768.8956	4457.35	3604.25
835.7969	770.9718	4509.6	3660.7
835.9419	773.0473	4492	3642.9
836.0869	775.1221	4470.6	3621.05
836.232	777.1962	4445	3593.05
836.377	779.2697	4472.3	3620.5
836.522	781.3426	4571.85	3700.6
836.667	783.4147	4614.75	3760.45
836.8121	785.4862	4621.75	3769.75
836.9571	787.557	4554.1	3699.4
837.1021	789.6271	4449.15	3596.3
837.2472	791.6966	4355.9	3503.4
837.3922	793.7654	4251.05	3397.5
837.5373	795.8335	4214.95	3362.25
837.6823	797.901	4177.6	3324.1
837.8274	799.9678	4169.4	3313.4
837.9724	802.0339	4140.9	3286.45
838.1175	804.0993	4170.7	3306.7
838.2626	806.1641	4159.5	3302.2
838.4076	808.2282	4142.7	3289.05
838.5527	810.2916	4117.9	3258.85
838.6978	812.3544	4101.75	3247.75
838.8428	814.4164	4092.9	3239.55
838.9879	816.4778	4104.65	3249.85
839.133	818.5385	4090.4	3234.35
839.2781	820.5986	4109.15	3254.2
839.4232	822.658	4165.6	3308.35
839.5682	824.7166	4173.35	3317.2
839.7133	826.7747	4241.6	3386.4
839.8584	828.832	4308.9	3453.55
840.0035	830.8886	4350.55	3490.9
840.1486	832.9446	4383	3525.2
840.2937	834.9999	4345.35	3488.95
840.4388	837.0545	4300.3	3438.8
840.5839	839.1085	4214.3	3355.9
840.729	841.1618	4155.9	3295.15
840.8741	843.2143	4121.3	3264.2
841.0192	845.2662	4069.05	3210.65
841.1643	847.3175	4049.35	3193.2
841.3095	849.368	4030.45	3171.35
841.4546	851.4179	4031.8	3173.15
841.5997	853.467	4010.6	3152.85
841.7448	855.5155	4021.15	3162
841.8899	857.5633	4010.15	3150.25
842.0351	859.6105	4008.9	3148.95
842.1802	861.6569	3990.2	3129.95
842.3253	863.7027	3972.3	3112.15
842.4704	865.7478	3965.65	3104.55
842.6156	867.7922	3963.4	3102.1
842.7607	869.8359	3937.85	3076.05
842.9058	871.8789	3928.15	3064.05
843.0509	873.9212	3959.85	3068.65
843.1961	875.9629	3919.15	3059.85
843.3412	878.0039	3931.4	3067.6
843.4863	880.0441	3927.65	3066
843.6315	882.0837	3954.3	3093.8
843.7766	884.1226	3939.5	3074
843.9218	886.1609	3981.35	3119.15
844.0669	888.1984	4018.1	3154.65
844.212	890.2352	4045.6	3184.9
844.3572	892.2714	4040.25	3172.9
844.5023	894.3069	4030.05	3166.05
844.6475	896.3416	3992.75	3128.45
844.7926	898.3757	3955.2	3092.55
844.9377	900.4091	3921.7	3057.4
845.0829	902.4418	3910.8	3043
845.228	904.4739	3930.5	3063.25
845.3732	906.5052	3952.8	3088.5
845.5183	908.5358	3934.3	3071
845.6635	910.5658	3924.85	3057.6
845.8086	912.595	3902.05	3037.6
845.9538	914.6236	3850.4	2986.75
846.0989	916.6515	3822.65	2957.55
846.2441	918.6786	3793.3	2926.85
846.3892	920.7051	3791.55	2923.75
846.5344	922.7309	3785.55	2921.6
846.6795	924.756	3783.5	2916.95
846.8246	926.7804	3773.9	2906.2
846.9698	928.8041	3755.95	2888.15
847.1149	930.8272	3794.95	2928.55
847.2601	932.8495	3770.25	2904.4
847.4052	934.8711	3779.8	2912.3
847.5504	936.892	3765.7	2898.15
847.6955	938.9123	3770.65	2903.05
847.8407	940.9318	3797.15	2929.55
847.9858	942.9506	3799.8	2931.25
848.131	944.9688	3788.9	2920.75
848.2761	946.9862	3769.45	2901.25
848.4213	949.003	3740.2	2873.35
848.5664	951.019	3712.7	2844.05
848.7115	953.0344	3672.5	2807.05
848.8567	955.0491	3661.45	2792.85
849.0018	957.063	3657.75	2789.7
849.147	959.0763	3658.95	2785.1
849.2921	961.0888	3642.05	2772.45
849.4373	963.1007	3636.95	2768.55
849.5824	965.1119	3617.4	2749.1
849.7275	967.1223	3609.7	2743.9
849.8727	969.1321	3606.5	2737.55
850.0178	971.1412	3586.8	2718.35
850.1629	973.1495	3587.75	2717.85
850.3081	975.1572	3613.05	2710.6
850.4532	977.1641	3589.7	2720.3
850.5983	979.1704	3575.65	2706.25
850.7435	981.1759	3573.35	2699.45
850.8886	983.1808	3558.65	2687.7
851.0337	985.1849	3537.5	2655.25
851.1788	987.1884	3524.25	2651.7
851.324	989.1911	3534.8	2662.6
851.4691	991.1932	3527.7	2657
851.6142	993.1945	3516.45	2645.7
851.7593	995.1951	3506.9	2635.35
851.9045	997.1951	3501.35	2624.25
852.0496	999.1943	3498.65	2629.85
852.1947	1001.1928	3477.15	2603.5
852.3398	1003.1906	3480.3	2608.15
852.4849	1005.1877	3497.75	2625.3
852.63	1007.1841	3501.25	2628.55
852.7751	1009.1798	3515.8	2643.95
852.9202	1011.1748	3488.75	2617.7
853.0653	1013.1691	3464.25	2590.95
853.2104	1015.1627	3426.85	2553.65
853.3555	1017.1556	3396.05	2522.6
853.5006	1019.1477	3368.45	2496.15
853.6457	1021.1392	3337.2	2467.3
853.7908	1023.1299	3317.9	2445.9
853.9359	1025.12	3307.55	2434.45
854.081	1027.1093	3310.4	2441.75
854.2261	1029.0979	3317.05	2447.35
854.3712	1031.0859	3323.75	2454.45
854.5163	1033.0731	3326.05	2453.5
854.6613	1035.0596	3329.95	2458.5
854.8064	1037.0454	3309.5	2436.6
854.9515	1039.0304	3296.25	2423.4
855.0965	1041.0148	3262.1	2389
855.2416	1042.9985	3259.5	2383.65
855.3867	1044.9814	3234.65	2361.7
855.5317	1046.9636	3212.55	2337.2
855.6768	1048.9452	3211	2337.95
855.8219	1050.926	3220.4	2350
855.9669	1052.9061	3221.3	2347.35
856.112	1054.8855	3224.1	2349.45
856.257	1056.8642	3220.45	2346.4
856.4021	1058.8421	3223.45	2346
856.5471	1060.8194	3206.1	2331.1
856.6921	1062.7959	3193.3	2317.65
856.8372	1064.7717	3190.55	2314.9
856.9822	1066.7469	3188	2311.45
857.1272	1068.7213	3182.9	2303.65
857.2723	1070.695	3170.85	2297.65
857.4173	1072.6679	3174.6	2299.55
857.5623	1074.6402	3208.2	2331.25
857.7073	1076.6117	3212	2331.45
857.8523	1078.5826	3195.05	2317.55
857.9973	1080.5527	3169.9	2290.4
858.1423	1082.5221	3132	2254.85
858.2873	1084.4908	3099.7	2223.5
858.4323	1086.4587	3079.45	2201.55
858.5773	1088.426	3063.55	2186
858.7223	1090.3925	3062.45	2181.05
858.8673	1092.3584	3061	2186.2
859.0123	1094.3235	3046.8	2170.3
859.1573	1096.2879	3052.55	2174.1
859.3022	1098.2515	3061.7	2185.3
859.4472	1100.2145	3077.4	2201.65
859.5922	1102.1767	3098.5	2221.4
859.7371	1104.1382	3118.25	2239.75
859.8821	1106.099	3159.65	2281.55
860.027	1108.0591	3195.9	2320.65
860.172	1110.0185	3210.2	2330.9
860.3169	1111.9771	3242.5	2364.9
860.4619	1113.9351	3273.55	2395.95
860.6068	1115.8923	3334.35	2456.2
860.7517	1117.8488	3375.05	2494.95
860.8967	1119.8045	3337.75	2460.1
861.0416	1121.7596	3254.8	2376.55
861.1865	1123.7139	3153.5	2275.7
861.3314	1125.6675	3089.8	2212
861.4763	1127.6204	3080.4	2202.25
861.6212	1129.5726	3095.95	2217.65
861.7661	1131.524	3098.4	2222.75
861.911	1133.4748	3068.3	2189.75
862.0559	1135.4248	3009.1	2129.95
862.2008	1137.3741	2969.75	2093.55
862.3457	1139.3226	2925.95	2044.85
862.4905	1141.2705	2920.95	2043.2
862.6354	1143.2176	2921.05	2035.75
862.7803	1145.164	2914	2033.85
862.9251	1147.1097	2920.6	2041.15
863.07	1149.0546	2902.65	2024.05
863.2148	1150.9989	2879.25	1997.75
863.3597	1152.9424	2865.35	1986.7
863.5045	1154.8852	2838.35	1959.2
863.6493	1156.8272	2843.3	1964.5
863.7942	1158.7686	2840.1	1953.25
863.939	1160.7092	2831.35	1952.35
864.0838	1162.6491	2811.05	1929.65
864.2286	1164.5883	2818.7	1943.4
864.3734	1166.5267	2833.7	1952.85
864.5182	1168.4644	2848.9	1969.9
864.663	1170.4014	2870.45	1985.35
864.8078	1172.3377	2888.8	2010.25
864.9526	1174.2732	2917.45	2038.55
865.0974	1176.2081	2985.8	2106.3
865.2421	1178.1421	3058.95	2174.2
865.3869	1180.0755	3165.65	2286.25
865.5317	1182.0082	3231.4	2351.5
865.6764	1183.9401	3235.3	2354.9
865.8212	1185.8713	3162.5	2281
865.9659	1187.8017	3059.9	2179.85
866.1106	1189.7315	2966.7	2089.05
866.2554	1191.6605	2883.45	2004.5
866.4001	1193.5888	2837.55	1958.05
866.5448	1195.5163	2800.95	1923.55
866.6895	1197.4432	2782.35	1903
866.8342	1199.3693	2753.9	1871.3
866.9789	1201.2947	2733.25	1851.05
867.1236	1203.2193	2719.4	1841.3
867.2683	1205.1432	2707.9	1826.5
867.413	1207.0664	2706.2	1826
867.5576	1208.9889	2696.8	1812.35
867.7023	1210.9106	2675.3	1794.5
867.847	1212.8316	2683.05	1801.8
867.9916	1214.7519	2701.05	1812.8
868.1363	1216.6715	2692.65	1813.15
868.2809	1218.5903	2704.75	1823.65
868.4255	1220.5084	2697.2	1815.9
868.5701	1222.4257	2711.35	1830.4
868.7148	1224.3424	2715.3	1836.05
868.8594	1226.2583	2726.3	1839.05
869.004	1228.1735	2744.1	1863.15
869.1486	1230.0879	2750.7	1870
869.2932	1232.0016	2779.1	1898.3
869.4377	1233.9146	2809.35	1926.5
869.5823	1235.8269	2817.5	1936.65
869.7269	1237.7384	2818.75	1937.95
869.8715	1239.6492	2798.35	1917
870.016	1241.5592	2802.5	1918.45
870.1606	1243.4686	2829.75	1949.4
870.3051	1245.3772	2881.7	2002.45
870.4496	1247.285	2942.55	2060.9
870.5941	1249.1922	2999.4	2117.45
870.7387	1251.0986	3063.8	2183.65
870.8832	1253.0042	3115.45	2233.65
871.0277	1254.9092	3169.95	2286.45
871.1722	1256.8134	3251.2	2370.6
871.3167	1258.7169	3324.6	2441.3
871.4611	1260.6196	3386.55	2507.35
871.6056	1262.5216	3426.85	2544.2
871.7501	1264.4229	3414.2	2533.4
871.8945	1266.3234	3389.4	2507.65
872.039	1268.2232	3340.1	2459.3
872.1834	1270.1223	3285.45	2402.75
872.3278	1272.0207	3241.15	2356.8
872.4723	1273.9183	3233.7	2346
872.6167	1275.8151	3213.15	2333.45
872.7611	1277.7113	3234.3	2351.9
872.9055	1279.6067	3295.05	2413.8
873.0499	1281.5014	3397.3	2511.8
873.1943	1283.3953	3537.45	2651.35
873.3386	1285.2885	3708.15	2824.45
873.483	1287.181	3853.65	2970.8
873.6274	1289.0727	3926.35	3046.85
873.7717	1290.9637	3879.2	2997.2
873.9161	1292.854	3791.4	2909.1
874.0604	1294.7435	3675.25	2791.2
874.2047	1296.6323	3552.55	2667.6
874.349	1298.5204	3464.05	2575.55
874.4933	1300.4077	3367.5	2483.95
874.6376	1302.2943	3321.15	2439.3
874.7819	1304.1802	3297.9	2414.7
874.9262	1306.0653	3258.05	2372.95
875.0705	1307.9497	3226.45	2343.1
875.2147	1309.8333	3204.15	2322.55
875.359	1311.7162	3185.35	2300.3
875.5032	1313.5984	3161.05	2274.3
875.6475	1315.4798	3151.75	2251.3
875.7917	1317.3605	3139.75	2250.3
875.9359	1319.2405	3157.45	2271.65
876.0801	1321.1197	3147.8	2260.7
876.2243	1322.9982	3115.6	2228.6
876.3685	1324.876	3078.1	2194.65
876.5127	1326.753	2990.8	2106.55
876.6569	1328.6293	2939.5	2053
876.801	1330.5048	2843.25	1957.3
876.9452	1332.3796	2784.9	1902.45
877.0893	1334.2537	2732.95	1825.5
877.2335	1336.127	2673.35	1790.4
877.3776	1337.9996	2642.7	1759.05
877.5217	1339.8714	2616.15	1733.55
877.6658	1341.7426	2642.25	1715.65
877.8099	1343.6129	2588.35	1702.95
877.954	1345.4826	2568.85	1684.9
878.0981	1347.3515	2557.5	1669.55
878.2422	1349.2196	2536.55	1652.1
878.3862	1351.087	2538.6	1656.15
878.5303	1352.9537	2532.2	1647
878.6743	1354.8197	2539.55	1655
878.8184	1356.6849	2535.8	1651.45
878.9624	1358.5493	2536.05	1651.6
879.1064	1360.4131	2551.55	1667.65
879.2504	1362.276	2563.35	1679.5
879.3944	1364.1383	2605	1720.85
879.5384	1365.9998	2626	1737.9
879.6823	1367.8606	2600.45	1716.95
879.8263	1369.7206	2593.4	1710.5
879.9702	1371.5799	2590.9	1703.65
880.1142	1373.4384	2579.9	1696.95
880.2581	1375.2962	2566.15	1682.25
880.402	1377.1533	2519.9	1635.9
880.5459	1379.0096	2474.4	1590.1
880.6898	1380.8652	2453.05	1569.65
880.8337	1382.7201	2406.5	1520.6
880.9776	1384.5742	2391.8	1507.5
881.1215	1386.4275	2369.05	1480.95
881.2653	1388.2802	2347.05	1463.2
881.4092	1390.132	2333.6	1447.7
881.553	1391.9832	2323.15	1436.05
881.6968	1393.8336	2315.5	1430.45
881.8406	1395.6832	2319.4	1433.5
881.9844	1397.5322	2297.55	1414
882.1282	1399.3803	2293.85	1405.5
882.272	1401.2278	2277.15	1393.15
882.4158	1403.0745	2259	1374.65
882.5595	1404.9204	2255.35	1371.05
882.7033	1406.7656	2246.05	1359.8
882.847	1408.6101	2240.9	1355.05
882.9908	1410.4538	2226.5	1340.65
883.1345	1412.2968	2220.8	1336.8
883.2782	1414.139	2218.75	1333.15
883.4219	1415.9805	2222.6	1338.7
883.5656	1417.8213	2241.4	1337.35
883.7092	1419.6613	2236.45	1351.15
883.8529	1421.5006	2256.45	1370.15
883.9965	1423.3391	2283.6	1398.75
884.1402	1425.1769	2318.75	1434.45
884.2838	1427.0139	2380.05	1494.95
884.4274	1428.8502	2443.1	1556.5
884.571	1430.6858	2500.7	1615.6
884.7146	1432.5206	2519.2	1634.6
884.8582	1434.3547	2524.8	1640.45
885.0018	1436.188	2504.75	1620.8
885.1453	1438.0206	2486	1600.35
885.2889	1439.8524	2470.45	1582.8
885.4324	1441.6835	2470.45	1584.8
885.5759	1443.5139	2476.6	1587.5
885.7194	1445.3435	2467.8	1582.15
885.8629	1447.1724	2467.25	1581.65
886.0064	1449.0005	2463	1576.75
886.1499	1450.8279	2462.35	1575.35
886.2933	1452.6545	2453.55	1568.5
886.4368	1454.4804	2443.55	1559.85
886.5802	1456.3056	2436.9	1543.35
886.7237	1458.13	2417	1532.6
886.8671	1459.9536	2398.9	1515.2
887.0105	1461.7766	2374.7	1491.3
887.1539	1463.5987	2342.35	1456.45
887.2972	1465.4202	2304.35	1419.1
887.4406	1467.2409	2271.15	1385.35
887.584	1469.0608	2242.7	1357.7
887.7273	1470.88	2213.4	1326.8
887.8706	1472.6984	2191.35	1305.7
888.0139	1474.5161	2179.65	1292.1
888.1572	1476.3331	2156	1270.3
888.3005	1478.1493	2144.45	1258.25
888.4438	1479.9648	2141.55	1258.25
888.5871	1481.7795	2131.85	1246.8
888.7303	1483.5935	2137.45	1252.3
888.8736	1485.4067	2141.8	1255.95
889.0168	1487.2192	2134.4	1248.7
889.16	1489.031	2134.85	1246.5
889.3032	1490.842	2127.45	1241.05
889.4464	1492.6522	2134.45	1251.3
889.5896	1494.4618	2124.8	1237.8
889.7327	1496.2705	2117.8	1233.55
889.8759	1498.0785	2122.35	1236.9
890.019	1499.8858	2111.05	1225.65
890.1622	1501.6924	2091.8	1207.3
890.3053	1503.4981	2095.35	1207.9
890.4484	1505.3032	2088.95	1204
890.5914	1507.1075	2082.85	1195.7
890.7345	1508.911	2071.1	1185.3
890.8776	1510.7138	2063.5	1177.8
891.0206	1512.5159	2052.4	1166.3
891.1637	1514.3172	2060.35	1173.45
891.3067	1516.1178	2054.75	1170.35
891.4497	1517.9176	2038.05	1149.6
891.5927	1519.7166	2019.65	1136.9
891.7357	1521.515	2031.2	1140
891.8786	1523.3126	2020.25	1132.8
892.0216	1525.1094	2005.3	1117.4
892.1645	1526.9055	1996.1	1109.75
892.3074	1528.7008	1991.6	1107.7
892.4503	1530.4954	1988	1100.35
892.5932	1532.2893	1973.15	1088.3
892.7361	1534.0824	1982.65	1091.6
892.879	1535.8747	1968.75	1082.75
893.0218	1537.6663	1960	1073.6
893.1647	1539.4572	1967.7	1081.7
893.3075	1541.2473	1958.9	1072.15
893.4503	1543.0367	1953.9	1067.05
893.5931	1544.8253	1952.7	1061.35
893.7359	1546.6132	1961.15	1071.8
893.8787	1548.4003	1963.15	1067.55
894.0214	1550.1867	1967.15	1073.4
894.1642	1551.9723	1962.2	1070.65
894.3069	1553.7572	1980.65	1094.4
894.4496	1555.5414	1981.55	1097.5
894.5923	1557.3247	1994.7	1108.9
894.735	1559.1074	2018.85	1133.6
894.8777	1560.8893	2050.95	1167.15
895.0204	1562.6705	2075.75	1189.55
895.163	1564.4509	2111.35	1226
895.3056	1566.2305	2106.2	1221.2
895.4482	1568.0094	2121.55	1234.55
895.5908	1569.7876	2118.05	1232.75
895.7334	1571.565	2117.25	1229.35
895.876	1573.3417	2115.25	1230.7
896.0186	1575.1176	2108.7	1222.75
896.1611	1576.8928	2130.05	1244.6
896.3036	1578.6672	2129.45	1244.3
896.4461	1580.4409	2163.75	1279.45
896.5886	1582.2138	2177.9	1292.2
896.7311	1583.986	2220.25	1333.15
896.8736	1585.7575	2265.6	1380.5
897.0161	1587.5282	2297.45	1412.85
897.1585	1589.2981	2310.05	1425.65
897.3009	1591.0673	2311.85	1427.6
897.4433	1592.8358	2332.4	1446.05
897.5857	1594.6035	2336.9	1448.9
897.7281	1596.3704	2310.8	1423.5
897.8705	1598.1366	2292.15	1407.65
898.0128	1599.9021	2255.35	1371.6
898.1551	1601.6668	2238.35	1352.65
898.2975	1603.4308	2211.2	1324.05
898.4398	1605.194	2204.2	1313.7
898.5821	1606.9564	2222.85	1336.95
898.7243	1608.7182	2261.75	1371.85
898.8666	1610.4791	2326.75	1442.65
899.0088	1612.2394	2417.9	1533.9
899.1511	1613.9988	2501.1	1616.8
899.2933	1615.7576	2596.85	1711.65
899.4355	1617.5156	2647	1754.75
899.5776	1619.2728	2637.3	1751
899.7198	1621.0293	2564.25	1679.05
899.862	1622.785	2466.5	1581.85
900.0041	1624.54	2344.25	1458.35
900.1462	1626.2942	2234.55	1347.1
900.2883	1628.0477	2142.45	1254.35
900.4304	1629.8005	2064.7	1177.65
900.5725	1631.5525	1992.7	1108.2
900.7145	1633.3037	1941.25	1055.8
900.8566	1635.0542	1902.3	1017.35
900.9986	1636.804	1872.25	988.35
901.1406	1638.553	1898.05	964.35
901.2826	1640.3013	1831.3	945.55
901.4245	1642.0488	1806	920.45
901.5665	1643.7955	1793.15	909.7
901.7085	1645.5416	1773.5	888.55
901.8504	1647.2868	1767.35	880.45
901.9923	1649.0313	1763.65	877
902.1342	1650.7751	1755.9	868.35
902.2761	1652.5181	1746.1	861.65
902.4179	1654.2604	1742.8	854.75
902.5598	1656.0019	1747	863.2
902.7016	1657.7427	1752.6	866.5
902.8434	1659.4828	1765.6	880.7
902.9852	1661.222	1780.5	894.65
903.127	1662.9606	1821.45	933.85
903.2687	1664.6984	1838.9	953.3
903.4105	1666.4354	1867.4	980.25
903.5522	1668.1717	1854.55	968
903.6939	1669.9072	1823	937.3
903.8356	1671.642	1777.8	891.3
903.9773	1673.3761	1736.8	853.15
904.119	1675.1094	1708.8	822.55
904.2606	1676.8419	1686.45	799.25
904.4022	1678.5737	1667.75	781.45
904.5439	1680.3048	1655.1	767.95
904.6855	1682.0351	1644.05	759.4
904.827	1683.7646	1647.8	759.15
904.9686	1685.4934	1630	745.35
905.1101	1687.2215	1626.65	741.05
905.2517	1688.9488	1617.55	732.95
905.3932	1690.6754	1610.75	725.25
905.5347	1692.4012	1604.35	718.85
905.6761	1694.1263	1602.4	715.6
905.8176	1695.8506	1595.8	709.85
905.9591	1697.5742	1596.3	711.3
906.1005	1699.297	1586.75	703.15
906.2419	1701.0191	1591.05	705.15
906.3833	1702.7404	1578.65	694.35
906.5246	1704.461	1577.35	690.1
906.666	1706.1808	1578.35	689.75
906.8073	1707.8999	1576.5	688.3
906.9487	1709.6182	1568.95	685.25
907.09	1711.3358	1570.8	686
907.2313	1713.0527	1567.85	683.15
907.3725	1714.7688	1569.55	678.75
907.5138	1716.4841	1557.45	670.4
907.655	1718.1987	1557.95	667
907.7962	1719.9126	1555.25	671.7
907.9374	1721.6257	1553.2	665.15
908.0786	1723.338	1551.3	665.5
908.2198	1725.0496	1550.7	664.05
908.3609	1726.7605	1536.75	651.7
908.502	1728.4706	1543.85	657.45
908.6431	1730.18	1534.05	645.35
908.7842	1731.8886	1537.4	652
908.9253	1733.5964	1543.3	651.55
909.0664	1735.3036	1529.8	642.35
909.2074	1737.0099	1526.8	640.85
909.3484	1738.7156	1532.05	648.3
909.4894	1740.4204	1522.65	635.7
909.6304	1742.1246	1526.75	640.2
909.7714	1743.8279	1527.15	643.6
909.9123	1745.5306	1524.65	639.6
910.0532	1747.2325	1518.65	633
910.1941	1748.9336	1511.4	626.3
910.335	1750.634	1526.7	640.55
910.4759	1752.3336	1519.75	634
910.6168	1754.0325	1514.6	631.55
910.7576	1755.7307	1508.5	621.25
910.8984	1757.4281	1508.05	621.65
911.0392	1759.1247	1514.55	620.35
911.18	1760.8206	1515.4	625.4
911.3208	1762.5158	1511.25	621.35
911.4615	1764.2102	1507.85	622.65
911.6022	1765.9039	1508.6	623.7
911.7429	1767.5968	1504.45	619.5
911.8836	1769.289	1505.75	621.15
912.0243	1770.9804	1500.55	613.3
912.1649	1772.6711	1505.7	619.85
912.3056	1774.361	1499.05	613.1
912.4462	1776.0502	1492.5	606.2
912.5868	1777.7386	1505.35	617.85
912.7274	1779.4263	1490.75	605.35
912.8679	1781.1132	1492.7	607.7
913.0084	1782.7994	1490.75	603.05
913.149	1784.4849	1491.25	604.7
913.2895	1786.1696	1484.95	590.6
913.4299	1787.8535	1480.55	594.45
913.5704	1789.5367	1487.55	601.3
913.7108	1791.2192	1468.5	583.15
913.8513	1792.9009	1497.55	585.25
913.9917	1794.5818	1477.85	590.95
914.132	1796.2621	1477.05	592.65
914.2724	1797.9415	1474.9	586.2
914.4128	1799.6202	1470.2	585.45
914.5531	1801.2982	1473.35	587.45
914.6934	1802.9755	1469.3	582.6
914.8337	1804.6519	1463	576.9
914.9739	1806.3277	1456.5	569.75
915.1142	1808.0027	1461.7	578.3
915.2544	1809.6769	1458.25	570.85
915.3946	1811.3504	1459.35	573.95
915.5348	1813.0231	1457.2	571.25
915.675	1814.6951	1454.95	570.7
915.8151	1816.3664	1460.05	572.2
915.9553	1818.0369	1457.45	571.75
916.0954	1819.7067	1444.95	559.45
916.2355	1821.3757	1454.35	567.15
916.3755	1823.044	1457.1	569.6
916.5156	1824.7115	1445.65	560.9
916.6556	1826.3783	1444.3	559.7
916.7956	1828.0443	1444.95	558
916.9356	1829.7096	1445.5	557.95
917.0756	1831.3741	1445.8	557.1
917.2155	1833.0379	1436.15	551.45
917.3555	1834.701	1439.9	553.6
917.4954	1836.3633	1442.6	557.1
917.6353	1838.0248	1445.05	558.45
917.7751	1839.6856	1422.65	536.5
917.915	1841.3457	1432.45	544.95
918.0548	1843.005	1428.55	541.85
918.1946	1844.6636	1422.35	537.3
918.3344	1846.3214	1434.1	548.35
918.4742	1847.9785	1433.65	549.3
918.6139	1849.6349	1426.2	537.5
918.7537	1851.2904	1435.5	540.8
918.8934	1852.9453	1427.1	540.4
919.0331	1854.5994	1434.1	544.8
919.1727	1856.2528	1421.15	529.95
919.3124	1857.9054	1422	535.5
919.452	1859.5572	1419.75	535.7
919.5916	1861.2083	1419.5	533.8
919.7312	1862.8587	1418.2	533.4
919.8708	1864.5084	1414.05	526.65
920.0103	1866.1572	1416.05	529.5
920.1498	1867.8054	1402.65	515.2
920.2893	1869.4528	1416.6	529.4
920.4288	1871.0994	1407	520.6
920.5683	1872.7453	1409.75	523.55
920.7077	1874.3905	1424	530.75
920.8471	1876.0349	1412.15	526.7
920.9865	1877.6786	1411.25	523.5
921.1259	1879.3215	1410.15	525.5
921.2653	1880.9637	1402.1	514.55
921.4046	1882.6051	1410.75	524.5
921.5439	1884.2458	1399.5	512.05
921.6832	1885.8858	1401.25	516.6
921.8225	1887.525	1397.65	510.7
921.9617	1889.1634	1392.5	505.8
922.101	1890.8011	1395.95	508.45
922.2402	1892.4381	1388.45	502.65
922.3794	1894.0743	1385.15	499.15
922.5185	1895.7098	1391.95	508.05
922.6577	1897.3446	1394.05	508.25
922.7968	1898.9786	1392.5	500.2
922.9359	1900.6118	1380.8	495.5
923.075	1902.2443	1385.15	499.95
923.214	1903.8761	1386.45	498.75
923.3531	1905.5071	1373.6	485.65
923.4921	1907.1374	1384.05	496.85
923.6311	1908.7669	1375.65	488.65
923.77	1910.3957	1380.9	495.25
923.909	1912.0237	1374	488.8
924.0479	1913.651	1376.65	491.05
924.1868	1915.2776	1367	482.35
924.3257	1916.9034	1376.45	491.7
924.4646	1918.5285	1366.2	482.5
924.6034	1920.1528	1366.9	478.4
924.7422	1921.7764	1366.7	481.15
924.881	1923.3992	1360.7	475
925.0198	1925.0213	1357.4	472.45
925.1586	1926.6427	1357.2	471.65
925.2973	1928.2633	1429.25	477.3
925.436	1929.8832	1361.35	473.5
925.5747	1931.5023	1359.8	473.85
925.7134	1933.1207	1351.95	464
925.852	1934.7383	1364.05	476.95
925.9906	1936.3552	1349.1	464.7
926.1292	1937.9714	1346.25	460.85
926.2678	1939.5868	1347.05	458.35
926.4064	1941.2015	1341.1	453.15
926.5449	1942.8154	1352.55	465.25
926.6834	1944.4286	1346.75	460.1
926.8219	1946.041	1368.4	458.35
926.9604	1947.6528	1348.5	458.95
927.0988	1949.2637	1335.45	450.1
927.2372	1950.8739	1337.6	450.65
927.3756	1952.4834	1348	460.4
927.514	1954.0921	1336.65	449.35
927.6523	1955.7001	1334.95	444.8
927.7907	1957.3074	1328.8	443
927.929	1958.9139	1328.4	444.85
928.0673	1960.5197	1338.2	450.1
928.2055	1962.1247	1327.7	440.65
928.3438	1963.729	1323.65	439
928.482	1965.3325	1343.85	435.15
928.6202	1966.9353	1322.45	437.65
928.7584	1968.5374	1330.65	444.25
928.8965	1970.1387	1319.4	434.05
929.0346	1971.7393	1321.05	434
929.1727	1973.3392	1319.6	433.9
929.3108	1974.9383	1310.95	426.55
929.4489	1976.5366	1309.9	425.65
929.5869	1978.1342	1317.15	430.25
929.7249	1979.7311	1309.2	422.2
929.8629	1981.3273	1311.3	422.6
930.0009	1982.9227	1312.45	424.8
930.1388	1984.5173	1311.6	425.85
930.2767	1986.1112	1310	427.1
930.4146	1987.7044	1302.35	418.85
930.5525	1989.2968	1310.25	423.65
930.6904	1990.8885	1303.8	415.45
930.8282	1992.4795	1311.95	423.2
930.966	1994.0697	1300.9	413.6
931.1038	1995.6592	1306.55	421.85
931.2415	1997.2479	1299.8	414.45
931.3793	1998.8359	1299.25	415.8
931.517	2000.4232	1293.95	409.5
931.6547	2002.0097	1294.2	410.8
931.7923	2003.5955	1293.75	408.45
931.93	2005.1805	1302.55	416.9
932.0676	2006.7648	1293.25	408.5
932.2052	2008.3484	1293.5	406.15
932.3427	2009.9312	1294.95	405.75
932.4803	2011.5133	1289.1	406.1
932.6178	2013.0946	1291.55	406.05
932.7553	2014.6752	1286.8	403.45
932.8928	2016.2551	1293.35	408.6
933.0302	2017.8342	1287.05	402
933.1676	2019.4126	1286.75	402.3
933.305	2020.9902	1280	396.85
933.4424	2022.5672	1290.15	402.7
933.5798	2024.1433	1285.9	394
933.7171	2025.7188	1284.75	399.75
933.8544	2027.2935	1282.3	397.95
933.9917	2028.8674	1274.15	389.3
934.129	2030.4406	1272.3	389.4
934.2662	2032.0131	1274.45	390.75
934.4034	2033.5849	1271.5	380.8
934.5406	2035.1559	1278.55	394.9
934.6778	2036.7261	1270.6	387.35
934.8149	2038.2957	1270.65	385.8
934.952	2039.8645	1271.5	387.65
935.0891	2041.4325	1277.05	391.85
935.2262	2042.9998	1275.8	392.4
935.3632	2044.5664	1270.55	383.6
935.5002	2046.1323	1272.2	388.45
935.6372	2047.6974	1268.55	384.65
935.7742	2049.2617	1267.7	382.25
935.9111	2050.8254	1285.95	380.75
936.048	2052.3883	1266.85	381.05
936.1849	2053.9504	1267.95	381.2
936.3218	2055.5118	1266.35	380.4
936.4586	2057.0725	1269.1	380.35
936.5955	2058.6325	1266.45	381.65
936.7323	2060.1917	1264.05	380.7
936.869	2061.7502	1266.8	378.1
937.0058	2063.3079	1256.95	373
937.1425	2064.8649	1262.35	374.35
937.2792	2066.4212	1261.5	374.75
937.4159	2067.9767	1259.6	376.15
937.5525	2069.5315	1253.95	370.2
937.6891	2071.0856	1258.25	374
937.8257	2072.6389	1255.75	369.05
937.9623	2074.1915	1251.75	370.05
938.0989	2075.7433	1254.5	369.9
938.2354	2077.2945	1246.15	362.95
938.3719	2078.8448	1249.9	365.1
938.5084	2080.3945	1246.4	362.5
938.6448	2081.9434	1250.1	365.2
938.7812	2083.4916	1251.9	366.7
938.9176	2085.039	1252.55	367.05
939.054	2086.5857	1248.5	361.25
939.1903	2088.1317	1250.9	365.05
939.3267	2089.677	1247.65	360.55
939.463	2091.2215	1248.45	362.1
939.5992	2092.7652	1247.25	361.7
939.7355	2094.3083	1243.95	359.4
939.8717	2095.8506	1245.15	362.1
940.0079	2097.3921	1245.25	361.55
940.1441	2098.933	1248.95	363.65
940.2802	2100.4731	1237.9	354.55
940.4163	2102.0124	1261.05	358.55
940.5524	2103.5511	1246.6	364.25
940.6885	2105.089	1242.45	355.6
940.8245	2106.6261	1238.4	352.6
940.9606	2108.1626	1239.4	353.55
941.0965	2109.6983	1269.5	356.55
941.2325	2111.2332	1246.75	360.15
941.3684	2112.7675	1244.85	359.75
941.5044	2114.301	1237.35	352.05
941.6403	2115.8337	1237.45	352.55
941.7761	2117.3657	1240.4	354.55
941.912	2118.897	1238.85	352.9
942.0478	2120.4276	1240.9	347.95
942.1835	2121.9575	1232.65	347.5
942.3193	2123.4866	1248.5	349.95
942.455	2125.0149	1233.4	346.6
942.5907	2126.5426	1229.75	344.4
942.7264	2128.0695	1232.75	343.6
942.8621	2129.5956	1226.8	343.2
942.9977	2131.1211	1240.2	351.2
943.1333	2132.6458	1234.65	349.05
943.2689	2134.1698	1230.65	346.95
943.4044	2135.693	1229.6	341.65
943.54	2137.2155	1226.05	339.3
943.6755	2138.7373	1226.15	341.3
943.8109	2140.2584	1223.75	341.75
943.9464	2141.7787	1226.45	335
944.0818	2143.2983	1218.35	334.55
944.2172	2144.8171	1218.05	335.4
944.3526	2146.3353	1221.6	334.35
944.4879	2147.8527	1222.9	339.4
944.6232	2149.3693	1218.4	333.75
944.7585	2150.8853	1218.1	332.35
944.8938	2152.4005	1214.95	329.7
945.029	2153.9149	1216.7	332.8
945.1642	2155.4287	1314.7	329.8
945.2994	2156.9417	1223.2	336.15
945.4346	2158.454	1219.55	333
945.5697	2159.9655	1220.1	335.65
945.7048	2161.4764	1210.7	324.65
945.8399	2162.9865	1216.05	332.05
945.9749	2164.4958	1216.25	330.55
946.1099	2166.0045	1216.25	327.9
946.2449	2167.5124	1214.85	330.7
946.3799	2169.0195	1206.25	321.85
946.5148	2170.526	1212.75	327.25
946.6498	2172.0317	1211.55	326.6
946.7846	2173.5367	1209.55	323.95
946.9195	2175.0409	1207.35	324.25
947.0543	2176.5445	1204	321.45
947.1891	2178.0473	1202.2	317.65
947.3239	2179.5494	1206.95	319.95
947.4587	2181.0507	1201.65	315.05
947.5934	2182.5513	1203.05	318.45
947.7281	2184.0512	1207.7	321.9
947.8628	2185.5504	1196.8	312.15
947.9974	2187.0488	1202.6	318.2
948.132	2188.5465	1202.8	317.35
948.2666	2190.0435	1199.65	316.8
948.4012	2191.5397	1197.3	311.35
948.5357	2193.0353	1196.35	313.2
948.6702	2194.5301	1190.1	300.7
948.8047	2196.0241	1191.4	305.8
948.9392	2197.5175	1191.8	308.55
949.0736	2199.0101	1192.5	305.55
949.208	2200.502	1192.8	309.3
949.3424	2201.9931	1191.4	305.65
949.4767	2203.4835	1187.8	301.75
949.611	2204.9733	1205.4	303.9
949.7453	2206.4622	1190.35	304.6
949.8796	2207.9505	1190.5	302.6
950.0138	2209.438	1184.7	301.05
950.148	2210.9248	1189.25	305
950.2822	2212.4109	1181.35	296.9
950.4164	2213.8962	1184.4	297.7
950.5505	2215.3809	1184.9	299.6
950.6846	2216.8648	1177.5	292.35
950.8186	2218.3479	1181.6	290.5
950.9527	2219.8304	1183.15	295.45
951.0867	2221.3121	1186.95	300.95
951.2207	2222.7931	1178.7	294.9
951.3546	2224.2733	1177.5	292.85
951.4886	2225.7529	1175.7	289.75
951.6225	2227.2317	1175.9	289
951.7563	2228.7098	1176.4	291.3
951.8902	2230.1872	1173.85	288.6
952.024	2231.6638	1168.05	283.35
952.1578	2233.1397	1174.9	285.45
952.2916	2234.6149	1169.45	284.55
952.4253	2236.0894	1172.25	287.1
952.559	2237.5632	1175	286.95
952.6927	2239.0362	1166.5	284.15
952.8263	2240.5085	1166.65	282.3
952.9599	2241.9801	1174.4	291
953.0935	2243.4509	1169.1	285.05
953.2271	2244.921	1162.3	277.65
953.3606	2246.3904	1165.25	277.7
953.4941	2247.8591	1161.6	276.8
953.6276	2249.3271	1164.35	278.1
953.7611	2250.7943	1159.45	272.65
953.8945	2252.2608	1157	272.7
954.0279	2253.7266	1158.2	272.25
954.1612	2255.1917	1158.95	273.7
954.2946	2256.656	1163.55	278.35
954.4279	2258.1197	1146.15	263.85
954.5612	2259.5826	1157.65	271.05
954.6944	2261.0447	1157.35	272.5
954.8276	2262.5062	1156.5	270.3
954.9608	2263.9669	1157.3	270.4
955.094	2265.4269	1151.4	267.15
955.2271	2266.8862	1152.8	266.35
955.3602	2268.3448	1150	264.9
955.4933	2269.8026	1149.8	265
955.6264	2271.2598	1148.75	263.55
955.7594	2272.7162	1151.95	268.85
955.8924	2274.1719	1150	264.05
956.0253	2275.6268	1152.55	268.25
956.1583	2277.0811	1147.55	262.55
956.2912	2278.5346	1145.6	262
956.4241	2279.9874	1148	263.3
956.5569	2281.4395	1142.95	259.8
956.6897	2282.8908	1149.6	260.5
956.8225	2284.3414	1146.5	261.05
956.9553	2285.7914	1142.55	258.1
957.088	2287.2406	1146.6	260.9
957.2207	2288.689	1142.55	257.1
957.3534	2290.1368	1146.35	259.6
957.486	2291.5838	1143.4	256.8
957.6186	2293.0302	1138.85	251.8
957.7512	2294.4758	1135.15	250
957.8838	2295.9206	1141.2	255.2
958.0163	2297.3648	1140.5	257
958.1488	2298.8082	1140.45	255.35
958.2813	2300.251	1134.9	251.3
958.4137	2301.693	1136.2	250.6
958.5461	2303.1343	1142.2	255.15
958.6785	2304.5748	1130.35	245.55
958.8108	2306.0147	1134.7	249.05
958.9432	2307.4538	1136.1	250.1
959.0754	2308.8922	1129.1	243.8
959.2077	2310.3299	1132.95	247.2
959.3399	2311.7669	1130.4	244.45
959.4721	2313.2031	1130.15	245.65
959.6043	2314.6387	1130.05	244.2
959.7365	2316.0735	1133.5	249.15
959.8686	2317.5076	1127.8	241.8
960.0006	2318.941	1132.5	248.1
960.1327	2320.3737	1129.95	242.9
960.2647	2321.8056	1131.6	245.95
960.3967	2323.2369	1123.75	237.75
960.5287	2324.6674	1132.3	246.6
960.6606	2326.0972	1129.45	240.45
960.7925	2327.5263	1129.6	245.35
960.9244	2328.9547	1129	243.85
961.0562	2330.3823	1129.1	243
961.1881	2331.8092	1130.05	243.15
961.3198	2333.2355	1124.1	239.7
961.4516	2334.661	1124.05	238.35
961.5833	2336.0858	1124.15	235.9
961.715	2337.5098	1119.75	236.1
961.8467	2338.9332	1123.35	238.4
961.9783	2340.3558	1124.7	236.95
962.1099	2341.7778	1121.85	236.45
962.2415	2343.199	1115.3	227.25
962.373	2344.6195	1117.95	233.3
962.5045	2346.0393	1116.55	232.2
962.636	2347.4583	1113.15	226.2
962.7675	2348.8767	1112.1	224.7
962.8989	2350.2943	1108.25	223.95
963.0303	2351.7113	1116.5	228.65
963.1617	2353.1275	1117.75	233.05
963.293	2354.543	1133.1	223.7
963.4243	2355.9578	1108.85	222.25
963.5556	2357.3718	1109.2	224.25
963.6868	2358.7852	1112.2	225.3
963.818	2360.1978	1107.75	220.85
963.9492	2361.6098	1109.35	224.25
964.0803	2363.021	1114.6	226.05
964.2114	2364.4315	1112.4	228.45
964.3425	2365.8413	1107.5	222.5
964.4736	2367.2504	1108.5	223.7
964.6046	2368.6587	1105.9	219.55
964.7356	2370.0664	1105.35	220.6
964.8666	2371.4733	1104.1	218.5
964.9975	2372.8795	1102.3	216.1
965.1284	2374.285	1102.35	218.3
965.2593	2375.6899	1100.3	214.95
965.3901	2377.0939	1096.65	210.75
965.5209	2378.4973	1101.3	216.7
965.6517	2379.9	1101.2	216.5
965.7825	2381.3019	1097.55	213.6
965.9132	2382.7032	1101.65	217.2
966.0439	2384.1037	1096.5	212.65
966.1745	2385.5035	1097.25	213.15
966.3051	2386.9027	1091.6	205.85
966.4357	2388.3011	1104.85	216.95
966.5663	2389.6987	1096.15	210.9
966.6968	2391.0957	1089.1	203.05
966.8273	2392.492	1092.85	209.5
966.9578	2393.8876	1087.1	200.85
967.0882	2395.2824	1089.5	204.35
967.2186	2396.6765	1086.9	202.7
967.349	2398.07	1086.65	203
967.4793	2399.4627	1092.3	206.5
967.6097	2400.8547	1092.7	207.9
967.7399	2402.246	1094.1	204.6
967.8702	2403.6366	1090.95	204
968.0004	2405.0265	1079.85	193.75
968.1306	2406.4156	1093.35	203.1
968.2607	2407.8041	1086.35	194.7
968.3909	2409.1918	1084.6	195.35
968.521	2410.5789	1079.35	193.55
968.651	2411.9652	1083.95	195.55
968.781	2413.3508	1079.9	195.1
968.911	2414.7358	1078.45	191.75
969.041	2416.12	1078.5	192.65
969.1709	2417.5035	1076.9	191.9
969.3008	2418.8863	1079.15	192.1
969.4307	2420.2684	1073.9	189.1
969.5606	2421.6497	1077.2	191
969.6904	2423.0304	1075.8	189.6
969.8201	2424.4104	1075.15	187.9
969.9499	2425.7896	1076.45	188.6
970.0796	2427.1682	1076.75	191
970.2093	2428.546	1072.7	186.45
970.3389	2429.9232	1077.35	188.4
970.4685	2431.2996	1073.6	188.4
970.5981	2432.6753	1071.25	186.7
970.7277	2434.0503	1076.85	189.15
970.8572	2435.4246	1072.55	187.5
970.9867	2436.7982	1077.5	189.7
971.1161	2438.1711	1069.75	186.15
971.2456	2439.5433	1065.2	180
971.375	2440.9148	1072.1	180.4
971.5043	2442.2856	1065.95	180.65
971.6336	2443.6557	1065.35	178.25
971.7629	2445.025	1068.85	183.45
971.8922	2446.3937	1067.3	180.65
972.0214	2447.7617	1066.95	179.95
972.1506	2449.1289	1067.2	180.95
972.2798	2450.4955	1069.55	178
972.4089	2451.8613	1063	178.15
972.538	2453.2265	1063.55	176.35
972.6671	2454.5909	1067	183.2
972.7961	2455.9546	1058	172.45
972.9251	2457.3177	1062.2	177.65
973.0541	2458.68	1059.75	171.35
973.1831	2460.0416	1063.2	178.05
973.312	2461.4025	1061.65	175.55
973.4408	2462.7627	1070.5	171.7
973.5697	2464.1222	1060.65	176.25
973.6985	2465.4811	1059.8	172
973.8273	2466.8392	1059	173.1
973.956	2468.1966	1062.25	174.85
974.0847	2469.5533	1062.55	175.55
974.2134	2470.9093	1056.05	168.65
974.3421	2472.2645	1056.95	170.95
974.4707	2473.6191	1055.85	170.55
974.5993	2474.973	1053.4	166.95
974.7278	2476.3262	1058.6	171.15
974.8563	2477.6787	1051.5	167.5
974.9848	2479.0305	1055.2	169.05
975.1132	2480.3816	1054.9	166.8
975.2417	2481.7319	1050.25	164.3
975.37	2483.0816	1050.45	164.6
975.4984	2484.4306	1055.05	168.25
975.6267	2485.7789	1051.55	166.3
975.755	2487.1264	1048.9	160.75
975.8833	2488.4733	1050.95	166.45
976.0115	2489.8195	1054.4	161.35
976.1397	2491.165	1053.2	163.3
976.2678	2492.5097	1052.2	164.8
976.3959	2493.8538	1050.95	166.7
976.524	2495.1972	1048.2	161.25
976.6521	2496.5398	1047.4	161.45
976.7801	2497.8818	1051.15	162.5
976.9081	2499.2231	1046.85	160.85
977.036	2500.5637	1049.25	162.4
977.164	2501.9035	1044.7	155.6
977.2918	2503.2427	1047.7	160.5
977.4197	2504.5812	1040.5	156
977.5475	2505.919	1044.15	157.55
977.6753	2507.256	1045.5	160
977.8031	2508.5924	1041.75	157.05
977.9308	2509.9281	1047.65	156.4
978.0585	2511.2631	1039	152.35
978.1861	2512.5974	1039.05	152.6
978.3137	2513.9309	1039.6	153.75
978.4413	2515.2638	1063.2	152.5
978.5689	2516.596	1040.2	155.2
978.6964	2517.9275	1038.7	152.6
978.8239	2519.2583	1036.55	150.85
978.9513	2520.5884	1041.5	155.35
979.0788	2521.9178	1038.65	153.95
979.2062	2523.2465	1037.05	152.95
979.3335	2524.5745	1033	147.8
979.4608	2525.9018	1034.5	150
979.5881	2527.2284	1029.6	144.6
979.7154	2528.5543	1030.9	145.6
979.8426	2529.8796	1034.7	148.3
979.9698	2531.2041	1036	149
980.0969	2532.5279	1034.55	151.85
980.224	2533.851	1034.7	148.2
980.3511	2535.1735	1028.8	144.2
980.4781	2536.4952	1031.7	145.8
980.6052	2537.8163	1032.8	147.95
980.7321	2539.1366	1033.4	148.6
980.8591	2540.4562	1030.5	144.65
980.986	2541.7752	1029.7	145
981.1129	2543.0935	1029.05	143.55
981.2397	2544.411	1031.35	144.8
981.3665	2545.7279	1028.5	143.3
981.4933	2547.0441	1028.95	142.35
981.62	2548.3596	1030.4	141
981.7467	2549.6744	1028	142.6
981.8734	2550.9885	1035.85	141.95
982.0001	2552.3019	1025.45	140.6
982.1267	2553.6146	1022.35	137.65
982.2532	2554.9266	1029.5	144.2
982.3798	2556.2379	1025.95	139.85
982.5063	2557.5485	1027.75	143.6
982.6327	2558.8585	1032.7	143
982.7592	2560.1677	1027.4	138.55
982.8856	2561.4762	1024.4	139.6
983.0119	2562.7841	1027.15	139.45
983.1383	2564.0913	1024.8	141.5
983.2646	2565.3977	1018.55	132.75
983.3908	2566.7035	1023.9	138.1
983.517	2568.0086	1023.75	138
983.6432	2569.313	1022	136.35
983.7694	2570.6167	1027.4	140.1
983.8955	2571.9197	1023.8	139.8
984.0216	2573.222	1025.35	134.5
984.1476	2574.5236	1019.25	129.55
984.2737	2575.8246	1022.45	132.65
984.3996	2577.1248	1022.1	132.45
984.5256	2578.4244	1020.1	136
984.6515	2579.7232	1019.45	134.3
984.7774	2581.0214	1049.5	134.8
984.9032	2582.3189	1018.35	132.85
985.029	2583.6157	1029.8	131.65
985.1548	2584.9118	1018.25	132.1
985.2806	2586.2072	1016.9	133.1
985.4063	2587.5019	1017.45	132.15
985.5319	2588.7959	1020.25	135.4
985.6576	2590.0893	1019.85	133.7
985.7832	2591.3819	1017.9	134.8
985.9087	2592.6739	1012.95	126.95
986.0343	2593.9652	1018.95	133
986.1597	2595.2557	1020.3	134.8
986.2852	2596.5456	1020.65	133.5
986.4106	2597.8348	1014	129.35
986.536	2599.1234	1013.15	129.15
986.6614	2600.4112	1016.75	130.1
986.7867	2601.6983	1018	129.95
986.912	2602.9848	1017.8	134.35
987.0372	2604.2705	1023.25	131.6
987.1624	2605.5556	1017.35	130.35
987.2876	2606.84	1012.95	126.55
987.4128	2608.1237	1015.7	128.8
987.5379	2609.4067	1011.5	125.65
987.6629	2610.689	1023.45	129.2
987.788	2611.9707	1011.6	123.45
987.913	2613.2516	1015.6	125.95
988.0379	2614.5319	1005.35	120.8
988.1629	2615.8115	1012	126.35
988.2878	2617.0903	1010.9	124.15
988.4126	2618.3685	1008.05	121.9
988.5375	2619.6461	1008.85	121.9
988.6622	2620.9229	1007.6	122.9
988.787	2622.199	1008.45	123.3
988.9117	2623.4745	1009.6	122.9
989.0364	2624.7493	1002.9	117.7
989.161	2626.0234	1006.8	123.1
989.2857	2627.2968	1004.45	118.7
989.4102	2628.5695	1007.6	122.7
989.5348	2629.8415	1007.15	123.15
989.6593	2631.1128	1005.5	119.15
989.7837	2632.3835	1000.85	116.3
989.9082	2633.6535	1005.1	119.3
990.0326	2634.9228	1005.6	119.95
990.1569	2636.1914	999.9	114.65
990.2812	2637.4593	1009.65	119.75
990.4055	2638.7265	999.85	112.8
990.5298	2639.9931	1002.85	118
990.654	2641.259	1004.5	115.6
990.7782	2642.5242	1000.05	113.55
990.9023	2643.7887	999.4	112.9
991.0264	2645.0525	1002.65	116.85
991.1505	2646.3156	1014.7	112.55
991.2745	2647.5781	999.05	113.5
991.3985	2648.8398	1000	116.65
991.5225	2650.1009	1003.2	112.35
991.6464	2651.3613	996.2	110.2
991.7703	2652.6211	997.7	112.55
991.8942	2653.8801	994.3	110.9
992.018	2655.1385	997.4	108.2
992.1418	2656.3961	995.4	112.55
992.2655	2657.6531	997.9	112.55
992.3892	2658.9094	994.25	107.3
992.5129	2660.1651	994.55	109.85
992.6366	2661.42	991.2	105.8
992.7602	2662.6743	992.95	105.7
992.8837	2663.9279	992.4	106.2
993.0073	2665.1808	994	106.55
993.1307	2666.433	995.3	106.8
993.2542	2667.6846	990.8	105.35
993.3776	2668.9354	997.15	109.55
993.501	2670.1856	994.65	108.8
993.6244	2671.4351	990.45	106.2
993.7477	2672.6839	997.55	110.55
993.8709	2673.9321	994.8	109.85
993.9942	2675.1795	995.7	111.45
994.1174	2676.4263	996.2	111.45
994.2405	2677.6724	993.3	108.1
994.3637	2678.9179	992.75	104.9
994.4868	2680.1626	989.45	103.95
994.6098	2681.4067	992.7	107.35
994.7328	2682.6501	989.1	106.5
994.8558	2683.8928	992	105.95
994.9788	2685.1348	989.15	107.75
995.1017	2686.3761	993.55	107.3
995.2245	2687.6168	987.5	103.85
995.3474	2688.8568	986.7	101.6
995.4702	2690.0961	981.45	98.05
995.5929	2691.3348	983.2	96.9
995.7156	2692.5727	987.35	101.35
995.8383	2693.81	988.45	103.05
995.961	2695.0466	980.65	97.15
996.0836	2696.2826	984.9	97.75
996.2062	2697.5178	986.25	96.95
996.3287	2698.7524	982.65	96.85
996.4512	2699.9863	985.55	100.95
996.5737	2701.2195	983.25	97.85
996.6961	2702.452	985.25	99.8
996.8185	2703.6839	987.75	103
996.9408	2704.9151	982.75	100
997.0631	2706.1456	986.35	101.35
997.1854	2707.3755	982.15	96
997.3077	2708.6046	986.05	98.85
997.4299	2709.8331	983.8	97.4
997.552	2711.0609	984.75	100.6
997.6742	2712.2881	984.35	99.45
997.7963	2713.5145	989.45	102.1
997.9183	2714.7403	983.2	97.1
998.0403	2715.9654	984.5	96.55
998.1623	2717.1899	1002.25	102.8
998.2842	2718.4136	987.15	101.5
998.4062	2719.6367	983.15	99
998.528	2720.8591	994.05	100.15
998.6498	2722.0809	989.6	103.35
998.7716	2723.3019	992.85	102.05
998.8934	2724.5223	993.75	107.7
999.0151	2725.7421	988.7	103.2
999.1368	2726.9611	993	105.25
999.2584	2728.1795	995.1	106.45
999.38	2729.3972	986.4	100.95
999.5016	2730.6142	990.35	98
999.6231	2731.8306	982.75	95.6
999.7446	2733.0462	981.65	95.15
999.8661	2734.2612	985.15	93.9
999.9875	2735.4756	983.65	95.9
1000.1089	2736.6892	979.2	93.95
1000.2302	2737.9022	975.55	91.15
1000.3515	2739.1145	974.15	91.15
1000.4728	2740.3262	986.7	94.25
1000.594	2741.5372	978.15	92.15
1000.7152	2742.7475	975.25	89.7
1000.8363	2743.9571	977.9	91.7
1000.9575	2745.1661	980.7	92.85
1001.0785	2746.3744	970.9	84.35
1001.1996	2747.582	970.85	86.15
1001.3206	2748.7889	974.65	86
1001.4415	2749.9952	968.2	83.15
1001.5625	2751.2008	973.35	86.7
1001.6833	2752.4057	971.65	84.35
1001.8042	2753.61	974.3	89.05
1001.925	2754.8136	973.3	86.1
1002.0458	2756.0165	968.15	84.8
1002.1665	2757.2188	963.5	78.2
1002.2872	2758.4204	966.1	79.85
1002.4078	2759.6213	969.85	82.25
1002.5285	2760.8215	975.4	83.3
1002.649	2762.0211	969.3	83.15
1002.7696	2763.22	972.15	84.1
1002.8901	2764.4182	967.7	81.75
1003.0106	2765.6158	965.85	82.5
1003.131	2766.8127	966.3	81.9
1003.2514	2768.009	966.05	81.4
1003.3717	2769.2045	965.75	80.45
1003.492	2770.3994	966.25	80.4
1003.6123	2771.5936	964.25	78.7
1003.7325	2772.7872	961.4	76.8
1003.8527	2773.9801	965.15	76.8
1003.9729	2775.1723	980.2	78.65
1004.093	2776.3639	963.5	80.05
1004.2131	2777.5548	963.2	74.7
1004.3331	2778.745	959.7	73.75
1004.4531	2779.9346	960.55	74.7
1004.5731	2781.1235	958.85	72.25
1004.693	2782.3117	959.55	74.7
1004.8129	2783.4992	962.15	76.65
1004.9328	2784.6861	961.45	74.8
1005.0526	2785.8723	962.9	75.6
1005.1723	2787.0579	961.95	76.2
1005.2921	2788.2428	958.9	74.7
1005.4118	2789.427	958.7	74.3
1005.5314	2790.6106	960.1	77.8
1005.651	2791.7935	963.05	76.15
1005.7706	2792.9757	958.8	76.85
1005.8902	2794.1573	963.7	74.4
1006.0097	2795.3382	962.3	77.05
1006.1291	2796.5184	959.8	77.35
1006.2485	2797.698	962.45	74.5
1006.3679	2798.8769	962.1	79.05
1006.4873	2800.0551	960.55	74.95
1006.6066	2801.2327	964.25	76.75
1006.7258	2802.4096	955.65	70.55
1006.8451	2803.5859	959.5	73.7
1006.9642	2804.7615	963.7	78.15
1007.0834	2805.9364	961.6	76.45
1007.2025	2807.1106	963.4	77.7
1007.3216	2808.2842	965.05	81.35
1007.4406	2809.4572	965	80.55
1007.5596	2810.6294	963.1	77.65
1007.6785	2811.801	963.15	81.1
1007.7975	2812.972	963.75	78.65
1007.9163	2814.1423	966.55	81.7
1008.0352	2815.3119	967.3	81.15
1008.154	2816.4808	969.25	83.8
1008.2727	2817.6491	973.8	86.95
1008.3914	2818.8167	974.2	89.4
1008.5101	2819.9837	983.25	93.6
1008.6288	2821.15	979.85	93.5
1008.7474	2822.3157	985.1	100.15
1008.8659	2823.4807	992.35	106.85
1008.9844	2824.645	997.9	110.9
1009.1029	2825.8086	1007.2	123.85
1009.2214	2826.9716	1010.55	125.8
1009.3398	2828.134	1021.55	137.95
1009.4581	2829.2957	1026.1	139.9
1009.5764	2830.4567	1029.3	144.7
1009.6947	2831.617	1034.4	150.4
1009.813	2832.7767	1037.1	153.2
1009.9312	2833.9358	1037.6	155.3
1010.0493	2835.0941	1036.1	150.8
1010.1675	2836.2519	1034.2	151
1010.2855	2837.4089	1028.6	143.6
1010.4036	2838.5653	1027.4	144.25
1010.5216	2839.7211	1022.8	140.05
1010.6396	2840.8761	1019.7	134.95
1010.7575	2842.0306	1023.3	140.75
1010.8754	2843.1843	1021.15	136.35
1010.9932	2844.3374	1020.7	136.05
1011.111	2845.4899	1022.3	137.05
1011.2288	2846.6417	1021.9	137.45
1011.3465	2847.7928	1026.85	141.6
1011.4642	2848.9433	1026.1	141.2
1011.5818	2850.0931	1028.9	143.95
1011.6995	2851.2422	1026.35	139.95
1011.817	2852.3907	1029.45	141.05
1011.9345	2853.5385	1029.1	142.6
1012.052	2854.6857	1038.85	147.35
1012.1695	2855.8323	1031.05	146.6
1012.2869	2856.9781	1035.9	150.65
1012.4042	2858.1233	1031.6	145.95
1012.5216	2859.2679	1036.3	152.9
1012.6389	2860.4118	1040.45	154.05
1012.7561	2861.555	1044.9	155.15
1012.8733	2862.6976	1050.65	165.15
1012.9905	2863.8395	1045.3	161.15
1013.1076	2864.9808	1048.45	163.25
1013.2247	2866.1214	1049.15	163.7
1013.3417	2867.2614	1055.3	169.2
1013.4587	2868.4007	1056.1	169.7
1013.5757	2869.5393	1055	167.05
1013.6926	2870.6773	1057.2	170.25
1013.8095	2871.8146	1063.3	175.6
1013.9263	2872.9513	1062.4	175.15
1014.0431	2874.0874	1060.05	174.45
1014.1599	2875.2227	1060.15	178.15
1014.2766	2876.3574	1066.1	182
1014.3933	2877.4915	1064.15	179.55
1014.51	2878.6249	1066.3	183.6
1014.6266	2879.7577	1074.05	187.35
1014.7431	2880.8898	1085.4	188.5
1014.8596	2882.0212	1074.95	190.75
1014.9761	2883.152	1074.55	189.8
1015.0925	2884.2821	1076.6	193.75
1015.2089	2885.4116	1079	195.15
1015.3253	2886.5405	1078.45	193.45
1015.4416	2887.6686	1084.9	197.9
1015.5579	2888.7962	1079	194.05
1015.6741	2889.923	1082.7	198.45
1015.7903	2891.0493	1082.65	200.65
1015.9065	2892.1748	1081.25	196.6
1016.0226	2893.2997	1078.35	191.75
1016.1387	2894.424	1078.9	196.15
1016.2547	2895.5476	1077.2	192.8
1016.3707	2896.6706	1079.7	195.95
1016.4866	2897.7929	1076.8	192.05
1016.6025	2898.9145	1083.95	199.7
1016.7184	2900.0355	1083.75	197.7
1016.8342	2901.1559	1080.55	196.35
1016.95	2902.2756	1081.75	192.55
1017.0658	2903.3946	1077.35	192.4
1017.1815	2904.513	1075.8	186.85
1017.2971	2905.6308	1076.7	190.55
1017.4127	2906.7479	1071	185.15
1017.5283	2907.8643	1075.3	188.5
1017.6439	2908.9801	1075.75	192.15
1017.7594	2910.0953	1075.35	190.85
1017.8748	2911.2098	1072.4	181.55
1017.9902	2912.3236	1084.1	193.05
1018.1056	2913.4368	1077.65	189.9
1018.2209	2914.5494	1072.3	187.85
1018.3362	2915.6613	1069.8	179.25
1018.4515	2916.7725	1067.2	178.05
1018.5667	2917.8831	1064.3	177.45
1018.6819	2918.9931	1064.8	179.4
1018.797	2920.1024	1059.2	172.55
1018.9121	2921.211	1059.5	175
1019.0271	2922.319	1054.55	171.25
1019.1421	2923.4264	1052.2	169.25
1019.2571	2924.5331	1054.3	171.5
1019.372	2925.6391	1053.2	168.1
1019.4869	2926.7445	1049.65	167.5
1019.6017	2927.8493	1052.8	165.55
1019.7165	2928.9534	1059.4	174.6
1019.8313	2930.0569	1058.5	170.4
1019.946	2931.1597	1054.85	168.2
1020.0606	2932.2619	1058.05	172.7
1020.1753	2933.3634	1062.05	177.95
1020.2899	2934.4643	1059.7	168.2
1020.4044	2935.5645	1067.25	175.85
1020.5189	2936.6641	1066.85	177.8
1020.6334	2937.763	1064.05	181.55
1020.7478	2938.8613	1062.8	178.4
1020.8622	2939.959	1062.65	174.5
1020.9765	2941.056	1057.85	174.4
1021.0908	2942.1523	1052.55	167.8
1021.2051	2943.248	1044.85	157.9
1021.3193	2944.3431	1040.85	156.75
1021.4334	2945.4375	1033.4	147.45
1021.5476	2946.5313	1026.8	142.35
1021.6617	2947.6244	1019.05	135.6
1021.7757	2948.7169	1011.15	125.4
1021.8897	2949.8087	1008.6	123.5
1022.0037	2950.8999	999.25	112.95
1022.1176	2951.9904	996.6	112.05
1022.2315	2953.0803	993.75	107.95
1022.3453	2954.1696	991.1	107.55
1022.4591	2955.2582	986.85	102.2
1022.5728	2956.3462	986.75	102.55
1022.6865	2957.4335	982.1	96.05
1022.8002	2958.5202	982.9	96.5
1022.9138	2959.6062	981.05	97.4
1023.0274	2960.6916	979.7	93.65
1023.141	2961.7764	981.85	95.95
1023.2545	2962.8605	981.85	96.3
1023.3679	2963.9439	980.6	95.55
1023.4813	2965.0267	982.85	97.65
1023.5947	2966.1089	1005.7	96.8
1023.708	2967.1905	980.25	97.8
1023.8213	2968.2714	976.1	92.85
1023.9346	2969.3516	976.9	92.3
1024.0478	2970.4312	982.95	92.85
1024.1609	2971.5102	974.65	91
1024.274	2972.5885	976.55	91.6
1024.3871	2973.6662	983.55	92.2
1024.5002	2974.7432	975.4	89.85
1024.6132	2975.8196	978.1	91.75
1024.7261	2976.8954	974.7	91.65
1024.839	2977.9705	977	92
1024.9519	2979.045	976.5	93.1
1025.0647	2980.1188	973.4	89.1
1025.1775	2981.192	977.05	94.05
1025.2902	2982.2645	974.4	89.25
1025.4029	2983.3364	972.55	89.05
1025.5156	2984.4077	971.7	88.8
1025.6282	2985.4783	974.65	84
1025.7407	2986.5483	970.55	86.6
1025.8532	2987.6177	965.1	80.95
1025.9657	2988.6864	962.45	77.7
1026.0782	2989.7545	964.2	78.45
1026.1906	2990.8219	959.8	77.05
1026.3029	2991.8887	958.8	70.9
1026.4152	2992.9548	957.05	72.9
1026.5275	2994.0204	953.5	69.2
1026.6397	2995.0852	944.7	63.95
1026.7519	2996.1495	947.45	60.65
1026.864	2997.2131	947.4	62.95
1026.9761	2998.276	942.05	57.8
1027.0882	2999.3383	944.3	60.4
1027.2002	3000.4	938.65	55.25
1027.3122	3001.4611	940.8	55.5
1027.4241	3002.5215	938.35	53.6
1027.536	3003.5812	934.1	49.3
1027.6478	3004.6404	933.25	48.45
1027.7596	3005.6989	933.15	47.45
1027.8714	3006.7567	932.7	50.4
1027.9831	3007.8139	953	47.85
1028.0947	3008.8705	928.05	42.95
1028.2064	3009.9264	930.4	41.55
1028.3179	3010.9818	929.35	44.6
1028.4295	3012.0364	929.35	45.15
1028.541	3013.0905	928.1	44.1
1028.6524	3014.1439	928.2	41.7
1028.7638	3015.1966	927	43.1
1028.8752	3016.2487	924.85	38.5
1028.9865	3017.3002	929.35	42.2
1029.0978	3018.3511	923.55	39.65
1029.209	3019.4013	926.6	42.15
1029.3202	3020.4509	923.9	38.9
1029.4314	3021.4998	925.65	40.7
1029.5425	3022.5481	925	40.85
1029.6535	3023.5958	923.6	40.5
1029.7645	3024.6428	923.4	38.25
1029.8755	3025.6892	925.05	39.75
1029.9864	3026.735	924.65	40.65
1030.0973	3027.7802	924.05	38.05
1030.2082	3028.8247	923	38.85
1030.319	3029.8685	922.45	37.25
1030.4297	3030.9118	923.5	38.6
1030.5404	3031.9544	921.6	40.05
1030.6511	3032.9963	922.15	37.45
1030.7617	3034.0376	923.65	40
1030.8723	3035.0783	923.9	39.85
1030.9829	3036.1184	923.45	39.95
1031.0934	3037.1578	921.3	37.15
1031.2038	3038.1966	923.2	36.1
1031.3142	3039.2348	922.1	38.7
1031.4246	3040.2723	927.4	34.2
1031.5349	3041.3092	923.1	38.55
1031.6452	3042.3455	923.8	39.8
1031.7554	3043.3811	923.85	39
1031.8656	3044.4161	924.2	38.75
1031.9758	3045.4505	921.65	37.6
1032.0859	3046.4842	921.25	35.75
1032.1959	3047.5173	920.7	35.65
1032.3059	3048.5498	921.95	36.7
1032.4159	3049.5816	924.85	39.9
1032.5258	3050.6128	925.1	38.75
1032.6357	3051.6434	922.85	36.25
1032.7455	3052.6734	921.25	34
1032.8553	3053.7027	923.7	40.55
1032.9651	3054.7314	922.3	41.1
1033.0748	3055.7594	924.4	42.5
1033.1845	3056.7868	924.8	38.8
1033.2941	3057.8136	920.9	35.8
1033.4037	3058.8398	920.75	37.7
1033.5132	3059.8653	922.8	37.6
1033.6227	3060.8902	921.65	37.85
1033.7321	3061.9145	922.25	37.7
1033.8415	3062.9381	920	35.75
1033.9509	3063.9612	937.15	38.9
1034.0602	3064.9835	923.4	40.1
1034.1694	3066.0053	925.8	39.2
1034.2787	3067.0264	923.35	37.85
1034.3878	3068.0469	924.2	38.75
1034.497	3069.0668	926.15	39
1034.6061	3070.086	923.6	40.45
1034.7151	3071.1046	926.45	39.8
1034.8241	3072.1226	924.55	39.6
1034.9331	3073.1399	921.2	36.85
1035.042	3074.1567	925.15	39.7
1035.1508	3075.1727	922	35.25
1035.2597	3076.1882	922.85	37.4
1035.3684	3077.203	920.75	35.5
1035.4772	3078.2173	920.15	35.1
1035.5859	3079.2308	922.95	35.15
1035.6945	3080.2438	921	36.1
1035.8031	3081.2561	918.15	34.85
1035.9117	3082.2678	915.9	32.2
1036.0202	3083.2789	916.1	29.4
1036.1286	3084.2893	917.45	33.65
1036.2371	3085.2991	916.3	30.7
1036.3454	3086.3083	919.5	31.55
1036.4538	3087.3169	915.15	31.3
1036.562	3088.3248	916.7	32.85
1036.6703	3089.3321	915.65	29.2
1036.7785	3090.3388	912.65	29.45
1036.8866	3091.3449	914.25	29.45
1036.9948	3092.3503	916.45	29.1
1037.1028	3093.3551	910.45	29.35
1037.2108	3094.3593	912.65	29.25
1037.3188	3095.3629	912.8	30.15
1037.4267	3096.3658	912.85	26
1037.5346	3097.3681	913.4	28.2
1037.6425	3098.3698	913.25	26.95
1037.7503	3099.3708	917.35	26.35
1037.858	3100.3713	911.5	28.8
1037.9657	3101.3711	911.9	26.65
1038.0734	3102.3702	1052.45	30.3
1038.181	3103.3688	912.45	26.75
1038.2886	3104.3667	910.55	26.45
1038.3961	3105.364	911.9	30.05
1038.5036	3106.3607	914.45	28.6
1038.611	3107.3568	911.5	25.7
1038.7184	3108.3522	908.85	25.05
1038.8257	3109.347	909.35	23.3
1038.933	3110.3412	913.85	26.05
1039.0403	3111.3348	910.65	27.3
1039.1475	3112.3277	909.8	26.45
1039.2547	3113.32	908.6	24.75
1039.3618	3114.3117	909.25	24.25
1039.4689	3115.3028	907.65	22.35
1039.5759	3116.2932	911	22.7
1039.6829	3117.2831	914.25	24.65
1039.7898	3118.2723	908.1	25.25
1039.8967	3119.2608	906.4	24.85
1040.0035	3120.2488	908.45	24.85
1040.1103	3121.2361	906.2	22.05
1040.2171	3122.2229	907.4	23.4
1040.3238	3123.209	907.25	20.3
1040.4305	3124.1944	908.3	23.85
1040.5371	3125.1793	907.3	22.3
1040.6437	3126.1635	903.6	21.05
1040.7502	3127.1471	905.85	22
1040.8567	3128.1301	901.95	18.2
1040.9631	3129.1125	905.5	22.3
1041.0695	3130.0942	906.05	21
1041.1759	3131.0753	913.7	24.6
1041.2822	3132.0558	906.75	18.4
1041.3884	3133.0357	905	20.05
1041.4946	3134.015	905.1	21.8
1041.6008	3134.9936	905.85	20.15
1041.7069	3135.9716	929	22.2
1041.813	3136.949	904.05	20.95
1041.919	3137.9258	919.9	18.55
1042.025	3138.902	908.55	18.1
1042.1309	3139.8775	905.2	20.65
1042.2368	3140.8524	902.2	17.65
1042.3427	3141.8267	905.35	20.3
1042.4485	3142.8004	905.7	19.7
1042.5542	3143.7735	910	17.5
1042.6599	3144.7459	906.3	20
1042.7656	3145.7178	904	17.8
1042.8712	3146.689	903.1	20.45
1042.9768	3147.6596	904.6	19.65
1043.0823	3148.6295	903.5	19.85
1043.1878	3149.5989	903.95	20
1043.2932	3150.5676	901.15	17.8
1043.3986	3151.5357	898.75	17.25
1043.5039	3152.5032	902.4	17.05
1043.6092	3153.4701	903.45	20.15
1043.7145	3154.4364	906.15	19.35
1043.8197	3155.402	903.05	19.8
1043.9248	3156.367	904.05	15.7
1044.03	3157.3315	936.95	16.3
1044.135	3158.2952	903	18.45
1044.24	3159.2584	901.85	19.85
1044.345	3160.221	902.35	17.55
1044.4499	3161.1829	902.55	20.85
1044.5548	3162.1442	899.45	16
1044.6596	3163.105	901.85	17.95
1044.7644	3164.065	903.55	21.65
1044.8692	3165.0245	906.25	18.2
1044.9739	3165.9834	901.5	17.65
1045.0785	3166.9416	899.3	16.05
1045.1831	3167.8993	902.3	17.35
1045.2877	3168.8563	903.3	17.35
1045.3922	3169.8127	901.3	17.15
1045.4966	3170.7684	900.25	16.35
1045.6011	3171.7236	900.95	15.85
1045.7054	3172.6782	901	16.15
1045.8098	3173.6321	902.1	16.4
1045.914	3174.5854	905.55	15.75
1046.0183	3175.5381	899.4	16.4
1046.1224	3176.4902	899	14.7
1046.2266	3177.4417	899.05	14.65
1046.3307	3178.3926	899.65	15.05
1046.4347	3179.3428	899.55	17.55
1046.5387	3180.2924	901.45	18.1
1046.6427	3181.2415	901.3	16.65
1046.7466	3182.1899	900.4	13.45
1046.8504	3183.1377	899.65	18.05
1046.9542	3184.0848	901.05	14.35
1047.058	3185.0314	900	13.45
1047.1617	3185.9773	900.85	15.05
1047.2654	3186.9227	897.45	9.65
1047.369	3187.8674	898.55	17.1
1047.4726	3188.8115	901.35	14.3
1047.5761	3189.755	901.3	16.65
1047.6796	3190.6979	898.1	13.65
1047.783	3191.6402	898.75	14.8
1047.8864	3192.5818	898.75	12.95
1047.9898	3193.5229	904.6	12.65
1048.0931	3194.4633	898.6	15.55
1048.1963	3195.4031	899.95	13.95
1048.2995	3196.3423	898.8	12.8
1048.4027	3197.2809	896.4	13.6
1048.5058	3198.2189	898.25	15.8
1048.6089	3199.1563	905.15	13.1
1048.7119	3200.0931	896.45	13.2
1048.8148	3201.0292	896.85	13.2
1048.9178	3201.9648	897.25	13.65
1049.0206	3202.8997	897.65	11.4
1049.1235	3203.834	899.95	15.35
1049.2262	3204.7677	897.6	13.55
1049.329	3205.7008	900.25	15.15
1049.4317	3206.6333	895.6	12.25
1049.5343	3207.5652	899.5	14.35
1049.6369	3208.4964	898	13.6
1049.7394	3209.4271	897.1	16
1049.8419	3210.3571	896.2	15
1049.9444	3211.2865	896.9	13.85
1050.0468	3212.2154	898	13.8
1050.1491	3213.1436	900.6	12.4
1050.2514	3214.0712	902.7	12.5
1050.3537	3214.9982	896.5	11.4
1050.4559	3215.9246	896.65	9.7
1050.5581	3216.8503	896.35	10.15
1050.6602	3217.7755	897.2	11.65
1050.7623	3218.7001	896.15	11.05
1050.8643	3219.624	896.2	10.4
1050.9663	3220.5473	897.25	14.75
1051.0682	3221.4701	898.8	15.75
1051.1701	3222.3922	900.6	13.45
1051.2719	3223.3137	896.4	13.95
1051.3737	3224.2346	895.4	13.55
1051.4754	3225.1549	895.85	12.15
1051.5771	3226.0746	893.95	8.35
1051.6788	3226.9937	896.35	9.8
1051.7804	3227.9121	895.15	11.45
1051.8819	3228.83	896.85	12.8
1051.9834	3229.7473	896.45	10.45
1052.0849	3230.6639	897.15	13.6
1052.1863	3231.5799	894.8	10.65
1052.2876	3232.4954	895.45	11.2
1052.3889	3233.4102	895.1	10.65
1052.4902	3234.3244	897.1	10.7
1052.5914	3235.238	893.7	10.2
1052.6926	3236.151	909.85	9.55
1052.7937	3237.0634	895.6	12.65
1052.8948	3237.9752	893.95	11.1
1052.9958	3238.8864	895.25	10.65
1053.0968	3239.797	896.05	11.9
1053.1977	3240.7069	892.95	7.5
1053.2986	3241.6163	896.5	11.9
1053.3994	3242.5251	894.6	11.3
1053.5002	3243.4332	892.85	7.9
1053.6009	3244.3408	896.2	11.35
1053.7016	3245.2477	895.2	11.65
1053.8022	3246.154	894.5	9.6
1053.9028	3247.0598	896.1	13.1
1054.0034	3247.9649	894.35	10.25
1054.1039	3248.8694	894.5	9.55
1054.2043	3249.7733	892.85	8.95
1054.3047	3250.6766	894.65	10.1
1054.4051	3251.5793	895.65	8.95
1054.5054	3252.4814	894.8	10.1
1054.6056	3253.3829	895.2	11.15
1054.7058	3254.2838	894.45	13.1
1054.806	3255.1841	893.4	10.15
1054.9061	3256.0838	893.15	8.95
1055.0061	3256.9829	892.85	8.95
1055.1062	3257.8814	894.45	6.5
1055.2061	3258.7792	897.9	13.1
1055.306	3259.6765	894.7	9.5
1055.4059	3260.5731	893.55	8.65
1055.5057	3261.4692	894.4	8.85
1055.6055	3262.3647	893.5	10.15
1055.7052	3263.2595	891.05	5.9
1055.8049	3264.1538	892.35	7.1
1055.9045	3265.0474	894	8.35
1056.0041	3265.9404	891.9	10.25
1056.1036	3266.8329	892	8.45
1056.2031	3267.7247	901.7	9.3
1056.3025	3268.616	892.15	8.4
1056.4019	3269.5066	892.15	8.85
1056.5013	3270.3966	894.35	8.6
1056.6005	3271.286	891.95	8.2
