Software Version:	3.9.2.0
Unit SN:	10000200
Spectrometer SN:	6960
Date:	3/26/2024 1:45:50 PM
Data Line Index:	25
Spectral Points:	2048
Integration time (ms):	125
Averages:	20
Delay (ms):	30000
Sequence Number:	1
Processing:	dark subtract
Laser Power (mW):	305
Laser Current (mA):	821
Laser Diode Temp (C):	25
Laser Case Temp (C):	27.2
System Temp (C):	27.2
Spectrometer Temp (C):	25.1
CCD Temp (C):	0.007
Secondary Temp (C):	20.004
Heatsink Temp (C):	22.463
CCDPCB Temp (C):	36.829
SecondaryPCB Temp (C):	34.15

Wavelength	RamanShift	Raw Counts	Dark Subtracted
787.061	30.1047	607.25	198.05
787.2016	32.3739	620.7	210
787.3422	34.6426	631.85	222.2
787.4828	36.9109	651.9	239.35
787.6235	39.1787	665.9	250.6
787.7642	41.4461	689.5	268.85
787.9049	43.7131	711.85	286.75
788.0456	45.9796	725.6	296.95
788.1863	48.2456	754.7	320.65
788.3271	50.5112	771.95	333.2
788.4679	52.7764	799.7	361.5
788.6087	55.0411	827.3	384.45
788.7496	57.3054	851.15	404.05
788.8904	59.5692	880.7	431.7
789.0313	61.8326	918.55	466.45
789.1722	64.0955	947.95	491.7
789.3132	66.3579	989.6	527
789.4541	68.6199	1034.05	568.6
789.5951	70.8815	1120.65	652.45
789.7361	73.1426	1306.1	834.65
789.8771	75.4032	1760.3	1282.5
790.0181	77.6634	2904.75	2421.4
790.1592	79.9231	5750.3	5259.8
790.3003	82.1824	12261.2	11752.95
790.4414	84.4412	25548.25	25012.5
790.5825	86.6995	49189.4	48616.15
790.7237	88.9574	61569.8	60958.05
790.8648	91.2148	64641.7	64007.25
791.006	93.4717	64870.8	64217.35
791.1472	95.7282	64983.2	64322.85
791.2885	97.9842	65037.1	64370.6
791.4297	100.2398	65006.9	64338.65
791.571	102.4949	64998.15	64328.55
791.7123	104.7495	64961.8	64285.4
791.8536	107.0036	64914.4	64241.35
791.9949	109.2573	64958.8	64284.25
792.1363	111.5105	64881.2	64201.85
792.2777	113.7632	64868.85	64192.55
792.4191	116.0154	64895.85	64205.75
792.5605	118.2672	64936.45	64250.95
792.7019	120.5185	64922.5	64237.3
792.8434	122.7693	64905.7	64219.5
792.9849	125.0197	64819.3	64133.3
793.1264	127.2696	64970.95	64280.9
793.2679	129.519	64913.9	64218.3
793.4094	131.7679	64987.3	64290.6
793.551	134.0163	64823.9	64119.8
793.6926	136.2642	64877.85	64174
793.8342	138.5117	64956.5	64240.25
793.9758	140.7587	64910.65	64199.2
794.1175	143.0052	64890.1	64173.05
794.2591	145.2512	64803.1	64088.55
794.4008	147.4967	64902.6	64190.2
794.5425	149.7417	64868.15	64153.8
794.6842	151.9863	64853.35	64136
794.826	154.2304	64801.85	64077
794.9677	156.4739	64833.45	64107.3
795.1095	158.717	64905.9	64177
795.2513	160.9596	64841.35	64113.25
795.3931	163.2017	64752.35	64018.95
795.535	165.4433	64832.9	64097.85
795.6768	167.6844	64759.65	64021.45
795.8187	169.925	64800.85	64061.85
795.9606	172.1651	64747.75	64008.95
796.1025	174.4047	64763.5	64018.25
796.2445	176.6439	64742.45	64002.05
796.3864	178.8825	64713.3	63965.95
796.5284	181.1206	64778	64024.75
796.6704	183.3582	64765.35	64010.2
796.8124	185.5954	64721	63965.8
796.9544	187.832	64722.45	63961.65
797.0965	190.0681	64660.1	63894.6
797.2386	192.3037	64761.2	63999.7
797.3806	194.5388	64862.45	64093.55
797.5228	196.7734	64631.1	63857.45
797.6649	199.0075	64859.75	64084.25
797.807	201.2411	64754.05	63976.05
797.9492	203.4742	64883.5	64102.9
798.0914	205.7068	64851.15	64070.25
798.2336	207.9389	64833.45	64046
798.3758	210.1704	64823.3	64039
798.518	212.4015	64929.45	64141.6
798.6603	214.632	64808.7	64027.4
798.8025	216.862	64929.3	64154.8
798.9448	219.0915	64861.25	64090.95
799.0871	221.3205	64852.55	64084.65
799.2294	223.549	64956.75	64191.8
799.3718	225.777	64935.35	64173.9
799.5141	228.0044	65004.55	64240.1
799.6565	230.2314	64950.05	64186.5
799.7989	232.4578	64957.5	64193.35
799.9413	234.6837	64984.65	64213.7
800.0837	236.909	65189.25	64415.4
800.2262	239.1339	64899.8	64101.1
800.3687	241.3582	65012.1	64226.7
800.5111	243.582	65014.85	64202.4
800.6536	245.8053	64982.75	64180.7
800.7961	248.0281	64996.55	64197.15
800.9387	250.2503	65036.95	64236.35
801.0812	252.472	64945.35	64138.2
801.2238	254.6932	65011.6	64206.45
801.3664	256.9139	64962.8	64150.95
801.509	259.134	65144.95	64330.35
801.6516	261.3536	64949.8	64138.85
801.7942	263.5727	65057.05	64242.2
801.9369	265.7912	65009.55	64196.7
802.0795	268.0092	65049.2	64236.75
802.2222	270.2267	65062.3	64245
802.3649	272.4436	64980	64166.8
802.5076	274.6601	65067.35	64243.95
802.6504	276.8759	65092.5	64277.6
802.7931	279.0913	65033.15	64211.2
802.9359	281.3061	65053.25	64231.6
803.0787	283.5204	65059.4	64232.75
803.2215	285.7341	65057.4	64229.55
803.3643	287.9473	65137.55	64298.9
803.5071	290.16	65076.8	64243.7
803.6499	292.3721	65103.4	64275.25
803.7928	294.5837	65042.6	64215.3
803.9357	296.7947	64994.2	64167.2
804.0786	299.0052	65150.3	64322.75
804.2215	301.2152	65091.05	64258
804.3644	303.4246	65127.5	64304.25
804.5074	305.6334	65094.15	64267.45
804.6503	307.8418	64981.55	64149.9
804.7933	310.0495	64970.65	64136.4
804.9363	312.2568	64958	64123.65
805.0793	314.4635	64953.5	64121.8
805.2223	316.6696	65002.9	64166.9
805.3653	318.8752	65034.95	64191.35
805.5084	321.0802	64842.65	64003.85
805.6514	323.2847	64941.7	64101.85
805.7945	325.4887	64923.75	64086.65
805.9376	327.692	64889.35	64049.05
806.0807	329.8949	64926.45	64083
806.2238	332.0972	64874.65	64031.75
806.367	334.2989	64899.45	64052.2
806.5101	336.5001	64961.1	64112.85
806.6533	338.7007	64812.65	63966.35
806.7965	340.9008	64876.5	64030.05
806.9397	343.1003	64879.05	64031.65
807.0829	345.2992	64930.8	64081.75
807.2261	347.4976	64846.65	63991.55
807.3693	349.6955	64877.1	64024.4
807.5126	351.8927	64829.7	63974.1
807.6559	354.0895	64889.55	64020.05
807.7991	356.2856	64862.95	64005.25
807.9424	358.4812	64911.35	64053.05
808.0857	360.6763	64817.15	63955.95
808.2291	362.8707	64910.7	64052.45
808.3724	365.0646	64832.3	63972.3
808.5158	367.258	64842.65	63986.15
808.6591	369.4508	64788.25	63923.5
808.8025	371.643	64885.3	64019.6
808.9459	373.8346	64843.1	63980.05
809.0893	376.0257	64838.9	63965.5
809.2327	378.2162	64808.2	63935.8
809.3762	380.4062	64745.9	63873.35
809.5196	382.5956	64805.45	63935.1
809.6631	384.7844	64791.6	63923.15
809.8066	386.9726	64814.25	63945.35
809.9501	389.1603	64813.25	63941.45
810.0936	391.3474	64745.55	63832
810.2371	393.5339	64810.85	63937.55
810.3806	395.7199	64696.45	63831.4
810.5241	397.9052	64709.7	63848.05
810.6677	400.09	64743.1	63884.5
810.8113	402.2743	64803.15	63945.55
810.9548	404.4579	64733.35	63869.65
811.0984	406.641	64733.25	63871.7
811.2421	408.8235	64787.7	63924.65
811.3857	411.0054	64784.3	63917.95
811.5293	413.1868	64788	63917.6
811.673	415.3675	64775.7	63909.1
811.8166	417.5477	64785.15	63915.35
811.9603	419.7273	64787	63918.55
812.104	421.9064	64768.5	63893.45
812.2477	424.0848	64791.75	63922.95
812.3914	426.2627	64821.9	63946.4
812.5351	428.4399	64721.75	63845.05
812.6788	430.6166	64654.8	63773.1
812.8226	432.7928	64720	63840.75
812.9663	434.9683	64629.4	63753.45
813.1101	437.1432	64624.75	63745.05
813.2539	439.3176	64670.35	63793.6
813.3977	441.4914	64569.25	63693.9
813.5415	443.6645	64596.05	63717.95
813.6853	445.8371	64604.3	63726.55
813.8291	448.0091	64548.55	63666.3
813.973	450.1806	64535.25	63661.7
814.1168	452.3514	64532.55	63653.5
814.2607	454.5216	64505.3	63623.1
814.4046	456.6913	64539.6	63658.75
814.5485	458.8603	64539.65	63659.95
814.6924	461.0288	64493.25	63617.8
814.8363	463.1967	64554.65	63682.45
814.9802	465.3639	64548.25	63667.4
815.1241	467.5306	64436.65	63555.75
815.2681	469.6967	64489.15	63607.45
815.412	471.8622	64508.65	63631.35
815.556	474.0271	64475	63597.5
815.7	476.1914	64498.65	63615.5
815.844	478.3551	64504.55	63624.45
815.988	480.5182	64563.55	63684.5
816.132	482.6807	64484.75	63607.45
816.276	484.8426	64493.9	63619.05
816.4201	487.0039	64587.6	63709.6
816.5641	489.1647	64586.5	63705.15
816.7082	491.3248	64527.1	63641.25
816.8522	493.4843	64612.85	63729.9
816.9963	495.6432	64609.75	63726.25
817.1404	497.8015	64499.9	63610.5
817.2845	499.9592	64548.35	63658.8
817.4286	502.1163	64528.85	63635.55
817.5727	504.2728	64520.6	63631.95
817.7168	506.4287	64516.65	63635.95
817.861	508.5839	64455.65	63574.6
818.0051	510.7386	64476.35	63590.1
818.1493	512.8927	64474.35	63587
818.2935	515.0461	64453.65	63567.3
818.4377	517.199	64511.9	63621.15
818.5818	519.3512	64482.8	63592.65
818.726	521.5029	64460.05	63566.2
818.8703	523.6539	64486.85	63598.4
819.0145	525.8043	64404.5	63512.2
819.1587	527.9541	64461.25	63567.6
819.303	530.1033	64444.5	63555.95
819.4472	532.2519	64439.8	63546.9
819.5915	534.3999	64468.9	63576.15
819.7357	536.5472	64498.05	63609.05
819.88	538.694	64417.05	63525.85
820.0243	540.8401	64495	63602.55
820.1686	542.9856	64493.9	63597.25
820.3129	545.1305	64517.25	63615.45
820.4572	547.2748	64472.45	63566.25
820.6016	549.4185	64467.25	63560.35
820.7459	551.5615	64497.85	63591.55
820.8902	553.704	64466.8	63567.45
821.0346	555.8458	64412.55	63509.45
821.1789	557.987	64440.9	63537.8
821.3233	560.1276	64475.65	63572.75
821.4677	562.2675	64450.15	63548.15
821.6121	564.4069	64476	63575.1
821.7565	566.5456	64520.8	63622.95
821.9009	568.6837	64465.6	63563.5
822.0453	570.8212	64460.5	63562.25
822.1897	572.958	64386.45	63484.4
822.3342	575.0942	64414.7	63520.8
822.4786	577.2299	64346.95	63455.65
822.6231	579.3648	64337.7	63449.5
822.7675	581.4992	64329.45	63446.55
822.912	583.6329	64321.65	63439.3
823.0565	585.766	64307.85	63424.2
823.201	587.8985	64354.85	63467.35
823.3454	590.0304	64253.45	63333.85
823.4899	592.1616	64324.9	63424.05
823.6345	594.2922	64270.6	63369.95
823.779	596.4222	64197.4	63293.7
823.9235	598.5515	64225.6	63319.75
824.068	600.6802	64244.45	63340.7
824.2126	602.8083	64139.65	63238.9
824.3571	604.9358	64140.9	63237.65
824.5017	607.0626	64217.45	63311.55
824.6462	609.1888	64024.25	63113.4
824.7908	611.3144	64176.9	63268.25
824.9354	613.4393	64112.75	63203.55
825.08	615.5636	63988.15	63081.65
825.2246	617.6873	64129.5	63224.8
825.3692	619.8103	63916.35	63008.25
825.5138	621.9327	64108.85	63199.85
825.6584	624.0544	64089.75	63187.85
825.803	626.1756	64003.45	63102.05
825.9477	628.2961	63973.85	63069.45
826.0923	630.4159	63884.45	62977.5
826.237	632.5351	63770.95	62862.65
826.3816	634.6537	64093.65	63186.1
826.5263	636.7716	63735.25	62823.45
826.6709	638.8889	63886.9	62972.7
826.8156	641.0056	63882.45	62968.45
826.9603	643.1216	63913.7	63002.8
827.105	645.237	63978.5	63068.1
827.2497	647.3518	63701.95	62797.9
827.3944	649.4659	63815.5	62912.4
827.5391	651.5793	63828.65	62922.85
827.6838	653.6922	63884.1	62979.75
827.8285	655.8043	63471.75	62565.55
827.9733	657.9159	63934.3	63025.1
828.118	660.0268	63051.95	62142.6
828.2627	662.137	63665.4	62753.45
828.4075	664.2466	63720.55	62805.5
828.5522	666.3556	63486	62572.75
828.697	668.4639	63692.3	62780.8
828.8418	670.5716	63391.05	62484.6
828.9865	672.6786	63626	62716.25
829.1313	674.785	63326.9	62415.5
829.2761	676.8907	63353.7	62442.8
829.4209	678.9958	63557.7	62649.25
829.5657	681.1002	63584.2	62675.4
829.7105	683.204	63231.9	62312.6
829.8553	685.3072	63023	62104.7
830.0001	687.4097	63203.75	62292.15
830.1449	689.5115	63032.4	62115.6
830.2898	691.6127	63391	62473.2
830.4346	693.7132	63085.95	62173.65
830.5794	695.8131	63100.35	62170
830.7243	697.9123	63180.5	62264.6
830.8691	700.0109	63228.05	62307.4
831.014	702.1089	62797.35	61879.95
831.1588	704.2061	62943.5	62031.1
831.3037	706.3028	63019.4	62104.6
831.4486	708.3987	63095.55	62179.9
831.5935	710.4941	62888.85	61974.3
831.7383	712.5887	63121.8	62206
831.8832	714.6827	62888.45	61968.85
832.0281	716.7761	63175.7	62264.05
832.173	718.8688	63313.7	62403.8
832.3179	720.9608	63024.75	62104.9
832.4628	723.0522	63058.05	62134.05
832.6077	725.1429	62831.8	61913.5
832.7527	727.233	63560.3	62645.1
832.8976	729.3224	62390.6	61471.85
833.0425	731.4112	62839.4	61921.9
833.1874	733.4993	62789.3	61869.6
833.3324	735.5867	62744.7	61827.85
833.4773	737.6735	62423.35	61505.1
833.6222	739.7596	62112	61191.75
833.7672	741.845	62060.75	61142.1
833.9122	743.9298	62532.75	61616.05
834.0571	746.014	62046.55	61126.15
834.2021	748.0974	61719	60797.65
834.347	750.1802	62392.75	61469
834.492	752.2624	61569.75	60645.95
834.637	754.3439	61718.45	60797.75
834.782	756.4247	61946.6	61015.85
834.9269	758.5048	61626.05	60705.35
835.0719	760.5843	61789.05	60864.95
835.2169	762.6631	62060.1	61137.45
835.3619	764.7413	62008.65	61088.15
835.5069	766.8188	62191.55	61272.55
835.6519	768.8956	62555.7	61635.25
835.7969	770.9718	62549.8	61628.55
835.9419	773.0473	62382.4	61458.9
836.0869	775.1221	61923.65	61002.1
836.232	777.1962	61907.7	60986.4
836.377	779.2697	61343.6	60418.4
836.522	781.3426	61725.5	60789.6
836.667	783.4147	61815.85	60891.85
836.8121	785.4862	61728.5	60810.1
836.9571	787.557	61266	60342.9
837.1021	789.6271	61675.4	60749.5
837.2472	791.6966	61064.45	60141.65
837.3922	793.7654	60412.9	59489.15
837.5373	795.8335	60398.15	59475.65
837.6823	797.901	60446.3	59526.65
837.8274	799.9678	60068.95	59145.7
837.9724	802.0339	59913	58989.05
838.1175	804.0993	59971.45	59038.35
838.2626	806.1641	59758.15	58831.75
838.4076	808.2282	59607.95	58687.9
838.5527	810.2916	59470.35	58545.95
838.6978	812.3544	59803.75	58882.45
838.8428	814.4164	59152.2	58231.85
838.9879	816.4778	59255.4	58330.15
839.133	818.5385	59282.8	58357.35
839.2781	820.5986	59266.6	58342.05
839.4232	822.658	59435.7	58509.9
839.5682	824.7166	59570.2	58646.6
839.7133	826.7747	59233.6	58308.25
839.8584	828.832	59643.45	58718.05
840.0035	830.8886	60042.25	59113.8
840.1486	832.9446	60076.15	59149.7
840.2937	834.9999	59092.9	58168.8
840.4388	837.0545	59413	58482.5
840.5839	839.1085	59511.05	58585.7
840.729	841.1618	59219.9	58291.7
840.8741	843.2143	58480	57556.15
841.0192	845.2662	58461.65	57536.35
841.1643	847.3175	58644.55	57719.55
841.3095	849.368	57874.6	56945.8
841.4546	851.4179	58396.9	57472.75
841.5997	853.467	57926.75	57001.75
841.7448	855.5155	58144.85	57222.15
841.8899	857.5633	57651.15	56724.85
842.0351	859.6105	57373.55	56448.5
842.1802	861.6569	57627.05	56700.5
842.3253	863.7027	57064.75	56136.8
842.4704	865.7478	57231.45	56303.5
842.6156	867.7922	57063.65	56136.25
842.7607	869.8359	57351.75	56424.45
842.9058	871.8789	56696.7	55770.35
843.0509	873.9212	57083.05	56122.1
843.1961	875.9629	57063.75	56136.45
843.3412	878.0039	57004.85	56076.15
843.4863	880.0441	56832.45	55907.8
843.6315	882.0837	56840	55914.95
843.7766	884.1226	56821.3	55894.3
843.9218	886.1609	56824.2	55896.8
844.0669	888.1984	56629.55	55707.5
844.212	890.2352	57040.6	56113.95
844.3572	892.2714	56476.55	55541.3
844.5023	894.3069	56659.45	55728.3
844.6475	896.3416	56303.1	55376.65
844.7926	898.3757	56150.55	55220.85
844.9377	900.4091	55482.45	54555.9
845.0829	902.4418	56255.55	55323.4
845.228	904.4739	55742.8	54811
845.3732	906.5052	55880.35	54950.5
845.5183	908.5358	55552.85	54627.7
845.6635	910.5658	55300.75	54371.1
845.8086	912.595	55228.4	54301.2
845.9538	914.6236	54524.85	53598.7
846.0989	916.6515	55303.6	54374.4
846.2441	918.6786	54285.4	53355.7
846.3892	920.7051	54480.45	53546
846.5344	922.7309	54411.7	53483.1
846.6795	924.756	54538.35	53612.05
846.8246	926.7804	54196.9	53269.7
846.9698	928.8041	53672.5	52741.85
847.1149	930.8272	54047.8	53120.75
847.2601	932.8495	53876.2	52946.05
847.4052	934.8711	53488.2	52556.15
847.5504	936.892	53226.15	52296.4
847.6955	938.9123	53296.9	52368.45
847.8407	940.9318	53073.6	52145.85
847.9858	942.9506	52990.55	52059.7
848.131	944.9688	52924.05	51997.1
848.2761	946.9862	52267.75	51336.65
848.4213	949.003	52309.85	51382.5
848.5664	951.019	51740.95	50810.95
848.7115	953.0344	51836.05	50908.2
848.8567	955.0491	51749.2	50821.5
849.0018	957.063	51877.25	50946.85
849.147	959.0763	51945.15	51012.25
849.2921	961.0888	51654.05	50724.15
849.4373	963.1007	51853.85	50928.3
849.5824	965.1119	51802.35	50878.9
849.7275	967.1223	51562.9	50640.75
849.8727	969.1321	51685.65	50765.3
850.0178	971.1412	51298.05	50372.5
850.1629	973.1495	51108.35	50181.75
850.3081	975.1572	51174.25	50208.3
850.4532	977.1641	51039.6	50111.6
850.5983	979.1704	50808	49881.6
850.7435	981.1759	50801.2	49872.3
850.8886	983.1808	50572	49640
851.0337	985.1849	50531.55	49591.05
851.1788	987.1884	50534.05	49603.95
851.324	989.1911	50676.9	49745.35
851.4691	991.1932	50291.7	49365.35
851.6142	993.1945	50251.5	49321.05
851.7593	995.1951	50169.85	49244.65
851.9045	997.1951	49911.05	48976.2
852.0496	999.1943	49749.8	48819.65
852.1947	1001.1928	49545.15	48617.9
852.3398	1003.1906	49487.05	48559.9
852.4849	1005.1877	49304	48374.75
852.63	1007.1841	49120.35	48188.8
852.7751	1009.1798	48984.15	48058.75
852.9202	1011.1748	48802.8	47877.9
853.0653	1013.1691	48595.35	47666.8
853.2104	1015.1627	48055.35	47127.9
853.3555	1017.1556	47711.8	46785.9
853.5006	1019.1477	47648.55	46722.1
853.6457	1021.1392	47241.2	46320.05
853.7908	1023.1299	47018.95	46098.35
853.9359	1025.12	46927.85	46007.15
854.081	1027.1093	46729.3	45819.9
854.2261	1029.0979	46674.25	45764.95
854.3712	1031.0859	46633.9	45723.4
854.5163	1033.0731	46371.6	45450.65
854.6613	1035.0596	46286.05	45365.8
854.8064	1037.0454	45999.7	45075.05
854.9515	1039.0304	45774.75	44850.8
855.0965	1041.0148	45476.55	44552.6
855.2416	1042.9985	45305.75	44380
855.3867	1044.9814	45268.6	44347.4
855.5317	1046.9636	44955.25	44028.15
855.6768	1048.9452	44754.4	43831.4
855.8219	1050.926	44757.95	43830.35
855.9669	1052.9061	44644.5	43721.5
856.112	1054.8855	44582.85	43657.8
856.257	1056.8642	44488.1	43559.6
856.4021	1058.8421	44456.5	43527.7
856.5471	1060.8194	44395.2	43469.05
856.6921	1062.7959	44282.8	43356.35
856.8372	1064.7717	44237.6	43314.35
856.9822	1066.7469	44182.55	43254.6
857.1272	1068.7213	44154.45	43225.9
857.2723	1070.695	44043.9	43116.9
857.4173	1072.6679	43849.05	42924.35
857.5623	1074.6402	43869	42945.1
857.7073	1076.6117	43716.05	42785.7
857.8523	1078.5826	43613.25	42685.6
857.9973	1080.5527	43411.75	42482.45
858.1423	1082.5221	43293.4	42365.7
858.2873	1084.4908	43181.5	42255.8
858.4323	1086.4587	43094.15	42167.4
858.5773	1088.426	43074.4	42145.35
858.7223	1090.3925	42911.95	41979.75
858.8673	1092.3584	42913.8	41988.7
859.0123	1094.3235	42627.15	41702.1
859.1573	1096.2879	42606.2	41681.6
859.3022	1098.2515	42563.25	41636.7
859.4472	1100.2145	42634.7	41711
859.5922	1102.1767	42618.35	41693
859.7371	1104.1382	42655.55	41729.15
859.8821	1106.099	42760	41833.3
860.027	1108.0591	42760.6	41834.5
860.172	1110.0185	42727.95	41802
860.3169	1111.9771	42787.5	41865.4
860.4619	1113.9351	42496.35	41571.6
860.6068	1115.8923	42264.8	41339.9
860.7517	1117.8488	42002.4	41077.6
860.8967	1119.8045	41592.2	40667.8
861.0416	1121.7596	41484	40558.7
861.1865	1123.7139	41264.05	40342.8
861.3314	1125.6675	41131.35	40206.5
861.4763	1127.6204	41182.85	40259.4
861.6212	1129.5726	40982.4	40051.7
861.7661	1131.524	40873.25	39947.4
861.911	1133.4748	40766.9	39839.55
862.0559	1135.4248	40521.1	39598.25
862.2008	1137.3741	40374.45	39450.05
862.3457	1139.3226	40190.65	39266.3
862.4905	1141.2705	40119.55	39193.2
862.6354	1143.2176	39866.85	38936
862.7803	1145.164	39772.55	38847.25
862.9251	1147.1097	39630.35	38705.35
863.07	1149.0546	39556.8	38627.85
863.2148	1150.9989	39432.45	38506.85
863.3597	1152.9424	39320.1	38397.15
863.5045	1154.8852	39092	38168.9
863.6493	1156.8272	39005.85	38081.25
863.7942	1158.7686	39007.5	38076.55
863.939	1160.7092	38856.55	37933.9
864.0838	1162.6491	38698.1	37770.5
864.2286	1164.5883	38764.75	37840.1
864.3734	1166.5267	38689.05	37761.8
864.5182	1168.4644	38794.75	37871.9
864.663	1170.4014	38835.1	37909.25
864.8078	1172.3377	38997.6	38074.2
864.9526	1174.2732	39123.1	38201.05
865.0974	1176.2081	39370.05	38449.45
865.2421	1178.1421	39627.15	38699.55
865.3869	1180.0755	39889.1	38966.95
865.5317	1182.0082	39941.1	39020.05
865.6764	1183.9401	39986.15	39067.55
865.8212	1185.8713	39829.75	38910.5
865.9659	1187.8017	39582.75	38669.2
866.1106	1189.7315	39290.6	38378.1
866.2554	1191.6605	38731.75	37817.95
866.4001	1193.5888	38378.05	37463.5
866.5448	1195.5163	38184.3	37267.25
866.6895	1197.4432	38030.9	37110.6
866.8342	1199.3693	37851.55	36929.7
866.9789	1201.2947	37674.2	36750.25
867.1236	1203.2193	37496.95	36575.05
867.2683	1205.1432	37470.9	36546.6
867.413	1207.0664	37342.85	36419.4
867.5576	1208.9889	37295.9	36373.85
867.7023	1210.9106	37115.45	36193.4
867.847	1212.8316	36953.1	36033.85
867.9916	1214.7519	36968.35	36037.55
868.1363	1216.6715	36822.5	35903.35
868.2809	1218.5903	36861.75	35940.2
868.4255	1220.5084	36752.9	35831.4
868.5701	1222.4257	36821.05	35901.15
868.7148	1224.3424	36632.4	35714.7
868.8594	1226.2583	36625.55	35698.9
869.004	1228.1735	36665.85	35746.75
869.1486	1230.0879	36621.95	35699.7
869.2932	1232.0016	36692.9	35772.2
869.4377	1233.9146	36622.45	35700.7
869.5823	1235.8269	36501.8	35577.85
869.7269	1237.7384	36490.4	35566.8
869.8715	1239.6492	36192.3	35269.3
870.016	1241.5592	36160.75	35239.8
870.1606	1243.4686	36007.25	35086.15
870.3051	1245.3772	35994.45	35074.9
870.4496	1247.285	35951.15	35032.4
870.5941	1249.1922	35996.6	35073.1
870.7387	1251.0986	35956.55	35034.85
870.8832	1253.0042	35945.8	35026.8
871.0277	1254.9092	35915.25	34994.05
871.1722	1256.8134	35854.05	34935.95
871.3167	1258.7169	35988.45	35067.15
871.4611	1260.6196	36012.3	35093.15
871.6056	1262.5216	36155.85	35236.8
871.7501	1264.4229	36198.2	35275.45
871.8945	1266.3234	36336.2	35418.15
872.039	1268.2232	36360.65	35441.15
872.1834	1270.1223	36348.85	35431
872.3278	1272.0207	36231.55	35309.95
872.4723	1273.9183	36120.6	35192.8
872.6167	1275.8151	36054.55	35136.15
872.7611	1277.7113	35925	35006.5
872.9055	1279.6067	35821.75	34902.85
873.0499	1281.5014	35805.95	34884.35
873.1943	1283.3953	35988.2	35069.15
873.3386	1285.2885	36176.25	35258.35
873.483	1287.181	36412.35	35492.35
873.6274	1289.0727	36731.6	35813.3
873.7717	1290.9637	36873.9	35955.55
873.9161	1292.854	37045	36127.05
874.0604	1294.7435	36956.8	36039.25
874.2047	1296.6323	36888.3	35969.75
874.349	1298.5204	36792.35	35870.05
874.4933	1300.4077	36690.1	35768.8
874.6376	1302.2943	36559.9	35640.05
874.7819	1304.1802	36306.65	35387.6
874.9262	1306.0653	35932.8	35012.6
875.0705	1307.9497	35558.5	34638.5
875.2147	1309.8333	35288.1	34370.55
875.359	1311.7162	34996.25	34079.85
875.5032	1313.5984	34862	33942.4
875.6475	1315.4798	34724.4	33791.2
875.7917	1317.3605	34567.9	33632.9
875.9359	1319.2405	34578.85	33658.1
876.0801	1321.1197	34344.75	33422.55
876.2243	1322.9982	34054.65	33131.55
876.3685	1324.876	33923.75	33005.6
876.5127	1326.753	33635	32715.3
876.6569	1328.6293	33497.1	32577.75
876.801	1330.5048	33376.05	32455.75
876.9452	1332.3796	33170.6	32253.45
877.0893	1334.2537	33083.7	32140.8
877.2335	1336.127	32951.8	32033.15
877.3776	1337.9996	32849.2	31931.65
877.5217	1339.8714	32838.05	31918.2
877.6658	1341.7426	32739.75	31776.65
877.8099	1343.6129	32626.7	31706.7
877.954	1345.4826	32645.5	31726
878.0981	1347.3515	32655.55	31733.55
878.2422	1349.2196	32547.95	31626.7
878.3862	1351.087	32547.8	31629
878.5303	1352.9537	32496.2	31576.2
878.6743	1354.8197	32528.3	31606.4
878.8184	1356.6849	32632.9	31715.6
878.9624	1358.5493	32705.15	31785.75
879.1064	1360.4131	32715.1	31795.65
879.2504	1362.276	32727.35	31809.95
879.3944	1364.1383	32628.4	31709.7
879.5384	1365.9998	32426.55	31502.3
879.6823	1367.8606	32095.65	31175.1
879.8263	1369.7206	31743.35	30825.55
879.9702	1371.5799	31402.1	30479.9
880.1142	1373.4384	31118.65	30197.5
880.2581	1375.2962	30918.1	29997.85
880.402	1377.1533	30588.8	29673.8
880.5459	1379.0096	30172.4	29257.55
880.6898	1380.8652	29889.05	28973
880.8337	1382.7201	29549.4	28632.45
880.9776	1384.5742	29212.55	28296.75
881.1215	1386.4275	29020.55	28100.35
881.2653	1388.2802	28806.85	27891.8
881.4092	1390.132	28663.4	27746.6
881.553	1391.9832	28521.45	27602.95
881.6968	1393.8336	28322.85	27404.6
881.8406	1395.6832	28235.55	27316.8
881.9844	1397.5322	28092	27173.15
882.1282	1399.3803	27986.55	27065.1
882.272	1401.2278	27819.65	26903.35
882.4158	1403.0745	27810.1	26892.35
882.5595	1404.9204	27641.1	26726.55
882.7033	1406.7656	27658.1	26740.6
882.847	1408.6101	27518.8	26599.8
882.9908	1410.4538	27429	26513.05
883.1345	1412.2968	27454.05	26536.5
883.2782	1414.139	27340.25	26423
883.4219	1415.9805	27389.25	26474.7
883.5656	1417.8213	27339.45	26400.35
883.7092	1419.6613	27351.95	26437.1
883.8529	1421.5006	27419.2	26502.8
883.9965	1423.3391	27547.5	26630
884.1402	1425.1769	27709.15	26793.5
884.2838	1427.0139	27993	27077.8
884.4274	1428.8502	28376.15	27458.5
884.571	1430.6858	28689.2	27773.25
884.7146	1432.5206	28912.55	27998
884.8582	1434.3547	29081.7	28163.75
885.0018	1436.188	29078.05	28162.1
885.1453	1438.0206	28989.75	28071.7
885.2889	1439.8524	28799.25	27882.6
885.4324	1441.6835	28651.75	27736.25
885.5759	1443.5139	28518.25	27600.2
885.7194	1445.3435	28333.85	27417.2
885.8629	1447.1724	28356.25	27442.05
886.0064	1449.0005	28273.2	27355.65
886.1499	1450.8279	28153.9	27238.9
886.2933	1452.6545	28130.85	27216.65
886.4368	1454.4804	28129.65	27218.15
886.5802	1456.3056	28047.6	27127
886.7237	1458.13	27919.4	27004.65
886.8671	1459.9536	27796.35	26882.8
887.0105	1461.7766	27531	26616.2
887.1539	1463.5987	27206.9	26288.75
887.2972	1465.4202	26897.7	25982.1
887.4406	1467.2409	26492.65	25577.15
887.584	1469.0608	26308.4	25394.05
887.7273	1470.88	26050.5	25135.4
887.8706	1472.6984	25824.55	24912.25
888.0139	1474.5161	25515.05	24598.25
888.1572	1476.3331	25365.3	24450.9
888.3005	1478.1493	25233.15	24318.85
888.4438	1479.9648	25137.5	24223.5
888.5871	1481.7795	25009.95	24094.2
888.7303	1483.5935	25014.55	24100.2
888.8736	1485.4067	24857.35	23942.3
889.0168	1487.2192	24799.45	23884.6
889.16	1489.031	24728.6	23812.4
889.3032	1490.842	24648.1	23735.45
889.4464	1492.6522	24584	23670.35
889.5896	1494.4618	24497.25	23583.75
889.7327	1496.2705	24474.45	23558.85
889.8759	1498.0785	24386.6	23472.1
890.019	1499.8858	24322.05	23406.55
890.1622	1501.6924	24244.8	23331.8
890.3053	1503.4981	24209.55	23297.1
890.4484	1505.3032	24110.15	23194.3
890.5914	1507.1075	24043.9	23132.4
890.7345	1508.911	23983.85	23068.95
890.8776	1510.7138	23885.85	22970.5
891.0206	1512.5159	23774.9	22859.95
891.1637	1514.3172	23674.4	22760.25
891.3067	1516.1178	23580.1	22668.95
891.4497	1517.9176	23554.75	22639.75
891.5927	1519.7166	23432.8	22522
891.7357	1521.515	23350.8	22429.5
891.8786	1523.3126	23343.6	22430.4
892.0216	1525.1094	23263.85	22348.15
892.1645	1526.9055	23125.75	22214.65
892.3074	1528.7008	23048.1	22135.25
892.4503	1530.4954	22918.65	22000.25
892.5932	1532.2893	22901.8	21993.25
892.7361	1534.0824	22747.2	21834.95
892.879	1535.8747	22750.9	21841.7
893.0218	1537.6663	22691.1	21784.05
893.1647	1539.4572	22626.25	21719.1
893.3075	1541.2473	22580.25	21670.7
893.4503	1543.0367	22549.6	21642.9
893.5931	1544.8253	22433.05	21517.25
893.7359	1546.6132	22446.65	21533.05
893.8787	1548.4003	22328.2	21408.5
894.0214	1550.1867	22379.05	21461.2
894.1642	1551.9723	22326.8	21413.7
894.3069	1553.7572	22339.5	21429.65
894.4496	1555.5414	22351.7	21444.6
894.5923	1557.3247	22392.85	21486.45
894.735	1559.1074	22446.4	21539.75
894.8777	1560.8893	22526.75	21623.55
895.0204	1562.6705	22540.25	21633
895.163	1564.4509	22627.35	21723.75
895.3056	1566.2305	22620.75	21718.65
895.4482	1568.0094	22671.85	21770.4
895.5908	1569.7876	22644.9	21740.1
895.7334	1571.565	22571.8	21665.7
895.876	1573.3417	22551.05	21643.15
896.0186	1575.1176	22506.2	21601.25
896.1611	1576.8928	22465.2	21562.8
896.3036	1578.6672	22355.7	21456.05
896.4461	1580.4409	22279.95	21379.95
896.5886	1582.2138	22208.95	21305.5
896.7311	1583.986	22122.75	21218.45
896.8736	1585.7575	22186.8	21282.5
897.0161	1587.5282	22137.35	21235.95
897.1585	1589.2981	22166.5	21268.9
897.3009	1591.0673	22108.95	21208.7
897.4433	1592.8358	22156.25	21255.8
897.5857	1594.6035	22203.75	21298.15
897.7281	1596.3704	22144.75	21241.2
897.8705	1598.1366	22146.3	21243.6
898.0128	1599.9021	22171.1	21270.25
898.1551	1601.6668	22166.8	21261.2
898.2975	1603.4308	22191.85	21286.5
898.4398	1605.194	22266.15	21359.75
898.5821	1606.9564	22366.45	21468.05
898.7243	1608.7182	22478.5	21578.4
898.8666	1610.4791	22699.8	21805.7
899.0088	1612.2394	22798	21905.8
899.1511	1613.9988	22967.7	22074.25
899.2933	1615.7576	23156.85	22259.8
899.4355	1617.5156	23296.6	22387.45
899.5776	1619.2728	23369.4	22467.25
899.7198	1621.0293	23369.3	22468.1
899.862	1622.785	23200.2	22302.8
900.0041	1624.54	22971.35	22072.4
900.1462	1626.2942	22677.4	21778.85
900.2883	1628.0477	22309	21408.75
900.4304	1629.8005	22045.2	21143.25
900.5725	1631.5525	21739.4	20841.55
900.7145	1633.3037	21508.45	20609.9
900.8566	1635.0542	21329.2	20432.95
900.9986	1636.804	21113.25	20216.35
901.1406	1638.553	20999.15	20055.85
901.2826	1640.3013	20917.45	20018.45
901.4245	1642.0488	20811.7	19911.8
901.5665	1643.7955	20813.85	19920.1
901.7085	1645.5416	20815.2	19919.3
901.8504	1647.2868	20861.15	19963.3
901.9923	1649.0313	20848.75	19950.75
902.1342	1650.7751	20980.4	20077.4
902.2761	1652.5181	21065.4	20169.85
902.4179	1654.2604	21155.5	20259.75
902.5598	1656.0019	21301.65	20406.55
902.7016	1657.7427	21435.8	20537.4
902.8434	1659.4828	21646.3	20748.75
902.9852	1661.222	21717.4	20816.75
903.127	1662.9606	21707.05	20808.3
903.2687	1664.6984	21518.55	20619.1
903.4105	1666.4354	21161.8	20258.25
903.5522	1668.1717	20673	19770.55
903.6939	1669.9072	20155.85	19255.45
903.8356	1671.642	19788.5	18886.85
903.9773	1673.3761	19432.45	18533.65
904.119	1675.1094	19120.35	18220.55
904.2606	1676.8419	18863.15	17965.7
904.4022	1678.5737	18649.7	17752.1
904.5439	1680.3048	18504.95	17605.9
904.6855	1682.0351	18343.35	17442.3
904.827	1683.7646	18183.9	17282.85
904.9686	1685.4934	18118.75	17219.4
905.1101	1687.2215	17986.4	17087.35
905.2517	1688.9488	17853.05	16953.8
905.3932	1690.6754	17741.75	16845.65
905.5347	1692.4012	17712.65	16814.3
905.6761	1694.1263	17643.9	16744.7
905.8176	1695.8506	17573.4	16675.35
905.9591	1697.5742	17503.7	16607.6
906.1005	1699.297	17424.6	16528.75
906.2419	1701.0191	17332.65	16438.7
906.3833	1702.7404	17239.85	16346.1
906.5246	1704.461	17129.8	16232.8
906.666	1706.1808	17077.15	16179.7
906.8073	1707.8999	17051.05	16154.5
906.9487	1709.6182	16968.3	16075.3
907.09	1711.3358	16881.9	15989.2
907.2313	1713.0527	16870	15977.3
907.3725	1714.7688	16794.6	15894.8
907.5138	1716.4841	16727.9	15830.3
907.655	1718.1987	16683.3	15782.8
907.7962	1719.9126	16623.8	15732.05
907.9374	1721.6257	16529.3	15632.7
908.0786	1723.338	16490.25	15597.05
908.2198	1725.0496	16415.35	15519.05
908.3609	1726.7605	16417.9	15522.8
908.502	1728.4706	16320.5	15424
908.6431	1730.18	16261.4	15365.95
908.7842	1731.8886	16224.7	15335.2
908.9253	1733.5964	16149.4	15237.1
909.0664	1735.3036	16128.5	15232.1
909.2074	1737.0099	16096.05	15203.8
909.3484	1738.7156	16034.9	15141.95
909.4894	1740.4204	15974.65	15079.2
909.6304	1742.1246	15957.15	15060.7
909.7714	1743.8279	15886.9	14992.65
909.9123	1745.5306	15865.8	14973.05
910.0532	1747.2325	15799.05	14905.55
910.1941	1748.9336	15746.15	14853.9
910.335	1750.634	15718.25	14822.75
910.4759	1752.3336	15658.9	14765.45
910.6168	1754.0325	15598.5	14708.35
910.7576	1755.7307	15584.75	14692.5
910.8984	1757.4281	15576.95	14683.95
911.0392	1759.1247	15547.45	14643.7
911.18	1760.8206	15527.8	14622.9
911.3208	1762.5158	15493	14594.35
911.4615	1764.2102	15425.1	14530.4
911.6022	1765.9039	15342.9	14450.4
911.7429	1767.5968	15294.25	14403.2
911.8836	1769.289	15275.85	14383.55
912.0243	1770.9804	15222.35	14326.9
912.1649	1772.6711	15250.7	14354.9
912.3056	1774.361	15189.3	14294.15
912.4462	1776.0502	15158.8	14264.7
912.5868	1777.7386	15139.5	14241.95
912.7274	1779.4263	15061.9	14168.65
912.8679	1781.1132	15068.5	14179.4
913.0084	1782.7994	14993.4	14099.65
913.149	1784.4849	14976.4	14084.5
913.2895	1786.1696	14907.8	14009.85
913.4299	1787.8535	14928.4	14039.8
913.5704	1789.5367	14877	13986.9
913.7108	1791.2192	14860.3	13968.35
913.8513	1792.9009	14783.1	13862.8
913.9917	1794.5818	14779.55	13886.35
914.132	1796.2621	14732.5	13841.35
914.2724	1797.9415	14693.1	13799.35
914.4128	1799.6202	14658.5	13763.1
914.5531	1801.2982	14610.1	13716.75
914.6934	1802.9755	14576.65	13683.85
914.8337	1804.6519	14539.55	13645.55
914.9739	1806.3277	14499.65	13608.45
915.1142	1808.0027	14407.6	13517.35
915.2544	1809.6769	14434.35	13545.7
915.3946	1811.3504	14384.4	13495.2
915.5348	1813.0231	14337	13447.9
915.675	1814.6951	14333.55	13444.55
915.8151	1816.3664	14320.75	13426.75
915.9553	1818.0369	14282.95	13390.95
916.0954	1819.7067	14232	13338.35
916.2355	1821.3757	14244.15	13349.65
916.3755	1823.044	14191.9	13298.25
916.5156	1824.7115	14157.45	13264.4
916.6556	1826.3783	14101.8	13212.05
916.7956	1828.0443	14069.25	13178.3
916.9356	1829.7096	14041.55	13148
917.0756	1831.3741	14037.3	13142.25
917.2155	1833.0379	13980.3	13089.4
917.3555	1834.701	13912.05	13022.25
917.4954	1836.3633	13902.35	13012.7
917.6353	1838.0248	13886.45	12994.3
917.7751	1839.6856	13856.5	12966.05
917.915	1841.3457	13819.65	12927.55
918.0548	1843.005	13812.5	12920.95
918.1946	1844.6636	13798.8	12908.35
918.3344	1846.3214	13732	12839.65
918.4742	1847.9785	13721.85	12831.1
918.6139	1849.6349	13707.05	12814.55
918.7537	1851.2904	13668.65	12766.5
918.8934	1852.9453	13624.75	12729.1
919.0331	1854.5994	13617.9	12722.1
919.1727	1856.2528	13602.9	12706.8
919.3124	1857.9054	13560.85	12668.45
919.452	1859.5572	13558.95	12670.3
919.5916	1861.2083	13539.95	12647.45
919.7312	1862.8587	13519.45	12624.75
919.8708	1864.5084	13497.15	12603.35
920.0103	1866.1572	13458.85	12564.6
920.1498	1867.8054	13376.75	12482.85
920.2893	1869.4528	13345.75	12450.85
920.4288	1871.0994	13297.7	12404.2
920.5683	1872.7453	13294.95	12400.9
920.7077	1874.3905	13270.4	12371.15
920.8471	1876.0349	13238.65	12344.45
920.9865	1877.6786	13226.3	12331.1
921.1259	1879.3215	13213.3	12320.15
921.2653	1880.9637	13169.45	12278.05
921.4046	1882.6051	13164.75	12275.8
921.5439	1884.2458	13129.8	12235.75
921.6832	1885.8858	13083.9	12191.3
921.8225	1887.525	13060.95	12167.6
921.9617	1889.1634	12947.75	12055.55
922.101	1890.8011	12916.7	12023.4
922.2402	1892.4381	12925.7	12031.7
922.3794	1894.0743	12897.7	12005.3
922.5185	1895.7098	12885.5	11991.55
922.6577	1897.3446	12845.7	11952.45
922.7968	1898.9786	12837	11940.35
922.9359	1900.6118	12792.7	11902.2
923.075	1902.2443	12723.5	11830.95
923.214	1903.8761	12718.9	11826.75
923.3531	1905.5071	12638.3	11746.8
923.4921	1907.1374	12622.9	11730.85
923.6311	1908.7669	12585.1	11694.4
923.77	1910.3957	12587.15	11696.5
923.909	1912.0237	12498.2	11607.75
924.0479	1913.651	12469.2	11579.15
924.1868	1915.2776	12440.5	11547.6
924.3257	1916.9034	12419.3	11528.85
924.4646	1918.5285	12353.95	11465.55
924.6034	1920.1528	12265.9	11373.25
924.7422	1921.7764	12282.9	11391.7
924.881	1923.3992	12254	11363.65
925.0198	1925.0213	12153.25	11261.5
925.1586	1926.6427	12125	11235.85
925.2973	1928.2633	12140.9	11174.1
925.436	1929.8832	12077.9	11185.8
925.5747	1931.5023	11995.95	11105.45
925.7134	1933.1207	11987.8	11097.4
925.852	1934.7383	11993.5	11100.95
925.9906	1936.3552	11924	11036.1
926.1292	1937.9714	11879.85	10987.7
926.2678	1939.5868	11850.75	10958.8
926.4064	1941.2015	11788.65	10893.1
926.5449	1942.8154	11780.6	10888.15
926.6834	1944.4286	11718.3	10823.8
926.8219	1946.041	11680.35	10766.05
926.9604	1947.6528	11609.55	10712.1
927.0988	1949.2637	11578.3	10690.25
927.2372	1950.8739	11552.5	10663.2
927.3756	1952.4834	11542.1	10649.65
927.514	1954.0921	11507.3	10618.05
927.6523	1955.7001	11457.25	10562.6
927.7907	1957.3074	11447.25	10557.15
927.929	1958.9139	11382	10494.85
928.0673	1960.5197	11370.25	10481.7
928.2055	1962.1247	11319.35	10429.7
928.3438	1963.729	11261.85	10373.4
928.482	1965.3325	11245.95	10336.05
928.6202	1966.9353	11215.5	10328.85
928.7584	1968.5374	11166.5	10279.5
928.8965	1970.1387	11141.15	10251.8
929.0346	1971.7393	11094	10206.9
929.1727	1973.3392	11075.6	10187.7
929.3108	1974.9383	11007.85	10122.3
929.4489	1976.5366	10948.15	10061
929.5869	1978.1342	10976.05	10086.55
929.7249	1979.7311	10922.1	10034.8
929.8629	1981.3273	10898.8	10011.95
930.0009	1982.9227	10858.7	9970.15
930.1388	1984.5173	10851.3	9964.8
930.2767	1986.1112	10770.85	9885.25
930.4146	1987.7044	10756.2	9870.55
930.5525	1989.2968	10755.85	9867.85
930.6904	1990.8885	10726.9	9836.65
930.8282	1992.4795	10706.8	9819.5
930.966	1994.0697	10657.45	9772.7
931.1038	1995.6592	10628.3	9745.2
931.2415	1997.2479	10576.95	9690.3
931.3793	1998.8359	10565.35	9676.85
931.517	2000.4232	10526.1	9642.7
931.6547	2002.0097	10511.25	9628.55
931.7923	2003.5955	10448.15	9562.3
931.93	2005.1805	10424.85	9536.4
932.0676	2006.7648	10426.95	9541.25
932.2052	2008.3484	10368.75	9484.4
932.3427	2009.9312	10368.55	9482.2
932.4803	2011.5133	10355.2	9471.55
932.6178	2013.0946	10337.05	9454.15
932.7553	2014.6752	10286.95	9401.95
932.8928	2016.2551	10257.6	9372.3
933.0302	2017.8342	10179.1	9294.8
933.1676	2019.4126	10190.4	9308.35
933.305	2020.9902	10135.9	9252.6
933.4424	2022.5672	10135.3	9251.25
933.5798	2024.1433	10109.95	9221.5
933.7171	2025.7188	10064.95	9184.25
933.8544	2027.2935	10020.8	9137.2
933.9917	2028.8674	10008.4	9125.95
934.129	2030.4406	9976.05	9094.05
934.2662	2032.0131	9956.4	9073.95
934.4034	2033.5849	9909.65	9020.35
934.5406	2035.1559	9892.35	9009.1
934.6778	2036.7261	9895.5	9010.4
934.8149	2038.2957	9842.15	8956.5
934.952	2039.8645	9837.4	8952.8
935.0891	2041.4325	9826.2	8936.8
935.2262	2042.9998	9762.9	8878.35
935.3632	2044.5664	9755.2	8870.2
935.5002	2046.1323	9738	8855.3
935.6372	2047.6974	9710.1	8828.25
935.7742	2049.2617	9693.15	8810.3
935.9111	2050.8254	9676.2	8769.75
936.048	2052.3883	9626.85	8741.45
936.1849	2053.9504	9610.4	8724.7
936.3218	2055.5118	9569.85	8685.35
936.4586	2057.0725	9543.75	8654.1
936.5955	2058.6325	9527.55	8642.85
936.7323	2060.1917	9495.15	8611.9
936.869	2061.7502	9507.05	8620.6
937.0058	2063.3079	9446.4	8564.5
937.1425	2064.8649	9416.2	8530.9
937.2792	2066.4212	9404.7	8519.7
937.4159	2067.9767	9376.65	8492.65
937.5525	2069.5315	9342.95	8458.75
937.6891	2071.0856	9301.2	8418.15
937.8257	2072.6389	9268.25	8383.45
937.9623	2074.1915	9211.5	8329.75
938.0989	2075.7433	9171.35	8287
938.2354	2077.2945	9165.05	8284.05
938.3719	2078.8448	9138.2	8253.35
938.5084	2080.3945	9118.3	8234.85
938.6448	2081.9434	9099.4	8215.8
938.7812	2083.4916	9057	8172.5
938.9176	2085.039	9043	8154.5
939.054	2086.5857	9040	8150.5
939.1903	2088.1317	9011.55	8123.4
939.3267	2089.677	9001.8	8113.2
939.463	2091.2215	8961.45	8073.2
939.5992	2092.7652	8940.6	8050.6
939.7355	2094.3083	8915.95	8026.9
939.8717	2095.8506	8897.8	8012.85
940.0079	2097.3921	8907.5	8022.05
940.1441	2098.933	8874.8	7988.15
940.2802	2100.4731	8834.95	7949.1
940.4163	2102.0124	8832.2	7938.7
940.5524	2103.5511	8780.15	7892.65
940.6885	2105.089	8783.7	7898.65
940.8245	2106.6261	8781.65	7895.35
940.9606	2108.1626	8760.25	7872
941.0965	2109.6983	8752.3	7836.05
941.2325	2111.2332	8734.45	7849.15
941.3684	2112.7675	8702.8	7816.2
941.5044	2114.301	8643.25	7756.2
941.6403	2115.8337	8632.3	7748.85
941.7761	2117.3657	8607.3	7721.6
941.912	2118.897	8600.9	7713.75
942.0478	2120.4276	8573.1	7679.2
942.1835	2121.9575	8541.25	7653.25
942.3193	2123.4866	8526.55	7636.4
942.455	2125.0149	8510.5	7620.7
942.5907	2126.5426	8461.55	7579.75
942.7264	2128.0695	8434.25	7545.75
942.8621	2129.5956	8450.9	7569.2
942.9977	2131.1211	8429.55	7541.7
943.1333	2132.6458	8390.6	7504.7
943.2689	2134.1698	8371	7482.9
943.4044	2135.693	8362.25	7472.2
943.54	2137.2155	8348.95	7458.8
943.6755	2138.7373	8314.65	7427.9
943.8109	2140.2584	8294.4	7411.2
943.9464	2141.7787	8262.1	7372.45
944.0818	2143.2983	8236.35	7355.45
944.2172	2144.8171	8208.15	7327.95
944.3526	2146.3353	8179.05	7291.5
944.4879	2147.8527	8153.05	7270.05
944.6232	2149.3693	8175.9	7288.65
944.7585	2150.8853	8127.7	7241.05
944.8938	2152.4005	8091.15	7205.1
945.029	2153.9149	8080.1	7193.15
945.1642	2155.4287	8147.35	7159.85
945.2994	2156.9417	8050.9	7162.4
945.4346	2158.454	8037.6	7148.4
945.5697	2159.9655	8000.75	7118.2
945.7048	2161.4764	7976.6	7094.05
945.8399	2162.9865	7946.1	7058.85
945.9749	2164.4958	7927.2	7042
946.1099	2166.0045	7924.7	7038.2
946.2449	2167.5124	7904.3	7017.45
946.3799	2169.0195	7878.25	6991.4
946.5148	2170.526	7874.65	6987
946.6498	2172.0317	7853.2	6966.9
946.7846	2173.5367	7827.35	6940.7
946.9195	2175.0409	7782.35	6898.25
947.0543	2176.5445	7782.7	6896.65
947.1891	2178.0473	7774.85	6888.5
947.3239	2179.5494	7726.75	6837.15
947.4587	2181.0507	7696.95	6810.35
947.5934	2182.5513	7691.45	6807.05
947.7281	2184.0512	7685.85	6799.35
947.8628	2185.5504	7645.8	6759
947.9974	2187.0488	7586.1	6700.85
948.132	2188.5465	7599.4	6714.9
948.2666	2190.0435	7589	6703.95
948.4012	2191.5397	7556.25	6670.7
948.5357	2193.0353	7537.5	6653.15
948.6702	2194.5301	7496.4	6609.05
948.8047	2196.0241	7487.35	6598.55
948.9392	2197.5175	7465.6	6576.7
949.0736	2199.0101	7435.1	6545.15
949.208	2200.502	7394.7	6511.1
949.3424	2201.9931	7353.65	6470.45
949.4767	2203.4835	7348.1	6462.7
949.611	2204.9733	7349.9	6446.4
949.7453	2206.4622	7315.5	6430.85
949.8796	2207.9505	7302.85	6416.3
950.0138	2209.438	7248.35	6367.45
950.148	2210.9248	7242.85	6357.85
950.2822	2212.4109	7216.45	6333.2
950.4164	2213.8962	7194.35	6305.9
950.5505	2215.3809	7161.75	6273.9
950.6846	2216.8648	7165.65	6276.25
950.8186	2218.3479	7146.05	6254.55
950.9527	2219.8304	7112.85	6221.1
951.0867	2221.3121	7083.1	6191.55
951.2207	2222.7931	7073.9	6186.35
951.3546	2224.2733	7037.95	6150.85
951.4886	2225.7529	7010.75	6125.45
951.6225	2227.2317	7009.45	6121.1
951.7563	2228.7098	6983.5	6101.15
951.8902	2230.1872	6973.85	6090.95
952.024	2231.6638	6958.4	6075.35
952.1578	2233.1397	6940.45	6052.6
952.2916	2234.6149	6906.15	6022.5
952.4253	2236.0894	6863.3	5977.8
952.559	2237.5632	6872.95	5986.85
952.6927	2239.0362	6846	5960.4
952.8263	2240.5085	6834.1	5948.05
952.9599	2241.9801	6804.7	5917.35
953.0935	2243.4509	6749.25	5863.7
953.2271	2244.921	6749.55	5861
953.3606	2246.3904	6745.3	5858.05
953.4941	2247.8591	6701.55	5814.55
953.6276	2249.3271	6677.85	5791.5
953.7611	2250.7943	6671	5782.35
953.8945	2252.2608	6648.35	5763.05
954.0279	2253.7266	6622.4	5737.35
954.1612	2255.1917	6634.65	5749
954.2946	2256.656	6586.75	5699.55
954.4279	2258.1197	6591.85	5706.85
954.5612	2259.5826	6565.4	5678.25
954.6944	2261.0447	6557.5	5670.75
954.8276	2262.5062	6515.35	5626.25
954.9608	2263.9669	6513.45	5622.9
955.094	2265.4269	6523.1	5638.55
955.2271	2266.8862	6487.75	5602.15
955.3602	2268.3448	6471.3	5586.15
955.4933	2269.8026	6459.25	5574.05
955.6264	2271.2598	6445.55	5559.75
955.7594	2272.7162	6424.15	5537.9
955.8924	2274.1719	6415.8	5529.5
956.0253	2275.6268	6391.65	5503.95
956.1583	2277.0811	6383.05	5495.9
956.2912	2278.5346	6365.6	5478.95
956.4241	2279.9874	6349.65	5463.9
956.5569	2281.4395	6343.9	5459.25
956.6897	2282.8908	6313.9	5422.95
956.8225	2284.3414	6308.3	5421.05
956.9553	2285.7914	6278.5	5394
957.088	2287.2406	6273.05	5382.65
957.2207	2288.689	6238.95	5352.8
957.3534	2290.1368	6236.65	5347.5
957.486	2291.5838	6226.15	5337.75
957.6186	2293.0302	6197.45	5306.6
957.7512	2294.4758	6186.15	5300.55
957.8838	2295.9206	6172.6	5283.1
958.0163	2297.3648	6139.1	5252.2
958.1488	2298.8082	6153.45	5264.8
958.2813	2300.251	6138.95	5251.6
958.4137	2301.693	6119	5229.2
958.5461	2303.1343	6091.6	5203.15
958.6785	2304.5748	6064.1	5177.15
958.8108	2306.0147	6038.8	5154.3
958.9432	2307.4538	6019.8	5132.65
959.0754	2308.8922	6006.4	5123.2
959.2077	2310.3299	6004.35	5118.6
959.3399	2311.7669	5991.9	5107.5
959.4721	2313.2031	5965.7	5078.55
959.6043	2314.6387	5926.35	5039.95
959.7365	2316.0735	5917.4	5029.85
959.8686	2317.5076	5917.5	5031.5
960.0006	2318.941	5903.55	5016.3
960.1327	2320.3737	5890.3	5000.35
960.2647	2321.8056	5880.3	4991.9
960.3967	2323.2369	5862.85	4977.55
960.5287	2324.6674	5839.7	4950.6
960.6606	2326.0972	5823.2	4935.05
960.7925	2327.5263	5796.75	4911.1
960.9244	2328.9547	5783.2	4896.4
961.0562	2330.3823	5783.05	4893.25
961.1881	2331.8092	5772.2	4881.45
961.3198	2333.2355	5760.4	4871.8
961.4516	2334.661	5749.9	4861.8
961.5833	2336.0858	5711.5	4821.6
961.715	2337.5098	5703.5	4816.05
961.8467	2338.9332	5690.75	4803.75
961.9783	2340.3558	5672.05	4782.65
962.1099	2341.7778	5664.25	4779.05
962.2415	2343.199	5633.75	4745.4
962.373	2344.6195	5621.35	4735.85
962.5045	2346.0393	5603.8	4718.7
962.636	2347.4583	5607.1	4720.6
962.7675	2348.8767	5582.85	4697.05
962.8989	2350.2943	5567.2	4679.4
963.0303	2351.7113	5583.35	4692.25
963.1617	2353.1275	5557.75	4666.85
963.293	2354.543	5548.05	4635.55
963.4243	2355.9578	5532.4	4644.05
963.5556	2357.3718	5481.3	4596
963.6868	2358.7852	5468	4581.6
963.818	2360.1978	5436.25	4548.15
963.9492	2361.6098	5444.9	4558.6
964.0803	2363.021	5435.6	4543.5
964.2114	2364.4315	5417.4	4532.25
964.3425	2365.8413	5385.4	4496.8
964.4736	2367.2504	5374.3	4488.45
964.6046	2368.6587	5365.7	4480.35
964.7356	2370.0664	5358.8	4473.25
964.8666	2371.4733	5321.25	4433.7
964.9975	2372.8795	5318	4430.55
965.1284	2374.285	5308.65	4422.6
965.2593	2375.6899	5268.9	4383.75
965.3901	2377.0939	5254.2	4367.05
965.5209	2378.4973	5222	4334.4
965.6517	2379.9	5222.1	4334.6
965.7825	2381.3019	5176.55	4289.5
965.9132	2382.7032	5185.8	4300.8
966.0439	2384.1037	5192.6	4308.2
966.1745	2385.5035	5166.5	4282.8
966.3051	2386.9027	5165.65	4280.25
966.4357	2388.3011	5155.5	4267.05
966.5663	2389.6987	5136.6	4249.2
966.6968	2391.0957	5115.1	4229.3
966.8273	2392.492	5086.6	4202.35
966.9578	2393.8876	5071.15	4186.1
967.0882	2395.2824	5034.55	4147.2
967.2186	2396.6765	5036.8	4153.25
967.349	2398.07	5027.55	4141.15
967.4793	2399.4627	5024.25	4136
967.6097	2400.8547	4998.55	4108.35
967.7399	2402.246	4966.45	4071.2
967.8702	2403.6366	4952.4	4064.85
968.0004	2405.0265	4962.25	4075.8
968.1306	2406.4156	4916.5	4027.75
968.2607	2407.8041	4916.55	4025.75
968.3909	2409.1918	4881.75	3988.7
968.521	2410.5789	4870.6	3984.25
968.651	2411.9652	4864.55	3975.4
968.781	2413.3508	4857.7	3969.5
968.911	2414.7358	4837.85	3947.75
969.041	2416.12	4818.3	3929.45
969.1709	2417.5035	4827.15	3941.95
969.3008	2418.8863	4797.4	3909
969.4307	2420.2684	4768.65	3881.2
969.5606	2421.6497	4756.7	3866.05
969.6904	2423.0304	4734	3848.65
969.8201	2424.4104	4738.1	3850.3
969.9499	2425.7896	4717.95	3830.3
970.0796	2427.1682	4705.2	3819.55
970.2093	2428.546	4680.9	3791.55
970.3389	2429.9232	4693.05	3804.1
970.4685	2431.2996	4677.3	3789.5
970.5981	2432.6753	4679.6	3790.75
970.7277	2434.0503	4641.2	3752.7
970.8572	2435.4246	4622.2	3735.55
970.9867	2436.7982	4626.65	3738.95
971.1161	2438.1711	4605.85	3718.3
971.2456	2439.5433	4603.1	3712.8
971.375	2440.9148	4576.1	3683.15
971.5043	2442.2856	4558.95	3673.75
971.6336	2443.6557	4553.25	3662.45
971.7629	2445.025	4533.1	3648.05
971.8922	2446.3937	4516.6	3628.5
972.0214	2447.7617	4504.75	3615.25
972.1506	2449.1289	4503.15	3616.95
972.2798	2450.4955	4480.8	3591
972.4089	2451.8613	4487.85	3601.55
972.538	2453.2265	4458.4	3571.1
972.6671	2454.5909	4463.65	3575.95
972.7961	2455.9546	4454.55	3569.5
972.9251	2457.3177	4444.55	3557.4
973.0541	2458.68	4425.75	3537.15
973.1831	2460.0416	4430.3	3543.55
973.312	2461.4025	4413.8	3525.7
973.4408	2462.7627	4414.1	3514.85
973.5697	2464.1222	4390.8	3505.55
973.6985	2465.4811	4385.85	3499
973.8273	2466.8392	4360.45	3474.15
973.956	2468.1966	4349.05	3460.25
974.0847	2469.5533	4347	3457.15
974.2134	2470.9093	4333.15	3445.65
974.3421	2472.2645	4320.3	3435
974.4707	2473.6191	4314.75	3428.2
974.5993	2474.973	4292.65	3407.1
974.7278	2476.3262	4294.35	3406.7
974.8563	2477.6787	4281.2	3397.25
974.9848	2479.0305	4245.95	3360.25
975.1132	2480.3816	4257.7	3369.15
975.2417	2481.7319	4230.9	3343.7
975.37	2483.0816	4226.2	3337.6
975.4984	2484.4306	4206.05	3317.9
975.6267	2485.7789	4176.65	3292.6
975.755	2487.1264	4173.1	3284.75
975.8833	2488.4733	4164.25	3280.45
976.0115	2489.8195	4168.85	3266.15
976.1397	2491.165	4147.5	3258.2
976.2678	2492.5097	4117.75	3229.35
976.3959	2493.8538	4116.1	3231.15
976.524	2495.1972	4103.9	3216.75
976.6521	2496.5398	4081.65	3193.6
976.7801	2497.8818	4069	3179.7
976.9081	2499.2231	4063.7	3176
977.036	2500.5637	4051.8	3162.4
977.164	2501.9035	4045.5	3157.35
977.2918	2503.2427	4038	3146.2
977.4197	2504.5812	4015.3	3127.7
977.5475	2505.919	4020.6	3131.15
977.6753	2507.256	4013.45	3126.25
977.8031	2508.5924	3982.2	3094.85
977.9308	2509.9281	3995.55	3104.95
978.0585	2511.2631	3958.25	3071.5
978.1861	2512.5974	3959.15	3072.35
978.3137	2513.9309	3946.75	3058.35
978.4413	2515.2638	3950.5	3034.25
978.5689	2516.596	3937.05	3049.95
978.6964	2517.9275	3925.5	3038.8
978.8239	2519.2583	3897.2	3009.25
978.9513	2520.5884	3889.3	3000.25
979.0788	2521.9178	3872.05	2984.65
979.2062	2523.2465	3872.85	2985.75
979.3335	2524.5745	3857.45	2972.55
979.4608	2525.9018	3844.95	2956.9
979.5881	2527.2284	3842.9	2956.65
979.7154	2528.5543	3826.4	2940.8
979.8426	2529.8796	3821.1	2934.1
979.9698	2531.2041	3809.8	2923.15
980.0969	2532.5279	3798.3	2911.7
980.224	2533.851	3794.8	2907.2
980.3511	2535.1735	3778.6	2892.55
980.4781	2536.4952	3792.55	2905.65
980.6052	2537.8163	3768.45	2881.55
980.7321	2539.1366	3759.95	2872.4
980.8591	2540.4562	3742.95	2852.35
980.986	2541.7752	3746.05	2858.9
981.1129	2543.0935	3740.35	2851.3
981.2397	2544.411	3734.2	2845.1
981.3665	2545.7279	3726	2838.95
981.4933	2547.0441	3733.75	2842.8
981.62	2548.3596	3723.05	2831.45
981.7467	2549.6744	3704	2818.75
981.8734	2550.9885	3696.1	2809.5
982.0001	2552.3019	3685.1	2798.8
982.1267	2553.6146	3684.8	2796.9
982.2532	2554.9266	3673.4	2785.6
982.3798	2556.2379	3660.8	2770.1
982.5063	2557.5485	3659.95	2774.85
982.6327	2558.8585	3655.9	2761.7
982.7592	2560.1677	3650.65	2759.35
982.8856	2561.4762	3644.8	2756.8
983.0119	2562.7841	3636.15	2746.85
983.1383	2564.0913	3617.8	2731.2
983.2646	2565.3977	3627.15	2742.55
983.3908	2566.7035	3608.6	2720.05
983.517	2568.0086	3610.6	2721.85
983.6432	2569.313	3602.25	2713.55
983.7694	2570.6167	3589.5	2697.35
983.8955	2571.9197	3587.8	2700.95
984.0216	2573.222	3584.05	2692.3
984.1476	2574.5236	3571.15	2684.25
984.2737	2575.8246	3575.45	2685.55
984.3996	2577.1248	3562.35	2671.4
984.5256	2578.4244	3539.9	2652.15
984.6515	2579.7232	3549.95	2662.75
984.7774	2581.0214	3570.3	2652.9
984.9032	2582.3189	3547.5	2662.35
985.029	2583.6157	3540.4	2647.25
985.1548	2584.9118	3521.65	2635.65
985.2806	2586.2072	3503.25	2615.75
985.4063	2587.5019	3495.95	2607.8
985.5319	2588.7959	3501.2	2613.5
985.6576	2590.0893	3505.8	2616.5
985.7832	2591.3819	3485.05	2598.2
985.9087	2592.6739	3474.15	2586.9
986.0343	2593.9652	3477.25	2588.2
986.1597	2595.2557	3458.75	2572.8
986.2852	2596.5456	3446.85	2558.55
986.4106	2597.8348	3462.85	2576.3
986.536	2599.1234	3438.95	2553
986.6614	2600.4112	3431.8	2544.8
986.7867	2601.6983	3422.75	2534
986.912	2602.9848	3415.35	2528.3
987.0372	2604.2705	3395.5	2502.45
987.1624	2605.5556	3399.85	2511.7
987.2876	2606.84	3386.05	2497.3
987.4128	2608.1237	3370.85	2483.85
987.5379	2609.4067	3364.2	2476.75
987.6629	2610.689	3350.5	2454.75
987.788	2611.9707	3347.6	2454.45
987.913	2613.2516	3330.75	2440.85
988.0379	2614.5319	3319.6	2434.15
988.1629	2615.8115	3309.3	2423.85
988.2878	2617.0903	3310.95	2422.7
988.4126	2618.3685	3272.2	2384.25
988.5375	2619.6461	3278.9	2390.05
988.6622	2620.9229	3264.45	2377.65
988.787	2622.199	3267.65	2380.2
988.9117	2623.4745	3260.2	2372.8
989.0364	2624.7493	3245.55	2359.25
989.161	2626.0234	3231.45	2346.05
989.2857	2627.2968	3244.5	2359.4
989.4102	2628.5695	3224.3	2337.8
989.5348	2629.8415	3209.4	2322.3
989.6593	2631.1128	3203.1	2314.9
989.7837	2632.3835	3197.6	2308.95
989.9082	2633.6535	3187.45	2300.95
990.0326	2634.9228	3179.05	2292.4
990.1569	2636.1914	3168.6	2284.3
990.2812	2637.4593	3153.45	2266.6
990.4055	2638.7265	3156.35	2267.6
990.5298	2639.9931	3143.95	2258.7
990.654	2641.259	3149.7	2262.8
990.7782	2642.5242	3125.35	2240.65
990.9023	2643.7887	3115.4	2227.55
991.0264	2645.0525	3120.05	2233
991.1505	2646.3156	3117	2213.15
991.2745	2647.5781	3100.55	2217.3
991.3985	2648.8398	3083.25	2198.75
991.5225	2650.1009	3092.25	2181.15
991.6464	2651.3613	3083.05	2194.6
991.7703	2652.6211	3065.9	2180.05
991.8942	2653.8801	3060.4	2174.95
992.018	2655.1385	3049.8	2162.4
992.1418	2656.3961	3041.55	2155.5
992.2655	2657.6531	3057.95	2171.85
992.3892	2658.9094	3042.25	2156.9
992.5129	2660.1651	3033.1	2147.5
992.6366	2661.42	3031	2143.9
992.7602	2662.6743	3027.5	2141.25
992.8837	2663.9279	3022.8	2136.45
993.0073	2665.1808	3021.75	2134.25
993.1307	2666.433	3006.3	2119.5
993.2542	2667.6846	3018.45	2133
993.3776	2668.9354	3006.85	2117.25
993.501	2670.1856	2990.2	2101.55
993.6244	2671.4351	2989.2	2103.1
993.7477	2672.6839	2987.3	2100.65
993.8709	2673.9321	2985.1	2098.85
993.9942	2675.1795	2970.95	2085.3
994.1174	2676.4263	2969.9	2083.25
994.2405	2677.6724	2968.3	2084.3
994.3637	2678.9179	2969.2	2081.1
994.4868	2680.1626	2956.15	2070.9
994.6098	2681.4067	2959.05	2071.25
994.7328	2682.6501	2948.5	2063.8
994.8558	2683.8928	2931.95	2045.55
994.9788	2685.1348	2930.7	2043.8
995.1017	2686.3761	2924.1	2038.75
995.2245	2687.6168	2917.55	2033.35
995.3474	2688.8568	2904.4	2018.25
995.4702	2690.0961	2891.5	2008.95
995.5929	2691.3348	2885.55	1998.5
995.7156	2692.5727	2883.2	1996.2
995.8383	2693.81	2871.75	1986.95
995.961	2695.0466	2864.4	1979.4
996.0836	2696.2826	2855.9	1967.95
996.2062	2697.5178	2862.55	1974.15
996.3287	2698.7524	2852.2	1966.45
996.4512	2699.9863	2839.15	1951.85
996.5737	2701.2195	2833.65	1949
996.6961	2702.452	2835.45	1947.5
996.8185	2703.6839	2828.65	1942.7
996.9408	2704.9151	2828.75	1942.95
997.0631	2706.1456	2812.55	1927
997.1854	2707.3755	2826.15	1940.4
997.3077	2708.6046	2827.1	1939.05
997.4299	2709.8331	2833.7	1948.15
997.552	2711.0609	2824	1936.4
997.6742	2712.2881	2819.45	1933.05
997.7963	2713.5145	2814	1927.1
997.9183	2714.7403	2831	1946.5
998.0403	2715.9654	2814.05	1926.65
998.1623	2717.1899	2825.95	1925.5
998.2842	2718.4136	2814.1	1929.6
998.4062	2719.6367	2821.2	1933.5
998.528	2720.8591	2834.4	1941.45
998.6498	2722.0809	2826.3	1940.95
998.7716	2723.3019	2830.45	1940.15
998.8934	2724.5223	2830.9	1943.95
999.0151	2725.7421	2837.9	1952
999.1368	2726.9611	2833.5	1946.2
999.2584	2728.1795	2823.6	1932.5
999.38	2729.3972	2803	1918.9
999.5016	2730.6142	2796.45	1901.4
999.6231	2731.8306	2780.1	1894.45
999.7446	2733.0462	2759.4	1873.05
999.8661	2734.2612	2741.95	1852.85
999.9875	2735.4756	2721.6	1835.2
1000.1089	2736.6892	2706.7	1819.4
1000.2302	2737.9022	2682.65	1799.95
1000.3515	2739.1145	2666.25	1779.6
1000.4728	2740.3262	2655.85	1762.1
1000.594	2741.5372	2640.8	1754
1000.7152	2742.7475	2628.25	1744.25
1000.8363	2743.9571	2624.1	1736.05
1000.9575	2745.1661	2613	1721.55
1001.0785	2746.3744	2591	1707.05
1001.1996	2747.582	2581.65	1696.3
1001.3206	2748.7889	2580.25	1693.95
1001.4415	2749.9952	2567.55	1682.2
1001.5625	2751.2008	2558.4	1672.2
1001.6833	2752.4057	2537.15	1649.45
1001.8042	2753.61	2541.1	1656.7
1001.925	2754.8136	2517.3	1628.9
1002.0458	2756.0165	2527.05	1640.95
1002.1665	2757.2188	2520.6	1637.7
1002.2872	2758.4204	2503.6	1618.95
1002.4078	2759.6213	2502.7	1614.25
1002.5285	2760.8215	2499.85	1608.2
1002.649	2762.0211	2501.05	1612.2
1002.7696	2763.22	2498.75	1607.4
1002.8901	2764.4182	2487.2	1600.4
1003.0106	2765.6158	2484.75	1599.7
1003.131	2766.8127	2462.5	1576.5
1003.2514	2768.009	2459.95	1575.9
1003.3717	2769.2045	2464.3	1577.45
1003.492	2770.3994	2456.55	1569.9
1003.6123	2771.5936	2448.2	1562.05
1003.7325	2772.7872	2435.3	1550.1
1003.8527	2773.9801	2430.7	1545.15
1003.9729	2775.1723	2439.9	1536.3
1004.093	2776.3639	2428.45	1545
1004.2131	2777.5548	2419.7	1532.85
1004.3331	2778.745	2415.7	1529.2
1004.4531	2779.9346	2419.35	1534.9
1004.5731	2781.1235	2400.4	1518.1
1004.693	2782.3117	2400.6	1517.8
1004.8129	2783.4992	2393	1510.15
1004.9328	2784.6861	2393.65	1508.3
1005.0526	2785.8723	2394.2	1507.95
1005.1723	2787.0579	2393.2	1509.25
1005.2921	2788.2428	2381.8	1498.3
1005.4118	2789.427	2377.45	1493
1005.5314	2790.6106	2383.65	1499.3
1005.651	2791.7935	2389.35	1504.75
1005.7706	2792.9757	2384.9	1503.7
1005.8902	2794.1573	2384.6	1497.05
1006.0097	2795.3382	2391.5	1508.25
1006.1291	2796.5184	2389.3	1506.75
1006.2485	2797.698	2396.4	1511.95
1006.3679	2798.8769	2402.8	1518.45
1006.4873	2800.0551	2413.95	1529.2
1006.6066	2801.2327	2412.5	1526.05
1006.7258	2802.4096	2416.35	1533.5
1006.8451	2803.5859	2438.5	1553.5
1006.9642	2804.7615	2430.45	1545.45
1007.0834	2805.9364	2456.95	1574.3
1007.2025	2807.1106	2467	1585.35
1007.3216	2808.2842	2485.45	1600.55
1007.4406	2809.4572	2495.5	1610.4
1007.5596	2810.6294	2523.95	1639.6
1007.6785	2811.801	2535.5	1652.8
1007.7975	2812.972	2565.1	1681.95
1007.9163	2814.1423	2590.85	1707.45
1008.0352	2815.3119	2619.75	1734.1
1008.154	2816.4808	2655.9	1773.55
1008.2727	2817.6491	2701.15	1814.25
1008.3914	2818.8167	2737.15	1854.2
1008.5101	2819.9837	2779.5	1890.3
1008.6288	2821.15	2803.5	1919.9
1008.7474	2822.3157	2835.2	1952.3
1008.8659	2823.4807	2879.1	1995.8
1008.9844	2824.645	2939.8	2053.75
1009.1029	2825.8086	2957.2	2074.45
1009.2214	2826.9716	3005.85	2122.1
1009.3398	2828.134	3054.1	2170.85
1009.4581	2829.2957	3080.95	2198.45
1009.5764	2830.4567	3103.2	2221.5
1009.6947	2831.617	3132.6	2247.1
1009.813	2832.7767	3131.15	2248
1009.9312	2833.9358	3118.8	2235.8
1010.0493	2835.0941	3113.95	2227
1010.1675	2836.2519	3102.3	2219.65
1010.2855	2837.4089	3086	2199.6
1010.4036	2838.5653	3059.8	2175.5
1010.5216	2839.7211	3064.95	2180.05
1010.6396	2840.8761	3064.1	2176.8
1010.7575	2842.0306	3063.8	2182.05
1010.8754	2843.1843	3081.9	2198.45
1010.9932	2844.3374	3114.05	2229.45
1011.111	2845.4899	3139.6	2254.3
1011.2288	2846.6417	3178	2293.4
1011.3465	2847.7928	3226.35	2346
1011.4642	2848.9433	3274.45	2391.65
1011.5818	2850.0931	3312.15	2428.3
1011.6995	2851.2422	3365.1	2479.9
1011.817	2852.3907	3412.85	2529.2
1011.9345	2853.5385	3451.3	2565.35
1012.052	2854.6857	3495.85	2603.8
1012.1695	2855.8323	3525.95	2641.9
1012.2869	2856.9781	3560.9	2678.3
1012.4042	2858.1233	3610.6	2727.55
1012.5216	2859.2679	3638.85	2754.8
1012.6389	2860.4118	3669.75	2785.55
1012.7561	2861.555	3718.35	2830.45
1012.8733	2862.6976	3737.8	2852.65
1012.9905	2863.8395	3764.9	2880.45
1013.1076	2864.9808	3766.75	2883.9
1013.2247	2866.1214	3799.85	2917.4
1013.3417	2867.2614	3809.4	2925.85
1013.4587	2868.4007	3810.6	2927
1013.5757	2869.5393	3811.7	2926.25
1013.6926	2870.6773	3821	2936.2
1013.8095	2871.8146	3823.9	2937.75
1013.9263	2872.9513	3830.15	2941.65
1014.0431	2874.0874	3831.45	2948
1014.1599	2875.2227	3821.7	2937.7
1014.2766	2876.3574	3793.15	2909.05
1014.3933	2877.4915	3760.8	2876.7
1014.51	2878.6249	3740.05	2857.65
1014.6266	2879.7577	3709.2	2824.4
1014.7431	2880.8898	3716.45	2822.3
1014.8596	2882.0212	3671.65	2789.3
1014.9761	2883.152	3671.3	2788
1015.0925	2884.2821	3652.6	2770.35
1015.2089	2885.4116	3645.4	2762.55
1015.3253	2886.5405	3634.95	2753.9
1015.4416	2887.6686	3641.85	2752.7
1015.5579	2888.7962	3648.6	2766.6
1015.6741	2889.923	3630.85	2749.25
1015.7903	2891.0493	3653.8	2771.85
1015.9065	2892.1748	3658.95	2777.15
1016.0226	2893.2997	3659.25	2773.95
1016.1387	2894.424	3672.5	2793.5
1016.2547	2895.5476	3675	2791.35
1016.3707	2896.6706	3681.85	2798.85
1016.4866	2897.7929	3691.8	2807.65
1016.6025	2898.9145	3716.05	2831.4
1016.7184	2900.0355	3733.05	2848.55
1016.8342	2901.1559	3754	2871.45
1016.95	2902.2756	3768.75	2885.25
1017.0658	2903.3946	3793.6	2911.8
1017.1815	2904.513	3817.2	2928.95
1017.2971	2905.6308	3836.5	2955
1017.4127	2906.7479	3845.05	2961.55
1017.5283	2907.8643	3871.1	2987
1017.6439	2908.9801	3883.15	2999.6
1017.7594	2910.0953	3878.2	2995.4
1017.8748	2911.2098	3863.95	2976.55
1017.9902	2912.3236	3864.35	2973.2
1018.1056	2913.4368	3853.8	2967.25
1018.2209	2914.5494	3837.9	2955.4
1018.3362	2915.6613	3799.25	2909.5
1018.4515	2916.7725	3787.65	2903.45
1018.5667	2917.8831	3758.65	2873.95
1018.6819	2918.9931	3728.7	2844.75
1018.797	2920.1024	3696.85	2811.6
1018.9121	2921.211	3685.9	2802.7
1019.0271	2922.319	3661.2	2777
1019.1421	2923.4264	3655.5	2772.1
1019.2571	2924.5331	3630.7	2748.2
1019.372	2925.6391	3626.55	2745.15
1019.4869	2926.7445	3623.2	2741.95
1019.6017	2927.8493	3632.1	2749.15
1019.7165	2928.9534	3633.35	2751.85
1019.8313	2930.0569	3628.35	2741.5
1019.946	2931.1597	3615.45	2731.5
1020.0606	2932.2619	3620.8	2738.1
1020.1753	2933.3634	3614.25	2731.1
1020.2899	2934.4643	3616	2727.65
1020.4044	2935.5645	3610	2720
1020.5189	2936.6641	3579.7	2693.15
1020.6334	2937.763	3551.4	2668.35
1020.7478	2938.8613	3516.3	2633.65
1020.8622	2939.959	3494.4	2608.55
1020.9765	2941.056	3441.35	2559.7
1021.0908	2942.1523	3367.7	2483.55
1021.2051	2943.248	3317.9	2434.7
1021.3193	2944.3431	3243.35	2359.55
1021.4334	2945.4375	3166.9	2284.2
1021.5476	2946.5313	3077.55	2196.95
1021.6617	2947.6244	3000.4	2118.95
1021.7757	2948.7169	2919.35	2035.25
1021.8897	2949.8087	2845.5	1964
1022.0037	2950.8999	2758.3	1875.5
1022.1176	2951.9904	2685.2	1801.7
1022.2315	2953.0803	2637.8	1755.3
1022.3453	2954.1696	2581.4	1698.55
1022.4591	2955.2582	2539.2	1656.65
1022.5728	2956.3462	2489.75	1607.1
1022.6865	2957.4335	2463.35	1579.8
1022.8002	2958.5202	2434.95	1552.05
1022.9138	2959.6062	2398.1	1516.05
1023.0274	2960.6916	2397.05	1515.7
1023.141	2961.7764	2362.45	1479.3
1023.2545	2962.8605	2351	1467.4
1023.3679	2963.9439	2345.2	1462.15
1023.4813	2965.0267	2326.45	1442.9
1023.5947	2966.1089	2350.25	1443.7
1023.708	2967.1905	2307	1426
1023.8213	2968.2714	2301.55	1421.05
1023.9346	2969.3516	2293.75	1410.95
1024.0478	2970.4312	2297.35	1407
1024.1609	2971.5102	2296.5	1414.2
1024.274	2972.5885	2300.1	1417.65
1024.3871	2973.6662	2306.9	1419.15
1024.5002	2974.7432	2302.35	1420.6
1024.6132	2975.8196	2294.55	1413.65
1024.7261	2976.8954	2278.6	1396.4
1024.839	2977.9705	2273.15	1388.4
1024.9519	2979.045	2266	1382.35
1025.0647	2980.1188	2249.7	1368.3
1025.1775	2981.192	2243.6	1363.7
1025.2902	2982.2645	2221.85	1337.25
1025.4029	2983.3364	2203.7	1320.8
1025.5156	2984.4077	2171.9	1290.55
1025.6282	2985.4783	2160.05	1272.55
1025.7407	2986.5483	2129.3	1247.75
1025.8532	2987.6177	2104.4	1222.95
1025.9657	2988.6864	2074.95	1193.6
1026.0782	2989.7545	2036.95	1154.4
1026.1906	2990.8219	2011.95	1128.8
1026.3029	2991.8887	1989.75	1105.45
1026.4152	2992.9548	1955.65	1072.5
1026.5275	2994.0204	1932.5	1051.1
1026.6397	2995.0852	1911.45	1030.3
1026.7519	2996.1495	1889.05	1005
1026.864	2997.2131	1863.25	981.7
1026.9761	2998.276	1846.75	966.45
1027.0882	2999.3383	1827.55	944.2
1027.2002	3000.4	1801.5	917.7
1027.3122	3001.4611	1792.1	909.5
1027.4241	3002.5215	1769.45	889.55
1027.536	3003.5812	1750.7	868.05
1027.6478	3004.6404	1746.7	865.95
1027.7596	3005.6989	1736.75	852.15
1027.8714	3006.7567	1724.5	841.65
1027.9831	3007.8139	1731.15	830.6
1028.0947	3008.8705	1699.65	817.3
1028.2064	3009.9264	1707.15	804.85
1028.3179	3010.9818	1687.25	805.75
1028.4295	3012.0364	1685.45	800.6
1028.541	3013.0905	1674.3	793
1028.6524	3014.1439	1664.9	782.3
1028.7638	3015.1966	1661.95	781.55
1028.8752	3016.2487	1656.4	774.9
1028.9865	3017.3002	1658.3	773.2
1029.0978	3018.3511	1649.2	769.75
1029.209	3019.4013	1654.5	772.65
1029.3202	3020.4509	1639.15	757
1029.4314	3021.4998	1646.7	763.15
1029.5425	3022.5481	1649.85	768.9
1029.6535	3023.5958	1640.95	761.2
1029.7645	3024.6428	1633.75	751.1
1029.8755	3025.6892	1629.45	746.1
1029.9864	3026.735	1630.2	747.8
1030.0973	3027.7802	1632.1	748.75
1030.2082	3028.8247	1625.8	744.25
1030.319	3029.8685	1622	738.55
1030.4297	3030.9118	1628	745.55
1030.5404	3031.9544	1621.65	741
1030.6511	3032.9963	1633.75	750.85
1030.7617	3034.0376	1627.3	746
1030.8723	3035.0783	1623.2	738.4
1030.9829	3036.1184	1620.25	737.3
1031.0934	3037.1578	1621.45	739.35
1031.2038	3038.1966	1627.6	743.8
1031.3142	3039.2348	1624.35	741.75
1031.4246	3040.2723	1620.95	731.4
1031.5349	3041.3092	1617.65	734.65
1031.6452	3042.3455	1619.2	737
1031.7554	3043.3811	1615.75	733.1
1031.8656	3044.4161	1613.75	729.2
1031.9758	3045.4505	1601.5	721
1032.0859	3046.4842	1603.4	721.4
1032.1959	3047.5173	1593.4	712.95
1032.3059	3048.5498	1595.2	712.7
1032.4159	3049.5816	1587.85	705.4
1032.5258	3050.6128	1595.1	712.6
1032.6357	3051.6434	1576.85	693.65
1032.7455	3052.6734	1574.2	690.75
1032.8553	3053.7027	1573.35	693.75
1032.9651	3054.7314	1568.45	686.3
1033.0748	3055.7594	1552.5	672
1033.1845	3056.7868	1559.8	674.7
1033.2941	3057.8136	1561.55	681.05
1033.4037	3058.8398	1549.8	670.4
1033.5132	3059.8653	1552.35	670
1033.6227	3060.8902	1548.35	666.2
1033.7321	3061.9145	1536.7	653.35
1033.8415	3062.9381	1538.55	657.7
1033.9509	3063.9612	1548.6	649.85
1034.0602	3064.9835	1533.95	651.75
1034.1694	3066.0053	1521.6	636.95
1034.2787	3067.0264	1518	636.8
1034.3878	3068.0469	1521.05	637.45
1034.497	3069.0668	1515.7	631.5
1034.6061	3070.086	1499.7	619.2
1034.7151	3071.1046	1490.9	608.85
1034.8241	3072.1226	1484.15	601.7
1034.9331	3073.1399	1482.3	601.75
1035.042	3074.1567	1473	592.2
1035.1508	3075.1727	1471.4	588.65
1035.2597	3076.1882	1461.75	581.9
1035.3684	3077.203	1457.05	574.6
1035.4772	3078.2173	1457.55	573.05
1035.5859	3079.2308	1436.15	552.45
1035.6945	3080.2438	1430.25	548
1035.8031	3081.2561	1424.65	542.45
1035.9117	3082.2678	1417.65	536.65
1036.0202	3083.2789	1411.05	530.55
1036.1286	3084.2893	1404.45	525.15
1036.2371	3085.2991	1405.8	525.7
1036.3454	3086.3083	1393.55	506.5
1036.4538	3087.3169	1390	506.45
1036.562	3088.3248	1387.1	503.9
1036.6703	3089.3321	1384.9	502.35
1036.7785	3090.3388	1379.9	499.1
1036.8866	3091.3449	1368.1	487.85
1036.9948	3092.3503	1367.4	484.25
1037.1028	3093.3551	1364.8	484.6
1037.2108	3094.3593	1359.85	481.15
1037.3188	3095.3629	1356.2	476.3
1037.4267	3096.3658	1358.05	473.6
1037.5346	3097.3681	1349.2	467.4
1037.6425	3098.3698	1340.6	456.55
1037.7503	3099.3708	1345.95	457.9
1037.858	3100.3713	1335.6	453.95
1037.9657	3101.3711	1335.25	451.55
1038.0734	3102.3702	1466.6	450.45
1038.181	3103.3688	1334.95	452.9
1038.2886	3104.3667	1326.95	447.15
1038.3961	3105.364	1322.1	441.95
1038.5036	3106.3607	1316.2	433.95
1038.611	3107.3568	1311.2	429.3
1038.7184	3108.3522	1305.25	424.55
1038.8257	3109.347	1303.95	420.7
1038.933	3110.3412	1307.05	420.5
1039.0403	3111.3348	1298.05	418.65
1039.1475	3112.3277	1295.3	414.25
1039.2547	3113.32	1287.85	407.15
1039.3618	3114.3117	1294.3	414.8
1039.4689	3115.3028	1295.8	412.5
1039.5759	3116.2932	1290.95	408.85
1039.6829	3117.2831	1288.5	400.95
1039.7898	3118.2723	1278.5	396.9
1039.8967	3119.2608	1272.8	391.4
1040.0035	3120.2488	1269.45	387.25
1040.1103	3121.2361	1271.45	391.95
1040.2171	3122.2229	1266	385.1
1040.3238	3123.209	1264.9	383.65
1040.4305	3124.1944	1262.35	380.25
1040.5371	3125.1793	1265.4	381.75
1040.6437	3126.1635	1260.75	380.3
1040.7502	3127.1471	1252.6	370.4
1040.8567	3128.1301	1254.9	373.4
1040.9631	3129.1125	1255.6	374.1
1041.0695	3130.0942	1254.85	376.2
1041.1759	3131.0753	1253.4	365.3
1041.2822	3132.0558	1248.35	366.1
1041.3884	3133.0357	1243.05	361.15
1041.4946	3134.015	1245.85	364.15
1041.6008	3134.9936	1239.85	359
1041.7069	3135.9716	1259.55	356.05
1041.813	3136.949	1235.05	354.4
1041.919	3137.9258	1253.6	351.55
1042.025	3138.902	1239.6	351.5
1042.1309	3139.8775	1227.45	348.5
1042.2368	3140.8524	1221.7	340.55
1042.3427	3141.8267	1232.2	348.7
1042.4485	3142.8004	1222.95	342.05
1042.5542	3143.7735	1231.15	342.4
1042.6599	3144.7459	1229.75	346.55
1042.7656	3145.7178	1227.05	344.45
1042.8712	3146.689	1220.15	339.9
1042.9768	3147.6596	1219.05	335.75
1043.0823	3148.6295	1214.85	332.65
1043.1878	3149.5989	1218.95	337.85
1043.2932	3150.5676	1204.65	324.55
1043.3986	3151.5357	1210.1	330.55
1043.5039	3152.5032	1207.05	327.35
1043.6092	3153.4701	1200.9	319.3
1043.7145	3154.4364	1206.1	322.1
1043.8197	3155.402	1198.45	319.35
1043.9248	3156.367	1194.5	310.6
1044.03	3157.3315	1230.25	310.75
1044.135	3158.2952	1192.9	312.15
1044.24	3159.2584	1195.15	315.3
1044.345	3160.221	1192.15	311.15
1044.4499	3161.1829	1187.95	307.35
1044.5548	3162.1442	1183.75	301.65
1044.6596	3163.105	1189.75	309.05
1044.7644	3164.065	1186	302.85
1044.8692	3165.0245	1189.5	305
1044.9739	3165.9834	1176	295.9
1045.0785	3166.9416	1177	294.9
1045.1831	3167.8993	1173.8	293
1045.2877	3168.8563	1177.75	297.85
1045.3922	3169.8127	1167.35	287.65
1045.4966	3170.7684	1171.35	291.8
1045.6011	3171.7236	1169.85	288.95
1045.7054	3172.6782	1165	284.3
1045.8098	3173.6321	1171.05	290.65
1045.914	3174.5854	1168.65	281.9
1046.0183	3175.5381	1158.65	279
1046.1224	3176.4902	1161.25	281.5
1046.2266	3177.4417	1164.45	283.95
1046.3307	3178.3926	1159.75	278.15
1046.4347	3179.3428	1156.7	277.6
1046.5387	3180.2924	1158.4	277.7
1046.6427	3181.2415	1152.55	272.2
1046.7466	3182.1899	1160.95	278
1046.8504	3183.1377	1151.05	270.8
1046.9542	3184.0848	1152.75	269.45
1047.058	3185.0314	1145.8	262.95
1047.1617	3185.9773	1149.05	268.65
1047.2654	3186.9227	1144.65	260.85
1047.369	3187.8674	1142.1	262.95
1047.4726	3188.8115	1144.7	262.45
1047.5761	3189.755	1141.6	260.85
1047.6796	3190.6979	1140	260.25
1047.783	3191.6402	1140.1	259.85
1047.8864	3192.5818	1136.75	254.7
1047.9898	3193.5229	1141.25	254.05
1048.0931	3194.4633	1133.45	251.2
1048.1963	3195.4031	1137.8	256.85
1048.2995	3196.3423	1129.95	248.9
1048.4027	3197.2809	1131.55	251.6
1048.5058	3198.2189	1127.1	247.7
1048.6089	3199.1563	1127.95	240.15
1048.7119	3200.0931	1124.55	245.45
1048.8148	3201.0292	1125.05	245.5
1048.9178	3201.9648	1125.9	246.3
1049.0206	3202.8997	1121.25	238.55
1049.1235	3203.834	1121.2	241
1049.2262	3204.7677	1118	237.45
1049.329	3205.7008	1120.85	238.95
1049.4317	3206.6333	1110.95	230.55
1049.5343	3207.5652	1117.7	235.75
1049.6369	3208.4964	1116.15	236.4
1049.7394	3209.4271	1116.5	236.15
1049.8419	3210.3571	1114.5	234.8
1049.9444	3211.2865	1110.45	229.45
1050.0468	3212.2154	1110.2	229.65
1050.1491	3213.1436	1112.15	229.5
1050.2514	3214.0712	1115.35	228.9
1050.3537	3214.9982	1103.2	222.95
1050.4559	3215.9246	1108.1	227.1
1050.5581	3216.8503	1106.4	227.1
1050.6602	3217.7755	1104.2	224
1050.7623	3218.7001	1104.05	222.45
1050.8643	3219.624	1099.7	219.2
1050.9663	3220.5473	1100	219.85
1051.0682	3221.4701	1096.95	215.15
1051.1701	3222.3922	1100.05	217.3
1051.2719	3223.3137	1095.5	214.6
1051.3737	3224.2346	1098.05	215.35
1051.4754	3225.1549	1090.15	210.5
1051.5771	3226.0746	1087.5	205.55
1051.6788	3226.9937	1092.5	211.6
1051.7804	3227.9121	1093.95	216.1
1051.8819	3228.83	1087.45	207.25
1051.9834	3229.7473	1087.6	207.4
1052.0849	3230.6639	1092.2	212.7
1052.1863	3231.5799	1089.35	208.5
1052.2876	3232.4954	1081.65	200.8
1052.3889	3233.4102	1078.35	197.75
1052.4902	3234.3244	1082.5	201.45
1052.5914	3235.238	1088.2	209.8
1052.6926	3236.151	1101.6	194.6
1052.7937	3237.0634	1079.5	199.75
1052.8948	3237.9752	1080.95	198.5
1052.9958	3238.8864	1076.9	196.85
1053.0968	3239.797	1070.35	191.75
1053.1977	3240.7069	1079.25	200.35
1053.2986	3241.6163	1073.8	194.2
1053.3994	3242.5251	1067.55	187.8
1053.5002	3243.4332	1068.65	188.95
1053.6009	3244.3408	1068.9	188.55
1053.7016	3245.2477	1066.65	183.7
1053.8022	3246.154	1069.55	189.1
1053.9028	3247.0598	1066.45	185
1054.0034	3247.9649	1063.95	185.1
1054.1039	3248.8694	1065.75	185.6
1054.2043	3249.7733	1061.5	181.2
1054.3047	3250.6766	1058.85	179.3
1054.4051	3251.5793	1060.75	179.7
1054.5054	3252.4814	1055.35	175.7
1054.6056	3253.3829	1057.25	176.7
1054.7058	3254.2838	1055.35	175.8
1054.806	3255.1841	1050.4	172.05
1054.9061	3256.0838	1050.05	169.8
1055.0061	3256.9829	1052.55	173.9
1055.1062	3257.8814	1049.55	166.95
1055.2061	3258.7792	1052.05	172.25
1055.306	3259.6765	1045.7	164.45
1055.4059	3260.5731	1049.1	167.4
1055.5057	3261.4692	1043.55	162.95
1055.6055	3262.3647	1044.05	163.05
1055.7052	3263.2595	1037.25	156.25
1055.8049	3264.1538	1036.45	156.5
1055.9045	3265.0474	1031.15	151.85
1056.0041	3265.9404	1028.85	148.45
1056.1036	3266.8329	1026.3	149
1056.2031	3267.7247	1037.5	147.5
1056.3025	3268.616	1020.9	143.1
1056.4019	3269.5066	1013.25	134.85
1056.5013	3270.3966	1019.6	136.7
1056.6005	3271.286	1012.1	132.35
