Software Version:	3.9.2.0
Unit SN:	10000200
Spectrometer SN:	6960
Date:	3/26/2024 1:47:26 PM
Data Line Index:	25
Spectral Points:	2048
Integration time (ms):	125
Averages:	20
Delay (ms):	30000
Sequence Number:	1
Processing:	dark subtract
Laser Power (mW):	300
Laser Current (mA):	819
Laser Diode Temp (C):	25
Laser Case Temp (C):	27.2
System Temp (C):	27.2
Spectrometer Temp (C):	25.1
CCD Temp (C):	0.002
Secondary Temp (C):	20.007
Heatsink Temp (C):	22.549
CCDPCB Temp (C):	36.84
SecondaryPCB Temp (C):	34.317

Wavelength	RamanShift	Raw Counts	Dark Subtracted
787.061	30.1047	613.65	202.45
787.2016	32.3739	623.4	214.7
787.3422	34.6426	639.4	229.5
787.4828	36.9109	653.85	241.8
787.6235	39.1787	675.45	260
787.7642	41.4461	697.1	276.05
787.9049	43.7131	721.2	295.95
788.0456	45.9796	736.5	310.15
788.1863	48.2456	757.6	325
788.3271	50.5112	788.6	352.95
788.4679	52.7764	807.65	369.5
788.6087	55.0411	833.45	391.65
788.7496	57.3054	864.35	417.55
788.8904	59.5692	898	449.4
789.0313	61.8326	926.6	473.95
789.1722	64.0955	963.35	506.9
789.3132	66.3579	1003.2	541.3
789.4541	68.6199	1054.55	590.25
789.5951	70.8815	1139.9	672.8
789.7361	73.1426	1330.15	857.4
789.8771	75.4032	1795.4	1318
790.0181	77.6634	2973.85	2488.3
790.1592	79.9231	5886.75	5392.5
790.3003	82.1824	12528.1	12015.1
790.4414	84.4412	26800.9	26250.35
790.5825	86.6995	50782.2	50183.45
790.7237	88.9574	61323.75	60678
790.8648	91.2148	63742.7	63069.85
791.006	93.4717	64229.05	63535.1
791.1472	95.7282	64389.75	63684.8
791.2885	97.9842	64434.65	63725.6
791.4297	100.2398	64431.05	63713.4
791.571	102.4949	64415.6	63703.15
791.7123	104.7495	64393.6	63674.8
791.8536	107.0036	64334.1	63617.15
791.9949	109.2573	64366.45	63647.55
792.1363	111.5105	64307.95	63588.4
792.2777	113.7632	64291.2	63568.7
792.4191	116.0154	64303.9	63572.25
792.5605	118.2672	64366.3	63640.9
792.7019	120.5185	64333.6	63601.85
792.8434	122.7693	64342.25	63609.5
792.9849	125.0197	64263.85	63530.35
793.1264	127.2696	64383.15	63651.55
793.2679	129.519	64351.95	63614.2
793.4094	131.7679	64391.8	63642.75
793.551	134.0163	64268.7	63520.9
793.6926	136.2642	64325.2	63569.5
793.8342	138.5117	64380.6	63620.2
793.9758	140.7587	64337.1	63582.3
794.1175	143.0052	64327.4	63564.85
794.2591	145.2512	64246.9	63488.15
794.4008	147.4967	64320.35	63560
794.5425	149.7417	64302.55	63546.3
794.6842	151.9863	64273.75	63507.05
794.826	154.2304	64236.85	63471.6
794.9677	156.4739	64251.9	63476.65
795.1095	158.717	64321.1	63548.75
795.2513	160.9596	64270.7	63489.65
795.3931	163.2017	64197.45	63420.85
795.535	165.4433	64259.7	63478.5
795.6768	167.6844	64204.3	63423.35
795.8187	169.925	64226.6	63444.65
795.9606	172.1651	64144.5	63360.4
796.1025	174.4047	64196	63407.45
796.2445	176.6439	64160.8	63370.7
796.3864	178.8825	64094.45	63295.35
796.5284	181.1206	64222.35	63425.55
796.6704	183.3582	64189.65	63383.3
796.8124	185.5954	64161.45	63357.05
796.9544	187.832	64151.8	63345.5
797.0965	190.0681	64072.45	63262.3
797.2386	192.3037	64178.75	63363.6
797.3806	194.5388	64268.7	63450.65
797.5228	196.7734	64014.75	63190.95
797.6649	199.0075	64282.15	63458
797.807	201.2411	64187.75	63355.65
797.9492	203.4742	64294.7	63466.3
798.0914	205.7068	64272.35	63445.5
798.2336	207.9389	64281.35	63454.1
798.3758	210.1704	64276.9	63444.4
798.518	212.4015	64326.9	63496.6
798.6603	214.632	64282.3	63448.55
798.8025	216.862	64325.15	63498.75
798.9448	219.0915	64286.3	63468.25
799.0871	221.3205	64303.55	63488.3
799.2294	223.549	64343.8	63528.9
799.3718	225.777	64342.7	63533.15
799.5141	228.0044	64363.35	63547.8
799.6565	230.2314	64358.35	63547.55
799.7989	232.4578	64352.45	63541.7
799.9413	234.6837	64367.75	63551.5
800.0837	236.909	64378.2	63561.35
800.2262	239.1339	64364.45	63516.75
800.3687	241.3582	64373.85	63542.5
800.5111	243.582	64363.55	63505.25
800.6536	245.8053	64372.9	63523.9
800.7961	248.0281	64367.45	63521.35
800.9387	250.2503	64380.05	63528.85
801.0812	252.472	64363.75	63503.7
801.2238	254.6932	64372.9	63514.8
801.3664	256.9139	64366.55	63510.8
801.509	259.134	64365	63506.65
801.6516	261.3536	64360.35	63498.2
801.7942	263.5727	64377.55	63515.3
801.9369	265.7912	64373.2	63510
802.0795	268.0092	64385.4	63527.5
802.2222	270.2267	64382.3	63518.05
802.3649	272.4436	64376.7	63514.9
802.5076	274.6601	64380.2	63515.15
802.6504	276.8759	64376.85	63515.45
802.7931	279.0913	64374.85	63512
802.9359	281.3061	64379.25	63515.6
803.0787	283.5204	64378.4	63507.65
803.2215	285.7341	64378.65	63504.95
803.3643	287.9473	64385.75	63502.3
803.5071	290.16	64382.55	63501.25
803.6499	292.3721	64387.35	63509.9
803.7928	294.5837	64378.3	63502.6
803.9357	296.7947	64383.7	63508.75
804.0786	299.0052	64387.1	63511.35
804.2215	301.2152	64384.65	63503.55
804.3644	303.4246	64393.25	63519.8
804.5074	305.6334	64379.45	63507
804.6503	307.8418	64358.5	63480.65
804.7933	310.0495	64357.05	63475.5
804.9363	312.2568	64344.8	63462.9
805.0793	314.4635	64328.95	63452.75
805.2223	316.6696	64348.85	63467
805.3653	318.8752	64335.85	63442.25
805.5084	321.0802	64300.25	63416.95
805.6514	323.2847	64312.1	63425.1
805.7945	325.4887	64317.6	63429.7
805.9376	327.692	64302.5	63414.5
806.0807	329.8949	64306.6	63419.75
806.2238	332.0972	64308.3	63421.1
806.367	334.2989	64308.65	63418.6
806.5101	336.5001	64316.1	63420.35
806.6533	338.7007	64248.1	63352.55
806.7965	340.9008	64290.75	63394.75
806.9397	343.1003	64290.15	63392.05
807.0829	345.2992	64302.25	63402.5
807.2261	347.4976	64270.55	63372.8
807.3693	349.6955	64289.45	63386.65
807.5126	351.8927	64263.4	63357.3
807.6559	354.0895	64282.3	63368.2
807.7991	356.2856	64285.45	63381.85
807.9424	358.4812	64281.65	63383.6
808.0857	360.6763	64213.3	63307.85
808.2291	362.8707	64295.5	63390.2
808.3724	365.0646	64265.2	63355.25
808.5158	367.258	64274.9	63372.7
808.6591	369.4508	64217.85	63312
808.8025	371.643	64282.75	63370.75
808.9459	373.8346	64247.85	63334.55
809.0893	376.0257	64265.05	63346.7
809.2327	378.2162	64243.7	63331.7
809.3762	380.4062	64176.5	63261.3
809.5196	382.5956	64238.35	63321.1
809.6631	384.7844	64227.95	63313.75
809.8066	386.9726	64248.75	63335.3
809.9501	389.1603	64227.95	63310.7
810.0936	391.3474	64174.1	63217.3
810.2371	393.5339	64209.15	63287.05
810.3806	395.7199	64114.8	63203.15
810.5241	397.9052	64137.5	63225.7
810.6677	400.09	64161.05	63256.85
810.8113	402.2743	64230.55	63327.65
810.9548	404.4579	64124.95	63216.75
811.0984	406.641	64157.05	63251.55
811.2421	408.8235	64176.3	63272.4
811.3857	411.0054	64212.4	63303.05
811.5293	413.1868	64227.3	63316.35
811.673	415.3675	64187.65	63271.9
811.8166	417.5477	64202.75	63290.6
811.9603	419.7273	64210	63295.9
812.104	421.9064	64208.3	63286.7
812.2477	424.0848	64214.9	63294.15
812.3914	426.2627	64234.8	63313.85
812.5351	428.4399	64151.2	63230.8
812.6788	430.6166	64023	63094.3
812.8226	432.7928	64133.55	63210.45
812.9663	434.9683	64020.2	63097.3
813.1101	437.1432	63988.1	63068.7
813.2539	439.3176	64096.4	63180.2
813.3977	441.4914	63936.2	63021.7
813.5415	443.6645	63960.4	63044.5
813.6853	445.8371	63983.05	63062.9
813.8291	448.0091	63918.45	62996.05
813.973	450.1806	63854.2	62931.9
814.1168	452.3514	63885.05	62965.75
814.2607	454.5216	63790.05	62869.05
814.4046	456.6913	63894.2	62971.85
814.5485	458.8603	63929.25	63009.25
814.6924	461.0288	63786.2	62872.95
814.8363	463.1967	63895.15	62981.75
814.9802	465.3639	63884.25	62965.2
815.1241	467.5306	63675.9	62758.35
815.2681	469.6967	63801.55	62884.1
815.412	471.8622	63887	62973.1
815.556	474.0271	63811.5	62895.6
815.7	476.1914	63826.05	62898.35
815.844	478.3551	63823.95	62901.45
815.988	480.5182	63950.15	63031.6
816.132	482.6807	63791.55	62883.8
816.276	484.8426	63823.55	62919.65
816.4201	487.0039	63965.9	63053.55
816.5641	489.1647	63957.6	63035.55
816.7082	491.3248	63804.55	62885.1
816.8522	493.4843	63991.45	63076.35
816.9963	495.6432	63990.85	63072.95
817.1404	497.8015	63818.3	62888.4
817.2845	499.9592	63910.9	62974.15
817.4286	502.1163	63888.1	62954.6
817.5727	504.2728	63857.9	62933.3
817.7168	506.4287	63841.15	62927.65
817.861	508.5839	63749.3	62833
818.0051	510.7386	63806.2	62882.55
818.1493	512.8927	63801.8	62876.5
818.2935	515.0461	63765.3	62839.6
818.4377	517.199	63850.25	62918.15
818.5818	519.3512	63770.4	62841.65
818.726	521.5029	63786.85	62859.7
818.8703	523.6539	63823.45	62896.15
819.0145	525.8043	63701.65	62773.25
819.1587	527.9541	63797.6	62864.2
819.303	530.1033	63773.2	62844.1
819.4472	532.2519	63726.25	62797.15
819.5915	534.3999	63797.25	62867.15
819.7357	536.5472	63855.3	62928.55
819.88	538.694	63705.45	62784
820.0243	540.8401	63796.8	62866.1
820.1686	542.9856	63813.25	62872.1
820.3129	545.1305	63879.5	62934.3
820.4572	547.2748	63759.9	62810.65
820.6016	549.4185	63750.5	62797.75
820.7459	551.5615	63834.75	62890.05
820.8902	553.704	63813.95	62866.05
821.0346	555.8458	63738.5	62793.4
821.1789	557.987	63768.75	62826.55
821.3233	560.1276	63812.55	62869.3
821.4677	562.2675	63761.55	62815.9
821.6121	564.4069	63800.3	62857.55
821.7565	566.5456	63881.45	62941.2
821.9009	568.6837	63778.25	62837.7
822.0453	570.8212	63803.4	62867.6
822.1897	572.958	63597.25	62658.15
822.3342	575.0942	63708.45	62773.35
822.4786	577.2299	63594.45	62665.4
822.6231	579.3648	63573.7	62655.9
822.7675	581.4992	63522.95	62613.1
822.912	583.6329	63513.95	62602.65
823.0565	585.766	63536.2	62617.9
823.201	587.8985	63589.95	62667.35
823.3454	590.0304	63406.8	62450.05
823.4899	592.1616	63542.95	62604.25
823.6345	594.2922	63459.2	62515.85
823.779	596.4222	63337.1	62392.7
823.9235	598.5515	63366.1	62423.65
824.068	600.6802	63441.5	62501.25
824.2126	602.8083	63287.15	62346.7
824.3571	604.9358	63289.95	62346.1
824.5017	607.0626	63365.1	62417.6
824.6462	609.1888	63157.4	62202.25
824.7908	611.3144	63331.5	62382.9
824.9354	613.4393	63259.5	62304.25
825.08	615.5636	63152.95	62201.3
825.2246	617.6873	63276.65	62329
825.3692	619.8103	63116.8	62167.65
825.5138	621.9327	63267.2	62321.2
825.6584	624.0544	63252.2	62306.5
825.803	626.1756	63175.45	62238.25
825.9477	628.2961	63158.25	62211.65
826.0923	630.4159	63105.35	62156.65
826.237	632.5351	63057.8	62109.15
826.3816	634.6537	63309.25	62362.6
826.5263	636.7716	63011.8	62060.5
826.6709	638.8889	63090.5	62135.7
826.8156	641.0056	63073.45	62117
826.9603	643.1216	63108.1	62153.5
827.105	645.237	63161	62208.6
827.2497	647.3518	63000.1	62059.35
827.3944	649.4659	63033.15	62088.95
827.5391	651.5793	63040.8	62099.05
827.6838	653.6922	63102.35	62160.7
827.8285	655.8043	62846.25	61903.75
827.9733	657.9159	63154.65	62209.45
828.118	660.0268	62578.55	61633.35
828.2627	662.137	62951	62002.75
828.4075	664.2466	63009.6	62050.85
828.5522	666.3556	62883.3	61927.85
828.697	668.4639	62973.05	62024.1
828.8418	670.5716	62798.45	61857.5
828.9865	672.6786	62944.25	61993.95
829.1313	674.785	62747.9	61794
829.2761	676.8907	62764.9	61817.05
829.4209	678.9958	62856.85	61917.2
829.5657	681.1002	62887.75	61935.75
829.7105	683.204	62690.95	61729.6
829.8553	685.3072	62551.35	61596.75
830.0001	687.4097	62644.85	61690.35
830.1449	689.5115	62557.8	61603.05
830.2898	691.6127	62787.8	61839.7
830.4346	693.7132	62564.65	61616.9
830.5794	695.8131	62587	61613.75
830.7243	697.9123	62665.4	61707.7
830.8691	700.0109	62703.95	61745.85
831.014	702.1089	62420.75	61467.35
831.1588	704.2061	62494.15	61537.6
831.3037	706.3028	62550.8	61595.9
831.4486	708.3987	62579.6	61622.95
831.5935	710.4941	62429	61475.55
831.7383	712.5887	62610.6	61658.95
831.8832	714.6827	62477.2	61523.55
832.0281	716.7761	62657.45	61711
832.173	718.8688	62709	61759.3
832.3179	720.9608	62515.3	61557.95
832.4628	723.0522	62567.3	61606.55
832.6077	725.1429	62391.65	61432.25
832.7527	727.233	62845.8	61890.75
832.8976	729.3224	62147.25	61191.7
833.0425	731.4112	62393.65	61438.2
833.1874	733.4993	62381.9	61422.8
833.3324	735.5867	62354.5	61401.05
833.4773	737.6735	62164.9	61209.8
833.6222	739.7596	62005.2	61045.45
833.7672	741.845	61973.6	61018.55
833.9122	743.9298	62224.6	61269.95
834.0571	746.014	61972.95	61017.55
834.2021	748.0974	61796.1	60834.65
834.347	750.1802	62134.5	61170.35
834.492	752.2624	61670.15	60706.8
834.637	754.3439	61754.95	60795.3
834.782	756.4247	61868.05	60900.4
834.9269	758.5048	61659.4	60696.85
835.0719	760.5843	61756	60794.35
835.2169	762.6631	61903.05	60941.2
835.3619	764.7413	61845.1	60884.8
835.5069	766.8188	61976.05	61015.95
835.6519	768.8956	62158.65	61196.5
835.7969	770.9718	62165.65	61206.15
835.9419	773.0473	62065.2	61104.05
836.0869	775.1221	61815.85	60852.8
836.232	777.1962	61811.45	60847.7
836.377	779.2697	61507.25	60547.25
836.522	781.3426	61704.7	60733.3
836.667	783.4147	61759.85	60798.4
836.8121	785.4862	61673.4	60711.55
836.9571	787.557	61422.85	60461.35
837.1021	789.6271	61631.55	60667.2
837.2472	791.6966	61326	60361.4
837.3922	793.7654	60854.2	59893.2
837.5373	795.8335	60781.2	59822.05
837.6823	797.901	60814.25	59853.9
837.8274	799.9678	60603.3	59638.35
837.9724	802.0339	60543.1	59579.35
838.1175	804.0993	60534.05	59560.8
838.2626	806.1641	60403.5	59437.9
838.4076	808.2282	60313.7	59350.75
838.5527	810.2916	60185.05	59221.8
838.6978	812.3544	60422.35	59461.8
838.8428	814.4164	59934.95	58971.85
838.9879	816.4778	60062.95	59094.25
839.133	818.5385	60056.7	59092.85
839.2781	820.5986	60058.6	59097.05
839.4232	822.658	60140.8	59177
839.5682	824.7166	60257.2	59295.45
839.7133	826.7747	59981.65	59017.5
839.8584	828.832	60295.15	59328.8
840.0035	830.8886	60558.8	59591.2
840.1486	832.9446	60583.35	59614.4
840.2937	834.9999	59905.25	58942.65
840.4388	837.0545	60152.95	59182.25
840.5839	839.1085	60205.9	59238.85
840.729	841.1618	59949.45	58980.2
840.8741	843.2143	59427	58461.65
841.0192	845.2662	59388.6	58424.2
841.1643	847.3175	59537.25	58572.2
841.3095	849.368	58944.95	57976.35
841.4546	851.4179	59396.05	58431.6
841.5997	853.467	58960.85	57992.55
841.7448	855.5155	59126.15	58159
841.8899	857.5633	58763.65	57798.5
842.0351	859.6105	58539.1	57573.35
842.1802	861.6569	58806.9	57839.35
842.3253	863.7027	58313.45	57347.3
842.4704	865.7478	58451.35	57481.7
842.6156	867.7922	58320.7	57354.35
842.7607	869.8359	58529.8	57561.15
842.9058	871.8789	58054.55	57085.65
843.0509	873.9212	58329.85	57331.65
843.1961	875.9629	58284.65	57315.65
843.3412	878.0039	58279.95	57311.3
843.4863	880.0441	58117.85	57155.6
843.6315	882.0837	58125.7	57161.05
843.7766	884.1226	58113.1	57149.2
843.9218	886.1609	58110.6	57145.15
844.0669	888.1984	57942.8	56977.4
844.212	890.2352	58314.8	57347.2
844.3572	892.2714	57833.25	56860.25
844.5023	894.3069	58009.9	57040.1
844.6475	896.3416	57714.9	56747.2
844.7926	898.3757	57618.6	56650.35
844.9377	900.4091	57088.65	56118
845.0829	902.4418	57711.45	56740.35
845.228	904.4739	57281.15	56311.1
845.3732	906.5052	57375.75	56405.1
845.5183	908.5358	57117.05	56149.25
845.6635	910.5658	56899.7	55928.25
845.8086	912.595	56866.4	55900.1
845.9538	914.6236	56267.95	55302.05
846.0989	916.6515	56947.9	55980.45
846.2441	918.6786	56104.3	55133.6
846.3892	920.7051	56262.8	55295.25
846.5344	922.7309	56171.15	55199.95
846.6795	924.756	56228.95	55262.4
846.8246	926.7804	56018	55047.8
846.9698	928.8041	55419.35	54451.7
847.1149	930.8272	55816.55	54846.1
847.2601	932.8495	55826.85	54859.3
847.4052	934.8711	55358	54388.3
847.5504	936.892	55120.4	54151.3
847.6955	938.9123	55291.75	54323.75
847.8407	940.9318	54980.75	54013.05
847.9858	942.9506	54907.05	53939.7
848.131	944.9688	54955.05	53990.1
848.2761	946.9862	54182.05	53216.15
848.4213	949.003	54341	53370.35
848.5664	951.019	53636.2	52670.15
848.7115	953.0344	53690.6	52722.15
848.8567	955.0491	53607.45	52638.4
849.0018	957.063	53788.05	52820.45
849.147	959.0763	53862.4	52890.95
849.2921	961.0888	53458.15	52491.5
849.4373	963.1007	53773.6	52809.2
849.5824	965.1119	53715.35	52757.95
849.7275	967.1223	53378.4	52426.4
849.8727	969.1321	53673.5	52720.2
850.0178	971.1412	53166.2	52212.5
850.1629	973.1495	52883.8	51916.8
850.3081	975.1572	53025.15	52020.2
850.4532	977.1641	52861	51890.85
850.5983	979.1704	52721.15	51752.45
850.7435	981.1759	52650.8	51677.6
850.8886	983.1808	52391.25	51423.35
851.0337	985.1849	52353.6	51376.25
851.1788	987.1884	52399.25	51433.45
851.324	989.1911	52618.7	51650.1
851.4691	991.1932	51936.3	50970.65
851.6142	993.1945	52037.5	51073.9
851.7593	995.1951	52100.7	51130.9
851.9045	997.1951	51762.8	50789.8
852.0496	999.1943	51538.45	50573
852.1947	1001.1928	51389.65	50425.45
852.3398	1003.1906	51339.15	50372.6
852.4849	1005.1877	50980	50013.2
852.63	1007.1841	50857.55	49893.25
852.7751	1009.1798	50798.2	49835.05
852.9202	1011.1748	50641.5	49682.55
853.0653	1013.1691	50401.75	49440.45
853.2104	1015.1627	49644.85	48679.85
853.3555	1017.1556	49500.4	48540.65
853.5006	1019.1477	49532	48569.85
853.6457	1021.1392	49003.95	48046.5
853.7908	1023.1299	48614.55	47660.1
853.9359	1025.12	48702.8	47754.4
854.081	1027.1093	48405.6	47469.65
854.2261	1029.0979	48380.3	47446.95
854.3712	1031.0859	48284.9	47345.8
854.5163	1033.0731	47943.4	46996.05
854.6613	1035.0596	47951.8	46993.5
854.8064	1037.0454	47715.9	46757.9
854.9515	1039.0304	47454.2	46490.65
855.0965	1041.0148	46987.2	46026.6
855.2416	1042.9985	46992.6	46032.45
855.3867	1044.9814	47039.75	46079.05
855.5317	1046.9636	46604.55	45641.55
855.6768	1048.9452	46452.55	45490.3
855.8219	1050.926	46435.45	45476.05
855.9669	1052.9061	46309.75	45349.95
856.112	1054.8855	46200.35	45239.3
856.257	1056.8642	46112.9	45150.65
856.4021	1058.8421	46064.65	45094.95
856.5471	1060.8194	45993.85	45031.3
856.6921	1062.7959	45869.1	44908.1
856.8372	1064.7717	45883.95	44921.5
856.9822	1066.7469	45784.55	44820.4
857.1272	1068.7213	45725.7	44763.2
857.2723	1070.695	45668.75	44706.7
857.4173	1072.6679	45404.6	44442.8
857.5623	1074.6402	45448.6	44488.15
857.7073	1076.6117	45372.35	44408.4
857.8523	1078.5826	45211.65	44250
857.9973	1080.5527	44982.55	44019.6
858.1423	1082.5221	44811.25	43850.75
858.2873	1084.4908	44741.1	43777.35
858.4323	1086.4587	44680.45	43718.1
858.5773	1088.426	44655.2	43696.35
858.7223	1090.3925	44459.7	43493.1
858.8673	1092.3584	44428.95	43466.45
859.0123	1094.3235	44126.45	43167.45
859.1573	1096.2879	44037.15	43078.85
859.3022	1098.2515	44030.5	43074.5
859.4472	1100.2145	44050.7	43093.35
859.5922	1102.1767	44080.1	43118.8
859.7371	1104.1382	44152.65	43196.2
859.8821	1106.099	44208.65	43246.25
860.027	1108.0591	44279.55	43319.45
860.172	1110.0185	44226.9	43266.3
860.3169	1111.9771	44330.25	43369.15
860.4619	1113.9351	43986.5	43028.25
860.6068	1115.8923	43737.1	42775.1
860.7517	1117.8488	43490	42529
860.8967	1119.8045	43068.2	42110.35
861.0416	1121.7596	42944.4	41987.5
861.1865	1123.7139	42689.75	41731.95
861.3314	1125.6675	42610.45	41651.9
861.4763	1127.6204	42705.5	41749.85
861.6212	1129.5726	42430.35	41470.25
861.7661	1131.524	42308.3	41349.3
861.911	1133.4748	42187.25	41229.95
862.0559	1135.4248	41922.7	40963.35
862.2008	1137.3741	41789.05	40832.05
862.3457	1139.3226	41582.1	40618.7
862.4905	1141.2705	41550.5	40591.4
862.6354	1143.2176	41239.05	40275.8
862.7803	1145.164	41150.1	40188.95
862.9251	1147.1097	41018.2	40060.45
863.07	1149.0546	40867.95	39909.9
863.2148	1150.9989	40803.1	39844.65
863.3597	1152.9424	40669.25	39712.95
863.5045	1154.8852	40474.9	39514.8
863.6493	1156.8272	40390.2	39434
863.7942	1158.7686	40366.2	39400.75
863.939	1160.7092	40245.85	39289.9
864.0838	1162.6491	40039.3	39079.4
864.2286	1164.5883	40121.8	39164
864.3734	1166.5267	40038.7	39077.05
864.5182	1168.4644	40171.6	39215.65
864.663	1170.4014	40214.2	39256.05
864.8078	1172.3377	40433.05	39476.9
864.9526	1174.2732	40503.5	39549
865.0974	1176.2081	40764.9	39810.6
865.2421	1178.1421	41019.5	40061.3
865.3869	1180.0755	41333.25	40376.7
865.5317	1182.0082	41328.5	40375.55
865.6764	1183.9401	41451.05	40496.3
865.8212	1185.8713	41231.8	40280.65
865.9659	1187.8017	40944.8	40000.1
866.1106	1189.7315	40585.85	39650.5
866.2554	1191.6605	40064.55	39131.2
866.4001	1193.5888	39665.3	38721.65
866.5448	1195.5163	39502.15	38552.75
866.6895	1197.4432	39281	38328.3
866.8342	1199.3693	39130.1	38177.35
866.9789	1201.2947	38989.7	38035.65
867.1236	1203.2193	38882.6	37930.15
867.2683	1205.1432	38807.85	37854.45
867.413	1207.0664	38686.9	37735.4
867.5576	1208.9889	38599.65	37641.95
867.7023	1210.9106	38423.2	37472.55
867.847	1212.8316	38274.5	37321.25
867.9916	1214.7519	38242.65	37278.3
868.1363	1216.6715	38110	37157.3
868.2809	1218.5903	38135.75	37182.4
868.4255	1220.5084	38063.65	37114.65
868.5701	1222.4257	38125.6	37173.1
868.7148	1224.3424	37938.35	36991.9
868.8594	1226.2583	37976.05	37020.25
869.004	1228.1735	37952.55	36998.55
869.1486	1230.0879	37915.85	36962.5
869.2932	1232.0016	37951.3	36999.7
869.4377	1233.9146	37871.4	36917.9
869.5823	1235.8269	37801.15	36849.05
869.7269	1237.7384	37711.45	36760.45
869.8715	1239.6492	37414.8	36463.1
870.016	1241.5592	37372.8	36419.1
870.1606	1243.4686	37248.55	36295.6
870.3051	1245.3772	37271.4	36318.9
870.4496	1247.285	37276.25	36322.65
870.5941	1249.1922	37279.85	36327.05
870.7387	1251.0986	37322.15	36372.2
870.8832	1253.0042	37182.35	36233.7
871.0277	1254.9092	37231.05	36281.35
871.1722	1256.8134	37219.1	36272.85
871.3167	1258.7169	37319.1	36370.05
871.4611	1260.6196	37237.6	36291.5
871.6056	1262.5216	37439.7	36490.45
871.7501	1264.4229	37521.85	36575.55
871.8945	1266.3234	37596.95	36647.05
872.039	1268.2232	37699.7	36745.65
872.1834	1270.1223	37585.05	36632.9
872.3278	1272.0207	37528	36576.65
872.4723	1273.9183	37436.75	36480.4
872.6167	1275.8151	37265.15	36315.75
872.7611	1277.7113	37233.25	36284.25
872.9055	1279.6067	37117.3	36168.6
873.0499	1281.5014	37118.55	36168.85
873.1943	1283.3953	37320.25	36368.95
873.3386	1285.2885	37617.1	36668.75
873.483	1287.181	37886.65	36937.2
873.6274	1289.0727	38170.15	37223.8
873.7717	1290.9637	38344.35	37396.85
873.9161	1292.854	38499.8	37548.75
874.0604	1294.7435	38380.2	37429.35
874.2047	1296.6323	38287.65	37341.85
874.349	1298.5204	38194.95	37241.4
874.4933	1300.4077	38055.2	37104.7
874.6376	1302.2943	37818.1	36868.6
874.7819	1304.1802	37640.05	36692.7
874.9262	1306.0653	37209.7	36259.9
875.0705	1307.9497	36800.4	35853.25
875.2147	1309.8333	36485.6	35536.35
875.359	1311.7162	36225.95	35277
875.5032	1313.5984	36107.5	35154.55
875.6475	1315.4798	35939.7	34976.45
875.7917	1317.3605	35831.45	34868.05
875.9359	1319.2405	35718.65	34767
876.0801	1321.1197	35539	34588.3
876.2243	1322.9982	35190.3	34235.1
876.3685	1324.876	35018.75	34071.4
876.5127	1326.753	34787.8	33839.45
876.6569	1328.6293	34572.75	33620.95
876.801	1330.5048	34498.35	33549.6
876.9452	1332.3796	34294.55	33344.6
877.0893	1334.2537	34217.35	33243.85
877.2335	1336.127	34040.2	33093.3
877.3776	1337.9996	33934.3	32987.85
877.5217	1339.8714	33879.55	32933.95
877.6658	1341.7426	33823.25	32829.6
877.8099	1343.6129	33789.1	32838.4
877.954	1345.4826	33591.2	32641.65
878.0981	1347.3515	33630.35	32676.8
878.2422	1349.2196	33541.6	32592.4
878.3862	1351.087	33545.55	32595.45
878.5303	1352.9537	33482.8	32532.85
878.6743	1354.8197	33569.05	32617.4
878.8184	1356.6849	33684.6	32733.3
878.9624	1358.5493	33694.25	32744.9
879.1064	1360.4131	33778.85	32832.95
879.2504	1362.276	33763.95	32815.05
879.3944	1364.1383	33697.75	32750.75
879.5384	1365.9998	33509.15	32556.65
879.6823	1367.8606	33125.25	32177.65
879.8263	1369.7206	32775.8	31828.6
879.9702	1371.5799	32483.75	31533.7
880.1142	1373.4384	32207.35	31260.55
880.2581	1375.2962	31944.55	30996.1
880.402	1377.1533	31584.45	30638.95
880.5459	1379.0096	31172.45	30229.75
880.6898	1380.8652	30885.8	29948.2
880.8337	1382.7201	30605.15	29663.4
880.9776	1384.5742	30228.95	29283.85
881.1215	1386.4275	30052.5	29105.95
881.2653	1388.2802	29807.4	28862.2
881.4092	1390.132	29607.15	28659.6
881.553	1391.9832	29544.4	28595.2
881.6968	1393.8336	29336.1	28389.65
881.8406	1395.6832	29214	28267.45
881.9844	1397.5322	29076.35	28128.2
882.1282	1399.3803	29016.75	28065.95
882.272	1401.2278	28791.45	27848.15
882.4158	1403.0745	28747.1	27804.7
882.5595	1404.9204	28630.6	27691.1
882.7033	1406.7656	28561.2	27616.1
882.847	1408.6101	28516.1	27569.35
882.9908	1410.4538	28400.2	27453.35
883.1345	1412.2968	28362.35	27417.5
883.2782	1414.139	28293.25	27349.5
883.4219	1415.9805	28320.5	27376.75
883.5656	1417.8213	28316.35	27350.1
883.7092	1419.6613	28300.2	27355.75
883.8529	1421.5006	28338.55	27394.1
883.9965	1423.3391	28449.2	27505.3
884.1402	1425.1769	28596.25	27652.8
884.2838	1427.0139	28890.3	27945.2
884.4274	1428.8502	29286.3	28342.35
884.571	1430.6858	29597.05	28651.8
884.7146	1432.5206	29862.85	28919.8
884.8582	1434.3547	29975.2	29032.6
885.0018	1436.188	30021.05	29078.6
885.1453	1438.0206	29928.8	28982.9
885.2889	1439.8524	29661.2	28716.75
885.4324	1441.6835	29538.05	28594
885.5759	1443.5139	29348.6	28399.85
885.7194	1445.3435	29213.25	28272.75
885.8629	1447.1724	29191.7	28251.65
886.0064	1449.0005	29104.9	28165.55
886.1499	1450.8279	28985.6	28044.85
886.2933	1452.6545	28961.7	28020
886.4368	1454.4804	28980.85	28041.85
886.5802	1456.3056	28917.1	27972
886.7237	1458.13	28788.3	27846.75
886.8671	1459.9536	28637	27696.55
887.0105	1461.7766	28369.3	27427.4
887.1539	1463.5987	28062.05	27118.65
887.2972	1465.4202	27747.05	26804.1
887.4406	1467.2409	27383.3	26440.5
887.584	1469.0608	27157.95	26214.95
887.7273	1470.88	26840.4	25900.85
887.8706	1472.6984	26605.5	25662.6
888.0139	1474.5161	26363.45	25420.35
888.1572	1476.3331	26181.7	25245.35
888.3005	1478.1493	26096.15	25153.6
888.4438	1479.9648	25962.55	25019.15
888.5871	1481.7795	25917.7	24974.8
888.7303	1483.5935	25822.4	24880.6
888.8736	1485.4067	25696.15	24759.35
889.0168	1487.2192	25636.55	24697.4
889.16	1489.031	25586.6	24645.15
889.3032	1490.842	25529.35	24587.1
889.4464	1492.6522	25457	24521
889.5896	1494.4618	25363.45	24421.1
889.7327	1496.2705	25349.45	24414.15
889.8759	1498.0785	25241.1	24302.45
890.019	1499.8858	25138.45	24198.3
890.1622	1501.6924	25084.1	24144.25
890.3053	1503.4981	25031.75	24091.55
890.4484	1505.3032	24948.25	24006.75
890.5914	1507.1075	24854.15	23914.25
890.7345	1508.911	24792.1	23851.5
890.8776	1510.7138	24727.05	23788.9
891.0206	1512.5159	24603.2	23664.15
891.1637	1514.3172	24529.6	23592.35
891.3067	1516.1178	24399.15	23458.85
891.4497	1517.9176	24324.65	23385.45
891.5927	1519.7166	24262.35	23325.5
891.7357	1521.515	24224	23281.8
891.8786	1523.3126	24107.85	23173.4
892.0216	1525.1094	24084.1	23144.95
892.1645	1526.9055	24009.7	23076.35
892.3074	1528.7008	23865.9	22928.5
892.4503	1530.4954	23745.7	22804.55
892.5932	1532.2893	23693.4	22763.35
892.7361	1534.0824	23550.75	22612.4
892.879	1535.8747	23597.7	22665.45
893.0218	1537.6663	23489.95	22556.55
893.1647	1539.4572	23429.45	22494.4
893.3075	1541.2473	23370.1	22436.3
893.4503	1543.0367	23289.65	22357.55
893.5931	1544.8253	23212.8	22273.3
893.7359	1546.6132	23214.3	22275.8
893.8787	1548.4003	23117.85	22174.15
894.0214	1550.1867	23164.45	22227.4
894.1642	1551.9723	23139	22203.6
894.3069	1553.7572	23163.2	22232.4
894.4496	1555.5414	23127.85	22198.85
894.5923	1557.3247	23202.7	22276.15
894.735	1559.1074	23236.4	22312.9
894.8777	1560.8893	23282.7	22359.9
895.0204	1562.6705	23316.95	22389.65
895.163	1564.4509	23399.3	22472.75
895.3056	1566.2305	23375.55	22454.5
895.4482	1568.0094	23434.8	22515.25
895.5908	1569.7876	23412.15	22488.05
895.7334	1571.565	23371.6	22443.95
895.876	1573.3417	23338	22409.95
896.0186	1575.1176	23238.2	22312.75
896.1611	1576.8928	23156.3	22234.65
896.3036	1578.6672	23129.7	22211.4
896.4461	1580.4409	23035.45	22121.75
896.5886	1582.2138	22975.65	22054.2
896.7311	1583.986	22951.4	22032.85
896.8736	1585.7575	22977.15	22056.5
897.0161	1587.5282	22952.8	22032.5
897.1585	1589.2981	22971.7	22057.8
897.3009	1591.0673	22893.35	21977.2
897.4433	1592.8358	22927.25	22007.65
897.5857	1594.6035	22969.1	22046.6
897.7281	1596.3704	22958.75	22036.15
897.8705	1598.1366	22931.3	22010.35
898.0128	1599.9021	22962.45	22045.1
898.1551	1601.6668	22951.8	22032.35
898.2975	1603.4308	22978.55	22054.75
898.4398	1605.194	23065.65	22142.9
898.5821	1606.9564	23147.75	22237.25
898.7243	1608.7182	23303.4	22391.2
898.8666	1610.4791	23468	22564.3
899.0088	1612.2394	23610.45	22706.95
899.1511	1613.9988	23797.5	22890.75
899.2933	1615.7576	23988.9	23076.35
899.4355	1617.5156	24162.25	23237.7
899.5776	1619.2728	24274.6	23354.35
899.7198	1621.0293	24236.1	23316.6
899.862	1622.785	24067.85	23150.65
900.0041	1624.54	23718.7	22804.3
900.1462	1626.2942	23452.45	22539.5
900.2883	1628.0477	23028.9	22112.65
900.4304	1629.8005	22745.25	21829.8
900.5725	1631.5525	22478.7	21566.55
900.7145	1633.3037	22214.55	21306.35
900.8566	1635.0542	22038.7	21128.05
900.9986	1636.804	21817.35	20902.5
901.1406	1638.553	21737.9	20780.45
901.2826	1640.3013	21589.95	20676.95
901.4245	1642.0488	21473.1	20558.65
901.5665	1643.7955	21506.65	20597.6
901.7085	1645.5416	21510.05	20601.9
901.8504	1647.2868	21543.45	20630.65
901.9923	1649.0313	21550.4	20637.85
902.1342	1650.7751	21639.85	20723.25
902.2761	1652.5181	21710.3	20800.05
902.4179	1654.2604	21734	20824.55
902.5598	1656.0019	21899.4	20989.75
902.7016	1657.7427	22071.35	21157.55
902.8434	1659.4828	22240.8	21327.55
902.9852	1661.222	22346.5	21430.55
903.127	1662.9606	22294.85	21379.55
903.2687	1664.6984	22121.6	21207.15
903.4105	1666.4354	21813.25	20895
903.5522	1668.1717	21283.05	20362.8
903.6939	1669.9072	20782.4	19864.45
903.8356	1671.642	20370.55	19450.05
903.9773	1673.3761	20077.1	19161.25
904.119	1675.1094	19733.3	18820.65
904.2606	1676.8419	19492.9	18579.15
904.4022	1678.5737	19293.15	18379.15
904.5439	1680.3048	19138.35	18221.75
904.6855	1682.0351	18961.4	18046.45
904.827	1683.7646	18803.5	17884.9
904.9686	1685.4934	18714.65	17800.35
905.1101	1687.2215	18622.2	17708.35
905.2517	1688.9488	18465.9	17552.8
905.3932	1690.6754	18346.3	17433.15
905.5347	1692.4012	18329.45	17414.2
905.6761	1694.1263	18233.65	17319
905.8176	1695.8506	18122.85	17207.65
905.9591	1697.5742	18104.05	17193.15
906.1005	1699.297	18027.4	17121.3
906.2419	1701.0191	17923	17014.3
906.3833	1702.7404	17830.9	16924
906.5246	1704.461	17707.85	16796.5
906.666	1706.1808	17634.2	16722.5
906.8073	1707.8999	17619.55	16711.75
906.9487	1709.6182	17554.4	16652.05
907.09	1711.3358	17471.8	16569.65
907.2313	1713.0527	17403.15	16501.3
907.3725	1714.7688	17351.6	16441.4
907.5138	1716.4841	17256.1	16345.15
907.655	1718.1987	17243.6	16331.2
907.7962	1719.9126	17172.05	16266.7
907.9374	1721.6257	17123.85	16218
908.0786	1723.338	17070.4	16167.5
908.2198	1725.0496	16949.6	16044.75
908.3609	1726.7605	16932.95	16025.6
908.502	1728.4706	16865.35	15958.55
908.6431	1730.18	16765.25	15860.35
908.7842	1731.8886	16765.1	15860.65
908.9253	1733.5964	16725.9	15800.15
909.0664	1735.3036	16669.45	15760.5
909.2074	1737.0099	16647.8	15743.2
909.3484	1738.7156	16613.5	15711.7
909.4894	1740.4204	16543.55	15636.5
909.6304	1742.1246	16492.1	15585.6
909.7714	1743.8279	16426.9	15521.8
909.9123	1745.5306	16359.05	15454.5
910.0532	1747.2325	16318.85	15415.3
910.1941	1748.9336	16264.95	15360.1
910.335	1750.634	16236	15326.2
910.4759	1752.3336	16227.2	15325.7
910.6168	1754.0325	16177.2	15276.25
910.7576	1755.7307	16095.1	15192.7
910.8984	1757.4281	16100.35	15195.3
911.0392	1759.1247	16075.7	15160.45
911.18	1760.8206	16024.8	15114.35
911.3208	1762.5158	16016.65	15104.3
911.4615	1764.2102	15928.85	15022.3
911.6022	1765.9039	15868.05	14965.55
911.7429	1767.5968	15829.45	14927.8
911.8836	1769.289	15772.3	14871.1
912.0243	1770.9804	15753.55	14845.8
912.1649	1772.6711	15738	14830.55
912.3056	1774.361	15697.65	14790.45
912.4462	1776.0502	15662.5	14755.35
912.5868	1777.7386	15652.95	14743.95
912.7274	1779.4263	15586.4	14681.8
912.8679	1781.1132	15566.6	14665.05
913.0084	1782.7994	15520.75	14622.35
913.149	1784.4849	15493.1	14594.75
913.2895	1786.1696	15453.35	14546.6
913.4299	1787.8535	15399.65	14500.95
913.5704	1789.5367	15342.95	14444.8
913.7108	1791.2192	15335.05	14434.95
913.8513	1792.9009	15310.35	14378.55
913.9917	1794.5818	15246.85	14339.55
914.132	1796.2621	15172.95	14266.95
914.2724	1797.9415	15186.95	14282.65
914.4128	1799.6202	15116.05	14213.15
914.5531	1801.2982	15073.8	14169.25
914.6934	1802.9755	15063.45	14157.65
914.8337	1804.6519	15015.25	14112.15
914.9739	1806.3277	14959.4	14055.7
915.1142	1808.0027	14906.7	14005.05
915.2544	1809.6769	14917.2	14019.05
915.3946	1811.3504	14846.4	13947.35
915.5348	1813.0231	14840.75	13941.85
915.675	1814.6951	14823.05	13922
915.8151	1816.3664	14815.9	13913.5
915.9553	1818.0369	14774.75	13868.4
916.0954	1819.7067	14722.45	13818.95
916.2355	1821.3757	14681.6	13774.85
916.3755	1823.044	14660.95	13756.45
916.5156	1824.7115	14629.25	13725.3
916.6556	1826.3783	14581.85	13680.85
916.7956	1828.0443	14544.6	13643.7
916.9356	1829.7096	14497.05	13593.6
917.0756	1831.3741	14511.6	13608.45
917.2155	1833.0379	14452.45	13554.55
917.3555	1834.701	14387.95	13488.45
917.4954	1836.3633	14383.5	13485.35
917.6353	1838.0248	14346.65	13445.95
917.7751	1839.6856	14327.25	13425.15
917.915	1841.3457	14310.45	13408.25
918.0548	1843.005	14283.5	13378.5
918.1946	1844.6636	14256.65	13354.9
918.3344	1846.3214	14215.65	13312.5
918.4742	1847.9785	14206.2	13305.15
918.6139	1849.6349	14146.15	13240.65
918.7537	1851.2904	14138.55	13222.4
918.8934	1852.9453	14074.1	13168.4
919.0331	1854.5994	14049.95	13142.7
919.1727	1856.2528	14074	13165.15
919.3124	1857.9054	14014	13110
919.452	1859.5572	14015.05	13114.45
919.5916	1861.2083	13989.1	13085.9
919.7312	1862.8587	13981.8	13078.4
919.8708	1864.5084	13943.85	13035.9
920.0103	1866.1572	13878.7	12972.1
920.1498	1867.8054	13836.05	12929.4
920.2893	1869.4528	13816.6	12910.25
920.4288	1871.0994	13764.1	12855.95
920.5683	1872.7453	13758.25	12852.35
920.7077	1874.3905	13720.35	12811.8
920.8471	1876.0349	13673.45	12770.15
920.9865	1877.6786	13664.45	12757.05
921.1259	1879.3215	13643.9	12740.6
921.2653	1880.9637	13609.5	12704.3
921.4046	1882.6051	13598.75	12695.85
921.5439	1884.2458	13549.7	12648.15
921.6832	1885.8858	13493.05	12589.9
921.8225	1887.525	13478.75	12575.8
921.9617	1889.1634	13406.45	12501.65
922.101	1890.8011	13405.75	12500.05
922.2402	1892.4381	13360.55	12456.8
922.3794	1894.0743	13340.4	12434.6
922.5185	1895.7098	13311.7	12407.4
922.6577	1897.3446	13255.1	12352.65
922.7968	1898.9786	13224.6	12318
922.9359	1900.6118	13223.3	12320.9
923.075	1902.2443	13180.75	12274.55
923.214	1903.8761	13139.4	12235.5
923.3531	1905.5071	13072.6	12171.1
923.4921	1907.1374	13032.5	12129.15
923.6311	1908.7669	13005.8	12102.5
923.77	1910.3957	12988.85	12088.2
923.909	1912.0237	12915.05	12014.25
924.0479	1913.651	12897.7	11993.95
924.1868	1915.2776	12896.25	11994
924.3257	1916.9034	12807.35	11905.9
924.4646	1918.5285	12788.65	11887.9
924.6034	1920.1528	12689.6	11789.7
924.7422	1921.7764	12691.75	11788.05
924.881	1923.3992	12640.95	11738.9
925.0198	1925.0213	12561.85	11658.1
925.1586	1926.6427	12516	11613.8
925.2973	1928.2633	12573.8	11594.1
925.436	1929.8832	12518.9	11615.1
925.5747	1931.5023	12412.9	11510.6
925.7134	1933.1207	12392.95	11493.2
925.852	1934.7383	12362.85	11460.75
925.9906	1936.3552	12307.05	11406.2
926.1292	1937.9714	12298.7	11398.85
926.2678	1939.5868	12225.8	11321.45
926.4064	1941.2015	12162.8	11259.85
926.5449	1942.8154	12111.25	11206.95
926.6834	1944.4286	12093.3	11189.5
926.8219	1946.041	12069.8	11147.35
926.9604	1947.6528	12004.45	11099.1
927.0988	1949.2637	11988.5	11088
927.2372	1950.8739	11929.9	11030.45
927.3756	1952.4834	11906.2	11006.1
927.514	1954.0921	11881.2	10980.45
927.6523	1955.7001	11858.65	10957.05
927.7907	1957.3074	11813.65	10915.5
927.929	1958.9139	11773.7	10876.6
928.0673	1960.5197	11762.95	10866.3
928.2055	1962.1247	11691.2	10793.5
928.3438	1963.729	11611.6	10714.95
928.482	1965.3325	11634.1	10715.15
928.6202	1966.9353	11577.85	10682.75
928.7584	1968.5374	11542.35	10641.55
928.8965	1970.1387	11491.35	10596.75
929.0346	1971.7393	11467.15	10569.5
929.1727	1973.3392	11413.3	10515.95
929.3108	1974.9383	11365.6	10471.1
929.4489	1976.5366	11297.1	10404.35
929.5869	1978.1342	11302.4	10408.45
929.7249	1979.7311	11295.45	10401.45
929.8629	1981.3273	11262.15	10366.95
930.0009	1982.9227	11214.4	10321.2
930.1388	1984.5173	11182.25	10289.4
930.2767	1986.1112	11143.4	10252.2
930.4146	1987.7044	11146.35	10252.05
930.5525	1989.2968	11062.75	10168.7
930.6904	1990.8885	11057.9	10162.85
930.8282	1992.4795	11045	10154.2
930.966	1994.0697	11006.3	10117.65
931.1038	1995.6592	10922.55	10031.35
931.2415	1997.2479	10912.05	10018.25
931.3793	1998.8359	10899.95	10008.75
931.517	2000.4232	10861.2	9971.8
931.6547	2002.0097	10844.85	9959
931.7923	2003.5955	10777.45	9890.1
931.93	2005.1805	10780.25	9888.1
932.0676	2006.7648	10737.3	9848.75
932.2052	2008.3484	10720.1	9828.85
932.3427	2009.9312	10704	9817.6
932.4803	2011.5133	10662.75	9776.4
932.6178	2013.0946	10634.3	9747.5
932.7553	2014.6752	10608.05	9721.8
932.8928	2016.2551	10593.05	9702.25
933.0302	2017.8342	10516.9	9627.2
933.1676	2019.4126	10518.9	9632.85
933.305	2020.9902	10445.35	9558.5
933.4424	2022.5672	10445.1	9556.9
933.5798	2024.1433	10432.95	9540
933.7171	2025.7188	10382.2	9497.85
933.8544	2027.2935	10364.7	9478.9
933.9917	2028.8674	10313.55	9427.55
934.129	2030.4406	10294.8	9408.5
934.2662	2032.0131	10243.65	9358.25
934.4034	2033.5849	10238.25	9348.7
934.5406	2035.1559	10203.7	9318.35
934.6778	2036.7261	10207.4	9318.55
934.8149	2038.2957	10180.05	9290.2
934.952	2039.8645	10154.35	9262.1
935.0891	2041.4325	10158.15	9263.1
935.2262	2042.9998	10056.9	9168.2
935.3632	2044.5664	10058.85	9169.65
935.5002	2046.1323	10011.6	9123.8
935.6372	2047.6974	10000.1	9112.7
935.7742	2049.2617	9981.3	9092.65
935.9111	2050.8254	9972.45	9056.6
936.048	2052.3883	9945.85	9050.15
936.1849	2053.9504	9930.15	9032.95
936.3218	2055.5118	9900.6	9003.25
936.4586	2057.0725	9853.35	8951.8
936.5955	2058.6325	9826.85	8930.05
936.7323	2060.1917	9787.25	8892.05
936.869	2061.7502	9792.1	8895.25
937.0058	2063.3079	9755.75	8865.2
937.1425	2064.8649	9713.05	8819.9
937.2792	2066.4212	9701.45	8813.15
937.4159	2067.9767	9693.55	8803.3
937.5525	2069.5315	9645.6	8754.45
937.6891	2071.0856	9603.2	8716.25
937.8257	2072.6389	9577.75	8690.65
937.9623	2074.1915	9527.5	8642.15
938.0989	2075.7433	9495.3	8608.3
938.2354	2077.2945	9446.15	8557.75
938.3719	2078.8448	9420.15	8528.2
938.5084	2080.3945	9408.55	8516.3
938.6448	2081.9434	9388.2	8498.4
938.7812	2083.4916	9364.6	8473.25
938.9176	2085.039	9343.1	8449.75
939.054	2086.5857	9307.5	8409.8
939.1903	2088.1317	9308.15	8410.8
939.3267	2089.677	9283.7	8387.8
939.463	2091.2215	9245.3	8348.2
939.5992	2092.7652	9200.75	8300.45
939.7355	2094.3083	9205.65	8309.6
939.8717	2095.8506	9183.4	8290.6
940.0079	2097.3921	9202.7	8311.8
940.1441	2098.933	9134.6	8243.35
940.2802	2100.4731	9118	8225.15
940.4163	2102.0124	9116.4	8215.15
940.5524	2103.5511	9086.45	8192.75
940.6885	2105.089	9064.25	8171.55
940.8245	2106.6261	9075.35	8184.05
940.9606	2108.1626	9024.45	8131.45
941.0965	2109.6983	9012	8094.35
941.2325	2111.2332	8967.85	8074.8
941.3684	2112.7675	8946	8051.6
941.5044	2114.301	8918.2	8022.95
941.6403	2115.8337	8926.35	8034.3
941.7761	2117.3657	8859.3	7965.6
941.912	2118.897	8881.8	7986.75
942.0478	2120.4276	8849.35	7949.7
942.1835	2121.9575	8839.8	7944.6
942.3193	2123.4866	8805.35	7911.4
942.455	2125.0149	8807.4	7910.4
942.5907	2126.5426	8739.6	7848.6
942.7264	2128.0695	8736.25	7845.15
942.8621	2129.5956	8692.5	7806.75
942.9977	2131.1211	8679.45	7786.55
943.1333	2132.6458	8664.3	7771.55
943.2689	2134.1698	8640.1	7745.9
943.4044	2135.693	8630	7732.65
943.54	2137.2155	8604.75	7707.55
943.6755	2138.7373	8587.5	7695.8
943.8109	2140.2584	8561.05	7671.45
943.9464	2141.7787	8531.25	7642.2
944.0818	2143.2983	8499.1	7613.65
944.2172	2144.8171	8471.6	7587.8
944.3526	2146.3353	8441.25	7551.55
944.4879	2147.8527	8393.3	7504.2
944.6232	2149.3693	8419.65	7525
944.7585	2150.8853	8360.65	7466
944.8938	2152.4005	8335.15	7440.5
945.029	2153.9149	8338.15	7444.7
945.1642	2155.4287	8396.1	7403.2
945.2994	2156.9417	8314.05	7419.5
945.4346	2158.454	8295.35	7403.25
945.5697	2159.9655	8245.25	7357.05
945.7048	2161.4764	8228.2	7338.95
945.8399	2162.9865	8181.2	7290.9
945.9749	2164.4958	8166.2	7276.55
946.1099	2166.0045	8143.8	7249.95
946.2449	2167.5124	8122.55	7230.85
946.3799	2169.0195	8116.15	7225.2
946.5148	2170.526	8107.5	7215.3
946.6498	2172.0317	8074.7	7180.7
946.7846	2173.5367	8050	7158.1
946.9195	2175.0409	8010.5	7117.9
947.0543	2176.5445	8041.7	7151.7
947.1891	2178.0473	8002.45	7106.9
947.3239	2179.5494	7986.1	7087.2
947.4587	2181.0507	7958.8	7066.6
947.5934	2182.5513	7928.8	7034.8
947.7281	2184.0512	7909.85	7019.1
947.8628	2185.5504	7899.3	7007.7
947.9974	2187.0488	7848.65	6958.15
948.132	2188.5465	7820	6930.8
948.2666	2190.0435	7808.45	6916.65
948.4012	2191.5397	7774.2	6881
948.5357	2193.0353	7745.7	6852
948.6702	2194.5301	7732.2	6836.45
948.8047	2196.0241	7700.65	6805.1
948.9392	2197.5175	7691.2	6791.4
949.0736	2199.0101	7674.35	6775.8
949.208	2200.502	7625.65	6733.45
949.3424	2201.9931	7580.4	6687.6
949.4767	2203.4835	7554	6664
949.611	2204.9733	7544.5	6637.55
949.7453	2206.4622	7545	6657.6
949.8796	2207.9505	7517	6629.05
950.0138	2209.438	7474.45	6590.2
950.148	2210.9248	7462.8	6574.3
950.2822	2212.4109	7439.35	6547.35
950.4164	2213.8962	7445	6548.1
950.5505	2215.3809	7393.15	6497.4
950.6846	2216.8648	7387.8	6490.8
950.8186	2218.3479	7354.25	6450.85
950.9527	2219.8304	7339.4	6437.4
951.0867	2221.3121	7305.3	6406.8
951.2207	2222.7931	7288.9	6393.8
951.3546	2224.2733	7263.5	6369.25
951.4886	2225.7529	7231.1	6337.55
951.6225	2227.2317	7229.2	6337.25
951.7563	2228.7098	7191	6300.45
951.8902	2230.1872	7159	6270.65
952.024	2231.6638	7150.55	6261.4
952.1578	2233.1397	7124.05	6232
952.2916	2234.6149	7107.5	6218.25
952.4253	2236.0894	7089.8	6200
952.559	2237.5632	7074.65	6182.75
952.6927	2239.0362	7035.65	6145.75
952.8263	2240.5085	7007.65	6117.25
952.9599	2241.9801	6990.5	6098.95
953.0935	2243.4509	6996.25	6102.95
953.2271	2244.921	6945.95	6050.45
953.3606	2246.3904	6953.7	6056.55
953.4941	2247.8591	6928.25	6036.1
953.6276	2249.3271	6920.4	6028
953.7611	2250.7943	6879	5984.15
953.8945	2252.2608	6848.55	5955.15
954.0279	2253.7266	6847.85	5954.45
954.1612	2255.1917	6810.8	5917.75
954.2946	2256.656	6791.1	5899.7
954.4279	2258.1197	6771.8	5881.9
954.5612	2259.5826	6747.7	5855.5
954.6944	2261.0447	6745.05	5852.2
954.8276	2262.5062	6723	5826.6
954.9608	2263.9669	6726.75	5831.4
955.094	2265.4269	6691.15	5799.45
955.2271	2266.8862	6684.65	5794.4
955.3602	2268.3448	6671.35	5779.75
955.4933	2269.8026	6669.1	5778.8
955.6264	2271.2598	6639.2	5748.35
955.7594	2272.7162	6604.7	5713.95
955.8924	2274.1719	6610.8	5717.8
956.0253	2275.6268	6581.8	5685.85
956.1583	2277.0811	6569.4	5674.05
956.2912	2278.5346	6554.75	5664.3
956.4241	2279.9874	6538.75	5648.05
956.5569	2281.4395	6529.85	5640.8
956.6897	2282.8908	6497.35	5600.55
956.8225	2284.3414	6493.25	5599.1
956.9553	2285.7914	6470.05	5576.8
957.088	2287.2406	6435.15	5540.15
957.2207	2288.689	6434.8	5536.3
957.3534	2290.1368	6418.15	5519.6
957.486	2291.5838	6401.4	5499.9
957.6186	2293.0302	6389.3	5492.75
957.7512	2294.4758	6350.7	5455.15
957.8838	2295.9206	6336.85	5440.75
958.0163	2297.3648	6307.4	5416.2
958.1488	2298.8082	6306.2	5411.8
958.2813	2300.251	6296.65	5402.65
958.4137	2301.693	6281.9	5384.9
958.5461	2303.1343	6255.25	5357.85
958.6785	2304.5748	6243.45	5350.45
958.8108	2306.0147	6215.3	5324.65
958.9432	2307.4538	6212.25	5320.1
959.0754	2308.8922	6183.15	5296.15
959.2077	2310.3299	6179.7	5290.8
959.3399	2311.7669	6139.75	5250.05
959.4721	2313.2031	6144.15	5251.15
959.6043	2314.6387	6101.05	5208.35
959.7365	2316.0735	6088.55	5196.4
959.8686	2317.5076	6078.6	5186.6
960.0006	2318.941	6066.4	5171.95
960.1327	2320.3737	6057.95	5162.55
960.2647	2321.8056	6039.9	5141.45
960.3967	2323.2369	6015.05	5120.5
960.5287	2324.6674	5994.45	5098.95
960.6606	2326.0972	5988	5095.85
960.7925	2327.5263	5961	5066.7
960.9244	2328.9547	5954.3	5062.65
961.0562	2330.3823	5962	5066
961.1881	2331.8092	5965.45	5064.55
961.3198	2333.2355	5891.75	4993.2
961.4516	2334.661	5904.95	5007.6
961.5833	2336.0858	5894.05	4998
961.715	2337.5098	5859.95	4964.1
961.8467	2338.9332	5856.5	4960.8
961.9783	2340.3558	5836.2	4943.75
962.1099	2341.7778	5814.7	4922.15
962.2415	2343.199	5799.1	4904.8
962.373	2344.6195	5786	4895.1
962.5045	2346.0393	5763.55	4871.65
962.636	2347.4583	5755.45	4862.75
962.7675	2348.8767	5751.6	4857.75
962.8989	2350.2943	5744.6	4848.25
963.0303	2351.7113	5735.1	4836.45
963.1617	2353.1275	5695.15	4796.45
963.293	2354.543	5722.2	4799.95
963.4243	2355.9578	5686.85	4791.1
963.5556	2357.3718	5639.5	4743.85
963.6868	2358.7852	5636.8	4743.55
963.818	2360.1978	5613.8	4720.3
963.9492	2361.6098	5587.9	4693.75
964.0803	2363.021	5578.3	4682.1
964.2114	2364.4315	5547.45	4652.6
964.3425	2365.8413	5564.8	4671.8
964.4736	2367.2504	5535.15	4642.35
964.6046	2368.6587	5524.65	4631.2
964.7356	2370.0664	5515.8	4622
964.8666	2371.4733	5487.25	4591.35
964.9975	2372.8795	5450.7	4556.8
965.1284	2374.285	5444.4	4550.35
965.2593	2375.6899	5421	4529.65
965.3901	2377.0939	5412.35	4520
965.5209	2378.4973	5398.8	4504.7
965.6517	2379.9	5383.25	4490.1
965.7825	2381.3019	5362.2	4469.4
965.9132	2382.7032	5341.1	4449.4
966.0439	2384.1037	5332.45	4442.05
966.1745	2385.5035	5321.8	4428.75
966.3051	2386.9027	5305.45	4416.35
966.4357	2388.3011	5291.2	4396.45
966.5663	2389.6987	5284	4392.5
966.6968	2391.0957	5255.3	4362.3
966.8273	2392.492	5230.95	4339.75
966.9578	2393.8876	5192.75	4300.65
967.0882	2395.2824	5190.2	4298.1
967.2186	2396.6765	5185.55	4291.75
967.349	2398.07	5164.8	4272.15
967.4793	2399.4627	5172.25	4275.8
967.6097	2400.8547	5151.9	4257.25
967.7399	2402.246	5138.8	4237.5
967.8702	2403.6366	5114.95	4219.35
968.0004	2405.0265	5073.1	4180
968.1306	2406.4156	5062.75	4166.5
968.2607	2407.8041	5060	4163.55
968.3909	2409.1918	5047.35	4152.75
968.521	2410.5789	5023.35	4127.3
968.651	2411.9652	5014.25	4117.85
968.781	2413.3508	4986.05	4091.8
968.911	2414.7358	4987.75	4090.7
969.041	2416.12	4965.8	4073.3
969.1709	2417.5035	4946.25	4052.1
969.3008	2418.8863	4936.7	4040.85
969.4307	2420.2684	4916.95	4020.55
969.5606	2421.6497	4906.5	4010.25
969.6904	2423.0304	4886.8	3993.4
969.8201	2424.4104	4871.5	3977.1
969.9499	2425.7896	4840.7	3943
970.0796	2427.1682	4836.4	3942.15
970.2093	2428.546	4824.6	3929.95
970.3389	2429.9232	4829.45	3932.3
970.4685	2431.2996	4787.7	3892.85
970.5981	2432.6753	4786.7	3890.05
970.7277	2434.0503	4790.5	3895.2
970.8572	2435.4246	4756.8	3861.9
970.9867	2436.7982	4745.7	3847.8
971.1161	2438.1711	4733.1	3838.05
971.2456	2439.5433	4720.25	3825.2
971.375	2440.9148	4714.55	3815.95
971.5043	2442.2856	4684.1	3790.55
971.6336	2443.6557	4678.4	3782.55
971.7629	2445.025	4660.35	3765.9
971.8922	2446.3937	4652.25	3758
972.0214	2447.7617	4630.55	3735
972.1506	2449.1289	4627.05	3733.8
972.2798	2450.4955	4609.4	3711.9
972.4089	2451.8613	4615.95	3722.55
972.538	2453.2265	4602.35	3708.95
972.6671	2454.5909	4602.25	3709.1
972.7961	2455.9546	4576.45	3682.3
972.9251	2457.3177	4548.45	3653.1
973.0541	2458.68	4540.6	3643
973.1831	2460.0416	4529.45	3637.75
973.312	2461.4025	4538.35	3643.05
973.4408	2462.7627	4516.15	3610.8
973.5697	2464.1222	4503.6	3614
973.6985	2465.4811	4482.1	3589.15
973.8273	2466.8392	4484.75	3593.35
973.956	2468.1966	4473.45	3576.75
974.0847	2469.5533	4471.45	3576
974.2134	2470.9093	4462.2	3567.25
974.3421	2472.2645	4458.5	3565.9
974.4707	2473.6191	4429.85	3537.3
974.5993	2474.973	4418.7	3525.35
974.7278	2476.3262	4412	3518.5
974.8563	2477.6787	4404.5	3513.05
974.9848	2479.0305	4376.6	3486.2
975.1132	2480.3816	4352.2	3456.8
975.2417	2481.7319	4353.35	3461.65
975.37	2483.0816	4321.75	3427.1
975.4984	2484.4306	4311.85	3418.55
975.6267	2485.7789	4306.75	3416
975.755	2487.1264	4289.9	3397.2
975.8833	2488.4733	4281.05	3391.5
976.0115	2489.8195	4272.75	3365.85
976.1397	2491.165	4248.45	3350.25
976.2678	2492.5097	4237.85	3344.65
976.3959	2493.8538	4219.25	3327
976.524	2495.1972	4207.5	3316.1
976.6521	2496.5398	4195.6	3299.25
976.7801	2497.8818	4196.45	3298.75
976.9081	2499.2231	4171.6	3276.45
977.036	2500.5637	4158.4	3263.6
977.164	2501.9035	4151.15	3255.2
977.2918	2503.2427	4144.15	3246.1
977.4197	2504.5812	4143.2	3249.05
977.5475	2505.919	4124.2	3229.5
977.6753	2507.256	4126.4	3233.1
977.8031	2508.5924	4105.35	3214.15
977.9308	2509.9281	4079.8	3179.9
978.0585	2511.2631	4058.3	3166.2
978.1861	2512.5974	4065.9	3174.2
978.3137	2513.9309	4051.1	3159
978.4413	2515.2638	4056.65	3137.25
978.5689	2516.596	4047.95	3157.05
978.6964	2517.9275	4014.75	3122.2
978.8239	2519.2583	4005.5	3109.4
978.9513	2520.5884	3990.65	3096.2
979.0788	2521.9178	3992.85	3099.95
979.2062	2523.2465	3963.55	3070.65
979.3335	2524.5745	3948.65	3058.35
979.4608	2525.9018	3947.55	3052.4
979.5881	2527.2284	3931.4	3039.75
979.7154	2528.5543	3920.35	3029.1
979.8426	2529.8796	3918.6	3024
979.9698	2531.2041	3922.6	3028.55
980.0969	2532.5279	3898.4	3005.6
980.224	2533.851	3901.5	3010.05
980.3511	2535.1735	3896.95	3003.3
980.4781	2536.4952	3876.65	2981.4
980.6052	2537.8163	3887.55	2990.85
980.7321	2539.1366	3857.3	2961.65
980.8591	2540.4562	3853.1	2957.4
980.986	2541.7752	3844.1	2948.65
981.1129	2543.0935	3847.35	2951.75
981.2397	2544.411	3829.1	2933.7
981.3665	2545.7279	3820	2926.35
981.4933	2547.0441	3833.05	2937.85
981.62	2548.3596	3820.05	2923.6
981.7467	2549.6744	3813.85	2919.85
981.8734	2550.9885	3797.35	2900.6
982.0001	2552.3019	3797.65	2904.85
982.1267	2553.6146	3780.6	2885.65
982.2532	2554.9266	3767.2	2872.65
982.3798	2556.2379	3774.6	2878.3
982.5063	2557.5485	3750.25	2857.4
982.6327	2558.8585	3741.85	2843.15
982.7592	2560.1677	3754.95	2855.95
982.8856	2561.4762	3723.3	2827.6
983.0119	2562.7841	3714.25	2817.4
983.1383	2564.0913	3715.95	2822.2
983.2646	2565.3977	3714.95	2821.25
983.3908	2566.7035	3702.7	2808
983.517	2568.0086	3695.95	2800.85
983.6432	2569.313	3685.5	2790.2
983.7694	2570.6167	3676.8	2775.2
983.8955	2571.9197	3678.9	2785.1
984.0216	2573.222	3652.9	2755.3
984.1476	2574.5236	3662.65	2766.7
984.2737	2575.8246	3655.9	2758.5
984.3996	2577.1248	3664.2	2768.5
984.5256	2578.4244	3634.55	2741.25
984.6515	2579.7232	3644.55	2751.9
984.7774	2581.0214	3661.25	2736.75
984.9032	2582.3189	3617.35	2725.15
985.029	2583.6157	3633.2	2736.3
985.1548	2584.9118	3617.7	2723.55
985.2806	2586.2072	3603.45	2708.35
985.4063	2587.5019	3579.15	2684.15
985.5319	2588.7959	3576.3	2682.85
985.6576	2590.0893	3586.5	2691.25
985.7832	2591.3819	3568.15	2674.85
985.9087	2592.6739	3553.75	2661.95
986.0343	2593.9652	3559.85	2664.45
986.1597	2595.2557	3545.9	2652
986.2852	2596.5456	3544.7	2646.65
986.4106	2597.8348	3526	2633.25
986.536	2599.1234	3510.8	2618
986.6614	2600.4112	3505.95	2610.3
986.7867	2601.6983	3511.9	2615.6
986.912	2602.9848	3492.65	2599.85
987.0372	2604.2705	3495.85	2594.6
987.1624	2605.5556	3477.6	2582.4
987.2876	2606.84	3476.1	2583.85
987.4128	2608.1237	3467.3	2574.05
987.5379	2609.4067	3458.8	2563.3
987.6629	2610.689	3443.3	2543.05
987.788	2611.9707	3424.4	2526.95
987.913	2613.2516	3430.2	2531.55
988.0379	2614.5319	3388.15	2495.7
988.1629	2615.8115	3380.8	2487.9
988.2878	2617.0903	3382.15	2486.35
988.4126	2618.3685	3384.25	2491.15
988.5375	2619.6461	3366.8	2474.75
988.6622	2620.9229	3346.4	2454.2
988.787	2622.199	3353.3	2456.75
988.9117	2623.4745	3365.1	2472.65
989.0364	2624.7493	3326.5	2434.5
989.161	2626.0234	3313.8	2422.45
989.2857	2627.2968	3296.95	2405.7
989.4102	2628.5695	3305.75	2411.75
989.5348	2629.8415	3281.25	2390.5
989.6593	2631.1128	3272.2	2379.7
989.7837	2632.3835	3265.45	2371.65
989.9082	2633.6535	3248.55	2356.95
990.0326	2634.9228	3262.65	2370.4
990.1569	2636.1914	3236.15	2344.7
990.2812	2637.4593	3238.55	2344.15
990.4055	2638.7265	3223.2	2331.15
990.5298	2639.9931	3217.3	2325.3
990.654	2641.259	3216.3	2321.45
990.7782	2642.5242	3205.8	2312.3
990.9023	2643.7887	3194.55	2304.1
991.0264	2645.0525	3187.85	2293.05
991.1505	2646.3156	3201.95	2295.2
991.2745	2647.5781	3195.1	2300.25
991.3985	2648.8398	3166.4	2275.1
991.5225	2650.1009	3163.55	2247.9
991.6464	2651.3613	3137.2	2242.8
991.7703	2652.6211	3138.85	2246.4
991.8942	2653.8801	3131.9	2242.15
992.018	2655.1385	3140.4	2245.45
992.1418	2656.3961	3127.35	2234.4
992.2655	2657.6531	3119.95	2226.5
992.3892	2658.9094	3116.3	2221.05
992.5129	2660.1651	3104.2	2213.45
992.6366	2661.42	3099.15	2208.3
992.7602	2662.6743	3106.15	2212.6
992.8837	2663.9279	3086.2	2192.55
993.0073	2665.1808	3085.35	2193.35
993.1307	2666.433	3093.2	2200.8
993.2542	2667.6846	3081.65	2190.55
993.3776	2668.9354	3077.85	2180.75
993.501	2670.1856	3062.65	2168.7
993.6244	2671.4351	3070.25	2178.85
993.7477	2672.6839	3053.9	2161.9
993.8709	2673.9321	3053.2	2162
993.9942	2675.1795	3047	2157.05
994.1174	2676.4263	3038.1	2144
994.2405	2677.6724	3038.2	2144.05
994.3637	2678.9179	3030.25	2137.15
994.4868	2680.1626	3020.85	2130.25
994.6098	2681.4067	3015.85	2124.25
994.7328	2682.6501	3015.75	2124.1
994.8558	2683.8928	3005.95	2115.45
994.9788	2685.1348	2984.8	2095.35
995.1017	2686.3761	2992.7	2102.95
995.2245	2687.6168	2984.55	2094.95
995.3474	2688.8568	2968.1	2075.35
995.4702	2690.0961	2958.05	2067.25
995.5929	2691.3348	2957.45	2065.15
995.7156	2692.5727	2948.1	2055.25
995.8383	2693.81	2938.7	2047.3
995.961	2695.0466	2917.1	2026.35
996.0836	2696.2826	2928.85	2034.55
996.2062	2697.5178	2928.85	2033.9
996.3287	2698.7524	2912.8	2020
996.4512	2699.9863	2913.3	2019.05
996.5737	2701.2195	2901.6	2010.65
996.6961	2702.452	2899.45	2005.75
996.8185	2703.6839	2900.3	2007.75
996.9408	2704.9151	2888.85	1999.95
997.0631	2706.1456	2892.75	2001.6
997.1854	2707.3755	2884.05	1991.35
997.3077	2708.6046	2888.5	1996.45
997.4299	2709.8331	2888.4	1994.95
997.552	2711.0609	2884.35	1991.95
997.6742	2712.2881	2871.45	1981.35
997.7963	2713.5145	2879.65	1986.15
997.9183	2714.7403	2883.85	1991.8
998.0403	2715.9654	2884.75	1992.85
998.1623	2717.1899	2902.95	1997.95
998.2842	2718.4136	2878.95	1986.6
998.4062	2719.6367	2896.4	2004.85
998.528	2720.8591	2892.2	1994.2
998.6498	2722.0809	2868.5	1975.35
998.7716	2723.3019	2880.75	1986.15
998.8934	2724.5223	2885.5	1993.95
999.0151	2725.7421	2888.95	1998
999.1368	2726.9611	2878.2	1984.4
999.2584	2728.1795	2881.4	1987.9
999.38	2729.3972	2863.75	1972.4
999.5016	2730.6142	2854.2	1953.6
999.6231	2731.8306	2836.75	1943.75
999.7446	2733.0462	2815.05	1922.2
999.8661	2734.2612	2791.9	1897.4
999.9875	2735.4756	2764.7	1871.6
1000.1089	2736.6892	2755.9	1863.85
1000.2302	2737.9022	2737.4	1849.1
1000.3515	2739.1145	2727.05	1838
1000.4728	2740.3262	2710.45	1812.75
1000.594	2741.5372	2691.1	1801.65
1000.7152	2742.7475	2673.25	1783.2
1000.8363	2743.9571	2679.85	1785.95
1000.9575	2745.1661	2673.3	1780.15
1001.0785	2746.3744	2647.75	1755.7
1001.1996	2747.582	2637.05	1746.7
1001.3206	2748.7889	2641.85	1748.05
1001.4415	2749.9952	2613.3	1722.3
1001.5625	2751.2008	2610.1	1720.2
1001.6833	2752.4057	2603.4	1710.45
1001.8042	2753.61	2599.85	1711.2
1001.925	2754.8136	2576.1	1684.5
1002.0458	2756.0165	2576.75	1687
1002.1665	2757.2188	2565.75	1676.65
1002.2872	2758.4204	2562.7	1673.9
1002.4078	2759.6213	2547.1	1655.75
1002.5285	2760.8215	2557.1	1661.2
1002.649	2762.0211	2553.45	1661.7
1002.7696	2763.22	2549	1656.9
1002.8901	2764.4182	2532.85	1642.9
1003.0106	2765.6158	2531.45	1642.35
1003.131	2766.8127	2528.2	1640.35
1003.2514	2768.009	2506.9	1617.5
1003.3717	2769.2045	2519.1	1628.5
1003.492	2770.3994	2507.75	1614.4
1003.6123	2771.5936	2495.65	1604.5
1003.7325	2772.7872	2482.95	1593.15
1003.8527	2773.9801	2471.25	1580.05
1003.9729	2775.1723	2484.9	1578.2
1004.093	2776.3639	2461.85	1574
1004.2131	2777.5548	2462.7	1571.95
1004.3331	2778.745	2463.65	1573.15
1004.4531	2779.9346	2457.7	1568.45
1004.5731	2781.1235	2449.55	1558.4
1004.693	2782.3117	2438.7	1548.9
1004.8129	2783.4992	2445.2	1557.4
1004.9328	2784.6861	2436.65	1549.75
1005.0526	2785.8723	2438.2	1547.6
1005.1723	2787.0579	2439.8	1550.15
1005.2921	2788.2428	2419.95	1531.7
1005.4118	2789.427	2426.45	1538.35
1005.5314	2790.6106	2433.75	1543.5
1005.651	2791.7935	2435.15	1545.25
1005.7706	2792.9757	2427.05	1540.85
1005.8902	2794.1573	2429.45	1537.85
1006.0097	2795.3382	2424.2	1533.1
1006.1291	2796.5184	2433.35	1545.7
1006.2485	2797.698	2440.35	1547
1006.3679	2798.8769	2429.9	1540.25
1006.4873	2800.0551	2435	1547.15
1006.6066	2801.2327	2452.7	1561.2
1006.7258	2802.4096	2462.8	1574.15
1006.8451	2803.5859	2465.75	1577.1
1006.9642	2804.7615	2481.35	1592.5
1007.0834	2805.9364	2498	1611.45
1007.2025	2807.1106	2487	1597.1
1007.3216	2808.2842	2509.3	1620.4
1007.4406	2809.4572	2531.95	1644.2
1007.5596	2810.6294	2553.15	1663.6
1007.6785	2811.801	2576.35	1688.25
1007.7975	2812.972	2603.85	1714.95
1007.9163	2814.1423	2613.35	1724.75
1008.0352	2815.3119	2663.3	1773.35
1008.154	2816.4808	2689	1802.35
1008.2727	2817.6491	2731.5	1844.55
1008.3914	2818.8167	2771.45	1883.95
1008.5101	2819.9837	2805.05	1912.1
1008.6288	2821.15	2839.15	1950.9
1008.7474	2822.3157	2872.45	1985.25
1008.8659	2823.4807	2921.5	2032.75
1008.9844	2824.645	2956.95	2067.35
1009.1029	2825.8086	3000.3	2111.8
1009.2214	2826.9716	3035.7	2147.55
1009.3398	2828.134	3071.45	2181.75
1009.4581	2829.2957	3120.6	2234
1009.5764	2830.4567	3134.6	2247.55
1009.6947	2831.617	3141.95	2254.55
1009.813	2832.7767	3153.75	2264.3
1009.9312	2833.9358	3158.8	2273.8
1010.0493	2835.0941	3146.15	2255.7
1010.1675	2836.2519	3132.55	2245.4
1010.2855	2837.4089	3116.4	2227.25
1010.4036	2838.5653	3106.55	2219.95
1010.5216	2839.7211	3093.7	2205.65
1010.6396	2840.8761	3076.3	2187.1
1010.7575	2842.0306	3085.5	2199.6
1010.8754	2843.1843	3102.05	2215.35
1010.9932	2844.3374	3129.2	2239.8
1011.111	2845.4899	3169.3	2281.55
1011.2288	2846.6417	3206.75	2317.55
1011.3465	2847.7928	3244.6	2358.4
1011.4642	2848.9433	3287.4	2399.65
1011.5818	2850.0931	3354.65	2467.2
1011.6995	2851.2422	3396.95	2508.6
1011.817	2852.3907	3439.35	2552.55
1011.9345	2853.5385	3484	2595.5
1012.052	2854.6857	3522.05	2626.15
1012.1695	2855.8323	3552.55	2664.5
1012.2869	2856.9781	3579.7	2693.05
1012.4042	2858.1233	3628.2	2741.1
1012.5216	2859.2679	3651.9	2763.75
1012.6389	2860.4118	3678.15	2792.45
1012.7561	2861.555	3721.05	2828.4
1012.8733	2862.6976	3741.95	2854
1012.9905	2863.8395	3770.25	2883.8
1013.1076	2864.9808	3791.05	2905.2
1013.2247	2866.1214	3806.6	2920.65
1013.3417	2867.2614	3813.3	2923.95
1013.4587	2868.4007	3815.7	2926.05
1013.5757	2869.5393	3833.4	2944.2
1013.6926	2870.6773	3842	2953.5
1013.8095	2871.8146	3838	2948.9
1013.9263	2872.9513	3854.6	2966.2
1014.0431	2874.0874	3838.4	2950.15
1014.1599	2875.2227	3825.15	2939.45
1014.2766	2876.3574	3792.55	2905.8
1014.3933	2877.4915	3780.35	2893.7
1014.51	2878.6249	3748.5	2863.5
1014.6266	2879.7577	3736	2849.15
1014.7431	2880.8898	3734.9	2837.95
1014.8596	2882.0212	3689.65	2803.7
1014.9761	2883.152	3689.35	2802.7
1015.0925	2884.2821	3655.1	2768.35
1015.2089	2885.4116	3654.2	2765.75
1015.3253	2886.5405	3642.5	2756.85
1015.4416	2887.6686	3669.35	2779.9
1015.5579	2888.7962	3652.8	2767.95
1015.6741	2889.923	3659.2	2771.2
1015.7903	2891.0493	3672.15	2786.8
1015.9065	2892.1748	3673.65	2785.9
1016.0226	2893.2997	3679.05	2790.6
1016.1387	2894.424	3691.75	2807.2
1016.2547	2895.5476	3701.6	2814.7
1016.3707	2896.6706	3702.2	2818.2
1016.4866	2897.7929	3718.75	2830.95
1016.6025	2898.9145	3739.05	2849.5
1016.7184	2900.0355	3746.15	2857.7
1016.8342	2901.1559	3773.95	2887.75
1016.95	2902.2756	3781.6	2894.85
1017.0658	2903.3946	3808.4	2922.15
1017.1815	2904.513	3832.55	2942.85
1017.2971	2905.6308	3844.3	2956.9
1017.4127	2906.7479	3865.55	2977.85
1017.5283	2907.8643	3873.45	2986.1
1017.6439	2908.9801	3871.4	2984.4
1017.7594	2910.0953	3883.05	2995.85
1017.8748	2911.2098	3877.7	2989.65
1017.9902	2912.3236	3876	2981.95
1018.1056	2913.4368	3853.45	2964.35
1018.2209	2914.5494	3846.7	2962.55
1018.3362	2915.6613	3809.7	2916.65
1018.4515	2916.7725	3785.6	2898.95
1018.5667	2917.8831	3755.5	2868.05
1018.6819	2918.9931	3735.2	2847.05
1018.797	2920.1024	3706.3	2818.35
1018.9121	2921.211	3684	2797.3
1019.0271	2922.319	3660.4	2773.35
1019.1421	2923.4264	3646.6	2762.7
1019.2571	2924.5331	3638.9	2753.5
1019.372	2925.6391	3629.65	2744.15
1019.4869	2926.7445	3631.55	2745.55
1019.6017	2927.8493	3624.55	2738.85
1019.7165	2928.9534	3636.95	2750.55
1019.8313	2930.0569	3623.2	2733.35
1019.946	2931.1597	3623.1	2736.75
1020.0606	2932.2619	3616.5	2729.65
1020.1753	2933.3634	3617.05	2730.85
1020.2899	2934.4643	3625.6	2729.8
1020.4044	2935.5645	3602.6	2709.4
1020.5189	2936.6641	3595.8	2706.8
1020.6334	2937.763	3550.55	2665.25
1020.7478	2938.8613	3514.85	2629.45
1020.8622	2939.959	3487.55	2597.2
1020.9765	2941.056	3441.25	2556.1
1021.0908	2942.1523	3386.75	2500.6
1021.2051	2943.248	3321.65	2436
1021.3193	2944.3431	3243.95	2357.35
1021.4334	2945.4375	3166	2281.3
1021.5476	2946.5313	3090.2	2205.65
1021.6617	2947.6244	3004.05	2119.3
1021.7757	2948.7169	2926.75	2038.3
1021.8897	2949.8087	2848.35	1964.25
1022.0037	2950.8999	2784.85	1898.7
1022.1176	2951.9904	2710.3	1827.35
1022.2315	2953.0803	2657.6	1770.8
1022.3453	2954.1696	2601.45	1713.95
1022.4591	2955.2582	2556.7	1671.75
1022.5728	2956.3462	2507.3	1622.1
1022.6865	2957.4335	2488.05	1600.5
1022.8002	2958.5202	2453.35	1565.35
1022.9138	2959.6062	2425.1	1542.8
1023.0274	2960.6916	2413.85	1530.65
1023.141	2961.7764	2373.65	1488.15
1023.2545	2962.8605	2374.9	1488.1
1023.3679	2963.9439	2354.25	1471.55
1023.4813	2965.0267	2341	1453.9
1023.5947	2966.1089	2355.15	1445.55
1023.708	2967.1905	2324.35	1438.55
1023.8213	2968.2714	2317.75	1430.7
1023.9346	2969.3516	2314.5	1430
1024.0478	2970.4312	2323.05	1431.45
1024.1609	2971.5102	2315.25	1430.35
1024.274	2972.5885	2316	1431.75
1024.3871	2973.6662	2323.8	1432.2
1024.5002	2974.7432	2313.9	1427.85
1024.6132	2975.8196	2302.7	1415.2
1024.7261	2976.8954	2305.9	1422.3
1024.839	2977.9705	2292	1406.75
1024.9519	2979.045	2290.5	1406.4
1025.0647	2980.1188	2271.15	1386.8
1025.1775	2981.192	2248.85	1364.65
1025.2902	2982.2645	2234.9	1347.8
1025.4029	2983.3364	2215.15	1330.2
1025.5156	2984.4077	2189.65	1305.6
1025.6282	2985.4783	2177.05	1288.25
1025.7407	2986.5483	2149.2	1265.35
1025.8532	2987.6177	2118.85	1234.3
1025.9657	2988.6864	2085.4	1200.05
1026.0782	2989.7545	2070.85	1185.25
1026.1906	2990.8219	2036.1	1149.3
1026.3029	2991.8887	2005.95	1119.8
1026.4152	2992.9548	1978.2	1092.15
1026.5275	2994.0204	1944.25	1062.4
1026.6397	2995.0852	1925.55	1039.95
1026.7519	2996.1495	1902.7	1018.45
1026.864	2997.2131	1876.95	992.35
1026.9761	2998.276	1857.95	972.95
1027.0882	2999.3383	1843.15	959.55
1027.2002	3000.4	1828.35	943.9
1027.3122	3001.4611	1799.5	915.9
1027.4241	3002.5215	1793	907.45
1027.536	3003.5812	1769.35	885.7
1027.6478	3004.6404	1757.65	872.6
1027.7596	3005.6989	1755.45	868.9
1027.8714	3006.7567	1746.55	863.5
1027.9831	3007.8139	1743.7	838.8
1028.0947	3008.8705	1720.65	836.75
1028.2064	3009.9264	1727.4	825.6
1028.3179	3010.9818	1705.75	822.35
1028.4295	3012.0364	1702.2	818.55
1028.541	3013.0905	1692.85	810.35
1028.6524	3014.1439	1681.25	796.2
1028.7638	3015.1966	1685.7	802.7
1028.8752	3016.2487	1680.9	796.65
1028.9865	3017.3002	1671.15	782.7
1029.0978	3018.3511	1661.75	779.35
1029.209	3019.4013	1659.95	774.55
1029.3202	3020.4509	1660.5	777.85
1029.4314	3021.4998	1659.3	773.1
1029.5425	3022.5481	1654.8	770.8
1029.6535	3023.5958	1656.25	771.35
1029.7645	3024.6428	1647.55	761.6
1029.8755	3025.6892	1645.85	762.95
1029.9864	3026.735	1634.8	748.8
1030.0973	3027.7802	1638.75	753.95
1030.2082	3028.8247	1639.05	754.15
1030.319	3029.8685	1633.25	746.95
1030.4297	3030.9118	1638.75	755
1030.5404	3031.9544	1637.45	752.85
1030.6511	3032.9963	1631.85	749.5
1030.7617	3034.0376	1646.35	764.35
1030.8723	3035.0783	1633.95	747.35
1030.9829	3036.1184	1638.35	753.1
1031.0934	3037.1578	1638.35	755.55
1031.2038	3038.1966	1637.2	753.05
1031.3142	3039.2348	1633.85	750.9
1031.4246	3040.2723	1645.1	752.15
1031.5349	3041.3092	1635.05	752.7
1031.6452	3042.3455	1640.25	754.7
1031.7554	3043.3811	1620.65	734.5
1031.8656	3044.4161	1623.65	737.7
1031.9758	3045.4505	1622.7	738.7
1032.0859	3046.4842	1609.55	726.55
1032.1959	3047.5173	1602.4	717.25
1032.3059	3048.5498	1607.95	723.85
1032.4159	3049.5816	1599.4	715.8
1032.5258	3050.6128	1602.85	719.6
1032.6357	3051.6434	1592.55	704.8
1032.7455	3052.6734	1590.1	707.65
1032.8553	3053.7027	1585.7	702.45
1032.9651	3054.7314	1582.6	699.6
1033.0748	3055.7594	1576	694.1
1033.1845	3056.7868	1572.25	687.4
1033.2941	3057.8136	1574.2	693.05
1033.4037	3058.8398	1558.95	676.75
1033.5132	3059.8653	1556.2	672.85
1033.6227	3060.8902	1550.1	666.7
1033.7321	3061.9145	1550.7	666.75
1033.8415	3062.9381	1541.95	659.85
1033.9509	3063.9612	1553.95	658.25
1034.0602	3064.9835	1546.75	661.5
1034.1694	3066.0053	1534.4	649.5
1034.2787	3067.0264	1535.95	653
1034.3878	3068.0469	1525.3	640.9
1034.497	3069.0668	1527.95	640.7
1034.6061	3070.086	1514.6	630.7
1034.7151	3071.1046	1505.9	622.3
1034.8241	3072.1226	1502.75	616.95
1034.9331	3073.1399	1493.55	609.95
1035.042	3074.1567	1492.35	607.6
1035.1508	3075.1727	1481.3	597.05
1035.2597	3076.1882	1472.5	590.15
1035.3684	3077.203	1471.4	587.4
1035.4772	3078.2173	1466.45	580.85
1035.5859	3079.2308	1460.05	573.3
1035.6945	3080.2438	1443.4	557.85
1035.8031	3081.2561	1446.55	563.55
1035.9117	3082.2678	1433.6	550.25
1036.0202	3083.2789	1427.4	543.45
1036.1286	3084.2893	1423.05	541.7
1036.2371	3085.2991	1418.55	534.55
1036.3454	3086.3083	1418.15	529.45
1036.4538	3087.3169	1406.6	521.25
1036.562	3088.3248	1404.3	520.05
1036.6703	3089.3321	1398.25	515
1036.7785	3090.3388	1388.6	505.7
1036.8866	3091.3449	1390.05	507.1
1036.9948	3092.3503	1387.7	501.45
1037.1028	3093.3551	1378.45	495.15
1037.2108	3094.3593	1374	490.05
1037.3188	3095.3629	1372.65	490.1
1037.4267	3096.3658	1369.2	484.05
1037.5346	3097.3681	1362.9	480.35
1037.6425	3098.3698	1358.1	472.45
1037.7503	3099.3708	1361	473
1037.858	3100.3713	1347.55	465.5
1037.9657	3101.3711	1347.75	462.45
1038.0734	3102.3702	1466.65	449.55
1038.181	3103.3688	1350.9	464.3
1038.2886	3104.3667	1340.45	459.65
1038.3961	3105.364	1330.7	449.4
1038.5036	3106.3607	1327.1	443.6
1038.611	3107.3568	1329.1	445.7
1038.7184	3108.3522	1315.75	434.25
1038.8257	3109.347	1324	438.5
1038.933	3110.3412	1319.3	433.35
1039.0403	3111.3348	1312.85	430.45
1039.1475	3112.3277	1314.65	432.6
1039.2547	3113.32	1308.05	427.9
1039.3618	3114.3117	1301.75	416
1039.4689	3115.3028	1300.3	418
1039.5759	3116.2932	1299.55	415.35
1039.6829	3117.2831	1303.15	414
1039.7898	3118.2723	1292.5	409.85
1039.8967	3119.2608	1292.6	409.95
1040.0035	3120.2488	1286.4	402.1
1040.1103	3121.2361	1286.8	402.75
1040.2171	3122.2229	1281.7	399.5
1040.3238	3123.209	1273.95	390.25
1040.4305	3124.1944	1276.8	394.8
1040.5371	3125.1793	1276.7	393.6
1040.6437	3126.1635	1276.9	395.3
1040.7502	3127.1471	1270.7	386.15
1040.8567	3128.1301	1265.45	383.2
1040.9631	3129.1125	1260.15	379.15
1041.0695	3130.0942	1262.65	382.2
1041.1759	3131.0753	1268.15	377.95
1041.2822	3132.0558	1257.6	371
1041.3884	3133.0357	1256.3	374.15
1041.4946	3134.015	1252.45	369.4
1041.6008	3134.9936	1255.85	371.55
1041.7069	3135.9716	1268	363.8
1041.813	3136.949	1251.05	366.15
1041.919	3137.9258	1263.75	362.5
1042.025	3138.902	1252.4	363.65
1042.1309	3139.8775	1237.45	356.85
1042.2368	3140.8524	1237.6	355.45
1042.3427	3141.8267	1238.6	354.25
1042.4485	3142.8004	1245.2	362.7
1042.5542	3143.7735	1244.05	356.8
1042.6599	3144.7459	1240.4	356.75
1042.7656	3145.7178	1232.85	350.7
1042.8712	3146.689	1227.9	345.7
1042.9768	3147.6596	1235.3	351.1
1043.0823	3148.6295	1226.85	342.4
1043.1878	3149.5989	1221.15	339.45
1043.2932	3150.5676	1217.05	336.45
1043.3986	3151.5357	1211.45	330.05
1043.5039	3152.5032	1218.4	336
1043.6092	3153.4701	1217.7	337.45
1043.7145	3154.4364	1212.8	327.85
1043.8197	3155.402	1208.2	327
1043.9248	3156.367	1217.5	334.35
1044.03	3157.3315	1240.2	321.65
1044.135	3158.2952	1202.55	321.25
1044.24	3159.2584	1204.7	320.85
1044.345	3160.221	1210.8	326.6
1044.4499	3161.1829	1195.7	314.75
1044.5548	3162.1442	1196.65	314.85
1044.6596	3163.105	1195.8	313.8
1044.7644	3164.065	1192.9	311.45
1044.8692	3165.0245	1195.1	310.2
1044.9739	3165.9834	1186.5	304.9
1045.0785	3166.9416	1189.6	307.15
1045.1831	3167.8993	1181.5	299.7
1045.2877	3168.8563	1187.2	303.5
1045.3922	3169.8127	1177.1	296.8
1045.4966	3170.7684	1182.5	299
1045.6011	3171.7236	1183.5	301.65
1045.7054	3172.6782	1175.75	293.7
1045.8098	3173.6321	1175.15	292.6
1045.914	3174.5854	1179.2	292.95
1046.0183	3175.5381	1173.35	291
1046.1224	3176.4902	1170.8	288.75
1046.2266	3177.4417	1166.85	284.25
1046.3307	3178.3926	1169	287.45
1046.4347	3179.3428	1172.75	293.25
1046.5387	3180.2924	1165.65	285.15
1046.6427	3181.2415	1164.1	282.9
1046.7466	3182.1899	1167.75	282.05
1046.8504	3183.1377	1159.2	276.95
1046.9542	3184.0848	1157.8	271.7
1047.058	3185.0314	1160.95	279.95
1047.1617	3185.9773	1152.7	270.9
1047.2654	3186.9227	1154.05	270.2
1047.369	3187.8674	1146.7	265.5
1047.4726	3188.8115	1152.05	266.65
1047.5761	3189.755	1145.95	263
1047.6796	3190.6979	1148.4	266.65
1047.783	3191.6402	1150.3	269.35
1047.8864	3192.5818	1146.45	263.4
1047.9898	3193.5229	1146.85	258.1
1048.0931	3194.4633	1146.15	266.2
1048.1963	3195.4031	1138.4	256.6
1048.2995	3196.3423	1134.35	253.05
1048.4027	3197.2809	1140.25	257.65
1048.5058	3198.2189	1137.45	254.35
1048.6089	3199.1563	1141.8	252.25
1048.7119	3200.0931	1131.15	250.3
1048.8148	3201.0292	1125.9	244.85
1048.9178	3201.9648	1133.75	251.95
1049.0206	3202.8997	1132.8	247.6
1049.1235	3203.834	1132.6	251.05
1049.2262	3204.7677	1129.45	247.95
1049.329	3205.7008	1127.5	243.55
1049.4317	3206.6333	1125.35	244.35
1049.5343	3207.5652	1128.55	243.65
1049.6369	3208.4964	1127.05	246.7
1049.7394	3209.4271	1114.9	234.6
1049.8419	3210.3571	1114.35	233.4
1049.9444	3211.2865	1119.15	236.45
1050.0468	3212.2154	1116.95	233.05
1050.1491	3213.1436	1119.1	234.45
1050.2514	3214.0712	1121.25	234.4
1050.3537	3214.9982	1115.15	232.9
1050.4559	3215.9246	1114.85	232.55
1050.5581	3216.8503	1109.3	229.25
1050.6602	3217.7755	1111.6	229.35
1050.7623	3218.7001	1109.55	229.25
1050.8643	3219.624	1110.95	228.45
1050.9663	3220.5473	1107.1	225.45
1051.0682	3221.4701	1110.3	225.6
1051.1701	3222.3922	1112.3	227.75
1051.2719	3223.3137	1107.95	228.45
1051.3737	3224.2346	1100	219.45
1051.4754	3225.1549	1101.8	219.5
1051.5771	3226.0746	1098.65	220.35
1051.6788	3226.9937	1097.4	214.2
1051.7804	3227.9121	1096.05	216.35
1051.8819	3228.83	1097.6	215.6
1051.9834	3229.7473	1094.4	213.75
1052.0849	3230.6639	1091.95	211.45
1052.1863	3231.5799	1089.8	209.5
1052.2876	3232.4954	1092.2	209.3
1052.3889	3233.4102	1091.15	209.75
1052.4902	3234.3244	1087.6	207.75
1052.5914	3235.238	1091.05	210.85
1052.6926	3236.151	1112.3	206.15
1052.7937	3237.0634	1089.4	208.4
1052.8948	3237.9752	1085.3	203.9
1052.9958	3238.8864	1080.1	199.25
1053.0968	3239.797	1078.5	198.75
1053.1977	3240.7069	1080.4	198.9
1053.2986	3241.6163	1082.3	200
1053.3994	3242.5251	1076.5	195.9
1053.5002	3243.4332	1078.55	199.7
1053.6009	3244.3408	1076.15	195.95
1053.7016	3245.2477	1075.85	196.2
1053.8022	3246.154	1071.9	189.4
1053.9028	3247.0598	1072.35	189.6
1054.0034	3247.9649	1069.3	189.85
1054.1039	3248.8694	1066.1	186.05
1054.2043	3249.7733	1064.4	181.95
1054.3047	3250.6766	1066.3	185.3
1054.4051	3251.5793	1065.55	180.9
1054.5054	3252.4814	1058.5	177.95
1054.6056	3253.3829	1059.15	177.85
1054.7058	3254.2838	1058.35	178
1054.806	3255.1841	1059.15	178.25
1054.9061	3256.0838	1059.65	179.4
1055.0061	3256.9829	1058.4	178.55
1055.1062	3257.8814	1058.3	174.05
1055.2061	3258.7792	1052.9	169.35
1055.306	3259.6765	1057.1	175.6
1055.4059	3260.5731	1050.05	170.15
1055.5057	3261.4692	1050	166.85
1055.6055	3262.3647	1047.8	164.85
1055.7052	3263.2595	1044.1	163.7
1055.8049	3264.1538	1038.15	157.8
1055.9045	3265.0474	1040.7	160.4
1056.0041	3265.9404	1039.25	160.05
1056.1036	3266.8329	1035.6	154.6
1056.2031	3267.7247	1042.8	151.6
1056.3025	3268.616	1023.45	146.05
1056.4019	3269.5066	1026.1	144.9
1056.5013	3270.3966	1023.35	138.4
1056.6005	3271.286	1013.55	133.05
