Software Version:	3.9.2.0
Unit SN:	10000200
Spectrometer SN:	6960
Date:	3/26/2024 2:20:43 PM
Data Line Index:	25
Spectral Points:	2048
Integration time (ms):	125
Averages:	20
Delay (ms):	30000
Sequence Number:	1
Processing:	dark subtract
Laser Power (mW):	300
Laser Current (mA):	820
Laser Diode Temp (C):	25.1
Laser Case Temp (C):	27.6
System Temp (C):	27.6
Spectrometer Temp (C):	25.5
CCD Temp (C):	0.001
Secondary Temp (C):	20.011
Heatsink Temp (C):	22.983
CCDPCB Temp (C):	36.774
SecondaryPCB Temp (C):	34.695

Wavelength	RamanShift	Raw Counts	Dark Subtracted
787.061	30.1047	694.5	283.65
787.2016	32.3739	704.15	294.2
787.3422	34.6426	718.5	308.65
787.4828	36.9109	740.3	327.2
787.6235	39.1787	769.4	352.45
787.7642	41.4461	795.05	373.7
787.9049	43.7131	822.25	397.5
788.0456	45.9796	850.1	421.3
788.1863	48.2456	883.85	451.7
788.3271	50.5112	909.7	473.85
788.4679	52.7764	941.45	503.2
788.6087	55.0411	977.05	535.35
788.7496	57.3054	1013.5	566.9
788.8904	59.5692	1053.95	604.3
789.0313	61.8326	1098.75	647.15
789.1722	64.0955	1153.6	698.4
789.3132	66.3579	1207.45	744.2
789.4541	68.6199	1266.2	803.1
789.5951	70.8815	1384.45	917.4
789.7361	73.1426	1622.3	1151.05
789.8771	75.4032	2214.1	1737.55
790.0181	77.6634	3708.7	3225.2
790.1592	79.9231	7442.95	6949.75
790.3003	82.1824	16078.8	15568.8
790.4414	84.4412	40040.9	39499.85
790.5825	86.6995	65483.65	64899
790.7237	88.9574	65535	64910.5
790.8648	91.2148	65535	64884.05
791.006	93.4717	65535	64861
791.1472	95.7282	65535	64849.3
791.2885	97.9842	65535	64846.25
791.4297	100.2398	65535	64841.1
791.571	102.4949	65535	64844.05
791.7123	104.7495	65535	64835.15
791.8536	107.0036	65535	64832.85
791.9949	109.2573	65535	64838.3
792.1363	111.5105	65535	64834.95
792.2777	113.7632	65535	64833.15
792.4191	116.0154	65535	64823.85
792.5605	118.2672	65535	64828.65
792.7019	120.5185	65535	64831.6
792.8434	122.7693	65535	64827.15
792.9849	125.0197	65535	64816.55
793.1264	127.2696	65535	64818.45
793.2679	129.519	65535	64813
793.4094	131.7679	65535	64812.3
793.551	134.0163	65535	64803.05
793.6926	136.2642	65535	64807.5
793.8342	138.5117	65535	64799.9
793.9758	140.7587	65535	64798.7
794.1175	143.0052	65535	64800.5
794.2591	145.2512	65535	64800.65
794.4008	147.4967	65535	64799.85
794.5425	149.7417	65535	64795.8
794.6842	151.9863	65535	64793.5
794.826	154.2304	65535	64788.75
794.9677	156.4739	65535	64784.1
795.1095	158.717	65535	64785.1
795.2513	160.9596	65535	64778.55
795.3931	163.2017	65535	64777.95
795.535	165.4433	65535	64774.8
795.6768	167.6844	65535	64773.1
795.8187	169.925	65535	64772.1
795.9606	172.1651	65535	64774.6
796.1025	174.4047	65535	64769.25
796.2445	176.6439	65535	64770.15
796.3864	178.8825	65535	64765.05
796.5284	181.1206	65535	64760.55
796.6704	183.3582	65535	64753
796.8124	185.5954	65535	64752.45
796.9544	187.832	65535	64749.75
797.0965	190.0681	65535	64747.55
797.2386	192.3037	65535	64745.1
797.3806	194.5388	65535	64742.85
797.5228	196.7734	65535	64736.8
797.6649	199.0075	65535	64736.1
797.807	201.2411	65535	64736.6
797.9492	203.4742	65535	64732.75
798.0914	205.7068	65535	64730
798.2336	207.9389	65535	64729.75
798.3758	210.1704	65535	64724.95
798.518	212.4015	65535	64724.15
798.6603	214.632	65535	64734
798.8025	216.862	65535	64739.15
798.9448	219.0915	65535	64745.3
799.0871	221.3205	65535	64740.4
799.2294	223.549	65535	64748.35
799.3718	225.777	65535	64745.95
799.5141	228.0044	65535	64746
799.6565	230.2314	65535	64742.65
799.7989	232.4578	65535	64744.8
799.9413	234.6837	65535	64735.5
800.0837	236.909	65535	64739.75
800.2262	239.1339	65535	64709.45
800.3687	241.3582	65535	64724.75
800.5111	243.582	65535	64691.35
800.6536	245.8053	65535	64702.35
800.7961	248.0281	65535	64712.95
800.9387	250.2503	65535	64708.05
801.0812	252.472	65535	64700.2
801.2238	254.6932	65535	64703.1
801.3664	256.9139	65535	64705.45
801.509	259.134	65535	64698.9
801.6516	261.3536	65535	64701.1
801.7942	263.5727	65535	64695.5
801.9369	265.7912	65535	64697.7
802.0795	268.0092	65535	64697.25
802.2222	270.2267	65535	64696.1
802.3649	272.4436	65535	64699.1
802.5076	274.6601	65535	64691.85
802.6504	276.8759	65535	64696.4
802.7931	279.0913	65535	64688.4
802.9359	281.3061	65535	64690
803.0787	283.5204	65535	64689.25
803.2215	285.7341	65535	64684.05
803.3643	287.9473	65535	64674.45
803.5071	290.16	65535	64678.4
803.6499	292.3721	65535	64685
803.7928	294.5837	65535	64683.25
803.9357	296.7947	65535	64681
804.0786	299.0052	65535	64684.35
804.2215	301.2152	65535	64679.7
804.3644	303.4246	65535	64687.35
804.5074	305.6334	65535	64686
804.6503	307.8418	65535	64680.25
804.7933	310.0495	65535	64678.2
804.9363	312.2568	65535	64681.25
805.0793	314.4635	65535	64677.4
805.2223	316.6696	65535	64674.45
805.3653	318.8752	65535	64669
805.5084	321.0802	65535	64674.95
805.6514	323.2847	65535	64676.95
805.7945	325.4887	65535	64673.6
805.9376	327.692	65535	64674
806.0807	329.8949	65535	64671.8
806.2238	332.0972	65535	64674.55
806.367	334.2989	65535	64665.4
806.5101	336.5001	65535	64667.85
806.6533	338.7007	65535	64666.35
806.7965	340.9008	65535	64662.7
806.9397	343.1003	65535	64663.6
807.0829	345.2992	65535	64662.1
807.2261	347.4976	65535	64657.8
807.3693	349.6955	65535	64657.05
807.5126	351.8927	65535	64656.55
807.6559	354.0895	65535	64643.7
807.7991	356.2856	65535	64653.4
807.9424	358.4812	65535	64654.5
808.0857	360.6763	65535	64653.7
808.2291	362.8707	65535	64651.25
808.3724	365.0646	65535	64653.1
808.5158	367.258	65535	64649.15
808.6591	369.4508	65535	64648.65
808.8025	371.643	65535	64648.4
808.9459	373.8346	65535	64648.65
809.0893	376.0257	65535	64644.6
809.2327	378.2162	65535	64644.1
809.3762	380.4062	65535	64645.35
809.5196	382.5956	65535	64641.2
809.6631	384.7844	65535	64647.2
809.8066	386.9726	65535	64641.6
809.9501	389.1603	65535	64645.7
810.0936	391.3474	65535	64609.35
810.2371	393.5339	65535	64647
810.3806	395.7199	65535	64647.75
810.5241	397.9052	65535	64649.45
810.6677	400.09	65535	64649.45
810.8113	402.2743	65535	64649.15
810.9548	404.4579	65535	64652.5
811.0984	406.641	65535	64653
811.2421	408.8235	65535	64650.2
811.3857	411.0054	65535	64648.15
811.5293	413.1868	65535	64644.5
811.673	415.3675	65535	64643.8
811.8166	417.5477	65535	64642.1
811.9603	419.7273	65535	64637.4
812.104	421.9064	65535	64634.4
812.2477	424.0848	65535	64638.7
812.3914	426.2627	65535	64638.55
812.5351	428.4399	65535	64636.35
812.6788	430.6166	65535	64631.3
812.8226	432.7928	65535	64633.2
812.9663	434.9683	65535	64640.55
813.1101	437.1432	65535	64636.8
813.2539	439.3176	65535	64640.5
813.3977	441.4914	65535	64639.1
813.5415	443.6645	65535	64636.4
813.6853	445.8371	65535	64637.1
813.8291	448.0091	65535	64635.8
813.973	450.1806	65535	64637.35
814.1168	452.3514	65535	64638.8
814.2607	454.5216	65535	64631.9
814.4046	456.6913	65535	64633.05
814.5485	458.8603	65535	64634.1
814.6924	461.0288	65535	64639.5
814.8363	463.1967	65535	64639.8
814.9802	465.3639	65535	64636.8
815.1241	467.5306	65535	64634.45
815.2681	469.6967	65535	64632.1
815.412	471.8622	65535	64636.5
815.556	474.0271	65535	64635.85
815.7	476.1914	65535	64629.6
815.844	478.3551	65535	64634.95
815.988	480.5182	65535	64640.9
816.132	482.6807	65535	64640.85
816.276	484.8426	65535	64648.15
816.4201	487.0039	65535	64637.9
816.5641	489.1647	65535	64633.65
816.7082	491.3248	65535	64631.45
816.8522	493.4843	65535	64637.05
816.9963	495.6432	65535	64640.1
817.1404	497.8015	65535	64627.1
817.2845	499.9592	65535	64628.1
817.4286	502.1163	65535	64625
817.5727	504.2728	65535	64631.75
817.7168	506.4287	65535	64637.35
817.861	508.5839	65535	64634.6
818.0051	510.7386	65535	64632.1
818.1493	512.8927	65535	64621.6
818.2935	515.0461	65535	64627.6
818.4377	517.199	65535	64627.45
818.5818	519.3512	65535	64623.45
818.726	521.5029	65535	64622.8
818.8703	523.6539	65535	64624.7
819.0145	525.8043	65535	64624.9
819.1587	527.9541	65535	64623.2
819.303	530.1033	65535	64624
819.4472	532.2519	65535	64624.25
819.5915	534.3999	65535	64622.9
819.7357	536.5472	65535	64626.3
819.88	538.694	65535	64630.85
820.0243	540.8401	65535	64624.8
820.1686	542.9856	65535	64618.55
820.3129	545.1305	65535	64613
820.4572	547.2748	65535	64609.65
820.6016	549.4185	65535	64610.8
820.7459	551.5615	65535	64610.7
820.8902	553.704	65535	64612.4
821.0346	555.8458	65535	64614.4
821.1789	557.987	65535	64616.8
821.3233	560.1276	65535	64613.95
821.4677	562.2675	65535	64615.25
821.6121	564.4069	65535	64613.25
821.7565	566.5456	65535	64617.9
821.9009	568.6837	65535	64617.5
822.0453	570.8212	65535	64617.85
822.1897	572.958	65535	64614.6
822.3342	575.0942	65535	64616.75
822.4786	577.2299	65535	64619.75
822.6231	579.3648	65535	64628.85
822.7675	581.4992	65535	64635.75
822.912	583.6329	65535	64635.45
823.0565	585.766	65535	64634.9
823.201	587.8985	65535	64631.3
823.3454	590.0304	65535	64611.5
823.4899	592.1616	65535	64617.25
823.6345	594.2922	65535	64612
823.779	596.4222	65535	64612.2
823.9235	598.5515	65535	64610
824.068	600.6802	65535	64614.4
824.2126	602.8083	65535	64616.8
824.3571	604.9358	65535	64616.05
824.5017	607.0626	65535	64609.95
824.6462	609.1888	65535	64606.9
824.7908	611.3144	65535	64606.05
824.9354	613.4393	65535	64609.55
825.08	615.5636	65535	64610.65
825.2246	617.6873	65535	64610.6
825.3692	619.8103	65535	64608.9
825.5138	621.9327	65535	64611
825.6584	624.0544	65535	64616
825.803	626.1756	65535	64611.75
825.9477	628.2961	65535	64608.65
826.0923	630.4159	65535	64605
826.237	632.5351	65535	64608.4
826.3816	634.6537	65535	64607.05
826.5263	636.7716	65535	64602.8
826.6709	638.8889	65535	64602.4
826.8156	641.0056	65535	64602.7
826.9603	643.1216	65535	64604.6
827.105	645.237	65535	64600.25
827.2497	647.3518	65535	64613
827.3944	649.4659	65535	64615.1
827.5391	651.5793	65535	64616.6
827.6838	653.6922	65535	64611.7
827.8285	655.8043	65535	64609.15
827.9733	657.9159	65535	64604.35
828.118	660.0268	65535	64607.05
828.2627	662.137	65535	64605.75
828.4075	664.2466	65535	64600.6
828.5522	666.3556	65535	64603.15
828.697	668.4639	65535	64606.25
828.8418	670.5716	65535	64612.05
828.9865	672.6786	65535	64604.05
829.1313	674.785	65535	64602.85
829.2761	676.8907	65535	64604.9
829.4209	678.9958	65535	64614.3
829.5657	681.1002	65535	64606.95
829.7105	683.204	65535	64596.6
829.8553	685.3072	65535	64605.05
830.0001	687.4097	65535	64602.65
830.1449	689.5115	65535	64601
830.2898	691.6127	65535	64605.9
830.4346	693.7132	65535	64609.25
830.5794	695.8131	65535	64588.75
830.7243	697.9123	65535	64600.15
830.8691	700.0109	65535	64598.9
831.014	702.1089	65535	64602.2
831.1588	704.2061	65535	64604.25
831.3037	706.3028	65535	64596.9
831.4486	708.3987	65535	64598.7
831.5935	710.4941	65535	64600.35
831.7383	712.5887	65535	64605.65
831.8832	714.6827	65535	64600.3
832.0281	716.7761	65535	64604.9
832.173	718.8688	65535	64605.25
832.3179	720.9608	65535	64594.35
832.4628	723.0522	65535	64590
832.6077	725.1429	65535	64596.7
832.7527	727.233	65535	64597.3
832.8976	729.3224	65535	64600.75
833.0425	731.4112	65535	64599.65
833.1874	733.4993	65535	64599.6
833.3324	735.5867	65535	64599.7
833.4773	737.6735	65535	64599.25
833.6222	739.7596	65535	64596.05
833.7672	741.845	65535	64598.45
833.9122	743.9298	65535	64596.95
834.0571	746.014	65535	64599.85
834.2021	748.0974	65535	64595.15
834.347	750.1802	65535	64594
834.492	752.2624	65535	64595
834.637	754.3439	65535	64591.7
834.782	756.4247	65535	64588.5
834.9269	758.5048	65535	64596.85
835.0719	760.5843	65535	64592.35
835.2169	762.6631	65535	64595.05
835.3619	764.7413	65535	64598.95
835.5069	766.8188	65535	64592.9
835.6519	768.8956	65535	64596.95
835.7969	770.9718	65535	64598.3
835.9419	773.0473	65535	64599.75
836.0869	775.1221	65535	64597.75
836.232	777.1962	65535	64592.45
836.377	779.2697	65535	64593.75
836.522	781.3426	65535	64573.15
836.667	783.4147	65535	64590.5
836.8121	785.4862	65535	64596.4
836.9571	787.557	65535	64595.1
837.1021	789.6271	65535	64591.85
837.2472	791.6966	65535	64592.75
837.3922	793.7654	65535	64592.6
837.5373	795.8335	65535	64595.8
837.6823	797.901	65535	64596.65
837.8274	799.9678	65535	64593.05
837.9724	802.0339	65535	64593.65
838.1175	804.0993	65535	64585.6
838.2626	806.1641	65535	64592.3
838.4076	808.2282	65535	64596.75
838.5527	810.2916	65535	64593.8
838.6978	812.3544	65535	64596.2
838.8428	814.4164	65535	64592.75
838.9879	816.4778	65535	64588.8
839.133	818.5385	65535	64594.45
839.2781	820.5986	65535	64592.65
839.4232	822.658	65535	64587.2
839.5682	824.7166	65535	64592
839.7133	826.7747	65535	64593
839.8584	828.832	65535	64592.4
840.0035	830.8886	65535	64590.45
840.1486	832.9446	65535	64593.3
840.2937	834.9999	65535	64594.1
840.4388	837.0545	65535	64587.75
840.5839	839.1085	65535	64592.25
840.729	841.1618	65535	64589.35
840.8741	843.2143	65535	64595.25
841.0192	845.2662	65535	64594.7
841.1643	847.3175	65535	64590.75
841.3095	849.368	65535	64591.75
841.4546	851.4179	65535	64592.5
841.5997	853.467	65535	64592.05
841.7448	855.5155	65535	64590.9
841.8899	857.5633	65535	64591.75
842.0351	859.6105	65535	64591.55
842.1802	861.6569	65535	64592.2
842.3253	863.7027	65535	64589.15
842.4704	865.7478	65535	64592.2
842.6156	867.7922	65535	64592.8
842.7607	869.8359	65535	64589.35
842.9058	871.8789	65535	64593.3
843.0509	873.9212	65535	64556.85
843.1961	875.9629	65535	64589.5
843.3412	878.0039	65535	64591.55
843.4863	880.0441	65535	64594.85
843.6315	882.0837	65535	64591.8
843.7766	884.1226	65535	64587.95
843.9218	886.1609	65535	64594.4
844.0669	888.1984	65535	64587.8
844.212	890.2352	65535	64588.5
844.3572	892.2714	65535	64591.45
844.5023	894.3069	65535	64588.35
844.6475	896.3416	65535	64589.7
844.7926	898.3757	65535	64588.9
844.9377	900.4091	65535	64586.3
845.0829	902.4418	65535	64582.55
845.228	904.4739	65535	64585.7
845.3732	906.5052	65535	64585.3
845.5183	908.5358	65535	64587.9
845.6635	910.5658	65535	64587.7
845.8086	912.595	65535	64589.75
845.9538	914.6236	65535	64590.4
846.0989	916.6515	65535	64591.1
846.2441	918.6786	65535	64587.15
846.3892	920.7051	65535	64584.1
846.5344	922.7309	65535	64590.45
846.6795	924.756	65535	64585.6
846.8246	926.7804	65535	64589.55
846.9698	928.8041	65535	64587.6
847.1149	930.8272	65535	64592.65
847.2601	932.8495	65535	64585.35
847.4052	934.8711	65535	64587.35
847.5504	936.892	65535	64585.55
847.6955	938.9123	65535	64589.2
847.8407	940.9318	65535	64588.75
847.9858	942.9506	65535	64589.05
848.131	944.9688	65535	64586.8
848.2761	946.9862	65535	64588.95
848.4213	949.003	65535	64590.45
848.5664	951.019	65535	64587.15
848.7115	953.0344	65535	64591.5
848.8567	955.0491	65535	64584.25
849.0018	957.063	65535	64591
849.147	959.0763	65535	64581.05
849.2921	961.0888	65529.95	64581.7
849.4373	963.1007	65535	64589.95
849.5824	965.1119	65535	64597.25
849.7275	967.1223	65528.4	64593.05
849.8727	969.1321	65535	64599.35
850.0178	971.1412	65513.7	64574.85
850.1629	973.1495	65488.05	64547.15
850.3081	975.1572	65528.15	64527.85
850.4532	977.1641	65486.85	64541.6
850.5983	979.1704	65504.1	64558.05
850.7435	981.1759	65499.85	64551.2
850.8886	983.1808	65462.9	64513.1
851.0337	985.1849	65473.5	64516.05
851.1788	987.1884	65491.35	64548.75
851.324	989.1911	65513.4	64566.5
851.4691	991.1932	65328.1	64382.8
851.6142	993.1945	65432.75	64489.4
851.7593	995.1951	65478.85	64533.05
851.9045	997.1951	65340.5	64389.3
852.0496	999.1943	65299.95	64352.5
852.1947	1001.1928	65178.5	64230.9
852.3398	1003.1906	65286.05	64343.4
852.4849	1005.1877	64849.1	63902.75
852.63	1007.1841	64782.7	63838.9
852.7751	1009.1798	64817.15	63874.8
852.9202	1011.1748	64749.8	63807.2
853.0653	1013.1691	64675.15	63731.6
853.2104	1015.1627	62745	61801.1
853.3555	1017.1556	63917.5	62974.35
853.5006	1019.1477	64033.85	63091.25
853.6457	1021.1392	63180.55	62245.7
853.7908	1023.1299	61906.6	60970.45
853.9359	1025.12	62907.5	61973.35
854.081	1027.1093	62259.15	61338.3
854.2261	1029.0979	62194.8	61274.7
854.3712	1031.0859	62003.25	61077.95
854.5163	1033.0731	61013	60077.6
854.6613	1035.0596	61528.1	60588
854.8064	1037.0454	61223.4	60281.5
854.9515	1039.0304	60725.25	59784
855.0965	1041.0148	59496.7	58555.25
855.2416	1042.9985	59792.3	58850.4
855.3867	1044.9814	60503.3	59562.3
855.5317	1046.9636	59250.35	58308.1
855.6768	1048.9452	59429.35	58489.95
855.8219	1050.926	59117.25	58180.35
855.9669	1052.9061	59130.1	58191.2
856.112	1054.8855	59172.65	58231.5
856.257	1056.8642	58569.4	57629.45
856.4021	1058.8421	58198.55	57257.35
856.5471	1060.8194	58251.5	57310.9
856.6921	1062.7959	57799.65	56858.1
856.8372	1064.7717	58305.2	57360.95
856.9822	1066.7469	57898.45	56956.35
857.1272	1068.7213	57890.35	56945.6
857.2723	1070.695	57466.45	56523.9
857.4173	1072.6679	56838.1	55895.8
857.5623	1074.6402	57123.35	56184
857.7073	1076.6117	56607.9	55661.15
857.8523	1078.5826	56637.05	55695.25
857.9973	1080.5527	56715.8	55767.65
858.1423	1082.5221	56420	55477.5
858.2873	1084.4908	56712.8	55773.3
858.4323	1086.4587	56605.5	55662.7
858.5773	1088.426	56655.3	55715.45
858.7223	1090.3925	56464.1	55517.8
858.8673	1092.3584	56274.4	55332.2
859.0123	1094.3235	55641.25	54698.8
859.1573	1096.2879	55502.9	54558.6
859.3022	1098.2515	55457.35	54515
859.4472	1100.2145	55205.8	54266.8
859.5922	1102.1767	55062.15	54119.65
859.7371	1104.1382	55248.75	54310.85
859.8821	1106.099	55130.65	54187.45
860.027	1108.0591	55081.45	54140.25
860.172	1110.0185	54629.3	53688.3
860.3169	1111.9771	55025.8	54083.55
860.4619	1113.9351	54453.5	53511.65
860.6068	1115.8923	53915.3	52970.95
860.7517	1117.8488	53413.85	52473.25
860.8967	1119.8045	52768.8	51830
861.0416	1121.7596	52702.35	51761.3
861.1865	1123.7139	52277.65	51338.9
861.3314	1125.6675	52218.75	51279.45
861.4763	1127.6204	52227.9	51292.35
861.6212	1129.5726	51866.05	50924.7
861.7661	1131.524	51941.45	50998.85
861.911	1133.4748	52043.1	51104.85
862.0559	1135.4248	51772.35	50831.85
862.2008	1137.3741	51713.75	50775.85
862.3457	1139.3226	51529.55	50587.1
862.4905	1141.2705	51433.5	50495.55
862.6354	1143.2176	51100.15	50156.6
862.7803	1145.164	50956.7	50014.8
862.9251	1147.1097	50816.9	49876.2
863.07	1149.0546	50757.85	49815.35
863.2148	1150.9989	50655.8	49716.55
863.3597	1152.9424	50334.45	49394.4
863.5045	1154.8852	50056.65	49117.4
863.6493	1156.8272	49748.2	48809.7
863.7942	1158.7686	49676.75	48730.5
863.939	1160.7092	49308.7	48365.55
864.0838	1162.6491	49049.05	48106.9
864.2286	1164.5883	49151.1	48212.5
864.3734	1166.5267	49014.05	48072.45
864.5182	1168.4644	49079.65	48139.85
864.663	1170.4014	49097.4	48151.05
864.8078	1172.3377	49310.05	48372.9
864.9526	1174.2732	49469.25	48530.65
865.0974	1176.2081	49399	48459.9
865.2421	1178.1421	49401	48460.4
865.3869	1180.0755	49583.05	48643
865.5317	1182.0082	49257.75	48317.9
865.6764	1183.9401	49119	48182.45
865.8212	1185.8713	48700.95	47770.35
865.9659	1187.8017	48406.75	47482.95
866.1106	1189.7315	48079.95	47157.45
866.2554	1191.6605	47537	46613.75
866.4001	1193.5888	47172.6	46246.95
866.5448	1195.5163	47015.7	46083.1
866.6895	1197.4432	46738.25	45804.7
866.8342	1199.3693	46501.15	45566.95
866.9789	1201.2947	46200	45256.95
867.1236	1203.2193	46034.85	45096.75
867.2683	1205.1432	45916.2	44980.7
867.413	1207.0664	45824.4	44887.5
867.5576	1208.9889	45713.45	44773.85
867.7023	1210.9106	45561.75	44626.7
867.847	1212.8316	45475.8	44541.25
867.9916	1214.7519	45529.4	44584.15
868.1363	1216.6715	45283.45	44344.05
868.2809	1218.5903	45249.45	44315.55
868.4255	1220.5084	45005.6	44067.65
868.5701	1222.4257	44936.75	44001.45
868.7148	1224.3424	44547.45	43613.6
868.8594	1226.2583	44509.3	43573.4
869.004	1228.1735	44463.55	43529.05
869.1486	1230.0879	44359.3	43424.1
869.2932	1232.0016	44355.3	43421.15
869.4377	1233.9146	44233.5	43295.5
869.5823	1235.8269	44038.65	43105.3
869.7269	1237.7384	43878.65	42943
869.8715	1239.6492	43485.35	42552.85
870.016	1241.5592	43316.6	42382.35
870.1606	1243.4686	43061.5	42126.45
870.3051	1245.3772	42847.15	41913
870.4496	1247.285	42583.45	41647.6
870.5941	1249.1922	42400.4	41465.2
870.7387	1251.0986	42279.45	41345.7
870.8832	1253.0042	42151.65	41219
871.0277	1254.9092	42069.05	41137.25
871.1722	1256.8134	41988.55	41057.95
871.3167	1258.7169	42083.35	41150.1
871.4611	1260.6196	42130.15	41198.15
871.6056	1262.5216	42252.75	41317.4
871.7501	1264.4229	42268.85	41336.35
871.8945	1266.3234	42304.7	41369.45
872.039	1268.2232	42292.5	41357.05
872.1834	1270.1223	42092.5	41159.65
872.3278	1272.0207	42006.2	41070.35
872.4723	1273.9183	41869.85	40929.2
872.6167	1275.8151	41610.6	40680.8
872.7611	1277.7113	41460.5	40527.7
872.9055	1279.6067	41094.9	40165.4
873.0499	1281.5014	40857.7	39923.15
873.1943	1283.3953	40683.25	39748.9
873.3386	1285.2885	40468.15	39533.35
873.483	1287.181	40265.85	39333
873.6274	1289.0727	40266.85	39337.85
873.7717	1290.9637	40155.95	39225.4
873.9161	1292.854	40237.2	39305.85
874.0604	1294.7435	40221.55	39289.75
874.2047	1296.6323	40299.65	39366.4
874.349	1298.5204	40494.6	39560.95
874.4933	1300.4077	40685.25	39755.4
874.6376	1302.2943	40780.45	39848.3
874.7819	1304.1802	40799.35	39873
874.9262	1306.0653	40660.15	39722.15
875.0705	1307.9497	40451	39522
875.2147	1309.8333	40259.1	39325.4
875.359	1311.7162	40180.35	39248.15
875.5032	1313.5984	40266.45	39330.85
875.6475	1315.4798	40230.25	39288.3
875.7917	1317.3605	40302	39352.75
875.9359	1319.2405	40430.55	39497.3
876.0801	1321.1197	40402.9	39465.7
876.2243	1322.9982	40224.85	39287.25
876.3685	1324.876	40235.75	39302.5
876.5127	1326.753	40027.45	39096.75
876.6569	1328.6293	40105.85	39171.3
876.801	1330.5048	40057.45	39119.75
876.9452	1332.3796	39884.3	38952.45
877.0893	1334.2537	39793.4	38838.2
877.2335	1336.127	39612.15	38678.6
877.3776	1337.9996	39439.6	38508.3
877.5217	1339.8714	39369.3	38436.85
877.6658	1341.7426	39181.3	38207.1
877.8099	1343.6129	39006.45	38071.3
877.954	1345.4826	38920.2	37987.35
878.0981	1347.3515	38844.5	37909.4
878.2422	1349.2196	38664.5	37731.05
878.3862	1351.087	38656.85	37725.7
878.5303	1352.9537	38564	37632.65
878.6743	1354.8197	38647.15	37716.05
878.8184	1356.6849	38800.2	37868.65
878.9624	1358.5493	38715.7	37786.3
879.1064	1360.4131	38611.1	37679.25
879.2504	1362.276	38404.2	37470.9
879.3944	1364.1383	38135.85	37203.15
879.5384	1365.9998	37782.65	36841.4
879.6823	1367.8606	37418.7	36483.95
879.8263	1369.7206	37066.25	36133.9
879.9702	1371.5799	36816.4	35880.2
880.1142	1373.4384	36578.25	35646.1
880.2581	1375.2962	36442.4	35512.7
880.402	1377.1533	36036	35106.3
880.5459	1379.0096	35641.3	34713.8
880.6898	1380.8652	35285.95	34358.5
880.8337	1382.7201	34942.5	34014.85
880.9776	1384.5742	34622.65	33692.4
881.1215	1386.4275	34276.4	33345.6
881.2653	1388.2802	34128.45	33196.55
881.4092	1390.132	33876.7	32943.95
881.553	1391.9832	33785.35	32856.2
881.6968	1393.8336	33530.45	32602.6
881.8406	1395.6832	33435.35	32502.25
881.9844	1397.5322	33257.1	32328.4
882.1282	1399.3803	33162.7	32227.7
882.272	1401.2278	32928.8	32001.2
882.4158	1403.0745	32857.5	31932.45
882.5595	1404.9204	32643.05	31714.8
882.7033	1406.7656	32576.45	31646.95
882.847	1408.6101	32486.9	31558.4
882.9908	1410.4538	32365.4	31437.55
883.1345	1412.2968	32341.15	31412.25
883.2782	1414.139	32181.2	31251.1
883.4219	1415.9805	32185.1	31256.35
883.5656	1417.8213	32181.3	31231.45
883.7092	1419.6613	32213.95	31288.2
883.8529	1421.5006	32338.6	31410.45
883.9965	1423.3391	32532.45	31602.3
884.1402	1425.1769	32693.15	31763.1
884.2838	1427.0139	33127.55	32198.75
884.4274	1428.8502	33686.65	32756.5
884.571	1430.6858	34187	33260
884.7146	1432.5206	34448.3	33522.2
884.8582	1434.3547	34739.85	33811.6
885.0018	1436.188	34740.3	33812.85
885.1453	1438.0206	34617.45	33689.5
885.2889	1439.8524	34344.8	33418.5
885.4324	1441.6835	34250	33321.05
885.5759	1443.5139	34090.95	33160.85
885.7194	1445.3435	33841.6	32915.6
885.8629	1447.1724	33755.4	32830.05
886.0064	1449.0005	33682.65	32756.5
886.1499	1450.8279	33468.2	32537.95
886.2933	1452.6545	33368.5	32442.5
886.4368	1454.4804	33371.1	32445.85
886.5802	1456.3056	33261.25	32327.2
886.7237	1458.13	33144.05	32218.25
886.8671	1459.9536	32890.05	31963.35
887.0105	1461.7766	32502.05	31574.05
887.1539	1463.5987	31971.15	31044
887.2972	1465.4202	31505.75	30581.2
887.4406	1467.2409	31042	30117.7
887.584	1469.0608	30775.1	29847.7
887.7273	1470.88	30410.8	29484.5
887.8706	1472.6984	30147.9	29223.05
888.0139	1474.5161	29813.6	28887.7
888.1572	1476.3331	29623.7	28697.1
888.3005	1478.1493	29461.15	28535.05
888.4438	1479.9648	29285.4	28362.7
888.5871	1481.7795	29111.2	28185.15
888.7303	1483.5935	29016.35	28088.85
888.8736	1485.4067	28890.7	27965.75
889.0168	1487.2192	28789.2	27864.5
889.16	1489.031	28734.65	27808.7
889.3032	1490.842	28620.05	27696
889.4464	1492.6522	28587.55	27661.7
889.5896	1494.4618	28471.15	27543.95
889.7327	1496.2705	28392.85	27466.3
889.8759	1498.0785	28244.4	27321.15
890.019	1499.8858	28192.1	27267.35
890.1622	1501.6924	28089.95	27163.2
890.3053	1503.4981	28052.45	27128.55
890.4484	1505.3032	27948.4	27022.45
890.5914	1507.1075	27894.2	26968.55
890.7345	1508.911	27799.9	26875.3
890.8776	1510.7138	27701.35	26775.8
891.0206	1512.5159	27596.4	26674.05
891.1637	1514.3172	27471.9	26549.05
891.3067	1516.1178	27360.95	26437.8
891.4497	1517.9176	27279.7	26354.4
891.5927	1519.7166	27168.35	26246.4
891.7357	1521.515	27086.55	26155.3
891.8786	1523.3126	27010.8	26086
892.0216	1525.1094	26884.55	25960.9
892.1645	1526.9055	26765.15	25844.7
892.3074	1528.7008	26692.85	25771.25
892.4503	1530.4954	26555.2	25625.8
892.5932	1532.2893	26508.3	25588.3
892.7361	1534.0824	26318.8	25395.8
892.879	1535.8747	26311.75	25394.95
893.0218	1537.6663	26182	25261.95
893.1647	1539.4572	26083.4	25161.6
893.3075	1541.2473	26071.85	25152.9
893.4503	1543.0367	25994.8	25075.65
893.5931	1544.8253	25840.85	24918.85
893.7359	1546.6132	25825.3	24902.35
893.8787	1548.4003	25727.95	24796.9
894.0214	1550.1867	25657.3	24730.15
894.1642	1551.9723	25619.95	24696.75
894.3069	1553.7572	25572.45	24652.5
894.4496	1555.5414	25485.95	24569.8
894.5923	1557.3247	25424.5	24506.25
894.735	1559.1074	25417.45	24503.6
894.8777	1560.8893	25370.95	24458.7
895.0204	1562.6705	25352.15	24438.3
895.163	1564.4509	25345.8	24430.65
895.3056	1566.2305	25304.9	24391.35
895.4482	1568.0094	25435.45	24524.7
895.5908	1569.7876	25449.9	24536.2
895.7334	1571.565	25473.55	24560.05
895.876	1573.3417	25470.15	24557.65
896.0186	1575.1176	25445.05	24533.8
896.1611	1576.8928	25370.7	24460.65
896.3036	1578.6672	25195.85	24288.35
896.4461	1580.4409	25029.9	24124.55
896.5886	1582.2138	24854.3	23944.25
896.7311	1583.986	24605	23693.95
896.8736	1585.7575	24512.85	23599.95
897.0161	1587.5282	24368.25	23456.85
897.1585	1589.2981	24284.05	23379.05
897.3009	1591.0673	24045.3	23137.95
897.4433	1592.8358	24006.8	23098.9
897.5857	1594.6035	23921.9	23012.8
897.7281	1596.3704	23848.65	22939.5
897.8705	1598.1366	23759.6	22849.7
898.0128	1599.9021	23736.5	22827.15
898.1551	1601.6668	23708.9	22796.65
898.2975	1603.4308	23656.8	22745.05
898.4398	1605.194	23675.55	22760.2
898.5821	1606.9564	23712.75	22808.75
898.7243	1608.7182	23753.5	22850.85
898.8666	1610.4791	23781.8	22885.3
899.0088	1612.2394	23854.2	22956.25
899.1511	1613.9988	23931.55	23031.45
899.2933	1615.7576	24097.5	23193.65
899.4355	1617.5156	24316.2	23400.95
899.5776	1619.2728	24543.65	23634.4
899.7198	1621.0293	24621.55	23713.15
899.862	1622.785	24689.7	23782.35
900.0041	1624.54	24564.55	23659.05
900.1462	1626.2942	24373.7	23470.4
900.2883	1628.0477	24032.6	23126.95
900.4304	1629.8005	23766	22861.15
900.5725	1631.5525	23461.85	22554.7
900.7145	1633.3037	23166.85	22266.1
900.8566	1635.0542	22940.55	22039.4
900.9986	1636.804	22739.55	21836.15
901.1406	1638.553	22656.85	21707.15
901.2826	1640.3013	22447.9	21544.95
901.4245	1642.0488	22323.4	21419.45
901.5665	1643.7955	22300.45	21400.4
901.7085	1645.5416	22264.6	21361.2
901.8504	1647.2868	22252.45	21349.1
901.9923	1649.0313	22259	21353.65
902.1342	1650.7751	22316.6	21409.35
902.2761	1652.5181	22465.25	21566.2
902.4179	1654.2604	22590.6	21688.75
902.5598	1656.0019	22863.75	21963.7
902.7016	1657.7427	23209.4	22307.15
902.8434	1659.4828	23536.7	22631.6
902.9852	1661.222	23746.85	22842.55
903.127	1662.9606	23743.2	22839.7
903.2687	1664.6984	23543.5	22638.75
903.4105	1666.4354	23265.95	22359.95
903.5522	1668.1717	22748.4	21842
903.6939	1669.9072	22246.3	21339.95
903.8356	1671.642	21871.1	20961.15
903.9773	1673.3761	21492.6	20588.1
904.119	1675.1094	21214.8	20308.35
904.2606	1676.8419	20947.5	20043.75
904.4022	1678.5737	20738.8	19834.2
904.5439	1680.3048	20581.3	19677.3
904.6855	1682.0351	20410.65	19506.65
904.827	1683.7646	20274.4	19364.75
904.9686	1685.4934	20191.2	19288.3
905.1101	1687.2215	20080.1	19177.3
905.2517	1688.9488	19970.35	19068.75
905.3932	1690.6754	19877.55	18975.6
905.5347	1692.4012	19795.8	18893.4
905.6761	1694.1263	19735.35	18831.5
905.8176	1695.8506	19636.9	18732
905.9591	1697.5742	19594.5	18694.15
906.1005	1699.297	19498.15	18599.7
906.2419	1701.0191	19406.6	18507.05
906.3833	1702.7404	19317.85	18417.6
906.5246	1704.461	19184.45	18281.85
906.666	1706.1808	19085.6	18184.75
906.8073	1707.8999	19097	18198.6
906.9487	1709.6182	18986.6	18089.55
907.09	1711.3358	18977.65	18083.55
907.2313	1713.0527	18848.45	17955.4
907.3725	1714.7688	18754.05	17852.9
907.5138	1716.4841	18680.8	17779.5
907.655	1718.1987	18705	17799.9
907.7962	1719.9126	18635.55	17738.05
907.9374	1721.6257	18541.9	17644.75
908.0786	1723.338	18481	17586.25
908.2198	1725.0496	18362.15	17464.5
908.3609	1726.7605	18304.1	17405.4
908.502	1728.4706	18260.4	17361.7
908.6431	1730.18	18131.4	17234.1
908.7842	1731.8886	18127.7	17233.35
908.9253	1733.5964	18040.15	17122.25
909.0664	1735.3036	17989.4	17090.95
909.2074	1737.0099	17991.15	17095.5
909.3484	1738.7156	17928.3	17035.4
909.4894	1740.4204	17830.9	16933.25
909.6304	1742.1246	17822.15	16925.1
909.7714	1743.8279	17750.4	16854.55
909.9123	1745.5306	17687	16791.25
910.0532	1747.2325	17625.35	16728.7
910.1941	1748.9336	17617.9	16721.7
910.335	1750.634	17515.55	16616.1
910.4759	1752.3336	17491	16598.7
910.6168	1754.0325	17439.7	16544.85
910.7576	1755.7307	17395.2	16500.25
910.8984	1757.4281	17390.05	16494.4
911.0392	1759.1247	17390.35	16484.1
911.18	1760.8206	17327.95	16425.25
911.3208	1762.5158	17274.6	16373.85
911.4615	1764.2102	17210.5	16313.35
911.6022	1765.9039	17114.95	16220.6
911.7429	1767.5968	17105.7	16210.8
911.8836	1769.289	17043.7	16149.95
912.0243	1770.9804	16995	16098.8
912.1649	1772.6711	16980.25	16083.15
912.3056	1774.361	16923.2	16025.5
912.4462	1776.0502	16893.6	15994.85
912.5868	1777.7386	16842.9	15944.9
912.7274	1779.4263	16807.3	15912.3
912.8679	1781.1132	16766.35	15873.25
913.0084	1782.7994	16678.6	15784.45
913.149	1784.4849	16649.75	15756.35
913.2895	1786.1696	16623.6	15713
913.4299	1787.8535	16553.75	15662.85
913.5704	1789.5367	16503.6	15612.3
913.7108	1791.2192	16468.6	15575.3
913.8513	1792.9009	16443.4	15524.25
913.9917	1794.5818	16411.65	15514.85
914.132	1796.2621	16376.95	15482.25
914.2724	1797.9415	16294.2	15398.05
914.4128	1799.6202	16256.65	15362.15
914.5531	1801.2982	16246.2	15350.4
914.6934	1802.9755	16166.4	15270.3
914.8337	1804.6519	16156.15	15262.5
914.9739	1806.3277	16088.05	15196.1
915.1142	1808.0027	16011.1	15120
915.2544	1809.6769	16009.55	15119.8
915.3946	1811.3504	15966.35	15076.15
915.5348	1813.0231	15899.25	15007.25
915.675	1814.6951	15880.75	14988.55
915.8151	1816.3664	15865.7	14969.4
915.9553	1818.0369	15813.45	14920.65
916.0954	1819.7067	15757.95	14863.75
916.2355	1821.3757	15743.35	14847.75
916.3755	1823.044	15680.15	14785.9
916.5156	1824.7115	15705.5	14807.75
916.6556	1826.3783	15591.85	14699
916.7956	1828.0443	15537.7	14643.25
916.9356	1829.7096	15504.15	14610.9
917.0756	1831.3741	15473.95	14575.85
917.2155	1833.0379	15429.55	14538.3
917.3555	1834.701	15387.7	14496.65
917.4954	1836.3633	15379.55	14487.5
917.6353	1838.0248	15326.9	14434.05
917.7751	1839.6856	15279.05	14386.35
917.915	1841.3457	15288	14395.8
918.0548	1843.005	15246.9	14351.9
918.1946	1844.6636	15206.3	14314.8
918.3344	1846.3214	15174.9	14281.55
918.4742	1847.9785	15134.3	14242.85
918.6139	1849.6349	15103.65	14208.25
918.7537	1851.2904	15061.1	14158.4
918.8934	1852.9453	15020.4	14125.85
919.0331	1854.5994	14994.4	14097.2
919.1727	1856.2528	14975.1	14074.15
919.3124	1857.9054	14927.05	14032.75
919.452	1859.5572	14917.55	14026.5
919.5916	1861.2083	14878.6	13983
919.7312	1862.8587	14867.85	13973.4
919.8708	1864.5084	14830.9	13935.9
920.0103	1866.1572	14771.55	13875.6
920.1498	1867.8054	14679.8	13785.8
920.2893	1869.4528	14690.6	13795.85
920.4288	1871.0994	14628.9	13733.2
920.5683	1872.7453	14627.8	13732.4
920.7077	1874.3905	14584.75	13684
920.8471	1876.0349	14540.15	13643.75
920.9865	1877.6786	14525.95	13629.35
921.1259	1879.3215	14496.15	13602.65
921.2653	1880.9637	14463.65	13568.45
921.4046	1882.6051	14418.25	13524.85
921.5439	1884.2458	14384.7	13491.35
921.6832	1885.8858	14324.4	13433.55
921.8225	1887.525	14292.5	13400.7
921.9617	1889.1634	14244.55	13349.9
922.101	1890.8011	14181.9	13284.9
922.2402	1892.4381	14169.6	13274.5
922.3794	1894.0743	14148.1	13254.45
922.5185	1895.7098	14113.75	13220.3
922.6577	1897.3446	14060.7	13165.1
922.7968	1898.9786	14025.6	13126.4
922.9359	1900.6118	13986.95	13096.15
923.075	1902.2443	13893.85	12999.75
923.214	1903.8761	13884.25	12990
923.3531	1905.5071	13811.3	12919.6
923.4921	1907.1374	13772.55	12878.05
923.6311	1908.7669	13745.4	12853.95
923.77	1910.3957	13725.2	12833.5
923.909	1912.0237	13639.7	12747.15
924.0479	1913.651	13633.8	12737.05
924.1868	1915.2776	13611.3	12720.15
924.3257	1916.9034	13521.9	12630.5
924.4646	1918.5285	13473.7	12581.7
924.6034	1920.1528	13410.65	12517.7
924.7422	1921.7764	13411.9	12520.1
924.881	1923.3992	13369.3	12479.05
925.0198	1925.0213	13294.7	12401.65
925.1586	1926.6427	13194.85	12306.45
925.2973	1928.2633	13259.05	12293.8
925.436	1929.8832	13168	12273.45
925.5747	1931.5023	13110.5	12215.55
925.7134	1933.1207	13070.8	12180.6
925.852	1934.7383	13050.35	12158
925.9906	1936.3552	12998.45	12108.45
926.1292	1937.9714	12951.45	12059.75
926.2678	1939.5868	12889.3	11995.45
926.4064	1941.2015	12843.65	11948.95
926.5449	1942.8154	12780.65	11888.4
926.6834	1944.4286	12751.05	11856.9
926.8219	1946.041	12732.85	11820.4
926.9604	1947.6528	12644.95	11748.2
927.0988	1949.2637	12625.9	11732.45
927.2372	1950.8739	12559.6	11667.3
927.3756	1952.4834	12524.75	11633.95
927.514	1954.0921	12525.15	11631.5
927.6523	1955.7001	12483.1	11586.75
927.7907	1957.3074	12446.55	11558
927.929	1958.9139	12341.1	11453.6
928.0673	1960.5197	12319.75	11429.2
928.2055	1962.1247	12271.45	11380.8
928.3438	1963.729	12218.7	11330.3
928.482	1965.3325	12206.65	11294.05
928.6202	1966.9353	12136.15	11247.25
928.7584	1968.5374	12110.45	11220.15
928.8965	1970.1387	12055.7	11165.85
929.0346	1971.7393	12022.2	11134.05
929.1727	1973.3392	11995.55	11109.2
929.3108	1974.9383	11927.95	11041.8
929.4489	1976.5366	11875.85	10989.05
929.5869	1978.1342	11866.15	10978.2
929.7249	1979.7311	11849.3	10959.85
929.8629	1981.3273	11792.2	10903.7
930.0009	1982.9227	11741.85	10853.95
930.1388	1984.5173	11704.55	10818.5
930.2767	1986.1112	11651.55	10763.6
930.4146	1987.7044	11628.8	10742.1
930.5525	1989.2968	11597.3	10709.85
930.6904	1990.8885	11576.45	10685.85
930.8282	1992.4795	11567.45	10678.6
930.966	1994.0697	11512.15	10626.9
931.1038	1995.6592	11466.95	10581.05
931.2415	1997.2479	11431.15	10543.7
931.3793	1998.8359	11402.85	10519.7
931.517	2000.4232	11366.15	10482.95
931.6547	2002.0097	11329.55	10448.3
931.7923	2003.5955	11258.7	10372.35
931.93	2005.1805	11229.9	10345.1
932.0676	2006.7648	11218.6	10333.6
932.2052	2008.3484	11144.1	10259.6
932.3427	2009.9312	11173	10287.45
932.4803	2011.5133	11134.2	10252.7
932.6178	2013.0946	11106.1	10223.05
932.7553	2014.6752	11064.45	10179.9
932.8928	2016.2551	11043	10157.15
933.0302	2017.8342	11001.1	10115.85
933.1676	2019.4126	10963.5	10079.05
933.305	2020.9902	10917.7	10033.65
933.4424	2022.5672	10902.4	10018.65
933.5798	2024.1433	10875.5	9987.75
933.7171	2025.7188	10815.1	9933.9
933.8544	2027.2935	10788.9	9904.75
933.9917	2028.8674	10759.3	9877.65
934.129	2030.4406	10724.15	9841.45
934.2662	2032.0131	10660.15	9779.45
934.4034	2033.5849	10644.7	9754.75
934.5406	2035.1559	10646	9762.6
934.6778	2036.7261	10630.95	9747.25
934.8149	2038.2957	10589.75	9704.95
934.952	2039.8645	10566.4	9682
935.0891	2041.4325	10585.2	9698.45
935.2262	2042.9998	10485.15	9601.25
935.3632	2044.5664	10481.1	9596.8
935.5002	2046.1323	10450.45	9567.45
935.6372	2047.6974	10410.95	9525.6
935.7742	2049.2617	10396.4	9512.8
935.9111	2050.8254	10347.5	9457.35
936.048	2052.3883	10362.6	9471.85
936.1849	2053.9504	10310.6	9422.75
936.3218	2055.5118	10273.2	9381.9
936.4586	2057.0725	10241.95	9346.15
936.5955	2058.6325	10174.95	9284.35
936.7323	2060.1917	10158.6	9268.9
936.869	2061.7502	10145.25	9251.4
937.0058	2063.3079	10088.85	9201.75
937.1425	2064.8649	10072.25	9180.95
937.2792	2066.4212	10048.95	9160.45
937.4159	2067.9767	10048.1	9160.9
937.5525	2069.5315	9978.8	9094.8
937.6891	2071.0856	9922.9	9037.45
937.8257	2072.6389	9877.6	8992.9
937.9623	2074.1915	9858.8	8976.2
938.0989	2075.7433	9809.2	8923.65
938.2354	2077.2945	9826.6	8941.05
938.3719	2078.8448	9745.55	8859.25
938.5084	2080.3945	9753.85	8865.95
938.6448	2081.9434	9689.55	8800.4
938.7812	2083.4916	9695.35	8804.55
938.9176	2085.039	9663.4	8766.4
939.054	2086.5857	9670.95	8772.65
939.1903	2088.1317	9624.8	8726.15
939.3267	2089.677	9592.55	8691.1
939.463	2091.2215	9562.7	8661.6
939.5992	2092.7652	9528.75	8623.8
939.7355	2094.3083	9514.9	8613.45
939.8717	2095.8506	9478.55	8577.4
940.0079	2097.3921	9486.15	8587.9
940.1441	2098.933	9446.45	8550.15
940.2802	2100.4731	9448.55	8553.35
940.4163	2102.0124	9416.5	8513.05
940.5524	2103.5511	9375.2	8482.7
940.6885	2105.089	9365.1	8472.05
940.8245	2106.6261	9323.45	8432.55
940.9606	2108.1626	9315.7	8425.3
941.0965	2109.6983	9320.5	8401.8
941.2325	2111.2332	9252.65	8362.85
941.3684	2112.7675	9228.65	8339.7
941.5044	2114.301	9217.75	8327.75
941.6403	2115.8337	9201.1	8313.5
941.7761	2117.3657	9176.45	8287.95
941.912	2118.897	9144.95	8255.75
942.0478	2120.4276	9124.75	8233
942.1835	2121.9575	9072.4	8183.45
942.3193	2123.4866	9095.7	8205.45
942.455	2125.0149	9044.55	8152.95
942.5907	2126.5426	9006.45	8120.35
942.7264	2128.0695	8989.1	8099.9
942.8621	2129.5956	8961.7	8078.65
942.9977	2131.1211	8924.6	8035
943.1333	2132.6458	8908.5	8022.9
943.2689	2134.1698	8877.8	7988.3
943.4044	2135.693	8865.15	7973.25
943.54	2137.2155	8865.65	7974.55
943.6755	2138.7373	8828.8	7940.9
943.8109	2140.2584	8787.95	7902.55
943.9464	2141.7787	8781.1	7890.85
944.0818	2143.2983	8713.6	7832.6
944.2172	2144.8171	8698.2	7815.75
944.3526	2146.3353	8647.25	7759.65
944.4879	2147.8527	8643.4	7756.5
944.6232	2149.3693	8640.6	7753.3
944.7585	2150.8853	8619.4	7731.35
944.8938	2152.4005	8556.45	7666.45
945.029	2153.9149	8562	7673.95
945.1642	2155.4287	8618.55	7620.05
945.2994	2156.9417	8539.75	7649.95
945.4346	2158.454	8500.9	7609.45
945.5697	2159.9655	8465.25	7580.2
945.7048	2161.4764	8472.9	7588.55
945.8399	2162.9865	8450.1	7563.35
945.9749	2164.4958	8405.05	7518
946.1099	2166.0045	8379.85	7489.15
946.2449	2167.5124	8360.85	7476.15
946.3799	2169.0195	8337.55	7449.85
946.5148	2170.526	8314.1	7424.65
946.6498	2172.0317	8275.1	7388.45
946.7846	2173.5367	8267.2	7380.25
946.9195	2175.0409	8238.55	7354.8
947.0543	2176.5445	8231.95	7345.1
947.1891	2178.0473	8190.65	7300.3
947.3239	2179.5494	8149.25	7258.5
947.4587	2181.0507	8124.8	7236.5
947.5934	2182.5513	8076.75	7188
947.7281	2184.0512	8100	7210.55
947.8628	2185.5504	8058.85	7170.85
947.9974	2187.0488	8040.65	7156.05
948.132	2188.5465	7999.85	7116
948.2666	2190.0435	7966.5	7080.7
948.4012	2191.5397	7970.3	7083.2
948.5357	2193.0353	7943.75	7055.15
948.6702	2194.5301	7912.75	7022.05
948.8047	2196.0241	7864.55	6974
948.9392	2197.5175	7868.95	6979.6
949.0736	2199.0101	7816.95	6920.8
949.208	2200.502	7765.05	6879.7
949.3424	2201.9931	7766.9	6880.9
949.4767	2203.4835	7737.1	6849.6
949.611	2204.9733	7741.9	6839.7
949.7453	2206.4622	7724.2	6840.2
949.8796	2207.9505	7674.2	6786.6
950.0138	2209.438	7625.85	6745.3
950.148	2210.9248	7601.9	6716.6
950.2822	2212.4109	7613.3	6729.35
950.4164	2213.8962	7562.3	6671.5
950.5505	2215.3809	7576.5	6685.5
950.6846	2216.8648	7557.4	6665.6
950.8186	2218.3479	7539.05	6642.8
950.9527	2219.8304	7506.25	6610.85
951.0867	2221.3121	7461.4	6567.15
951.2207	2222.7931	7448.45	6560.5
951.3546	2224.2733	7427.35	6538.55
951.4886	2225.7529	7392	6504.05
951.6225	2227.2317	7375.2	6487.65
951.7563	2228.7098	7351.15	6467.5
951.8902	2230.1872	7301.8	6415.4
952.024	2231.6638	7286.9	6402.8
952.1578	2233.1397	7271.6	6382.3
952.2916	2234.6149	7257.65	6370.6
952.4253	2236.0894	7247.8	6361.25
952.559	2237.5632	7235.4	6347.1
952.6927	2239.0362	7193.85	6307.4
952.8263	2240.5085	7157.6	6271.95
952.9599	2241.9801	7137.1	6248.45
953.0935	2243.4509	7119.05	6233.05
953.2271	2244.921	7081.8	6191.35
953.3606	2246.3904	7071.2	6178.15
953.4941	2247.8591	7050.1	6159.45
953.6276	2249.3271	7039.25	6150.25
953.7611	2250.7943	6999.7	6110.25
953.8945	2252.2608	6995.8	6107.55
954.0279	2253.7266	6962.9	6073.75
954.1612	2255.1917	6940.85	6053.8
954.2946	2256.656	6930.35	6043
954.4279	2258.1197	6892.05	6006.3
954.5612	2259.5826	6869.7	5980.85
954.6944	2261.0447	6864.6	5974.45
954.8276	2262.5062	6845	5955.35
954.9608	2263.9669	6826.55	5936.7
955.094	2265.4269	6823.35	5933.65
955.2271	2266.8862	6782.7	5895.75
955.3602	2268.3448	6781.25	5893.25
955.4933	2269.8026	6747.1	5860.75
955.6264	2271.2598	6732.8	5846.05
955.7594	2272.7162	6714.35	5828.85
955.8924	2274.1719	6701	5812.9
956.0253	2275.6268	6685.65	5797.05
956.1583	2277.0811	6652.3	5763.6
956.2912	2278.5346	6647.55	5763.35
956.4241	2279.9874	6629.5	5742.55
956.5569	2281.4395	6621.35	5737.9
956.6897	2282.8908	6616.5	5725.85
956.8225	2284.3414	6594.3	5704
956.9553	2285.7914	6556.3	5667.05
957.088	2287.2406	6543.35	5654.15
957.2207	2288.689	6534.25	5642.1
957.3534	2290.1368	6505.15	5611.5
957.486	2291.5838	6501.1	5605.9
957.6186	2293.0302	6497.45	5602.85
957.7512	2294.4758	6453.55	5561.9
957.8838	2295.9206	6434.4	5545.8
958.0163	2297.3648	6436.25	5549.35
958.1488	2298.8082	6412.8	5525.95
958.2813	2300.251	6391.35	5504.25
958.4137	2301.693	6360.6	5468.9
958.5461	2303.1343	6358.2	5470
958.6785	2304.5748	6322.1	5433.8
958.8108	2306.0147	6316.7	5427.75
958.9432	2307.4538	6288.15	5400.6
959.0754	2308.8922	6265.45	5381.85
959.2077	2310.3299	6242.1	5358.25
959.3399	2311.7669	6217.95	5330.35
959.4721	2313.2031	6224.7	5333.95
959.6043	2314.6387	6183.3	5294.2
959.7365	2316.0735	6170.05	5278.55
959.8686	2317.5076	6141.85	5254.3
960.0006	2318.941	6148.6	5260.2
960.1327	2320.3737	6131.85	5241.4
960.2647	2321.8056	6111.15	5218.75
960.3967	2323.2369	6085.85	5194.3
960.5287	2324.6674	6086.1	5197.15
960.6606	2326.0972	6059.6	5166.6
960.7925	2327.5263	6029.55	5142.8
960.9244	2328.9547	6021.7	5132.65
961.0562	2330.3823	6000.05	5108.75
961.1881	2331.8092	5999.65	5105.25
961.3198	2333.2355	5969.3	5076.8
961.4516	2334.661	5954.65	5064.3
961.5833	2336.0858	5947.45	5056.15
961.715	2337.5098	5926.5	5034.45
961.8467	2338.9332	5902.55	5013.15
961.9783	2340.3558	5872.25	4982.05
962.1099	2341.7778	5874.95	4989.05
962.2415	2343.199	5840.75	4949.95
962.373	2344.6195	5820.75	4934.2
962.5045	2346.0393	5829.3	4942.5
962.636	2347.4583	5814.15	4924.5
962.7675	2348.8767	5810	4921.15
962.8989	2350.2943	5783.7	4894.1
963.0303	2351.7113	5781.85	4889.1
963.1617	2353.1275	5747.25	4854.9
963.293	2354.543	5738.55	4839.9
963.4243	2355.9578	5712.2	4822.85
963.5556	2357.3718	5690.5	4803.65
963.6868	2358.7852	5664.1	4774.75
963.818	2360.1978	5651.8	4763.5
963.9492	2361.6098	5627.1	4740.15
964.0803	2363.021	5624.95	4731.65
964.2114	2364.4315	5592.05	4704.2
964.3425	2365.8413	5592.75	4702.85
964.4736	2367.2504	5583.65	4697.15
964.6046	2368.6587	5548.3	4662.5
964.7356	2370.0664	5508.1	4621.6
964.8666	2371.4733	5502.3	4612.95
964.9975	2372.8795	5498.55	4609.55
965.1284	2374.285	5474.95	4586.6
965.2593	2375.6899	5435.4	4549.9
965.3901	2377.0939	5414.05	4526.55
965.5209	2378.4973	5403.3	4518.3
965.6517	2379.9	5395.4	4510.05
965.7825	2381.3019	5381.1	4494.4
965.9132	2382.7032	5355.4	4469.1
966.0439	2384.1037	5335.95	4450.4
966.1745	2385.5035	5339.05	4454.05
966.3051	2386.9027	5300.4	4415.45
966.4357	2388.3011	5285.15	4396
966.5663	2389.6987	5269.6	4383.75
966.6968	2391.0957	5240.55	4354.8
966.8273	2392.492	5235.1	4350.25
966.9578	2393.8876	5209.9	4322.95
967.0882	2395.2824	5207.3	4321.65
967.2186	2396.6765	5168.5	4282.4
967.349	2398.07	5161.4	4271.4
967.4793	2399.4627	5142.55	4255.25
967.6097	2400.8547	5130	4241.75
967.7399	2402.246	5118.5	4223.95
967.8702	2403.6366	5093.25	4205.3
968.0004	2405.0265	5077.55	4189.4
968.1306	2406.4156	5057.1	4166.15
968.2607	2407.8041	5048.35	4158.2
968.3909	2409.1918	5021.65	4133.05
968.521	2410.5789	4993.95	4105.7
968.651	2411.9652	4982.15	4091.9
968.781	2413.3508	4996.7	4109.1
968.911	2414.7358	4985.8	4095.3
969.041	2416.12	4956.2	4069.6
969.1709	2417.5035	4920.95	4035.6
969.3008	2418.8863	4911	4023.55
969.4307	2420.2684	4898.2	4010.85
969.5606	2421.6497	4883.95	3995.25
969.6904	2423.0304	4851.5	3964.6
969.8201	2424.4104	4845.6	3959.2
969.9499	2425.7896	4864.55	3973.4
970.0796	2427.1682	4828.4	3942.35
970.2093	2428.546	4811.15	3921.1
970.3389	2429.9232	4800.9	3914.3
970.4685	2431.2996	4786.7	3898.5
970.5981	2432.6753	4778.85	3892.2
970.7277	2434.0503	4747.15	3860.55
970.8572	2435.4246	4756.65	3869.15
970.9867	2436.7982	4732.6	3842
971.1161	2438.1711	4727.95	3840.75
971.2456	2439.5433	4695.6	3805.1
971.375	2440.9148	4688.45	3793.85
971.5043	2442.2856	4658.35	3771.55
971.6336	2443.6557	4666.8	3779.15
971.7629	2445.025	4657.6	3769.5
971.8922	2446.3937	4629.05	3739.15
972.0214	2447.7617	4616.1	3727
972.1506	2449.1289	4606.6	3717.5
972.2798	2450.4955	4599.7	3708.35
972.4089	2451.8613	4593.2	3707.5
972.538	2453.2265	4590.8	3702.3
972.6671	2454.5909	4573.2	3687.05
972.7961	2455.9546	4555.9	3667.95
972.9251	2457.3177	4557.4	3671
973.0541	2458.68	4524.5	3635.9
973.1831	2460.0416	4520.9	3633.9
973.312	2461.4025	4535.25	3646.3
973.4408	2462.7627	4505.45	3607.15
973.5697	2464.1222	4499.4	3614.45
973.6985	2465.4811	4479.55	3592.35
973.8273	2466.8392	4462.6	3577.8
973.956	2468.1966	4456.55	3567.3
974.0847	2469.5533	4443.95	3555.2
974.2134	2470.9093	4450.5	3563.9
974.3421	2472.2645	4421.25	3532.95
974.4707	2473.6191	4405.55	3518.55
974.5993	2474.973	4381.5	3492.65
974.7278	2476.3262	4383.25	3494.25
974.8563	2477.6787	4363.7	3476.25
974.9848	2479.0305	4351.25	3465.8
975.1132	2480.3816	4348.05	3459.5
975.2417	2481.7319	4328.5	3439.65
975.37	2483.0816	4301.05	3413.6
975.4984	2484.4306	4305.55	3415.9
975.6267	2485.7789	4283.55	3398.25
975.755	2487.1264	4262.8	3376
975.8833	2488.4733	4235.55	3349.1
976.0115	2489.8195	4253.15	3352.25
976.1397	2491.165	4243.95	3355.5
976.2678	2492.5097	4238.5	3349.4
976.3959	2493.8538	4199.2	3313.45
976.524	2495.1972	4184.05	3295.4
976.6521	2496.5398	4168.05	3280.4
976.7801	2497.8818	4171.7	3281.5
976.9081	2499.2231	4161.2	3272
977.036	2500.5637	4129.2	3240.65
977.164	2501.9035	4138.55	3250.5
977.2918	2503.2427	4122	3228.25
977.4197	2504.5812	4108.45	3222.25
977.5475	2505.919	4101.85	3212.3
977.6753	2507.256	4081.3	3195.05
977.8031	2508.5924	4069.85	3183.1
977.9308	2509.9281	4063.35	3170.4
978.0585	2511.2631	4040.6	3152.3
978.1861	2512.5974	4038.7	3151.5
978.3137	2513.9309	4023.5	3136.1
978.4413	2515.2638	4039.2	3125.6
978.5689	2516.596	4027.75	3139.75
978.6964	2517.9275	3991.95	3103.25
978.8239	2519.2583	3974.55	3087.45
978.9513	2520.5884	3951.2	3061.3
979.0788	2521.9178	3932.6	3044.1
979.2062	2523.2465	3932.25	3046.1
979.3335	2524.5745	3917.5	3032.95
979.4608	2525.9018	3925.5	3038
979.5881	2527.2284	3907.95	3022.3
979.7154	2528.5543	3892.6	3004.7
979.8426	2529.8796	3886.5	2996.95
979.9698	2531.2041	3870.25	2984.35
980.0969	2532.5279	3879.9	2992.5
980.224	2533.851	3869	2981.35
980.3511	2535.1735	3843.6	2956.1
980.4781	2536.4952	3844	2955
980.6052	2537.8163	3846.95	2959.1
980.7321	2539.1366	3819.2	2931.6
980.8591	2540.4562	3807.35	2917.6
980.986	2541.7752	3804.2	2915.85
981.1129	2543.0935	3802.7	2913.1
981.2397	2544.411	3805.95	2913.35
981.3665	2545.7279	3790.95	2903.35
981.4933	2547.0441	3788.2	2902.5
981.62	2548.3596	3789.3	2900.05
981.7467	2549.6744	3769.65	2879.8
981.8734	2550.9885	3753.45	2856.95
982.0001	2552.3019	3742.55	2855.5
982.1267	2553.6146	3741.35	2856.1
982.2532	2554.9266	3721.3	2834.75
982.3798	2556.2379	3720.35	2831.6
982.5063	2557.5485	3712.45	2826.5
982.6327	2558.8585	3701	2806.6
982.7592	2560.1677	3699.65	2808.65
982.8856	2561.4762	3700	2813.7
983.0119	2562.7841	3704.55	2810.55
983.1383	2564.0913	3673.55	2787.3
983.2646	2565.3977	3664.65	2778.55
983.3908	2566.7035	3660.35	2773.6
983.517	2568.0086	3654.9	2765.6
983.6432	2569.313	3647.1	2756.9
983.7694	2570.6167	3645	2751
983.8955	2571.9197	3623.35	2736.2
984.0216	2573.222	3627.1	2736.55
984.1476	2574.5236	3620.45	2729.7
984.2737	2575.8246	3628.1	2736.6
984.3996	2577.1248	3608.1	2717.15
984.5256	2578.4244	3605.55	2719.85
984.6515	2579.7232	3608.45	2719.35
984.7774	2581.0214	3613.55	2693.05
984.9032	2582.3189	3584.2	2696.85
985.029	2583.6157	3586.3	2693.5
985.1548	2584.9118	3573.55	2682.65
985.2806	2586.2072	3574.5	2686.55
985.4063	2587.5019	3562.8	2675.8
985.5319	2588.7959	3554.6	2666.5
985.6576	2590.0893	3551.55	2659.5
985.7832	2591.3819	3535.75	2647.5
985.9087	2592.6739	3523.6	2634.85
986.0343	2593.9652	3526.2	2635.8
986.1597	2595.2557	3524	2636.9
986.2852	2596.5456	3503.75	2612.9
986.4106	2597.8348	3496.55	2610.15
986.536	2599.1234	3491.85	2605.65
986.6614	2600.4112	3471.4	2582.95
986.7867	2601.6983	3478.95	2585.05
986.912	2602.9848	3474.6	2586.5
987.0372	2604.2705	3469.5	2574.85
987.1624	2605.5556	3455.3	2566.75
987.2876	2606.84	3436.8	2549.95
987.4128	2608.1237	3431.4	2541.1
987.5379	2609.4067	3419.4	2531
987.6629	2610.689	3416.8	2520.95
987.788	2611.9707	3416.4	2523.9
987.913	2613.2516	3394.6	2502.4
988.0379	2614.5319	3380.5	2493.35
988.1629	2615.8115	3376.55	2487.55
988.2878	2617.0903	3362.75	2470.55
988.4126	2618.3685	3355.4	2467.9
988.5375	2619.6461	3337.65	2449.15
988.6622	2620.9229	3333.1	2445.85
988.787	2622.199	3328.5	2439.35
988.9117	2623.4745	3317.65	2429.3
989.0364	2624.7493	3313.85	2424.7
989.161	2626.0234	3303.1	2415.3
989.2857	2627.2968	3303.45	2417.7
989.4102	2628.5695	3288.65	2398.8
989.5348	2629.8415	3263.95	2376.3
989.6593	2631.1128	3267.5	2379.45
989.7837	2632.3835	3253.2	2365.95
989.9082	2633.6535	3240.9	2353.9
990.0326	2634.9228	3246.6	2358.9
990.1569	2636.1914	3241.9	2352.7
990.2812	2637.4593	3229.85	2335.2
990.4055	2638.7265	3215.7	2326.25
990.5298	2639.9931	3205.7	2317.25
990.654	2641.259	3196.95	2308
990.7782	2642.5242	3193.35	2303.05
990.9023	2643.7887	3190.05	2302.85
991.0264	2645.0525	3178.2	2290.3
991.1505	2646.3156	3190.6	2287.65
991.2745	2647.5781	3165.95	2278.95
991.3985	2648.8398	3146.55	2258.8
991.5225	2650.1009	3159.95	2248.85
991.6464	2651.3613	3137.25	2249.3
991.7703	2652.6211	3125.9	2240.25
991.8942	2653.8801	3117.6	2230.1
992.018	2655.1385	3107.35	2217.2
992.1418	2656.3961	3095.2	2206.65
992.2655	2657.6531	3113	2224
992.3892	2658.9094	3101.85	2212.95
992.5129	2660.1651	3097.1	2208.95
992.6366	2661.42	3089.3	2201.4
992.7602	2662.6743	3085.45	2197
992.8837	2663.9279	3084.95	2200.15
993.0073	2665.1808	3080.2	2189.8
993.1307	2666.433	3066.7	2176.85
993.2542	2667.6846	3064.75	2178.65
993.3776	2668.9354	3067.75	2178.8
993.501	2670.1856	3041.55	2152.25
993.6244	2671.4351	3051.65	2163.85
993.7477	2672.6839	3049.6	2159.85
993.8709	2673.9321	3049.45	2162
993.9942	2675.1795	3056.85	2168.2
994.1174	2676.4263	3037.75	2149.15
994.2405	2677.6724	3032.35	2145.65
994.3637	2678.9179	3026	2136.35
994.4868	2680.1626	3026.45	2140.15
994.6098	2681.4067	3013.8	2127.4
994.7328	2682.6501	3005.2	2116.85
994.8558	2683.8928	3009.05	2121.4
994.9788	2685.1348	2988.5	2101.35
995.1017	2686.3761	2975.35	2087.7
995.2245	2687.6168	2976.5	2089.7
995.3474	2688.8568	2978	2087.7
995.4702	2690.0961	2960.1	2072.3
995.5929	2691.3348	2950.7	2062.25
995.7156	2692.5727	2951.25	2064.8
995.8383	2693.81	2927.1	2041.55
995.961	2695.0466	2924.8	2038.15
996.0836	2696.2826	2913.9	2027.15
996.2062	2697.5178	2916.4	2026.35
996.3287	2698.7524	2916.75	2029.9
996.4512	2699.9863	2902.45	2013.5
996.5737	2701.2195	2885.5	1998.2
996.6961	2702.452	2902.4	2013.3
996.8185	2703.6839	2882.5	1993.95
996.9408	2704.9151	2893.45	2008.6
997.0631	2706.1456	2895.3	2008.25
997.1854	2707.3755	2885.7	1998.15
997.3077	2708.6046	2894.8	2005.95
997.4299	2709.8331	2896.45	2008.3
997.552	2711.0609	2879.9	1992.25
997.6742	2712.2881	2882.25	1993.75
997.7963	2713.5145	2896.35	2005.35
997.9183	2714.7403	2909.1	2022.45
998.0403	2715.9654	2896.75	2007.95
998.1623	2717.1899	2909.35	2006.75
998.2842	2718.4136	2909.2	2022.05
998.4062	2719.6367	2908.5	2022.25
998.528	2720.8591	2924.2	2033.55
998.6498	2722.0809	2918.75	2031.5
998.7716	2723.3019	2929.45	2039.3
998.8934	2724.5223	2927.1	2039.55
999.0151	2725.7421	2932.15	2045
999.1368	2726.9611	2929.3	2039.7
999.2584	2728.1795	2918.6	2026.1
999.38	2729.3972	2896.9	2010.55
999.5016	2730.6142	2900.2	2006.5
999.6231	2731.8306	2868.5	1982.25
999.7446	2733.0462	2853.8	1969
999.8661	2734.2612	2839.55	1947.75
999.9875	2735.4756	2802.35	1915.05
1000.1089	2736.6892	2776.3	1889.05
1000.2302	2737.9022	2755.15	1869.7
1000.3515	2739.1145	2743.65	1855.4
1000.4728	2740.3262	2727.7	1833.8
1000.594	2741.5372	2712	1824.55
1000.7152	2742.7475	2691.7	1805.2
1000.8363	2743.9571	2689.6	1802.55
1000.9575	2745.1661	2676.2	1784.75
1001.0785	2746.3744	2648.1	1758.8
1001.1996	2747.582	2637.55	1751.85
1001.3206	2748.7889	2630.65	1742.8
1001.4415	2749.9952	2621.15	1735.4
1001.5625	2751.2008	2599.7	1712.9
1001.6833	2752.4057	2602.65	1713.6
1001.8042	2753.61	2597.05	1710.4
1001.925	2754.8136	2577.1	1690.15
1002.0458	2756.0165	2564.25	1678.5
1002.1665	2757.2188	2569.3	1684.5
1002.2872	2758.4204	2551.7	1666.25
1002.4078	2759.6213	2548.8	1659.85
1002.5285	2760.8215	2555.4	1666.55
1002.649	2762.0211	2547.3	1658.7
1002.7696	2763.22	2544.4	1653.55
1002.8901	2764.4182	2526.25	1638.25
1003.0106	2765.6158	2519.1	1635
1003.131	2766.8127	2516.3	1631.3
1003.2514	2768.009	2514.8	1629.7
1003.3717	2769.2045	2496.75	1610.35
1003.492	2770.3994	2490.95	1602.65
1003.6123	2771.5936	2489.8	1602.05
1003.7325	2772.7872	2484.25	1599.5
1003.8527	2773.9801	2471.95	1586.4
1003.9729	2775.1723	2465.65	1562.7
1004.093	2776.3639	2454	1568.9
1004.2131	2777.5548	2464.85	1576.6
1004.3331	2778.745	2451.3	1565.85
1004.4531	2779.9346	2459.35	1575.7
1004.5731	2781.1235	2460.25	1574.1
1004.693	2782.3117	2449.1	1563.65
1004.8129	2783.4992	2450.7	1565.85
1004.9328	2784.6861	2454.2	1570.2
1005.0526	2785.8723	2453.7	1569.75
1005.1723	2787.0579	2454.35	1570.75
1005.2921	2788.2428	2450.75	1564.1
1005.4118	2789.427	2457.85	1573.95
1005.5314	2790.6106	2463.4	1576.95
1005.651	2791.7935	2470.4	1586.15
1005.7706	2792.9757	2472.3	1587.4
1005.8902	2794.1573	2480	1591.75
1006.0097	2795.3382	2489.65	1603.55
1006.1291	2796.5184	2498.75	1615.55
1006.2485	2797.698	2512.1	1626.4
1006.3679	2798.8769	2529.75	1645.7
1006.4873	2800.0551	2544.2	1658.2
1006.6066	2801.2327	2543.3	1655.85
1006.7258	2802.4096	2554.25	1669.2
1006.8451	2803.5859	2581.1	1696
1006.9642	2804.7615	2597.3	1711.5
1007.0834	2805.9364	2605.7	1720.95
1007.2025	2807.1106	2643.85	1757.35
1007.3216	2808.2842	2677.55	1791.2
1007.4406	2809.4572	2708.85	1823.15
1007.5596	2810.6294	2730.7	1845.1
1007.6785	2811.801	2770.5	1886.2
1007.7975	2812.972	2801.45	1917.4
1007.9163	2814.1423	2854.6	1971.45
1008.0352	2815.3119	2894.05	2007.25
1008.154	2816.4808	2940.35	2058.35
1008.2727	2817.6491	2978	2091.35
1008.3914	2818.8167	3026.5	2144
1008.5101	2819.9837	3075	2185.65
1008.6288	2821.15	3123.35	2239.3
1008.7474	2822.3157	3156.55	2273.2
1008.8659	2823.4807	3191.95	2306.5
1008.9844	2824.645	3245.85	2358.95
1009.1029	2825.8086	3276.8	2392.2
1009.2214	2826.9716	3314.3	2430.3
1009.3398	2828.134	3363.45	2480.65
1009.4581	2829.2957	3385.6	2500.4
1009.5764	2830.4567	3406.25	2523.3
1009.6947	2831.617	3432.4	2546.45
1009.813	2832.7767	3433.5	2549
1009.9312	2833.9358	3441.05	2558.05
1010.0493	2835.0941	3434.3	2547.5
1010.1675	2836.2519	3392.6	2510.65
1010.2855	2837.4089	3397.1	2512.85
1010.4036	2838.5653	3395.25	2511.1
1010.5216	2839.7211	3404.5	2522.2
1010.6396	2840.8761	3408.2	2521.9
1010.7575	2842.0306	3422.7	2540.35
1010.8754	2843.1843	3457.5	2573.9
1010.9932	2844.3374	3505.8	2622.7
1011.111	2845.4899	3553.3	2666.1
1011.2288	2846.6417	3627.95	2746.9
1011.3465	2847.7928	3688.85	2805.95
1011.4642	2848.9433	3775.5	2892.1
1011.5818	2850.0931	3852.6	2969.05
1011.6995	2851.2422	3932.15	3045.4
1011.817	2852.3907	4002.6	3116.95
1011.9345	2853.5385	4072.2	3184.85
1012.052	2854.6857	4129.05	3234.35
1012.1695	2855.8323	4170.1	3286.85
1012.2869	2856.9781	4228.45	3346.25
1012.4042	2858.1233	4275.95	3391.95
1012.5216	2859.2679	4294.15	3410.8
1012.6389	2860.4118	4354	3468.95
1012.7561	2861.555	4382.1	3493.35
1012.8733	2862.6976	4423.6	3539.25
1012.9905	2863.8395	4455	3572.4
1013.1076	2864.9808	4462.3	3578.9
1013.2247	2866.1214	4474.9	3590.7
1013.3417	2867.2614	4501.35	3619.5
1013.4587	2868.4007	4498.45	3614.6
1013.5757	2869.5393	4507.55	3622.35
1013.6926	2870.6773	4513.1	3624.8
1013.8095	2871.8146	4539.95	3653.4
1013.9263	2872.9513	4522.45	3636.3
1014.0431	2874.0874	4508.25	3626.9
1014.1599	2875.2227	4515.45	3631.55
1014.2766	2876.3574	4496.75	3613.05
1014.3933	2877.4915	4447.2	3563.45
1014.51	2878.6249	4424.45	3540.5
1014.6266	2879.7577	4408.6	3523
1014.7431	2880.8898	4396.6	3500.3
1014.8596	2882.0212	4354.05	3470.75
1014.9761	2883.152	4329.95	3446
1015.0925	2884.2821	4343.6	3461.7
1015.2089	2885.4116	4329.3	3446.3
1015.3253	2886.5405	4310.15	3425.45
1015.4416	2887.6686	4341.55	3455.9
1015.5579	2888.7962	4341.7	3460.35
1015.6741	2889.923	4328.7	3446.05
1015.7903	2891.0493	4319.7	3435.5
1015.9065	2892.1748	4335.55	3449.8
1016.0226	2893.2997	4346.2	3459.7
1016.1387	2894.424	4357.85	3474.2
1016.2547	2895.5476	4365.3	3482
1016.3707	2896.6706	4401.7	3519.3
1016.4866	2897.7929	4420.05	3536.3
1016.6025	2898.9145	4432.15	3547.25
1016.7184	2900.0355	4464.2	3582.35
1016.8342	2901.1559	4513.55	3630.8
1016.95	2902.2756	4529.4	3646.8
1017.0658	2903.3946	4561.05	3677.6
1017.1815	2904.513	4579.8	3694.3
1017.2971	2905.6308	4599.85	3717.85
1017.4127	2906.7479	4631.4	3745.85
1017.5283	2907.8643	4655.75	3770.75
1017.6439	2908.9801	4668.05	3782.95
1017.7594	2910.0953	4668.65	3786.3
1017.8748	2911.2098	4670.2	3785.85
1017.9902	2912.3236	4648.85	3757.7
1018.1056	2913.4368	4653.75	3767.05
1018.2209	2914.5494	4625.75	3741.05
1018.3362	2915.6613	4582.8	3694.15
1018.4515	2916.7725	4553.9	3667.2
1018.5667	2917.8831	4540.8	3655.55
1018.6819	2918.9931	4510.5	3626.65
1018.797	2920.1024	4452.25	3567.25
1018.9121	2921.211	4433.3	3549.65
1019.0271	2922.319	4416.1	3532.05
1019.1421	2923.4264	4402.55	3520.2
1019.2571	2924.5331	4395.75	3513.65
1019.372	2925.6391	4378.45	3495.55
1019.4869	2926.7445	4350.3	3468.95
1019.6017	2927.8493	4332.85	3451.05
1019.7165	2928.9534	4342.3	3457.35
1019.8313	2930.0569	4340.25	3454.85
1019.946	2931.1597	4325.45	3440.75
1020.0606	2932.2619	4303.45	3420.4
1020.1753	2933.3634	4309.9	3427.7
1020.2899	2934.4643	4289.05	3398.75
1020.4044	2935.5645	4251.75	3363.85
1020.5189	2936.6641	4230.35	3342.15
1020.6334	2937.763	4168.65	3285.65
1020.7478	2938.8613	4114.65	3231.65
1020.8622	2939.959	4072.05	3184.85
1020.9765	2941.056	3983.8	3100.85
1021.0908	2942.1523	3893.9	3010.4
1021.2051	2943.248	3820.2	2939.5
1021.3193	2944.3431	3717.6	2835.65
1021.4334	2945.4375	3612.4	2728.35
1021.5476	2946.5313	3498.35	2617
1021.6617	2947.6244	3386.9	2506
1021.7757	2948.7169	3295.1	2410.65
1021.8897	2949.8087	3195.55	2312.75
1022.0037	2950.8999	3088	2203.25
1022.1176	2951.9904	3006.6	2124.85
1022.2315	2953.0803	2929.3	2047.8
1022.3453	2954.1696	2856.3	1973.7
1022.4591	2955.2582	2804.1	1922.9
1022.5728	2956.3462	2772.15	1890.8
1022.6865	2957.4335	2720.5	1838.5
1022.8002	2958.5202	2675.1	1790.25
1022.9138	2959.6062	2649.3	1767.4
1023.0274	2960.6916	2612.95	1731.05
1023.141	2961.7764	2602.9	1720.4
1023.2545	2962.8605	2570.25	1684.7
1023.3679	2963.9439	2553.85	1674.4
1023.4813	2965.0267	2550.65	1665.7
1023.5947	2966.1089	2564.15	1656.4
1023.708	2967.1905	2536.65	1654
1023.8213	2968.2714	2517.85	1634.9
1023.9346	2969.3516	2511	1629.2
1024.0478	2970.4312	2523.55	1634.6
1024.1609	2971.5102	2526.1	1646.35
1024.274	2972.5885	2518.9	1637.5
1024.3871	2973.6662	2524.2	1637.65
1024.5002	2974.7432	2499.35	1615.8
1024.6132	2975.8196	2501.3	1618.7
1024.7261	2976.8954	2486	1603.55
1024.839	2977.9705	2468.45	1587.8
1024.9519	2979.045	2458.25	1575.7
1025.0647	2980.1188	2428.85	1545.4
1025.1775	2981.192	2412.2	1530.7
1025.2902	2982.2645	2389.15	1506.7
1025.4029	2983.3364	2366.2	1484.7
1025.5156	2984.4077	2339.15	1456.25
1025.6282	2985.4783	2305.4	1418.8
1025.7407	2986.5483	2276.4	1396.75
1025.8532	2987.6177	2233.9	1351.4
1025.9657	2988.6864	2195.6	1313.4
1026.0782	2989.7545	2167.8	1284.2
1026.1906	2990.8219	2129.6	1246.7
1026.3029	2991.8887	2090.75	1205.6
1026.4152	2992.9548	2062.4	1179.2
1026.5275	2994.0204	2030.2	1147.85
1026.6397	2995.0852	1987.3	1107.1
1026.7519	2996.1495	1967.7	1082.85
1026.864	2997.2131	1941.15	1059.75
1026.9761	2998.276	1916.85	1034.45
1027.0882	2999.3383	1906.65	1024.35
1027.2002	3000.4	1875.3	993.45
1027.3122	3001.4611	1859.95	976.5
1027.4241	3002.5215	1849.15	968.35
1027.536	3003.5812	1831.7	948.75
1027.6478	3004.6404	1811.55	930.65
1027.7596	3005.6989	1810.55	925.9
1027.8714	3006.7567	1794.95	911.9
1027.9831	3007.8139	1802.8	898.75
1028.0947	3008.8705	1768.55	886.15
1028.2064	3009.9264	1784.45	886.95
1028.3179	3010.9818	1769.4	887.8
1028.4295	3012.0364	1765.1	882.95
1028.541	3013.0905	1757.35	876.5
1028.6524	3014.1439	1744.25	861.6
1028.7638	3015.1966	1759.95	879.05
1028.8752	3016.2487	1744.4	864.4
1028.9865	3017.3002	1741.55	850.95
1029.0978	3018.3511	1732.6	853.25
1029.209	3019.4013	1738.05	855.7
1029.3202	3020.4509	1738.95	857.45
1029.4314	3021.4998	1739.5	856.95
1029.5425	3022.5481	1739.85	857.4
1029.6535	3023.5958	1737.95	858.2
1029.7645	3024.6428	1737.4	854.15
1029.8755	3025.6892	1733.45	852.15
1029.9864	3026.735	1731.2	847.95
1030.0973	3027.7802	1739.85	857.15
1030.2082	3028.8247	1734.6	853.35
1030.319	3029.8685	1738.9	856.2
1030.4297	3030.9118	1739	855.6
1030.5404	3031.9544	1736.8	857.7
1030.6511	3032.9963	1745.5	861.7
1030.7617	3034.0376	1748.4	865.65
1030.8723	3035.0783	1751.7	870.2
1030.9829	3036.1184	1755.4	871.5
1031.0934	3037.1578	1748	869.25
1031.2038	3038.1966	1756.3	873.2
1031.3142	3039.2348	1750.95	872.3
1031.4246	3040.2723	1755.5	865.6
1031.5349	3041.3092	1754.9	874.9
1031.6452	3042.3455	1750.3	870.45
1031.7554	3043.3811	1743.4	861.2
1031.8656	3044.4161	1730.95	848.85
1031.9758	3045.4505	1728.15	847.5
1032.0859	3046.4842	1720.25	835.3
1032.1959	3047.5173	1711.7	830.75
1032.3059	3048.5498	1706.2	823.55
1032.4159	3049.5816	1694.95	814.65
1032.5258	3050.6128	1683.7	799
1032.6357	3051.6434	1682.2	799.95
1032.7455	3052.6734	1677.6	796.35
1032.8553	3053.7027	1663.9	782.5
1032.9651	3054.7314	1659.5	778.05
1033.0748	3055.7594	1650.9	770
1033.1845	3056.7868	1639.55	756.5
1033.2941	3057.8136	1638.75	758.25
1033.4037	3058.8398	1626.65	745.55
1033.5132	3059.8653	1621.9	739.7
1033.6227	3060.8902	1610.7	728.15
1033.7321	3061.9145	1611.45	729.75
1033.8415	3062.9381	1604.8	725.3
1033.9509	3063.9612	1615.05	718.1
1034.0602	3064.9835	1588.1	707.8
1034.1694	3066.0053	1580.2	699.65
1034.2787	3067.0264	1571.5	691.25
1034.3878	3068.0469	1565.2	681.8
1034.497	3069.0668	1554.55	671.25
1034.6061	3070.086	1545.25	666.85
1034.7151	3071.1046	1542.05	658.95
1034.8241	3072.1226	1530.1	648.85
1034.9331	3073.1399	1520.1	638.4
1035.042	3074.1567	1506.3	623.95
1035.1508	3075.1727	1494.25	610.55
1035.2597	3076.1882	1483.8	601.55
1035.3684	3077.203	1476.6	594.6
1035.4772	3078.2173	1468.8	585.15
1035.5859	3079.2308	1457.7	573.8
1035.6945	3080.2438	1456.1	573.65
1035.8031	3081.2561	1437.8	557.65
1035.9117	3082.2678	1429.3	547.9
1036.0202	3083.2789	1416.75	537.2
1036.1286	3084.2893	1413.65	534.2
1036.2371	3085.2991	1398.15	517.15
1036.3454	3086.3083	1406.65	520.15
1036.4538	3087.3169	1392.25	508.7
1036.562	3088.3248	1380.95	497.75
1036.6703	3089.3321	1382.3	500.6
1036.7785	3090.3388	1376	494.7
1036.8866	3091.3449	1373.4	491.2
1036.9948	3092.3503	1367.9	485.55
1037.1028	3093.3551	1362.95	483.8
1037.2108	3094.3593	1363.3	482.75
1037.3188	3095.3629	1349.7	471.3
1037.4267	3096.3658	1348.8	464.8
1037.5346	3097.3681	1340.65	458.95
1037.6425	3098.3698	1342.75	460.8
1037.7503	3099.3708	1344.4	456
1037.858	3100.3713	1331.9	450.65
1037.9657	3101.3711	1324.5	443
1038.0734	3102.3702	1451.45	436.7
1038.181	3103.3688	1317.95	435.35
1038.2886	3104.3667	1316.4	436.7
1038.3961	3105.364	1314.15	434.6
1038.5036	3106.3607	1310.65	428.15
1038.611	3107.3568	1309	430.6
1038.7184	3108.3522	1306.2	426.15
1038.8257	3109.347	1295.4	414.7
1038.933	3110.3412	1301.65	417.9
1039.0403	3111.3348	1295.05	415.1
1039.1475	3112.3277	1290.4	408.8
1039.2547	3113.32	1293.75	414.8
1039.3618	3114.3117	1287.2	405.4
1039.4689	3115.3028	1281.95	400.1
1039.5759	3116.2932	1276.35	395.4
1039.6829	3117.2831	1286.2	401.15
1039.7898	3118.2723	1274.05	391.75
1039.8967	3119.2608	1270.1	388.65
1040.0035	3120.2488	1274.15	392.4
1040.1103	3121.2361	1264.2	384.1
1040.2171	3122.2229	1260.75	379.3
1040.3238	3123.209	1260.85	376.95
1040.4305	3124.1944	1257.55	377.35
1040.5371	3125.1793	1259.2	378.5
1040.6437	3126.1635	1256.4	375.3
1040.7502	3127.1471	1257.25	377.3
1040.8567	3128.1301	1249.25	368.9
1040.9631	3129.1125	1249.6	368.1
1041.0695	3130.0942	1244.75	363.25
1041.1759	3131.0753	1255.8	368.35
1041.2822	3132.0558	1248.85	365.6
1041.3884	3133.0357	1244	361.8
1041.4946	3134.015	1239.3	357.9
1041.6008	3134.9936	1233.95	352.55
1041.7069	3135.9716	1253.45	353
1041.813	3136.949	1234.1	354.75
1041.919	3137.9258	1246.6	346.7
1042.025	3138.902	1233.15	350.8
1042.1309	3139.8775	1229.2	348.55
1042.2368	3140.8524	1226.65	347.6
1042.3427	3141.8267	1227.85	346.45
1042.4485	3142.8004	1222.15	342.35
1042.5542	3143.7735	1226.75	338.85
1042.6599	3144.7459	1222.15	337.25
1042.7656	3145.7178	1215.75	334.25
1042.8712	3146.689	1209.2	329.9
1042.9768	3147.6596	1208.5	326.3
1043.0823	3148.6295	1210.1	329.35
1043.1878	3149.5989	1209.3	328.9
1043.2932	3150.5676	1203.25	324.15
1043.3986	3151.5357	1195.15	316.5
1043.5039	3152.5032	1200.2	320.05
1043.6092	3153.4701	1195	317
1043.7145	3154.4364	1197	314.5
1043.8197	3155.402	1197.15	317.4
1043.9248	3156.367	1196.35	313.8
1044.03	3157.3315	1231.5	307.55
1044.135	3158.2952	1191.7	309.9
1044.24	3159.2584	1185	303.4
1044.345	3160.221	1187.55	307
1044.4499	3161.1829	1179.65	298.15
1044.5548	3162.1442	1177.65	298.3
1044.6596	3163.105	1181.5	300.5
1044.7644	3164.065	1176.4	295.9
1044.8692	3165.0245	1180.65	298.95
1044.9739	3165.9834	1176.6	298.05
1045.0785	3166.9416	1176.6	294.55
1045.1831	3167.8993	1168.15	290.15
1045.2877	3168.8563	1164.25	284.05
1045.3922	3169.8127	1163.4	283.65
1045.4966	3170.7684	1164.2	283.05
1045.6011	3171.7236	1167.2	285.8
1045.7054	3172.6782	1165.4	285.2
1045.8098	3173.6321	1161.25	279
1045.914	3174.5854	1164.4	277.95
1046.0183	3175.5381	1153.1	273.85
1046.1224	3176.4902	1157.7	277.9
1046.2266	3177.4417	1156.4	276.9
1046.3307	3178.3926	1152.8	270.65
1046.4347	3179.3428	1147.45	267.8
1046.5387	3180.2924	1143.05	261.8
1046.6427	3181.2415	1147.15	268.7
1046.7466	3182.1899	1145.05	262.5
1046.8504	3183.1377	1146.2	266.8
1046.9542	3184.0848	1145.2	263.65
1047.058	3185.0314	1141.3	260.2
1047.1617	3185.9773	1137.25	256.3
1047.2654	3186.9227	1141.5	258.15
1047.369	3187.8674	1136.85	256.35
1047.4726	3188.8115	1135.85	249.2
1047.5761	3189.755	1135.75	256.3
1047.6796	3190.6979	1136.75	256.7
1047.783	3191.6402	1132.5	253.05
1047.8864	3192.5818	1131.75	252.3
1047.9898	3193.5229	1131.95	245.9
1048.0931	3194.4633	1126.8	246.1
1048.1963	3195.4031	1129.55	248.4
1048.2995	3196.3423	1125.95	245.3
1048.4027	3197.2809	1122.75	242.45
1048.5058	3198.2189	1128	247.15
1048.6089	3199.1563	1128.15	240.5
1048.7119	3200.0931	1120.2	240.65
1048.8148	3201.0292	1114.35	235.35
1048.9178	3201.9648	1113.9	234.4
1049.0206	3202.8997	1117.15	235.7
1049.1235	3203.834	1110.7	230.05
1049.2262	3204.7677	1114.4	234.9
1049.329	3205.7008	1112.55	229.2
1049.4317	3206.6333	1110.05	232.75
1049.5343	3207.5652	1113.65	230.2
1049.6369	3208.4964	1111.3	231.05
1049.7394	3209.4271	1108	228.4
1049.8419	3210.3571	1102.05	223.25
1049.9444	3211.2865	1101.8	222.8
1050.0468	3212.2154	1104.9	223
1050.1491	3213.1436	1102.45	219.3
1050.2514	3214.0712	1110.7	224.15
1050.3537	3214.9982	1102.45	222.7
1050.4559	3215.9246	1098.65	216.45
1050.5581	3216.8503	1094.2	215.2
1050.6602	3217.7755	1097.15	217.45
1050.7623	3218.7001	1094.1	215.7
1050.8643	3219.624	1096.4	217.05
1050.9663	3220.5473	1097.6	219.25
1051.0682	3221.4701	1095.9	215.65
1051.1701	3222.3922	1097.4	215.4
1051.2719	3223.3137	1091.45	212.55
1051.3737	3224.2346	1088.5	207.55
1051.4754	3225.1549	1085.6	204.05
1051.5771	3226.0746	1084.4	203.9
1051.6788	3226.9937	1086	205
1051.7804	3227.9121	1082.9	205
1051.8819	3228.83	1080.85	201.1
1051.9834	3229.7473	1083.85	204.4
1052.0849	3230.6639	1084.45	204.8
1052.1863	3231.5799	1080.25	200.35
1052.2876	3232.4954	1086.4	206.5
1052.3889	3233.4102	1075.1	195.05
1052.4902	3234.3244	1080.7	199.55
1052.5914	3235.238	1083.45	204.85
1052.6926	3236.151	1103.3	198.5
1052.7937	3237.0634	1072.5	194.15
1052.8948	3237.9752	1076.25	196.45
1052.9958	3238.8864	1076.5	197.3
1053.0968	3239.797	1071.5	192.65
1053.1977	3240.7069	1073.35	194.6
1053.2986	3241.6163	1068.75	185.5
1053.3994	3242.5251	1066.25	188.65
1053.5002	3243.4332	1064.75	185.8
1053.6009	3244.3408	1072.4	191
1053.7016	3245.2477	1062.35	183
1053.8022	3246.154	1063.85	182.85
1053.9028	3247.0598	1060.5	181.45
1054.0034	3247.9649	1057.5	178.6
1054.1039	3248.8694	1060.8	181.95
1054.2043	3249.7733	1058.85	180.4
1054.3047	3250.6766	1055.55	175.45
1054.4051	3251.5793	1056.25	173.95
1054.5054	3252.4814	1052.5	174.15
1054.6056	3253.3829	1053.2	174.05
1054.7058	3254.2838	1051.1	172.4
1054.806	3255.1841	1058.4	177.85
1054.9061	3256.0838	1054.35	175.3
1055.0061	3256.9829	1047.6	168.95
1055.1062	3257.8814	1049.15	167.1
1055.2061	3258.7792	1047.4	166.05
1055.306	3259.6765	1046.05	166.3
1055.4059	3260.5731	1043.55	164.85
1055.5057	3261.4692	1037.1	159.05
1055.6055	3262.3647	1039.15	159.85
1055.7052	3263.2595	1036.2	155.4
1055.8049	3264.1538	1031.95	152.5
1055.9045	3265.0474	1028.55	147.85
1056.0041	3265.9404	1026.15	145.9
1056.1036	3266.8329	1025.45	148.25
1056.2031	3267.7247	1029.4	138.6
1056.3025	3268.616	1016.3	139.3
1056.4019	3269.5066	1013.1	135.05
1056.5013	3270.3966	1015.65	135.05
1056.6005	3271.286	1007.85	129.95
