Software Version:	3.9.2.0
Unit SN:	10000200
Spectrometer SN:	6960
Date:	3/26/2024 1:20:26 PM
Data Line Index:	25
Spectral Points:	2048
Integration time (ms):	125
Averages:	20
Delay (ms):	30000
Sequence Number:	1
Processing:	dark subtract
Laser Power (mW):	305
Laser Current (mA):	818
Laser Diode Temp (C):	25.1
Laser Case Temp (C):	26.5
System Temp (C):	26.5
Spectrometer Temp (C):	24.3
CCD Temp (C):	0.007
Secondary Temp (C):	20.004
Heatsink Temp (C):	21.925
CCDPCB Temp (C):	36.329
SecondaryPCB Temp (C):	33.706

Wavelength	RamanShift	Raw Counts	Dark Subtracted
787.061	30.1047	428.45	16.85
787.2016	32.3739	429.8	21.75
787.3422	34.6426	431.65	21.7
787.4828	36.9109	434.8	23.05
787.6235	39.1787	439.85	22.55
787.7642	41.4461	447.85	25.75
787.9049	43.7131	454.05	29.3
788.0456	45.9796	458.25	31.1
788.1863	48.2456	463.4	30.5
788.3271	50.5112	470.75	34.85
788.4679	52.7764	470.6	31.6
788.6087	55.0411	477.25	35.75
788.7496	57.3054	484.95	39.6
788.8904	59.5692	490.15	40.75
789.0313	61.8326	498.5	47.3
789.1722	64.0955	504.65	48.65
789.3132	66.3579	517.2	56.3
789.4541	68.6199	522.1	57.4
789.5951	70.8815	538.65	74.5
789.7361	73.1426	564.05	94.8
789.8771	75.4032	630.5	158.2
790.0181	77.6634	776.85	299.3
790.1592	79.9231	1144.05	661.15
790.3003	82.1824	1897.15	1411.55
790.4414	84.4412	3230.1	2738.85
790.5825	86.6995	5077.2	4580.4
790.7237	88.9574	6944.7	6445.7
790.8648	91.2148	8329.75	7824.25
791.006	93.4717	9129	8620.95
791.1472	95.7282	9426.55	8914.7
791.2885	97.9842	9586.8	9072
791.4297	100.2398	9600.15	9081.9
791.571	102.4949	9609.15	9088.35
791.7123	104.7495	9588.7	9064.1
791.8536	107.0036	9557.7	9033.75
791.9949	109.2573	9502.8	8980.8
792.1363	111.5105	9446.5	8919.8
792.2777	113.7632	9413.8	8885.55
792.4191	116.0154	9371.7	8830.6
792.5605	118.2672	9320.8	8789.65
792.7019	120.5185	9274.4	8740.05
792.8434	122.7693	9235.15	8697.8
792.9849	125.0197	9218.3	8680.3
793.1264	127.2696	9149.25	8607.9
793.2679	129.519	9165.2	8622.05
793.4094	131.7679	9158.25	8609.95
793.551	134.0163	9186.15	8633.3
793.6926	136.2642	9149.1	8594.3
793.8342	138.5117	9132.7	8568
793.9758	140.7587	9085.4	8527.15
794.1175	143.0052	9082.05	8518.8
794.2591	145.2512	9040.25	8477.05
794.4008	147.4967	9003.9	8441.85
794.5425	149.7417	8974.9	8408.55
794.6842	151.9863	8952.8	8383.1
794.826	154.2304	8935.15	8360.7
794.9677	156.4739	8886.75	8310.8
795.1095	158.717	8885.85	8306.75
795.2513	160.9596	8888.8	8305.1
795.3931	163.2017	8891.2	8305
795.535	165.4433	8883.7	8296.35
795.6768	167.6844	8873.4	8284.4
795.8187	169.925	8864.3	8271.9
795.9606	172.1651	8795.4	8197.55
796.1025	174.4047	8769.35	8166.95
796.2445	176.6439	8718.25	8116.6
796.3864	178.8825	8712.4	8105
796.5284	181.1206	8696.2	8085.8
796.6704	183.3582	8667	8055.65
796.8124	185.5954	8675.9	8061.9
796.9544	187.832	8662.5	8044.9
797.0965	190.0681	8665.85	8047.15
797.2386	192.3037	8651.75	8028.7
797.3806	194.5388	8646	8018.35
797.5228	196.7734	8681.5	8052.35
797.6649	199.0075	8664.6	8032.3
797.807	201.2411	8707.6	8073.9
797.9492	203.4742	8719.6	8085.55
798.0914	205.7068	8766.5	8131.5
798.2336	207.9389	8743.95	8105.2
798.3758	210.1704	8762.2	8121.3
798.518	212.4015	8739.5	8094.1
798.6603	214.632	8735.45	8092.95
798.8025	216.862	8719.8	8088.35
798.9448	219.0915	8716	8091.15
799.0871	221.3205	8725.45	8100
799.2294	223.549	8730.15	8109.85
799.3718	225.777	8737.8	8115.7
799.5141	228.0044	8740.4	8116
799.6565	230.2314	8707.75	8084.25
799.7989	232.4578	8690.05	8066.1
799.9413	234.6837	8688.75	8055.75
800.0837	236.909	8698.1	8064
800.2262	239.1339	8682.9	8022.3
800.3687	241.3582	8678.05	8031.6
800.5111	243.582	8665.1	7990.05
800.6536	245.8053	8671.75	8008.9
800.7961	248.0281	8660.75	8001.5
800.9387	250.2503	8646.25	7984
801.0812	252.472	8640.75	7971.5
801.2238	254.6932	8663	7992.35
801.3664	256.9139	8633.3	7959.1
801.509	259.134	8645.3	7969.15
801.6516	261.3536	8624.55	7951.9
801.7942	263.5727	8688.75	8011.55
801.9369	265.7912	8663.55	7988.45
802.0795	268.0092	8684.4	8010.4
802.2222	270.2267	8713.5	8034.65
802.3649	272.4436	8720.2	8040.5
802.5076	274.6601	8739.75	8053.25
802.6504	276.8759	8749.3	8065.6
802.7931	279.0913	8770.15	8083.85
802.9359	281.3061	8750.6	8063.1
803.0787	283.5204	8772.3	8084.05
803.2215	285.7341	8796.65	8105.1
803.3643	287.9473	8811.4	8108.45
803.5071	290.16	8795.25	8096.25
803.6499	292.3721	8752.95	8059.75
803.7928	294.5837	8740.6	8046.65
803.9357	296.7947	8670.55	7974.75
804.0786	299.0052	8672.15	7977.7
804.2215	301.2152	8618	7919.5
804.3644	303.4246	8615.35	7920.75
804.5074	305.6334	8604.1	7907.3
804.6503	307.8418	8569.75	7871.25
804.7933	310.0495	8575.25	7877.2
804.9363	312.2568	8498.1	7800.2
805.0793	314.4635	8456.1	7753.95
805.2223	316.6696	8424.05	7718.55
805.3653	318.8752	8371.8	7660.1
805.5084	321.0802	8332.55	7627
805.6514	323.2847	8313.75	7606.75
805.7945	325.4887	8299.25	7591.25
805.9376	327.692	8288.7	7579.15
806.0807	329.8949	8319.65	7609.2
806.2238	332.0972	8334.85	7622.35
806.367	334.2989	8355.9	7640.1
806.5101	336.5001	8344.4	7628.5
806.6533	338.7007	8310.95	7593.4
806.7965	340.9008	8291.4	7573.3
806.9397	343.1003	8268.4	7548.85
807.0829	345.2992	8220	7498.3
807.2261	347.4976	8188.7	7465.45
807.3693	349.6955	8162.05	7435.15
807.5126	351.8927	8146.8	7421.7
807.6559	354.0895	8098.2	7357.6
807.7991	356.2856	8099.25	7370.4
807.9424	358.4812	8074.3	7345.45
808.0857	360.6763	8081.45	7351.3
808.2291	362.8707	8055.8	7325.1
808.3724	365.0646	8064.35	7330.8
808.5158	367.258	8037.25	7301.2
808.6591	369.4508	8064.2	7326
808.8025	371.643	8086	7344.4
808.9459	373.8346	8065.2	7323.2
809.0893	376.0257	8069	7323.75
809.2327	378.2162	8095.05	7347.6
809.3762	380.4062	8080.8	7331.35
809.5196	382.5956	8017.7	7267.8
809.6631	384.7844	7991.45	7244.25
809.8066	386.9726	7933.4	7182.55
809.9501	389.1603	7910.7	7159.6
810.0936	391.3474	7900.5	7120.25
810.2371	393.5339	7874.8	7124.8
810.3806	395.7199	7846.55	7101.7
810.5241	397.9052	7861.1	7119.3
810.6677	400.09	7869.85	7126.5
810.8113	402.2743	7893.75	7152.35
810.9548	404.4579	7875.2	7133.65
811.0984	406.641	7924.4	7179.9
811.2421	408.8235	7949.55	7205.4
811.3857	411.0054	8009.7	7262.35
811.5293	413.1868	8078.3	7330.5
811.673	415.3675	8151.65	7399.2
811.8166	417.5477	8151.8	7399.15
811.9603	419.7273	8076.85	7320.9
812.104	421.9064	7969.85	7207.25
812.2477	424.0848	7893.25	7135.2
812.3914	426.2627	7831.05	7071.45
812.5351	428.4399	7782	7019.1
812.6788	430.6166	7741.7	6973.7
812.8226	432.7928	7690.65	6920.8
812.9663	434.9683	7651.35	6884.3
813.1101	437.1432	7608.35	6838.25
813.2539	439.3176	7578.75	6812.3
813.3977	441.4914	7538.25	6766.45
813.5415	443.6645	7521.95	6748.55
813.6853	445.8371	7509.2	6737.25
813.8291	448.0091	7487.7	6715.55
813.973	450.1806	7457.1	6685.1
814.1168	452.3514	7434	6659.2
814.2607	454.5216	7452.35	6673
814.4046	456.6913	7376.4	6597.95
814.5485	458.8603	7385.8	6608.7
814.6924	461.0288	7403	6624.95
814.8363	463.1967	7370.3	6595.3
814.9802	465.3639	7410.9	6633.85
815.1241	467.5306	7374.45	6596.25
815.2681	469.6967	7367.3	6588.2
815.412	471.8622	7329.05	6551.4
815.556	474.0271	7319.05	6539.7
815.7	476.1914	7306.9	6524.65
815.844	478.3551	7299.9	6517.45
815.988	480.5182	7306.4	6523.6
816.132	482.6807	7327.55	6545.05
816.276	484.8426	7341.9	6561.5
816.4201	487.0039	7359.95	6576.6
816.5641	489.1647	7376.6	6591.2
816.7082	491.3248	7412.1	6626.9
816.8522	493.4843	7401.3	6615.8
816.9963	495.6432	7400.75	6614.85
817.1404	497.8015	7370.25	6581.95
817.2845	499.9592	7358	6571.1
817.4286	502.1163	7306.8	6520.7
817.5727	504.2728	7270	6479.3
817.7168	506.4287	7251.5	6464.85
817.861	508.5839	7230.2	6440.7
818.0051	510.7386	7230.45	6441.45
818.1493	512.8927	7238.4	6440.3
818.2935	515.0461	7233.35	6441.6
818.4377	517.199	7237.75	6446.15
818.5818	519.3512	7245.1	6451.95
818.726	521.5029	7308.5	6511.7
818.8703	523.6539	7317.05	6523.3
819.0145	525.8043	7306.55	6508.75
819.1587	527.9541	7287.15	6488.05
819.303	530.1033	7242.5	6445.85
819.4472	532.2519	7194.35	6398.5
819.5915	534.3999	7182.2	6384.55
819.7357	536.5472	7171.2	6370.65
819.88	538.694	7171.4	6370.9
820.0243	540.8401	7175.5	6375.7
820.1686	542.9856	7193.6	6391.5
820.3129	545.1305	7181.5	6379.15
820.4572	547.2748	7197.8	6394.95
820.6016	549.4185	7211.55	6407.95
820.7459	551.5615	7202.75	6398.85
820.8902	553.704	7208.2	6402.85
821.0346	555.8458	7191.45	6388.1
821.1789	557.987	7182.15	6378.1
821.3233	560.1276	7230.65	6425.45
821.4677	562.2675	7265.3	6463.5
821.6121	564.4069	7296.1	6490.9
821.7565	566.5456	7301.5	6498.6
821.9009	568.6837	7311.2	6505.15
822.0453	570.8212	7238.4	6432.2
822.1897	572.958	7178.95	6370.85
822.3342	575.0942	7149.3	6344.8
822.4786	577.2299	7115.35	6308.35
822.6231	579.3648	7065.2	6258.6
822.7675	581.4992	7037.85	6230.05
822.912	583.6329	7001.6	6195.45
823.0565	585.766	7019.55	6213.95
823.201	587.8985	7022.75	6217.95
823.3454	590.0304	7038.45	6216.35
823.4899	592.1616	7051.25	6238.25
823.6345	594.2922	7033.25	6222.1
823.779	596.4222	7007.65	6195.3
823.9235	598.5515	6967.25	6155.55
824.068	600.6802	6934.95	6124.15
824.2126	602.8083	6866.2	6054.3
824.3571	604.9358	6869.2	6055.05
824.5017	607.0626	6836.3	6021.75
824.6462	609.1888	6825.95	6011.1
824.7908	611.3144	6854.85	6040.25
824.9354	613.4393	6871.85	6056.25
825.08	615.5636	6884.5	6067.8
825.2246	617.6873	6913.6	6097.6
825.3692	619.8103	6949.85	6129.25
825.5138	621.9327	6934.95	6114.75
825.6584	624.0544	6906.7	6089.6
825.803	626.1756	6879.8	6062.4
825.9477	628.2961	6843.7	6027.1
826.0923	630.4159	6809.7	5989.5
826.237	632.5351	6797.3	5978.95
826.3816	634.6537	6785.65	5964.95
826.5263	636.7716	6776.85	5953.65
826.6709	638.8889	6775.1	5953.3
826.8156	641.0056	6797.6	5976.65
826.9603	643.1216	6794.85	5972.95
827.105	645.237	6788.65	5964.2
827.2497	647.3518	6786.05	5963
827.3944	649.4659	6761.35	5937.4
827.5391	651.5793	6728.5	5906.45
827.6838	653.6922	6725.55	5903.1
827.8285	655.8043	6702.3	5877.85
827.9733	657.9159	6690.9	5864.35
828.118	660.0268	6668.85	5841.75
828.2627	662.137	6648.45	5822.15
828.4075	664.2466	6670.5	5840.75
828.5522	666.3556	6660.1	5833.5
828.697	668.4639	6622.3	5792.45
828.8418	670.5716	6637.65	5810.05
828.9865	672.6786	6636.75	5807.45
829.1313	674.785	6614.4	5783.5
829.2761	676.8907	6588.4	5760.05
829.4209	678.9958	6578	5751.3
829.5657	681.1002	6586.5	5757.6
829.7105	683.204	6566.75	5733.05
829.8553	685.3072	6553.35	5722.05
830.0001	687.4097	6571.05	5740.25
830.1449	689.5115	6560.95	5729.1
830.2898	691.6127	6548.65	5718.75
830.4346	693.7132	6542.65	5708.25
830.5794	695.8131	6550.05	5693.8
830.7243	697.9123	6532.5	5700.25
830.8691	700.0109	6538.15	5703.65
831.014	702.1089	6523.4	5690.35
831.1588	704.2061	6510.6	5675.6
831.3037	706.3028	6541.8	5706.65
831.4486	708.3987	6565.65	5732
831.5935	710.4941	6549.9	5714.8
831.7383	712.5887	6546.6	5711.65
831.8832	714.6827	6556.7	5716.25
832.0281	716.7761	6539.6	5703.25
832.173	718.8688	6541.55	5704.1
832.3179	720.9608	6520.7	5678.85
832.4628	723.0522	6533.15	5694.15
832.6077	725.1429	6526.7	5689.6
832.7527	727.233	6552.15	5714.35
832.8976	729.3224	6596.3	5758.65
833.0425	731.4112	6625.55	5786.95
833.1874	733.4993	6606.55	5766.65
833.3324	735.5867	6572.2	5731.6
833.4773	737.6735	6524	5682.75
833.6222	739.7596	6499.25	5658.9
833.7672	741.845	6468.55	5629.45
833.9122	743.9298	6472.1	5627.9
834.0571	746.014	6455.15	5616.75
834.2021	748.0974	6476.2	5632.75
834.347	750.1802	6468.95	5628.05
834.492	752.2624	6445.4	5604.2
834.637	754.3439	6445.2	5602.75
834.782	756.4247	6383.5	5531.2
834.9269	758.5048	6357.55	5513.85
835.0719	760.5843	6346.35	5503
835.2169	762.6631	6333.6	5490.05
835.3619	764.7413	6347.65	5504.65
835.5069	766.8188	6408.7	5563.7
835.6519	768.8956	6421.1	5575.1
835.7969	770.9718	6457.2	5612.85
835.9419	773.0473	6432.25	5587.9
836.0869	775.1221	6421.45	5576.6
836.232	777.1962	6377.3	5531.95
836.377	779.2697	6397.8	5550.55
836.522	781.3426	6467.25	5604.5
836.667	783.4147	6487.15	5639.5
836.8121	785.4862	6482.15	5639.2
836.9571	787.557	6417.95	5573.4
837.1021	789.6271	6335.8	5488.75
837.2472	791.6966	6250.3	5404
837.3922	793.7654	6183	5335.25
837.5373	795.8335	6124	5276.4
837.6823	797.901	6108.15	5261.85
837.8274	799.9678	6091.2	5240.35
837.9724	802.0339	6077.15	5228.8
838.1175	804.0993	6084.35	5225.8
838.2626	806.1641	6054.3	5203.9
838.4076	808.2282	6028.9	5178.5
838.5527	810.2916	6012.75	5163.05
838.6978	812.3544	6014	5165.4
838.8428	814.4164	5970.9	5124.25
838.9879	816.4778	5995.75	5145.2
839.133	818.5385	5975.15	5126.55
839.2781	820.5986	5991.5	5140.6
839.4232	822.658	6015.1	5163.35
839.5682	824.7166	6035.1	5184.25
839.7133	826.7747	6074.5	5225.65
839.8584	828.832	6136.7	5287.9
840.0035	830.8886	6114.7	5263
840.1486	832.9446	6156.75	5304.25
840.2937	834.9999	6136.8	5286.4
840.4388	837.0545	6085.9	5229.7
840.5839	839.1085	6016.05	5163.95
840.729	841.1618	5979.2	5125.25
840.8741	843.2143	5910.9	5058.05
841.0192	845.2662	5885.3	5033.2
841.1643	847.3175	5864.4	5012.9
841.3095	849.368	5856	5004.85
841.4546	851.4179	5832.2	4979.5
841.5997	853.467	5813.2	4961.35
841.7448	855.5155	5806.1	4953.4
841.8899	857.5633	5802.6	4947.2
842.0351	859.6105	5783.7	4928.4
842.1802	861.6569	5753.6	4898.6
842.3253	863.7027	5748.95	4892.55
842.4704	865.7478	5726.55	4872.5
842.6156	867.7922	5721.3	4868.95
842.7607	869.8359	5705.7	4850.25
842.9058	871.8789	5698.75	4842.05
843.0509	873.9212	5708.4	4822.75
843.1961	875.9629	5673.8	4818.1
843.3412	878.0039	5677.45	4821.8
843.4863	880.0441	5664.65	4807.9
843.6315	882.0837	5667.35	4809.55
843.7766	884.1226	5686.8	4828
843.9218	886.1609	5690.55	4836
844.0669	888.1984	5716.9	4862.35
844.212	890.2352	5738.9	4883.8
844.3572	892.2714	5747.05	4888.35
844.5023	894.3069	5732.05	4873.8
844.6475	896.3416	5659.2	4801.55
844.7926	898.3757	5642.05	4784.45
844.9377	900.4091	5609.75	4750.85
845.0829	902.4418	5619.25	4754.35
845.228	904.4739	5581.15	4722
845.3732	906.5052	5610.5	4751.25
845.5183	908.5358	5595.65	4739.2
845.6635	910.5658	5563.4	4703.1
845.8086	912.595	5516.6	4660.45
845.9538	914.6236	5495.65	4636.85
846.0989	916.6515	5483.95	4624.1
846.2441	918.6786	5450.4	4588
846.3892	920.7051	5436.05	4574.8
846.5344	922.7309	5424.7	4565.7
846.6795	924.756	5399.55	4540.05
846.8246	926.7804	5412.8	4550.05
846.9698	928.8041	5362.6	4499.05
847.1149	930.8272	5369.85	4511.25
847.2601	932.8495	5362.5	4499.45
847.4052	934.8711	5361.4	4498.8
847.5504	936.892	5347.8	4485.25
847.6955	938.9123	5340.75	4478.5
847.8407	940.9318	5347.65	4487.05
847.9858	942.9506	5350.5	4487.25
848.131	944.9688	5293.65	4432.1
848.2761	946.9862	5268.35	4405.7
848.4213	949.003	5242.95	4380.5
848.5664	951.019	5247	4386.8
848.7115	953.0344	5183.25	4319.5
848.8567	955.0491	5175.35	4313.1
849.0018	957.063	5182.9	4318.3
849.147	959.0763	5172.9	4305.3
849.2921	961.0888	5140.3	4275.25
849.4373	963.1007	5149.85	4287.85
849.5824	965.1119	5134	4273.1
849.7275	967.1223	5114.65	4251.2
849.8727	969.1321	5085.6	4224.55
850.0178	971.1412	5083.1	4219
850.1629	973.1495	5072.4	4209.9
850.3081	975.1572	5088.1	4190.8
850.4532	977.1641	5055.9	4192.2
850.5983	979.1704	5053.4	4187.1
850.7435	981.1759	5034.85	4167.1
850.8886	983.1808	5000.45	4133.85
851.0337	985.1849	4985.45	4108
851.1788	987.1884	4970.45	4105.55
851.324	989.1911	4977.8	4109.9
851.4691	991.1932	4969.9	4104.95
851.6142	993.1945	4935.5	4068.55
851.7593	995.1951	4905.25	4039.4
851.9045	997.1951	4899.4	4029.4
852.0496	999.1943	4878.7	4013.25
852.1947	1001.1928	4867.95	4003.75
852.3398	1003.1906	4861.35	3996
852.4849	1005.1877	4871	4003.05
852.63	1007.1841	4850.05	3986.5
852.7751	1009.1798	4842.5	3975.6
852.9202	1011.1748	4820.3	3956.35
853.0653	1013.1691	4797.5	3929.75
853.2104	1015.1627	4775.05	3906.6
853.3555	1017.1556	4720.45	3854.2
853.5006	1019.1477	4692.25	3826.15
853.6457	1021.1392	4661.85	3796.5
853.7908	1023.1299	4655.7	3791.25
853.9359	1025.12	4623.8	3756.3
854.081	1027.1093	4613.9	3749.2
854.2261	1029.0979	4606.2	3741.3
854.3712	1031.0859	4614.7	3749.05
854.5163	1033.0731	4606.35	3741.7
854.6613	1035.0596	4586.2	3718.85
854.8064	1037.0454	4560.05	3693.1
854.9515	1039.0304	4542	3672.8
855.0965	1041.0148	4500.25	3633.05
855.2416	1042.9985	4482.7	3613.35
855.3867	1044.9814	4460	3591.85
855.5317	1046.9636	4450.05	3579.1
855.6768	1048.9452	4429.3	3562.75
855.8219	1050.926	4442.7	3576.35
855.9669	1052.9061	4422.25	3553.95
856.112	1054.8855	4410.25	3541.8
856.257	1056.8642	4417.75	3549.7
856.4021	1058.8421	4423.8	3548.05
856.5471	1060.8194	4404.2	3535.25
856.6921	1062.7959	4372.65	3504.95
856.8372	1064.7717	4361.1	3491.25
856.9822	1066.7469	4346.9	3476.3
857.1272	1068.7213	4340	3466.9
857.2723	1070.695	4322.95	3454.95
857.4173	1072.6679	4315.2	3445.35
857.5623	1074.6402	4319.75	3450.55
857.7073	1076.6117	4342.65	3467.5
857.8523	1078.5826	4318.65	3448.55
857.9973	1080.5527	4275.25	3402.5
858.1423	1082.5221	4230.7	3358.2
858.2873	1084.4908	4227.3	3356.35
858.4323	1086.4587	4205.65	3333.9
858.5773	1088.426	4186.75	3314.6
858.7223	1090.3925	4175.1	3300.55
858.8673	1092.3584	4156	3285.35
859.0123	1094.3235	4154.2	3286.65
859.1573	1096.2879	4138.15	3266.15
859.3022	1098.2515	4151	3281.9
859.4472	1100.2145	4165.85	3296
859.5922	1102.1767	4157.75	3284.75
859.7371	1104.1382	4181.65	3307.6
859.8821	1106.099	4199.9	3326.8
860.027	1108.0591	4219.35	3348.5
860.172	1110.0185	4243.6	3371.65
860.3169	1111.9771	4253.95	3383.4
860.4619	1113.9351	4261.65	3390
860.6068	1115.8923	4289.75	3417.35
860.7517	1117.8488	4300.55	3426.1
860.8967	1119.8045	4268.2	3396.8
861.0416	1121.7596	4201.1	3329.15
861.1865	1123.7139	4118.5	3245.1
861.3314	1125.6675	4080.1	3206.75
861.4763	1127.6204	4055.3	3183.9
861.6212	1129.5726	4051.3	3177.25
861.7661	1131.524	4048.15	3177.9
861.911	1133.4748	4010.85	3138.55
862.0559	1135.4248	3968.1	3093
862.2008	1137.3741	3927	3054.95
862.3457	1139.3226	3904.2	3030.45
862.4905	1141.2705	3903.4	3030.8
862.6354	1143.2176	3872.6	2993.45
862.7803	1145.164	3869.35	2994.15
862.9251	1147.1097	3867.25	2996.1
863.07	1149.0546	3852.95	2978.7
863.2148	1150.9989	3849.1	2975.8
863.3597	1152.9424	3805.95	2931.35
863.5045	1154.8852	3804.4	2933.35
863.6493	1156.8272	3778.5	2907.5
863.7942	1158.7686	3779.05	2898.1
863.939	1160.7092	3764.75	2891
864.0838	1162.6491	3750.4	2872.75
864.2286	1164.5883	3742.75	2870.6
864.3734	1166.5267	3743.3	2869.1
864.5182	1168.4644	3770.25	2898.05
864.663	1170.4014	3764.75	2884.7
864.8078	1172.3377	3789.1	2917
864.9526	1174.2732	3811.65	2938.9
865.0974	1176.2081	3866.55	2993.55
865.2421	1178.1421	3909.1	3029.55
865.3869	1180.0755	3986.45	3113.15
865.5317	1182.0082	4038.85	3165.15
865.6764	1183.9401	4021.25	3145.25
865.8212	1185.8713	3949.5	3076.05
865.9659	1187.8017	3864.35	2988.5
866.1106	1189.7315	3788.7	2916
866.2554	1191.6605	3710.25	2836.7
866.4001	1193.5888	3658.95	2783.45
866.5448	1195.5163	3630.45	2759.1
866.6895	1197.4432	3610.65	2735.7
866.8342	1199.3693	3590.95	2717.3
866.9789	1201.2947	3563.3	2685.8
867.1236	1203.2193	3556.75	2680.95
867.2683	1205.1432	3533.1	2659.2
867.413	1207.0664	3533.1	2657.05
867.5576	1208.9889	3514.25	2634.5
867.7023	1210.9106	3519.65	2647.55
867.847	1212.8316	3485.3	2609.95
867.9916	1214.7519	3490.3	2605.4
868.1363	1216.6715	3481.2	2607.6
868.2809	1218.5903	3491.35	2616.15
868.4255	1220.5084	3489.55	2613.85
868.5701	1222.4257	3492.2	2615.75
868.7148	1224.3424	3476.4	2600.9
868.8594	1226.2583	3496.2	2615.65
869.004	1228.1735	3510.25	2634.95
869.1486	1230.0879	3521.95	2646.45
869.2932	1232.0016	3518.75	2642.8
869.4377	1233.9146	3543	2663.15
869.5823	1235.8269	3544.25	2669.65
869.7269	1237.7384	3537.05	2661.45
869.8715	1239.6492	3532.65	2655.85
870.016	1241.5592	3532.8	2656.4
870.1606	1243.4686	3549.05	2671.7
870.3051	1245.3772	3595.35	2719.65
870.4496	1247.285	3632.1	2755.95
870.5941	1249.1922	3682.8	2806.7
870.7387	1251.0986	3734.7	2857.5
870.8832	1253.0042	3760.4	2884.2
871.0277	1254.9092	3811.95	2933.6
871.1722	1256.8134	3861.75	2985.85
871.3167	1258.7169	3922.45	3044.4
871.4611	1260.6196	3935.75	3059.25
871.6056	1262.5216	3955.85	3076.7
871.7501	1264.4229	3920.65	3046.7
871.8945	1266.3234	3886.3	3010.75
872.039	1268.2232	3862.1	2983.8
872.1834	1270.1223	3823.95	2943.8
872.3278	1272.0207	3778.8	2903.5
872.4723	1273.9183	3780.65	2894.5
872.6167	1275.8151	3755.4	2880
872.7611	1277.7113	3777.35	2899.4
872.9055	1279.6067	3829.4	2954.2
873.0499	1281.5014	3911.05	3030.9
873.1943	1283.3953	4040.35	3162.45
873.3386	1285.2885	4163.55	3287.6
873.483	1287.181	4259.5	3381.1
873.6274	1289.0727	4301.65	3424.85
873.7717	1290.9637	4261.55	3382.25
873.9161	1292.854	4207.05	3330.3
874.0604	1294.7435	4101.9	3221.7
874.2047	1296.6323	4026.2	3145.5
874.349	1298.5204	3972.75	3092.9
874.4933	1300.4077	3889.3	3010.55
874.6376	1302.2943	3845.1	2968
874.7819	1304.1802	3816.7	2940.35
874.9262	1306.0653	3794.8	2915.95
875.0705	1307.9497	3765	2886.7
875.2147	1309.8333	3744.1	2864.8
875.359	1311.7162	3718.85	2841.5
875.5032	1313.5984	3701.5	2821.05
875.6475	1315.4798	3687	2795.25
875.7917	1317.3605	3664.1	2780.15
875.9359	1319.2405	3654.15	2772.7
876.0801	1321.1197	3642.5	2762.6
876.2243	1322.9982	3610.75	2727.15
876.3685	1324.876	3570.05	2692.95
876.5127	1326.753	3491.2	2611.65
876.6569	1328.6293	3428.75	2549.15
876.801	1330.5048	3382.05	2500.75
876.9452	1332.3796	3319.2	2442
877.0893	1334.2537	3296	2392.85
877.2335	1336.127	3236.9	2357.25
877.3776	1337.9996	3210.35	2330.1
877.5217	1339.8714	3199.4	2320.3
877.6658	1341.7426	3202.6	2279.1
877.8099	1343.6129	3164.7	2287.6
877.954	1345.4826	3139.3	2260.25
878.0981	1347.3515	3119.4	2237.55
878.2422	1349.2196	3115.05	2235.95
878.3862	1351.087	3102.15	2223.3
878.5303	1352.9537	3110.7	2232.35
878.6743	1354.8197	3100.1	2219.4
878.8184	1356.6849	3098.25	2219.1
878.9624	1358.5493	3110.8	2232.65
879.1064	1360.4131	3105.1	2223.7
879.2504	1362.276	3132	2252
879.3944	1364.1383	3151.15	2273.9
879.5384	1365.9998	3169.75	2284.75
879.6823	1367.8606	3154.1	2276.4
879.8263	1369.7206	3139.15	2258.9
879.9702	1371.5799	3126.3	2244.25
880.1142	1373.4384	3125.45	2246.55
880.2581	1375.2962	3105.5	2223.65
880.402	1377.1533	3051.45	2174.3
880.5459	1379.0096	3014.15	2132.65
880.6898	1380.8652	2978.35	2100.1
880.8337	1382.7201	2959.25	2080.05
880.9776	1384.5742	2922.15	2045.25
881.1215	1386.4275	2903.5	2021.85
881.2653	1388.2802	2897.2	2020.4
881.4092	1390.132	2874.55	1995.95
881.553	1391.9832	2861.3	1981.1
881.6968	1393.8336	2851.15	1970.45
881.8406	1395.6832	2833.3	1952.5
881.9844	1397.5322	2824.2	1944.55
882.1282	1399.3803	2812.45	1927.25
882.272	1401.2278	2795.85	1916.65
882.4158	1403.0745	2767.35	1887.4
882.5595	1404.9204	2757.9	1878.35
882.7033	1406.7656	2765.35	1885.35
882.847	1408.6101	2753.5	1873.55
882.9908	1410.4538	2742.2	1862.85
883.1345	1412.2968	2741.05	1861.5
883.2782	1414.139	2734.4	1854.25
883.4219	1415.9805	2730.4	1852.1
883.5656	1417.8213	2737.7	1835.2
883.7092	1419.6613	2735.55	1855.95
883.8529	1421.5006	2747.85	1866.95
883.9965	1423.3391	2765.5	1884.55
884.1402	1425.1769	2787.7	1905.6
884.2838	1427.0139	2839.75	1957.95
884.4274	1428.8502	2887.25	2009.3
884.571	1430.6858	2923.7	2042.65
884.7146	1432.5206	2934.8	2052.8
884.8582	1434.3547	2922.5	2040.65
885.0018	1436.188	2913.45	2033.1
885.1453	1438.0206	2889.6	2008.9
885.2889	1439.8524	2886	2004.6
885.4324	1441.6835	2877.7	1994.3
885.5759	1443.5139	2882.5	1998.9
885.7194	1445.3435	2872.55	1990.95
885.8629	1447.1724	2875.75	1997.15
886.0064	1449.0005	2859.15	1977.5
886.1499	1450.8279	2861.7	1979.95
886.2933	1452.6545	2851.15	1970.15
886.4368	1454.4804	2853.35	1974.55
886.5802	1456.3056	2838.4	1951.5
886.7237	1458.13	2819.55	1938.9
886.8671	1459.9536	2809.55	1927.15
887.0105	1461.7766	2768.6	1888.35
887.1539	1463.5987	2739.2	1855.5
887.2972	1465.4202	2711.25	1828.35
887.4406	1467.2409	2679.5	1797.8
887.584	1469.0608	2657.75	1780.35
887.7273	1470.88	2626.3	1744.5
887.8706	1472.6984	2614.4	1735.55
888.0139	1474.5161	2580.35	1695.35
888.1572	1476.3331	2561.65	1681.4
888.3005	1478.1493	2570.8	1689.55
888.4438	1479.9648	2547.15	1665.75
888.5871	1481.7795	2545.45	1667.55
888.7303	1483.5935	2533.6	1653.15
888.8736	1485.4067	2534.65	1655.8
889.0168	1487.2192	2529.05	1647.6
889.16	1489.031	2527.1	1644.75
889.3032	1490.842	2522.5	1643.4
889.4464	1492.6522	2526.05	1645.2
889.5896	1494.4618	2515	1633.5
889.7327	1496.2705	2512.45	1631.9
889.8759	1498.0785	2494.45	1614.25
890.019	1499.8858	2488.1	1604.6
890.1622	1501.6924	2476.3	1596.2
890.3053	1503.4981	2471.45	1591.9
890.4484	1505.3032	2456.25	1575.55
890.5914	1507.1075	2457.1	1576.75
890.7345	1508.911	2443.55	1563.05
890.8776	1510.7138	2441.1	1559.45
891.0206	1512.5159	2433.8	1552.45
891.1637	1514.3172	2427.8	1548.15
891.3067	1516.1178	2405.75	1525.95
891.4497	1517.9176	2403.2	1518.7
891.5927	1519.7166	2394.5	1513.1
891.7357	1521.515	2385.95	1500.05
891.8786	1523.3126	2380.05	1499.65
892.0216	1525.1094	2364.05	1479.6
892.1645	1526.9055	2358.4	1478.65
892.3074	1528.7008	2350.65	1467.85
892.4503	1530.4954	2331.25	1450.7
892.5932	1532.2893	2335.25	1455.45
892.7361	1534.0824	2317.55	1431.4
892.879	1535.8747	2320.1	1440.2
893.0218	1537.6663	2302.2	1420.85
893.1647	1539.4572	2305.5	1425.35
893.3075	1541.2473	2300.4	1419.55
893.4503	1543.0367	2285.55	1404.75
893.5931	1544.8253	2282.85	1397.1
893.7359	1546.6132	2281.15	1396.35
893.8787	1548.4003	2288.45	1399.75
894.0214	1550.1867	2283	1392.25
894.1642	1551.9723	2281.65	1394.05
894.3069	1553.7572	2290.6	1410
894.4496	1555.5414	2286.15	1404.05
894.5923	1557.3247	2296.5	1415
894.735	1559.1074	2314.5	1435.4
894.8777	1560.8893	2337.35	1458.3
895.0204	1562.6705	2360.25	1477.85
895.163	1564.4509	2372.9	1493.7
895.3056	1566.2305	2381.85	1500.65
895.4482	1568.0094	2386.75	1507.25
895.5908	1569.7876	2370.55	1489.1
895.7334	1571.565	2368.4	1488
895.876	1573.3417	2357.4	1476.15
896.0186	1575.1176	2356.55	1476.75
896.1611	1576.8928	2361.55	1481.75
896.3036	1578.6672	2374.8	1496.45
896.4461	1580.4409	2390	1510.35
896.5886	1582.2138	2403.6	1519.9
896.7311	1583.986	2429.6	1547.9
896.8736	1585.7575	2442	1561.3
897.0161	1587.5282	2468.8	1590.25
897.1585	1589.2981	2479.9	1599.65
897.3009	1591.0673	2486.5	1606.3
897.4433	1592.8358	2497.4	1619.25
897.5857	1594.6035	2488.7	1605.8
897.7281	1596.3704	2479.25	1599.05
897.8705	1598.1366	2451.15	1571
898.0128	1599.9021	2434.55	1553.65
898.1551	1601.6668	2408.75	1525
898.2975	1603.4308	2380.35	1499.65
898.4398	1605.194	2399.75	1513.45
898.5821	1606.9564	2397.55	1517.55
898.7243	1608.7182	2441.7	1555.55
898.8666	1610.4791	2486.2	1604.1
899.0088	1612.2394	2547.65	1667.7
899.1511	1613.9988	2620.8	1738.7
899.2933	1615.7576	2669	1789.95
899.4355	1617.5156	2705	1817.6
899.5776	1619.2728	2677.05	1796.85
899.7198	1621.0293	2616.3	1736.65
899.862	1622.785	2534.95	1653.45
900.0041	1624.54	2445.6	1564.9
900.1462	1626.2942	2356.85	1476.35
900.2883	1628.0477	2277.2	1394.05
900.4304	1629.8005	2213.45	1328.85
900.5725	1631.5525	2166.4	1284.5
900.7145	1633.3037	2122.9	1239.75
900.8566	1635.0542	2092.25	1211.35
900.9986	1636.804	2058.05	1176.85
901.1406	1638.553	2088.25	1149.2
901.2826	1640.3013	2031.55	1151.25
901.4245	1642.0488	2003.35	1122.25
901.5665	1643.7955	1990.6	1112.05
901.7085	1645.5416	1981.6	1099.05
901.8504	1647.2868	1969.15	1086.6
901.9923	1649.0313	1950.75	1069.75
902.1342	1650.7751	1947.85	1063.25
902.2761	1652.5181	1926.7	1047.45
902.4179	1654.2604	1936.15	1053
902.5598	1656.0019	1932.15	1052
902.7016	1657.7427	1939.8	1059.15
902.8434	1659.4828	1958.6	1077.1
902.9852	1661.222	1967.7	1086.25
903.127	1662.9606	1980.4	1100.55
903.2687	1664.6984	1996.4	1115.85
903.4105	1666.4354	2013.35	1133.2
903.5522	1668.1717	1993.1	1110.5
903.6939	1669.9072	1954.2	1074.8
903.8356	1671.642	1927.1	1042.15
903.9773	1673.3761	1888.7	1008.35
904.119	1675.1094	1868.5	989.15
904.2606	1676.8419	1846	965
904.4022	1678.5737	1823.1	942.55
904.5439	1680.3048	1823.65	940.4
904.6855	1682.0351	1803.9	924.1
904.827	1683.7646	1807.8	924.85
904.9686	1685.4934	1795.35	916.75
905.1101	1687.2215	1785.95	901.3
905.2517	1688.9488	1787.5	906.3
905.3932	1690.6754	1777.6	897.5
905.5347	1692.4012	1760.4	881.55
905.6761	1694.1263	1760.4	879.2
905.8176	1695.8506	1757.2	875.9
905.9591	1697.5742	1750.1	868.45
906.1005	1699.297	1740.65	860.1
906.2419	1701.0191	1736.95	856.4
906.3833	1702.7404	1724.1	842.95
906.5246	1704.461	1723.65	840.35
906.666	1706.1808	1727.25	843.25
906.8073	1707.8999	1724.9	842.4
906.9487	1709.6182	1711.95	830.25
907.09	1711.3358	1711.55	830.1
907.2313	1713.0527	1705.95	828.4
907.3725	1714.7688	1705.85	819.25
907.5138	1716.4841	1697.7	813.65
907.655	1718.1987	1694.85	808.4
907.7962	1719.9126	1686.15	805.85
907.9374	1721.6257	1690.15	806.7
908.0786	1723.338	1689.9	807.6
908.2198	1725.0496	1686.45	802.9
908.3609	1726.7605	1679.15	796.15
908.502	1728.4706	1674.35	792.55
908.6431	1730.18	1681.4	797.75
908.7842	1731.8886	1670.55	788.6
908.9253	1733.5964	1676.95	789.65
909.0664	1735.3036	1671.2	790
909.2074	1737.0099	1665.8	784.05
909.3484	1738.7156	1665.25	786.15
909.4894	1740.4204	1661.15	776.85
909.6304	1742.1246	1660.7	779.5
909.7714	1743.8279	1664.55	782.45
909.9123	1745.5306	1653.65	772.75
910.0532	1747.2325	1647.9	766.8
910.1941	1748.9336	1647.8	765.45
910.335	1750.634	1655.75	772.2
910.4759	1752.3336	1656.9	777.25
910.6168	1754.0325	1646.85	767.85
910.7576	1755.7307	1649.9	769.15
910.8984	1757.4281	1648.75	769.25
911.0392	1759.1247	1656.95	766.75
911.18	1760.8206	1648.25	763.45
911.3208	1762.5158	1654.85	767.8
911.4615	1764.2102	1648.2	765.9
911.6022	1765.9039	1640.95	759.75
911.7429	1767.5968	1629.75	747.65
911.8836	1769.289	1629.1	747.35
912.0243	1770.9804	1626.95	744.25
912.1649	1772.6711	1625.25	744.1
912.3056	1774.361	1627.95	748.6
912.4462	1776.0502	1627.45	746.4
912.5868	1777.7386	1626.95	740.4
912.7274	1779.4263	1617.25	737.45
912.8679	1781.1132	1623.5	742.15
913.0084	1782.7994	1625.3	742.55
913.149	1784.4849	1619.15	738.4
913.2895	1786.1696	1623.9	736.3
913.4299	1787.8535	1609.05	727.9
913.5704	1789.5367	1604.15	722.75
913.7108	1791.2192	1598.65	717.75
913.8513	1792.9009	1625.5	715.45
913.9917	1794.5818	1607.05	724.85
914.132	1796.2621	1595.35	715.55
914.2724	1797.9415	1597.95	716.7
914.4128	1799.6202	1590.35	709.35
914.5531	1801.2982	1585.75	702.75
914.6934	1802.9755	1586.2	704.05
914.8337	1804.6519	1581.45	698.8
914.9739	1806.3277	1583.55	702.5
915.1142	1808.0027	1584.5	704.3
915.2544	1809.6769	1571.9	690.15
915.3946	1811.3504	1573	692.25
915.5348	1813.0231	1581.5	700.35
915.675	1814.6951	1571.6	689.25
915.8151	1816.3664	1574.5	691.95
915.9553	1818.0369	1570.6	689.45
916.0954	1819.7067	1563.7	683.85
916.2355	1821.3757	1563.8	678.15
916.3755	1823.044	1561.2	680.1
916.5156	1824.7115	1568.3	685.55
916.6556	1826.3783	1555.6	675.75
916.7956	1828.0443	1549.4	670.5
916.9356	1829.7096	1556.55	673.65
917.0756	1831.3741	1551.7	668.05
917.2155	1833.0379	1551.35	669.8
917.3555	1834.701	1550.6	667.7
917.4954	1836.3633	1552.75	670.35
917.6353	1838.0248	1544.3	661.6
917.7751	1839.6856	1547.55	665.8
917.915	1841.3457	1539.3	660.65
918.0548	1843.005	1536.75	655.35
918.1946	1844.6636	1539.1	657.85
918.3344	1846.3214	1535.65	654.1
918.4742	1847.9785	1537.45	657.85
918.6139	1849.6349	1539.05	656.15
918.7537	1851.2904	1541.45	651.15
918.8934	1852.9453	1525.9	645.4
919.0331	1854.5994	1532.45	650.75
919.1727	1856.2528	1528.75	643.8
919.3124	1857.9054	1522.45	642.35
919.452	1859.5572	1516.8	635.25
919.5916	1861.2083	1525.4	641.9
919.7312	1862.8587	1522.1	640.25
919.8708	1864.5084	1514.25	631.6
920.0103	1866.1572	1515.85	635.45
920.1498	1867.8054	1510.75	629.95
920.2893	1869.4528	1515.35	632.45
920.4288	1871.0994	1506.35	626
920.5683	1872.7453	1514.4	631
920.7077	1874.3905	1517.7	629.75
920.8471	1876.0349	1507.1	624.4
920.9865	1877.6786	1501.65	618.2
921.1259	1879.3215	1501.75	619.05
921.2653	1880.9637	1502.65	621.7
921.4046	1882.6051	1496.45	614.45
921.5439	1884.2458	1501.45	619.6
921.6832	1885.8858	1500.75	618
921.8225	1887.525	1490.9	607.5
921.9617	1889.1634	1487.35	606.7
922.101	1890.8011	1492.5	610.7
922.2402	1892.4381	1483.45	600.1
922.3794	1894.0743	1486.5	605.05
922.5185	1895.7098	1487.2	605.65
922.6577	1897.3446	1485.6	602.75
922.7968	1898.9786	1487.05	599.6
922.9359	1900.6118	1474.7	592.85
923.075	1902.2443	1469.2	585.6
923.214	1903.8761	1478.45	597.95
923.3531	1905.5071	1476.85	594
923.4921	1907.1374	1469.75	587.2
923.6311	1908.7669	1473.15	592.55
923.77	1910.3957	1464.7	584.65
923.909	1912.0237	1470.15	589.1
924.0479	1913.651	1470.55	588.6
924.1868	1915.2776	1460.1	580
924.3257	1916.9034	1457.9	577.25
924.4646	1918.5285	1459	581
924.6034	1920.1528	1454.35	572.4
924.7422	1921.7764	1457.85	574.45
924.881	1923.3992	1451.65	570.5
925.0198	1925.0213	1450.6	568.8
925.1586	1926.6427	1448.95	568.3
925.2973	1928.2633	1511.6	559.75
925.436	1929.8832	1443.65	560.75
925.5747	1931.5023	1443	562.15
925.7134	1933.1207	1440.95	558.2
925.852	1934.7383	1438.9	555.35
925.9906	1936.3552	1433	550.95
926.1292	1937.9714	1436.3	554.6
926.2678	1939.5868	1435.5	550.6
926.4064	1941.2015	1434.45	552.8
926.5449	1942.8154	1431.25	549.05
926.6834	1944.4286	1431.7	549.15
926.8219	1946.041	1450.05	544.45
926.9604	1947.6528	1423.8	537.85
927.0988	1949.2637	1427	546.05
927.2372	1950.8739	1419.9	538.7
927.3756	1952.4834	1414.6	532.45
927.514	1954.0921	1422.95	542.55
927.6523	1955.7001	1427.15	540.45
927.7907	1957.3074	1419.3	539.55
927.929	1958.9139	1407.75	525.7
928.0673	1960.5197	1417.1	533.3
928.2055	1962.1247	1405.25	523
928.3438	1963.729	1405.95	523.35
928.482	1965.3325	1433.6	527.55
928.6202	1966.9353	1411.45	530.65
928.7584	1968.5374	1402.1	517.55
928.8965	1970.1387	1406.2	526.1
929.0346	1971.7393	1400.65	518.35
929.1727	1973.3392	1400.75	518.3
929.3108	1974.9383	1392.2	511.9
929.4489	1976.5366	1399.15	517.7
929.5869	1978.1342	1398.7	513.95
929.7249	1979.7311	1391.8	507.65
929.8629	1981.3273	1394.15	512.85
930.0009	1982.9227	1389.75	504.3
930.1388	1984.5173	1384.8	500.65
930.2767	1986.1112	1393.45	513
930.4146	1987.7044	1387.9	506
930.5525	1989.2968	1394.65	512.05
930.6904	1990.8885	1386.2	500.15
930.8282	1992.4795	1383.55	499.95
930.966	1994.0697	1382.35	501.15
931.1038	1995.6592	1384.45	502.8
931.2415	1997.2479	1387.05	504.1
931.3793	1998.8359	1379.3	496.7
931.517	2000.4232	1373.25	492.3
931.6547	2002.0097	1377.85	496.35
931.7923	2003.5955	1370	486
931.93	2005.1805	1386.3	500.9
932.0676	2006.7648	1371.55	489.8
932.2052	2008.3484	1374.95	490.6
932.3427	2009.9312	1370.8	486.85
932.4803	2011.5133	1372.9	492
932.6178	2013.0946	1369.3	486.35
932.7553	2014.6752	1366.45	484.15
932.8928	2016.2551	1365.95	482.65
933.0302	2017.8342	1365.1	483.65
933.1676	2019.4126	1367.85	485.7
933.305	2020.9902	1359.35	477.35
933.4424	2022.5672	1369.45	486.25
933.5798	2024.1433	1372.45	486.2
933.7171	2025.7188	1362.4	481.95
933.8544	2027.2935	1360.35	477.25
933.9917	2028.8674	1359.65	478.05
934.129	2030.4406	1354.35	475.55
934.2662	2032.0131	1351.9	471.35
934.4034	2033.5849	1359.7	475.75
934.5406	2035.1559	1358.7	479.45
934.6778	2036.7261	1356.05	473.65
934.8149	2038.2957	1351.45	471.75
934.952	2039.8645	1351.65	469.15
935.0891	2041.4325	1352.65	469.9
935.2262	2042.9998	1348.15	467.1
935.3632	2044.5664	1349.5	464.9
935.5002	2046.1323	1344.2	463.9
935.6372	2047.6974	1340.65	460.4
935.7742	2049.2617	1346.9	465.8
935.9111	2050.8254	1352.1	466.5
936.048	2052.3883	1346.65	464.1
936.1849	2053.9504	1348.3	466.7
936.3218	2055.5118	1345.55	463.2
936.4586	2057.0725	1344.95	458.3
936.5955	2058.6325	1342.5	460.9
936.7323	2060.1917	1343.55	461.55
936.869	2061.7502	1345.4	462.6
937.0058	2063.3079	1338.3	456.25
937.1425	2064.8649	1339.6	454.5
937.2792	2066.4212	1340.25	458.05
937.4159	2067.9767	1342.65	461.3
937.5525	2069.5315	1340.5	459.45
937.6891	2071.0856	1337.1	453.95
937.8257	2072.6389	1334.75	452.1
937.9623	2074.1915	1340.6	460.55
938.0989	2075.7433	1342.1	459.05
938.2354	2077.2945	1325	443.95
938.3719	2078.8448	1332.5	450.1
938.5084	2080.3945	1333.75	454.25
938.6448	2081.9434	1328.6	446.35
938.7812	2083.4916	1330.3	447.6
938.9176	2085.039	1326.7	443.95
939.054	2086.5857	1326.5	444.15
939.1903	2088.1317	1331.55	448.4
939.3267	2089.677	1329.15	446.85
939.463	2091.2215	1326.1	443.9
939.5992	2092.7652	1329.35	447.05
939.7355	2094.3083	1324.4	442
939.8717	2095.8506	1319.5	438.65
940.0079	2097.3921	1327.85	447.3
940.1441	2098.933	1325	444.1
940.2802	2100.4731	1323.95	443.25
940.4163	2102.0124	1336.3	446.45
940.5524	2103.5511	1323.9	441.35
940.6885	2105.089	1322.05	442.05
940.8245	2106.6261	1321.75	439.7
940.9606	2108.1626	1317.3	434.25
941.0965	2109.6983	1353.5	444.35
941.2325	2111.2332	1321.4	438.05
941.3684	2112.7675	1322.7	438.25
941.5044	2114.301	1323	439.45
941.6403	2115.8337	1321.6	439.8
941.7761	2117.3657	1318	436.75
941.912	2118.897	1317.55	434.95
942.0478	2120.4276	1321.55	433.95
942.1835	2121.9575	1322.1	438.9
942.3193	2123.4866	1335.2	441.35
942.455	2125.0149	1318.1	434.1
942.5907	2126.5426	1317.55	433.75
942.7264	2128.0695	1313.55	427.85
942.8621	2129.5956	1307.55	426.35
942.9977	2131.1211	1317.35	432.15
943.1333	2132.6458	1306.6	424.55
943.2689	2134.1698	1312.25	429.4
943.4044	2135.693	1312.1	428.45
943.54	2137.2155	1310.75	425.35
943.6755	2138.7373	1311.3	428.25
943.8109	2140.2584	1307.95	426.2
943.9464	2141.7787	1315.7	428.25
944.0818	2143.2983	1298.2	415.8
944.2172	2144.8171	1297.7	416.35
944.3526	2146.3353	1302.1	417.5
944.4879	2147.8527	1298.1	417.95
944.6232	2149.3693	1302.95	422.35
944.7585	2150.8853	1302.8	421.2
944.8938	2152.4005	1306.7	424
945.029	2153.9149	1297.6	415.6
945.1642	2155.4287	1403	413.35
945.2994	2156.9417	1298.55	413.75
945.4346	2158.454	1298.2	415.95
945.5697	2159.9655	1294.9	410.7
945.7048	2161.4764	1288.8	407.55
945.8399	2162.9865	1298.2	416.8
945.9749	2164.4958	1293.3	410.65
946.1099	2166.0045	1293.95	408.05
946.2449	2167.5124	1282.3	400.95
946.3799	2169.0195	1291.6	409.1
946.5148	2170.526	1291.2	409.35
946.6498	2172.0317	1290.75	408.6
946.7846	2173.5367	1289.55	408.05
946.9195	2175.0409	1283.65	402.5
947.0543	2176.5445	1284.8	405
947.1891	2178.0473	1281.15	400.75
947.3239	2179.5494	1287.9	403.3
947.4587	2181.0507	1279.65	396.95
947.5934	2182.5513	1276.4	394.9
947.7281	2184.0512	1285.6	403.55
947.8628	2185.5504	1275.7	392.75
947.9974	2187.0488	1276.85	392.65
948.132	2188.5465	1271.45	388.55
948.2666	2190.0435	1276.35	395.65
948.4012	2191.5397	1276.3	395.8
948.5357	2193.0353	1273.55	391.45
948.6702	2194.5301	1275.65	394.25
948.8047	2196.0241	1271.6	388.7
948.9392	2197.5175	1273.5	391.55
949.0736	2199.0101	1275.25	389.3
949.208	2200.502	1270.25	391.3
949.3424	2201.9931	1265.4	382.2
949.4767	2203.4835	1264.5	380.35
949.611	2204.9733	1283.35	385.2
949.7453	2206.4622	1259.3	376.35
949.8796	2207.9505	1267.4	382.5
950.0138	2209.438	1264.1	382.55
950.148	2210.9248	1261.35	379.15
950.2822	2212.4109	1259.75	379.15
950.4164	2213.8962	1262.15	376.9
950.5505	2215.3809	1258.3	376.75
950.6846	2216.8648	1253	371.75
950.8186	2218.3479	1259.65	372.6
950.9527	2219.8304	1259.05	375.9
951.0867	2221.3121	1256	372.8
951.2207	2222.7931	1250	368.6
951.3546	2224.2733	1247.6	366.3
951.4886	2225.7529	1246.9	363.85
951.6225	2227.2317	1255.15	370.5
951.7563	2228.7098	1245.45	364.55
951.8902	2230.1872	1238.6	358.3
952.024	2231.6638	1242.15	360.95
952.1578	2233.1397	1246.85	359.95
952.2916	2234.6149	1241.3	361.7
952.4253	2236.0894	1242	357.8
952.559	2237.5632	1244.3	361.15
952.6927	2239.0362	1239.15	357.65
952.8263	2240.5085	1238.85	356
952.9599	2241.9801	1232.85	350.35
953.0935	2243.4509	1233.5	351.9
953.2271	2244.921	1231.5	349.25
953.3606	2246.3904	1238.6	353.8
953.4941	2247.8591	1229.7	348.95
953.6276	2249.3271	1230.3	348.55
953.7611	2250.7943	1232.15	348.8
953.8945	2252.2608	1227.45	346
954.0279	2253.7266	1226.45	346.05
954.1612	2255.1917	1233.2	350.9
954.2946	2256.656	1229.55	349.45
954.4279	2258.1197	1222.4	341.1
954.5612	2259.5826	1227.4	343.25
954.6944	2261.0447	1222.8	338.45
954.8276	2262.5062	1230.15	346.3
954.9608	2263.9669	1225.15	342.8
955.094	2265.4269	1221.25	339.3
955.2271	2266.8862	1214	330.15
955.3602	2268.3448	1213.2	331.8
955.4933	2269.8026	1221.85	339.6
955.6264	2271.2598	1220.5	337.9
955.7594	2272.7162	1221.3	339.9
955.8924	2274.1719	1219	335.25
956.0253	2275.6268	1207.9	327.85
956.1583	2277.0811	1216.25	332.55
956.2912	2278.5346	1214.15	333.8
956.4241	2279.9874	1214.6	332.4
956.5569	2281.4395	1211.2	331.25
956.6897	2282.8908	1210.95	324.7
956.8225	2284.3414	1214.05	330.25
956.9553	2285.7914	1211.55	330.5
957.088	2287.2406	1205.9	321.1
957.2207	2288.689	1202.55	319.55
957.3534	2290.1368	1203.2	321.45
957.486	2291.5838	1200.3	316.15
957.6186	2293.0302	1207.35	323.75
957.7512	2294.4758	1208.4	326.35
957.8838	2295.9206	1200.15	315.05
958.0163	2297.3648	1199.25	316.8
958.1488	2298.8082	1204.05	322.3
958.2813	2300.251	1199.75	315.9
958.4137	2301.693	1196.95	313.35
958.5461	2303.1343	1197.1	314.4
958.6785	2304.5748	1197.2	315.1
958.8108	2306.0147	1192.7	310.45
958.9432	2307.4538	1196.05	309.05
959.0754	2308.8922	1191.35	311.8
959.2077	2310.3299	1195.6	312.8
959.3399	2311.7669	1191.8	312.05
959.4721	2313.2031	1193.85	311.35
959.6043	2314.6387	1192	307.55
959.7365	2316.0735	1189.8	309.1
959.8686	2317.5076	1188.7	304.65
960.0006	2318.941	1191.1	309.15
960.1327	2320.3737	1181.4	299.05
960.2647	2321.8056	1189.9	305.6
960.3967	2323.2369	1185.4	303.5
960.5287	2324.6674	1194.9	310.4
960.6606	2326.0972	1189.5	306
960.7925	2327.5263	1194.05	312.75
960.9244	2328.9547	1190.25	305.95
961.0562	2330.3823	1191.65	309.35
961.1881	2331.8092	1187.25	301.4
961.3198	2333.2355	1178.25	296.2
961.4516	2334.661	1174.4	291.05
961.5833	2336.0858	1180.65	296.9
961.715	2337.5098	1173.9	292.65
961.8467	2338.9332	1180.25	296.7
961.9783	2340.3558	1180.25	294.85
962.1099	2341.7778	1170.25	287.45
962.2415	2343.199	1173.85	289.2
962.373	2344.6195	1173.25	290.75
962.5045	2346.0393	1168.95	288.95
962.636	2347.4583	1175.5	292.75
962.7675	2348.8767	1167.65	285.3
962.8989	2350.2943	1169	285.65
963.0303	2351.7113	1166.45	282.85
963.1617	2353.1275	1164.15	282.7
963.293	2354.543	1193.05	287.45
963.4243	2355.9578	1159.9	279
963.5556	2357.3718	1165.3	284
963.6868	2358.7852	1170.25	285.35
963.818	2360.1978	1157	273.7
963.9492	2361.6098	1158.65	275.25
964.0803	2363.021	1163.35	277.95
964.2114	2364.4315	1158.55	276.1
964.3425	2365.8413	1162.55	273.65
964.4736	2367.2504	1154.7	272.55
964.6046	2368.6587	1155.15	271.15
964.7356	2370.0664	1146.8	264.95
964.8666	2371.4733	1151.1	267.9
964.9975	2372.8795	1150.6	268.3
965.1284	2374.285	1147.9	266.2
965.2593	2375.6899	1144.25	263.7
965.3901	2377.0939	1146.8	264.4
965.5209	2378.4973	1147.05	266.15
965.6517	2379.9	1141.7	258.35
965.7825	2381.3019	1144	262.05
965.9132	2382.7032	1143.3	259.65
966.0439	2384.1037	1141.2	260.25
966.1745	2385.5035	1138.85	257
966.3051	2386.9027	1140.2	261.15
966.4357	2388.3011	1144.4	260.25
966.5663	2389.6987	1140.9	258.05
966.6968	2391.0957	1138.9	258.35
966.8273	2392.492	1137.3	256.4
966.9578	2393.8876	1130.8	249
967.0882	2395.2824	1135.65	254.35
967.2186	2396.6765	1136.35	255.65
967.349	2398.07	1129.7	247.9
967.4793	2399.4627	1133.45	252.3
967.6097	2400.8547	1132.8	249.85
967.7399	2402.246	1132.5	243.85
967.8702	2403.6366	1130	245.4
968.0004	2405.0265	1132.8	249.55
968.1306	2406.4156	1125.3	238
968.2607	2407.8041	1128.2	241.25
968.3909	2409.1918	1128.9	241.85
968.521	2410.5789	1125.9	241.1
968.651	2411.9652	1129.05	241.95
968.781	2413.3508	1120.45	236.95
968.911	2414.7358	1116.05	232.1
969.041	2416.12	1120.6	240.15
969.1709	2417.5035	1120.9	237.2
969.3008	2418.8863	1118.55	235.4
969.4307	2420.2684	1119.85	238.65
969.5606	2421.6497	1116.35	231.45
969.6904	2423.0304	1117	234.8
969.8201	2424.4104	1112.85	230.85
969.9499	2425.7896	1118.45	233.6
970.0796	2427.1682	1116.8	234.45
970.2093	2428.546	1112.15	227.8
970.3389	2429.9232	1115.4	229.95
970.4685	2431.2996	1109.9	226.25
970.5981	2432.6753	1112	228.5
970.7277	2434.0503	1106.65	223.8
970.8572	2435.4246	1107.45	224.95
970.9867	2436.7982	1106.25	223.75
971.1161	2438.1711	1103.15	221.3
971.2456	2439.5433	1105.55	222
971.375	2440.9148	1107.25	218.15
971.5043	2442.2856	1102.35	220.6
971.6336	2443.6557	1102.15	218.65
971.7629	2445.025	1097.1	217.55
971.8922	2446.3937	1101.05	217.15
972.0214	2447.7617	1102.6	220.05
972.1506	2449.1289	1104.4	222.45
972.2798	2450.4955	1102.25	217.95
972.4089	2451.8613	1099.45	218.3
972.538	2453.2265	1102.6	218.8
972.6671	2454.5909	1100.55	218.5
972.7961	2455.9546	1094.2	212.1
972.9251	2457.3177	1096.1	214.25
973.0541	2458.68	1096.45	211.35
973.1831	2460.0416	1095.3	213.15
973.312	2461.4025	1091.9	208
973.4408	2462.7627	1102.7	208.75
973.5697	2464.1222	1096.4	215.45
973.6985	2465.4811	1091.65	206.2
973.8273	2466.8392	1091.7	209.2
973.956	2468.1966	1093.75	209.45
974.0847	2469.5533	1092.05	207.9
974.2134	2470.9093	1089.45	206.05
974.3421	2472.2645	1095.05	210.9
974.4707	2473.6191	1094.25	213.25
974.5993	2474.973	1095.05	212.9
974.7278	2476.3262	1089.2	204.85
974.8563	2477.6787	1085.65	203.35
974.9848	2479.0305	1083.8	201.85
975.1132	2480.3816	1088.15	204.15
975.2417	2481.7319	1088.35	205.6
975.37	2483.0816	1089.7	206.45
975.4984	2484.4306	1079.25	196.05
975.6267	2485.7789	1081.95	199.25
975.755	2487.1264	1085.1	200.7
975.8833	2488.4733	1076.6	195.1
976.0115	2489.8195	1099.15	200.25
976.1397	2491.165	1087.8	201.8
976.2678	2492.5097	1081.4	195.75
976.3959	2493.8538	1073.2	189.7
976.524	2495.1972	1072.75	189.75
976.6521	2496.5398	1075.9	190.5
976.7801	2497.8818	1077.05	191.15
976.9081	2499.2231	1076.3	192.85
977.036	2500.5637	1072.55	188.9
977.164	2501.9035	1070.45	188.65
977.2918	2503.2427	1075.6	190.9
977.4197	2504.5812	1072.95	192.45
977.5475	2505.919	1075.15	187.95
977.6753	2507.256	1069.1	187.1
977.8031	2508.5924	1075.05	191.95
977.9308	2509.9281	1075.5	186.4
978.0585	2511.2631	1069.7	187.65
978.1861	2512.5974	1068.8	185.7
978.3137	2513.9309	1070.1	187.4
978.4413	2515.2638	1095.2	187.4
978.5689	2516.596	1063.2	180.9
978.6964	2517.9275	1063.85	180.4
978.8239	2519.2583	1063.25	178.45
978.9513	2520.5884	1071.5	186.8
979.0788	2521.9178	1062.9	179.85
979.2062	2523.2465	1056.95	175.3
979.3335	2524.5745	1059.95	175.7
979.4608	2525.9018	1058.55	176.8
979.5881	2527.2284	1058.35	176.5
979.7154	2528.5543	1055.8	173.95
979.8426	2529.8796	1056.75	173.9
979.9698	2531.2041	1058.1	174.95
980.0969	2532.5279	1053.45	171.1
980.224	2533.851	1060.75	177.55
980.3511	2535.1735	1060.65	177.15
980.4781	2536.4952	1051.9	168.3
980.6052	2537.8163	1057.8	176.25
980.7321	2539.1366	1057.05	173.4
980.8591	2540.4562	1053.45	170.65
980.986	2541.7752	1051	170.05
981.1129	2543.0935	1053.35	169.6
981.2397	2544.411	1063	178.2
981.3665	2545.7279	1054.8	172.6
981.4933	2547.0441	1055.2	172.35
981.62	2548.3596	1052.6	168.25
981.7467	2549.6744	1053.35	171
981.8734	2550.9885	1052.65	168.05
982.0001	2552.3019	1049.5	166.65
982.1267	2553.6146	1050.2	167.7
982.2532	2554.9266	1051.75	170.4
982.3798	2556.2379	1046.4	163.3
982.5063	2557.5485	1049.55	168.6
982.6327	2558.8585	1056.05	166.35
982.7592	2560.1677	1055.25	168.85
982.8856	2561.4762	1045.25	162.95
983.0119	2562.7841	1048.5	163.65
983.1383	2564.0913	1045.65	165.15
983.2646	2565.3977	1046.5	164.05
983.3908	2566.7035	1044	160.15
983.517	2568.0086	1045.5	162.2
983.6432	2569.313	1048.45	166.65
983.7694	2570.6167	1049.55	163.8
983.8955	2571.9197	1041.15	159.6
984.0216	2573.222	1045.35	159.15
984.1476	2574.5236	1042.05	160.95
984.2737	2575.8246	1043.85	156.4
984.3996	2577.1248	1044.4	159.4
984.5256	2578.4244	1039.7	158.4
984.6515	2579.7232	1039.4	157.1
984.7774	2581.0214	1071.35	162.6
984.9032	2582.3189	1039.15	156.45
985.029	2583.6157	1056.2	158.75
985.1548	2584.9118	1042	161.15
985.2806	2586.2072	1041.4	159.45
985.4063	2587.5019	1038.15	156.6
985.5319	2588.7959	1041.6	159.2
985.6576	2590.0893	1038.75	153.3
985.7832	2591.3819	1037.8	155.25
985.9087	2592.6739	1036.75	155
986.0343	2593.9652	1038.65	152.9
986.1597	2595.2557	1036.7	153.4
986.2852	2596.5456	1038.1	153.45
986.4106	2597.8348	1033.2	150.1
986.536	2599.1234	1032.95	149.4
986.6614	2600.4112	1032.2	149
986.7867	2601.6983	1033.75	146.4
986.912	2602.9848	1031.35	150.45
987.0372	2604.2705	1038.8	148.9
987.1624	2605.5556	1033.6	151.7
987.2876	2606.84	1033	149.25
987.4128	2608.1237	1030.55	146.95
987.5379	2609.4067	1028.5	144.25
987.6629	2610.689	1038.45	149.2
987.788	2611.9707	1030.35	144.9
987.913	2613.2516	1027.6	140.9
988.0379	2614.5319	1030.95	149.1
988.1629	2615.8115	1024.35	141.05
988.2878	2617.0903	1025.7	141.4
988.4126	2618.3685	1024.15	142.2
988.5375	2619.6461	1026.1	143.95
988.6622	2620.9229	1021.35	140.25
988.787	2622.199	1022.05	139.35
988.9117	2623.4745	1021.9	139.85
989.0364	2624.7493	1018.35	136.55
989.161	2626.0234	1022.25	140.4
989.2857	2627.2968	1021.55	141.25
989.4102	2628.5695	1022.25	138.25
989.5348	2629.8415	1017.95	135.5
989.6593	2631.1128	1017.55	133.5
989.7837	2632.3835	1016.5	134.6
989.9082	2633.6535	1018.85	136.8
990.0326	2634.9228	1015.4	131.95
990.1569	2636.1914	1016.6	134.45
990.2812	2637.4593	1014.25	131.35
990.4055	2638.7265	1015.35	131.95
990.5298	2639.9931	1011.65	129.35
990.654	2641.259	1013.05	130.2
990.7782	2642.5242	1014.85	129.7
990.9023	2643.7887	1013.6	129.75
991.0264	2645.0525	1010.15	126.4
991.1505	2646.3156	1027.65	131.2
991.2745	2647.5781	1009.45	130.05
991.3985	2648.8398	1008.85	126.05
991.5225	2650.1009	1033.35	124.9
991.6464	2651.3613	1010.7	128.4
991.7703	2652.6211	1007.1	125.65
991.8942	2653.8801	1007.1	124.7
992.018	2655.1385	1015.2	130
992.1418	2656.3961	1003.9	120.6
992.2655	2657.6531	1006.7	124.15
992.3892	2658.9094	1006.4	122.7
992.5129	2660.1651	1005.15	121.85
992.6366	2661.42	1007.1	123.65
992.7602	2662.6743	1008	124.8
992.8837	2663.9279	1004.05	122.3
993.0073	2665.1808	1005.35	121.85
993.1307	2666.433	1003.8	119.5
993.2542	2667.6846	1005.3	123.75
993.3776	2668.9354	1008.05	122.75
993.501	2670.1856	1005.2	123.2
993.6244	2671.4351	1003.9	119.5
993.7477	2672.6839	1004.35	121.55
993.8709	2673.9321	1006.05	122.9
993.9942	2675.1795	1006.2	123.9
994.1174	2676.4263	1006.95	126.15
994.2405	2677.6724	1002.75	121.75
994.3637	2678.9179	1002.35	120
994.4868	2680.1626	998	114.7
994.6098	2681.4067	1001.45	120
994.7328	2682.6501	999	116.15
994.8558	2683.8928	1002.05	120.9
994.9788	2685.1348	996.75	116.3
995.1017	2686.3761	998.1	115
995.2245	2687.6168	997.8	115.1
995.3474	2688.8568	996.2	113.35
995.4702	2690.0961	992.35	110.6
995.5929	2691.3348	996.8	114.8
995.7156	2692.5727	996.35	113.7
995.8383	2693.81	994.7	111.55
995.961	2695.0466	992.45	112.9
996.0836	2696.2826	996.9	112.35
996.2062	2697.5178	995.8	112.65
996.3287	2698.7524	996.75	114.45
996.4512	2699.9863	995.05	110.4
996.5737	2701.2195	993.65	113
996.6961	2702.452	993.7	110.25
996.8185	2703.6839	993.3	110.05
996.9408	2704.9151	991.7	110.95
997.0631	2706.1456	992.95	110.3
997.1854	2707.3755	992.2	110.05
997.3077	2708.6046	994.8	110.9
997.4299	2709.8331	991.8	108.9
997.552	2711.0609	995.85	110.85
997.6742	2712.2881	991.8	106.75
997.7963	2713.5145	994.3	111.45
997.9183	2714.7403	993.3	111.35
998.0403	2715.9654	997.85	113.4
998.1623	2717.1899	1007.8	110.45
998.2842	2718.4136	993.65	109.95
998.4062	2719.6367	993.5	111.4
998.528	2720.8591	997.2	109.25
998.6498	2722.0809	994.85	111.65
998.7716	2723.3019	1000.7	115.4
998.8934	2724.5223	993.45	109.35
999.0151	2725.7421	995	110.55
999.1368	2726.9611	992.6	108.75
999.2584	2728.1795	995.7	105.65
999.38	2729.3972	988.95	106.45
999.5016	2730.6142	996.2	105.55
999.6231	2731.8306	988.6	105.6
999.7446	2733.0462	991.25	107.1
999.8661	2734.2612	996.8	110.25
999.9875	2735.4756	986.55	103.5
1000.1089	2736.6892	985	102.65
1000.2302	2737.9022	980.4	100.4
1000.3515	2739.1145	984.3	102.8
1000.4728	2740.3262	991.75	101
1000.594	2741.5372	980.1	99.1
1000.7152	2742.7475	980.25	97.9
1000.8363	2743.9571	982.75	97.75
1000.9575	2745.1661	984.15	97.75
1001.0785	2746.3744	981.25	96.95
1001.1996	2747.582	978	97.3
1001.3206	2748.7889	977.6	93
1001.4415	2749.9952	977.05	93.25
1001.5625	2751.2008	976.2	92.8
1001.6833	2752.4057	976.65	91.7
1001.8042	2753.61	975.95	93.95
1001.925	2754.8136	976.9	92.05
1002.0458	2756.0165	972.95	91.5
1002.1665	2757.2188	973.65	92.25
1002.2872	2758.4204	972.65	89
1002.4078	2759.6213	974.75	90.85
1002.5285	2760.8215	975.25	88.2
1002.649	2762.0211	974.35	88
1002.7696	2763.22	974.3	89.25
1002.8901	2764.4182	975	90.9
1003.0106	2765.6158	970.45	90.25
1003.131	2766.8127	970.8	87.7
1003.2514	2768.009	971.25	89.65
1003.3717	2769.2045	969.9	87.95
1003.492	2770.3994	973.3	89.45
1003.6123	2771.5936	968.65	86.1
1003.7325	2772.7872	969.8	87.9
1003.8527	2773.9801	971.1	87.65
1003.9729	2775.1723	981.95	83.05
1004.093	2776.3639	967.05	85.55
1004.2131	2777.5548	965.55	80.9
1004.3331	2778.745	969.6	86.9
1004.4531	2779.9346	964.95	84
1004.5731	2781.1235	966.55	82.25
1004.693	2782.3117	965.35	83.65
1004.8129	2783.4992	965.15	83
1004.9328	2784.6861	965.45	83.2
1005.0526	2785.8723	968.6	85
1005.1723	2787.0579	966.8	82.5
1005.2921	2788.2428	963.25	80.9
1005.4118	2789.427	963.95	81.2
1005.5314	2790.6106	962.15	80.6
1005.651	2791.7935	963.1	79.8
1005.7706	2792.9757	960.45	80.2
1005.8902	2794.1573	964.15	81.6
1006.0097	2795.3382	961.4	79.05
1006.1291	2796.5184	961.4	81
1006.2485	2797.698	963.25	80.25
1006.3679	2798.8769	964	81.1
1006.4873	2800.0551	962.55	80.4
1006.6066	2801.2327	961.75	75.1
1006.7258	2802.4096	961.2	78.95
1006.8451	2803.5859	966.6	82.05
1006.9642	2804.7615	965.15	81.5
1007.0834	2805.9364	964.8	84.2
1007.2025	2807.1106	963.55	81.45
1007.3216	2808.2842	966.25	83.7
1007.4406	2809.4572	965.1	82.75
1007.5596	2810.6294	963.3	79.8
1007.6785	2811.801	965.2	84.95
1007.7975	2812.972	971.1	87.8
1007.9163	2814.1423	969.2	87.55
1008.0352	2815.3119	967.5	84.65
1008.154	2816.4808	967.85	85.65
1008.2727	2817.6491	975.85	94.1
1008.3914	2818.8167	972	89.4
1008.5101	2819.9837	980.75	94.75
1008.6288	2821.15	982.95	100.1
1008.7474	2822.3157	983.45	101.15
1008.8659	2823.4807	986.4	105.1
1008.9844	2824.645	994	110.65
1009.1029	2825.8086	999.5	119.55
1009.2214	2826.9716	1003.3	120.9
1009.3398	2828.134	1009.7	126.2
1009.4581	2829.2957	1015.85	131.15
1009.5764	2830.4567	1019.95	138.7
1009.6947	2831.617	1019.1	136.2
1009.813	2832.7767	1022.9	142.55
1009.9312	2833.9358	1023.95	141.15
1010.0493	2835.0941	1023.25	140.6
1010.1675	2836.2519	1022.05	140.55
1010.2855	2837.4089	1016.9	134.85
1010.4036	2838.5653	1016.5	134.55
1010.5216	2839.7211	1011	129.95
1010.6396	2840.8761	1010.25	127.75
1010.7575	2842.0306	1010.8	130.4
1010.8754	2843.1843	1006.4	125.55
1010.9932	2844.3374	1009.65	128
1011.111	2845.4899	1013.85	132.4
1011.2288	2846.6417	1011.1	128.35
1011.3465	2847.7928	1010.65	129.6
1011.4642	2848.9433	1013.75	131.55
1011.5818	2850.0931	1015.75	134.9
1011.6995	2851.2422	1016.8	133.75
1011.817	2852.3907	1015.85	133.4
1011.9345	2853.5385	1016.95	133.05
1012.052	2854.6857	1030.55	139.8
1012.1695	2855.8323	1018.15	136.9
1012.2869	2856.9781	1018.85	137.15
1012.4042	2858.1233	1024.25	142
1012.5216	2859.2679	1026.95	144.85
1012.6389	2860.4118	1030.35	146.25
1012.7561	2861.555	1036.15	150.3
1012.8733	2862.6976	1036.25	151.6
1012.9905	2863.8395	1026.15	143.9
1013.1076	2864.9808	1029.7	149.85
1013.2247	2866.1214	1034.65	152.65
1013.3417	2867.2614	1036.65	155.25
1013.4587	2868.4007	1039.2	157.8
1013.5757	2869.5393	1044.1	160.65
1013.6926	2870.6773	1041.35	157.25
1013.8095	2871.8146	1045.65	160.35
1013.9263	2872.9513	1043.05	157.55
1014.0431	2874.0874	1040.9	158.15
1014.1599	2875.2227	1042.35	159.85
1014.2766	2876.3574	1044.1	164.5
1014.3933	2877.4915	1047.05	167.15
1014.51	2878.6249	1048.7	165.85
1014.6266	2879.7577	1050.95	169
1014.7431	2880.8898	1064.65	168.95
1014.8596	2882.0212	1054.45	174.2
1014.9761	2883.152	1053.35	169.5
1015.0925	2884.2821	1055.45	174.55
1015.2089	2885.4116	1054.45	172.05
1015.3253	2886.5405	1056.05	173.8
1015.4416	2887.6686	1061	176.5
1015.5579	2888.7962	1054.05	173.2
1015.6741	2889.923	1056.55	175.95
1015.7903	2891.0493	1056.25	173.7
1015.9065	2892.1748	1058	175.3
1016.0226	2893.2997	1054.7	171.2
1016.1387	2894.424	1057.35	176.65
1016.2547	2895.5476	1054.75	173.8
1016.3707	2896.6706	1054.4	173.35
1016.4866	2897.7929	1054.75	172.45
1016.6025	2898.9145	1057.9	177.9
1016.7184	2900.0355	1059.5	175.85
1016.8342	2901.1559	1057.95	174.75
1016.95	2902.2756	1054.15	171.3
1017.0658	2903.3946	1054.9	170.95
1017.1815	2904.513	1056.4	172.05
1017.2971	2905.6308	1051.55	171.05
1017.4127	2906.7479	1049.65	167.2
1017.5283	2907.8643	1054.9	173.05
1017.6439	2908.9801	1051.3	169.9
1017.7594	2910.0953	1050.65	169
1017.8748	2911.2098	1052.25	165.7
1017.9902	2912.3236	1059.6	168.95
1018.1056	2913.4368	1059.3	175.95
1018.2209	2914.5494	1054.15	172.55
1018.3362	2915.6613	1053.85	165.05
1018.4515	2916.7725	1047.5	161.6
1018.5667	2917.8831	1041.85	160.05
1018.6819	2918.9931	1042.65	158.1
1018.797	2920.1024	1042.35	159.1
1018.9121	2921.211	1042.4	161.15
1019.0271	2922.319	1038.25	156.1
1019.1421	2923.4264	1030.55	148.95
1019.2571	2924.5331	1031.35	150.6
1019.372	2925.6391	1035.45	153.45
1019.4869	2926.7445	1034.05	152.65
1019.6017	2927.8493	1037.3	155.75
1019.7165	2928.9534	1037	155.25
1019.8313	2930.0569	1040.4	155.05
1019.946	2931.1597	1036.75	154.05
1020.0606	2932.2619	1036.35	154.75
1020.1753	2933.3634	1040.45	158.3
1020.2899	2934.4643	1045.45	157.85
1020.4044	2935.5645	1046.8	157.7
1020.5189	2936.6641	1041.15	154.55
1020.6334	2937.763	1039.9	158.65
1020.7478	2938.8613	1041.25	158.35
1020.8622	2939.959	1039.7	151.2
1020.9765	2941.056	1036.75	156.75
1021.0908	2942.1523	1034.65	151.35
1021.2051	2943.248	1026.9	145.4
1021.3193	2944.3431	1016.35	133.95
1021.4334	2945.4375	1011.5	130.35
1021.5476	2946.5313	1006.6	125.7
1021.6617	2947.6244	1001.65	117.95
1021.7757	2948.7169	997.5	115.05
1021.8897	2949.8087	995.7	114.05
1022.0037	2950.8999	987.5	104.85
1022.1176	2951.9904	982.75	102.65
1022.2315	2953.0803	981.05	99.95
1022.3453	2954.1696	979.45	97.5
1022.4591	2955.2582	978.2	96.55
1022.5728	2956.3462	974.9	92.8
1022.6865	2957.4335	973.1	90.25
1022.8002	2958.5202	972.6	88.15
1022.9138	2959.6062	974.25	92.05
1023.0274	2960.6916	973.05	91.25
1023.141	2961.7764	973.05	89.9
1023.2545	2962.8605	972.3	88.75
1023.3679	2963.9439	972.3	89.6
1023.4813	2965.0267	972.7	91.65
1023.5947	2966.1089	993.8	88.45
1023.708	2967.1905	969.65	86.7
1023.8213	2968.2714	969.1	86.35
1023.9346	2969.3516	970.45	88.45
1024.0478	2970.4312	977.05	88.6
1024.1609	2971.5102	964.8	83.75
1024.274	2972.5885	963.2	81.25
1024.3871	2973.6662	976.4	88.5
1024.5002	2974.7432	968.4	87.25
1024.6132	2975.8196	969.2	87.25
1024.7261	2976.8954	966.6	84.85
1024.839	2977.9705	965.5	84.95
1024.9519	2979.045	967.4	85.45
1025.0647	2980.1188	966.05	83.35
1025.1775	2981.192	964.5	82.85
1025.2902	2982.2645	966.8	83.2
1025.4029	2983.3364	965.55	82.65
1025.5156	2984.4077	962.4	80.9
1025.6282	2985.4783	965.9	77.35
1025.7407	2986.5483	959.05	77.4
1025.8532	2987.6177	954.1	72.9
1025.9657	2988.6864	953.7	71.8
1026.0782	2989.7545	956.5	74.15
1026.1906	2990.8219	951.4	71.3
1026.3029	2991.8887	951.5	68.2
1026.4152	2992.9548	949.25	67.8
1026.5275	2994.0204	942.2	61.05
1026.6397	2995.0852	943.75	63.95
1026.7519	2996.1495	942.85	59.35
1026.864	2997.2131	937.95	56.05
1026.9761	2998.276	937.25	54.4
1027.0882	2999.3383	939.75	56
1027.2002	3000.4	935.25	51.55
1027.3122	3001.4611	935.65	53.8
1027.4241	3002.5215	929.65	49.45
1027.536	3003.5812	930.3	48.45
1027.6478	3004.6404	930.1	46.7
1027.7596	3005.6989	930.75	49.2
1027.8714	3006.7567	929.15	47.45
1027.9831	3007.8139	947.35	44.7
1028.0947	3008.8705	926.55	43.9
1028.2064	3009.9264	944.1	44.25
1028.3179	3010.9818	928	45.1
1028.4295	3012.0364	926.25	44.8
1028.541	3013.0905	924.5	42.65
1028.6524	3014.1439	925.2	42.75
1028.7638	3015.1966	922.55	39.85
1028.8752	3016.2487	923.75	41.5
1028.9865	3017.3002	927.3	42.2
1029.0978	3018.3511	920.5	38.8
1029.209	3019.4013	921	40.25
1029.3202	3020.4509	919	37.85
1029.4314	3021.4998	921.05	38.55
1029.5425	3022.5481	922.6	42.4
1029.6535	3023.5958	922.6	40.3
1029.7645	3024.6428	922.65	39.45
1029.8755	3025.6892	919.25	40
1029.9864	3026.735	921.85	39.2
1030.0973	3027.7802	921.4	38.4
1030.2082	3028.8247	922.7	41.4
1030.319	3029.8685	917.9	35.75
1030.4297	3030.9118	923.35	40.2
1030.5404	3031.9544	920.9	39.05
1030.6511	3032.9963	919.8	38.5
1030.7617	3034.0376	922	40.8
1030.8723	3035.0783	921.3	36.7
1030.9829	3036.1184	921.65	39.8
1031.0934	3037.1578	917.85	36.45
1031.2038	3038.1966	921.15	38.5
1031.3142	3039.2348	919.25	38.15
1031.4246	3040.2723	927.05	36.8
1031.5349	3041.3092	919.6	38.15
1031.6452	3042.3455	918.1	35.9
1031.7554	3043.3811	919.5	38.35
1031.8656	3044.4161	922.65	39.45
1031.9758	3045.4505	917.75	36.2
1032.0859	3046.4842	922.85	39.75
1032.1959	3047.5173	918.9	39.65
1032.3059	3048.5498	918.2	34.55
1032.4159	3049.5816	916.7	33.25
1032.5258	3050.6128	922.9	41.2
1032.6357	3051.6434	920.2	36.5
1032.7455	3052.6734	919.95	37.45
1032.8553	3053.7027	921.7	38.8
1032.9651	3054.7314	918.95	38.4
1033.0748	3055.7594	917.45	35.6
1033.1845	3056.7868	922.9	39.85
1033.2941	3057.8136	919.5	37
1033.4037	3058.8398	918.2	38.5
1033.5132	3059.8653	917.6	35.25
1033.6227	3060.8902	919.9	38.05
1033.7321	3061.9145	918.85	38
1033.8415	3062.9381	920.05	38.85
1033.9509	3063.9612	933.35	36.9
1034.0602	3064.9835	921.05	37.8
1034.1694	3066.0053	922	38.2
1034.2787	3067.0264	920.75	39.55
1034.3878	3068.0469	921.05	37.6
1034.497	3069.0668	920.9	37.1
1034.6061	3070.086	918.9	37.65
1034.7151	3071.1046	920.8	35.95
1034.8241	3072.1226	921.45	38.3
1034.9331	3073.1399	918.6	37.6
1035.042	3074.1567	916.45	35.15
1035.1508	3075.1727	920.45	37.4
1035.2597	3076.1882	916.05	33.5
1035.3684	3077.203	919	37.95
1035.4772	3078.2173	918.65	35.15
1035.5859	3079.2308	918.6	33.05
1035.6945	3080.2438	916.45	32.2
1035.8031	3081.2561	915.45	31.45
1035.9117	3082.2678	912.75	29.6
1036.0202	3083.2789	913.05	30.6
1036.1286	3084.2893	913.35	32
1036.2371	3085.2991	912.05	31.15
1036.3454	3086.3083	916.7	31.7
1036.4538	3087.3169	914.4	31.25
1036.562	3088.3248	915.15	32.3
1036.6703	3089.3321	911.35	27.8
1036.7785	3090.3388	910.05	28.7
1036.8866	3091.3449	910.8	27.95
1036.9948	3092.3503	913.1	29.65
1037.1028	3093.3551	909.95	29.35
1037.2108	3094.3593	909.2	27
1037.3188	3095.3629	911.55	29.35
1037.4267	3096.3658	912.85	28.6
1037.5346	3097.3681	910.95	29.75
1037.6425	3098.3698	911.4	28.65
1037.7503	3099.3708	919.45	29.5
1037.858	3100.3713	907.05	26.3
1037.9657	3101.3711	909.3	28.25
1038.0734	3102.3702	1041.1	22.55
1038.181	3103.3688	910.75	27
1038.2886	3104.3667	906.75	25
1038.3961	3105.364	907.95	27.65
1038.5036	3106.3607	911.55	28.85
1038.611	3107.3568	909.6	26.4
1038.7184	3108.3522	906.35	23.15
1038.8257	3109.347	911.25	29.25
1038.933	3110.3412	909.55	25.3
1039.0403	3111.3348	907.75	25.9
1039.1475	3112.3277	906	24.25
1039.2547	3113.32	905	23.05
1039.3618	3114.3117	907.9	24.7
1039.4689	3115.3028	907.4	25.95
1039.5759	3116.2932	909.2	25.1
1039.6829	3117.2831	911.55	22.8
1039.7898	3118.2723	905.1	24.4
1039.8967	3119.2608	905.8	23.65
1040.0035	3120.2488	906.2	24.45
1040.1103	3121.2361	904.25	22.85
1040.2171	3122.2229	904.55	23.35
1040.3238	3123.209	905.05	22.7
1040.4305	3124.1944	906.25	24.4
1040.5371	3125.1793	906.2	22.8
1040.6437	3126.1635	906.2	24.8
1040.7502	3127.1471	904.3	21.35
1040.8567	3128.1301	903.2	21.45
1040.9631	3129.1125	903.5	23.1
1041.0695	3130.0942	904.85	22.5
1041.1759	3131.0753	910.95	20.1
1041.2822	3132.0558	906.55	20.6
1041.3884	3133.0357	902.75	21.2
1041.4946	3134.015	905.1	23.3
1041.6008	3134.9936	903.45	21.65
1041.7069	3135.9716	922.3	20.85
1041.813	3136.949	903.7	21.55
1041.919	3137.9258	918.9	18.95
1042.025	3138.902	909	21.3
1042.1309	3139.8775	904.65	25.1
1042.2368	3140.8524	901.05	19.85
1042.3427	3141.8267	903.9	18.35
1042.4485	3142.8004	903.7	21.25
1042.5542	3143.7735	908.5	21.1
1042.6599	3144.7459	904.55	21.45
1042.7656	3145.7178	901.95	19.25
1042.8712	3146.689	897.75	15.6
1042.9768	3147.6596	901.7	18.1
1043.0823	3148.6295	901.5	17.35
1043.1878	3149.5989	901.4	20.85
1043.2932	3150.5676	902.1	21.8
1043.3986	3151.5357	899.6	18.75
1043.5039	3152.5032	899.45	19.95
1043.6092	3153.4701	900.5	19.25
1043.7145	3154.4364	901.9	17.1
1043.8197	3155.402	898.05	16.55
1043.9248	3156.367	903.15	18.95
1044.03	3157.3315	934.15	18.2
1044.135	3158.2952	901.75	20.1
1044.24	3159.2584	899.65	17.25
1044.345	3160.221	900.5	16.05
1044.4499	3161.1829	900.8	17.8
1044.5548	3162.1442	899.45	18.8
1044.6596	3163.105	899	15.3
1044.7644	3164.065	899.3	16.25
1044.8692	3165.0245	901.5	18.3
1044.9739	3165.9834	900.55	19.3
1045.0785	3166.9416	898.9	17.25
1045.1831	3167.8993	898.05	14.75
1045.2877	3168.8563	900.15	16.95
1045.3922	3169.8127	895.85	14.4
1045.4966	3170.7684	900.3	17.95
1045.6011	3171.7236	899.85	15.75
1045.7054	3172.6782	899.9	18.05
1045.8098	3173.6321	901.05	20.15
1045.914	3174.5854	902	16
1046.0183	3175.5381	899.8	18.05
1046.1224	3176.4902	898.5	16.9
1046.2266	3177.4417	896.2	13.9
1046.3307	3178.3926	898.45	16.95
1046.4347	3179.3428	898.45	16
1046.5387	3180.2924	897.15	15.8
1046.6427	3181.2415	896.2	13.1
1046.7466	3182.1899	900	16.25
1046.8504	3183.1377	896.65	14.1
1046.9542	3184.0848	901.6	16.55
1047.058	3185.0314	896	13.45
1047.1617	3185.9773	898.4	14.8
1047.2654	3186.9227	898.9	16.5
1047.369	3187.8674	897.95	16.8
1047.4726	3188.8115	901.9	15.95
1047.5761	3189.755	896.15	15.8
1047.6796	3190.6979	896.75	15.55
1047.783	3191.6402	894.05	11.9
1047.8864	3192.5818	897.25	18.4
1047.9898	3193.5229	902.65	13.65
1048.0931	3194.4633	896.7	15.35
1048.1963	3195.4031	897.15	14.8
1048.2995	3196.3423	895.45	13.6
1048.4027	3197.2809	896.3	13.5
1048.5058	3198.2189	895.85	14.85
1048.6089	3199.1563	902.1	14.35
1048.7119	3200.0931	895.15	15.65
1048.8148	3201.0292	895.95	13.75
1048.9178	3201.9648	895.45	12.75
1049.0206	3202.8997	897.15	10.9
1049.1235	3203.834	897.15	18.45
1049.2262	3204.7677	895.5	13.05
1049.329	3205.7008	896.85	14.6
1049.4317	3206.6333	893.7	13.2
1049.5343	3207.5652	898.2	14.05
1049.6369	3208.4964	896.7	15.55
1049.7394	3209.4271	894.8	15.15
1049.8419	3210.3571	895.85	14
1049.9444	3211.2865	896.3	13.8
1050.0468	3212.2154	895.65	12.75
1050.1491	3213.1436	898.55	13
1050.2514	3214.0712	901.85	14.05
1050.3537	3214.9982	893.5	9.2
1050.4559	3215.9246	895.3	10.4
1050.5581	3216.8503	895.25	13.9
1050.6602	3217.7755	896.55	14.45
1050.7623	3218.7001	896.4	15.6
1050.8643	3219.624	895.8	13.55
1050.9663	3220.5473	894.45	13.9
1051.0682	3221.4701	893.9	11.45
1051.1701	3222.3922	897.5	15.25
1051.2719	3223.3137	894.85	12.7
1051.3737	3224.2346	894.3	13.05
1051.4754	3225.1549	894.05	13.95
1051.5771	3226.0746	892.75	10.9
1051.6788	3226.9937	895.35	12
1051.7804	3227.9121	893.7	12.95
1051.8819	3228.83	894.15	14.35
1051.9834	3229.7473	894.15	12.25
1052.0849	3230.6639	895.65	12.9
1052.1863	3231.5799	894.2	12.4
1052.2876	3232.4954	896.35	12.25
1052.3889	3233.4102	893.8	14.15
1052.4902	3234.3244	892.9	11.35
1052.5914	3235.238	893.75	13.4
1052.6926	3236.151	922.35	12.6
1052.7937	3237.0634	893.05	12.1
1052.8948	3237.9752	893.7	10.5
1052.9958	3238.8864	892.8	12.25
1053.0968	3239.797	892.9	12.7
1053.1977	3240.7069	894.05	12.55
1053.2986	3241.6163	894.5	10.1
1053.3994	3242.5251	895.6	14.2
1053.5002	3243.4332	891.55	10.05
1053.6009	3244.3408	894.8	10.45
1053.7016	3245.2477	892.25	11.25
1053.8022	3246.154	893.85	11.55
1053.9028	3247.0598	894.05	11.8
1054.0034	3247.9649	892.55	10
1054.1039	3248.8694	893	9.9
1054.2043	3249.7733	890.7	7.5
1054.3047	3250.6766	891.65	9.6
1054.4051	3251.5793	894.8	11.2
1054.5054	3252.4814	894.35	13.65
1054.6056	3253.3829	892.8	9.65
1054.7058	3254.2838	892.9	11.75
1054.806	3255.1841	890.8	10.65
1054.9061	3256.0838	893.55	12
1055.0061	3256.9829	892	10.6
1055.1062	3257.8814	895.5	11.05
1055.2061	3258.7792	893.35	9.55
1055.306	3259.6765	891.85	9.6
1055.4059	3260.5731	891.4	9.65
1055.5057	3261.4692	893.6	11.65
1055.6055	3262.3647	892	8.4
1055.7052	3263.2595	892.05	10.55
1055.8049	3264.1538	890.1	8.15
1055.9045	3265.0474	890.75	9.5
1056.0041	3265.9404	889.95	6.1
1056.1036	3266.8329	889.9	7.8
1056.2031	3267.7247	899.05	8.6
1056.3025	3268.616	888	6.15
1056.4019	3269.5066	888.8	4.85
1056.5013	3270.3966	892.5	11.75
1056.6005	3271.286	887.75	6.6
