Software Version:	3.9.2.0
Unit SN:	10000200
Spectrometer SN:	6960
Date:	3/26/2024 1:18:52 PM
Data Line Index:	25
Spectral Points:	2048
Integration time (ms):	125
Averages:	20
Delay (ms):	30000
Sequence Number:	1
Processing:	dark subtract
Laser Power (mW):	300
Laser Current (mA):	818
Laser Diode Temp (C):	25
Laser Case Temp (C):	26.5
System Temp (C):	26.5
Spectrometer Temp (C):	24.2
CCD Temp (C):	0.001
Secondary Temp (C):	20.01
Heatsink Temp (C):	21.96
CCDPCB Temp (C):	36.362
SecondaryPCB Temp (C):	33.506

Wavelength	RamanShift	Raw Counts	Dark Subtracted
787.061	30.1047	428.75	17.95
787.2016	32.3739	429.35	19.85
787.3422	34.6426	432.45	22
787.4828	36.9109	434.05	21.7
787.6235	39.1787	436.9	22.9
787.7642	41.4461	445.25	25.1
787.9049	43.7131	449.85	26.15
788.0456	45.9796	455.35	27.9
788.1863	48.2456	461.45	29.35
788.3271	50.5112	465.95	28.1
788.4679	52.7764	469.55	32.85
788.6087	55.0411	477	37.2
788.7496	57.3054	484.25	39.9
788.8904	59.5692	487.75	38.85
789.0313	61.8326	493.95	41.75
789.1722	64.0955	501.95	45.4
789.3132	66.3579	511.55	51.45
789.4541	68.6199	517.9	53.9
789.5951	70.8815	529.5	63.95
789.7361	73.1426	558.95	89.5
789.8771	75.4032	620.15	145.5
790.0181	77.6634	766.7	286.55
790.1592	79.9231	1111.65	629.6
790.3003	82.1824	1834.7	1349.5
790.4414	84.4412	3083.2	2595.35
790.5825	86.6995	4802.25	4305.55
790.7237	88.9574	6574.5	6074.05
790.8648	91.2148	7872.05	7367.65
791.006	93.4717	8609.15	8100.8
791.1472	95.7282	8892.55	8379.85
791.2885	97.9842	9021.15	8508.5
791.4297	100.2398	9034.45	8518.75
791.571	102.4949	9025.35	8504.9
791.7123	104.7495	9005.35	8483.35
791.8536	107.0036	8958.45	8435.2
791.9949	109.2573	8924.65	8402.6
792.1363	111.5105	8891.4	8366.75
792.2777	113.7632	8818.95	8293.65
792.4191	116.0154	8785.7	8248.35
792.5605	118.2672	8737.35	8207.25
792.7019	120.5185	8681.3	8149.6
792.8434	122.7693	8653.45	8118.05
792.9849	125.0197	8614.5	8078.15
793.1264	127.2696	8562.95	8022.55
793.2679	129.519	8568.6	8025.75
793.4094	131.7679	8511.95	7966.75
793.551	134.0163	8540.45	7992.85
793.6926	136.2642	8541.2	7988.3
793.8342	138.5117	8549.55	7984.1
793.9758	140.7587	8497.15	7938.65
794.1175	143.0052	8474.55	7913.75
794.2591	145.2512	8444.45	7883.45
794.4008	147.4967	8386.55	7825.4
794.5425	149.7417	8347.85	7783.5
794.6842	151.9863	8311.35	7741.9
794.826	154.2304	8330.1	7758.5
794.9677	156.4739	8290	7711.65
795.1095	158.717	8302.7	7725.05
795.2513	160.9596	8300.7	7715.7
795.3931	163.2017	8299.4	7714.25
795.535	165.4433	8297.15	7710.15
795.6768	167.6844	8272.85	7684.8
795.8187	169.925	8222.3	7630.25
795.9606	172.1651	8197.6	7602.85
796.1025	174.4047	8171.9	7573.3
796.2445	176.6439	8129.9	7529.9
796.3864	178.8825	8102.2	7497.55
796.5284	181.1206	8085.6	7478.35
796.6704	183.3582	8083.35	7469.95
796.8124	185.5954	8060.6	7446.35
796.9544	187.832	8036.1	7418
797.0965	190.0681	8053.1	7434.55
797.2386	192.3037	8075.1	7454.35
797.3806	194.5388	8061.95	7435.3
797.5228	196.7734	8068.1	7441.1
797.6649	199.0075	8101.55	7468.9
797.807	201.2411	8124.3	7490.6
797.9492	203.4742	8116.05	7481.55
798.0914	205.7068	8128.55	7493.3
798.2336	207.9389	8151.05	7515.05
798.3758	210.1704	8152.55	7514.4
798.518	212.4015	8146.35	7502.2
798.6603	214.632	8163.5	7522.1
798.8025	216.862	8121.9	7488.5
798.9448	219.0915	8130.35	7506.5
799.0871	221.3205	8117.55	7493.4
799.2294	223.549	8133.5	7513.55
799.3718	225.777	8129.25	7508.2
799.5141	228.0044	8141.95	7517.25
799.6565	230.2314	8119.3	7495.9
799.7989	232.4578	8099.75	7475.65
799.9413	234.6837	8081.9	7448.65
800.0837	236.909	8063.7	7431.65
800.2262	239.1339	8079.6	7422.15
800.3687	241.3582	8074.9	7431.6
800.5111	243.582	8092.35	7417.6
800.6536	245.8053	8060.75	7398.9
800.7961	248.0281	8051.35	7393.8
800.9387	250.2503	8027.35	7365.4
801.0812	252.472	8048	7378.4
801.2238	254.6932	8059.55	7388
801.3664	256.9139	8043.4	7372.75
801.509	259.134	8046.1	7372.85
801.6516	261.3536	8049	7378.25
801.7942	263.5727	8059.5	7382.45
801.9369	265.7912	8064.6	7391.3
802.0795	268.0092	8111.6	7437.55
802.2222	270.2267	8114.4	7437.8
802.3649	272.4436	8141.15	7462.9
802.5076	274.6601	8138.15	7452.85
802.6504	276.8759	8136.25	7454.2
802.7931	279.0913	8183.5	7496.7
802.9359	281.3061	8176.65	7493.5
803.0787	283.5204	8202.15	7515.75
803.2215	285.7341	8197.35	7505.6
803.3643	287.9473	8226.25	7521.5
803.5071	290.16	8223.45	7524.45
803.6499	292.3721	8158.4	7468.6
803.7928	294.5837	8125.65	7433.1
803.9357	296.7947	8098.45	7404.75
804.0786	299.0052	8068.3	7374.3
804.2215	301.2152	8057.35	7360.35
804.3644	303.4246	8047.25	7353.75
804.5074	305.6334	8009.5	7314.35
804.6503	307.8418	7990.55	7292.05
804.7933	310.0495	7965.05	7264.7
804.9363	312.2568	7923.55	7224.4
805.0793	314.4635	7878.9	7178.2
805.2223	316.6696	7835.95	7133.75
805.3653	318.8752	7800.95	7088.85
805.5084	321.0802	7771.95	7067.3
805.6514	323.2847	7746.65	7041.25
805.7945	325.4887	7726.5	7021
805.9376	327.692	7721	7013.1
806.0807	329.8949	7764	7054
806.2238	332.0972	7758.25	7046.35
806.367	334.2989	7785.5	7067.55
806.5101	336.5001	7780.7	7065.45
806.6533	338.7007	7755.15	7039.05
806.7965	340.9008	7735	7018
806.9397	343.1003	7692.4	6972.85
807.0829	345.2992	7642.15	6922.9
807.2261	347.4976	7591.1	6869.2
807.3693	349.6955	7569.3	6842.5
807.5126	351.8927	7578.25	6851.15
807.6559	354.0895	7537.75	6803.6
807.7991	356.2856	7557.5	6830.1
807.9424	358.4812	7493.8	6766.15
808.0857	360.6763	7521.1	6791.05
808.2291	362.8707	7502.2	6769.65
808.3724	365.0646	7519.75	6787.6
808.5158	367.258	7487.95	6752
808.6591	369.4508	7468	6728.75
808.8025	371.643	7489.75	6751
808.9459	373.8346	7487.25	6745.75
809.0893	376.0257	7531.2	6786.9
809.2327	378.2162	7505.7	6760.15
809.3762	380.4062	7532.5	6784.05
809.5196	382.5956	7472.3	6723.1
809.6631	384.7844	7438.35	6691.95
809.8066	386.9726	7399.7	6650.85
809.9501	389.1603	7362.25	6614.9
810.0936	391.3474	7364.4	6585.65
810.2371	393.5339	7347.9	6603.75
810.3806	395.7199	7305.25	6564.15
810.5241	397.9052	7307.25	6568.25
810.6677	400.09	7333.85	6591.3
810.8113	402.2743	7344.3	6603.8
810.9548	404.4579	7360.1	6620.6
811.0984	406.641	7394.75	6653.55
811.2421	408.8235	7420.15	6677.9
811.3857	411.0054	7459.8	6715.6
811.5293	413.1868	7538.45	6789.85
811.673	415.3675	7615.15	6867.05
811.8166	417.5477	7618.25	6868.35
811.9603	419.7273	7554.7	6800.7
812.104	421.9064	7441.1	6676.9
812.2477	424.0848	7362.25	6602.5
812.3914	426.2627	7308	6548.15
812.5351	428.4399	7243.35	6480.3
812.6788	430.6166	7222.4	6456.55
812.8226	432.7928	7152	6386.05
812.9663	434.9683	7104.05	6338
813.1101	437.1432	7084.4	6314.35
813.2539	439.3176	7061.8	6294.4
813.3977	441.4914	7019.6	6249.5
813.5415	443.6645	7011.45	6239.45
813.6853	445.8371	6991.1	6221.35
813.8291	448.0091	6973.9	6204.65
813.973	450.1806	6942.15	6167.45
814.1168	452.3514	6926.55	6151.7
814.2607	454.5216	6927.7	6147.95
814.4046	456.6913	6881.05	6103.25
814.5485	458.8603	6887.5	6111
814.6924	461.0288	6899.7	6123
814.8363	463.1967	6874	6099.45
814.9802	465.3639	6892.1	6115.2
815.1241	467.5306	6861.8	6083.2
815.2681	469.6967	6834.65	6057.15
815.412	471.8622	6807.35	6027.1
815.556	474.0271	6804.9	6025.3
815.7	476.1914	6813.35	6031.35
815.844	478.3551	6786.8	6006.5
815.988	480.5182	6806.95	6024.05
816.132	482.6807	6810.9	6027.8
816.276	484.8426	6802.35	6021.45
816.4201	487.0039	6850.65	6068.65
816.5641	489.1647	6880.1	6094.3
816.7082	491.3248	6908.5	6123.3
816.8522	493.4843	6914.15	6128.55
816.9963	495.6432	6896.85	6111.65
817.1404	497.8015	6863.7	6074.6
817.2845	499.9592	6854.9	6067.9
817.4286	502.1163	6795.35	6007.15
817.5727	504.2728	6775.85	5985.4
817.7168	506.4287	6769.65	5981.25
817.861	508.5839	6728.2	5939.25
818.0051	510.7386	6756.15	5967.25
818.1493	512.8927	6733.75	5936.95
818.2935	515.0461	6736.3	5945
818.4377	517.199	6743	5954.1
818.5818	519.3512	6765.6	5972.65
818.726	521.5029	6809.95	6010.5
818.8703	523.6539	6815.5	6021.1
819.0145	525.8043	6827.45	6031.45
819.1587	527.9541	6807.95	6010.2
819.303	530.1033	6725.15	5928.35
819.4472	532.2519	6694.8	5898.7
819.5915	534.3999	6683.85	5885.1
819.7357	536.5472	6692.15	5894.95
819.88	538.694	6687.6	5887.45
820.0243	540.8401	6671.95	5873.4
820.1686	542.9856	6710.55	5910.5
820.3129	545.1305	6714.35	5913.25
820.4572	547.2748	6715.7	5914.8
820.6016	549.4185	6705.05	5899.45
820.7459	551.5615	6702.55	5899.25
820.8902	553.704	6699	5892.1
821.0346	555.8458	6706.75	5906.4
821.1789	557.987	6710.15	5910.85
821.3233	560.1276	6742	5938.75
821.4677	562.2675	6782.2	5979.7
821.6121	564.4069	6792.6	5989.85
821.7565	566.5456	6843	6038.6
821.9009	568.6837	6832.85	6028.4
822.0453	570.8212	6752.75	5950.2
822.1897	572.958	6691.8	5885.55
822.3342	575.0942	6664.8	5861.8
822.4786	577.2299	6622.4	5818.35
822.6231	579.3648	6580.7	5776.05
822.7675	581.4992	6557.55	5752.4
822.912	583.6329	6552.45	5748
823.0565	585.766	6540.7	5735.3
823.201	587.8985	6550.95	5744.65
823.3454	590.0304	6583	5762.5
823.4899	592.1616	6587.45	5777.15
823.6345	594.2922	6603.95	5794.6
823.779	596.4222	6543.3	5731.9
823.9235	598.5515	6513.85	5702.25
824.068	600.6802	6474.7	5662.5
824.2126	602.8083	6397.4	5583.85
824.3571	604.9358	6383.45	5569.5
824.5017	607.0626	6371.45	5556.45
824.6462	609.1888	6386.65	5571.05
824.7908	611.3144	6402.55	5586.5
824.9354	613.4393	6409.05	5594.25
825.08	615.5636	6436.65	5621.4
825.2246	617.6873	6480.15	5666
825.3692	619.8103	6486.15	5668.65
825.5138	621.9327	6475.95	5656.55
825.6584	624.0544	6463.9	5647.7
825.803	626.1756	6443.9	5628.65
825.9477	628.2961	6394.8	5577.55
826.0923	630.4159	6360.3	5541.8
826.237	632.5351	6356.4	5536.35
826.3816	634.6537	6346.1	5526.2
826.5263	636.7716	6347.35	5528.35
826.6709	638.8889	6347.2	5524.75
826.8156	641.0056	6349.85	5529.55
826.9603	643.1216	6352.7	5528.65
827.105	645.237	6364.9	5540.15
827.2497	647.3518	6333.2	5509
827.3944	649.4659	6311.2	5487.75
827.5391	651.5793	6297.4	5473.95
827.6838	653.6922	6259.75	5438.9
827.8285	655.8043	6269.4	5446.15
827.9733	657.9159	6266.75	5442.25
828.118	660.0268	6240	5411.9
828.2627	662.137	6215.95	5389.8
828.4075	664.2466	6224.45	5396.85
828.5522	666.3556	6202.3	5377
828.697	668.4639	6202.45	5373.1
828.8418	670.5716	6191.7	5365.15
828.9865	672.6786	6192	5363.35
829.1313	674.785	6170.65	5341.7
829.2761	676.8907	6129	5302.3
829.4209	678.9958	6157.8	5331.15
829.5657	681.1002	6126.55	5296
829.7105	683.204	6148.85	5315.05
829.8553	685.3072	6127.25	5294.05
830.0001	687.4097	6116.85	5285.9
830.1449	689.5115	6118.55	5287.65
830.2898	691.6127	6120.35	5291.6
830.4346	693.7132	6113.65	5281.7
830.5794	695.8131	6109.05	5256.4
830.7243	697.9123	6118.45	5285.35
830.8691	700.0109	6127.6	5293.75
831.014	702.1089	6113.5	5282.05
831.1588	704.2061	6114.15	5280.5
831.3037	706.3028	6121.3	5285.85
831.4486	708.3987	6131.7	5295.2
831.5935	710.4941	6128	5293.05
831.7383	712.5887	6123.85	5288.2
831.8832	714.6827	6121.2	5284.75
832.0281	716.7761	6098.5	5264.6
832.173	718.8688	6118.1	5281.55
832.3179	720.9608	6092.05	5252.6
832.4628	723.0522	6122.45	5282.25
832.6077	725.1429	6105.7	5268.8
832.7527	727.233	6143	5305.55
832.8976	729.3224	6187.5	5349.2
833.0425	731.4112	6211.1	5371.5
833.1874	733.4993	6207.55	5368.85
833.3324	735.5867	6158.4	5319.05
833.4773	737.6735	6111.75	5270.8
833.6222	739.7596	6094.85	5253
833.7672	741.845	6069	5227.9
833.9122	743.9298	6069.85	5225.9
834.0571	746.014	6060.2	5220.35
834.2021	748.0974	6071.4	5231.55
834.347	750.1802	6068.4	5229.65
834.492	752.2624	6012.9	5172.75
834.637	754.3439	6001.9	5161.85
834.782	756.4247	5994.6	5143.75
834.9269	758.5048	5949.15	5106.1
835.0719	760.5843	5922.05	5078.65
835.2169	762.6631	5949.9	5108.05
835.3619	764.7413	5958.25	5116.15
835.5069	766.8188	6013.45	5168.6
835.6519	768.8956	6048.5	5202.8
835.7969	770.9718	6065.55	5224.35
835.9419	773.0473	6061.55	5217.3
836.0869	775.1221	6017.35	5173.35
836.232	777.1962	5996.2	5151.7
836.377	779.2697	6015.85	5169.8
836.522	781.3426	6103.1	5238.65
836.667	783.4147	6118.65	5271.25
836.8121	785.4862	6121.95	5277.35
836.9571	787.557	6051.55	5206.9
837.1021	789.6271	5955.5	5107.9
837.2472	791.6966	5884.55	5039.7
837.3922	793.7654	5788.8	4941.45
837.5373	795.8335	5751.95	4907.05
837.6823	797.901	5732	4886.4
837.8274	799.9678	5706.05	4856.85
837.9724	802.0339	5694.5	4847.55
838.1175	804.0993	5721	4862.65
838.2626	806.1641	5671.5	4823.3
838.4076	808.2282	5667.55	4820
838.5527	810.2916	5643.75	4794.8
838.6978	812.3544	5618.65	4771.75
838.8428	814.4164	5608.9	4762.4
838.9879	816.4778	5619.4	4768.85
839.133	818.5385	5596.15	4748.05
839.2781	820.5986	5627.2	4778.35
839.4232	822.658	5641.35	4791.6
839.5682	824.7166	5686.7	4837.65
839.7133	826.7747	5729.8	4880.35
839.8584	828.832	5763.05	4912.7
840.0035	830.8886	5791.6	4940.7
840.1486	832.9446	5811.6	4959.7
840.2937	834.9999	5766.65	4915.35
840.4388	837.0545	5713.8	4859.6
840.5839	839.1085	5671.45	4820.25
840.729	841.1618	5608.6	4753.8
840.8741	843.2143	5565.6	4714.25
841.0192	845.2662	5520.55	4670.75
841.1643	847.3175	5502.95	4652.6
841.3095	849.368	5472.25	4618.2
841.4546	851.4179	5451.5	4599.25
841.5997	853.467	5431	4577.85
841.7448	855.5155	5455.45	4603.15
841.8899	857.5633	5452.05	4599.35
842.0351	859.6105	5445.75	4592.9
842.1802	861.6569	5414.4	4562.15
842.3253	863.7027	5401.45	4547.65
842.4704	865.7478	5395.95	4542.45
842.6156	867.7922	5376.7	4522.95
842.7607	869.8359	5352.85	4498.15
842.9058	871.8789	5342.6	4487.55
843.0509	873.9212	5354.15	4467.05
843.1961	875.9629	5317.8	4461.65
843.3412	878.0039	5340.1	4482
843.4863	880.0441	5336.55	4480.7
843.6315	882.0837	5324.45	4466.85
843.7766	884.1226	5348.25	4491.55
843.9218	886.1609	5349.65	4495.05
844.0669	888.1984	5376.35	4520.85
844.212	890.2352	5400.4	4545.2
844.3572	892.2714	5423.35	4563.55
844.5023	894.3069	5394.85	4535.4
844.6475	896.3416	5343.45	4485.75
844.7926	898.3757	5293.95	4438.2
844.9377	900.4091	5279.55	4420.55
845.0829	902.4418	5262.95	4401.45
845.228	904.4739	5282.55	4422.25
845.3732	906.5052	5281	4422.55
845.5183	908.5358	5259.95	4403.4
845.6635	910.5658	5236.05	4377.15
845.8086	912.595	5213	4353.8
845.9538	914.6236	5175.7	4318.45
846.0989	916.6515	5141.45	4281.85
846.2441	918.6786	5122.5	4262.1
846.3892	920.7051	5100.75	4242.05
846.5344	922.7309	5087.15	4227
846.6795	924.756	5072.8	4213.3
846.8246	926.7804	5070.15	4209.95
846.9698	928.8041	5030.6	4170
847.1149	930.8272	5064.95	4208.2
847.2601	932.8495	5041.15	4181.1
847.4052	934.8711	5034.7	4173.8
847.5504	936.892	5022.65	4164.05
847.6955	938.9123	5028.45	4166.95
847.8407	940.9318	5042.45	4181.8
847.9858	942.9506	5026.55	4164.15
848.131	944.9688	5009.05	4148.75
848.2761	946.9862	4998	4136.15
848.4213	949.003	4954.35	4093.6
848.5664	951.019	4932.6	4071.5
848.7115	953.0344	4907.8	4045.35
848.8567	955.0491	4885.7	4023.15
849.0018	957.063	4867.9	4006.75
849.147	959.0763	4876.25	4007.35
849.2921	961.0888	4849.4	3984.8
849.4373	963.1007	4856.9	3994.25
849.5824	965.1119	4835.7	3974.1
849.7275	967.1223	4821.65	3958.8
849.8727	969.1321	4802.6	3941.35
850.0178	971.1412	4793.3	3931.4
850.1629	973.1495	4772.5	3911.2
850.3081	975.1572	4782.2	3885.3
850.4532	977.1641	4775.85	3916.6
850.5983	979.1704	4742.75	3878.2
850.7435	981.1759	4723.9	3855.85
850.8886	983.1808	4725.1	3859.45
851.0337	985.1849	4713.15	3839.1
851.1788	987.1884	4673	3803
851.324	989.1911	4676.8	3810.5
851.4691	991.1932	4667.25	3803.45
851.6142	993.1945	4659.55	3796.05
851.7593	995.1951	4642.25	3777.5
851.9045	997.1951	4640.2	3770.7
852.0496	999.1943	4610.5	3744.3
852.1947	1001.1928	4591.55	3726.45
852.3398	1003.1906	4589.1	3722.95
852.4849	1005.1877	4574.65	3707.7
852.63	1007.1841	4593.05	3726.5
852.7751	1009.1798	4582.05	3716.95
852.9202	1011.1748	4555.05	3690.05
853.0653	1013.1691	4537.85	3672.4
853.2104	1015.1627	4513.25	3646.2
853.3555	1017.1556	4467.95	3601.8
853.5006	1019.1477	4432.15	3563.85
853.6457	1021.1392	4414.85	3549.8
853.7908	1023.1299	4378.15	3512.8
853.9359	1025.12	4369.55	3502.55
854.081	1027.1093	4344.85	3479.75
854.2261	1029.0979	4343.9	3479.6
854.3712	1031.0859	4342.05	3476.85
854.5163	1033.0731	4347	3481
854.6613	1035.0596	4343.45	3477.25
854.8064	1037.0454	4294.75	3428.15
854.9515	1039.0304	4289.25	3420.65
855.0965	1041.0148	4270.55	3402.7
855.2416	1042.9985	4251.85	3382.6
855.3867	1044.9814	4222.35	3355.2
855.5317	1046.9636	4204.35	3333.35
855.6768	1048.9452	4186.25	3319.7
855.8219	1050.926	4190.05	3324.15
855.9669	1052.9061	4182.2	3314.9
856.112	1054.8855	4175.85	3308.1
856.257	1056.8642	4148.1	3279.7
856.4021	1058.8421	4169.4	3297.55
856.5471	1060.8194	4134	3265.3
856.6921	1062.7959	4121.85	3253.95
856.8372	1064.7717	4126.9	3255.75
856.9822	1066.7469	4109.4	3239.95
857.1272	1068.7213	4105.65	3233.85
857.2723	1070.695	4083.35	3214.65
857.4173	1072.6679	4092.85	3224.35
857.5623	1074.6402	4101.75	3233.45
857.7073	1076.6117	4099.25	3224.9
857.8523	1078.5826	4095.6	3225.25
857.9973	1080.5527	4053	3180.35
858.1423	1082.5221	4021.1	3151.2
858.2873	1084.4908	3986.75	3117.9
858.4323	1086.4587	3980.05	3109.95
858.5773	1088.426	3958.6	3086.6
858.7223	1090.3925	3919.55	3046.3
858.8673	1092.3584	3941.5	3072.45
859.0123	1094.3235	3926.3	3059.3
859.1573	1096.2879	3910.9	3039.45
859.3022	1098.2515	3936.25	3065.4
859.4472	1100.2145	3939	3069.5
859.5922	1102.1767	3949.05	3078.2
859.7371	1104.1382	3954.35	3084.55
859.8821	1106.099	3991.05	3116.15
860.027	1108.0591	3994.85	3124.95
860.172	1110.0185	4017.95	3142.25
860.3169	1111.9771	4052.75	3183.85
860.4619	1113.9351	4071.8	3199.45
860.6068	1115.8923	4094.9	3222.65
860.7517	1117.8488	4109.2	3236.1
860.8967	1119.8045	4076.85	3206.25
861.0416	1121.7596	4002.7	3130.95
861.1865	1123.7139	3926.15	3055.45
861.3314	1125.6675	3866.9	2993.9
861.4763	1127.6204	3866.15	2993.95
861.6212	1129.5726	3856.5	2982.8
861.7661	1131.524	3841.35	2970.15
861.911	1133.4748	3821.85	2949.35
862.0559	1135.4248	3763.15	2889.4
862.2008	1137.3741	3733.25	2860.15
862.3457	1139.3226	3712.55	2839
862.4905	1141.2705	3700.55	2828.45
862.6354	1143.2176	3689.6	2809.2
862.7803	1145.164	3687.85	2813.6
862.9251	1147.1097	3679	2806.7
863.07	1149.0546	3653.1	2777.85
863.2148	1150.9989	3634.75	2759.45
863.3597	1152.9424	3605.3	2732.9
863.5045	1154.8852	3593.95	2723.6
863.6493	1156.8272	3590	2716.8
863.7942	1158.7686	3586.2	2705.45
863.939	1160.7092	3562.4	2690
864.0838	1162.6491	3557.55	2681.7
864.2286	1164.5883	3553.3	2679.45
864.3734	1166.5267	3550.45	2674.1
864.5182	1168.4644	3577.35	2704.4
864.663	1170.4014	3580.5	2702.35
864.8078	1172.3377	3609.5	2736.9
864.9526	1174.2732	3626	2751.7
865.0974	1176.2081	3676.3	2804.2
865.2421	1178.1421	3749.4	2872.65
865.3869	1180.0755	3825.6	2954.05
865.5317	1182.0082	3860.7	2986.95
865.6764	1183.9401	3854.05	2977.55
865.8212	1185.8713	3778.15	2903.75
865.9659	1187.8017	3687.9	2813.75
866.1106	1189.7315	3605.75	2733.5
866.2554	1191.6605	3533.4	2660.15
866.4001	1193.5888	3479.8	2605.1
866.5448	1195.5163	3469.05	2594.25
866.6895	1197.4432	3437.6	2562.85
866.8342	1199.3693	3406.7	2532.2
866.9789	1201.2947	3395.2	2517.25
867.1236	1203.2193	3364.3	2489.55
867.2683	1205.1432	3356.9	2481.65
867.413	1207.0664	3355.4	2479.55
867.5576	1208.9889	3349.8	2469.1
867.7023	1210.9106	3327.65	2453.8
867.847	1212.8316	3321.85	2447.25
867.9916	1214.7519	3324.75	2442.9
868.1363	1216.6715	3315.85	2441.7
868.2809	1218.5903	3320.7	2445.15
868.4255	1220.5084	3313.05	2438.25
868.5701	1222.4257	3323.7	2446.55
868.7148	1224.3424	3323.65	2448.35
868.8594	1226.2583	3325.5	2447.2
869.004	1228.1735	3337.3	2460.8
869.1486	1230.0879	3354.6	2477.3
869.2932	1232.0016	3362.75	2487
869.4377	1233.9146	3388.45	2512.35
869.5823	1235.8269	3380.6	2506.45
869.7269	1237.7384	3391.3	2515.25
869.8715	1239.6492	3379.25	2503.1
870.016	1241.5592	3386	2508.1
870.1606	1243.4686	3391.3	2515.35
870.3051	1245.3772	3436.95	2561.75
870.4496	1247.285	3497.35	2621.65
870.5941	1249.1922	3553.55	2676.65
870.7387	1251.0986	3597.25	2721.65
870.8832	1253.0042	3622.4	2746.25
871.0277	1254.9092	3673.3	2798.85
871.1722	1256.8134	3720.7	2844.4
871.3167	1258.7169	3784.05	2908.15
871.4611	1260.6196	3810	2934.1
871.6056	1262.5216	3825.75	2947.6
871.7501	1264.4229	3808.8	2931.95
871.8945	1266.3234	3784.45	2907.15
872.039	1268.2232	3750.15	2870.85
872.1834	1270.1223	3701.15	2823.55
872.3278	1272.0207	3655.95	2778.3
872.4723	1273.9183	3640.9	2756.8
872.6167	1275.8151	3638.95	2762.15
872.7611	1277.7113	3656.2	2778.3
872.9055	1279.6067	3710.65	2836.35
873.0499	1281.5014	3802.6	2923
873.1943	1283.3953	3916.25	3037.6
873.3386	1285.2885	4045.9	3169
873.483	1287.181	4134.7	3258
873.6274	1289.0727	4182.85	3307.5
873.7717	1290.9637	4139.4	3261.6
873.9161	1292.854	4089.35	3211.3
874.0604	1294.7435	3983.5	3105.8
874.2047	1296.6323	3918.95	3041.6
874.349	1298.5204	3834.8	2953.15
874.4933	1300.4077	3771.05	2893.4
874.6376	1302.2943	3733.9	2855.9
874.7819	1304.1802	3704.85	2827.8
874.9262	1306.0653	3662.2	2782.25
875.0705	1307.9497	3640.1	2760.35
875.2147	1309.8333	3623.05	2746.45
875.359	1311.7162	3584.5	2706.5
875.5032	1313.5984	3573.15	2692.9
875.6475	1315.4798	3557.4	2667.8
875.7917	1317.3605	3553.7	2669.4
875.9359	1319.2405	3536.05	2654.6
876.0801	1321.1197	3516.9	2635.05
876.2243	1322.9982	3499.65	2615.75
876.3685	1324.876	3447.05	2570.85
876.5127	1326.753	3379.05	2499.75
876.6569	1328.6293	3302.9	2420.85
876.801	1330.5048	3246.05	2364.45
876.9452	1332.3796	3181.3	2303.65
877.0893	1334.2537	3166.8	2264.6
877.2335	1336.127	3106.8	2228.2
877.3776	1337.9996	3083.75	2204.7
877.5217	1339.8714	3072.05	2193.4
877.6658	1341.7426	3083.4	2159.9
877.8099	1343.6129	3031.2	2153.85
877.954	1345.4826	3017.1	2139.05
878.0981	1347.3515	3007.7	2125.75
878.2422	1349.2196	2997.25	2119.65
878.3862	1351.087	2978.05	2099.9
878.5303	1352.9537	2979.3	2100.8
878.6743	1354.8197	2964.35	2084.8
878.8184	1356.6849	2974.6	2095.15
878.9624	1358.5493	2986.5	2107.4
879.1064	1360.4131	2999.85	2124
879.2504	1362.276	3006.65	2128.2
879.3944	1364.1383	3033.3	2156.55
879.5384	1365.9998	3043.4	2158.4
879.6823	1367.8606	3031.75	2154.45
879.8263	1369.7206	3026.1	2147.6
879.9702	1371.5799	3013.55	2133.05
880.1142	1373.4384	2986.6	2105.2
880.2581	1375.2962	2981.95	2102.1
880.402	1377.1533	2934.95	2056.2
880.5459	1379.0096	2885.75	2004.75
880.6898	1380.8652	2875.4	1996.85
880.8337	1382.7201	2839.2	1959.85
880.9776	1384.5742	2808.45	1930.75
881.1215	1386.4275	2793	1911.65
881.2653	1388.2802	2765.95	1887.45
881.4092	1390.132	2735.7	1857.95
881.553	1391.9832	2736.3	1855.4
881.6968	1393.8336	2721.1	1842.95
881.8406	1395.6832	2707.85	1827.85
881.9844	1397.5322	2699.05	1819.6
882.1282	1399.3803	2691.85	1806.75
882.272	1401.2278	2673.05	1793.75
882.4158	1403.0745	2665.5	1785.15
882.5595	1404.9204	2646.75	1766.3
882.7033	1406.7656	2638.9	1757.35
882.847	1408.6101	2638.05	1757.75
882.9908	1410.4538	2625.8	1745.4
883.1345	1412.2968	2622.05	1744.05
883.2782	1414.139	2612.2	1733.55
883.4219	1415.9805	2614.95	1733.4
883.5656	1417.8213	2620.05	1719.45
883.7092	1419.6613	2625.3	1746.65
883.8529	1421.5006	2632.25	1751.15
883.9965	1423.3391	2665.65	1785.1
884.1402	1425.1769	2676.7	1793.45
884.2838	1427.0139	2729.9	1849.3
884.4274	1428.8502	2779.05	1898.65
884.571	1430.6858	2825.3	1946.4
884.7146	1432.5206	2842.45	1962.15
884.8582	1434.3547	2834.65	1954.35
885.0018	1436.188	2817.4	1937.85
885.1453	1438.0206	2796.7	1917.45
885.2889	1439.8524	2790.45	1909.85
885.4324	1441.6835	2785.65	1904.5
885.5759	1443.5139	2787.5	1902.45
885.7194	1445.3435	2781.5	1901.8
885.8629	1447.1724	2777.2	1897.55
886.0064	1449.0005	2772.9	1890.8
886.1499	1450.8279	2760.5	1877.9
886.2933	1452.6545	2747.1	1867.45
886.4368	1454.4804	2752.5	1873.15
886.5802	1456.3056	2746.75	1860.1
886.7237	1458.13	2730.7	1849.85
886.8671	1459.9536	2703.9	1822.35
887.0105	1461.7766	2674.95	1795.2
887.1539	1463.5987	2636.65	1752.85
887.2972	1465.4202	2622.5	1744.35
887.4406	1467.2409	2589.45	1708.4
887.584	1469.0608	2548.4	1667.8
887.7273	1470.88	2537.35	1657.05
887.8706	1472.6984	2510.8	1630.8
888.0139	1474.5161	2479.75	1595.55
888.1572	1476.3331	2457.05	1578.1
888.3005	1478.1493	2461.05	1580.05
888.4438	1479.9648	2464.9	1583.85
888.5871	1481.7795	2452.75	1571.15
888.7303	1483.5935	2448.15	1569.5
888.8736	1485.4067	2449.7	1570.2
889.0168	1487.2192	2448.65	1567.9
889.16	1489.031	2436.95	1551.95
889.3032	1490.842	2436	1557
889.4464	1492.6522	2433.35	1554.25
889.5896	1494.4618	2416.9	1535.55
889.7327	1496.2705	2424.2	1544.65
889.8759	1498.0785	2412.8	1531.15
890.019	1499.8858	2407.7	1526.65
890.1622	1501.6924	2379.45	1499.05
890.3053	1503.4981	2380.65	1499.7
890.4484	1505.3032	2379.7	1498.45
890.5914	1507.1075	2371.7	1490.3
890.7345	1508.911	2360.9	1479.2
890.8776	1510.7138	2355.9	1474.6
891.0206	1512.5159	2339.7	1458.55
891.1637	1514.3172	2333.85	1452.2
891.3067	1516.1178	2318.95	1438.95
891.4497	1517.9176	2320.3	1434.85
891.5927	1519.7166	2306.5	1426.45
891.7357	1521.515	2295.95	1409.15
891.8786	1523.3126	2282.1	1400.2
892.0216	1525.1094	2286.95	1404.15
892.1645	1526.9055	2266.7	1389.5
892.3074	1528.7008	2255.35	1375
892.4503	1530.4954	2245.3	1362.95
892.5932	1532.2893	2249.7	1368.75
892.7361	1534.0824	2244.8	1357.5
892.879	1535.8747	2229.9	1348.7
893.0218	1537.6663	2226.6	1346.1
893.1647	1539.4572	2222.65	1340.3
893.3075	1541.2473	2225.95	1344.15
893.4503	1543.0367	2214.2	1335.85
893.5931	1544.8253	2207.4	1321.65
893.7359	1546.6132	2211.15	1327.55
893.8787	1548.4003	2209.8	1318.3
894.0214	1550.1867	2223.65	1333
894.1642	1551.9723	2207.65	1321.5
894.3069	1553.7572	2210.5	1326.9
894.4496	1555.5414	2228.15	1346.55
894.5923	1557.3247	2234.25	1351.25
894.735	1559.1074	2243.9	1363.75
894.8777	1560.8893	2259.05	1381.15
895.0204	1562.6705	2287.95	1407
895.163	1564.4509	2313.8	1432.6
895.3056	1566.2305	2308.85	1429.7
895.4482	1568.0094	2314.5	1433.75
895.5908	1569.7876	2301.4	1422.45
895.7334	1571.565	2282.95	1401.3
895.876	1573.3417	2292.75	1411.1
896.0186	1575.1176	2289.5	1408.7
896.1611	1576.8928	2307.55	1425
896.3036	1578.6672	2319.15	1439.1
896.4461	1580.4409	2324.85	1445.5
896.5886	1582.2138	2341.1	1456.7
896.7311	1583.986	2359	1479.15
896.8736	1585.7575	2387.15	1507.4
897.0161	1587.5282	2408.15	1528.65
897.1585	1589.2981	2424.15	1544.1
897.3009	1591.0673	2435.25	1553.05
897.4433	1592.8358	2432.85	1553.1
897.5857	1594.6035	2430.95	1545.4
897.7281	1596.3704	2419.3	1537.8
897.8705	1598.1366	2391.25	1508.45
898.0128	1599.9021	2364.55	1483.95
898.1551	1601.6668	2359.25	1476.05
898.2975	1603.4308	2343.85	1463.4
898.4398	1605.194	2338.5	1452.7
898.5821	1606.9564	2347.75	1466.75
898.7243	1608.7182	2389.45	1503.25
898.8666	1610.4791	2429.2	1548.5
899.0088	1612.2394	2501.85	1621.6
899.1511	1613.9988	2578.6	1699.15
899.2933	1615.7576	2628.85	1748.9
899.4355	1617.5156	2665.3	1778
899.5776	1619.2728	2643.6	1763.35
899.7198	1621.0293	2572.2	1693
899.862	1622.785	2484.35	1602.25
900.0041	1624.54	2394.75	1513.05
900.1462	1626.2942	2310.3	1425.7
900.2883	1628.0477	2224.5	1342.3
900.4304	1629.8005	2152.95	1268.55
900.5725	1631.5525	2097.9	1216.85
900.7145	1633.3037	2063.1	1181.35
900.8566	1635.0542	2031.55	1148.4
900.9986	1636.804	2007.95	1126
901.1406	1638.553	2067.25	1091.3
901.2826	1640.3013	1970.65	1091.4
901.4245	1642.0488	1944	1062.25
901.5665	1643.7955	1926.45	1045.7
901.7085	1645.5416	1915.1	1032.85
901.8504	1647.2868	1904.45	1024.3
901.9923	1649.0313	1898.75	1018.8
902.1342	1650.7751	1895.2	1013.25
902.2761	1652.5181	1887.5	1004.7
902.4179	1654.2604	1879	998.1
902.5598	1656.0019	1875.65	994.45
902.7016	1657.7427	1880.85	997.35
902.8434	1659.4828	1901.2	1020.3
902.9852	1661.222	1919.25	1036.75
903.127	1662.9606	1935.1	1055.55
903.2687	1664.6984	1957.05	1075.8
903.4105	1666.4354	1973.15	1091.4
903.5522	1668.1717	1953.2	1071.5
903.6939	1669.9072	1916.05	1034
903.8356	1671.642	1879.4	996.35
903.9773	1673.3761	1841.3	961.8
904.119	1675.1094	1828.6	945.05
904.2606	1676.8419	1805.35	925.1
904.4022	1678.5737	1791.6	909.05
904.5439	1680.3048	1772.9	890.75
904.6855	1682.0351	1755.7	876.1
904.827	1683.7646	1750.85	866.05
904.9686	1685.4934	1737.35	858.1
905.1101	1687.2215	1725.75	840.15
905.2517	1688.9488	1732.55	851.3
905.3932	1690.6754	1724.2	844.25
905.5347	1692.4012	1716.5	834.5
905.6761	1694.1263	1706.4	826.9
905.8176	1695.8506	1711.7	828.75
905.9591	1697.5742	1711.2	830
906.1005	1699.297	1700.7	818.75
906.2419	1701.0191	1698.5	815.9
906.3833	1702.7404	1684.5	805.05
906.5246	1704.461	1689.1	805.1
906.666	1706.1808	1680.45	799.1
906.8073	1707.8999	1662.65	779.55
906.9487	1709.6182	1674.25	792
907.09	1711.3358	1670.1	786.7
907.2313	1713.0527	1656.55	778.5
907.3725	1714.7688	1665.8	779.65
907.5138	1716.4841	1665.35	780.65
907.655	1718.1987	1653.9	768.6
907.7962	1719.9126	1650.6	771.4
907.9374	1721.6257	1638.55	754.3
908.0786	1723.338	1640.75	758.2
908.2198	1725.0496	1638.1	756.75
908.3609	1726.7605	1644.6	761.7
908.502	1728.4706	1637.3	755.95
908.6431	1730.18	1631.95	747.85
908.7842	1731.8886	1632.25	749.45
908.9253	1733.5964	1628.75	741.25
909.0664	1735.3036	1631.95	749.3
909.2074	1737.0099	1631.95	751.8
909.3484	1738.7156	1619	739.4
909.4894	1740.4204	1620.5	734.75
909.6304	1742.1246	1623.4	739.25
909.7714	1743.8279	1620.15	738.4
909.9123	1745.5306	1619.2	735.8
910.0532	1747.2325	1615.35	735
910.1941	1748.9336	1608.4	726.8
910.335	1750.634	1607.15	725.15
910.4759	1752.3336	1609.3	727.75
910.6168	1754.0325	1609.4	730.1
910.7576	1755.7307	1601.95	723.9
910.8984	1757.4281	1608.3	726.35
911.0392	1759.1247	1613.7	724.45
911.18	1760.8206	1601.75	714.65
911.3208	1762.5158	1601.45	715.85
911.4615	1764.2102	1594.05	713.1
911.6022	1765.9039	1592.9	712.6
911.7429	1767.5968	1592.55	712.45
911.8836	1769.289	1594.95	713.5
912.0243	1770.9804	1591.2	709.35
912.1649	1772.6711	1592.1	712.1
912.3056	1774.361	1591.2	709.05
912.4462	1776.0502	1578.8	695.9
912.5868	1777.7386	1583.7	697.55
912.7274	1779.4263	1579.2	695.4
912.8679	1781.1132	1584.05	701.6
913.0084	1782.7994	1573.95	688.85
913.149	1784.4849	1575.15	694.7
913.2895	1786.1696	1576.25	686.55
913.4299	1787.8535	1568.3	687.15
913.5704	1789.5367	1570.7	689.6
913.7108	1791.2192	1562	680.65
913.8513	1792.9009	1586.4	676.45
913.9917	1794.5818	1560.7	677.4
914.132	1796.2621	1556.15	675.15
914.2724	1797.9415	1549.5	667.35
914.4128	1799.6202	1555.5	673.25
914.5531	1801.2982	1555.85	674.5
914.6934	1802.9755	1558.8	676.8
914.8337	1804.6519	1547.5	665.4
914.9739	1806.3277	1542.45	661.1
915.1142	1808.0027	1538.55	656.9
915.2544	1809.6769	1544.2	664.25
915.3946	1811.3504	1532.75	651
915.5348	1813.0231	1535.15	651.7
915.675	1814.6951	1534.55	653.45
915.8151	1816.3664	1534.55	649.15
915.9553	1818.0369	1529.85	647.9
916.0954	1819.7067	1531	650.3
916.2355	1821.3757	1524.95	641.5
916.3755	1823.044	1525.2	643.7
916.5156	1824.7115	1523.9	641.05
916.6556	1826.3783	1524.5	644.45
916.7956	1828.0443	1520.6	639.95
916.9356	1829.7096	1521	638.65
917.0756	1831.3741	1518.2	633.65
917.2155	1833.0379	1519.35	636.45
917.3555	1834.701	1513.9	627.3
917.4954	1836.3633	1508.45	626.1
917.6353	1838.0248	1515.65	631.5
917.7751	1839.6856	1510.95	631
917.915	1841.3457	1499.35	618.35
918.0548	1843.005	1512.05	629.8
918.1946	1844.6636	1511.3	630.35
918.3344	1846.3214	1505.85	623.45
918.4742	1847.9785	1499.9	619.05
918.6139	1849.6349	1501.1	617.25
918.7537	1851.2904	1505.2	612.85
918.8934	1852.9453	1495.25	613.6
919.0331	1854.5994	1492.4	608.95
919.1727	1856.2528	1486.8	600.1
919.3124	1857.9054	1487.15	604.2
919.452	1859.5572	1487.1	605.6
919.5916	1861.2083	1491.75	608.1
919.7312	1862.8587	1483.55	602.5
919.8708	1864.5084	1485.65	602.6
920.0103	1866.1572	1483.4	605.1
920.1498	1867.8054	1473.5	589.5
920.2893	1869.4528	1478.45	598.6
920.4288	1871.0994	1484.05	602
920.5683	1872.7453	1475.05	592.9
920.7077	1874.3905	1477.8	589.55
920.8471	1876.0349	1470.2	588.6
920.9865	1877.6786	1471.25	587.9
921.1259	1879.3215	1465.95	584.85
921.2653	1880.9637	1465	582.05
921.4046	1882.6051	1474.8	592.7
921.5439	1884.2458	1459.45	574.3
921.6832	1885.8858	1466.35	582.7
921.8225	1887.525	1455.55	570.9
921.9617	1889.1634	1450.9	569.5
922.101	1890.8011	1457.6	575.75
922.2402	1892.4381	1455.55	573.65
922.3794	1894.0743	1455.8	574.95
922.5185	1895.7098	1451.25	567.95
922.6577	1897.3446	1457.8	575.05
922.7968	1898.9786	1451.95	565.55
922.9359	1900.6118	1441.55	559.25
923.075	1902.2443	1448	566.25
923.214	1903.8761	1442.95	561.7
923.3531	1905.5071	1444.45	560.35
923.4921	1907.1374	1441.15	559.95
923.6311	1908.7669	1440.3	556
923.77	1910.3957	1439.9	557.7
923.909	1912.0237	1433.7	550.5
924.0479	1913.651	1434.85	551.3
924.1868	1915.2776	1434.95	553.6
924.3257	1916.9034	1430.85	548.35
924.4646	1918.5285	1427.3	548.7
924.6034	1920.1528	1430.95	548.45
924.7422	1921.7764	1422.9	540.8
924.881	1923.3992	1421.65	540
925.0198	1925.0213	1415.45	532.1
925.1586	1926.6427	1416.95	536.35
925.2973	1928.2633	1481.35	528.65
925.436	1929.8832	1412.4	527.85
925.5747	1931.5023	1411.85	529.5
925.7134	1933.1207	1415.7	533.05
925.852	1934.7383	1410.5	527.35
925.9906	1936.3552	1412.75	530.75
926.1292	1937.9714	1410.4	528
926.2678	1939.5868	1408.8	524.65
926.4064	1941.2015	1406.25	523.4
926.5449	1942.8154	1402.45	521.2
926.6834	1944.4286	1402.9	520.25
926.8219	1946.041	1421.65	513.95
926.9604	1947.6528	1401.8	514.55
927.0988	1949.2637	1394.65	512
927.2372	1950.8739	1395	511.65
927.3756	1952.4834	1398.3	516.65
927.514	1954.0921	1393.8	509.6
927.6523	1955.7001	1386.95	501.95
927.7907	1957.3074	1394.55	511.15
927.929	1958.9139	1386	504.35
928.0673	1960.5197	1379.3	497.45
928.2055	1962.1247	1382.85	499.55
928.3438	1963.729	1383.85	504.65
928.482	1965.3325	1408.25	503.85
928.6202	1966.9353	1382.65	502.05
928.7584	1968.5374	1378.7	496.25
928.8965	1970.1387	1380.15	499.75
929.0346	1971.7393	1378.2	497.35
929.1727	1973.3392	1366.25	484.95
929.3108	1974.9383	1369.1	488
929.4489	1976.5366	1370.95	489.4
929.5869	1978.1342	1369.95	487
929.7249	1979.7311	1365.7	480.95
929.8629	1981.3273	1361.7	479.95
930.0009	1982.9227	1362.8	479.55
930.1388	1984.5173	1360.7	479.9
930.2767	1986.1112	1363.95	480.9
930.4146	1987.7044	1363.05	481.45
930.5525	1989.2968	1362.6	478.05
930.6904	1990.8885	1357.75	472.15
930.8282	1992.4795	1362.75	480.25
930.966	1994.0697	1358.45	476.2
931.1038	1995.6592	1353.2	470.5
931.2415	1997.2479	1352	471.55
931.3793	1998.8359	1354.9	472.1
931.517	2000.4232	1350.25	469.65
931.6547	2002.0097	1347.85	466.25
931.7923	2003.5955	1350.15	470.35
931.93	2005.1805	1351.15	468.3
932.0676	2006.7648	1345.6	463.9
932.2052	2008.3484	1348.55	466.25
932.3427	2009.9312	1345.65	461.45
932.4803	2011.5133	1344	461.9
932.6178	2013.0946	1343.25	460.4
932.7553	2014.6752	1351.55	469.2
932.8928	2016.2551	1347.2	466.5
933.0302	2017.8342	1337.65	456
933.1676	2019.4126	1337.05	455.95
933.305	2020.9902	1340.6	460.5
933.4424	2022.5672	1337.55	451.8
933.5798	2024.1433	1341.4	453.85
933.7171	2025.7188	1339.1	458.2
933.8544	2027.2935	1336.65	453.6
933.9917	2028.8674	1337.55	455.65
934.129	2030.4406	1333.3	451.65
934.2662	2032.0131	1330.35	450.05
934.4034	2033.5849	1330	443.1
934.5406	2035.1559	1330.8	447.85
934.6778	2036.7261	1331.75	452
934.8149	2038.2957	1328.35	445.7
934.952	2039.8645	1325.35	445.3
935.0891	2041.4325	1335.25	449.55
935.2262	2042.9998	1329.05	447.15
935.3632	2044.5664	1330.25	445.75
935.5002	2046.1323	1327.75	444.1
935.6372	2047.6974	1325	443.2
935.7742	2049.2617	1328.45	446
935.9111	2050.8254	1328.15	441.9
936.048	2052.3883	1323.45	439.45
936.1849	2053.9504	1321	438.2
936.3218	2055.5118	1321.9	439.9
936.4586	2057.0725	1328.3	443.8
936.5955	2058.6325	1320.25	437.05
936.7323	2060.1917	1317.4	435.8
936.869	2061.7502	1320.55	435.55
937.0058	2063.3079	1317.8	435.9
937.1425	2064.8649	1321.1	437.85
937.2792	2066.4212	1315.45	432.1
937.4159	2067.9767	1313.1	431.6
937.5525	2069.5315	1316.65	437.15
937.6891	2071.0856	1311.6	429.05
937.8257	2072.6389	1314.2	430.9
937.9623	2074.1915	1308.05	426.35
938.0989	2075.7433	1311.05	428.9
938.2354	2077.2945	1309.3	427.45
938.3719	2078.8448	1307.55	424.75
938.5084	2080.3945	1304.65	423.05
938.6448	2081.9434	1305.95	424
938.7812	2083.4916	1309.15	427.55
938.9176	2085.039	1300.8	417.65
939.054	2086.5857	1313.25	429.05
939.1903	2088.1317	1306.95	425.1
939.3267	2089.677	1303.7	419.9
939.463	2091.2215	1304.9	424.35
939.5992	2092.7652	1301.9	418.85
939.7355	2094.3083	1307.3	423.95
939.8717	2095.8506	1303	422.25
940.0079	2097.3921	1300.95	420.6
940.1441	2098.933	1302.75	422
940.2802	2100.4731	1304.95	424.35
940.4163	2102.0124	1307.9	419.75
940.5524	2103.5511	1296.35	415.4
940.6885	2105.089	1303.5	421.4
940.8245	2106.6261	1297.6	415.5
940.9606	2108.1626	1298.85	415.65
941.0965	2109.6983	1330.1	418.15
941.2325	2111.2332	1295.9	412.25
941.3684	2112.7675	1297.95	415.1
941.5044	2114.301	1293.6	409.9
941.6403	2115.8337	1296.05	413.8
941.7761	2117.3657	1291.4	409.15
941.912	2118.897	1303.8	423.7
942.0478	2120.4276	1294.3	407.65
942.1835	2121.9575	1294.95	410.1
942.3193	2123.4866	1309.95	414.9
942.455	2125.0149	1299.4	414.65
942.5907	2126.5426	1286.65	405.1
942.7264	2128.0695	1293.7	406.95
942.8621	2129.5956	1281	401.6
942.9977	2131.1211	1292.9	407
943.1333	2132.6458	1283.45	401.75
943.2689	2134.1698	1285.55	403.9
943.4044	2135.693	1286.35	401.7
943.54	2137.2155	1290.8	407
943.6755	2138.7373	1287	404.75
943.8109	2140.2584	1284.4	402.75
943.9464	2141.7787	1289.35	403.75
944.0818	2143.2983	1281.1	401.55
944.2172	2144.8171	1282.1	400.85
944.3526	2146.3353	1279.7	393.7
944.4879	2147.8527	1278.2	395.9
944.6232	2149.3693	1280.95	398.55
944.7585	2150.8853	1278.1	396.2
944.8938	2152.4005	1280.05	396.3
945.029	2153.9149	1274.45	393.2
945.1642	2155.4287	1373	388.05
945.2994	2156.9417	1274.45	390.65
945.4346	2158.454	1272.5	388.55
945.5697	2159.9655	1277.95	393.5
945.7048	2161.4764	1275.2	392.25
945.8399	2162.9865	1275.15	393.65
945.9749	2164.4958	1278.35	396.9
946.1099	2166.0045	1271.35	384.8
946.2449	2167.5124	1265.3	383
946.3799	2169.0195	1268.15	387.5
946.5148	2170.526	1266.9	384.6
946.6498	2172.0317	1268.95	387.85
946.7846	2173.5367	1263.85	380.25
946.9195	2175.0409	1264.95	382.4
947.0543	2176.5445	1266.05	384.8
947.1891	2178.0473	1263.1	378.8
947.3239	2179.5494	1266	380.75
947.4587	2181.0507	1262.2	380.55
947.5934	2182.5513	1261.95	379.05
947.7281	2184.0512	1259.4	378.45
947.8628	2185.5504	1258.25	375.9
947.9974	2187.0488	1257.75	376
948.132	2188.5465	1254.25	373.1
948.2666	2190.0435	1256.75	372.9
948.4012	2191.5397	1256.2	374.1
948.5357	2193.0353	1254.55	374.15
948.6702	2194.5301	1254.05	372.65
948.8047	2196.0241	1251.2	369.1
948.9392	2197.5175	1251.9	370.25
949.0736	2199.0101	1256.65	371.15
949.208	2200.502	1247.45	367.05
949.3424	2201.9931	1248.65	367.15
949.4767	2203.4835	1246.3	361.7
949.611	2204.9733	1258.65	357.5
949.7453	2206.4622	1241.25	359.15
949.8796	2207.9505	1241.2	356.9
950.0138	2209.438	1236.85	354.3
950.148	2210.9248	1235.9	352
950.2822	2212.4109	1240.35	359.75
950.4164	2213.8962	1235.3	350.2
950.5505	2215.3809	1232.9	350
950.6846	2216.8648	1234	350.65
950.8186	2218.3479	1235.5	350.85
950.9527	2219.8304	1238.15	353.7
951.0867	2221.3121	1234.85	351.65
951.2207	2222.7931	1227.05	346.45
951.3546	2224.2733	1230.65	347.95
951.4886	2225.7529	1227.35	345.15
951.6225	2227.2317	1228.95	343.1
951.7563	2228.7098	1223.5	342.3
951.8902	2230.1872	1225.1	344.65
952.024	2231.6638	1230.4	347.65
952.1578	2233.1397	1226.15	340.2
952.2916	2234.6149	1223.8	343.15
952.4253	2236.0894	1227.4	344
952.559	2237.5632	1218.45	333
952.6927	2239.0362	1225.75	344.95
952.8263	2240.5085	1220.9	337.85
952.9599	2241.9801	1219.4	337.85
953.0935	2243.4509	1215.15	333.75
953.2271	2244.921	1216.85	335.2
953.3606	2246.3904	1218.8	333.2
953.4941	2247.8591	1212.9	331.3
953.6276	2249.3271	1211.65	330.4
953.7611	2250.7943	1215.1	332.8
953.8945	2252.2608	1207.65	327.3
954.0279	2253.7266	1208.55	325.05
954.1612	2255.1917	1210.25	325.75
954.2946	2256.656	1205.9	323.2
954.4279	2258.1197	1208	325.35
954.5612	2259.5826	1210.45	328.1
954.6944	2261.0447	1211.4	327.35
954.8276	2262.5062	1206.45	323.45
954.9608	2263.9669	1203.9	318.55
955.094	2265.4269	1205.65	323.3
955.2271	2266.8862	1197.3	315.75
955.3602	2268.3448	1196.6	314.55
955.4933	2269.8026	1199.1	317.75
955.6264	2271.2598	1197.15	314.35
955.7594	2272.7162	1196.95	316.25
955.8924	2274.1719	1198.65	317.2
956.0253	2275.6268	1197.55	315.55
956.1583	2277.0811	1199.85	317.7
956.2912	2278.5346	1188.75	308.65
956.4241	2279.9874	1188.95	307.25
956.5569	2281.4395	1194.15	311.6
956.6897	2282.8908	1203.15	315.9
956.8225	2284.3414	1194.05	310.8
956.9553	2285.7914	1184.85	303.2
957.088	2287.2406	1189	305.15
957.2207	2288.689	1191.65	310.2
957.3534	2290.1368	1193.8	309.45
957.486	2291.5838	1182.95	299.3
957.6186	2293.0302	1188.6	304.3
957.7512	2294.4758	1184.9	301.6
957.8838	2295.9206	1189.9	306.3
958.0163	2297.3648	1185.3	303.9
958.1488	2298.8082	1184.65	301.85
958.2813	2300.251	1188.05	307.75
958.4137	2301.693	1183.4	297.1
958.5461	2303.1343	1181.1	297.7
958.6785	2304.5748	1175.75	292.9
958.8108	2306.0147	1182.1	298.45
958.9432	2307.4538	1184.6	300.35
959.0754	2308.8922	1171.2	290.8
959.2077	2310.3299	1178.1	296.75
959.3399	2311.7669	1178.05	295.9
959.4721	2313.2031	1173.85	290.45
959.6043	2314.6387	1170.9	287.5
959.7365	2316.0735	1172.8	288.85
959.8686	2317.5076	1177.25	294.4
960.0006	2318.941	1172.95	290.3
960.1327	2320.3737	1172.5	291.6
960.2647	2321.8056	1173.65	290.7
960.3967	2323.2369	1170.85	288.2
960.5287	2324.6674	1175.35	291.45
960.6606	2326.0972	1170.05	287.45
960.7925	2327.5263	1174.55	288.65
960.9244	2328.9547	1173.4	290.6
961.0562	2330.3823	1170.85	288.05
961.1881	2331.8092	1170.6	285.2
961.3198	2333.2355	1165.8	283.45
961.4516	2334.661	1161.95	279.65
961.5833	2336.0858	1155.7	272.8
961.715	2337.5098	1160.3	277.8
961.8467	2338.9332	1165.35	282.65
961.9783	2340.3558	1165.85	279.3
962.1099	2341.7778	1155.6	272.2
962.2415	2343.199	1159	276.5
962.373	2344.6195	1157.35	273.95
962.5045	2346.0393	1156.5	274.8
962.636	2347.4583	1152.8	269.2
962.7675	2348.8767	1153.05	269.3
962.8989	2350.2943	1158.1	274.8
963.0303	2351.7113	1153.65	271.6
963.1617	2353.1275	1150.5	267.55
963.293	2354.543	1173.3	266.65
963.4243	2355.9578	1150.8	268.6
963.5556	2357.3718	1147.75	265
963.6868	2358.7852	1150.35	265.45
963.818	2360.1978	1146.55	264.3
963.9492	2361.6098	1148.5	267.45
964.0803	2363.021	1150.6	264
964.2114	2364.4315	1141.35	259.9
964.3425	2365.8413	1147.75	260.65
964.4736	2367.2504	1136.7	253
964.6046	2368.6587	1140.15	257.35
964.7356	2370.0664	1142	259.05
964.8666	2371.4733	1140.25	256.6
964.9975	2372.8795	1139.2	256.15
965.1284	2374.285	1135.85	251.25
965.2593	2375.6899	1140	259.2
965.3901	2377.0939	1134.1	251.6
965.5209	2378.4973	1129.45	246.25
965.6517	2379.9	1129.9	246.85
965.7825	2381.3019	1127.95	245.75
965.9132	2382.7032	1135.15	255.4
966.0439	2384.1037	1130.9	250.15
966.1745	2385.5035	1131.3	250.55
966.3051	2386.9027	1131	249.95
966.4357	2388.3011	1127.9	241.4
966.5663	2389.6987	1126.15	244.9
966.6968	2391.0957	1126.45	243.95
966.8273	2392.492	1124.1	242.8
966.9578	2393.8876	1119.45	237.4
967.0882	2395.2824	1122.3	240.95
967.2186	2396.6765	1122.2	242.55
967.349	2398.07	1118.7	236.05
967.4793	2399.4627	1120.2	235.75
967.6097	2400.8547	1115.8	231.9
967.7399	2402.246	1123.4	235.55
967.8702	2403.6366	1113.7	228.65
968.0004	2405.0265	1117.6	234.35
968.1306	2406.4156	1115.9	229.65
968.2607	2407.8041	1120.1	235.5
968.3909	2409.1918	1116.05	229.85
968.521	2410.5789	1109.75	226.3
968.651	2411.9652	1115.35	228.7
968.781	2413.3508	1111.4	228.6
968.911	2414.7358	1107.05	222.3
969.041	2416.12	1107.95	227.05
969.1709	2417.5035	1102.65	221.5
969.3008	2418.8863	1111.4	227.95
969.4307	2420.2684	1103.5	220.75
969.5606	2421.6497	1103.4	221
969.6904	2423.0304	1100.65	219.4
969.8201	2424.4104	1104.05	222.55
969.9499	2425.7896	1099	213.4
970.0796	2427.1682	1105.35	221.95
970.2093	2428.546	1101.45	219.35
970.3389	2429.9232	1104.75	220.4
970.4685	2431.2996	1100.35	217.95
970.5981	2432.6753	1098.95	216.7
970.7277	2434.0503	1099.85	215.4
970.8572	2435.4246	1097.4	216.1
970.9867	2436.7982	1101.3	215.85
971.1161	2438.1711	1096.55	212.65
971.2456	2439.5433	1097.9	213.1
971.375	2440.9148	1097	207.6
971.5043	2442.2856	1091.05	210.4
971.6336	2443.6557	1099.65	218.1
971.7629	2445.025	1090.35	208.45
971.8922	2446.3937	1093.05	211.8
972.0214	2447.7617	1088.55	205.15
972.1506	2449.1289	1093.9	210.35
972.2798	2450.4955	1094	207.35
972.4089	2451.8613	1088.9	206.3
972.538	2453.2265	1090.9	207.95
972.6671	2454.5909	1086.7	202.55
972.7961	2455.9546	1088.9	206.6
972.9251	2457.3177	1084.7	202.8
973.0541	2458.68	1085	202.05
973.1831	2460.0416	1088.05	206.95
973.312	2461.4025	1085.9	201.75
973.4408	2462.7627	1098.85	204.45
973.5697	2464.1222	1082.05	200.45
973.6985	2465.4811	1082.9	199.45
973.8273	2466.8392	1083.05	199.25
973.956	2468.1966	1085.05	197.85
974.0847	2469.5533	1082.6	196.5
974.2134	2470.9093	1080.75	199.3
974.3421	2472.2645	1080.65	197
974.4707	2473.6191	1086.1	203.5
974.5993	2474.973	1078.15	194.2
974.7278	2476.3262	1078.75	196.35
974.8563	2477.6787	1077.2	197.2
974.9848	2479.0305	1076.3	193.4
975.1132	2480.3816	1077.45	194.8
975.2417	2481.7319	1076.15	192.15
975.37	2483.0816	1079.05	194.9
975.4984	2484.4306	1077.35	194.4
975.6267	2485.7789	1074.7	193.5
975.755	2487.1264	1071.45	186.55
975.8833	2488.4733	1068.6	186.5
976.0115	2489.8195	1086.9	185.65
976.1397	2491.165	1073.95	188.45
976.2678	2492.5097	1069.2	184.6
976.3959	2493.8538	1070.35	187.2
976.524	2495.1972	1067.3	183.65
976.6521	2496.5398	1069.85	184.6
976.7801	2497.8818	1069.85	185.65
976.9081	2499.2231	1067.95	185.45
977.036	2500.5637	1069.05	185.45
977.164	2501.9035	1063.4	181
977.2918	2503.2427	1067.1	179.45
977.4197	2504.5812	1062.6	180.9
977.5475	2505.919	1066.95	181.75
977.6753	2507.256	1061.6	179.45
977.8031	2508.5924	1061.8	178.25
977.9308	2509.9281	1062.9	174.9
978.0585	2511.2631	1061.1	179.55
978.1861	2512.5974	1061.2	179.15
978.3137	2513.9309	1063.9	183.45
978.4413	2515.2638	1086.85	176.4
978.5689	2516.596	1057.4	175.9
978.6964	2517.9275	1058.5	175.4
978.8239	2519.2583	1057.95	175.1
978.9513	2520.5884	1056.3	172.05
979.0788	2521.9178	1055.5	172.55
979.2062	2523.2465	1056	175.25
979.3335	2524.5745	1058.2	176.65
979.4608	2525.9018	1054.5	170.05
979.5881	2527.2284	1053.65	171.75
979.7154	2528.5543	1052.35	171.05
979.8426	2529.8796	1054.45	170.8
979.9698	2531.2041	1050.6	167.65
980.0969	2532.5279	1049.05	167.4
980.224	2533.851	1051.2	168.8
980.3511	2535.1735	1048.6	167.75
980.4781	2536.4952	1047	164.1
980.6052	2537.8163	1046.75	163.1
980.7321	2539.1366	1045.3	162.5
980.8591	2540.4562	1048.8	163.2
980.986	2541.7752	1044.45	161.6
981.1129	2543.0935	1047.5	164.85
981.2397	2544.411	1047.4	161.5
981.3665	2545.7279	1044.2	162.6
981.4933	2547.0441	1042.75	161.05
981.62	2548.3596	1052.55	163.8
981.7467	2549.6744	1044.35	162.6
981.8734	2550.9885	1041.55	158.65
982.0001	2552.3019	1043.25	161.2
982.1267	2553.6146	1043.2	161.2
982.2532	2554.9266	1044.05	162.3
982.3798	2556.2379	1042.4	157.4
982.5063	2557.5485	1039.5	159.35
982.6327	2558.8585	1045.05	155.8
982.7592	2560.1677	1042.55	156.7
982.8856	2561.4762	1039.55	157.45
983.0119	2562.7841	1041	155.95
983.1383	2564.0913	1034.05	154.4
983.2646	2565.3977	1034.85	152
983.3908	2566.7035	1034.05	151.7
983.517	2568.0086	1033.55	147.65
983.6432	2569.313	1041.35	157.35
983.7694	2570.6167	1043.3	156
983.8955	2571.9197	1033.35	151.85
984.0216	2573.222	1037.15	150.75
984.1476	2574.5236	1034.2	150.35
984.2737	2575.8246	1043	157.3
984.3996	2577.1248	1039.15	153.9
984.5256	2578.4244	1036.75	155.7
984.6515	2579.7232	1033.2	149.65
984.7774	2581.0214	1060.9	148.95
984.9032	2582.3189	1029.95	148.3
985.029	2583.6157	1048.15	153.25
985.1548	2584.9118	1034	152.7
985.2806	2586.2072	1031.1	147.05
985.4063	2587.5019	1031.25	148
985.5319	2588.7959	1034.3	150.6
985.6576	2590.0893	1034.5	148.45
985.7832	2591.3819	1029.4	149.3
985.9087	2592.6739	1027.7	145
986.0343	2593.9652	1031.7	149.1
986.1597	2595.2557	1028.65	146.55
986.2852	2596.5456	1032.3	148
986.4106	2597.8348	1030.15	147.25
986.536	2599.1234	1032.05	149.6
986.6614	2600.4112	1028.6	144.85
986.7867	2601.6983	1027.75	142.9
986.912	2602.9848	1022.7	139.65
987.0372	2604.2705	1032.2	144.95
987.1624	2605.5556	1026.15	144
987.2876	2606.84	1023	140.4
987.4128	2608.1237	1026.55	143
987.5379	2609.4067	1024.7	140.85
987.6629	2610.689	1035.2	144.1
987.788	2611.9707	1027.1	141.5
987.913	2613.2516	1024.55	136.65
988.0379	2614.5319	1019	138.35
988.1629	2615.8115	1021.2	139.15
988.2878	2617.0903	1021.8	140.35
988.4126	2618.3685	1019.8	136.1
988.5375	2619.6461	1016.9	133.45
988.6622	2620.9229	1017.45	134.75
988.787	2622.199	1015.8	132.15
988.9117	2623.4745	1015.3	131.9
989.0364	2624.7493	1018.5	134.65
989.161	2626.0234	1016.3	132.75
989.2857	2627.2968	1016.15	131.8
989.4102	2628.5695	1016.25	133.15
989.5348	2629.8415	1011.3	128.6
989.6593	2631.1128	1017.65	134.15
989.7837	2632.3835	1010.15	127.35
989.9082	2633.6535	1009.75	126.55
990.0326	2634.9228	1010.6	128.1
990.1569	2636.1914	1011.6	129.4
990.2812	2637.4593	1008.4	123.3
990.4055	2638.7265	1014.5	129.3
990.5298	2639.9931	1008.3	125.5
990.654	2641.259	1007.15	121.7
990.7782	2642.5242	1010.35	128.3
990.9023	2643.7887	1007.25	125.3
991.0264	2645.0525	1005.85	122.35
991.1505	2646.3156	1022.85	125.85
991.2745	2647.5781	1007.1	125.8
991.3985	2648.8398	1003.5	120.3
991.5225	2650.1009	1030.1	121.9
991.6464	2651.3613	1006.75	123.4
991.7703	2652.6211	1002.05	121.05
991.8942	2653.8801	1001.65	119.25
992.018	2655.1385	1005.2	120.45
992.1418	2656.3961	1007.65	123.95
992.2655	2657.6531	1001.3	119.3
992.3892	2658.9094	1002.2	120.3
992.5129	2660.1651	1000.65	118.95
992.6366	2661.42	1002.3	119.7
992.7602	2662.6743	1004.7	122.45
992.8837	2663.9279	996.9	114.05
993.0073	2665.1808	999.65	115.05
993.1307	2666.433	1002.4	116.75
993.2542	2667.6846	1001	119.4
993.3776	2668.9354	1002.65	116.75
993.501	2670.1856	1001.45	119.1
993.6244	2671.4351	997.55	115.65
993.7477	2672.6839	998.65	116.4
993.8709	2673.9321	996.9	114.45
993.9942	2675.1795	998.1	115.95
994.1174	2676.4263	999	117.5
994.2405	2677.6724	998.5	114.85
994.3637	2678.9179	997.35	113.75
994.4868	2680.1626	994.75	110.65
994.6098	2681.4067	994.7	113.3
994.7328	2682.6501	997.3	113.05
994.8558	2683.8928	1000.75	118.95
994.9788	2685.1348	992.2	109.95
995.1017	2686.3761	990.9	107.3
995.2245	2687.6168	992.35	111.4
995.3474	2688.8568	988.4	104.85
995.4702	2690.0961	991.15	112.05
995.5929	2691.3348	994.05	110.3
995.7156	2692.5727	991.65	109.8
995.8383	2693.81	992.65	110.6
995.961	2695.0466	989.45	107.8
996.0836	2696.2826	989.3	105.6
996.2062	2697.5178	992.7	108.65
996.3287	2698.7524	989.7	106.3
996.4512	2699.9863	990.65	106.05
996.5737	2701.2195	985.8	103
996.6961	2702.452	989	104
996.8185	2703.6839	989.5	106.15
996.9408	2704.9151	987.65	106.7
997.0631	2706.1456	989	105.8
997.1854	2707.3755	989.7	108.6
997.3077	2708.6046	987.5	104.05
997.4299	2709.8331	990.95	108.65
997.552	2711.0609	990.35	105.4
997.6742	2712.2881	991.55	108.05
997.7963	2713.5145	992.6	106.35
997.9183	2714.7403	988	106.15
998.0403	2715.9654	986.4	102.75
998.1623	2717.1899	1001.2	103.45
998.2842	2718.4136	986.95	104.8
998.4062	2719.6367	988	107.3
998.528	2720.8591	999.85	111
998.6498	2722.0809	993.05	111.35
998.7716	2723.3019	994.3	106.35
998.8934	2724.5223	990.95	107.6
999.0151	2725.7421	992.55	107.6
999.1368	2726.9611	988.9	105.35
999.2584	2728.1795	996	110.15
999.38	2729.3972	987.75	104.65
999.5016	2730.6142	991.85	101.2
999.6231	2731.8306	987.2	103.25
999.7446	2733.0462	981.65	95.8
999.8661	2734.2612	989.5	103.6
999.9875	2735.4756	983.7	99.45
1000.1089	2736.6892	982.55	98.85
1000.2302	2737.9022	979.05	98.6
1000.3515	2739.1145	981.6	98.85
1000.4728	2740.3262	986.8	97.55
1000.594	2741.5372	979.15	97
1000.7152	2742.7475	976.55	92.6
1000.8363	2743.9571	976.5	92.95
1000.9575	2745.1661	978.85	92.1
1001.0785	2746.3744	975.75	93.15
1001.1996	2747.582	973.4	90.95
1001.3206	2748.7889	975.85	90.9
1001.4415	2749.9952	975.45	94.3
1001.5625	2751.2008	974.5	92.6
1001.6833	2752.4057	974	88.1
1001.8042	2753.61	969.9	87.25
1001.925	2754.8136	973.5	89.3
1002.0458	2756.0165	970.85	88.75
1002.1665	2757.2188	968.1	83.65
1002.2872	2758.4204	969.65	87.25
1002.4078	2759.6213	972.95	88.95
1002.5285	2760.8215	973.15	86.85
1002.649	2762.0211	971.3	86.85
1002.7696	2763.22	973.4	87.25
1002.8901	2764.4182	971.55	88.1
1003.0106	2765.6158	970.4	87.9
1003.131	2766.8127	969.05	85.8
1003.2514	2768.009	967.8	84.7
1003.3717	2769.2045	968	84.4
1003.492	2770.3994	967	81.3
1003.6123	2771.5936	965.75	82.65
1003.7325	2772.7872	962.5	82.05
1003.8527	2773.9801	967.65	85.45
1003.9729	2775.1723	985.2	87.25
1004.093	2776.3639	962.5	79.8
1004.2131	2777.5548	965.45	81.9
1004.3331	2778.745	968.25	83.3
1004.4531	2779.9346	962.85	79.85
1004.5731	2781.1235	963.3	77.85
1004.693	2782.3117	961.1	79.5
1004.8129	2783.4992	963	79.4
1004.9328	2784.6861	962.6	79.8
1005.0526	2785.8723	965.75	80.9
1005.1723	2787.0579	962.45	77.95
1005.2921	2788.2428	961.65	79.65
1005.4118	2789.427	958.9	76.05
1005.5314	2790.6106	959.3	77.1
1005.651	2791.7935	957.75	74.6
1005.7706	2792.9757	958.65	77.35
1005.8902	2794.1573	961.85	77.65
1006.0097	2795.3382	957.85	75.35
1006.1291	2796.5184	959	77.85
1006.2485	2797.698	961.1	78.15
1006.3679	2798.8769	959.65	76.75
1006.4873	2800.0551	961.25	77.6
1006.6066	2801.2327	965.5	80.95
1006.7258	2802.4096	960.5	78.85
1006.8451	2803.5859	959.85	76.35
1006.9642	2804.7615	960.5	77.25
1007.0834	2805.9364	959.25	76.25
1007.2025	2807.1106	962	79.25
1007.3216	2808.2842	965.1	81.4
1007.4406	2809.4572	962.95	79.5
1007.5596	2810.6294	967.6	84.35
1007.6785	2811.801	959.45	79.5
1007.7975	2812.972	963.45	82.85
1007.9163	2814.1423	964.35	80.5
1008.0352	2815.3119	966.7	82.75
1008.154	2816.4808	968.6	88.15
1008.2727	2817.6491	966.5	82.3
1008.3914	2818.8167	971.75	91.8
1008.5101	2819.9837	982.4	94.75
1008.6288	2821.15	979.1	96.6
1008.7474	2822.3157	985.55	104.95
1008.8659	2823.4807	985.85	102.85
1008.9844	2824.645	994.45	112.25
1009.1029	2825.8086	994.9	111.4
1009.2214	2826.9716	1003.6	121.55
1009.3398	2828.134	1009	128.55
1009.4581	2829.2957	1015.05	130.05
1009.5764	2830.4567	1019.55	138.5
1009.6947	2831.617	1022.75	137.9
1009.813	2832.7767	1022.65	141.1
1009.9312	2833.9358	1022.15	139.7
1010.0493	2835.0941	1026.9	143.6
1010.1675	2836.2519	1021.25	138.75
1010.2855	2837.4089	1018.85	136.15
1010.4036	2838.5653	1012.6	130.55
1010.5216	2839.7211	1013.25	131.35
1010.6396	2840.8761	1008.5	125.65
1010.7575	2842.0306	1007.75	125.9
1010.8754	2843.1843	1009.35	126.7
1010.9932	2844.3374	1012.6	128.05
1011.111	2845.4899	1011.95	128.3
1011.2288	2846.6417	1013.35	133.3
1011.3465	2847.7928	1012.6	130.65
1011.4642	2848.9433	1012.15	129.25
1011.5818	2850.0931	1014.65	132.25
1011.6995	2851.2422	1022.5	138.8
1011.817	2852.3907	1017.4	133.35
1011.9345	2853.5385	1016.05	132.3
1012.052	2854.6857	1024.35	133.5
1012.1695	2855.8323	1017.95	134.55
1012.2869	2856.9781	1017.25	135.15
1012.4042	2858.1233	1024.85	143.75
1012.5216	2859.2679	1022.2	142.15
1012.6389	2860.4118	1026.4	142.35
1012.7561	2861.555	1032.25	145.05
1012.8733	2862.6976	1033.4	151.1
1012.9905	2863.8395	1030.95	150.8
1013.1076	2864.9808	1036.4	154.65
1013.2247	2866.1214	1032.7	151.55
1013.3417	2867.2614	1037.95	154.85
1013.4587	2868.4007	1037.35	154.9
1013.5757	2869.5393	1040.4	157
1013.6926	2870.6773	1040.6	156.2
1013.8095	2871.8146	1043.1	156.75
1013.9263	2872.9513	1041.4	156.1
1014.0431	2874.0874	1043.15	160.25
1014.1599	2875.2227	1044.4	161.75
1014.2766	2876.3574	1044.95	162.45
1014.3933	2877.4915	1043.75	162.7
1014.51	2878.6249	1052.55	170.1
1014.6266	2879.7577	1051.4	169.15
1014.7431	2880.8898	1062.85	169.95
1014.8596	2882.0212	1051.95	169.85
1014.9761	2883.152	1055.35	172.1
1015.0925	2884.2821	1055.55	174.3
1015.2089	2885.4116	1059.1	176.7
1015.3253	2886.5405	1058.3	176.35
1015.4416	2887.6686	1062.05	177.9
1015.5579	2888.7962	1060	179.55
1015.6741	2889.923	1059.25	177.55
1015.7903	2891.0493	1060.05	178.3
1015.9065	2892.1748	1060.6	179
1016.0226	2893.2997	1055.05	172.45
1016.1387	2894.424	1055.75	173.8
1016.2547	2895.5476	1059.7	176.4
1016.3707	2896.6706	1058.5	176
1016.4866	2897.7929	1059.9	177.75
1016.6025	2898.9145	1056.95	175.6
1016.7184	2900.0355	1060.15	176.45
1016.8342	2901.1559	1060	175.9
1016.95	2902.2756	1059.75	177.5
1017.0658	2903.3946	1053.4	172.2
1017.1815	2904.513	1053.9	168.8
1017.2971	2905.6308	1058.7	178.75
1017.4127	2906.7479	1057.4	174.25
1017.5283	2907.8643	1054.6	171.35
1017.6439	2908.9801	1053.5	170.05
1017.7594	2910.0953	1059.05	175.75
1017.8748	2911.2098	1054.85	169.7
1017.9902	2912.3236	1062.6	171.85
1018.1056	2913.4368	1055.85	170.8
1018.2209	2914.5494	1052.95	170.15
1018.3362	2915.6613	1060.3	173.35
1018.4515	2916.7725	1051.35	167.55
1018.5667	2917.8831	1047.2	164.35
1018.6819	2918.9931	1044.25	161.65
1018.797	2920.1024	1044.2	161.1
1018.9121	2921.211	1040.25	157.6
1019.0271	2922.319	1037.4	154.45
1019.1421	2923.4264	1037.2	154.9
1019.2571	2924.5331	1033.35	151.3
1019.372	2925.6391	1039.85	156.5
1019.4869	2926.7445	1033.5	154.25
1019.6017	2927.8493	1037.2	155.5
1019.7165	2928.9534	1037.4	155.95
1019.8313	2930.0569	1041.65	155.1
1019.946	2931.1597	1041.7	159.4
1020.0606	2932.2619	1038.2	158
1020.1753	2933.3634	1039.35	156.9
1020.2899	2934.4643	1046.15	155.85
1020.4044	2935.5645	1048.85	158.9
1020.5189	2936.6641	1046.7	158.3
1020.6334	2937.763	1046.35	164.25
1020.7478	2938.8613	1043.65	162.4
1020.8622	2939.959	1043.25	156.85
1020.9765	2941.056	1034.05	151.65
1021.0908	2942.1523	1034.15	149.6
1021.2051	2943.248	1030.25	148.1
1021.3193	2944.3431	1019.1	137.35
1021.4334	2945.4375	1015.35	133.25
1021.5476	2946.5313	1008.1	127.1
1021.6617	2947.6244	1004.5	120.35
1021.7757	2948.7169	998.2	117.3
1021.8897	2949.8087	996.35	115
1022.0037	2950.8999	991.4	107.85
1022.1176	2951.9904	987	104
1022.2315	2953.0803	982.3	100.05
1022.3453	2954.1696	978.7	96.05
1022.4591	2955.2582	972.4	90.5
1022.5728	2956.3462	974.65	91.45
1022.6865	2957.4335	971.2	87.2
1022.8002	2958.5202	973.6	88.55
1022.9138	2959.6062	969.8	84.8
1023.0274	2960.6916	972.8	90.65
1023.141	2961.7764	974	91.05
1023.2545	2962.8605	973.75	89.55
1023.3679	2963.9439	970.7	89.2
1023.4813	2965.0267	971.05	87.4
1023.5947	2966.1089	993.65	90.1
1023.708	2967.1905	969.55	88.4
1023.8213	2968.2714	969.2	88.6
1023.9346	2969.3516	970.9	89.2
1024.0478	2970.4312	976.45	87.1
1024.1609	2971.5102	965.65	82.6
1024.274	2972.5885	967.3	84.35
1024.3871	2973.6662	971.6	84.05
1024.5002	2974.7432	964.5	82.4
1024.6132	2975.8196	966	82.25
1024.7261	2976.8954	965.2	83.35
1024.839	2977.9705	967.2	85.3
1024.9519	2979.045	964.8	83.75
1025.0647	2980.1188	963.25	81.8
1025.1775	2981.192	963.95	82.45
1025.2902	2982.2645	963.45	80
1025.4029	2983.3364	964.9	81.35
1025.5156	2984.4077	962.25	80.8
1025.6282	2985.4783	967.4	79.6
1025.7407	2986.5483	957.6	76.25
1025.8532	2987.6177	956.75	75.3
1025.9657	2988.6864	958.65	75.65
1026.0782	2989.7545	954.75	70.65
1026.1906	2990.8219	948.1	66.5
1026.3029	2991.8887	953.65	68.85
1026.4152	2992.9548	951.35	69.55
1026.5275	2994.0204	944.05	62.4
1026.6397	2995.0852	941.2	61.6
1026.7519	2996.1495	940.9	57.6
1026.864	2997.2131	940.9	55.95
1026.9761	2998.276	938.3	55.1
1027.0882	2999.3383	937.45	54.6
1027.2002	3000.4	933.9	50.95
1027.3122	3001.4611	933.1	50.3
1027.4241	3002.5215	929.5	46.55
1027.536	3003.5812	929.85	46.75
1027.6478	3004.6404	930.7	49.9
1027.7596	3005.6989	930.3	45.1
1027.8714	3006.7567	927.35	43.5
1027.9831	3007.8139	949.25	47.25
1028.0947	3008.8705	926.35	44.9
1028.2064	3009.9264	940.25	39.2
1028.3179	3010.9818	925.95	43.8
1028.4295	3012.0364	924.05	41.2
1028.541	3013.0905	924.4	42.8
1028.6524	3014.1439	925.3	42.75
1028.7638	3015.1966	924.4	43.2
1028.8752	3016.2487	924.05	42.15
1028.9865	3017.3002	925.85	40.15
1029.0978	3018.3511	921.35	40.3
1029.209	3019.4013	921.9	39.6
1029.3202	3020.4509	922	38.3
1029.4314	3021.4998	920.15	37.75
1029.5425	3022.5481	922.85	40.85
1029.6535	3023.5958	921.85	38.85
1029.7645	3024.6428	925.55	41.3
1029.8755	3025.6892	920	37.7
1029.9864	3026.735	920.9	40.15
1030.0973	3027.7802	921.9	39.25
1030.2082	3028.8247	921.6	40.7
1030.319	3029.8685	919.7	36.75
1030.4297	3030.9118	921.9	38
1030.5404	3031.9544	917.85	34.3
1030.6511	3032.9963	919.5	38.2
1030.7617	3034.0376	919.8	38.45
1030.8723	3035.0783	924.25	37.9
1030.9829	3036.1184	921.8	38.15
1031.0934	3037.1578	916.45	35.75
1031.2038	3038.1966	920.6	35.1
1031.3142	3039.2348	918.05	38.45
1031.4246	3040.2723	927.1	34.5
1031.5349	3041.3092	919.85	38.5
1031.6452	3042.3455	920.25	38.15
1031.7554	3043.3811	920	37.25
1031.8656	3044.4161	920.95	38.1
1031.9758	3045.4505	918.55	37.35
1032.0859	3046.4842	920.05	34.45
1032.1959	3047.5173	919	37.45
1032.3059	3048.5498	920.75	37.7
1032.4159	3049.5816	919.25	37.4
1032.5258	3050.6128	919.45	38.65
1032.6357	3051.6434	920.85	36.65
1032.7455	3052.6734	920.9	37.85
1032.8553	3053.7027	921.5	39.25
1032.9651	3054.7314	919.25	37.4
1033.0748	3055.7594	917.4	36.2
1033.1845	3056.7868	919.25	36.85
1033.2941	3057.8136	921.05	39.5
1033.4037	3058.8398	918.8	35.5
1033.5132	3059.8653	919.05	36.9
1033.6227	3060.8902	920.4	38.4
1033.7321	3061.9145	921.8	37.7
1033.8415	3062.9381	918.9	36.35
1033.9509	3063.9612	935.45	36.35
1034.0602	3064.9835	919.2	36.4
1034.1694	3066.0053	921.45	36.65
1034.2787	3067.0264	919.7	37.85
1034.3878	3068.0469	921.4	37.8
1034.497	3069.0668	922.2	35.65
1034.6061	3070.086	919.25	38.55
1034.7151	3071.1046	922.3	39
1034.8241	3072.1226	918.05	34.35
1034.9331	3073.1399	916.55	34.35
1035.042	3074.1567	916.25	34.8
1035.1508	3075.1727	918.45	35.3
1035.2597	3076.1882	917.5	34.3
1035.3684	3077.203	916.3	33.95
1035.4772	3078.2173	920.05	37.85
1035.5859	3079.2308	918.15	32.6
1035.6945	3080.2438	916.2	31.85
1035.8031	3081.2561	914.3	33.65
1035.9117	3082.2678	912.85	29.6
1036.0202	3083.2789	913.95	30.85
1036.1286	3084.2893	914.25	31.95
1036.2371	3085.2991	911.8	27.8
1036.3454	3086.3083	921.1	34.65
1036.4538	3087.3169	916.85	32.55
1036.562	3088.3248	913.75	30.7
1036.6703	3089.3321	913.7	30.75
1036.7785	3090.3388	912.05	29.75
1036.8866	3091.3449	910.75	29.05
1036.9948	3092.3503	914.2	29.45
1037.1028	3093.3551	910.75	30.1
1037.2108	3094.3593	910.35	30.5
1037.3188	3095.3629	911.05	29.1
1037.4267	3096.3658	912.45	29.1
1037.5346	3097.3681	911.05	29.35
1037.6425	3098.3698	910.3	26.6
1037.7503	3099.3708	913	24.3
1037.858	3100.3713	908.9	25.85
1037.9657	3101.3711	909.3	27.1
1038.0734	3102.3702	1041.05	27.9
1038.181	3103.3688	910.45	26.5
1038.2886	3104.3667	909.95	30.3
1038.3961	3105.364	906.4	25.2
1038.5036	3106.3607	912.45	29.15
1038.611	3107.3568	910.15	27.8
1038.7184	3108.3522	907.15	25.2
1038.8257	3109.347	910.8	27.2
1038.933	3110.3412	910.95	26.05
1039.0403	3111.3348	908.35	26.55
1039.1475	3112.3277	906.9	24.25
1039.2547	3113.32	903.95	21.5
1039.3618	3114.3117	905.55	23.1
1039.4689	3115.3028	905.6	24.05
1039.5759	3116.2932	908.6	25.25
1039.6829	3117.2831	913.25	24.45
1039.7898	3118.2723	904.65	21.7
1039.8967	3119.2608	905.5	24.55
1040.0035	3120.2488	904.85	22.85
1040.1103	3121.2361	906.8	23.4
1040.2171	3122.2229	901.75	20.5
1040.3238	3123.209	905.7	22.2
1040.4305	3124.1944	904.95	24.7
1040.5371	3125.1793	905.75	20.8
1040.6437	3126.1635	901	19.35
1040.7502	3127.1471	903.35	21.05
1040.8567	3128.1301	901.7	20.05
1040.9631	3129.1125	902.7	22.05
1041.0695	3130.0942	902.95	20.95
1041.1759	3131.0753	912.9	23.5
1041.2822	3132.0558	905.4	17.75
1041.3884	3133.0357	903.15	19
1041.4946	3134.015	902.7	18.5
1041.6008	3134.9936	904.8	21.65
1041.7069	3135.9716	920.8	19.7
1041.813	3136.949	901.95	20.8
1041.919	3137.9258	919.95	20.1
1042.025	3138.902	909.25	22.3
1042.1309	3139.8775	903.25	21.6
1042.2368	3140.8524	901.65	19.55
1042.3427	3141.8267	905	21.25
1042.4485	3142.8004	900.85	17.8
1042.5542	3143.7735	907.15	19.7
1042.6599	3144.7459	903.8	20.45
1042.7656	3145.7178	899.25	17.15
1042.8712	3146.689	900.4	18.45
1042.9768	3147.6596	903.5	19.05
1043.0823	3148.6295	900.7	18.55
1043.1878	3149.5989	902.65	20.55
1043.2932	3150.5676	898.35	17.4
1043.3986	3151.5357	901.1	17.6
1043.5039	3152.5032	901.7	19.95
1043.6092	3153.4701	900.05	18.3
1043.7145	3154.4364	902.35	18.1
1043.8197	3155.402	899.65	18.65
1043.9248	3156.367	901.1	17
1044.03	3157.3315	938.15	22.7
1044.135	3158.2952	899.9	18.35
1044.24	3159.2584	900.7	19.05
1044.345	3160.221	900.9	18.55
1044.4499	3161.1829	900.55	18.3
1044.5548	3162.1442	898.45	16.75
1044.6596	3163.105	899.4	14.3
1044.7644	3164.065	898.4	16.95
1044.8692	3165.0245	902.9	15.7
1044.9739	3165.9834	898.65	17.65
1045.0785	3166.9416	898.2	18.05
1045.1831	3167.8993	896.95	12.9
1045.2877	3168.8563	901.05	18.9
1045.3922	3169.8127	899.65	18.05
1045.4966	3170.7684	897.7	16.2
1045.6011	3171.7236	901.2	17.3
1045.7054	3172.6782	899.1	18.35
1045.8098	3173.6321	900.5	18.75
1045.914	3174.5854	905.15	18.1
1046.0183	3175.5381	897.6	12.1
1046.1224	3176.4902	897.35	15.85
1046.2266	3177.4417	896.95	14.15
1046.3307	3178.3926	898.05	15.6
1046.4347	3179.3428	895.35	13.15
1046.5387	3180.2924	896.35	16.65
1046.6427	3181.2415	898.35	16.75
1046.7466	3182.1899	901.3	16.95
1046.8504	3183.1377	899.3	16.45
1046.9542	3184.0848	900.75	15.2
1047.058	3185.0314	897.55	14.25
1047.1617	3185.9773	897.4	16.75
1047.2654	3186.9227	896.1	14.55
1047.369	3187.8674	896.95	14.25
1047.4726	3188.8115	901.85	16.65
1047.5761	3189.755	895.75	13
1047.6796	3190.6979	898.4	18.05
1047.783	3191.6402	895.8	14
1047.8864	3192.5818	897.2	12.65
1047.9898	3193.5229	902.7	14.5
1048.0931	3194.4633	897.9	15.4
1048.1963	3195.4031	896.9	14.4
1048.2995	3196.3423	896.15	13.1
1048.4027	3197.2809	895.4	14.1
1048.5058	3198.2189	897.9	16.4
1048.6089	3199.1563	901.65	12.6
1048.7119	3200.0931	896.55	15.8
1048.8148	3201.0292	894.45	12.9
1048.9178	3201.9648	895.1	13.45
1049.0206	3202.8997	901.15	15.6
1049.1235	3203.834	895.4	11.45
1049.2262	3204.7677	896.4	14.1
1049.329	3205.7008	896.2	11.6
1049.4317	3206.6333	892.6	11.7
1049.5343	3207.5652	896.3	12.05
1049.6369	3208.4964	895.45	14.2
1049.7394	3209.4271	894.45	13.2
1049.8419	3210.3571	894.55	12.8
1049.9444	3211.2865	895.7	13.6
1050.0468	3212.2154	895.05	12.7
1050.1491	3213.1436	897.55	12.25
1050.2514	3214.0712	903.1	14.5
1050.3537	3214.9982	893.9	12.65
1050.4559	3215.9246	894.5	11.45
1050.5581	3216.8503	892.9	13.45
1050.6602	3217.7755	893.35	12.35
1050.7623	3218.7001	893.3	11.6
1050.8643	3219.624	895.95	12.65
1050.9663	3220.5473	895.9	13.95
1051.0682	3221.4701	898.75	13.65
1051.1701	3222.3922	894.9	11.9
1051.2719	3223.3137	895	15.55
1051.3737	3224.2346	894.3	10.05
1051.4754	3225.1549	891.4	10.35
1051.5771	3226.0746	893.9	12.55
1051.6788	3226.9937	894.05	11.7
1051.7804	3227.9121	894.15	13.05
1051.8819	3228.83	892.35	8.8
1051.9834	3229.7473	895.2	12.9
1052.0849	3230.6639	895.65	12.3
1052.1863	3231.5799	893.85	12.1
1052.2876	3232.4954	894.25	11.35
1052.3889	3233.4102	893.45	13.25
1052.4902	3234.3244	894.8	12.35
1052.5914	3235.238	893.35	11.45
1052.6926	3236.151	917.7	11.15
1052.7937	3237.0634	893.1	11.65
1052.8948	3237.9752	893.65	12.45
1052.9958	3238.8864	893.85	11.5
1053.0968	3239.797	893.45	9.85
1053.1977	3240.7069	895.5	13.75
1053.2986	3241.6163	893.35	7.1
1053.3994	3242.5251	891.95	9.9
1053.5002	3243.4332	892.7	12.1
1053.6009	3244.3408	893.55	10.55
1053.7016	3245.2477	890.8	7.8
1053.8022	3246.154	894	10.7
1053.9028	3247.0598	894.75	11.05
1054.0034	3247.9649	892.65	9.25
1054.1039	3248.8694	893.1	10.3
1054.2043	3249.7733	891.7	7.5
1054.3047	3250.6766	893.85	10.2
1054.4051	3251.5793	892.2	9.3
1054.5054	3252.4814	891.7	9.6
1054.6056	3253.3829	891.85	11.1
1054.7058	3254.2838	890.9	6.55
1054.806	3255.1841	893.15	12.85
1054.9061	3256.0838	891.5	8.15
1055.0061	3256.9829	892.1	11.5
1055.1062	3257.8814	894.2	10.1
1055.2061	3258.7792	896.25	11.65
1055.306	3259.6765	890.95	7.85
1055.4059	3260.5731	890.45	8.1
1055.5057	3261.4692	892.5	10
1055.6055	3262.3647	890.75	5.85
1055.7052	3263.2595	890.7	9.9
1055.8049	3264.1538	889.85	7.95
1055.9045	3265.0474	892.65	10.85
1056.0041	3265.9404	889.15	8.2
1056.1036	3266.8329	891.55	10
1056.2031	3267.7247	900.3	7.9
1056.3025	3268.616	891.35	12
1056.4019	3269.5066	890.1	6.5
1056.5013	3270.3966	891.5	9.7
1056.6005	3271.286	889.15	7.3
