Software Version:	3.9.2.0
Unit SN:	10000200
Spectrometer SN:	6960
Date:	3/26/2024 2:42:00 PM
Data Line Index:	25
Spectral Points:	2048
Integration time (ms):	125
Averages:	20
Delay (ms):	30000
Sequence Number:	1
Processing:	dark subtract
Laser Power (mW):	305
Laser Current (mA):	820
Laser Diode Temp (C):	25
Laser Case Temp (C):	27.9
System Temp (C):	28
Spectrometer Temp (C):	25.8
CCD Temp (C):	0.002
Secondary Temp (C):	20.008
Heatsink Temp (C):	23.4
CCDPCB Temp (C):	37.307
SecondaryPCB Temp (C):	34.651

Wavelength	RamanShift	Raw Counts	Dark Subtracted
787.061	30.1047	638.7	228.25
787.2016	32.3739	651.55	241.3
787.3422	34.6426	668.55	258.25
787.4828	36.9109	685.55	272.7
787.6235	39.1787	705.7	289.25
787.7642	41.4461	732.25	310.8
787.9049	43.7131	755	331.25
788.0456	45.9796	778.45	350.3
788.1863	48.2456	804.35	372.1
788.3271	50.5112	830.15	392.1
788.4679	52.7764	853.1	416.3
788.6087	55.0411	892.9	452.15
788.7496	57.3054	923.7	475
788.8904	59.5692	946.4	497.75
789.0313	61.8326	988	535.55
789.1722	64.0955	1023	564.9
789.3132	66.3579	1081.8	618.7
789.4541	68.6199	1136.6	671.95
789.5951	70.8815	1228	760.5
789.7361	73.1426	1439.65	966.7
789.8771	75.4032	1935.4	1457.15
790.0181	77.6634	3208	2724.2
790.1592	79.9231	6369.5	5874.15
790.3003	82.1824	13670.35	13159.3
790.4414	84.4412	30319.85	29775.25
790.5825	86.6995	58055.35	57463.5
790.7237	88.9574	65535	64900.45
790.8648	91.2148	65535	64873.7
791.006	93.4717	65535	64858.4
791.1472	95.7282	65535	64839.5
791.2885	97.9842	65535	64838.2
791.4297	100.2398	65535	64834.15
791.571	102.4949	65535	64829.9
791.7123	104.7495	65535	64830.05
791.8536	107.0036	65535	64828
791.9949	109.2573	65535	64827.15
792.1363	111.5105	65535	64823.05
792.2777	113.7632	65535	64821.8
792.4191	116.0154	65535	64813.65
792.5605	118.2672	65535	64819.35
792.7019	120.5185	65535	64818.3
792.8434	122.7693	65535	64813.35
792.9849	125.0197	65535	64815.3
793.1264	127.2696	65535	64808.9
793.2679	129.519	65535	64806.05
793.4094	131.7679	65535	64803.65
793.551	134.0163	65535	64797.7
793.6926	136.2642	65535	64792.9
793.8342	138.5117	65535	64794.5
793.9758	140.7587	65535	64790.7
794.1175	143.0052	65535	64787.9
794.2591	145.2512	65535	64790.35
794.4008	147.4967	65535	64785.75
794.5425	149.7417	65535	64785.3
794.6842	151.9863	65535	64783.95
794.826	154.2304	65535	64780.75
794.9677	156.4739	65535	64772.3
795.1095	158.717	65535	64770.1
795.2513	160.9596	65535	64767.9
795.3931	163.2017	65535	64766.8
795.535	165.4433	65535	64764.1
795.6768	167.6844	65535	64766.25
795.8187	169.925	65535	64762
795.9606	172.1651	65535	64758.1
796.1025	174.4047	65535	64759.95
796.2445	176.6439	65535	64758.5
796.3864	178.8825	65535	64751.9
796.5284	181.1206	65535	64747.35
796.6704	183.3582	65535	64745.95
796.8124	185.5954	65535	64743.75
796.9544	187.832	65535	64736.15
797.0965	190.0681	65535	64733.65
797.2386	192.3037	65535	64732.6
797.3806	194.5388	65535	64730.6
797.5228	196.7734	65535	64727.15
797.6649	199.0075	65535	64721.15
797.807	201.2411	65535	64719.6
797.9492	203.4742	65535	64722.65
798.0914	205.7068	65535	64716.65
798.2336	207.9389	65535	64715.85
798.3758	210.1704	65535	64714.85
798.518	212.4015	65535	64715.2
798.6603	214.632	65535	64719.05
798.8025	216.862	65535	64725.95
798.9448	219.0915	65535	64733.25
799.0871	221.3205	65535	64728.6
799.2294	223.549	65535	64735.1
799.3718	225.777	65535	64734.35
799.5141	228.0044	65535	64731.55
799.6565	230.2314	65535	64734.4
799.7989	232.4578	65535	64734.75
799.9413	234.6837	65535	64730.45
800.0837	236.909	65535	64728.2
800.2262	239.1339	65535	64699.75
800.3687	241.3582	65535	64713.85
800.5111	243.582	65535	64684.2
800.6536	245.8053	65535	64701.35
800.7961	248.0281	65535	64701.8
800.9387	250.2503	65535	64700.55
801.0812	252.472	65535	64694
801.2238	254.6932	65535	64690.7
801.3664	256.9139	65535	64693.45
801.509	259.134	65535	64690.25
801.6516	261.3536	65535	64686.7
801.7942	263.5727	65535	64684.45
801.9369	265.7912	65535	64686.4
802.0795	268.0092	65535	64686.85
802.2222	270.2267	65535	64684
802.3649	272.4436	65535	64687.25
802.5076	274.6601	65535	64680.35
802.6504	276.8759	65535	64688.7
802.7931	279.0913	65535	64677.1
802.9359	281.3061	65535	64679.75
803.0787	283.5204	65535	64675.2
803.2215	285.7341	65535	64673.3
803.3643	287.9473	65535	64660.35
803.5071	290.16	65535	64663.95
803.6499	292.3721	65535	64674.9
803.7928	294.5837	65535	64672.6
803.9357	296.7947	65535	64669.9
804.0786	299.0052	65535	64673.7
804.2215	301.2152	65535	64670.35
804.3644	303.4246	65535	64674.95
804.5074	305.6334	65535	64676.4
804.6503	307.8418	65535	64675.35
804.7933	310.0495	65535	64668.15
804.9363	312.2568	65535	64665.75
805.0793	314.4635	65535	64671.3
805.2223	316.6696	65535	64666.2
805.3653	318.8752	65535	64656.15
805.5084	321.0802	65535	64666.15
805.6514	323.2847	65535	64669.9
805.7945	325.4887	65535	64664.4
805.9376	327.692	65535	64660.7
806.0807	329.8949	65535	64663.95
806.2238	332.0972	65535	64660.7
806.367	334.2989	65535	64652.65
806.5101	336.5001	65535	64657.4
806.6533	338.7007	65535	64658
806.7965	340.9008	65535	64656.35
806.9397	343.1003	65535	64650.85
807.0829	345.2992	65535	64653.55
807.2261	347.4976	65535	64650
807.3693	349.6955	65535	64642.85
807.5126	351.8927	65535	64648.4
807.6559	354.0895	65535	64636.25
807.7991	356.2856	65535	64643.15
807.9424	358.4812	65535	64644.45
808.0857	360.6763	65535	64643.7
808.2291	362.8707	65535	64643.5
808.3724	365.0646	65535	64638.1
808.5158	367.258	65535	64639.7
808.6591	369.4508	65535	64636.55
808.8025	371.643	65535	64635.1
808.9459	373.8346	65535	64628.9
809.0893	376.0257	65535	64630.45
809.2327	378.2162	65535	64633.55
809.3762	380.4062	65535	64634.5
809.5196	382.5956	65535	64630
809.6631	384.7844	65535	64632.6
809.8066	386.9726	65535	64629.55
809.9501	389.1603	65535	64631.3
810.0936	391.3474	65535	64596.15
810.2371	393.5339	65535	64634.5
810.3806	395.7199	65535	64634.85
810.5241	397.9052	65535	64640.7
810.6677	400.09	65535	64641.25
810.8113	402.2743	65535	64639.5
810.9548	404.4579	65535	64644.7
811.0984	406.641	65535	64643.65
811.2421	408.8235	65535	64641.35
811.3857	411.0054	65535	64641.4
811.5293	413.1868	65535	64634.7
811.673	415.3675	65535	64635.45
811.8166	417.5477	65535	64633.15
811.9603	419.7273	65535	64632.85
812.104	421.9064	65535	64623.3
812.2477	424.0848	65535	64632.45
812.3914	426.2627	65535	64627.45
812.5351	428.4399	65535	64626.15
812.6788	430.6166	65535	64618.5
812.8226	432.7928	65535	64624.55
812.9663	434.9683	65535	64629.8
813.1101	437.1432	65535	64625.4
813.2539	439.3176	65535	64632.8
813.3977	441.4914	65535	64628.9
813.5415	443.6645	65535	64625.25
813.6853	445.8371	65535	64626.2
813.8291	448.0091	65535	64625.4
813.973	450.1806	65535	64629.25
814.1168	452.3514	65535	64627.7
814.2607	454.5216	65535	64620.15
814.4046	456.6913	65535	64626.3
814.5485	458.8603	65535	64627.65
814.6924	461.0288	65535	64629.65
814.8363	463.1967	65535	64631.85
814.9802	465.3639	65535	64635.65
815.1241	467.5306	65535	64626.85
815.2681	469.6967	65535	64634.05
815.412	471.8622	65535	64633.2
815.556	474.0271	65535	64629.4
815.7	476.1914	65535	64623
815.844	478.3551	65535	64620.4
815.988	480.5182	65535	64619.55
816.132	482.6807	65535	64630.55
816.276	484.8426	65535	64640.25
816.4201	487.0039	65535	64635.4
816.5641	489.1647	65535	64626.75
816.7082	491.3248	65535	64624.15
816.8522	493.4843	65535	64627.4
816.9963	495.6432	65535	64625.4
817.1404	497.8015	65535	64616.95
817.2845	499.9592	65535	64614.15
817.4286	502.1163	65535	64619.6
817.5727	504.2728	65535	64622.45
817.7168	506.4287	65535	64631.65
817.861	508.5839	65535	64632.05
818.0051	510.7386	65535	64623.9
818.1493	512.8927	65535	64613.25
818.2935	515.0461	65535	64622.4
818.4377	517.199	65535	64615.7
818.5818	519.3512	65535	64616.45
818.726	521.5029	65535	64614.85
818.8703	523.6539	65535	64618.25
819.0145	525.8043	65535	64619.3
819.1587	527.9541	65535	64615.5
819.303	530.1033	65535	64613.9
819.4472	532.2519	65535	64616.55
819.5915	534.3999	65535	64620.2
819.7357	536.5472	65535	64619.05
819.88	538.694	65535	64621.45
820.0243	540.8401	65535	64617.15
820.1686	542.9856	65535	64609.45
820.3129	545.1305	65535	64603.25
820.4572	547.2748	65535	64601.45
820.6016	549.4185	65535	64600.65
820.7459	551.5615	65535	64604.05
820.8902	553.704	65535	64604.55
821.0346	555.8458	65535	64606.65
821.1789	557.987	65535	64608.2
821.3233	560.1276	65535	64604.9
821.4677	562.2675	65535	64606.05
821.6121	564.4069	65535	64603.95
821.7565	566.5456	65535	64606.05
821.9009	568.6837	65535	64608.15
822.0453	570.8212	65535	64610.35
822.1897	572.958	65535	64606.05
822.3342	575.0942	65535	64611.55
822.4786	577.2299	65535	64619.2
822.6231	579.3648	65535	64626.05
822.7675	581.4992	65535	64632.2
822.912	583.6329	65535	64631.6
823.0565	585.766	65535	64625.75
823.201	587.8985	65535	64624.8
823.3454	590.0304	65535	64594
823.4899	592.1616	65535	64607.05
823.6345	594.2922	65535	64610.2
823.779	596.4222	65535	64602.95
823.9235	598.5515	65535	64603.2
824.068	600.6802	65535	64603.35
824.2126	602.8083	65535	64612.1
824.3571	604.9358	65535	64606.65
824.5017	607.0626	65535	64603.35
824.6462	609.1888	65535	64597.95
824.7908	611.3144	65535	64596.4
824.9354	613.4393	65535	64597.8
825.08	615.5636	65535	64595.65
825.2246	617.6873	65535	64601.55
825.3692	619.8103	65535	64602
825.5138	621.9327	65535	64604.4
825.6584	624.0544	65535	64608.7
825.803	626.1756	65535	64606.3
825.9477	628.2961	65535	64599.15
826.0923	630.4159	65535	64602.1
826.237	632.5351	65535	64601.95
826.3816	634.6537	65535	64597.35
826.5263	636.7716	65535	64591.7
826.6709	638.8889	65535	64590.6
826.8156	641.0056	65535	64595.65
826.9603	643.1216	65535	64594.95
827.105	645.237	65535	64595.15
827.2497	647.3518	65535	64603.75
827.3944	649.4659	65535	64610.65
827.5391	651.5793	65535	64609.7
827.6838	653.6922	65535	64607.75
827.8285	655.8043	65535	64597.75
827.9733	657.9159	65535	64599.25
828.118	660.0268	65535	64601.5
828.2627	662.137	65535	64598.4
828.4075	664.2466	65535	64593.8
828.5522	666.3556	65535	64598.7
828.697	668.4639	65535	64600.35
828.8418	670.5716	65535	64603
828.9865	672.6786	65535	64596.45
829.1313	674.785	65535	64594.85
829.2761	676.8907	65535	64601.7
829.4209	678.9958	65535	64601
829.5657	681.1002	65535	64595.7
829.7105	683.204	65535	64588.55
829.8553	685.3072	65535	64594.95
830.0001	687.4097	65535	64595.7
830.1449	689.5115	65535	64591.4
830.2898	691.6127	65535	64598.65
830.4346	693.7132	65535	64604.65
830.5794	695.8131	65535	64584.8
830.7243	697.9123	65535	64592.7
830.8691	700.0109	65535	64588.2
831.014	702.1089	65535	64593.7
831.1588	704.2061	65535	64591.85
831.3037	706.3028	65535	64589.75
831.4486	708.3987	65535	64593.3
831.5935	710.4941	65535	64596.4
831.7383	712.5887	65535	64598.55
831.8832	714.6827	65535	64592.1
832.0281	716.7761	65535	64598.45
832.173	718.8688	65535	64597.15
832.3179	720.9608	65535	64583.7
832.4628	723.0522	65535	64582.3
832.6077	725.1429	65535	64590.1
832.7527	727.233	65535	64591.7
832.8976	729.3224	65533.7	64589
833.0425	731.4112	65535	64591
833.1874	733.4993	65535	64590.35
833.3324	735.5867	65535	64592.3
833.4773	737.6735	65535	64586.7
833.6222	739.7596	65531.05	64588.05
833.7672	741.845	65528.2	64585.4
833.9122	743.9298	65535	64584.45
834.0571	746.014	65526.55	64582.8
834.2021	748.0974	65518.85	64570
834.347	750.1802	65535	64585.4
834.492	752.2624	65518.15	64570.2
834.637	754.3439	65520	64568.65
834.782	756.4247	65522.4	64565.7
834.9269	758.5048	65516.85	64567.45
835.0719	760.5843	65519.95	64571.1
835.2169	762.6631	65525.45	64575.05
835.3619	764.7413	65523.2	64576.3
835.5069	766.8188	65527.9	64579.1
835.6519	768.8956	65535	64588.7
835.7969	770.9718	65535	64588.4
835.9419	773.0473	65532.85	64584.9
836.0869	775.1221	65514.75	64568.45
836.232	777.1962	65508.05	64557.65
836.377	779.2697	65417.35	64469.05
836.522	781.3426	65500.75	64533.5
836.667	783.4147	65517.1	64566.9
836.8121	785.4862	65509.85	64564.7
836.9571	787.557	65423.25	64474.25
837.1021	789.6271	65502.75	64553.2
837.2472	791.6966	65422.75	64474.85
837.3922	793.7654	65255.1	64304.85
837.5373	795.8335	65278.6	64329.3
837.6823	797.901	65337.45	64389.15
837.8274	799.9678	65223.8	64272.15
837.9724	802.0339	65170.45	64218.75
838.1175	804.0993	65213.9	64250.45
838.2626	806.1641	65133	64179.4
838.4076	808.2282	65054.3	64105.25
838.5527	810.2916	64945.5	63996.25
838.6978	812.3544	65146.7	64199.15
838.8428	814.4164	64770.85	63824.2
838.9879	816.4778	64784.05	63829.95
839.133	818.5385	64838.6	63886.9
839.2781	820.5986	64811.5	63863.55
839.4232	822.658	64853.05	63901.1
839.5682	824.7166	64867.25	63917.95
839.7133	826.7747	64435.55	63485.65
839.8584	828.832	64598.3	63646.3
840.0035	830.8886	64862.7	63910.05
840.1486	832.9446	64905.25	63951.95
840.2937	834.9999	64075.35	63125.7
840.4388	837.0545	64585.6	63627.55
840.5839	839.1085	64881.35	63932.3
840.729	841.1618	64734.4	63779.2
840.8741	843.2143	64086.65	63136.65
841.0192	845.2662	64051.75	63098.1
841.1643	847.3175	64293.05	63339.1
841.3095	849.368	63343.65	62391.05
841.4546	851.4179	64084.85	63130.55
841.5997	853.467	63473.75	62516.5
841.7448	855.5155	63752	62800.6
841.8899	857.5633	63135.9	62182.95
842.0351	859.6105	62807.15	61850.7
842.1802	861.6569	63143.9	62190.6
842.3253	863.7027	62362	61407.9
842.4704	865.7478	62662.85	61710.3
842.6156	867.7922	62480.4	61526.5
842.7607	869.8359	62919.8	61965.9
842.9058	871.8789	62070.85	61116.15
843.0509	873.9212	62651.15	61663.1
843.1961	875.9629	62757.3	61799.85
843.3412	878.0039	62685.9	61733.3
843.4863	880.0441	62386.45	61434.35
843.6315	882.0837	62303.7	61350.1
843.7766	884.1226	62173.4	61220.4
843.9218	886.1609	62040.8	61090.15
844.0669	888.1984	61528.05	60575.55
844.212	890.2352	62079.85	61128.8
844.3572	892.2714	61231.25	60270.85
844.5023	894.3069	61596.35	60641.9
844.6475	896.3416	61093.65	60142.5
844.7926	898.3757	61016.65	60063.2
844.9377	900.4091	60102.35	59144.3
845.0829	902.4418	61347.05	60388.85
845.228	904.4739	60532.85	59577
845.3732	906.5052	60621.05	59664.15
845.5183	908.5358	60162.6	59206.9
845.6635	910.5658	59787.35	58830
845.8086	912.595	59686.65	58730.25
845.9538	914.6236	58853	57897.95
846.0989	916.6515	60126.55	59171.3
846.2441	918.6786	58749.45	57791.7
846.3892	920.7051	59017.15	58058.8
846.5344	922.7309	58878.2	57923.8
846.6795	924.756	59147.8	58192.85
846.8246	926.7804	58692.35	57735.7
846.9698	928.8041	57948.45	56994.4
847.1149	930.8272	58461.55	57506.3
847.2601	932.8495	58396.95	57444.35
847.4052	934.8711	57641.2	56684.85
847.5504	936.892	57267.7	56312.35
847.6955	938.9123	57316.3	56358
847.8407	940.9318	56829.25	55874
847.9858	942.9506	56663.55	55707.6
848.131	944.9688	56644.65	55689.85
848.2761	946.9862	55809.55	54855.2
848.4213	949.003	56060.8	55105.7
848.5664	951.019	55331.45	54375.5
848.7115	953.0344	55429.3	54475.9
848.8567	955.0491	55329.9	54371
849.0018	957.063	55531.4	54576.7
849.147	959.0763	55575.25	54617.95
849.2921	961.0888	55088.65	54131.95
849.4373	963.1007	55477.1	54524.85
849.5824	965.1119	55386.2	54441.35
849.7275	967.1223	55090.95	54150.05
849.8727	969.1321	55390.2	54449.3
850.0178	971.1412	54801.35	53855.35
850.1629	973.1495	54577.8	53630.05
850.3081	975.1572	54747.45	53760.8
850.4532	977.1641	54600.9	53647.25
850.5983	979.1704	54334.5	53382.45
850.7435	981.1759	54315.8	53361.35
850.8886	983.1808	54071.6	53116.2
851.0337	985.1849	54076.95	53111.95
851.1788	987.1884	54168.6	53212
851.324	989.1911	54480.2	53522.65
851.4691	991.1932	53977	53023.85
851.6142	993.1945	54020.8	53069.35
851.7593	995.1951	53930.8	52979.45
851.9045	997.1951	53598.4	52638.15
852.0496	999.1943	53226.1	52269.3
852.1947	1001.1928	53012.1	52059
852.3398	1003.1906	52977.2	52026.6
852.4849	1005.1877	52609.2	51653.45
852.63	1007.1841	52304.45	51350.9
852.7751	1009.1798	52065.7	51114.1
852.9202	1011.1748	51745.2	50792.45
853.0653	1013.1691	51450	50500
853.2104	1015.1627	50777.7	49826.15
853.3555	1017.1556	50401.9	49453.65
853.5006	1019.1477	50302.3	49356.1
853.6457	1021.1392	49907	48961.95
853.7908	1023.1299	49611.95	48668.2
853.9359	1025.12	49554.9	48615.5
854.081	1027.1093	49275.3	48347.75
854.2261	1029.0979	49198.3	48271.05
854.3712	1031.0859	49076.05	48143.35
854.5163	1033.0731	48772.25	47832.25
854.6613	1035.0596	48656.65	47713.35
854.8064	1037.0454	48292.05	47344.05
854.9515	1039.0304	48003.2	47056.6
855.0965	1041.0148	47704.8	46753.4
855.2416	1042.9985	47468.95	46517.45
855.3867	1044.9814	47399.5	46451.05
855.5317	1046.9636	47046.7	46097.35
855.6768	1048.9452	46857.05	45910.15
855.8219	1050.926	46811.35	45861.4
855.9669	1052.9061	46599.75	45655.05
856.112	1054.8855	46478.25	45529.45
856.257	1056.8642	46346.25	45397.85
856.4021	1058.8421	46359.3	45405.8
856.5471	1060.8194	46196.95	45245.85
856.6921	1062.7959	46020.1	45072.3
856.8372	1064.7717	45996.6	45044.45
856.9822	1066.7469	45877.55	44926.75
857.1272	1068.7213	45687.8	44734.7
857.2723	1070.695	45531.1	44582.1
857.4173	1072.6679	45225.2	44273.7
857.5623	1074.6402	45093.15	44146.45
857.7073	1076.6117	45026.95	44068.9
857.8523	1078.5826	44919.75	43967.9
857.9973	1080.5527	44839.6	43888.4
858.1423	1082.5221	44852.3	43902.35
858.2873	1084.4908	44942.4	43992.6
858.4323	1086.4587	45044.5	44095.4
858.5773	1088.426	45128.85	44179.55
858.7223	1090.3925	44931.3	43977.85
858.8673	1092.3584	44791.55	43844.65
859.0123	1094.3235	44371.1	43422.6
859.1573	1096.2879	44060.35	43110.65
859.3022	1098.2515	43894.5	42947.4
859.4472	1100.2145	43957.85	43009.65
859.5922	1102.1767	43776.05	42825.35
859.7371	1104.1382	43803.15	42853.3
859.8821	1106.099	43877.35	42926.3
860.027	1108.0591	43930.85	42981.9
860.172	1110.0185	43926.9	42975.5
860.3169	1111.9771	43875.1	42925.3
860.4619	1113.9351	43445.35	42496.95
860.6068	1115.8923	42924.9	41976.75
860.7517	1117.8488	42417.65	41467.4
860.8967	1119.8045	41976.95	41029.95
861.0416	1121.7596	41782.35	40835.8
861.1865	1123.7139	41565.25	40617.45
861.3314	1125.6675	41434.7	40489.15
861.4763	1127.6204	41538.35	40591.7
861.6212	1129.5726	41376.65	40425.8
861.7661	1131.524	41328.9	40378.6
861.911	1133.4748	41254.45	40305.45
862.0559	1135.4248	41147.85	40200
862.2008	1137.3741	41138.8	40195.6
862.3457	1139.3226	40974.5	40027.9
862.4905	1141.2705	40943.7	39999.85
862.6354	1143.2176	40564.6	39611.15
862.7803	1145.164	40555.4	39605.9
862.9251	1147.1097	40507.4	39561.05
863.07	1149.0546	40396	39446.75
863.2148	1150.9989	40321.2	39376.55
863.3597	1152.9424	40079.3	39130.9
863.5045	1154.8852	39744.35	38795.95
863.6493	1156.8272	39509.75	38561.2
863.7942	1158.7686	39387.25	38431.65
863.939	1160.7092	39176.4	38230.9
864.0838	1162.6491	38955.25	38005.35
864.2286	1164.5883	38968.05	38023.15
864.3734	1166.5267	38910.95	37961.6
864.5182	1168.4644	38983.5	38036.75
864.663	1170.4014	39119.65	38170.45
864.8078	1172.3377	39307.25	38364.5
864.9526	1174.2732	39350.9	38406.55
865.0974	1176.2081	39492.5	38542.7
865.2421	1178.1421	39599.8	38646.6
865.3869	1180.0755	39677.05	38732.8
865.5317	1182.0082	39453.45	38510.35
865.6764	1183.9401	39334.8	38391.35
865.8212	1185.8713	38982.1	38042.65
865.9659	1187.8017	38604.1	37667.85
866.1106	1189.7315	38308.75	37381.2
866.2554	1191.6605	37865.25	36937.6
866.4001	1193.5888	37510.1	36573.65
866.5448	1195.5163	37368.55	36432.55
866.6895	1197.4432	37128.45	36187.9
866.8342	1199.3693	36958.6	36016.6
866.9789	1201.2947	36743.9	35796.05
867.1236	1203.2193	36622.95	35679.2
867.2683	1205.1432	36617.25	35671.45
867.413	1207.0664	36531.5	35588.3
867.5576	1208.9889	36440.65	35497.65
867.7023	1210.9106	36371.15	35428.25
867.847	1212.8316	36325.35	35383.65
867.9916	1214.7519	36370.65	35417.7
868.1363	1216.6715	36219.35	35274.85
868.2809	1218.5903	36069.7	35128
868.4255	1220.5084	35910.8	34967.6
868.5701	1222.4257	35904.8	34963.65
868.7148	1224.3424	35581.3	34639.25
868.8594	1226.2583	35557.2	34612.7
869.004	1228.1735	35569.2	34625
869.1486	1230.0879	35541.15	34597.3
869.2932	1232.0016	35565.35	34624.95
869.4377	1233.9146	35512.2	34565.7
869.5823	1235.8269	35289.7	34348.5
869.7269	1237.7384	35162.45	34221.65
869.8715	1239.6492	34760.75	33819.45
870.016	1241.5592	34564.9	33620.75
870.1606	1243.4686	34341.45	33401.15
870.3051	1245.3772	34240.65	33301.2
870.4496	1247.285	34016.45	33076.7
870.5941	1249.1922	33870.1	32929.6
870.7387	1251.0986	33799.05	32855.4
870.8832	1253.0042	33681.2	32741.2
871.0277	1254.9092	33673	32733.6
871.1722	1256.8134	33633.3	32694.85
871.3167	1258.7169	33724.7	32784.35
871.4611	1260.6196	33781.75	32841.45
871.6056	1262.5216	33957	33015.35
871.7501	1264.4229	33974.45	33039.3
871.8945	1266.3234	34067.1	33127.3
872.039	1268.2232	34060.55	33120.65
872.1834	1270.1223	33909.95	32965.6
872.3278	1272.0207	33806.05	32866.6
872.4723	1273.9183	33687.7	32740.5
872.6167	1275.8151	33466.2	32528.3
872.7611	1277.7113	33367.3	32426.7
872.9055	1279.6067	33105.85	32165.95
873.0499	1281.5014	32841.55	31901.25
873.1943	1283.3953	32628.2	31686.65
873.3386	1285.2885	32428.7	31490.2
873.483	1287.181	32298.4	31359.1
873.6274	1289.0727	32308.5	31375.2
873.7717	1290.9637	32227.1	31288.35
873.9161	1292.854	32328.75	31388.05
874.0604	1294.7435	32323.35	31384.15
874.2047	1296.6323	32482.85	31544.15
874.349	1298.5204	32739.7	31796.8
874.4933	1300.4077	32902.9	31959.5
874.6376	1302.2943	33028.2	32088.5
874.7819	1304.1802	33095.75	32159.8
874.9262	1306.0653	32912.9	31974.45
875.0705	1307.9497	32715	31776.65
875.2147	1309.8333	32580.85	31645.65
875.359	1311.7162	32547.95	31610.9
875.5032	1313.5984	32599.4	31660.4
875.6475	1315.4798	32617.4	31666.4
875.7917	1317.3605	32748.55	31794.6
875.9359	1319.2405	32835.05	31892.7
876.0801	1321.1197	32838.3	31896.9
876.2243	1322.9982	32695.9	31753.45
876.3685	1324.876	32679.8	31743.2
876.5127	1326.753	32568.95	31631.2
876.6569	1328.6293	32578.05	31637.5
876.801	1330.5048	32600.25	31659.85
876.9452	1332.3796	32430	31491.7
877.0893	1334.2537	32360.4	31397.9
877.2335	1336.127	32215.25	31273.1
877.3776	1337.9996	32093.4	31153.55
877.5217	1339.8714	31957.1	31016.05
877.6658	1341.7426	31847.6	30865.7
877.8099	1343.6129	31754	30816.4
877.954	1345.4826	31572.65	30636.3
878.0981	1347.3515	31525.45	30584.9
878.2422	1349.2196	31361.3	30420.15
878.3862	1351.087	31313.45	30374.65
878.5303	1352.9537	31339.2	30401.6
878.6743	1354.8197	31405.45	30466.4
878.8184	1356.6849	31585.5	30645.45
878.9624	1358.5493	31541.75	30601.35
879.1064	1360.4131	31482.25	30546.35
879.2504	1362.276	31268.95	30334.6
879.3944	1364.1383	31070.65	30134.7
879.5384	1365.9998	30771.35	29825.8
879.6823	1367.8606	30381.75	29444.5
879.8263	1369.7206	30084.8	29146.4
879.9702	1371.5799	29825.25	28884.75
880.1142	1373.4384	29632.2	28693.35
880.2581	1375.2962	29498.4	28561.25
880.402	1377.1533	29087	28152.35
880.5459	1379.0096	28701.6	27764.7
880.6898	1380.8652	28358.7	27425
880.8337	1382.7201	28082.15	27150.05
880.9776	1384.5742	27750.5	26816.3
881.1215	1386.4275	27497.25	26559.1
881.2653	1388.2802	27329.75	26394.2
881.4092	1390.132	27143.5	26206.6
881.553	1391.9832	27103.75	26168.15
881.6968	1393.8336	26892.65	25953.2
881.8406	1395.6832	26780.5	25842.5
881.9844	1397.5322	26642.1	25703.25
882.1282	1399.3803	26527.8	25589.35
882.272	1401.2278	26358.2	25424.65
882.4158	1403.0745	26327.95	25394.05
882.5595	1404.9204	26188.85	25256.95
882.7033	1406.7656	26136.75	25201.55
882.847	1408.6101	26069.8	25132.95
882.9908	1410.4538	25975.3	25038.1
883.1345	1412.2968	26013.35	25077.45
883.2782	1414.139	25914.1	24979.45
883.4219	1415.9805	25938.75	25003.4
883.5656	1417.8213	25903.25	24946.85
883.7092	1419.6613	25972.4	25040.95
883.8529	1421.5006	26079.75	25144
883.9965	1423.3391	26312.5	25379.6
884.1402	1425.1769	26619.45	25681.45
884.2838	1427.0139	27100	26165.4
884.4274	1428.8502	27646.75	26713.2
884.571	1430.6858	28176.05	27238.9
884.7146	1432.5206	28526.2	27593.5
884.8582	1434.3547	28754.2	27817.4
885.0018	1436.188	28700.15	27766
885.1453	1438.0206	28603.1	27668.65
885.2889	1439.8524	28349	27414.7
885.4324	1441.6835	28245.5	27313.9
885.5759	1443.5139	28063.2	27125.25
885.7194	1445.3435	27922.45	26990.75
885.8629	1447.1724	27852.4	26922
886.0064	1449.0005	27710.15	26777.75
886.1499	1450.8279	27611.7	26679.25
886.2933	1452.6545	27492.45	26558.8
886.4368	1454.4804	27506.4	26576.45
886.5802	1456.3056	27416.35	26477.65
886.7237	1458.13	27261.7	26333.8
886.8671	1459.9536	27082.45	26148.85
887.0105	1461.7766	26614.65	25681.6
887.1539	1463.5987	26134.85	25197.35
887.2972	1465.4202	25656	24721.5
887.4406	1467.2409	25211.05	24279.4
887.584	1469.0608	24934.8	24001.95
887.7273	1470.88	24629.3	23699.45
887.8706	1472.6984	24347.15	23416.85
888.0139	1474.5161	24092.65	23159.65
888.1572	1476.3331	23844.7	22911.55
888.3005	1478.1493	23739.85	22806.95
888.4438	1479.9648	23625.25	22693.3
888.5871	1481.7795	23472	22538.2
888.7303	1483.5935	23361.35	22426.85
888.8736	1485.4067	23278.45	22348.9
889.0168	1487.2192	23197.65	22268.65
889.16	1489.031	23123.9	22190.25
889.3032	1490.842	23059.85	22128.95
889.4464	1492.6522	22951.25	22018.95
889.5896	1494.4618	22878.9	21949.4
889.7327	1496.2705	22830.4	21899.95
889.8759	1498.0785	22772.35	21841
890.019	1499.8858	22684.85	21754.2
890.1622	1501.6924	22591.8	21661.95
890.3053	1503.4981	22583.35	21653.8
890.4484	1505.3032	22545.05	21613.1
890.5914	1507.1075	22459.15	21529.95
890.7345	1508.911	22379	21449.1
890.8776	1510.7138	22296.25	21362.5
891.0206	1512.5159	22199.8	21271.5
891.1637	1514.3172	22112.25	21182.5
891.3067	1516.1178	21975.35	21046.2
891.4497	1517.9176	21968.1	21035.25
891.5927	1519.7166	21818.25	20886.95
891.7357	1521.515	21789.65	20852.75
891.8786	1523.3126	21725.15	20794.5
892.0216	1525.1094	21596.2	20666.75
892.1645	1526.9055	21540.85	20613.1
892.3074	1528.7008	21423.9	20495.6
892.4503	1530.4954	21341.3	20409.9
892.5932	1532.2893	21303.95	20376.6
892.7361	1534.0824	21130.7	20202.6
892.879	1535.8747	21129.9	20205.55
893.0218	1537.6663	21032.75	20107.85
893.1647	1539.4572	20992.9	20065.3
893.3075	1541.2473	20962	20033.7
893.4503	1543.0367	20884.6	19959.8
893.5931	1544.8253	20781.55	19850.6
893.7359	1546.6132	20768.25	19838.2
893.8787	1548.4003	20647.4	19714.6
894.0214	1550.1867	20675.2	19743.2
894.1642	1551.9723	20616.5	19690.45
894.3069	1553.7572	20606.15	19683.5
894.4496	1555.5414	20532.85	19609.45
894.5923	1557.3247	20495.8	19575
894.735	1559.1074	20463.6	19546.7
894.8777	1560.8893	20459.1	19540.85
895.0204	1562.6705	20449.75	19529.7
895.163	1564.4509	20506.4	19589.75
895.3056	1566.2305	20480.9	19565.6
895.4482	1568.0094	20566.65	19651.55
895.5908	1569.7876	20669.15	19752.85
895.7334	1571.565	20688.15	19771.05
895.876	1573.3417	20704.9	19783.6
896.0186	1575.1176	20646	19730.4
896.1611	1576.8928	20589.65	19674.35
896.3036	1578.6672	20456.5	19546.2
896.4461	1580.4409	20281.3	19372.55
896.5886	1582.2138	20095.85	19182.65
896.7311	1583.986	19942.15	19027.6
896.8736	1585.7575	19791.05	18876.55
897.0161	1587.5282	19656.6	18746.65
897.1585	1589.2981	19559.35	18649.9
897.3009	1591.0673	19453.5	18543.05
897.4433	1592.8358	19407.95	18495.25
897.5857	1594.6035	19303.2	18387.5
897.7281	1596.3704	19257.25	18341.35
897.8705	1598.1366	19237.9	18327.2
898.0128	1599.9021	19183.85	18273.95
898.1551	1601.6668	19147.4	18233.7
898.2975	1603.4308	19138.3	18222.8
898.4398	1605.194	19203.45	18283.25
898.5821	1606.9564	19232.05	18325.65
898.7243	1608.7182	19278.75	18373.35
898.8666	1610.4791	19363.1	18461.5
899.0088	1612.2394	19455.35	18553.25
899.1511	1613.9988	19572.9	18671.8
899.2933	1615.7576	19760.2	18850.65
899.4355	1617.5156	20011.4	19093.1
899.5776	1619.2728	20207.35	19293.05
899.7198	1621.0293	20345.5	19433.45
899.862	1622.785	20392.7	19482.05
900.0041	1624.54	20250.1	19344.55
900.1462	1626.2942	20063.45	19155.2
900.2883	1628.0477	19727.25	18815.5
900.4304	1629.8005	19438.95	18528.85
900.5725	1631.5525	19127.55	18221.8
900.7145	1633.3037	18877.35	17972
900.8566	1635.0542	18690.9	17784.95
900.9986	1636.804	18491.15	17582.45
901.1406	1638.553	18421.4	17443.75
901.2826	1640.3013	18238.1	17330.5
901.4245	1642.0488	18156.8	17248.55
901.5665	1643.7955	18092.2	17189.5
901.7085	1645.5416	18093.8	17187.9
901.8504	1647.2868	18095.35	17190.6
901.9923	1649.0313	18134.2	17225.6
902.1342	1650.7751	18237.95	17328.5
902.2761	1652.5181	18350.1	17447.3
902.4179	1654.2604	18537.65	17632.4
902.5598	1656.0019	18836.9	17933.55
902.7016	1657.7427	19163.4	18257.45
902.8434	1659.4828	19483.85	18578.3
902.9852	1661.222	19707.6	18801.05
903.127	1662.9606	19711.9	18802.85
903.2687	1664.6984	19531.75	18619.2
903.4105	1666.4354	19131.5	18219.2
903.5522	1668.1717	18694.55	17786.1
903.6939	1669.9072	18158.5	17247.65
903.8356	1671.642	17782.75	16869.25
903.9773	1673.3761	17454.9	16548.4
904.119	1675.1094	17168.55	16259.15
904.2606	1676.8419	16952.6	16044.95
904.4022	1678.5737	16776.35	15869.1
904.5439	1680.3048	16614.8	15705.3
904.6855	1682.0351	16508.45	15601.55
904.827	1683.7646	16396.9	15487.7
904.9686	1685.4934	16299.5	15390.6
905.1101	1687.2215	16185.45	15278.4
905.2517	1688.9488	16119.75	15214
905.3932	1690.6754	16046.15	15143.1
905.5347	1692.4012	15996.4	15089.8
905.6761	1694.1263	15907.3	15001.85
905.8176	1695.8506	15854.85	14948.85
905.9591	1697.5742	15806.8	14903.9
906.1005	1699.297	15756.65	14851.15
906.2419	1701.0191	15646.15	14745.9
906.3833	1702.7404	15585.55	14682.9
906.5246	1704.461	15476.75	14572.2
906.666	1706.1808	15439.25	14534.95
906.8073	1707.8999	15381.45	14476.85
906.9487	1709.6182	15301.05	14402.2
907.09	1711.3358	15274.15	14375.3
907.2313	1713.0527	15204.9	14309
907.3725	1714.7688	15135	14230.7
907.5138	1716.4841	15093.35	14189.7
907.655	1718.1987	15049.75	14142.2
907.7962	1719.9126	15002.4	14103.25
907.9374	1721.6257	14918.15	14018.05
908.0786	1723.338	14880.45	13983.4
908.2198	1725.0496	14813.2	13914.2
908.3609	1726.7605	14806.05	13905.85
908.502	1728.4706	14740.5	13836.6
908.6431	1730.18	14644.45	13742.25
908.7842	1731.8886	14617.05	13721.1
908.9253	1733.5964	14605.5	13688.9
909.0664	1735.3036	14526.05	13626.05
909.2074	1737.0099	14512.2	13613
909.3484	1738.7156	14481.2	13587.7
909.4894	1740.4204	14417.95	13517.6
909.6304	1742.1246	14351.25	13450.45
909.7714	1743.8279	14327.4	13429.65
909.9123	1745.5306	14305.25	13406
910.0532	1747.2325	14262.1	13366.15
910.1941	1748.9336	14211.15	13312.4
910.335	1750.634	14141.5	13240.75
910.4759	1752.3336	14113.35	13215.3
910.6168	1754.0325	14092.5	13198.8
910.7576	1755.7307	14078.2	13181.3
910.8984	1757.4281	14064.1	13165.5
911.0392	1759.1247	14052.15	13143.5
911.18	1760.8206	13989.85	13084.75
911.3208	1762.5158	13956.55	13053.65
911.4615	1764.2102	13917.75	13020.35
911.6022	1765.9039	13872.8	12974.35
911.7429	1767.5968	13792.25	12897.45
911.8836	1769.289	13765.2	12870
912.0243	1770.9804	13736.3	12838
912.1649	1772.6711	13687.3	12785.8
912.3056	1774.361	13648.95	12747.1
912.4462	1776.0502	13647.2	12745.5
912.5868	1777.7386	13617.1	12714
912.7274	1779.4263	13551.95	12654.05
912.8679	1781.1132	13527.3	12632.95
913.0084	1782.7994	13467.7	12571.3
913.149	1784.4849	13445.3	12550.35
913.2895	1786.1696	13409.55	12507.65
913.4299	1787.8535	13378.15	12484.15
913.5704	1789.5367	13327.45	12432.75
913.7108	1791.2192	13328.95	12435.25
913.8513	1792.9009	13298.2	12375.3
913.9917	1794.5818	13235.35	12335.8
914.132	1796.2621	13207.65	12312
914.2724	1797.9415	13159.55	12263.15
914.4128	1799.6202	13135.05	12236.25
914.5531	1801.2982	13117.35	12218.65
914.6934	1802.9755	13086.85	12185.8
914.8337	1804.6519	13037.45	12139.9
914.9739	1806.3277	12990.3	12097.65
915.1142	1808.0027	12938.75	12045
915.2544	1809.6769	12902.4	12009.9
915.3946	1811.3504	12893	12001
915.5348	1813.0231	12856.45	11962.55
915.675	1814.6951	12844.15	11952.65
915.8151	1816.3664	12834.4	11938.1
915.9553	1818.0369	12796.6	11899.3
916.0954	1819.7067	12764.6	11866.2
916.2355	1821.3757	12761.45	11862.6
916.3755	1823.044	12689.3	11792.35
916.5156	1824.7115	12674.3	11776.55
916.6556	1826.3783	12613.1	11719.3
916.7956	1828.0443	12570	11676.55
916.9356	1829.7096	12523.4	11626.55
917.0756	1831.3741	12537	11638.15
917.2155	1833.0379	12489.3	11597.25
917.3555	1834.701	12424.3	11528.45
917.4954	1836.3633	12433.65	11540.8
917.6353	1838.0248	12394.25	11498.95
917.7751	1839.6856	12365	11470.2
917.915	1841.3457	12361.3	11463.85
918.0548	1843.005	12328.75	11432.3
918.1946	1844.6636	12336.6	11442.05
918.3344	1846.3214	12271.45	11373.75
918.4742	1847.9785	12247.15	11354.1
918.6139	1849.6349	12203.05	11305.65
918.7537	1851.2904	12199.2	11294
918.8934	1852.9453	12171.7	11274.7
919.0331	1854.5994	12141.75	11241.05
919.1727	1856.2528	12171.55	11268.95
919.3124	1857.9054	12084.1	11187.45
919.452	1859.5572	12078.35	11181.9
919.5916	1861.2083	12040.55	11144.6
919.7312	1862.8587	12057.45	11160.6
919.8708	1864.5084	11993.4	11093.95
920.0103	1866.1572	11953.1	11057.7
920.1498	1867.8054	11902.8	11002.75
920.2893	1869.4528	11903.7	11003.35
920.4288	1871.0994	11888.3	10990.3
920.5683	1872.7453	11821.7	10924.85
920.7077	1874.3905	11816.6	10901.9
920.8471	1876.0349	11791.85	10894.5
920.9865	1877.6786	11751.35	10854.3
921.1259	1879.3215	11726.1	10829.05
921.2653	1880.9637	11700.65	10803.5
921.4046	1882.6051	11680.7	10785.55
921.5439	1884.2458	11647.9	10748.95
921.6832	1885.8858	11593.55	10698.95
921.8225	1887.525	11567.95	10671.75
921.9617	1889.1634	11551.7	10654.7
922.101	1890.8011	11506.5	10607.7
922.2402	1892.4381	11488.5	10592.65
922.3794	1894.0743	11471.5	10576.55
922.5185	1895.7098	11457	10563.15
922.6577	1897.3446	11401.75	10506.25
922.7968	1898.9786	11383.45	10481.75
922.9359	1900.6118	11351.95	10455.65
923.075	1902.2443	11296.7	10400.8
923.214	1903.8761	11280.25	10385.2
923.3531	1905.5071	11217.9	10320.9
923.4921	1907.1374	11188.7	10292.75
923.6311	1908.7669	11168.45	10273.2
923.77	1910.3957	11140.65	10247.45
923.909	1912.0237	11073.25	10179.55
924.0479	1913.651	11079.75	10181.9
924.1868	1915.2776	11039.7	10148.05
924.3257	1916.9034	10990.4	10098
924.4646	1918.5285	10934.95	10042.3
924.6034	1920.1528	10895.75	10000.85
924.7422	1921.7764	10886.4	9990.75
924.881	1923.3992	10846.95	9954.3
925.0198	1925.0213	10762.75	9867.7
925.1586	1926.6427	10723.7	9830.5
925.2973	1928.2633	10768.8	9805.25
925.436	1929.8832	10709.15	9810.8
925.5747	1931.5023	10655.05	9761.65
925.7134	1933.1207	10603.7	9711.4
925.852	1934.7383	10601.8	9706.95
925.9906	1936.3552	10559.55	9667.45
926.1292	1937.9714	10550.75	9657.1
926.2678	1939.5868	10485.9	9590.7
926.4064	1941.2015	10462.3	9566.45
926.5449	1942.8154	10412	9515.9
926.6834	1944.4286	10354.75	9459.2
926.8219	1946.041	10330.4	9414.6
926.9604	1947.6528	10281.5	9381.75
927.0988	1949.2637	10258.9	9364.75
927.2372	1950.8739	10210.6	9317.8
927.3756	1952.4834	10200.4	9306.95
927.514	1954.0921	10173.9	9279.2
927.6523	1955.7001	10126.05	9232.8
927.7907	1957.3074	10094.75	9204.2
927.929	1958.9139	10035.9	9146.65
928.0673	1960.5197	10032	9140.1
928.2055	1962.1247	9999.85	9108.25
928.3438	1963.729	9978.35	9089.75
928.482	1965.3325	9930.7	9016.8
928.6202	1966.9353	9887.05	8996.35
928.7584	1968.5374	9840.1	8947.8
928.8965	1970.1387	9808.15	8916.65
929.0346	1971.7393	9777.9	8887.3
929.1727	1973.3392	9772.3	8882.8
929.3108	1974.9383	9710.55	8822.5
929.4489	1976.5366	9658.75	8768.6
929.5869	1978.1342	9660.4	8771.35
929.7249	1979.7311	9646.7	8756
929.8629	1981.3273	9613.9	8724.95
930.0009	1982.9227	9567.25	8674.65
930.1388	1984.5173	9510.6	8622.4
930.2767	1986.1112	9480.15	8591.55
930.4146	1987.7044	9469.15	8580.95
930.5525	1989.2968	9450.35	8560.2
930.6904	1990.8885	9434.8	8542.2
930.8282	1992.4795	9397.7	8507.25
930.966	1994.0697	9385.2	8499.3
931.1038	1995.6592	9356	8470.35
931.2415	1997.2479	9323.35	8435.7
931.3793	1998.8359	9279.6	8391.7
931.517	2000.4232	9249.15	8365.5
931.6547	2002.0097	9234.3	8349.9
931.7923	2003.5955	9182.15	8296.2
931.93	2005.1805	9178.7	8289.6
932.0676	2006.7648	9162.2	8275.35
932.2052	2008.3484	9124.75	8239.45
932.3427	2009.9312	9121.65	8235.05
932.4803	2011.5133	9069.45	8184.6
932.6178	2013.0946	9040.05	8156.6
932.7553	2014.6752	9009	8125.1
932.8928	2016.2551	9015.25	8128.45
933.0302	2017.8342	8987	8101.2
933.1676	2019.4126	8931.6	8045.25
933.305	2020.9902	8904.45	8021.05
933.4424	2022.5672	8891.75	8006.05
933.5798	2024.1433	8875.3	7982.25
933.7171	2025.7188	8830.15	7946.35
933.8544	2027.2935	8808	7924.05
933.9917	2028.8674	8768.3	7886
934.129	2030.4406	8743.4	7861
934.2662	2032.0131	8691.55	7810.95
934.4034	2033.5849	8676.6	7789.55
934.5406	2035.1559	8689.5	7805.35
934.6778	2036.7261	8675.2	7791.7
934.8149	2038.2957	8637.8	7749.7
934.952	2039.8645	8648.55	7760.2
935.0891	2041.4325	8641.5	7752.25
935.2262	2042.9998	8600.6	7714.8
935.3632	2044.5664	8567.25	7680.4
935.5002	2046.1323	8529.4	7645.35
935.6372	2047.6974	8490.05	7603.8
935.7742	2049.2617	8468.6	7585
935.9111	2050.8254	8456.05	7564.65
936.048	2052.3883	8454.35	7567.5
936.1849	2053.9504	8439.25	7552.55
936.3218	2055.5118	8394.8	7506.1
936.4586	2057.0725	8380.2	7491.25
936.5955	2058.6325	8342.75	7456.2
936.7323	2060.1917	8297.65	7413.45
936.869	2061.7502	8308.85	7422.3
937.0058	2063.3079	8262	7377.9
937.1425	2064.8649	8240.65	7354.8
937.2792	2066.4212	8235.55	7349.7
937.4159	2067.9767	8213.5	7327.35
937.5525	2069.5315	8199.25	7313.6
937.6891	2071.0856	8139.45	7253.1
937.8257	2072.6389	8134.5	7250.9
937.9623	2074.1915	8098.45	7214.7
938.0989	2075.7433	8041.8	7154.95
938.2354	2077.2945	8023	7138.75
938.3719	2078.8448	7992.2	7104.1
938.5084	2080.3945	7981.35	7094.95
938.6448	2081.9434	7965.4	7078.55
938.7812	2083.4916	7942.65	7053.9
938.9176	2085.039	7915.25	7021.8
939.054	2086.5857	7900.05	7007.4
939.1903	2088.1317	7903.25	7013.15
939.3267	2089.677	7856.75	6963.4
939.463	2091.2215	7827.4	6935.95
939.5992	2092.7652	7835	6942.45
939.7355	2094.3083	7810.35	6917.95
939.8717	2095.8506	7780.55	6892.65
940.0079	2097.3921	7795.65	6907.6
940.1441	2098.933	7738	6849.75
940.2802	2100.4731	7712.6	6824.75
940.4163	2102.0124	7708.3	6813.75
940.5524	2103.5511	7700.35	6811.55
940.6885	2105.089	7676.6	6784.2
940.8245	2106.6261	7662.85	6774.65
940.9606	2108.1626	7643.1	6752.75
941.0965	2109.6983	7650.2	6732.9
941.2325	2111.2332	7594.9	6704.7
941.3684	2112.7675	7565.85	6676.2
941.5044	2114.301	7577.9	6686.85
941.6403	2115.8337	7553.55	6665.8
941.7761	2117.3657	7518.45	6629.7
941.912	2118.897	7520	6630.4
942.0478	2120.4276	7487.55	6591.5
942.1835	2121.9575	7455.9	6565.2
942.3193	2123.4866	7454.3	6547.95
942.455	2125.0149	7444.05	6552.9
942.5907	2126.5426	7395	6507.75
942.7264	2128.0695	7371.65	6482.7
942.8621	2129.5956	7347.15	6462.05
942.9977	2131.1211	7347.75	6458.95
943.1333	2132.6458	7344.25	6455.65
943.2689	2134.1698	7325.6	6436.25
943.4044	2135.693	7293.6	6398.8
943.54	2137.2155	7283.6	6390.95
943.6755	2138.7373	7254.35	6365.35
943.8109	2140.2584	7234.05	6348.05
943.9464	2141.7787	7219.1	6328.5
944.0818	2143.2983	7183.45	6298.55
944.2172	2144.8171	7153.7	6270.8
944.3526	2146.3353	7146.9	6260.8
944.4879	2147.8527	7116.2	6230.85
944.6232	2149.3693	7102.05	6210.9
944.7585	2150.8853	7081.7	6191.95
944.8938	2152.4005	7058.35	6168
945.029	2153.9149	7068.35	6175.95
945.1642	2155.4287	7117.45	6120
945.2994	2156.9417	7015.8	6123.1
945.4346	2158.454	6981.85	6093.05
945.5697	2159.9655	6973.75	6086.15
945.7048	2161.4764	6962.9	6077.75
945.8399	2162.9865	6939	6052.05
945.9749	2164.4958	6925.8	6038.05
946.1099	2166.0045	6908.15	6019.25
946.2449	2167.5124	6880.85	5993.4
946.3799	2169.0195	6855.5	5965
946.5148	2170.526	6864.35	5973.45
946.6498	2172.0317	6827.9	5939.6
946.7846	2173.5367	6803.45	5914.45
946.9195	2175.0409	6797.05	5908.8
947.0543	2176.5445	6792.45	5903.7
947.1891	2178.0473	6761.35	5870.05
947.3239	2179.5494	6749.85	5853.15
947.4587	2181.0507	6717.3	5828.65
947.5934	2182.5513	6693.35	5804.4
947.7281	2184.0512	6687.15	5797.1
947.8628	2185.5504	6638.65	5749.8
947.9974	2187.0488	6608.2	5721.6
948.132	2188.5465	6593.3	5705.2
948.2666	2190.0435	6586.35	5697.35
948.4012	2191.5397	6578.35	5689.2
948.5357	2193.0353	6538	5648
948.6702	2194.5301	6527.8	5633.3
948.8047	2196.0241	6503.85	5611.15
948.9392	2197.5175	6481.4	5586.95
949.0736	2199.0101	6475.6	5580.15
949.208	2200.502	6442.05	5552.5
949.3424	2201.9931	6424.2	5537.95
949.4767	2203.4835	6408.25	5522.2
949.611	2204.9733	6394.2	5502.85
949.7453	2206.4622	6372.05	5483.95
949.8796	2207.9505	6362.3	5474.95
950.0138	2209.438	6298	5414.15
950.148	2210.9248	6306.1	5417.1
950.2822	2212.4109	6278.8	5393
950.4164	2213.8962	6276.9	5383.05
950.5505	2215.3809	6244.55	5350.85
950.6846	2216.8648	6239.85	5344.65
950.8186	2218.3479	6213.55	5311.8
950.9527	2219.8304	6202.2	5306.1
951.0867	2221.3121	6171.05	5276
951.2207	2222.7931	6174.2	5282.25
951.3546	2224.2733	6124.85	5234.35
951.4886	2225.7529	6126.05	5236
951.6225	2227.2317	6091.85	5200.1
951.7563	2228.7098	6074.7	5186.8
951.8902	2230.1872	6067.6	5182.4
952.024	2231.6638	6048.45	5161.9
952.1578	2233.1397	6030.65	5139.15
952.2916	2234.6149	6024.6	5138.7
952.4253	2236.0894	5996.6	5109.45
952.559	2237.5632	5980.25	5092
952.6927	2239.0362	5954.9	5065.65
952.8263	2240.5085	5937.95	5049.8
952.9599	2241.9801	5921.3	5031.1
953.0935	2243.4509	5906.65	5015
953.2271	2244.921	5890.1	4997.95
953.3606	2246.3904	5862	4966.4
953.4941	2247.8591	5835.85	4945.7
953.6276	2249.3271	5828.6	4938.65
953.7611	2250.7943	5815.35	4923.95
953.8945	2252.2608	5788.1	4897.15
954.0279	2253.7266	5768.25	4877.3
954.1612	2255.1917	5759.1	4868.25
954.2946	2256.656	5746.75	4857.1
954.4279	2258.1197	5706.2	4819.55
954.5612	2259.5826	5712.2	4822.7
954.6944	2261.0447	5694.5	4804.75
954.8276	2262.5062	5661.45	4769.6
954.9608	2263.9669	5650.55	4756.95
955.094	2265.4269	5666.45	4775.9
955.2271	2266.8862	5648.7	4759
955.3602	2268.3448	5625.5	4737.5
955.4933	2269.8026	5621.45	4733.75
955.6264	2271.2598	5584.85	4696.3
955.7594	2272.7162	5572.6	4682.9
955.8924	2274.1719	5562.5	4672.05
956.0253	2275.6268	5539.7	4647.5
956.1583	2277.0811	5547.7	4655.75
956.2912	2278.5346	5530.85	4640.9
956.4241	2279.9874	5527.55	4638.6
956.5569	2281.4395	5510.7	4624
956.6897	2282.8908	5497	4604
956.8225	2284.3414	5482.05	4589.4
956.9553	2285.7914	5453.8	4564.3
957.088	2287.2406	5438.8	4544.95
957.2207	2288.689	5434	4542
957.3534	2290.1368	5428.55	4532.9
957.486	2291.5838	5417.65	4520.55
957.6186	2293.0302	5408.7	4514.55
957.7512	2294.4758	5390.65	4495.8
957.8838	2295.9206	5355.35	4463.85
958.0163	2297.3648	5344.35	4454.05
958.1488	2298.8082	5341.1	4452.1
958.2813	2300.251	5315	4423.95
958.4137	2301.693	5296.2	4401.65
958.5461	2303.1343	5296.85	4403.05
958.6785	2304.5748	5266.5	4376.1
958.8108	2306.0147	5240.45	4349.5
958.9432	2307.4538	5250.2	4360.95
959.0754	2308.8922	5243.45	4357.2
959.2077	2310.3299	5194.05	4306.7
959.3399	2311.7669	5193.55	4305.95
959.4721	2313.2031	5188.55	4300.7
959.6043	2314.6387	5161.9	4271.9
959.7365	2316.0735	5134.25	4243.2
959.8686	2317.5076	5125.1	4232.8
960.0006	2318.941	5121.5	4229.75
960.1327	2320.3737	5105.3	4212
960.2647	2321.8056	5085.5	4192.35
960.3967	2323.2369	5072.1	4179.65
960.5287	2324.6674	5075.1	4181.5
960.6606	2326.0972	5054.6	4163.35
960.7925	2327.5263	5033.95	4144.75
960.9244	2328.9547	5022.45	4129.75
961.0562	2330.3823	5016.7	4123.35
961.1881	2331.8092	5015.4	4117.65
961.3198	2333.2355	5006.85	4115
961.4516	2334.661	4977.95	4083.3
961.5833	2336.0858	4972	4077.7
961.715	2337.5098	4945.2	4052.5
961.8467	2338.9332	4944.15	4051.3
961.9783	2340.3558	4919.65	4026.35
962.1099	2341.7778	4899.35	4011.5
962.2415	2343.199	4908.3	4016.7
962.373	2344.6195	4864.9	3975.15
962.5045	2346.0393	4851.3	3962.35
962.636	2347.4583	4857.2	3965.2
962.7675	2348.8767	4853.3	3958.7
962.8989	2350.2943	4826.9	3934.9
963.0303	2351.7113	4841.4	3946.5
963.1617	2353.1275	4823.7	3930.85
963.293	2354.543	4829.25	3909.3
963.4243	2355.9578	4793.35	3900.95
963.5556	2357.3718	4755.15	3868.55
963.6868	2358.7852	4753.8	3862.95
963.818	2360.1978	4723.5	3834.8
963.9492	2361.6098	4726.35	3837.3
964.0803	2363.021	4721.1	3825.9
964.2114	2364.4315	4689.55	3799.7
964.3425	2365.8413	4700.05	3803.65
964.4736	2367.2504	4675.2	3787.8
964.6046	2368.6587	4642.85	3754.45
964.7356	2370.0664	4615.1	3725.65
964.8666	2371.4733	4615.5	3724.5
964.9975	2372.8795	4607.95	3718.3
965.1284	2374.285	4596.5	3707.5
965.2593	2375.6899	4571.8	3683.2
965.3901	2377.0939	4548.05	3659.6
965.5209	2378.4973	4529.1	3639.95
965.6517	2379.9	4515.6	3626.85
965.7825	2381.3019	4514.15	3624.2
965.9132	2382.7032	4500.9	3614.3
966.0439	2384.1037	4490.45	3605
966.1745	2385.5035	4473.95	3587.95
966.3051	2386.9027	4467.25	3582.1
966.4357	2388.3011	4447.75	3558.85
966.5663	2389.6987	4424.6	3536.55
966.6968	2391.0957	4423.15	3534.75
966.8273	2392.492	4402.95	3514.2
966.9578	2393.8876	4373.1	3486.1
967.0882	2395.2824	4377.6	3492.2
967.2186	2396.6765	4363.35	3477.15
967.349	2398.07	4348.9	3460.75
967.4793	2399.4627	4331	3439.8
967.6097	2400.8547	4338.4	3447.95
967.7399	2402.246	4326.85	3430.6
967.8702	2403.6366	4288.05	3397.9
968.0004	2405.0265	4266.65	3379
968.1306	2406.4156	4255.4	3364.3
968.2607	2407.8041	4251.3	3360.3
968.3909	2409.1918	4235.1	3344.25
968.521	2410.5789	4220.5	3330.7
968.651	2411.9652	4211.25	3321.95
968.781	2413.3508	4203.7	3314.2
968.911	2414.7358	4176.8	3287.2
969.041	2416.12	4180.2	3292.8
969.1709	2417.5035	4159.2	3269.25
969.3008	2418.8863	4156.75	3268.55
969.4307	2420.2684	4151.1	3262.05
969.5606	2421.6497	4110.05	3218.35
969.6904	2423.0304	4103.95	3216.5
969.8201	2424.4104	4096	3206.55
969.9499	2425.7896	4088.7	3198.05
970.0796	2427.1682	4079.45	3189.05
970.2093	2428.546	4060.45	3168.9
970.3389	2429.9232	4055.75	3168.15
970.4685	2431.2996	4040.25	3150.75
970.5981	2432.6753	4045.75	3155.55
970.7277	2434.0503	4036.85	3146.25
970.8572	2435.4246	4016	3128.55
970.9867	2436.7982	4012.45	3121.75
971.1161	2438.1711	3986.55	3097.15
971.2456	2439.5433	3973.9	3083.4
971.375	2440.9148	3974.05	3080.9
971.5043	2442.2856	3957.75	3068.6
971.6336	2443.6557	3944.75	3055.7
971.7629	2445.025	3932.85	3041.35
971.8922	2446.3937	3913.45	3019.95
972.0214	2447.7617	3913.95	3022.85
972.1506	2449.1289	3926.25	3037.85
972.2798	2450.4955	3894.45	3001
972.4089	2451.8613	3890	3001.45
972.538	2453.2265	3871.4	2981.3
972.6671	2454.5909	3870.3	2980.7
972.7961	2455.9546	3851.6	2962.9
972.9251	2457.3177	3851.45	2960.9
973.0541	2458.68	3851.15	2961.2
973.1831	2460.0416	3845.65	2956.95
973.312	2461.4025	3834	2943.8
973.4408	2462.7627	3825.35	2924.15
973.5697	2464.1222	3814.95	2927.7
973.6985	2465.4811	3797.55	2909.65
973.8273	2466.8392	3786.3	2897.6
973.956	2468.1966	3785.4	2893
974.0847	2469.5533	3785.6	2892.4
974.2134	2470.9093	3781.8	2892.65
974.3421	2472.2645	3769.55	2879.25
974.4707	2473.6191	3752.85	2864
974.5993	2474.973	3723.3	2832.5
974.7278	2476.3262	3715	2824.1
974.8563	2477.6787	3698.6	2810.15
974.9848	2479.0305	3688.2	2799
975.1132	2480.3816	3692.55	2801.35
975.2417	2481.7319	3672.65	2783.15
975.37	2483.0816	3663.3	2772.45
975.4984	2484.4306	3667.95	2777.5
975.6267	2485.7789	3644.8	2755.95
975.755	2487.1264	3639.9	2747.85
975.8833	2488.4733	3627.05	2738.95
976.0115	2489.8195	3619.45	2722.6
976.1397	2491.165	3612.8	2721.25
976.2678	2492.5097	3602.55	2711.05
976.3959	2493.8538	3581.4	2693.4
976.524	2495.1972	3566.35	2678.65
976.6521	2496.5398	3556.55	2665.95
976.7801	2497.8818	3548.85	2657.15
976.9081	2499.2231	3548.8	2657.4
977.036	2500.5637	3536	2644.55
977.164	2501.9035	3530.05	2638.15
977.2918	2503.2427	3513.3	2619.9
977.4197	2504.5812	3503.05	2614
977.5475	2505.919	3490.3	2599.5
977.6753	2507.256	3489.85	2600.9
977.8031	2508.5924	3476.85	2587
977.9308	2509.9281	3470.5	2575.25
978.0585	2511.2631	3467.2	2576.15
978.1861	2512.5974	3449.1	2561.5
978.3137	2513.9309	3439.2	2548.55
978.4413	2515.2638	3442.15	2526.9
978.5689	2516.596	3421.5	2531
978.6964	2517.9275	3428	2536.75
978.8239	2519.2583	3409.6	2518.7
978.9513	2520.5884	3395.05	2506.55
979.0788	2521.9178	3366.4	2475.15
979.2062	2523.2465	3369.55	2482
979.3335	2524.5745	3347.4	2459.1
979.4608	2525.9018	3347.7	2457.05
979.5881	2527.2284	3335.65	2447.7
979.7154	2528.5543	3334.3	2446.35
979.8426	2529.8796	3336.65	2446.75
979.9698	2531.2041	3333	2443.7
980.0969	2532.5279	3328.9	2442.05
980.224	2533.851	3315.3	2426.65
980.3511	2535.1735	3310.2	2421.45
980.4781	2536.4952	3299.05	2408.55
980.6052	2537.8163	3297.95	2407.65
980.7321	2539.1366	3287.8	2398.2
980.8591	2540.4562	3279.1	2386.6
980.986	2541.7752	3265.85	2375.85
981.1129	2543.0935	3272.35	2382.15
981.2397	2544.411	3255.5	2363.3
981.3665	2545.7279	3249.2	2359.75
981.4933	2547.0441	3240.35	2349.7
981.62	2548.3596	3248.35	2355.4
981.7467	2549.6744	3225.4	2336.05
981.8734	2550.9885	3226.2	2328.7
982.0001	2552.3019	3218.55	2326.5
982.1267	2553.6146	3210.3	2321.5
982.2532	2554.9266	3194.75	2304.65
982.3798	2556.2379	3195.5	2303.35
982.5063	2557.5485	3174.7	2286.6
982.6327	2558.8585	3189.55	2293.15
982.7592	2560.1677	3178	2283.4
982.8856	2561.4762	3169.15	2278.35
983.0119	2562.7841	3181.55	2286.1
983.1383	2564.0913	3153.7	2264.1
983.2646	2565.3977	3151.45	2261.3
983.3908	2566.7035	3151.7	2260.45
983.517	2568.0086	3142.6	2248.4
983.6432	2569.313	3147.7	2255.75
983.7694	2570.6167	3144.4	2251.95
983.8955	2571.9197	3128.5	2239.85
984.0216	2573.222	3112.45	2219.45
984.1476	2574.5236	3095.35	2203.75
984.2737	2575.8246	3108	2216
984.3996	2577.1248	3102.75	2211.4
984.5256	2578.4244	3093.35	2201.95
984.6515	2579.7232	3088.7	2199.1
984.7774	2581.0214	3113.65	2191.6
984.9032	2582.3189	3094.6	2204.45
985.029	2583.6157	3087.05	2194.8
985.1548	2584.9118	3083.9	2195
985.2806	2586.2072	3075.8	2184.4
985.4063	2587.5019	3065.75	2175.15
985.5319	2588.7959	3058.8	2167.45
985.6576	2590.0893	3056.2	2164.45
985.7832	2591.3819	3056.4	2167.3
985.9087	2592.6739	3052.8	2163
986.0343	2593.9652	3055.7	2163.95
986.1597	2595.2557	3049.5	2155.85
986.2852	2596.5456	3032.8	2140.5
986.4106	2597.8348	3024.4	2133.6
986.536	2599.1234	3025.45	2136.15
986.6614	2600.4112	3026.2	2135.85
986.7867	2601.6983	3012.1	2119.5
986.912	2602.9848	3000.65	2109.95
987.0372	2604.2705	3001.15	2105.55
987.1624	2605.5556	3002.5	2113.15
987.2876	2606.84	2977.65	2087.75
987.4128	2608.1237	2970.35	2079.55
987.5379	2609.4067	2962.15	2070.15
987.6629	2610.689	2957.95	2058.8
987.788	2611.9707	2958.05	2063.9
987.913	2613.2516	2950.65	2055.05
988.0379	2614.5319	2923.7	2031.45
988.1629	2615.8115	2925.3	2034.5
988.2878	2617.0903	2921.85	2028.8
988.4126	2618.3685	2898.7	2009.1
988.5375	2619.6461	2898.75	2010.25
988.6622	2620.9229	2897.25	2006.3
988.787	2622.199	2895.65	2005.8
988.9117	2623.4745	2881.75	1989.05
989.0364	2624.7493	2880.25	1989.15
989.161	2626.0234	2883.7	1995.05
989.2857	2627.2968	2868.25	1978.85
989.4102	2628.5695	2863.45	1973.7
989.5348	2629.8415	2852.2	1960.7
989.6593	2631.1128	2838.7	1947.25
989.7837	2632.3835	2834.8	1945.4
989.9082	2633.6535	2827.95	1936.5
990.0326	2634.9228	2836.55	1947.6
990.1569	2636.1914	2815.5	1924.55
990.2812	2637.4593	2824	1933.65
990.4055	2638.7265	2809.35	1917.25
990.5298	2639.9931	2804.7	1914.55
990.654	2641.259	2777.75	1886.15
990.7782	2642.5242	2778.7	1888.25
990.9023	2643.7887	2768.45	1879
991.0264	2645.0525	2770.2	1879.85
991.1505	2646.3156	2760.85	1866.9
991.2745	2647.5781	2757.55	1867.5
991.3985	2648.8398	2745.25	1853.5
991.5225	2650.1009	2767.95	1853.45
991.6464	2651.3613	2745.55	1853.65
991.7703	2652.6211	2736.05	1845.65
991.8942	2653.8801	2721.7	1834.05
992.018	2655.1385	2728.75	1837.5
992.1418	2656.3961	2718.6	1830.3
992.2655	2657.6531	2720.8	1831.8
992.3892	2658.9094	2703.3	1812.5
992.5129	2660.1651	2704.65	1815.2
992.6366	2661.42	2704.9	1814.65
992.7602	2662.6743	2691.8	1801.4
992.8837	2663.9279	2697.65	1809.6
993.0073	2665.1808	2688.2	1798.1
993.1307	2666.433	2699.6	1808.1
993.2542	2667.6846	2681.65	1793.2
993.3776	2668.9354	2694.2	1802.65
993.501	2670.1856	2682.55	1791.3
993.6244	2671.4351	2675.85	1785.6
993.7477	2672.6839	2676.4	1785.3
993.8709	2673.9321	2666.85	1777.6
993.9942	2675.1795	2657.85	1769.65
994.1174	2676.4263	2671.75	1782.9
994.2405	2677.6724	2660.05	1769.95
994.3637	2678.9179	2659.9	1769.3
994.4868	2680.1626	2656.3	1769.25
994.6098	2681.4067	2656.75	1764.5
994.7328	2682.6501	2656.3	1767.9
994.8558	2683.8928	2643.95	1754.55
994.9788	2685.1348	2641.8	1752.45
995.1017	2686.3761	2624.95	1737.05
995.2245	2687.6168	2619.45	1730.65
995.3474	2688.8568	2606.25	1717.4
995.4702	2690.0961	2600.65	1711.9
995.5929	2691.3348	2608.15	1718.8
995.7156	2692.5727	2580.7	1691.9
995.8383	2693.81	2578.5	1689.25
995.961	2695.0466	2576.85	1688.3
996.0836	2696.2826	2566.85	1674.7
996.2062	2697.5178	2570.35	1675.5
996.3287	2698.7524	2557.8	1668.35
996.4512	2699.9863	2561.65	1669.7
996.5737	2701.2195	2547.35	1659.3
996.6961	2702.452	2561.15	1670.3
996.8185	2703.6839	2549.15	1659.25
996.9408	2704.9151	2554.55	1666.2
997.0631	2706.1456	2547.1	1656.7
997.1854	2707.3755	2551.85	1663.25
997.3077	2708.6046	2553.2	1662.45
997.4299	2709.8331	2561.35	1674.95
997.552	2711.0609	2561.9	1674.05
997.6742	2712.2881	2568.8	1679.55
997.7963	2713.5145	2571.2	1681.85
997.9183	2714.7403	2572.75	1683.4
998.0403	2715.9654	2587.9	1698
998.1623	2717.1899	2597.2	1694.2
998.2842	2718.4136	2594.7	1705.25
998.4062	2719.6367	2594.7	1708.15
998.528	2720.8591	2610.85	1715.6
998.6498	2722.0809	2605.9	1719.9
998.7716	2723.3019	2618.8	1726.55
998.8934	2724.5223	2633.2	1741.3
999.0151	2725.7421	2622.95	1732.75
999.1368	2726.9611	2636.35	1746.05
999.2584	2728.1795	2613.85	1720.95
999.38	2729.3972	2599.65	1712.85
999.5016	2730.6142	2592.1	1691.1
999.6231	2731.8306	2564.6	1674.35
999.7446	2733.0462	2543.8	1652.6
999.8661	2734.2612	2518.5	1625.6
999.9875	2735.4756	2504.5	1615.75
1000.1089	2736.6892	2489.05	1600.35
1000.2302	2737.9022	2463.1	1575.65
1000.3515	2739.1145	2435.75	1548.85
1000.4728	2740.3262	2430.15	1532
1000.594	2741.5372	2400.75	1511.7
1000.7152	2742.7475	2398.45	1508.75
1000.8363	2743.9571	2382.55	1490.95
1000.9575	2745.1661	2377.85	1486.2
1001.0785	2746.3744	2361.55	1472.7
1001.1996	2747.582	2349.15	1462.6
1001.3206	2748.7889	2331.65	1443.5
1001.4415	2749.9952	2322.1	1434.75
1001.5625	2751.2008	2315.55	1428.75
1001.6833	2752.4057	2316.9	1425.25
1001.8042	2753.61	2299.7	1410
1001.925	2754.8136	2304	1414.05
1002.0458	2756.0165	2283.8	1394.75
1002.1665	2757.2188	2285.1	1397.4
1002.2872	2758.4204	2289.35	1401.05
1002.4078	2759.6213	2281.9	1392.15
1002.5285	2760.8215	2267.1	1375.05
1002.649	2762.0211	2275.8	1383.85
1002.7696	2763.22	2262.9	1371.55
1002.8901	2764.4182	2256.5	1368.15
1003.0106	2765.6158	2254.35	1367.45
1003.131	2766.8127	2244.35	1357
1003.2514	2768.009	2231.75	1344.4
1003.3717	2769.2045	2232.5	1345.35
1003.492	2770.3994	2225.05	1332.55
1003.6123	2771.5936	2223.25	1336.15
1003.7325	2772.7872	2208.75	1322.55
1003.8527	2773.9801	2216.75	1328.2
1003.9729	2775.1723	2214.25	1309.25
1004.093	2776.3639	2200.8	1313.55
1004.2131	2777.5548	2207.1	1319.1
1004.3331	2778.745	2192.1	1305.35
1004.4531	2779.9346	2191	1305.5
1004.5731	2781.1235	2201.55	1314.85
1004.693	2782.3117	2192.6	1305.7
1004.8129	2783.4992	2188.45	1304
1004.9328	2784.6861	2194.8	1308.65
1005.0526	2785.8723	2200.05	1309.5
1005.1723	2787.0579	2202.95	1315.45
1005.2921	2788.2428	2208.7	1322.5
1005.4118	2789.427	2212.05	1327.15
1005.5314	2790.6106	2211.6	1325
1005.651	2791.7935	2224.15	1337.25
1005.7706	2792.9757	2234.75	1350
1005.8902	2794.1573	2248.35	1357.55
1006.0097	2795.3382	2236	1350.45
1006.1291	2796.5184	2259.05	1374.05
1006.2485	2797.698	2274.85	1386.25
1006.3679	2798.8769	2290.15	1402.55
1006.4873	2800.0551	2299.25	1411.9
1006.6066	2801.2327	2324.1	1437.1
1006.7258	2802.4096	2341.35	1455.9
1006.8451	2803.5859	2349.55	1463.6
1006.9642	2804.7615	2384.3	1496.4
1007.0834	2805.9364	2392.4	1507.3
1007.2025	2807.1106	2423.65	1537.45
1007.3216	2808.2842	2447.4	1560
1007.4406	2809.4572	2461.75	1573.9
1007.5596	2810.6294	2509.45	1621.75
1007.6785	2811.801	2552.85	1666.9
1007.7975	2812.972	2590.05	1704.85
1007.9163	2814.1423	2631.85	1745.1
1008.0352	2815.3119	2684.85	1798.7
1008.154	2816.4808	2741.3	1854.6
1008.2727	2817.6491	2767.7	1881.45
1008.3914	2818.8167	2819	1934.85
1008.5101	2819.9837	2867.95	1978.15
1008.6288	2821.15	2905.05	2018.2
1008.7474	2822.3157	2947.35	2061.65
1008.8659	2823.4807	2984.9	2098.4
1008.9844	2824.645	3041.05	2151.4
1009.1029	2825.8086	3075.85	2188.45
1009.2214	2826.9716	3112.55	2225.65
1009.3398	2828.134	3138.85	2252.45
1009.4581	2829.2957	3191.05	2303.75
1009.5764	2830.4567	3204.4	2319
1009.6947	2831.617	3213.45	2328.35
1009.813	2832.7767	3231.25	2347.4
1009.9312	2833.9358	3220.35	2333
1010.0493	2835.0941	3213.85	2325.8
1010.1675	2836.2519	3205.65	2319.95
1010.2855	2837.4089	3189.65	2303.05
1010.4036	2838.5653	3186.2	2301.45
1010.5216	2839.7211	3189.7	2305.2
1010.6396	2840.8761	3198	2310
1010.7575	2842.0306	3216.75	2329.1
1010.8754	2843.1843	3260.05	2374.2
1010.9932	2844.3374	3303.3	2417.5
1011.111	2845.4899	3367.6	2479.7
1011.2288	2846.6417	3434.3	2550.25
1011.3465	2847.7928	3510.55	2625.35
1011.4642	2848.9433	3602.45	2717.45
1011.5818	2850.0931	3675.4	2788.1
1011.6995	2851.2422	3768.85	2881.75
1011.817	2852.3907	3817.15	2930.1
1011.9345	2853.5385	3894.35	3007.25
1012.052	2854.6857	3944.25	3051.6
1012.1695	2855.8323	3994.05	3107.75
1012.2869	2856.9781	4038.95	3153
1012.4042	2858.1233	4080.15	3195.6
1012.5216	2859.2679	4131.1	3244.75
1012.6389	2860.4118	4170.25	3285.35
1012.7561	2861.555	4229.45	3337.15
1012.8733	2862.6976	4249.65	3361.95
1012.9905	2863.8395	4269.5	3383.7
1013.1076	2864.9808	4308.95	3423.2
1013.2247	2866.1214	4290.25	3407.05
1013.3417	2867.2614	4321.45	3434.05
1013.4587	2868.4007	4329.15	3443.05
1013.5757	2869.5393	4339.55	3453.65
1013.6926	2870.6773	4331.05	3441.85
1013.8095	2871.8146	4355.25	3466.75
1013.9263	2872.9513	4354.55	3466.4
1014.0431	2874.0874	4339.05	3452.6
1014.1599	2875.2227	4314.9	3429.9
1014.2766	2876.3574	4312.6	3428.1
1014.3933	2877.4915	4275.1	3391.15
1014.51	2878.6249	4260.3	3375.05
1014.6266	2879.7577	4230.45	3344.1
1014.7431	2880.8898	4224	3327.25
1014.8596	2882.0212	4187.3	3302.3
1014.9761	2883.152	4190.35	3305.4
1015.0925	2884.2821	4149.35	3266.6
1015.2089	2885.4116	4165.95	3281.55
1015.3253	2886.5405	4163.45	3279.95
1015.4416	2887.6686	4157.3	3267.8
1015.5579	2888.7962	4148.5	3264.75
1015.6741	2889.923	4173.65	3288.55
1015.7903	2891.0493	4166.5	3281.6
1015.9065	2892.1748	4198.35	3314.85
1016.0226	2893.2997	4183.8	3297.95
1016.1387	2894.424	4194.55	3309.8
1016.2547	2895.5476	4209.45	3327.8
1016.3707	2896.6706	4239.65	3355.5
1016.4866	2897.7929	4271.4	3383.8
1016.6025	2898.9145	4293.25	3409.1
1016.7184	2900.0355	4321.8	3435.25
1016.8342	2901.1559	4356.9	3470.2
1016.95	2902.2756	4366.4	3481.7
1017.0658	2903.3946	4425.5	3539.75
1017.1815	2904.513	4432.05	3543.45
1017.2971	2905.6308	4451.65	3566.3
1017.4127	2906.7479	4483.4	3598.2
1017.5283	2907.8643	4515.3	3628.7
1017.6439	2908.9801	4521	3636.1
1017.7594	2910.0953	4521.15	3636.85
1017.8748	2911.2098	4513.4	3624.7
1017.9902	2912.3236	4519.5	3627.15
1018.1056	2913.4368	4492.4	3603.75
1018.2209	2914.5494	4475.9	3592.4
1018.3362	2915.6613	4432.05	3542.4
1018.4515	2916.7725	4415.8	3526.6
1018.5667	2917.8831	4378.9	3493.3
1018.6819	2918.9931	4358.85	3472.3
1018.797	2920.1024	4305.6	3420.9
1018.9121	2921.211	4274.9	3391.8
1019.0271	2922.319	4262.7	3377.75
1019.1421	2923.4264	4249.4	3363.6
1019.2571	2924.5331	4228.95	3346.85
1019.372	2925.6391	4223.95	3339.5
1019.4869	2926.7445	4196.95	3314.6
1019.6017	2927.8493	4187.6	3301.85
1019.7165	2928.9534	4193.45	3308.7
1019.8313	2930.0569	4180.25	3292
1019.946	2931.1597	4178.05	3292.25
1020.0606	2932.2619	4153.5	3269.65
1020.1753	2933.3634	4150.75	3265.3
1020.2899	2934.4643	4137.55	3246.55
1020.4044	2935.5645	4114.75	3222.9
1020.5189	2936.6641	4072.55	3185.55
1020.6334	2937.763	4010.25	3125.85
1020.7478	2938.8613	3970.8	3088.8
1020.8622	2939.959	3908.95	3020.1
1020.9765	2941.056	3822.75	2937.1
1021.0908	2942.1523	3741.3	2855.7
1021.2051	2943.248	3659.9	2776.25
1021.3193	2944.3431	3551.65	2668.4
1021.4334	2945.4375	3444.55	2560.65
1021.5476	2946.5313	3334.3	2453
1021.6617	2947.6244	3215.5	2331.45
1021.7757	2948.7169	3123.4	2238.9
1021.8897	2949.8087	3032.25	2147.95
1022.0037	2950.8999	2943.6	2060.3
1022.1176	2951.9904	2850.4	1965
1022.2315	2953.0803	2773.9	1888.5
1022.3453	2954.1696	2716.65	1831.85
1022.4591	2955.2582	2667.35	1783.6
1022.5728	2956.3462	2612.2	1727.35
1022.6865	2957.4335	2574.4	1691.05
1022.8002	2958.5202	2545.1	1657.65
1022.9138	2959.6062	2515.95	1631.25
1023.0274	2960.6916	2481.15	1598.15
1023.141	2961.7764	2472	1586.45
1023.2545	2962.8605	2447.55	1562
1023.3679	2963.9439	2432.15	1549.4
1023.4813	2965.0267	2421.6	1537.1
1023.5947	2966.1089	2430.35	1522.55
1023.708	2967.1905	2408.6	1526.05
1023.8213	2968.2714	2395.6	1512.3
1023.9346	2969.3516	2405.9	1522.1
1024.0478	2970.4312	2405.1	1514.85
1024.1609	2971.5102	2390.15	1506.15
1024.274	2972.5885	2396.15	1512.05
1024.3871	2973.6662	2384.7	1495.7
1024.5002	2974.7432	2388.3	1504
1024.6132	2975.8196	2375.35	1491.95
1024.7261	2976.8954	2366.85	1482.55
1024.839	2977.9705	2365.9	1482
1024.9519	2979.045	2339.7	1457.7
1025.0647	2980.1188	2324.5	1442.3
1025.1775	2981.192	2300.9	1418.85
1025.2902	2982.2645	2271.35	1385.25
1025.4029	2983.3364	2251.85	1367.3
1025.5156	2984.4077	2215.5	1331.5
1025.6282	2985.4783	2192.7	1301.25
1025.7407	2986.5483	2158.7	1276.35
1025.8532	2987.6177	2117.45	1234.25
1025.9657	2988.6864	2079.8	1195.8
1026.0782	2989.7545	2040.3	1155.2
1026.1906	2990.8219	2003.9	1121.25
1026.3029	2991.8887	1975.1	1089.3
1026.4152	2992.9548	1944.2	1058.15
1026.5275	2994.0204	1907.1	1022.1
1026.6397	2995.0852	1879.1	995.75
1026.7519	2996.1495	1863	978.65
1026.864	2997.2131	1832.95	948.9
1026.9761	2998.276	1805.75	922.3
1027.0882	2999.3383	1795.95	912.1
1027.2002	3000.4	1762.9	877.05
1027.3122	3001.4611	1747.7	864.35
1027.4241	3002.5215	1736.65	853.5
1027.536	3003.5812	1718.85	834
1027.6478	3004.6404	1709.2	827.05
1027.7596	3005.6989	1697.3	811.35
1027.8714	3006.7567	1683.1	799.25
1027.9831	3007.8139	1695.8	794
1028.0947	3008.8705	1668.85	785.1
1028.2064	3009.9264	1678.1	776.85
1028.3179	3010.9818	1660.6	778.35
1028.4295	3012.0364	1654.5	770.45
1028.541	3013.0905	1651.65	769.1
1028.6524	3014.1439	1650.8	766.55
1028.7638	3015.1966	1659.5	776
1028.8752	3016.2487	1650.1	768.55
1028.9865	3017.3002	1654.95	764.2
1029.0978	3018.3511	1634.9	751.85
1029.209	3019.4013	1643.2	760.45
1029.3202	3020.4509	1632.4	750.3
1029.4314	3021.4998	1638.4	754.55
1029.5425	3022.5481	1640.65	755.65
1029.6535	3023.5958	1632.8	751.95
1029.7645	3024.6428	1635.95	753.9
1029.8755	3025.6892	1638.75	756.35
1029.9864	3026.735	1644.7	761.75
1030.0973	3027.7802	1640.9	758.55
1030.2082	3028.8247	1637.65	755.1
1030.319	3029.8685	1644	760.35
1030.4297	3030.9118	1648	762.8
1030.5404	3031.9544	1642.2	761.5
1030.6511	3032.9963	1655.45	772.2
1030.7617	3034.0376	1653.6	771.05
1030.8723	3035.0783	1667.65	782.1
1030.9829	3036.1184	1658.25	773.2
1031.0934	3037.1578	1668.75	786.05
1031.2038	3038.1966	1673.2	788.4
1031.3142	3039.2348	1661.65	778.55
1031.4246	3040.2723	1671.9	777.65
1031.5349	3041.3092	1656.2	773.5
1031.6452	3042.3455	1666.8	784.5
1031.7554	3043.3811	1645.1	760.9
1031.8656	3044.4161	1650.9	767.85
1031.9758	3045.4505	1639.65	758.05
1032.0859	3046.4842	1634.85	751.4
1032.1959	3047.5173	1630.4	749.6
1032.3059	3048.5498	1612.25	728.15
1032.4159	3049.5816	1610.5	730.35
1032.5258	3050.6128	1600.35	718.3
1032.6357	3051.6434	1598.15	714.1
1032.7455	3052.6734	1589.6	706.45
1032.8553	3053.7027	1579.4	695.1
1032.9651	3054.7314	1578.8	696.7
1033.0748	3055.7594	1564.85	684.45
1033.1845	3056.7868	1560.25	675.2
1033.2941	3057.8136	1556.7	674.85
1033.4037	3058.8398	1541.55	659.6
1033.5132	3059.8653	1534.8	650.45
1033.6227	3060.8902	1535.9	652.1
1033.7321	3061.9145	1526.55	643.9
1033.8415	3062.9381	1517.35	635
1033.9509	3063.9612	1525.65	626.95
1034.0602	3064.9835	1510.15	628.45
1034.1694	3066.0053	1508.35	624.7
1034.2787	3067.0264	1486.25	605.75
1034.3878	3068.0469	1487.95	602.8
1034.497	3069.0668	1473.45	589.15
1034.6061	3070.086	1458.15	575.95
1034.7151	3071.1046	1457	571.5
1034.8241	3072.1226	1445.7	562.05
1034.9331	3073.1399	1432.65	550
1035.042	3074.1567	1428.4	547.4
1035.1508	3075.1727	1415.35	529.9
1035.2597	3076.1882	1406.7	523.95
1035.3684	3077.203	1394.25	510.9
1035.4772	3078.2173	1386.55	504.35
1035.5859	3079.2308	1387.35	501.4
1035.6945	3080.2438	1369.85	485.25
1035.8031	3081.2561	1355.35	472
1035.9117	3082.2678	1349.65	467.95
1036.0202	3083.2789	1349.3	467.4
1036.1286	3084.2893	1336.8	453.95
1036.2371	3085.2991	1331.85	449.3
1036.3454	3086.3083	1323.65	438.9
1036.4538	3087.3169	1319.1	435.15
1036.562	3088.3248	1316	431.85
1036.6703	3089.3321	1309.6	424.95
1036.7785	3090.3388	1299.95	418.5
1036.8866	3091.3449	1292.05	409.75
1036.9948	3092.3503	1291.25	405.75
1037.1028	3093.3551	1287.95	407.85
1037.2108	3094.3593	1278.7	396.7
1037.3188	3095.3629	1275.25	394.9
1037.4267	3096.3658	1270.35	386.9
1037.5346	3097.3681	1277.2	395.2
1037.6425	3098.3698	1265.65	382.2
1037.7503	3099.3708	1272.95	383.7
1037.858	3100.3713	1260.1	377.6
1037.9657	3101.3711	1263.25	379.9
1038.0734	3102.3702	1387.55	370.5
1038.181	3103.3688	1260.5	376.15
1038.2886	3104.3667	1242.5	362.35
1038.3961	3105.364	1238.8	358.95
1038.5036	3106.3607	1238.95	355.45
1038.611	3107.3568	1240.7	358.35
1038.7184	3108.3522	1235.65	354.05
1038.8257	3109.347	1235.4	353.15
1038.933	3110.3412	1237.1	352.15
1039.0403	3111.3348	1225.55	343.15
1039.1475	3112.3277	1224.8	341.9
1039.2547	3113.32	1222.15	341.35
1039.3618	3114.3117	1221.45	340.8
1039.4689	3115.3028	1217.65	335.15
1039.5759	3116.2932	1218.3	335.75
1039.6829	3117.2831	1221.95	334.6
1039.7898	3118.2723	1211.3	329.05
1039.8967	3119.2608	1208.2	327.05
1040.0035	3120.2488	1207.5	324.8
1040.1103	3121.2361	1209.7	327.95
1040.2171	3122.2229	1199.4	318.95
1040.3238	3123.209	1204.1	320.5
1040.4305	3124.1944	1198.85	319.4
1040.5371	3125.1793	1200.3	317.95
1040.6437	3126.1635	1192.8	311.55
1040.7502	3127.1471	1193.75	308.85
1040.8567	3128.1301	1192.85	310.2
1040.9631	3129.1125	1188.45	307.35
1041.0695	3130.0942	1186.15	305.5
1041.1759	3131.0753	1197.8	307.45
1041.2822	3132.0558	1183.9	298.45
1041.3884	3133.0357	1181.4	298.1
1041.4946	3134.015	1175.4	291.95
1041.6008	3134.9936	1179.05	296.1
1041.7069	3135.9716	1201.6	302.05
1041.813	3136.949	1175.95	295.5
1041.919	3137.9258	1189.35	287.15
1042.025	3138.902	1178.65	292.85
1042.1309	3139.8775	1166.3	286.1
1042.2368	3140.8524	1167.65	286.65
1042.3427	3141.8267	1166.15	280.7
1042.4485	3142.8004	1161.2	278.05
1042.5542	3143.7735	1169.95	282.4
1042.6599	3144.7459	1164.5	279.95
1042.7656	3145.7178	1156.2	274.4
1042.8712	3146.689	1152.25	270.55
1042.9768	3147.6596	1155.8	272.75
1043.0823	3148.6295	1159.9	277.6
1043.1878	3149.5989	1151.7	270.7
1043.2932	3150.5676	1148.2	268
1043.3986	3151.5357	1146.5	266.2
1043.5039	3152.5032	1147.2	266.8
1043.6092	3153.4701	1145.1	265.7
1043.7145	3154.4364	1142.8	260.2
1043.8197	3155.402	1140.95	261
1043.9248	3156.367	1137.8	255.9
1044.03	3157.3315	1162.6	255.3
1044.135	3158.2952	1134.35	253.4
1044.24	3159.2584	1136.4	255.6
1044.345	3160.221	1134.35	252.55
1044.4499	3161.1829	1125.9	245.35
1044.5548	3162.1442	1132.25	250.95
1044.6596	3163.105	1128.15	245.6
1044.7644	3164.065	1130.95	249.35
1044.8692	3165.0245	1123.25	238.9
1044.9739	3165.9834	1122.1	243.45
1045.0785	3166.9416	1118.2	237.55
1045.1831	3167.8993	1122.6	241.1
1045.2877	3168.8563	1119.55	237.35
1045.3922	3169.8127	1114.75	234.45
1045.4966	3170.7684	1119.8	239.15
1045.6011	3171.7236	1111.85	229.25
1045.7054	3172.6782	1114.7	232.7
1045.8098	3173.6321	1113.45	231.35
1045.914	3174.5854	1109.6	222.75
1046.0183	3175.5381	1109.75	229.3
1046.1224	3176.4902	1107.25	225.85
1046.2266	3177.4417	1107.85	228.1
1046.3307	3178.3926	1101.95	222.75
1046.4347	3179.3428	1098.35	218.3
1046.5387	3180.2924	1101	220.3
1046.6427	3181.2415	1105.8	225.45
1046.7466	3182.1899	1102.15	219.5
1046.8504	3183.1377	1102.65	221.35
1046.9542	3184.0848	1106	218.8
1047.058	3185.0314	1098.55	215.4
1047.1617	3185.9773	1095.65	212.7
1047.2654	3186.9227	1098.15	215.3
1047.369	3187.8674	1094.8	212.5
1047.4726	3188.8115	1092	208.1
1047.5761	3189.755	1090.7	209.9
1047.6796	3190.6979	1086.45	206.7
1047.783	3191.6402	1092.45	212.45
1047.8864	3192.5818	1084.6	204.5
1047.9898	3193.5229	1096.7	208.2
1048.0931	3194.4633	1089.8	206.45
1048.1963	3195.4031	1084.9	204.35
1048.2995	3196.3423	1080.8	198.6
1048.4027	3197.2809	1086.45	206.4
1048.5058	3198.2189	1082.65	201.1
1048.6089	3199.1563	1085.45	195.15
1048.7119	3200.0931	1075.05	194.15
1048.8148	3201.0292	1076.05	194.55
1048.9178	3201.9648	1075.35	195.5
1049.0206	3202.8997	1077.15	191.25
1049.1235	3203.834	1070.55	190.25
1049.2262	3204.7677	1073.6	193.35
1049.329	3205.7008	1075.45	191.75
1049.4317	3206.6333	1068.2	188.9
1049.5343	3207.5652	1075.35	191.25
1049.6369	3208.4964	1070.8	188.5
1049.7394	3209.4271	1069	188.1
1049.8419	3210.3571	1069.25	188.6
1049.9444	3211.2865	1065.35	182.15
1050.0468	3212.2154	1066.1	184.5
1050.1491	3213.1436	1071.45	187.9
1050.2514	3214.0712	1073.2	187.2
1050.3537	3214.9982	1063.4	183.5
1050.4559	3215.9246	1062	181.9
1050.5581	3216.8503	1058.05	179.05
1050.6602	3217.7755	1059.2	178.3
1050.7623	3218.7001	1058	177.4
1050.8643	3219.624	1058.65	179.1
1050.9663	3220.5473	1058.05	177.15
1051.0682	3221.4701	1062.65	180.1
1051.1701	3222.3922	1057.7	173.6
1051.2719	3223.3137	1055.4	175.55
1051.3737	3224.2346	1053.2	172.75
1051.4754	3225.1549	1054.4	173.15
1051.5771	3226.0746	1051	171.25
1051.6788	3226.9937	1052.95	172
1051.7804	3227.9121	1048.2	167.7
1051.8819	3228.83	1048.85	168.1
1051.9834	3229.7473	1044.15	163.85
1052.0849	3230.6639	1045.25	162.85
1052.1863	3231.5799	1048.25	168.5
1052.2876	3232.4954	1047.8	165.95
1052.3889	3233.4102	1043.5	164.2
1052.4902	3234.3244	1044.8	161.75
1052.5914	3235.238	1043.95	165.05
1052.6926	3236.151	1064.15	158.4
1052.7937	3237.0634	1039.45	160.4
1052.8948	3237.9752	1043.9	162.95
1052.9958	3238.8864	1040.3	160.2
1053.0968	3239.797	1042.3	161.3
1053.1977	3240.7069	1036.35	155.75
1053.2986	3241.6163	1040.25	156.9
1053.3994	3242.5251	1035.95	155.15
1053.5002	3243.4332	1030.1	150.9
1053.6009	3244.3408	1036	155.7
1053.7016	3245.2477	1028.8	147.7
1053.8022	3246.154	1035.1	154.65
1053.9028	3247.0598	1029.6	150.4
1054.0034	3247.9649	1028.65	149.35
1054.1039	3248.8694	1028.2	145.85
1054.2043	3249.7733	1025	143.1
1054.3047	3250.6766	1031.3	150.45
1054.4051	3251.5793	1024.7	140.3
1054.5054	3252.4814	1025.55	144.35
1054.6056	3253.3829	1022.45	143.25
1054.7058	3254.2838	1021.95	140.25
1054.806	3255.1841	1023.1	143.6
1054.9061	3256.0838	1017.35	137
1055.0061	3256.9829	1016.7	138.5
1055.1062	3257.8814	1022.65	140.05
1055.2061	3258.7792	1019	135.1
1055.306	3259.6765	1017.35	134.7
1055.4059	3260.5731	1012.45	132.15
1055.5057	3261.4692	1011.95	130.15
1055.6055	3262.3647	1011.95	130.55
1055.7052	3263.2595	1010.9	128.95
1055.8049	3264.1538	1006.65	129.45
1055.9045	3265.0474	1004.2	122.9
1056.0041	3265.9404	1000.4	121.3
1056.1036	3266.8329	995.5	116.6
1056.2031	3267.7247	1010.95	120.15
1056.3025	3268.616	992.15	113.2
1056.4019	3269.5066	998.7	118.85
1056.5013	3270.3966	990.8	107.5
1056.6005	3271.286	988.65	108.8
