Software Version:	3.9.2.0
Unit SN:	10000200
Spectrometer SN:	6960
Date:	3/26/2024 2:27:49 PM
Data Line Index:	25
Spectral Points:	2048
Integration time (ms):	125
Averages:	20
Delay (ms):	30000
Sequence Number:	1
Processing:	dark subtract
Laser Power (mW):	300
Laser Current (mA):	819
Laser Diode Temp (C):	25
Laser Case Temp (C):	27.7
System Temp (C):	27.8
Spectrometer Temp (C):	25.7
CCD Temp (C):	0
Secondary Temp (C):	20.011
Heatsink Temp (C):	23.456
CCDPCB Temp (C):	36.896
SecondaryPCB Temp (C):	34.25

Wavelength	RamanShift	Raw Counts	Dark Subtracted
787.061	30.1047	665.3	256.7
787.2016	32.3739	676.5	271
787.3422	34.6426	693.6	285.4
787.4828	36.9109	716.8	305.6
787.6235	39.1787	732.9	320.15
787.7642	41.4461	758.45	339.5
787.9049	43.7131	785.9	362.05
788.0456	45.9796	815.3	388.85
788.1863	48.2456	846.95	414.8
788.3271	50.5112	876.05	441
788.4679	52.7764	902.95	466.7
788.6087	55.0411	930.3	490.9
788.7496	57.3054	970.9	525.1
788.8904	59.5692	1007.2	557.05
789.0313	61.8326	1047.3	595.25
789.1722	64.0955	1086.7	628.65
789.3132	66.3579	1131.85	669.15
789.4541	68.6199	1201.9	736
789.5951	70.8815	1300.25	831.5
789.7361	73.1426	1525.1	1051.95
789.8771	75.4032	2070.7	1592.45
790.0181	77.6634	3454.85	2970.65
790.1592	79.9231	6903.65	6412.35
790.3003	82.1824	14841.5	14331.35
790.4414	84.4412	34886	34342.3
790.5825	86.6995	63071.7	62480
790.7237	88.9574	65535	64903
790.8648	91.2148	65535	64866.85
791.006	93.4717	65535	64849.95
791.1472	95.7282	65535	64841.55
791.2885	97.9842	65535	64832.5
791.4297	100.2398	65535	64835.5
791.571	102.4949	65535	64829.4
791.7123	104.7495	65535	64828.6
791.8536	107.0036	65535	64825.05
791.9949	109.2573	65535	64828
792.1363	111.5105	65535	64825.25
792.2777	113.7632	65535	64821.9
792.4191	116.0154	65535	64811.75
792.5605	118.2672	65535	64813.45
792.7019	120.5185	65535	64817.2
792.8434	122.7693	65535	64812.7
792.9849	125.0197	65535	64815.45
793.1264	127.2696	65535	64808.55
793.2679	129.519	65535	64805.4
793.4094	131.7679	65535	64803.85
793.551	134.0163	65535	64794.85
793.6926	136.2642	65535	64793.45
793.8342	138.5117	65535	64790.55
793.9758	140.7587	65535	64791.2
794.1175	143.0052	65535	64787.15
794.2591	145.2512	65535	64782.4
794.4008	147.4967	65535	64786.85
794.5425	149.7417	65535	64786.35
794.6842	151.9863	65535	64783.85
794.826	154.2304	65535	64777.75
794.9677	156.4739	65535	64773.95
795.1095	158.717	65535	64772.65
795.2513	160.9596	65535	64763.75
795.3931	163.2017	65535	64769.9
795.535	165.4433	65535	64763.5
795.6768	167.6844	65535	64763.15
795.8187	169.925	65535	64763.6
795.9606	172.1651	65535	64762.65
796.1025	174.4047	65535	64753.05
796.2445	176.6439	65535	64754.15
796.3864	178.8825	65535	64754.7
796.5284	181.1206	65535	64747.65
796.6704	183.3582	65535	64738.35
796.8124	185.5954	65535	64740.6
796.9544	187.832	65535	64741.95
797.0965	190.0681	65535	64738.35
797.2386	192.3037	65535	64728.45
797.3806	194.5388	65535	64727.1
797.5228	196.7734	65535	64727.05
797.6649	199.0075	65535	64723.25
797.807	201.2411	65535	64718.7
797.9492	203.4742	65535	64719.25
798.0914	205.7068	65535	64719.2
798.2336	207.9389	65535	64719.65
798.3758	210.1704	65535	64716.6
798.518	212.4015	65535	64710.95
798.6603	214.632	65535	64713.8
798.8025	216.862	65535	64722.7
798.9448	219.0915	65535	64726.5
799.0871	221.3205	65535	64732.1
799.2294	223.549	65535	64737.1
799.3718	225.777	65535	64735.25
799.5141	228.0044	65535	64731.05
799.6565	230.2314	65535	64738.5
799.7989	232.4578	65535	64738.75
799.9413	234.6837	65535	64728.4
800.0837	236.909	65535	64728.15
800.2262	239.1339	65535	64698.5
800.3687	241.3582	65535	64712.65
800.5111	243.582	65535	64681.65
800.6536	245.8053	65535	64700.55
800.7961	248.0281	65535	64706.45
800.9387	250.2503	65535	64694.25
801.0812	252.472	65535	64698.1
801.2238	254.6932	65535	64692.95
801.3664	256.9139	65535	64688.55
801.509	259.134	65535	64685.55
801.6516	261.3536	65535	64686.7
801.7942	263.5727	65535	64686.15
801.9369	265.7912	65535	64688.15
802.0795	268.0092	65535	64683.3
802.2222	270.2267	65535	64689.4
802.3649	272.4436	65535	64684.6
802.5076	274.6601	65535	64679.7
802.6504	276.8759	65535	64683.55
802.7931	279.0913	65535	64672.7
802.9359	281.3061	65535	64680.55
803.0787	283.5204	65535	64671.4
803.2215	285.7341	65535	64670.95
803.3643	287.9473	65535	64662.9
803.5071	290.16	65535	64664.85
803.6499	292.3721	65535	64674.15
803.7928	294.5837	65535	64669.95
803.9357	296.7947	65535	64668.45
804.0786	299.0052	65535	64670.8
804.2215	301.2152	65535	64668.55
804.3644	303.4246	65535	64673.75
804.5074	305.6334	65535	64673.1
804.6503	307.8418	65535	64668.8
804.7933	310.0495	65535	64671.1
804.9363	312.2568	65535	64667.15
805.0793	314.4635	65535	64668.3
805.2223	316.6696	65535	64660.85
805.3653	318.8752	65535	64653.3
805.5084	321.0802	65535	64667.5
805.6514	323.2847	65535	64662.45
805.7945	325.4887	65535	64664.1
805.9376	327.692	65535	64656.5
806.0807	329.8949	65535	64659.85
806.2238	332.0972	65535	64652
806.367	334.2989	65535	64654.55
806.5101	336.5001	65535	64653.35
806.6533	338.7007	65535	64658.55
806.7965	340.9008	65535	64655.1
806.9397	343.1003	65535	64651.9
807.0829	345.2992	65535	64652.45
807.2261	347.4976	65535	64654.05
807.3693	349.6955	65535	64646.15
807.5126	351.8927	65535	64646.2
807.6559	354.0895	65535	64632.4
807.7991	356.2856	65535	64641.4
807.9424	358.4812	65535	64643.25
808.0857	360.6763	65535	64639.6
808.2291	362.8707	65535	64644.35
808.3724	365.0646	65535	64641.25
808.5158	367.258	65535	64639.7
808.6591	369.4508	65535	64637.65
808.8025	371.643	65535	64632.5
808.9459	373.8346	65535	64636.05
809.0893	376.0257	65535	64631.1
809.2327	378.2162	65535	64632.1
809.3762	380.4062	65535	64632.8
809.5196	382.5956	65535	64627.9
809.6631	384.7844	65535	64629.8
809.8066	386.9726	65535	64635.05
809.9501	389.1603	65535	64630.85
810.0936	391.3474	65535	64592.7
810.2371	393.5339	65535	64633.55
810.3806	395.7199	65535	64640.65
810.5241	397.9052	65535	64639.1
810.6677	400.09	65535	64640.4
810.8113	402.2743	65535	64641.5
810.9548	404.4579	65535	64642.45
811.0984	406.641	65535	64638.15
811.2421	408.8235	65535	64644.45
811.3857	411.0054	65535	64636.9
811.5293	413.1868	65535	64635.7
811.673	415.3675	65535	64634
811.8166	417.5477	65535	64629.95
811.9603	419.7273	65535	64631.6
812.104	421.9064	65535	64622.15
812.2477	424.0848	65535	64628
812.3914	426.2627	65535	64627.55
812.5351	428.4399	65535	64625.35
812.6788	430.6166	65535	64622.85
812.8226	432.7928	65535	64621.25
812.9663	434.9683	65535	64625.3
813.1101	437.1432	65535	64621.95
813.2539	439.3176	65535	64630.05
813.3977	441.4914	65535	64631.55
813.5415	443.6645	65535	64627.45
813.6853	445.8371	65535	64621.5
813.8291	448.0091	65535	64623.65
813.973	450.1806	65535	64628.25
814.1168	452.3514	65535	64631.55
814.2607	454.5216	65535	64621.1
814.4046	456.6913	65535	64623.75
814.5485	458.8603	65535	64630.95
814.6924	461.0288	65535	64629.1
814.8363	463.1967	65535	64633.8
814.9802	465.3639	65535	64623.65
815.1241	467.5306	65535	64626.25
815.2681	469.6967	65535	64629.95
815.412	471.8622	65535	64632.6
815.556	474.0271	65535	64627.2
815.7	476.1914	65535	64623.9
815.844	478.3551	65535	64624
815.988	480.5182	65535	64621.75
816.132	482.6807	65535	64634.05
816.276	484.8426	65535	64637
816.4201	487.0039	65535	64630.65
816.5641	489.1647	65535	64624.55
816.7082	491.3248	65535	64621.5
816.8522	493.4843	65535	64627.95
816.9963	495.6432	65535	64626.25
817.1404	497.8015	65535	64619.1
817.2845	499.9592	65535	64612.1
817.4286	502.1163	65535	64611.1
817.5727	504.2728	65535	64621.35
817.7168	506.4287	65535	64633.7
817.861	508.5839	65535	64630.1
818.0051	510.7386	65535	64623.9
818.1493	512.8927	65535	64613.1
818.2935	515.0461	65535	64617.45
818.4377	517.199	65535	64611.55
818.5818	519.3512	65535	64617.15
818.726	521.5029	65535	64612.65
818.8703	523.6539	65535	64620.15
819.0145	525.8043	65535	64614.45
819.1587	527.9541	65535	64611
819.303	530.1033	65535	64613.55
819.4472	532.2519	65535	64610
819.5915	534.3999	65535	64612.9
819.7357	536.5472	65535	64619
819.88	538.694	65535	64618.2
820.0243	540.8401	65535	64616.35
820.1686	542.9856	65535	64605.35
820.3129	545.1305	65535	64598.85
820.4572	547.2748	65535	64600.6
820.6016	549.4185	65535	64597.6
820.7459	551.5615	65535	64600.05
820.8902	553.704	65535	64600.6
821.0346	555.8458	65535	64603.7
821.1789	557.987	65535	64604.35
821.3233	560.1276	65535	64606.05
821.4677	562.2675	65535	64601.5
821.6121	564.4069	65535	64604.65
821.7565	566.5456	65535	64607.05
821.9009	568.6837	65535	64608.8
822.0453	570.8212	65535	64609.75
822.1897	572.958	65535	64609.4
822.3342	575.0942	65535	64610.4
822.4786	577.2299	65535	64612.75
822.6231	579.3648	65535	64625.55
822.7675	581.4992	65535	64632.85
822.912	583.6329	65535	64636.6
823.0565	585.766	65535	64628.85
823.201	587.8985	65535	64620.3
823.3454	590.0304	65535	64593.75
823.4899	592.1616	65535	64601.85
823.6345	594.2922	65535	64603.85
823.779	596.4222	65535	64599.75
823.9235	598.5515	65535	64599.6
824.068	600.6802	65535	64606.05
824.2126	602.8083	65535	64605.55
824.3571	604.9358	65535	64605.5
824.5017	607.0626	65535	64598.65
824.6462	609.1888	65535	64593.35
824.7908	611.3144	65535	64593.95
824.9354	613.4393	65535	64594.35
825.08	615.5636	65535	64595.45
825.2246	617.6873	65535	64598.7
825.3692	619.8103	65535	64597.1
825.5138	621.9327	65535	64599.25
825.6584	624.0544	65535	64602.2
825.803	626.1756	65535	64606.95
825.9477	628.2961	65535	64604.3
826.0923	630.4159	65535	64598.3
826.237	632.5351	65535	64600.9
826.3816	634.6537	65535	64598.15
826.5263	636.7716	65535	64592.1
826.6709	638.8889	65535	64591.25
826.8156	641.0056	65535	64592.65
826.9603	643.1216	65535	64589.75
827.105	645.237	65535	64592.85
827.2497	647.3518	65535	64601.25
827.3944	649.4659	65535	64606.8
827.5391	651.5793	65535	64603.5
827.6838	653.6922	65535	64599.7
827.8285	655.8043	65535	64601.6
827.9733	657.9159	65535	64598.9
828.118	660.0268	65535	64601.7
828.2627	662.137	65535	64596.15
828.4075	664.2466	65535	64590.95
828.5522	666.3556	65535	64590.25
828.697	668.4639	65535	64596.7
828.8418	670.5716	65535	64603.9
828.9865	672.6786	65535	64599.7
829.1313	674.785	65535	64595.1
829.2761	676.8907	65535	64598.55
829.4209	678.9958	65535	64603.1
829.5657	681.1002	65535	64601.25
829.7105	683.204	65535	64587.95
829.8553	685.3072	65535	64592.5
830.0001	687.4097	65535	64594.6
830.1449	689.5115	65535	64593
830.2898	691.6127	65535	64591.45
830.4346	693.7132	65535	64599.3
830.5794	695.8131	65535	64576.4
830.7243	697.9123	65535	64586.7
830.8691	700.0109	65535	64589.6
831.014	702.1089	65535	64594.7
831.1588	704.2061	65535	64590.9
831.3037	706.3028	65535	64588.65
831.4486	708.3987	65535	64591.75
831.5935	710.4941	65535	64593.1
831.7383	712.5887	65535	64591.45
831.8832	714.6827	65535	64590.8
832.0281	716.7761	65535	64596
832.173	718.8688	65535	64595.45
832.3179	720.9608	65535	64590.5
832.4628	723.0522	65535	64582.6
832.6077	725.1429	65535	64586.45
832.7527	727.233	65535	64586.45
832.8976	729.3224	65535	64591.1
833.0425	731.4112	65535	64589.2
833.1874	733.4993	65535	64589.5
833.3324	735.5867	65535	64588.25
833.4773	737.6735	65535	64588.85
833.6222	739.7596	65535	64586.9
833.7672	741.845	65535	64591.6
833.9122	743.9298	65535	64586.4
834.0571	746.014	65535	64588
834.2021	748.0974	65535	64585
834.347	750.1802	65535	64582.85
834.492	752.2624	65535	64584.55
834.637	754.3439	65535	64582.35
834.782	756.4247	65535	64574.8
834.9269	758.5048	65535	64582.65
835.0719	760.5843	65535	64584.5
835.2169	762.6631	65535	64585
835.3619	764.7413	65535	64585.15
835.5069	766.8188	65535	64579.15
835.6519	768.8956	65535	64582.7
835.7969	770.9718	65535	64584.35
835.9419	773.0473	65535	64585.8
836.0869	775.1221	65535	64584.4
836.232	777.1962	65535	64583.45
836.377	779.2697	65535	64582.6
836.522	781.3426	65535	64568.25
836.667	783.4147	65535	64584.55
836.8121	785.4862	65535	64583.9
836.9571	787.557	65535	64581.5
837.1021	789.6271	65535	64582.6
837.2472	791.6966	65535	64583.05
837.3922	793.7654	65535	64585.6
837.5373	795.8335	65535	64584.7
837.6823	797.901	65535	64583.1
837.8274	799.9678	65535	64580.8
837.9724	802.0339	65535	64580.9
838.1175	804.0993	65535	64570.9
838.2626	806.1641	65535	64578.1
838.4076	808.2282	65535	64581.35
838.5527	810.2916	65535	64584.8
838.6978	812.3544	65535	64585.2
838.8428	814.4164	65535	64586.5
838.9879	816.4778	65535	64577.8
839.133	818.5385	65535	64581.95
839.2781	820.5986	65535	64581
839.4232	822.658	65535	64578.75
839.5682	824.7166	65535	64579.25
839.7133	826.7747	65535	64582.45
839.8584	828.832	65535	64577.75
840.0035	830.8886	65535	64577.55
840.1486	832.9446	65535	64579.4
840.2937	834.9999	65535	64583.25
840.4388	837.0545	65535	64578.95
840.5839	839.1085	65535	64581.75
840.729	841.1618	65535	64581.1
840.8741	843.2143	65535	64582.6
841.0192	845.2662	65535	64580.8
841.1643	847.3175	65535	64581.95
841.3095	849.368	65535	64580.45
841.4546	851.4179	65535	64581.95
841.5997	853.467	65535	64581.3
841.7448	855.5155	65535	64579.85
841.8899	857.5633	65535	64581.5
842.0351	859.6105	65535	64577.2
842.1802	861.6569	65535	64580.05
842.3253	863.7027	65535	64577.2
842.4704	865.7478	65535	64579.8
842.6156	867.7922	65535	64581.45
842.7607	869.8359	65535	64579.6
842.9058	871.8789	65532.95	64574.85
843.0509	873.9212	65535	64548.7
843.1961	875.9629	65535	64577.1
843.3412	878.0039	65535	64580
843.4863	880.0441	65535	64580.65
843.6315	882.0837	65535	64580
843.7766	884.1226	65533.8	64578.95
843.9218	886.1609	65529.4	64571.9
844.0669	888.1984	65509.1	64556.3
844.212	890.2352	65531.2	64576.8
844.3572	892.2714	65493.9	64530.6
844.5023	894.3069	65516.15	64558.85
844.6475	896.3416	65479.75	64526.5
844.7926	898.3757	65470.4	64510.85
844.9377	900.4091	65262.15	64306.7
845.0829	902.4418	65513.1	64550.15
845.228	904.4739	65419.45	64457.5
845.3732	906.5052	65425.65	64464.25
845.5183	908.5358	65317.15	64362.4
845.6635	910.5658	65237.25	64277.3
845.8086	912.595	65230.85	64271.5
845.9538	914.6236	64832.2	63877
846.0989	916.6515	65384.05	64428.35
846.2441	918.6786	64826	63868.75
846.3892	920.7051	64999.7	64039.8
846.5344	922.7309	64887.05	63925.95
846.6795	924.756	65003.75	64046.7
846.8246	926.7804	64820.15	63862.85
846.9698	928.8041	64325.35	63367.6
847.1149	930.8272	64771.05	63813.8
847.2601	932.8495	64745.75	63789.7
847.4052	934.8711	64337.15	63378.15
847.5504	936.892	63981.1	63027.8
847.6955	938.9123	64189.7	63228.7
847.8407	940.9318	63861.25	62901.5
847.9858	942.9506	63747.25	62790.85
848.131	944.9688	63807.95	62850.95
848.2761	946.9862	62875.8	61919.75
848.4213	949.003	63322.4	62363.75
848.5664	951.019	62391.7	61435.25
848.7115	953.0344	62622.7	61660.5
848.8567	955.0491	62509.2	61551.65
849.0018	957.063	62857.3	61900.3
849.147	959.0763	62886.15	61922.3
849.2921	961.0888	62128.65	61170.65
849.4373	963.1007	62683.65	61729.15
849.5824	965.1119	62721.3	61772.95
849.7275	967.1223	62154.75	61208.2
849.8727	969.1321	62809.8	61867.5
850.0178	971.1412	61859.65	60908.85
850.1629	973.1495	61550	60595.15
850.3081	975.1572	62001.95	60992.7
850.4532	977.1641	61616.25	60660.15
850.5983	979.1704	61511.9	60554
850.7435	981.1759	61576.95	60617.1
850.8886	983.1808	61025.2	60065.95
851.0337	985.1849	61099.5	60131.2
851.1788	987.1884	61289.7	60333.25
851.324	989.1911	61806.85	60848.35
851.4691	991.1932	60479.75	59524.85
851.6142	993.1945	60783.1	59829
851.7593	995.1951	61177.4	60222.3
851.9045	997.1951	60387.4	59425.7
852.0496	999.1943	60137.05	59178.05
852.1947	1001.1928	59829	58870.05
852.3398	1003.1906	59985.7	59031.05
852.4849	1005.1877	59053.9	58096
852.63	1007.1841	58771.75	57816.15
852.7751	1009.1798	58770.25	57816
852.9202	1011.1748	58611.05	57658.3
853.0653	1013.1691	58320.75	57364.4
853.2104	1015.1627	56873.45	55916.3
853.3555	1017.1556	57062.5	56109.8
853.5006	1019.1477	57281.6	56329.15
853.6457	1021.1392	56559.7	55612.15
853.7908	1023.1299	55792.9	54850.3
853.9359	1025.12	56165.1	55222.35
854.081	1027.1093	55655.15	54725.25
854.2261	1029.0979	55660.1	54732.6
854.3712	1031.0859	55590.05	54654.6
854.5163	1033.0731	54942.65	53997.05
854.6613	1035.0596	54991.55	54047.05
854.8064	1037.0454	54782.25	53834
854.9515	1039.0304	54281.25	53327.7
855.0965	1041.0148	53664.15	52715.95
855.2416	1042.9985	53603.75	52649.25
855.3867	1044.9814	53767.4	52816.55
855.5317	1046.9636	53193.6	52241.35
855.6768	1048.9452	53120.95	52174.75
855.8219	1050.926	52968.95	52022.1
855.9669	1052.9061	52824.85	51877.65
856.112	1054.8855	52736	51784.15
856.257	1056.8642	52355.1	51405.75
856.4021	1058.8421	52251.45	51294.6
856.5471	1060.8194	52147.25	51194.35
856.6921	1062.7959	52017.6	51066.25
856.8372	1064.7717	51964	51010.4
856.9822	1066.7469	51788.65	50834.05
857.1272	1068.7213	51695.2	50738.35
857.2723	1070.695	51474.45	50524.35
857.4173	1072.6679	51090.15	50137.65
857.5623	1074.6402	51013.3	50061
857.7073	1076.6117	50820.15	49861.4
857.8523	1078.5826	50731.65	49779.05
857.9973	1080.5527	50660.2	49706.5
858.1423	1082.5221	50584.9	49633.5
858.2873	1084.4908	50646.95	49694.35
858.4323	1086.4587	50780.25	49830.15
858.5773	1088.426	50853.35	49902.7
858.7223	1090.3925	50641.75	49683.6
858.8673	1092.3584	50459.25	49508.35
859.0123	1094.3235	49960.2	49008.6
859.1573	1096.2879	49685.2	48735.4
859.3022	1098.2515	49542.65	48590.65
859.4472	1100.2145	49435.2	48484.65
859.5922	1102.1767	49349.05	48396.7
859.7371	1104.1382	49364.85	48415.6
859.8821	1106.099	49359.75	48407.95
860.027	1108.0591	49402.9	48455.7
860.172	1110.0185	49277.3	48324.25
860.3169	1111.9771	49372.75	48421.5
860.4619	1113.9351	48861.15	47910.9
860.6068	1115.8923	48348.8	47397.6
860.7517	1117.8488	47876.05	46924.55
860.8967	1119.8045	47281.35	46331.4
861.0416	1121.7596	47096.9	46147.9
861.1865	1123.7139	46791.7	45842.6
861.3314	1125.6675	46709.4	45760.85
861.4763	1127.6204	46748.85	45800.45
861.6212	1129.5726	46599.35	45646.35
861.7661	1131.524	46602.2	45653.2
861.911	1133.4748	46551.75	45598.85
862.0559	1135.4248	46399.15	45447.4
862.2008	1137.3741	46288.45	45340.25
862.3457	1139.3226	46136.3	45184.3
862.4905	1141.2705	46048.35	45100.15
862.6354	1143.2176	45745.3	44791
862.7803	1145.164	45723.85	44773.45
862.9251	1147.1097	45565.4	44617.15
863.07	1149.0546	45470.2	44519.85
863.2148	1150.9989	45350.1	44401.6
863.3597	1152.9424	45130.6	44182
863.5045	1154.8852	44772.45	43822.15
863.6493	1156.8272	44534.45	43587
863.7942	1158.7686	44377.4	43420.85
863.939	1160.7092	44136.45	43187.25
864.0838	1162.6491	43911	42958.85
864.2286	1164.5883	43990.25	43042.5
864.3734	1166.5267	43925.7	42974.95
864.5182	1168.4644	43934	42983.15
864.663	1170.4014	43977.95	43028.75
864.8078	1172.3377	44159.4	43211.7
864.9526	1174.2732	44282.95	43335.85
865.0974	1176.2081	44455.2	43505.95
865.2421	1178.1421	44415.4	43463.55
865.3869	1180.0755	44472	43523.5
865.5317	1182.0082	44255.95	43310.7
865.6764	1183.9401	44143.75	43197.85
865.8212	1185.8713	43756.25	42814.45
865.9659	1187.8017	43356.95	42421.25
866.1106	1189.7315	43065.05	42136.15
866.2554	1191.6605	42594.8	41662.55
866.4001	1193.5888	42227.45	41293.05
866.5448	1195.5163	42065.3	41125.05
866.6895	1197.4432	41779.25	40833.1
866.8342	1199.3693	41582.85	40637.75
866.9789	1201.2947	41393.6	40443.15
867.1236	1203.2193	41157.2	40211.95
867.2683	1205.1432	41103.65	40157.9
867.413	1207.0664	40996.3	40052.25
867.5576	1208.9889	40984.7	40033.55
867.7023	1210.9106	40868.7	39925.85
867.847	1212.8316	40772.15	39826.7
867.9916	1214.7519	40764.3	39811.2
868.1363	1216.6715	40647.9	39700.5
868.2809	1218.5903	40532.55	39588.6
868.4255	1220.5084	40304.05	39359.2
868.5701	1222.4257	40274.05	39327.55
868.7148	1224.3424	39914.8	38971.9
868.8594	1226.2583	39884.9	38942.95
869.004	1228.1735	39890.45	38944.1
869.1486	1230.0879	39808.65	38862.05
869.2932	1232.0016	39866.65	38923.3
869.4377	1233.9146	39736.8	38790.15
869.5823	1235.8269	39535.25	38591.3
869.7269	1237.7384	39393.75	38450.1
869.8715	1239.6492	38963.15	38020.85
870.016	1241.5592	38854.65	37911.7
870.1606	1243.4686	38573.85	37629.05
870.3051	1245.3772	38436.55	37494.85
870.4496	1247.285	38250.5	37308.15
870.5941	1249.1922	38027.25	37081.65
870.7387	1251.0986	37905.7	36961.65
870.8832	1253.0042	37719.1	36777
871.0277	1254.9092	37731.55	36788.4
871.1722	1256.8134	37702.25	36760.35
871.3167	1258.7169	37819.1	36874.4
871.4611	1260.6196	37818.8	36879.4
871.6056	1262.5216	37947.05	37003.65
871.7501	1264.4229	37958.6	37017.45
871.8945	1266.3234	38020.15	37080.45
872.039	1268.2232	38018.55	37073.5
872.1834	1270.1223	37888.8	36944.3
872.3278	1272.0207	37786.4	36841.7
872.4723	1273.9183	37590.2	36641.1
872.6167	1275.8151	37408.55	36466.6
872.7611	1277.7113	37250.4	36308.4
872.9055	1279.6067	37024.3	36083.1
873.0499	1281.5014	36695.35	35754.4
873.1943	1283.3953	36482.75	35541.9
873.3386	1285.2885	36286.45	35346.55
873.483	1287.181	36133.2	35195.95
873.6274	1289.0727	36146.65	35206.6
873.7717	1290.9637	35973.25	35029.8
873.9161	1292.854	36150.15	35211.2
874.0604	1294.7435	36126.35	35186.05
874.2047	1296.6323	36284.65	35343.3
874.349	1298.5204	36466	35520.15
874.4933	1300.4077	36624.9	35681.8
874.6376	1302.2943	36719.65	35779.8
874.7819	1304.1802	36809.95	35870.55
874.9262	1306.0653	36631.8	35689.55
875.0705	1307.9497	36431.3	35489.1
875.2147	1309.8333	36302.8	35360.35
875.359	1311.7162	36238.85	35299.5
875.5032	1313.5984	36256.55	35310.15
875.6475	1315.4798	36293.7	35340.55
875.7917	1317.3605	36360.15	35403.95
875.9359	1319.2405	36521.95	35579.2
876.0801	1321.1197	36442.55	35500.35
876.2243	1322.9982	36277.15	35332
876.3685	1324.876	36209.05	35267.2
876.5127	1326.753	36108.45	35165.9
876.6569	1328.6293	36166.75	35222.5
876.801	1330.5048	36155.35	35208.25
876.9452	1332.3796	36016.55	35077.65
877.0893	1334.2537	35959.2	34995.8
877.2335	1336.127	35754.7	34815.35
877.3776	1337.9996	35640.2	34700.05
877.5217	1339.8714	35512.2	34570.45
877.6658	1341.7426	35398.05	34411.35
877.8099	1343.6129	35251.75	34307.1
877.954	1345.4826	35071.7	34131.95
878.0981	1347.3515	35027.75	34082.6
878.2422	1349.2196	34854.45	33913.05
878.3862	1351.087	34826.65	33886.75
878.5303	1352.9537	34763.55	33820.45
878.6743	1354.8197	34852.55	33910
878.8184	1356.6849	35007.45	34064.25
878.9624	1358.5493	35008.3	34067.8
879.1064	1360.4131	34889.95	33949.55
879.2504	1362.276	34727	33788.15
879.3944	1364.1383	34432.15	33494.5
879.5384	1365.9998	34088.9	33142.15
879.6823	1367.8606	33736.5	32796.65
879.8263	1369.7206	33434.35	32490.5
879.9702	1371.5799	33176.35	32230.8
880.1142	1373.4384	32952.1	32009
880.2581	1375.2962	32770.1	31828.6
880.402	1377.1533	32390.75	31455.3
880.5459	1379.0096	31985.6	31048.85
880.6898	1380.8652	31652.8	30717.65
880.8337	1382.7201	31362.75	30431.7
880.9776	1384.5742	30997.45	30056.95
881.1215	1386.4275	30735.8	29794.85
881.2653	1388.2802	30533.95	29593.8
881.4092	1390.132	30330.7	29392.55
881.553	1391.9832	30269.4	29325.9
881.6968	1393.8336	30039.6	29102.8
881.8406	1395.6832	29915.4	28974.25
881.9844	1397.5322	29797.1	28857.9
882.1282	1399.3803	29640.7	28697.05
882.272	1401.2278	29430.55	28493.8
882.4158	1403.0745	29435.85	28500.4
882.5595	1404.9204	29284.3	28349.35
882.7033	1406.7656	29210.55	28276.1
882.847	1408.6101	29130.2	28192.4
882.9908	1410.4538	29060.2	28122.75
883.1345	1412.2968	28931.1	27993.7
883.2782	1414.139	28847.7	27912.95
883.4219	1415.9805	28917.15	27980.15
883.5656	1417.8213	28845.75	27887.7
883.7092	1419.6613	28901.55	27966.85
883.8529	1421.5006	29017.2	28079.4
883.9965	1423.3391	29230	28291.4
884.1402	1425.1769	29467.05	28532.15
884.2838	1427.0139	29902.5	28964.15
884.4274	1428.8502	30494.75	29556.25
884.571	1430.6858	30995.6	30059
884.7146	1432.5206	31330.35	30391.2
884.8582	1434.3547	31557.35	30620.25
885.0018	1436.188	31568.2	30633
885.1453	1438.0206	31499.45	30564
885.2889	1439.8524	31234.9	30301
885.4324	1441.6835	31001.25	30064.95
885.5759	1443.5139	30911.85	29974.5
885.7194	1445.3435	30712.3	29776.8
885.8629	1447.1724	30608.5	29674.8
886.0064	1449.0005	30506.05	29572.1
886.1499	1450.8279	30319.55	29383.75
886.2933	1452.6545	30211.25	29277.55
886.4368	1454.4804	30233.7	29300.05
886.5802	1456.3056	30166.2	29225.9
886.7237	1458.13	29996.6	29064.75
886.8671	1459.9536	29787.75	28856.15
887.0105	1461.7766	29340.6	28406
887.1539	1463.5987	28844.15	27907.85
887.2972	1465.4202	28428.8	27495.25
887.4406	1467.2409	27990.3	27056.35
887.584	1469.0608	27677.9	26742.3
887.7273	1470.88	27359.05	26425.55
887.8706	1472.6984	27104.6	26173
888.0139	1474.5161	26808.95	25871.35
888.1572	1476.3331	26576.75	25644.4
888.3005	1478.1493	26410.5	25475.4
888.4438	1479.9648	26281.55	25349.35
888.5871	1481.7795	26087.25	25149.85
888.7303	1483.5935	26032.45	25100
888.8736	1485.4067	25935.95	25000.65
889.0168	1487.2192	25880.4	24943.65
889.16	1489.031	25739.7	24800.6
889.3032	1490.842	25635.1	24704.6
889.4464	1492.6522	25606.55	24675.35
889.5896	1494.4618	25496.85	24563
889.7327	1496.2705	25477.4	24548.45
889.8759	1498.0785	25367	24433.35
890.019	1499.8858	25256.2	24320.95
890.1622	1501.6924	25180.7	24245.2
890.3053	1503.4981	25118.5	24184.25
890.4484	1505.3032	25048.05	24115.1
890.5914	1507.1075	24991.25	24059.5
890.7345	1508.911	24914.75	23983.4
890.8776	1510.7138	24822.4	23888.45
891.0206	1512.5159	24725.3	23792.45
891.1637	1514.3172	24611.65	23681.4
891.3067	1516.1178	24455.5	23523.9
891.4497	1517.9176	24418.95	23482.9
891.5927	1519.7166	24309.15	23381.4
891.7357	1521.515	24244.2	23306.55
891.8786	1523.3126	24178.8	23247.15
892.0216	1525.1094	24123.3	23187.7
892.1645	1526.9055	24003.45	23074.95
892.3074	1528.7008	23947	23019.85
892.4503	1530.4954	23765.05	22828.5
892.5932	1532.2893	23723.45	22795.75
892.7361	1534.0824	23590.9	22658.85
892.879	1535.8747	23557.85	22634.55
893.0218	1537.6663	23474.7	22548.45
893.1647	1539.4572	23396.45	22467.7
893.3075	1541.2473	23326.5	22397.95
893.4503	1543.0367	23246.6	22321.2
893.5931	1544.8253	23119.6	22188.1
893.7359	1546.6132	23140.6	22213.5
893.8787	1548.4003	23004	22064.5
894.0214	1550.1867	22990.75	22054.25
894.1642	1551.9723	22926.45	22000.25
894.3069	1553.7572	22891.85	21965.65
894.4496	1555.5414	22833.25	21912.65
894.5923	1557.3247	22791.75	21871.1
894.735	1559.1074	22782.15	21859.35
894.8777	1560.8893	22758.75	21840.9
895.0204	1562.6705	22716.9	21796.3
895.163	1564.4509	22729.4	21809.95
895.3056	1566.2305	22688	21771.45
895.4482	1568.0094	22866.3	21948.3
895.5908	1569.7876	22902.75	21980.5
895.7334	1571.565	22940.5	22019.2
895.876	1573.3417	22923.1	22003.35
896.0186	1575.1176	22909.7	21993.85
896.1611	1576.8928	22805.45	21889.75
896.3036	1578.6672	22673.7	21760.2
896.4461	1580.4409	22487.85	21576.95
896.5886	1582.2138	22286	21369.4
896.7311	1583.986	22084	21167.35
896.8736	1585.7575	21946.85	21029.7
897.0161	1587.5282	21837.15	20925.35
897.1585	1589.2981	21734.6	20825.25
897.3009	1591.0673	21555.4	20645.75
897.4433	1592.8358	21512	20597
897.5857	1594.6035	21454.45	20535.55
897.7281	1596.3704	21386.65	20467.95
897.8705	1598.1366	21312.9	20397.05
898.0128	1599.9021	21311.6	20399.95
898.1551	1601.6668	21252.05	20335.8
898.2975	1603.4308	21268.3	20349.7
898.4398	1605.194	21271.85	20354.1
898.5821	1606.9564	21285.1	20375.75
898.7243	1608.7182	21305.7	20398.85
898.8666	1610.4791	21365.85	20462.8
899.0088	1612.2394	21448	20549.7
899.1511	1613.9988	21547.4	20642.15
899.2933	1615.7576	21728.5	20819.05
899.4355	1617.5156	21965.25	21044.85
899.5776	1619.2728	22252.25	21333
899.7198	1621.0293	22326.95	21414.85
899.862	1622.785	22349.8	21439.25
900.0041	1624.54	22218	21308.35
900.1462	1626.2942	22105.05	21195.95
900.2883	1628.0477	21709.55	20799.05
900.4304	1629.8005	21417.4	20504.9
900.5725	1631.5525	21111.45	20204.3
900.7145	1633.3037	20865.05	19957.05
900.8566	1635.0542	20651.1	19744.5
900.9986	1636.804	20486.55	19576.75
901.1406	1638.553	20393.8	19435.65
901.2826	1640.3013	20198.8	19288.25
901.4245	1642.0488	20086.25	19177.65
901.5665	1643.7955	20061.15	19155.65
901.7085	1645.5416	20043.6	19136.85
901.8504	1647.2868	19999	19091.3
901.9923	1649.0313	19999.15	19088.35
902.1342	1650.7751	20074.05	19163.55
902.2761	1652.5181	20239.65	19331.15
902.4179	1654.2604	20367.75	19459.45
902.5598	1656.0019	20651.35	19746.15
902.7016	1657.7427	20947.75	20040.65
902.8434	1659.4828	21314.75	20405.25
902.9852	1661.222	21549.75	20640.05
903.127	1662.9606	21581.45	20669.35
903.2687	1664.6984	21389.75	20477.65
903.4105	1666.4354	21088.15	20176.25
903.5522	1668.1717	20554.5	19642.35
903.6939	1669.9072	20031.6	19120.25
903.8356	1671.642	19643.9	18727.3
903.9773	1673.3761	19306.8	18397.95
904.119	1675.1094	19041.45	18132.8
904.2606	1676.8419	18770.2	17860.9
904.4022	1678.5737	18588.2	17680.15
904.5439	1680.3048	18436.65	17525.6
904.6855	1682.0351	18314.2	17404.55
904.827	1683.7646	18165.75	17253.3
904.9686	1685.4934	18102.25	17191.5
905.1101	1687.2215	17985.95	17079.85
905.2517	1688.9488	17879.9	16974.1
905.3932	1690.6754	17781.85	16873.85
905.5347	1692.4012	17739.15	16829.95
905.6761	1694.1263	17678.15	16768.15
905.8176	1695.8506	17613.9	16704.15
905.9591	1697.5742	17545.7	16639.5
906.1005	1699.297	17446.95	16543.75
906.2419	1701.0191	17367.55	16465.5
906.3833	1702.7404	17274.95	16371.35
906.5246	1704.461	17176.45	16271.4
906.666	1706.1808	17128.8	16220.1
906.8073	1707.8999	17064.3	16159.05
906.9487	1709.6182	16978.95	16075.6
907.09	1711.3358	16938.6	16037.15
907.2313	1713.0527	16886.35	15987.95
907.3725	1714.7688	16808.5	15901
907.5138	1716.4841	16738.25	15835.8
907.655	1718.1987	16707.5	15799.1
907.7962	1719.9126	16660.05	15761.05
907.9374	1721.6257	16585.5	15683.4
908.0786	1723.338	16551.5	15652.55
908.2198	1725.0496	16447.35	15543.9
908.3609	1726.7605	16372	15467.2
908.502	1728.4706	16349.1	15446
908.6431	1730.18	16236.15	15335.55
908.7842	1731.8886	16186.35	15286.55
908.9253	1733.5964	16174.8	15255.85
909.0664	1735.3036	16092.25	15190.75
909.2074	1737.0099	16052.6	15153.45
909.3484	1738.7156	16044.65	15144.75
909.4894	1740.4204	15971.95	15069.45
909.6304	1742.1246	15931.75	15030.25
909.7714	1743.8279	15861.75	14962
909.9123	1745.5306	15854.95	14955.8
910.0532	1747.2325	15771.95	14873.8
910.1941	1748.9336	15701.75	14802.35
910.335	1750.634	15662.55	14759.15
910.4759	1752.3336	15650.55	14752.9
910.6168	1754.0325	15606.15	14709.3
910.7576	1755.7307	15579.95	14682.1
910.8984	1757.4281	15549.1	14646.5
911.0392	1759.1247	15538.55	14629
911.18	1760.8206	15476.5	14570.85
911.3208	1762.5158	15493	14586.75
911.4615	1764.2102	15409.6	14509.4
911.6022	1765.9039	15352.55	14454.55
911.7429	1767.5968	15317.3	14422.8
911.8836	1769.289	15241.9	14347.05
912.0243	1770.9804	15189.4	14290.25
912.1649	1772.6711	15199.6	14296.5
912.3056	1774.361	15141.7	14239.75
912.4462	1776.0502	15128.45	14227.35
912.5868	1777.7386	15068.05	14164
912.7274	1779.4263	14999.6	14102.6
912.8679	1781.1132	14997.7	14102.2
913.0084	1782.7994	14918.75	14022.7
913.149	1784.4849	14906.75	14010.9
913.2895	1786.1696	14844.05	13930.3
913.4299	1787.8535	14802.35	13905.95
913.5704	1789.5367	14786.95	13892.2
913.7108	1791.2192	14753.2	13854.9
913.8513	1792.9009	14709.8	13783.55
913.9917	1794.5818	14659.85	13760.25
914.132	1796.2621	14616.1	13717.7
914.2724	1797.9415	14578.45	13680.85
914.4128	1799.6202	14527.45	13626.25
914.5531	1801.2982	14527.75	13628.1
914.6934	1802.9755	14487.6	13588.8
914.8337	1804.6519	14471.95	13575.45
914.9739	1806.3277	14405.15	13510.3
915.1142	1808.0027	14331.65	13439.3
915.2544	1809.6769	14323.05	13428.35
915.3946	1811.3504	14280.1	13383.65
915.5348	1813.0231	14225.95	13332.2
915.675	1814.6951	14210.2	13313.05
915.8151	1816.3664	14222.85	13323.8
915.9553	1818.0369	14177.75	13279.35
916.0954	1819.7067	14119.75	13224.25
916.2355	1821.3757	14050.5	13151.55
916.3755	1823.044	14082.8	13183.25
916.5156	1824.7115	14047.2	13145.6
916.6556	1826.3783	13958.15	13060.95
916.7956	1828.0443	13914.5	13018.2
916.9356	1829.7096	13876.05	12978.8
917.0756	1831.3741	13876.6	12976.15
917.2155	1833.0379	13804.25	12909.4
917.3555	1834.701	13746.3	12852.1
917.4954	1836.3633	13742.4	12846.4
917.6353	1838.0248	13690.35	12791.25
917.7751	1839.6856	13684.95	12787.8
917.915	1841.3457	13687	12791.05
918.0548	1843.005	13650.45	12752.3
918.1946	1844.6636	13635.35	12738.35
918.3344	1846.3214	13554.55	12657.65
918.4742	1847.9785	13546.5	12650.9
918.6139	1849.6349	13482.2	12584.85
918.7537	1851.2904	13449.5	12542.65
918.8934	1852.9453	13443.6	12543.65
919.0331	1854.5994	13406.4	12507.45
919.1727	1856.2528	13415.85	12512.95
919.3124	1857.9054	13395.6	12499.5
919.452	1859.5572	13342	12443.15
919.5916	1861.2083	13307.9	12410.6
919.7312	1862.8587	13324.85	12426.65
919.8708	1864.5084	13245.1	12344.7
920.0103	1866.1572	13218.55	12317.45
920.1498	1867.8054	13172.85	12272.35
920.2893	1869.4528	13130.6	12231.85
920.4288	1871.0994	13077.8	12180.55
920.5683	1872.7453	13066.7	12166.6
920.7077	1874.3905	13062.35	12149.05
920.8471	1876.0349	12988.55	12089.4
920.9865	1877.6786	12982.75	12081.4
921.1259	1879.3215	12970.65	12071.35
921.2653	1880.9637	12947.7	12046.75
921.4046	1882.6051	12917.45	12019.5
921.5439	1884.2458	12890.65	11992.35
921.6832	1885.8858	12812	11915.1
921.8225	1887.525	12814.8	11915.45
921.9617	1889.1634	12765.7	11867.75
922.101	1890.8011	12717.1	11816.05
922.2402	1892.4381	12657.2	11758.8
922.3794	1894.0743	12661.25	11762.6
922.5185	1895.7098	12632.1	11734.45
922.6577	1897.3446	12591.3	11692.95
922.7968	1898.9786	12566.15	11664.95
922.9359	1900.6118	12530.45	11634.9
923.075	1902.2443	12483.45	11585
923.214	1903.8761	12477.45	11578.25
923.3531	1905.5071	12371.8	11474.2
923.4921	1907.1374	12349	11453.1
923.6311	1908.7669	12295.5	11400.65
923.77	1910.3957	12299.75	11405.3
923.909	1912.0237	12230.2	11335.05
924.0479	1913.651	12186.15	11288.85
924.1868	1915.2776	12149.05	11253.9
924.3257	1916.9034	12099.5	11204.75
924.4646	1918.5285	12068.7	11174.65
924.6034	1920.1528	12029.9	11133
924.7422	1921.7764	12004.45	11108.8
924.881	1923.3992	11949.6	11052
925.0198	1925.0213	11873.9	10980.35
925.1586	1926.6427	11825.75	10934.4
925.2973	1928.2633	11862.65	10896.15
925.436	1929.8832	11797.4	10899
925.5747	1931.5023	11708.05	10811.7
925.7134	1933.1207	11704.15	10806.75
925.852	1934.7383	11680.15	10782.8
925.9906	1936.3552	11638	10742
926.1292	1937.9714	11603.15	10708.15
926.2678	1939.5868	11568.75	10671.85
926.4064	1941.2015	11488.6	10592.2
926.5449	1942.8154	11441.25	10542.95
926.6834	1944.4286	11401.85	10504.25
926.8219	1946.041	11381.2	10461.45
926.9604	1947.6528	11315.55	10415.45
927.0988	1949.2637	11304.15	10407.9
927.2372	1950.8739	11256.5	10361
927.3756	1952.4834	11228.1	10332.7
927.514	1954.0921	11217.25	10320.8
927.6523	1955.7001	11162.95	10266
927.7907	1957.3074	11134.95	10240.95
927.929	1958.9139	11082.05	10190.7
928.0673	1960.5197	11038.25	10143.25
928.2055	1962.1247	10979.3	10086.2
928.3438	1963.729	10954.15	10063.35
928.482	1965.3325	10925.4	10010.05
928.6202	1966.9353	10863.35	9971.95
928.7584	1968.5374	10843.85	9949.95
928.8965	1970.1387	10820.55	9926
929.0346	1971.7393	10763.75	9870.7
929.1727	1973.3392	10736.35	9845.1
929.3108	1974.9383	10682.9	9790.6
929.4489	1976.5366	10645.6	9754.8
929.5869	1978.1342	10638.35	9746
929.7249	1979.7311	10632.7	9739.35
929.8629	1981.3273	10599.8	9710.7
930.0009	1982.9227	10559.8	9668.45
930.1388	1984.5173	10485.1	9596.2
930.2767	1986.1112	10427.5	9539
930.4146	1987.7044	10424.85	9534.15
930.5525	1989.2968	10398.7	9507.9
930.6904	1990.8885	10360.75	9468.7
930.8282	1992.4795	10353.55	9464.7
930.966	1994.0697	10314.1	9425.55
931.1038	1995.6592	10269.85	9381.4
931.2415	1997.2479	10258	9367.4
931.3793	1998.8359	10235.1	9345.05
931.517	2000.4232	10177.4	9291.4
931.6547	2002.0097	10136.55	9253.1
931.7923	2003.5955	10093.4	9206.45
931.93	2005.1805	10092.85	9203.75
932.0676	2006.7648	10066.5	9180.15
932.2052	2008.3484	10028.35	9139.55
932.3427	2009.9312	10038.05	9151
932.4803	2011.5133	9993	9108.1
932.6178	2013.0946	9954.6	9069.15
932.7553	2014.6752	9938.9	9054.95
932.8928	2016.2551	9926.1	9037.55
933.0302	2017.8342	9849.25	8960.15
933.1676	2019.4126	9847.1	8959.95
933.305	2020.9902	9797.05	8912.35
933.4424	2022.5672	9786.15	8898.65
933.5798	2024.1433	9743.55	8854.1
933.7171	2025.7188	9712.9	8827.65
933.8544	2027.2935	9678.85	8792.15
933.9917	2028.8674	9632.65	8750
934.129	2030.4406	9627.3	8743.55
934.2662	2032.0131	9596.15	8711.1
934.4034	2033.5849	9539.45	8646.5
934.5406	2035.1559	9505.4	8620.2
934.6778	2036.7261	9512	8624.75
934.8149	2038.2957	9485.4	8598.6
934.952	2039.8645	9458.75	8571.7
935.0891	2041.4325	9490.05	8599.95
935.2262	2042.9998	9439.85	8553.2
935.3632	2044.5664	9402.55	8515.1
935.5002	2046.1323	9365.9	8480.8
935.6372	2047.6974	9335.85	8450.85
935.7742	2049.2617	9308.45	8423.55
935.9111	2050.8254	9316.1	8424.7
936.048	2052.3883	9273.1	8383.1
936.1849	2053.9504	9259.15	8370.75
936.3218	2055.5118	9231.85	8345.4
936.4586	2057.0725	9187.35	8294.95
936.5955	2058.6325	9174.9	8288.1
936.7323	2060.1917	9148.25	8263.4
936.869	2061.7502	9120.15	8233.25
937.0058	2063.3079	9073.95	8189.15
937.1425	2064.8649	9046.45	8156.6
937.2792	2066.4212	9022.7	8135.95
937.4159	2067.9767	9009	8123.05
937.5525	2069.5315	8965	8076.6
937.6891	2071.0856	8905.3	8018.95
937.8257	2072.6389	8872.75	7985.6
937.9623	2074.1915	8840	7957.6
938.0989	2075.7433	8798	7912.65
938.2354	2077.2945	8764.75	7877.6
938.3719	2078.8448	8757.4	7870.2
938.5084	2080.3945	8721.65	7833.3
938.6448	2081.9434	8722.05	7833.9
938.7812	2083.4916	8716.7	7828.45
938.9176	2085.039	8675.15	7779.6
939.054	2086.5857	8662.95	7768.9
939.1903	2088.1317	8645.15	7752.6
939.3267	2089.677	8629.75	7736
939.463	2091.2215	8583.25	7690.65
939.5992	2092.7652	8588	7693.75
939.7355	2094.3083	8535.45	7641.85
939.8717	2095.8506	8522.8	7630.2
940.0079	2097.3921	8497.05	7608.9
940.1441	2098.933	8465.35	7577.3
940.2802	2100.4731	8452	7561.8
940.4163	2102.0124	8452.65	7554.15
940.5524	2103.5511	8410.45	7520.1
940.6885	2105.089	8427.25	7534.75
940.8245	2106.6261	8379.05	7487.7
940.9606	2108.1626	8380.65	7490.45
941.0965	2109.6983	8386	7468.5
941.2325	2111.2332	8317.65	7428.45
941.3684	2112.7675	8290.7	7399.2
941.5044	2114.301	8272.05	7379.4
941.6403	2115.8337	8249.3	7359.45
941.7761	2117.3657	8241.05	7350.7
941.912	2118.897	8222.85	7330.6
942.0478	2120.4276	8196.25	7297.85
942.1835	2121.9575	8148.8	7255.15
942.3193	2123.4866	8162.2	7267.6
942.455	2125.0149	8124.25	7231.05
942.5907	2126.5426	8094.75	7205.45
942.7264	2128.0695	8086.9	7195.15
942.8621	2129.5956	8060.65	7176.9
942.9977	2131.1211	8032.65	7140.5
943.1333	2132.6458	8002.8	7114
943.2689	2134.1698	7994.3	7103.4
943.4044	2135.693	7970.7	7077.2
943.54	2137.2155	7958.8	7064.3
943.6755	2138.7373	7948.8	7058.7
943.8109	2140.2584	7897.75	7011.7
943.9464	2141.7787	7884.6	6992.05
944.0818	2143.2983	7849.05	6964.4
944.2172	2144.8171	7791.4	6905.9
944.3526	2146.3353	7813.55	6925.25
944.4879	2147.8527	7787.45	6898.3
944.6232	2149.3693	7760.05	6870.1
944.7585	2150.8853	7729.65	6837.05
944.8938	2152.4005	7694.55	6802.45
945.029	2153.9149	7687.2	6794.1
945.1642	2155.4287	7756.45	6753.6
945.2994	2156.9417	7670.85	6775.95
945.4346	2158.454	7625.6	6735.5
945.5697	2159.9655	7595.95	6708.3
945.7048	2161.4764	7607.85	6718.9
945.8399	2162.9865	7575.4	6686.8
945.9749	2164.4958	7567.6	6677.6
946.1099	2166.0045	7544.9	6654
946.2449	2167.5124	7506.25	6614.75
946.3799	2169.0195	7487.05	6598.05
946.5148	2170.526	7489.55	6598.7
946.6498	2172.0317	7466.45	6575.4
946.7846	2173.5367	7440.05	6550.2
946.9195	2175.0409	7423.45	6534.15
947.0543	2176.5445	7417.55	6528.3
947.1891	2178.0473	7377.25	6484.95
947.3239	2179.5494	7356.85	6462.2
947.4587	2181.0507	7332.6	6442.65
947.5934	2182.5513	7303.2	6410.75
947.7281	2184.0512	7281.95	6390.65
947.8628	2185.5504	7268.8	6377.45
947.9974	2187.0488	7224.2	6333.95
948.132	2188.5465	7223.6	6335.7
948.2666	2190.0435	7167.7	6276.8
948.4012	2191.5397	7174.05	6283.65
948.5357	2193.0353	7153.5	6261.85
948.6702	2194.5301	7117.55	6223.8
948.8047	2196.0241	7101.5	6206
948.9392	2197.5175	7099.75	6203.5
949.0736	2199.0101	7058.95	6162.55
949.208	2200.502	7009	6118.95
949.3424	2201.9931	7000.35	6112.65
949.4767	2203.4835	6971.55	6080.2
949.611	2204.9733	6947.75	6053.6
949.7453	2206.4622	6938.6	6050.25
949.8796	2207.9505	6913	6022.7
950.0138	2209.438	6871.9	5985.05
950.148	2210.9248	6857	5966.05
950.2822	2212.4109	6824.2	5934.95
950.4164	2213.8962	6822.35	5926.3
950.5505	2215.3809	6802.35	5907.45
950.6846	2216.8648	6798.1	5903.05
950.8186	2218.3479	6760.8	5860.4
950.9527	2219.8304	6733.6	5836.2
951.0867	2221.3121	6731.5	5835.35
951.2207	2222.7931	6699.8	5805.85
951.3546	2224.2733	6670.25	5778.3
951.4886	2225.7529	6651.8	5758.4
951.6225	2227.2317	6621.6	5729.65
951.7563	2228.7098	6625.8	5735.65
951.8902	2230.1872	6586.55	5697.1
952.024	2231.6638	6570.7	5682.4
952.1578	2233.1397	6572	5679.1
952.2916	2234.6149	6544.15	5655.45
952.4253	2236.0894	6500.2	5610.4
952.559	2237.5632	6514.1	5624.35
952.6927	2239.0362	6457.25	5566.15
952.8263	2240.5085	6464.3	5575.1
952.9599	2241.9801	6438.4	5545.6
953.0935	2243.4509	6427.35	5534.3
953.2271	2244.921	6402.2	5506.3
953.3606	2246.3904	6352.6	5457.7
953.4941	2247.8591	6354.55	5461.7
953.6276	2249.3271	6341.1	5450.65
953.7611	2250.7943	6314.8	5422.05
953.8945	2252.2608	6292.6	5398.9
954.0279	2253.7266	6279.25	5387.4
954.1612	2255.1917	6260.45	5369.65
954.2946	2256.656	6237.45	5346.4
954.4279	2258.1197	6220.55	5334.05
954.5612	2259.5826	6206.75	5316.85
954.6944	2261.0447	6200.15	5307.5
954.8276	2262.5062	6157	5261.9
954.9608	2263.9669	6156.75	5260.2
955.094	2265.4269	6141.75	5247.45
955.2271	2266.8862	6132.75	5240.6
955.3602	2268.3448	6122.2	5231.95
955.4933	2269.8026	6104.8	5214.95
955.6264	2271.2598	6091.7	5201.7
955.7594	2272.7162	6067.9	5178.1
955.8924	2274.1719	6057.45	5163.1
956.0253	2275.6268	6035.95	5141.75
956.1583	2277.0811	6032.85	5137.9
956.2912	2278.5346	6004.45	5114.6
956.4241	2279.9874	6005.85	5116.55
956.5569	2281.4395	5971.2	5080.55
956.6897	2282.8908	5953.3	5059
956.8225	2284.3414	5953.4	5058.9
956.9553	2285.7914	5937.55	5048.25
957.088	2287.2406	5918.55	5022.45
957.2207	2288.689	5915.3	5021.35
957.3534	2290.1368	5893.85	4997.15
957.486	2291.5838	5885.3	4987.2
957.6186	2293.0302	5856.55	4956.55
957.7512	2294.4758	5822.8	4926.05
957.8838	2295.9206	5808.85	4915.25
958.0163	2297.3648	5788.2	4898.05
958.1488	2298.8082	5762.8	4869.75
958.2813	2300.251	5762.4	4869.45
958.4137	2301.693	5744.6	4847.8
958.5461	2303.1343	5739.1	4844.4
958.6785	2304.5748	5714.85	4824
958.8108	2306.0147	5690.85	4800.55
958.9432	2307.4538	5691.35	4799.75
959.0754	2308.8922	5676.3	4790.55
959.2077	2310.3299	5639.25	4749.75
959.3399	2311.7669	5622.15	4732.75
959.4721	2313.2031	5624.05	4733.25
959.6043	2314.6387	5581.3	4686.8
959.7365	2316.0735	5572.25	4681.75
959.8686	2317.5076	5559.35	4668
960.0006	2318.941	5537.9	4647.05
960.1327	2320.3737	5523.95	4631.45
960.2647	2321.8056	5525.45	4632.25
960.3967	2323.2369	5502.65	4609.4
960.5287	2324.6674	5492.35	4599.55
960.6606	2326.0972	5473.35	4581.15
960.7925	2327.5263	5459.75	4568.95
960.9244	2328.9547	5455.5	4559.9
961.0562	2330.3823	5426.8	4530.95
961.1881	2331.8092	5439.05	4541
961.3198	2333.2355	5397.35	4501.4
961.4516	2334.661	5384.2	4489.15
961.5833	2336.0858	5379.2	4484.6
961.715	2337.5098	5357.3	4464.35
961.8467	2338.9332	5359.45	4467
961.9783	2340.3558	5334.9	4440.8
962.1099	2341.7778	5318.95	4427.2
962.2415	2343.199	5302.5	4410.3
962.373	2344.6195	5258.95	4368.95
962.5045	2346.0393	5251.7	4361.65
962.636	2347.4583	5256.55	4363.5
962.7675	2348.8767	5233.1	4341.85
962.8989	2350.2943	5231.05	4335.35
963.0303	2351.7113	5232.05	4333.95
963.1617	2353.1275	5211.9	4316.05
963.293	2354.543	5198.45	4295.75
963.4243	2355.9578	5191.25	4298
963.5556	2357.3718	5145.95	4255
963.6868	2358.7852	5130.3	4239.25
963.818	2360.1978	5128.55	4237.05
963.9492	2361.6098	5103.75	4213.8
964.0803	2363.021	5101.65	4206.6
964.2114	2364.4315	5065.8	4176.15
964.3425	2365.8413	5054.8	4161.65
964.4736	2367.2504	5038.75	4147.7
964.6046	2368.6587	5012.35	4121.75
964.7356	2370.0664	4984.8	4094.55
964.8666	2371.4733	4991.5	4099.2
964.9975	2372.8795	4973.15	4083.25
965.1284	2374.285	4942.8	4052.55
965.2593	2375.6899	4928	4039.4
965.3901	2377.0939	4899.6	4008.4
965.5209	2378.4973	4906.5	4017
965.6517	2379.9	4882.25	3991.85
965.7825	2381.3019	4868.25	3977.2
965.9132	2382.7032	4847.75	3958.8
966.0439	2384.1037	4856.15	3967.75
966.1745	2385.5035	4819.55	3931.25
966.3051	2386.9027	4802.05	3914.5
966.4357	2388.3011	4803.05	3912.45
966.5663	2389.6987	4789.2	3900.15
966.6968	2391.0957	4759.9	3870.85
966.8273	2392.492	4741.9	3854.7
966.9578	2393.8876	4699.95	3810.8
967.0882	2395.2824	4711.55	3820.9
967.2186	2396.6765	4706.9	3818.85
967.349	2398.07	4662.8	3771.95
967.4793	2399.4627	4674.5	3782.5
967.6097	2400.8547	4655.2	3760.4
967.7399	2402.246	4650.85	3752.95
967.8702	2403.6366	4630.45	3738.2
968.0004	2405.0265	4611.25	3722.9
968.1306	2406.4156	4586.25	3695.85
968.2607	2407.8041	4583.1	3690
968.3909	2409.1918	4563.95	3669.5
968.521	2410.5789	4546.5	3654.9
968.651	2411.9652	4555.45	3663.2
968.781	2413.3508	4522.3	3631.05
968.911	2414.7358	4519.3	3626.7
969.041	2416.12	4496.75	3607.15
969.1709	2417.5035	4469.65	3577.8
969.3008	2418.8863	4469.5	3576.4
969.4307	2420.2684	4449.1	3557.8
969.5606	2421.6497	4430.45	3536.9
969.6904	2423.0304	4404.75	3514.85
969.8201	2424.4104	4406.85	3515.8
969.9499	2425.7896	4394.35	3502.8
970.0796	2427.1682	4381.5	3493.5
970.2093	2428.546	4373.45	3483.55
970.3389	2429.9232	4343	3450.75
970.4685	2431.2996	4345.55	3454.25
970.5981	2432.6753	4343.4	3452.4
970.7277	2434.0503	4327.4	3437.35
970.8572	2435.4246	4311	3420.8
970.9867	2436.7982	4286.5	3392.8
971.1161	2438.1711	4294.25	3403.2
971.2456	2439.5433	4271.9	3378.25
971.375	2440.9148	4254.95	3359.05
971.5043	2442.2856	4240.65	3352.2
971.6336	2443.6557	4236.75	3345.5
971.7629	2445.025	4222.8	3333.35
971.8922	2446.3937	4204.7	3312.95
972.0214	2447.7617	4213.75	3322.75
972.1506	2449.1289	4204.55	3313
972.2798	2450.4955	4186.25	3291
972.4089	2451.8613	4178.9	3288.8
972.538	2453.2265	4174.25	3283.4
972.6671	2454.5909	4180.65	3288.95
972.7961	2455.9546	4167.05	3276.05
972.9251	2457.3177	4136.95	3244.7
973.0541	2458.68	4125.75	3233.25
973.1831	2460.0416	4121.8	3229.8
973.312	2461.4025	4111.2	3218.55
973.4408	2462.7627	4105.35	3203
973.5697	2464.1222	4084.5	3197.55
973.6985	2465.4811	4081.55	3193.1
973.8273	2466.8392	4058.6	3168.05
973.956	2468.1966	4055.25	3162.1
974.0847	2469.5533	4059.6	3167.75
974.2134	2470.9093	4041.15	3150.95
974.3421	2472.2645	4042.45	3150.95
974.4707	2473.6191	4023.15	3133.9
974.5993	2474.973	4007.35	3114.25
974.7278	2476.3262	3998.65	3105
974.8563	2477.6787	3985.65	3093.65
974.9848	2479.0305	3971.95	3084.8
975.1132	2480.3816	3948.2	3056.35
975.2417	2481.7319	3945.2	3054.3
975.37	2483.0816	3925.8	3034.5
975.4984	2484.4306	3935.3	3044.75
975.6267	2485.7789	3904.2	3015.05
975.755	2487.1264	3894.3	3003.5
975.8833	2488.4733	3889.95	3001.2
976.0115	2489.8195	3883.55	2977.65
976.1397	2491.165	3858.95	2966.85
976.2678	2492.5097	3848	2957.85
976.3959	2493.8538	3835.75	2949.45
976.524	2495.1972	3817.85	2926.65
976.6521	2496.5398	3810.4	2916.45
976.7801	2497.8818	3793.2	2901.4
976.9081	2499.2231	3798.55	2905.75
977.036	2500.5637	3782.55	2890.85
977.164	2501.9035	3770.2	2876.2
977.2918	2503.2427	3768.95	2872.95
977.4197	2504.5812	3751.65	2862.4
977.5475	2505.919	3738.4	2845.5
977.6753	2507.256	3737.3	2845.95
977.8031	2508.5924	3704.25	2811.55
977.9308	2509.9281	3720.1	2821.25
978.0585	2511.2631	3697.5	2807.3
978.1861	2512.5974	3692.95	2801.2
978.3137	2513.9309	3674.55	2784.1
978.4413	2515.2638	3689.9	2769.15
978.5689	2516.596	3653.5	2762.3
978.6964	2517.9275	3643	2750.5
978.8239	2519.2583	3650.4	2758.25
978.9513	2520.5884	3624.05	2730.85
979.0788	2521.9178	3614.8	2726.2
979.2062	2523.2465	3596.35	2706.7
979.3335	2524.5745	3591.8	2701.55
979.4608	2525.9018	3579.15	2688.9
979.5881	2527.2284	3564.8	2674.9
979.7154	2528.5543	3558.35	2668.75
979.8426	2529.8796	3562.55	2671.85
979.9698	2531.2041	3551.2	2659.5
980.0969	2532.5279	3551.9	2663.8
980.224	2533.851	3534.85	2642.6
980.3511	2535.1735	3526.35	2636.1
980.4781	2536.4952	3521.15	2629.05
980.6052	2537.8163	3523.8	2631.35
980.7321	2539.1366	3500.95	2608.8
980.8591	2540.4562	3510.8	2617.1
980.986	2541.7752	3499.45	2607.4
981.1129	2543.0935	3492.8	2599.45
981.2397	2544.411	3481.45	2589.75
981.3665	2545.7279	3470.8	2579.35
981.4933	2547.0441	3460.8	2569.65
981.62	2548.3596	3460.05	2567.15
981.7467	2549.6744	3454.35	2562.65
981.8734	2550.9885	3461.85	2567.4
982.0001	2552.3019	3435.3	2542.6
982.1267	2553.6146	3428.15	2535.45
982.2532	2554.9266	3416.1	2524.75
982.3798	2556.2379	3396.05	2502.5
982.5063	2557.5485	3390.95	2502.5
982.6327	2558.8585	3387.3	2487.75
982.7592	2560.1677	3392.45	2496.15
982.8856	2561.4762	3386.05	2495.65
983.0119	2562.7841	3381.15	2481.25
983.1383	2564.0913	3369.25	2479.4
983.2646	2565.3977	3368.55	2477.85
983.3908	2566.7035	3343.1	2450.05
983.517	2568.0086	3341.8	2450.4
983.6432	2569.313	3357.25	2466.75
983.7694	2570.6167	3344.3	2447.95
983.8955	2571.9197	3331.6	2440.4
984.0216	2573.222	3333	2438.55
984.1476	2574.5236	3316.75	2424.75
984.2737	2575.8246	3305.65	2410.85
984.3996	2577.1248	3301.05	2404.1
984.5256	2578.4244	3307.75	2416.35
984.6515	2579.7232	3303.7	2412
984.7774	2581.0214	3310.75	2391.2
984.9032	2582.3189	3297.45	2406.8
985.029	2583.6157	3302.35	2406.6
985.1548	2584.9118	3280.35	2388.6
985.2806	2586.2072	3280.85	2387.95
985.4063	2587.5019	3276.9	2385
985.5319	2588.7959	3266.15	2372.95
985.6576	2590.0893	3267.8	2373.4
985.7832	2591.3819	3255.05	2364.2
985.9087	2592.6739	3249.05	2358.95
986.0343	2593.9652	3235	2340.55
986.1597	2595.2557	3229	2335.5
986.2852	2596.5456	3221.8	2327.15
986.4106	2597.8348	3217.6	2326.8
986.536	2599.1234	3201.55	2309.85
986.6614	2600.4112	3201.25	2310.1
986.7867	2601.6983	3201.2	2306.35
986.912	2602.9848	3199.6	2308.45
987.0372	2604.2705	3183.3	2284.2
987.1624	2605.5556	3170.05	2277.05
987.2876	2606.84	3166.9	2273.95
987.4128	2608.1237	3157.55	2264.9
987.5379	2609.4067	3137.8	2244.65
987.6629	2610.689	3147.55	2247.2
987.788	2611.9707	3138.4	2243.65
987.913	2613.2516	3127.2	2229.45
988.0379	2614.5319	3127.9	2237.3
988.1629	2615.8115	3111.45	2217.15
988.2878	2617.0903	3107.8	2212.75
988.4126	2618.3685	3082.9	2190.1
988.5375	2619.6461	3072.15	2177.45
988.6622	2620.9229	3072.45	2181.9
988.787	2622.199	3047.3	2156.1
988.9117	2623.4745	3072.95	2180.6
989.0364	2624.7493	3048.8	2156.75
989.161	2626.0234	3047.6	2157.85
989.2857	2627.2968	3040.2	2150.85
989.4102	2628.5695	3030.15	2137.7
989.5348	2629.8415	3017.55	2125.7
989.6593	2631.1128	3007.85	2115.5
989.7837	2632.3835	3000.3	2108.35
989.9082	2633.6535	2996.35	2108.65
990.0326	2634.9228	2996	2106.25
990.1569	2636.1914	2984.8	2092.1
990.2812	2637.4593	2979.9	2082.6
990.4055	2638.7265	2983	2091.35
990.5298	2639.9931	2962.15	2071.7
990.654	2641.259	2946.15	2054.55
990.7782	2642.5242	2945.95	2054.25
990.9023	2643.7887	2942.2	2048.4
991.0264	2645.0525	2927.05	2035.8
991.1505	2646.3156	2931.5	2036.9
991.2745	2647.5781	2916	2023.45
991.3985	2648.8398	2893.35	2003.05
991.5225	2650.1009	2910.4	1995.65
991.6464	2651.3613	2895	2004
991.7703	2652.6211	2886.85	1994.75
991.8942	2653.8801	2875.7	1985.35
992.018	2655.1385	2870.95	1977.8
992.1418	2656.3961	2865.05	1976.15
992.2655	2657.6531	2872.4	1981.6
992.3892	2658.9094	2875.15	1983.9
992.5129	2660.1651	2856.7	1965.05
992.6366	2661.42	2849.65	1959.85
992.7602	2662.6743	2858.1	1964.95
992.8837	2663.9279	2851.7	1960.9
993.0073	2665.1808	2855.55	1964.5
993.1307	2666.433	2833.6	1943.6
993.2542	2667.6846	2841.3	1951.25
993.3776	2668.9354	2838.6	1944.1
993.501	2670.1856	2822.85	1931.6
993.6244	2671.4351	2823.25	1931.95
993.7477	2672.6839	2829.6	1937.05
993.8709	2673.9321	2813.65	1921.3
993.9942	2675.1795	2812	1923.45
994.1174	2676.4263	2795.95	1905.2
994.2405	2677.6724	2801.15	1910.65
994.3637	2678.9179	2807.75	1917.7
994.4868	2680.1626	2799.7	1910.25
994.6098	2681.4067	2792.15	1901.6
994.7328	2682.6501	2788.85	1896.8
994.8558	2683.8928	2784.85	1893.35
994.9788	2685.1348	2764.05	1871.85
995.1017	2686.3761	2768.3	1876.55
995.2245	2687.6168	2761.1	1869.85
995.3474	2688.8568	2747.25	1857.3
995.4702	2690.0961	2733.35	1843.3
995.5929	2691.3348	2744.55	1854.15
995.7156	2692.5727	2727.1	1837.05
995.8383	2693.81	2717.6	1825.75
995.961	2695.0466	2711.45	1821.6
996.0836	2696.2826	2725.2	1833.95
996.2062	2697.5178	2713.35	1821.95
996.3287	2698.7524	2689.35	1798.55
996.4512	2699.9863	2695.8	1804.75
996.5737	2701.2195	2684.05	1792.95
996.6961	2702.452	2690.2	1799.05
996.8185	2703.6839	2684.4	1792.25
996.9408	2704.9151	2680	1789.2
997.0631	2706.1456	2682.1	1791.1
997.1854	2707.3755	2674.95	1783.95
997.3077	2708.6046	2692.1	1799.35
997.4299	2709.8331	2686.05	1794.45
997.552	2711.0609	2690.35	1800.1
997.6742	2712.2881	2696.25	1805.95
997.7963	2713.5145	2704.5	1810.85
997.9183	2714.7403	2700.6	1811.05
998.0403	2715.9654	2700.15	1807.45
998.1623	2717.1899	2724.5	1817.95
998.2842	2718.4136	2719.2	1829.15
998.4062	2719.6367	2710.65	1822.65
998.528	2720.8591	2731.45	1834.6
998.6498	2722.0809	2728.95	1837.45
998.7716	2723.3019	2739.6	1847.4
998.8934	2724.5223	2723.7	1830.85
999.0151	2725.7421	2739.85	1847.55
999.1368	2726.9611	2735.4	1842.85
999.2584	2728.1795	2729.15	1834.5
999.38	2729.3972	2713.05	1824.3
999.5016	2730.6142	2702.15	1805.8
999.6231	2731.8306	2688.95	1797.9
999.7446	2733.0462	2645.8	1754.4
999.8661	2734.2612	2645.95	1750.95
999.9875	2735.4756	2614.05	1722.3
1000.1089	2736.6892	2592.85	1700.55
1000.2302	2737.9022	2582.35	1693.65
1000.3515	2739.1145	2549.65	1660.3
1000.4728	2740.3262	2553.5	1655.3
1000.594	2741.5372	2532.9	1645.65
1000.7152	2742.7475	2510.35	1619.3
1000.8363	2743.9571	2494.15	1604.25
1000.9575	2745.1661	2483.75	1590.5
1001.0785	2746.3744	2476.95	1587.3
1001.1996	2747.582	2451.25	1560.7
1001.3206	2748.7889	2443.55	1551.05
1001.4415	2749.9952	2438.65	1549.5
1001.5625	2751.2008	2425.1	1533.5
1001.6833	2752.4057	2415.65	1523.25
1001.8042	2753.61	2410.65	1519.75
1001.925	2754.8136	2409.25	1517.15
1002.0458	2756.0165	2397.7	1508.25
1002.1665	2757.2188	2396.95	1511.65
1002.2872	2758.4204	2397.2	1508.65
1002.4078	2759.6213	2379.2	1488
1002.5285	2760.8215	2382.1	1489.35
1002.649	2762.0211	2381.05	1492.25
1002.7696	2763.22	2372.25	1481.15
1002.8901	2764.4182	2366.45	1476.85
1003.0106	2765.6158	2361.35	1471.6
1003.131	2766.8127	2351.55	1462.25
1003.2514	2768.009	2337.05	1448
1003.3717	2769.2045	2336.05	1445.15
1003.492	2770.3994	2341.8	1450.85
1003.6123	2771.5936	2331.15	1443
1003.7325	2772.7872	2321.05	1433.1
1003.8527	2773.9801	2306.85	1415.95
1003.9729	2775.1723	2323.55	1419.35
1004.093	2776.3639	2306.25	1418.2
1004.2131	2777.5548	2300.85	1410.25
1004.3331	2778.745	2305.95	1417.3
1004.4531	2779.9346	2301.2	1412.95
1004.5731	2781.1235	2295.55	1404.85
1004.693	2782.3117	2290.9	1404.55
1004.8129	2783.4992	2308.5	1420.05
1004.9328	2784.6861	2290.85	1403.35
1005.0526	2785.8723	2295.85	1405.5
1005.1723	2787.0579	2296.95	1407.75
1005.2921	2788.2428	2303.85	1414.6
1005.4118	2789.427	2298.7	1411.6
1005.5314	2790.6106	2308.2	1420.4
1005.651	2791.7935	2314.85	1423.85
1005.7706	2792.9757	2322.65	1435.1
1005.8902	2794.1573	2333.9	1441.95
1006.0097	2795.3382	2337.15	1450.15
1006.1291	2796.5184	2350.1	1461.7
1006.2485	2797.698	2365	1475.35
1006.3679	2798.8769	2379.5	1492.85
1006.4873	2800.0551	2394.15	1506.05
1006.6066	2801.2327	2406.05	1516.25
1006.7258	2802.4096	2425	1536.55
1006.8451	2803.5859	2436.3	1546.15
1006.9642	2804.7615	2452.65	1564.75
1007.0834	2805.9364	2486.2	1600.15
1007.2025	2807.1106	2502.45	1613.65
1007.3216	2808.2842	2539.9	1650.9
1007.4406	2809.4572	2556.35	1665
1007.5596	2810.6294	2591.65	1701.2
1007.6785	2811.801	2642.25	1754.95
1007.7975	2812.972	2674.1	1785.25
1007.9163	2814.1423	2716	1827.2
1008.0352	2815.3119	2765.25	1878.95
1008.154	2816.4808	2804.75	1918
1008.2727	2817.6491	2837.85	1950.8
1008.3914	2818.8167	2892.15	2004
1008.5101	2819.9837	2942.7	2050.85
1008.6288	2821.15	2972.35	2085.4
1008.7474	2822.3157	3012	2125.25
1008.8659	2823.4807	3065.35	2178
1008.9844	2824.645	3109.25	2217.4
1009.1029	2825.8086	3144.3	2256.55
1009.2214	2826.9716	3185.05	2296.85
1009.3398	2828.134	3224.4	2337.45
1009.4581	2829.2957	3248.3	2360.4
1009.5764	2830.4567	3280.45	2393.8
1009.6947	2831.617	3307.95	2418.75
1009.813	2832.7767	3318.9	2432.6
1009.9312	2833.9358	3304.4	2416.75
1010.0493	2835.0941	3314.15	2426.5
1010.1675	2836.2519	3291.45	2401.25
1010.2855	2837.4089	3270.25	2381.35
1010.4036	2838.5653	3271.4	2384.25
1010.5216	2839.7211	3248.55	2364.55
1010.6396	2840.8761	3267.75	2378.9
1010.7575	2842.0306	3289.8	2403.35
1010.8754	2843.1843	3315.7	2428.1
1010.9932	2844.3374	3384.6	2497.9
1011.111	2845.4899	3438.25	2549.45
1011.2288	2846.6417	3514.55	2627.15
1011.3465	2847.7928	3575.9	2688.7
1011.4642	2848.9433	3656.15	2770
1011.5818	2850.0931	3750.1	2864.35
1011.6995	2851.2422	3814.65	2925.1
1011.817	2852.3907	3897.4	3010.45
1011.9345	2853.5385	3948.2	3058.45
1012.052	2854.6857	3994.95	3099.25
1012.1695	2855.8323	4041.2	3156.65
1012.2869	2856.9781	4104.15	3217.1
1012.4042	2858.1233	4142.75	3256.45
1012.5216	2859.2679	4186	3300.25
1012.6389	2860.4118	4236.4	3350
1012.7561	2861.555	4276.6	3384
1012.8733	2862.6976	4292.05	3402
1012.9905	2863.8395	4325.5	3440.3
1013.1076	2864.9808	4352.85	3465.2
1013.2247	2866.1214	4366.75	3483.3
1013.3417	2867.2614	4370.15	3482.3
1013.4587	2868.4007	4375.55	3487.5
1013.5757	2869.5393	4393.8	3506.2
1013.6926	2870.6773	4411.7	3522.85
1013.8095	2871.8146	4432.9	3543.8
1013.9263	2872.9513	4401.7	3512.25
1014.0431	2874.0874	4383.95	3497.3
1014.1599	2875.2227	4399.55	3512.4
1014.2766	2876.3574	4386.5	3499.2
1014.3933	2877.4915	4331.5	3447.4
1014.51	2878.6249	4295.45	3409.9
1014.6266	2879.7577	4296.4	3410.3
1014.7431	2880.8898	4275.7	3379.05
1014.8596	2882.0212	4246.4	3360.35
1014.9761	2883.152	4232.05	3344.3
1015.0925	2884.2821	4210.95	3325.6
1015.2089	2885.4116	4190	3304.05
1015.3253	2886.5405	4200.45	3315.1
1015.4416	2887.6686	4228.3	3337.1
1015.5579	2888.7962	4212.7	3327.7
1015.6741	2889.923	4225.45	3341.85
1015.7903	2891.0493	4217.6	3330.75
1015.9065	2892.1748	4233.9	3348.05
1016.0226	2893.2997	4229.1	3343.3
1016.1387	2894.424	4248.25	3363.1
1016.2547	2895.5476	4268.1	3381.5
1016.3707	2896.6706	4284.95	3398.55
1016.4866	2897.7929	4305.35	3419.45
1016.6025	2898.9145	4338.6	3452.25
1016.7184	2900.0355	4365.1	3478
1016.8342	2901.1559	4396.9	3511.4
1016.95	2902.2756	4426.8	3539.6
1017.0658	2903.3946	4446.05	3561.05
1017.1815	2904.513	4481.4	3591.4
1017.2971	2905.6308	4506.65	3621.65
1017.4127	2906.7479	4525.85	3639
1017.5283	2907.8643	4549.2	3663.85
1017.6439	2908.9801	4560.5	3675.4
1017.7594	2910.0953	4568.5	3682.7
1017.8748	2911.2098	4568.75	3678.15
1017.9902	2912.3236	4553	3659.05
1018.1056	2913.4368	4530.25	3639.3
1018.2209	2914.5494	4507.8	3620.75
1018.3362	2915.6613	4480.4	3589.15
1018.4515	2916.7725	4440.9	3552.7
1018.5667	2917.8831	4436.9	3549.4
1018.6819	2918.9931	4392.5	3503.25
1018.797	2920.1024	4369.35	3481.65
1018.9121	2921.211	4350.5	3465.6
1019.0271	2922.319	4312.15	3427.3
1019.1421	2923.4264	4295.9	3409.9
1019.2571	2924.5331	4284.35	3398.1
1019.372	2925.6391	4274.3	3389.75
1019.4869	2926.7445	4257.6	3373
1019.6017	2927.8493	4263.9	3376.65
1019.7165	2928.9534	4244.35	3357.25
1019.8313	2930.0569	4236.6	3347
1019.946	2931.1597	4231.1	3343.5
1020.0606	2932.2619	4201.45	3315.2
1020.1753	2933.3634	4197.65	3312.4
1020.2899	2934.4643	4190.3	3300.3
1020.4044	2935.5645	4153.15	3260.4
1020.5189	2936.6641	4121.4	3231.25
1020.6334	2937.763	4090.8	3207.55
1020.7478	2938.8613	4033.75	3147.65
1020.8622	2939.959	3959.75	3067.95
1020.9765	2941.056	3890.85	3005.15
1021.0908	2942.1523	3796.75	2910.75
1021.2051	2943.248	3706.1	2820.05
1021.3193	2944.3431	3614.1	2730.4
1021.4334	2945.4375	3512.95	2627.9
1021.5476	2946.5313	3401.05	2517.2
1021.6617	2947.6244	3283.1	2399.5
1021.7757	2948.7169	3183.25	2295.35
1021.8897	2949.8087	3096.7	2209.7
1022.0037	2950.8999	3000.25	2116.7
1022.1176	2951.9904	2908.35	2022.65
1022.2315	2953.0803	2836.25	1950.85
1022.3453	2954.1696	2767.45	1881.8
1022.4591	2955.2582	2710.55	1826.8
1022.5728	2956.3462	2665.6	1779.45
1022.6865	2957.4335	2619.65	1732.65
1022.8002	2958.5202	2588.45	1701.3
1022.9138	2959.6062	2560.55	1675.2
1023.0274	2960.6916	2535	1650
1023.141	2961.7764	2507.7	1623.65
1023.2545	2962.8605	2491.8	1604.5
1023.3679	2963.9439	2487.2	1600.6
1023.4813	2965.0267	2480.2	1592.95
1023.5947	2966.1089	2477.1	1569.4
1023.708	2967.1905	2453.8	1568.9
1023.8213	2968.2714	2442.7	1557.95
1023.9346	2969.3516	2440.35	1557.15
1024.0478	2970.4312	2452.95	1560.6
1024.1609	2971.5102	2436.35	1550.5
1024.274	2972.5885	2431.5	1547.8
1024.3871	2973.6662	2439.85	1552.45
1024.5002	2974.7432	2434.3	1548.5
1024.6132	2975.8196	2424.25	1536.95
1024.7261	2976.8954	2408.65	1523.45
1024.839	2977.9705	2400.15	1514.2
1024.9519	2979.045	2381.55	1497.25
1025.0647	2980.1188	2362.9	1476.95
1025.1775	2981.192	2348.15	1464.7
1025.2902	2982.2645	2312.85	1427.75
1025.4029	2983.3364	2282.85	1398.55
1025.5156	2984.4077	2257.8	1373.2
1025.6282	2985.4783	2233.8	1343.75
1025.7407	2986.5483	2196.3	1311.7
1025.8532	2987.6177	2163.05	1277.65
1025.9657	2988.6864	2125.55	1242.05
1026.0782	2989.7545	2079.2	1191.55
1026.1906	2990.8219	2056.3	1172.7
1026.3029	2991.8887	2025.85	1140.05
1026.4152	2992.9548	1986.95	1101.05
1026.5275	2994.0204	1942.75	1060.75
1026.6397	2995.0852	1922.65	1038.75
1026.7519	2996.1495	1901.15	1016.45
1026.864	2997.2131	1873.4	989.55
1026.9761	2998.276	1855.55	970.85
1027.0882	2999.3383	1829.8	944.5
1027.2002	3000.4	1808.05	923.4
1027.3122	3001.4611	1786.75	902
1027.4241	3002.5215	1785.55	897.5
1027.536	3003.5812	1758.45	872.9
1027.6478	3004.6404	1743.1	857.05
1027.7596	3005.6989	1739.75	855.2
1027.8714	3006.7567	1737.25	851.85
1027.9831	3007.8139	1732.45	826
1028.0947	3008.8705	1710.8	826.1
1028.2064	3009.9264	1718.9	818.05
1028.3179	3010.9818	1699.9	816.8
1028.4295	3012.0364	1698.65	813.4
1028.541	3013.0905	1685.1	801.6
1028.6524	3014.1439	1692.9	806.95
1028.7638	3015.1966	1689.75	803.5
1028.8752	3016.2487	1693.05	809.5
1028.9865	3017.3002	1687.5	799.6
1029.0978	3018.3511	1668.7	783.2
1029.209	3019.4013	1681.4	797.95
1029.3202	3020.4509	1675.2	791.35
1029.4314	3021.4998	1686.3	803.15
1029.5425	3022.5481	1676.85	793
1029.6535	3023.5958	1683.5	799.2
1029.7645	3024.6428	1680.7	794.55
1029.8755	3025.6892	1670.55	785.95
1029.9864	3026.735	1676.7	794.5
1030.0973	3027.7802	1683.35	799.25
1030.2082	3028.8247	1675.35	792.5
1030.319	3029.8685	1675.75	789.9
1030.4297	3030.9118	1677.45	791.1
1030.5404	3031.9544	1684.8	800.75
1030.6511	3032.9963	1684.05	798.65
1030.7617	3034.0376	1689.55	807.5
1030.8723	3035.0783	1694.75	808.6
1030.9829	3036.1184	1703.25	817.45
1031.0934	3037.1578	1695.8	812.6
1031.2038	3038.1966	1700.55	814.25
1031.3142	3039.2348	1699.75	815.25
1031.4246	3040.2723	1711.95	818.85
1031.5349	3041.3092	1694.25	809.85
1031.6452	3042.3455	1688.2	806.2
1031.7554	3043.3811	1680.65	795.75
1031.8656	3044.4161	1677	790.8
1031.9758	3045.4505	1671.6	790.15
1032.0859	3046.4842	1669.95	784.75
1032.1959	3047.5173	1662.35	778.9
1032.3059	3048.5498	1646.85	762.3
1032.4159	3049.5816	1639.3	753.6
1032.5258	3050.6128	1635.5	750.4
1032.6357	3051.6434	1630.3	743.7
1032.7455	3052.6734	1623.05	739.25
1032.8553	3053.7027	1617.3	735.75
1032.9651	3054.7314	1609.8	725.75
1033.0748	3055.7594	1596	713.7
1033.1845	3056.7868	1594.75	710.75
1033.2941	3057.8136	1587.45	703.85
1033.4037	3058.8398	1579.7	697.45
1033.5132	3059.8653	1567.45	683.4
1033.6227	3060.8902	1568	683.75
1033.7321	3061.9145	1563.55	679.5
1033.8415	3062.9381	1551.5	667.05
1033.9509	3063.9612	1561.4	661
1034.0602	3064.9835	1544.95	659.3
1034.1694	3066.0053	1531.5	645.2
1034.2787	3067.0264	1530.35	648.2
1034.3878	3068.0469	1521.05	635.55
1034.497	3069.0668	1500.9	614.45
1034.6061	3070.086	1496.35	612.95
1034.7151	3071.1046	1488.1	603.25
1034.8241	3072.1226	1475.65	591.15
1034.9331	3073.1399	1469.5	585.75
1035.042	3074.1567	1454.8	568.35
1035.1508	3075.1727	1447.3	559.85
1035.2597	3076.1882	1442.25	560.8
1035.3684	3077.203	1429.35	546.05
1035.4772	3078.2173	1417.15	530.95
1035.5859	3079.2308	1401.3	515.75
1035.6945	3080.2438	1398.85	513.55
1035.8031	3081.2561	1391.9	508.95
1035.9117	3082.2678	1382.8	498.95
1036.0202	3083.2789	1371.95	488.05
1036.1286	3084.2893	1361.65	479.25
1036.2371	3085.2991	1361.05	476.7
1036.3454	3086.3083	1361.55	473.95
1036.4538	3087.3169	1345.4	460.7
1036.562	3088.3248	1340.05	453.8
1036.6703	3089.3321	1333	448.1
1036.7785	3090.3388	1319.75	435.6
1036.8866	3091.3449	1329.65	446.5
1036.9948	3092.3503	1322.15	434.7
1037.1028	3093.3551	1315.3	433
1037.2108	3094.3593	1309.9	427
1037.3188	3095.3629	1303.95	421.2
1037.4267	3096.3658	1303.65	419.5
1037.5346	3097.3681	1296.4	411.85
1037.6425	3098.3698	1290.15	402.65
1037.7503	3099.3708	1303.05	414.8
1037.858	3100.3713	1281.75	398.6
1037.9657	3101.3711	1281.35	396.6
1038.0734	3102.3702	1414.6	398.15
1038.181	3103.3688	1276.85	390.5
1038.2886	3104.3667	1266.95	384.35
1038.3961	3105.364	1273.05	389.75
1038.5036	3106.3607	1273.5	387.95
1038.611	3107.3568	1268.6	387.5
1038.7184	3108.3522	1256.5	372
1038.8257	3109.347	1259.15	376.55
1038.933	3110.3412	1265.45	379.15
1039.0403	3111.3348	1258.3	374.65
1039.1475	3112.3277	1247.5	365.45
1039.2547	3113.32	1245.75	363.2
1039.3618	3114.3117	1246.25	363.5
1039.4689	3115.3028	1240.5	356.05
1039.5759	3116.2932	1246.9	362.65
1039.6829	3117.2831	1242.15	352.7
1039.7898	3118.2723	1239.05	355.3
1039.8967	3119.2608	1234.7	353.4
1040.0035	3120.2488	1233.15	350.25
1040.1103	3121.2361	1231.15	348.25
1040.2171	3122.2229	1227.05	342.6
1040.3238	3123.209	1232.65	347.8
1040.4305	3124.1944	1219.6	335.85
1040.5371	3125.1793	1225.15	340.35
1040.6437	3126.1635	1219.95	336.7
1040.7502	3127.1471	1218.15	336.15
1040.8567	3128.1301	1215.45	331.1
1040.9631	3129.1125	1215.6	333.5
1041.0695	3130.0942	1214.7	333.05
1041.1759	3131.0753	1221.4	329.1
1041.2822	3132.0558	1207.95	322.55
1041.3884	3133.0357	1209.3	326.4
1041.4946	3134.015	1208.2	325
1041.6008	3134.9936	1206.05	322.05
1041.7069	3135.9716	1219.75	312.85
1041.813	3136.949	1197.9	314.5
1041.919	3137.9258	1212.1	309.85
1042.025	3138.902	1203.45	314.1
1042.1309	3139.8775	1189.4	307.8
1042.2368	3140.8524	1184.45	300.3
1042.3427	3141.8267	1189.7	308.2
1042.4485	3142.8004	1187.35	301.7
1042.5542	3143.7735	1189.25	300.05
1042.6599	3144.7459	1185.05	298.75
1042.7656	3145.7178	1190.55	306.2
1042.8712	3146.689	1184.35	302.8
1042.9768	3147.6596	1179.15	295.05
1043.0823	3148.6295	1176.2	293.5
1043.1878	3149.5989	1173.95	292.05
1043.2932	3150.5676	1166.65	284.2
1043.3986	3151.5357	1169.7	288
1043.5039	3152.5032	1169.95	287.55
1043.6092	3153.4701	1164.5	283.05
1043.7145	3154.4364	1165.3	280.75
1043.8197	3155.402	1164.35	282.35
1043.9248	3156.367	1163.55	280.55
1044.03	3157.3315	1191.9	270.4
1044.135	3158.2952	1157.25	274.8
1044.24	3159.2584	1154.45	271.8
1044.345	3160.221	1151.25	268.45
1044.4499	3161.1829	1156.45	273.5
1044.5548	3162.1442	1147.9	265.15
1044.6596	3163.105	1146.35	263.2
1044.7644	3164.065	1149.2	266.05
1044.8692	3165.0245	1144.65	256.55
1044.9739	3165.9834	1139.3	260.8
1045.0785	3166.9416	1137.55	254.5
1045.1831	3167.8993	1141.55	257.9
1045.2877	3168.8563	1142.85	260.5
1045.3922	3169.8127	1137.4	254.25
1045.4966	3170.7684	1133.85	251.8
1045.6011	3171.7236	1135.95	253.7
1045.7054	3172.6782	1133.25	250.25
1045.8098	3173.6321	1129.45	246.9
1045.914	3174.5854	1135.75	245.55
1046.0183	3175.5381	1127.85	246.7
1046.1224	3176.4902	1125.15	242
1046.2266	3177.4417	1128.3	245.35
1046.3307	3178.3926	1127.65	244.65
1046.4347	3179.3428	1127.25	246.4
1046.5387	3180.2924	1123.65	243.1
1046.6427	3181.2415	1123.05	240.45
1046.7466	3182.1899	1122.25	237.25
1046.8504	3183.1377	1118.45	236.9
1046.9542	3184.0848	1116.15	229.45
1047.058	3185.0314	1116.85	233
1047.1617	3185.9773	1115.65	232.45
1047.2654	3186.9227	1118	232.65
1047.369	3187.8674	1116.5	233.35
1047.4726	3188.8115	1113.45	226.65
1047.5761	3189.755	1106.9	224.3
1047.6796	3190.6979	1104.5	222.25
1047.783	3191.6402	1104.8	222.4
1047.8864	3192.5818	1103.75	221.35
1047.9898	3193.5229	1112.45	225.3
1048.0931	3194.4633	1103.9	222
1048.1963	3195.4031	1105.75	222.3
1048.2995	3196.3423	1097.85	215.25
1048.4027	3197.2809	1103.05	221.8
1048.5058	3198.2189	1098.15	214.75
1048.6089	3199.1563	1107.15	219.6
1048.7119	3200.0931	1095.45	213.75
1048.8148	3201.0292	1091.45	210.75
1048.9178	3201.9648	1089.5	208.85
1049.0206	3202.8997	1090	205.75
1049.1235	3203.834	1090.4	205.85
1049.2262	3204.7677	1085.05	202.65
1049.329	3205.7008	1087.8	204.6
1049.4317	3206.6333	1084.4	203.7
1049.5343	3207.5652	1091	205.45
1049.6369	3208.4964	1083.6	200.9
1049.7394	3209.4271	1087.05	205.55
1049.8419	3210.3571	1082.25	200.65
1049.9444	3211.2865	1087.3	204.25
1050.0468	3212.2154	1080.95	195.1
1050.1491	3213.1436	1086.65	201.95
1050.2514	3214.0712	1084.95	194.35
1050.3537	3214.9982	1078.55	195.4
1050.4559	3215.9246	1072	190.2
1050.5581	3216.8503	1072.7	190.5
1050.6602	3217.7755	1075.9	195.35
1050.7623	3218.7001	1073.45	190.45
1050.8643	3219.624	1077.3	194.35
1050.9663	3220.5473	1074.8	192.3
1051.0682	3221.4701	1073.05	188.8
1051.1701	3222.3922	1078.05	195
1051.2719	3223.3137	1071.85	188.75
1051.3737	3224.2346	1067.6	183.95
1051.4754	3225.1549	1071.2	190.3
1051.5771	3226.0746	1066.05	185.35
1051.6788	3226.9937	1067.5	181.95
1051.7804	3227.9121	1064.15	180.35
1051.8819	3228.83	1067.7	185.05
1051.9834	3229.7473	1063.05	178.65
1052.0849	3230.6639	1063.65	182.25
1052.1863	3231.5799	1060.6	179.6
1052.2876	3232.4954	1054.85	173.2
1052.3889	3233.4102	1057.9	176.35
1052.4902	3234.3244	1059.1	178.05
1052.5914	3235.238	1055.15	173.2
1052.6926	3236.151	1078.15	168.9
1052.7937	3237.0634	1058.1	177.55
1052.8948	3237.9752	1055.7	173.55
1052.9958	3238.8864	1051.3	167.65
1053.0968	3239.797	1054.1	170.95
1053.1977	3240.7069	1052.65	170.15
1053.2986	3241.6163	1050.15	166.75
1053.3994	3242.5251	1046.05	165.55
1053.5002	3243.4332	1048.65	168
1053.6009	3244.3408	1045.05	164.5
1053.7016	3245.2477	1044	160.15
1053.8022	3246.154	1046.55	162.55
1053.9028	3247.0598	1044.6	159.65
1054.0034	3247.9649	1044.45	162
1054.1039	3248.8694	1040.5	158.75
1054.2043	3249.7733	1040.65	158.15
1054.3047	3250.6766	1039.35	157.1
1054.4051	3251.5793	1042.6	160.65
1054.5054	3252.4814	1041.1	160.55
1054.6056	3253.3829	1035.15	154.4
1054.7058	3254.2838	1031.1	150.25
1054.806	3255.1841	1032.3	152.85
1054.9061	3256.0838	1032.4	151.95
1055.0061	3256.9829	1030.75	150.45
1055.1062	3257.8814	1034.4	151.55
1055.2061	3258.7792	1029.65	143.6
1055.306	3259.6765	1026.15	144.25
1055.4059	3260.5731	1023.4	142.05
1055.5057	3261.4692	1022.75	140.65
1055.6055	3262.3647	1024.2	142.1
1055.7052	3263.2595	1016.5	134.2
1055.8049	3264.1538	1012.95	131.8
1055.9045	3265.0474	1015.15	133.2
1056.0041	3265.9404	1012.4	129.35
1056.1036	3266.8329	1012.35	131.75
1056.2031	3267.7247	1018.75	126.45
1056.3025	3268.616	1002.7	124
1056.4019	3269.5066	1004.9	123.55
1056.5013	3270.3966	1003.95	121.75
1056.6005	3271.286	994.9	114.15
