Software Version:	3.9.2.0
Unit SN:	10000200
Spectrometer SN:	6960
Date:	3/26/2024 2:00:13 PM
Data Line Index:	25
Spectral Points:	2048
Integration time (ms):	125
Averages:	20
Delay (ms):	30000
Sequence Number:	1
Processing:	dark subtract
Laser Power (mW):	305
Laser Current (mA):	821
Laser Diode Temp (C):	25.1
Laser Case Temp (C):	27.4
System Temp (C):	27.4
Spectrometer Temp (C):	25.3
CCD Temp (C):	0.009
Secondary Temp (C):	20.014
Heatsink Temp (C):	22.649
CCDPCB Temp (C):	36.852
SecondaryPCB Temp (C):	34.417

Wavelength	RamanShift	Raw Counts	Dark Subtracted
787.061	30.1047	602.85	191.85
787.2016	32.3739	611.55	203.15
787.3422	34.6426	629	219.4
787.4828	36.9109	642.55	230.6
787.6235	39.1787	661.5	245.95
787.7642	41.4461	682.85	262.5
787.9049	43.7131	705.7	281.8
788.0456	45.9796	725.85	298.7
788.1863	48.2456	747.25	317.3
788.3271	50.5112	773	336.8
788.4679	52.7764	785.85	348.7
788.6087	55.0411	811.2	371.4
788.7496	57.3054	845.55	399.3
788.8904	59.5692	872.45	424.5
789.0313	61.8326	905.6	452.3
789.1722	64.0955	939.75	482.05
789.3132	66.3579	979.05	515.45
789.4541	68.6199	1029.7	565.3
789.5951	70.8815	1109.5	642.6
789.7361	73.1426	1282.95	811.05
789.8771	75.4032	1719.7	1242.65
790.0181	77.6634	2799.85	2315.6
790.1592	79.9231	5503.4	5010.5
790.3003	82.1824	11686.35	11171.05
790.4414	84.4412	24412.05	23862.5
790.5825	86.6995	47358.4	46760.8
790.7237	88.9574	60183.95	59537.8
790.8648	91.2148	63930.55	63249.3
791.006	93.4717	64472.8	63771.15
791.1472	95.7282	64727.45	64014.5
791.2885	97.9842	64847.8	64126.1
791.4297	100.2398	64786.6	64063.8
791.571	102.4949	64780	64055.65
791.7123	104.7495	64713	63987.05
791.8536	107.0036	64622.5	63892.4
791.9949	109.2573	64700.35	63973.15
792.1363	111.5105	64567.9	63835.25
792.2777	113.7632	64523.3	63787.85
792.4191	116.0154	64575.25	63834.65
792.5605	118.2672	64628.75	63895.05
792.7019	120.5185	64618.05	63881.3
792.8434	122.7693	64588.7	63850.05
792.9849	125.0197	64371.9	63627.5
793.1264	127.2696	64716.65	63971.25
793.2679	129.519	64606.2	63858.2
793.4094	131.7679	64724.95	63971
793.551	134.0163	64428.3	63673.4
793.6926	136.2642	64544.85	63785
793.8342	138.5117	64718.75	63952.6
793.9758	140.7587	64633.4	63866.6
794.1175	143.0052	64584.6	63817
794.2591	145.2512	64404.9	63644.05
794.4008	147.4967	64609.3	63845.35
794.5425	149.7417	64549.8	63781.9
794.6842	151.9863	64537.15	63764.2
794.826	154.2304	64420.85	63641.55
794.9677	156.4739	64470.75	63685.25
795.1095	158.717	64618.7	63838.25
795.2513	160.9596	64505.4	63716.2
795.3931	163.2017	64313.4	63523.4
795.535	165.4433	64468.15	63677.3
795.6768	167.6844	64337.25	63545.75
795.8187	169.925	64430.05	63638.6
795.9606	172.1651	64289.15	63497.65
796.1025	174.4047	64342.5	63543.9
796.2445	176.6439	64296.05	63500.65
796.3864	178.8825	64220.35	63414.45
796.5284	181.1206	64389.8	63579.15
796.6704	183.3582	64322.65	63507.65
796.8124	185.5954	64259.2	63448.7
796.9544	187.832	64250.1	63429.3
797.0965	190.0681	64125.85	63302.4
797.2386	192.3037	64328.95	63506.25
797.3806	194.5388	64543.75	63718.1
797.5228	196.7734	64013.7	63183.4
797.6649	199.0075	64528.8	63691.2
797.807	201.2411	64314.1	63475.4
797.9492	203.4742	64590.05	63751
798.0914	205.7068	64511	63675.05
798.2336	207.9389	64500.65	63666.65
798.3758	210.1704	64469.05	63629.6
798.518	212.4015	64653.2	63807.3
798.6603	214.632	64449	63609.45
798.8025	216.862	64698.55	63863.4
798.9448	219.0915	64552.9	63723.75
799.0871	221.3205	64552.45	63729.1
799.2294	223.549	64750	63932.3
799.3718	225.777	64747.3	63926.25
799.5141	228.0044	64841.1	64017.15
799.6565	230.2314	64799.6	63980.8
799.7989	232.4578	64814.5	63998.65
799.9413	234.6837	64826.3	64001.4
800.0837	236.909	65035.8	64208.3
800.2262	239.1339	64709.8	63853.5
800.3687	241.3582	64863.65	64026.2
800.5111	243.582	64862	63987.7
800.6536	245.8053	64823.55	63970.65
800.7961	248.0281	64829.75	63975.5
800.9387	250.2503	64869.2	64011.25
801.0812	252.472	64743.4	63882.6
801.2238	254.6932	64831.4	63964.8
801.3664	256.9139	64773.15	63907
801.509	259.134	64963.1	64094.35
801.6516	261.3536	64737.9	63869.25
801.7942	263.5727	64851.2	63977.3
801.9369	265.7912	64782.95	63911
802.0795	268.0092	64808.55	63937.5
802.2222	270.2267	64846.4	63976.85
802.3649	272.4436	64719	63845.75
802.5076	274.6601	64837.45	63957.35
802.6504	276.8759	64885.4	64011.7
802.7931	279.0913	64808.95	63938.45
802.9359	281.3061	64843.85	63967.95
803.0787	283.5204	64843.45	63962.7
803.2215	285.7341	64833.25	63949.4
803.3643	287.9473	64946.1	64051.1
803.5071	290.16	64865.9	63980.25
803.6499	292.3721	64922.5	64040.7
803.7928	294.5837	64865.85	63979.55
803.9357	296.7947	64813.25	63932.35
804.0786	299.0052	64956.7	64067.15
804.2215	301.2152	64880.95	63992.55
804.3644	303.4246	64922.05	64041
804.5074	305.6334	64904.65	64023.4
804.6503	307.8418	64761.75	63878.45
804.7933	310.0495	64756.75	63869.4
804.9363	312.2568	64737.15	63848.5
805.0793	314.4635	64734.3	63843.5
805.2223	316.6696	64797.3	63906.9
805.3653	318.8752	64860.6	63964.05
805.5084	321.0802	64580.95	63686.7
805.6514	323.2847	64739.5	63843.5
805.7945	325.4887	64721.55	63824.75
805.9376	327.692	64638.7	63748.1
806.0807	329.8949	64700.2	63807.9
806.2238	332.0972	64611.8	63715
806.367	334.2989	64662.75	63758.6
806.5101	336.5001	64743.75	63842.75
806.6533	338.7007	64471	63572.9
806.7965	340.9008	64639.3	63734.45
806.9397	343.1003	64655.55	63746.5
807.0829	345.2992	64715.95	63815.15
807.2261	347.4976	64559.35	63648.4
807.3693	349.6955	64631.8	63719.85
807.5126	351.8927	64515.05	63598.75
807.6559	354.0895	64654.2	63729.2
807.7991	356.2856	64631.75	63718.95
807.9424	358.4812	64720	63810.05
808.0857	360.6763	64519.9	63606.9
808.2291	362.8707	64712.55	63798.1
808.3724	365.0646	64601.55	63689.05
808.5158	367.258	64603.4	63686.45
808.6591	369.4508	64468.1	63545.3
808.8025	371.643	64668.5	63748.55
808.9459	373.8346	64563.6	63640.2
809.0893	376.0257	64589.75	63659.85
809.2327	378.2162	64529.7	63600.7
809.3762	380.4062	64344.65	63419.2
809.5196	382.5956	64501.4	63580.35
809.6631	384.7844	64465.3	63543.75
809.8066	386.9726	64558.75	63636.2
809.9501	389.1603	64521.25	63598.6
810.0936	391.3474	64366.45	63403.2
810.2371	393.5339	64517.3	63594.9
810.3806	395.7199	64302.7	63380.7
810.5241	397.9052	64320.1	63405.95
810.6677	400.09	64360.1	63446.2
810.8113	402.2743	64515.75	63602
810.9548	404.4579	64335.6	63422.3
811.0984	406.641	64348.5	63437
811.2421	408.8235	64453.4	63542.5
811.3857	411.0054	64500.25	63582.7
811.5293	413.1868	64562.8	63642.4
811.673	415.3675	64503.65	63574.6
811.8166	417.5477	64524.3	63597.45
811.9603	419.7273	64534.55	63605.25
812.104	421.9064	64503.65	63575.6
812.2477	424.0848	64511.65	63585.85
812.3914	426.2627	64622.2	63694.55
812.5351	428.4399	64391.2	63462.25
812.6788	430.6166	64185.8	63248.2
812.8226	432.7928	64370.2	63438.45
812.9663	434.9683	64192	63265.65
813.1101	437.1432	64160.5	63232.85
813.2539	439.3176	64303.05	63378.3
813.3977	441.4914	64054.05	63136.85
813.5415	443.6645	64082.45	63157.3
813.6853	445.8371	64105.55	63176.8
813.8291	448.0091	64004.9	63077
813.973	450.1806	63939.55	63012.95
814.1168	452.3514	64003.75	63077.05
814.2607	454.5216	63854.55	62919.15
814.4046	456.6913	63999.35	63069.55
814.5485	458.8603	64043.65	63117.6
814.6924	461.0288	63832.95	62913.75
814.8363	463.1967	64006.75	63088.25
814.9802	465.3639	63992.2	63067.1
815.1241	467.5306	63708.95	62779.85
815.2681	469.6967	63922.2	63000.25
815.412	471.8622	64005.45	63084.65
815.556	474.0271	63912.5	62989.8
815.7	476.1914	63939.65	63009.6
815.844	478.3551	63974.95	63044.2
815.988	480.5182	64128.8	63205.9
816.132	482.6807	63869.9	62951.75
816.276	484.8426	63904.2	62996.1
816.4201	487.0039	64152.3	63235.5
816.5641	489.1647	64163.7	63236.25
816.7082	491.3248	63922.25	62994.65
816.8522	493.4843	64205.3	63283.45
816.9963	495.6432	64222.2	63294.95
817.1404	497.8015	63952.75	63016.05
817.2845	499.9592	64091.1	63149.65
817.4286	502.1163	64069.7	63129.45
817.5727	504.2728	64023.15	63093.4
817.7168	506.4287	63994.8	63077.85
817.861	508.5839	63854.9	62936.5
818.0051	510.7386	63929.5	63002.6
818.1493	512.8927	63931.1	62997.9
818.2935	515.0461	63839.1	62907.45
818.4377	517.199	63952.45	63016.95
818.5818	519.3512	63851.85	62917.4
818.726	521.5029	63844.05	62904.4
818.8703	523.6539	63878.9	62942.55
819.0145	525.8043	63677.8	62739.2
819.1587	527.9541	63865.5	62925.9
819.303	530.1033	63842.3	62905.85
819.4472	532.2519	63747.25	62811.6
819.5915	534.3999	63915.75	62975.7
819.7357	536.5472	64018.1	63081.7
819.88	538.694	63770.1	62841.55
820.0243	540.8401	63982.4	63042.7
820.1686	542.9856	64025.2	63079.1
820.3129	545.1305	64113.4	63156.75
820.4572	547.2748	63927.15	62966.95
820.6016	549.4185	63910.2	62950.35
820.7459	551.5615	64000.8	63045.45
820.8902	553.704	63935.3	62984.6
821.0346	555.8458	63793.15	62843.9
821.1789	557.987	63851.8	62898.6
821.3233	560.1276	63923.35	62972.85
821.4677	562.2675	63839.15	62886.1
821.6121	564.4069	63872.65	62921.65
821.7565	566.5456	63957.4	63008.7
821.9009	568.6837	63740.65	62795.7
822.0453	570.8212	63821.25	62879.55
822.1897	572.958	63544.3	62599
822.3342	575.0942	63722.85	62781.5
822.4786	577.2299	63562.25	62624.55
822.6231	579.3648	63501.85	62574.35
822.7675	581.4992	63488.55	62574.35
822.912	583.6329	63518.65	62604.8
823.0565	585.766	63518.75	62601.65
823.201	587.8985	63595	62667.25
823.3454	590.0304	63343.95	62393.7
823.4899	592.1616	63524	62578.75
823.6345	594.2922	63436.75	62484.9
823.779	596.4222	63264.85	62311.8
823.9235	598.5515	63275.2	62325.5
824.068	600.6802	63374.4	62424.25
824.2126	602.8083	63143.85	62195.2
824.3571	604.9358	63106.2	62157.2
824.5017	607.0626	63275.85	62323.9
824.6462	609.1888	62939.45	61976.4
824.7908	611.3144	63162.95	62201.9
824.9354	613.4393	63046.45	62084.7
825.08	615.5636	62879.45	61921.85
825.2246	617.6873	63026.45	62072.4
825.3692	619.8103	62783.85	61825.8
825.5138	621.9327	63028.65	62076.2
825.6584	624.0544	63030.45	62084.3
825.803	626.1756	62902.15	61952.35
825.9477	628.2961	62890.25	61937.6
826.0923	630.4159	62745.9	61794.05
826.237	632.5351	62680.05	61723.2
826.3816	634.6537	63042.25	62083.5
826.5263	636.7716	62610.2	61649
826.6709	638.8889	62717.2	61752.8
826.8156	641.0056	62716.85	61751.1
826.9603	643.1216	62765.45	61804.15
827.105	645.237	62859.4	61903.05
827.2497	647.3518	62581.05	61631.35
827.3944	649.4659	62684.15	61740.2
827.5391	651.5793	62708.9	61765.55
827.6838	653.6922	62743.4	61794.35
827.8285	655.8043	62410.25	61457.15
827.9733	657.9159	62834.95	61884.45
828.118	660.0268	62109.25	61149
828.2627	662.137	62521.4	61566.3
828.4075	664.2466	62574.2	61610.05
828.5522	666.3556	62411.2	61452.6
828.697	668.4639	62515.95	61562.65
828.8418	670.5716	62371.9	61426.95
828.9865	672.6786	62497.2	61544.25
829.1313	674.785	62299.4	61338.35
829.2761	676.8907	62323.75	61365
829.4209	678.9958	62438.95	61491.35
829.5657	681.1002	62442.5	61486.3
829.7105	683.204	62208.25	61239.5
829.8553	685.3072	62109.55	61148.1
830.0001	687.4097	62198.9	61240.15
830.1449	689.5115	62075.35	61113.7
830.2898	691.6127	62281.75	61326.5
830.4346	693.7132	62040.95	61091.35
830.5794	695.8131	62056.55	61079.55
830.7243	697.9123	62117.55	61155.3
830.8691	700.0109	62172.35	61205.5
831.014	702.1089	61827	60861.5
831.1588	704.2061	61927	60967.85
831.3037	706.3028	61958	60991.3
831.4486	708.3987	62005.05	61041.2
831.5935	710.4941	61831.55	60872.3
831.7383	712.5887	62088.7	61127.5
831.8832	714.6827	61961.45	61000.2
832.0281	716.7761	62169.55	61216.15
832.173	718.8688	62288.9	61330.95
832.3179	720.9608	62108.6	61142.95
832.4628	723.0522	62144.05	61172.2
832.6077	725.1429	61877.85	60907.05
832.7527	727.233	62328.55	61364.75
832.8976	729.3224	61438.65	60471
833.0425	731.4112	61718.9	60754.35
833.1874	733.4993	61670.6	60705.05
833.3324	735.5867	61625.9	60665.85
833.4773	737.6735	61406.8	60441.95
833.6222	739.7596	61176.9	60215.7
833.7672	741.845	61150.85	60184.35
833.9122	743.9298	61448.45	60487.5
834.0571	746.014	61131.7	60167.75
834.2021	748.0974	60913.75	59942.05
834.347	750.1802	61342.3	60372.35
834.492	752.2624	60757.6	59788.65
834.637	754.3439	60825.45	59856.8
834.782	756.4247	60968.85	59993.3
834.9269	758.5048	60748.45	59783.1
835.0719	760.5843	60899.15	59933.9
835.2169	762.6631	61033.05	60062.4
835.3619	764.7413	61028.7	60060.55
835.5069	766.8188	61163.45	60197.8
835.6519	768.8956	61399.45	60431.4
835.7969	770.9718	61444.75	60476.35
835.9419	773.0473	61272.05	60302.05
836.0869	775.1221	60926.3	59956.25
836.232	777.1962	60800.9	59833.75
836.377	779.2697	60446.35	59477.4
836.522	781.3426	60636.4	59647.65
836.667	783.4147	60719.4	59748.3
836.8121	785.4862	60701.2	59733.2
836.9571	787.557	60436.25	59466.4
837.1021	789.6271	60644.5	59673.15
837.2472	791.6966	60234.8	59265.8
837.3922	793.7654	59781.95	58810.85
837.5373	795.8335	59728.3	58758.45
837.6823	797.901	59734.1	58764.25
837.8274	799.9678	59482.5	58511.3
837.9724	802.0339	59414.75	58442.6
838.1175	804.0993	59478.1	58492.3
838.2626	806.1641	59273.45	58299
838.4076	808.2282	59188.95	58220.55
838.5527	810.2916	59040.4	58068.5
838.6978	812.3544	59256.75	58288.05
838.8428	814.4164	58752.2	57787.2
838.9879	816.4778	58851.05	57872.9
839.133	818.5385	58838.75	57862.75
839.2781	820.5986	58787.8	57810.3
839.4232	822.658	58915.75	57939.55
839.5682	824.7166	58925.95	57954.95
839.7133	826.7747	58629.45	57658.7
839.8584	828.832	58855.65	57884.3
840.0035	830.8886	59043.85	58068.9
840.1486	832.9446	59054.6	58080.95
840.2937	834.9999	58345.15	57371.8
840.4388	837.0545	58713.75	57735.25
840.5839	839.1085	58849.1	57875.45
840.729	841.1618	58682.5	57704.5
840.8741	843.2143	58130.7	57160.35
841.0192	845.2662	58031.2	57057.2
841.1643	847.3175	58193.6	57222.2
841.3095	849.368	57472.4	56499.8
841.4546	851.4179	57974.8	57006.8
841.5997	853.467	57453	56479.6
841.7448	855.5155	57717.4	56742.2
841.8899	857.5633	57230.15	56255.3
842.0351	859.6105	56989.55	56017.1
842.1802	861.6569	57200.5	56229.45
842.3253	863.7027	56684.25	55710.05
842.4704	865.7478	56850.6	55877.65
842.6156	867.7922	56754.35	55778.6
842.7607	869.8359	56985.8	56009.35
842.9058	871.8789	56410.35	55437.45
843.0509	873.9212	56769.75	55759.55
843.1961	875.9629	56761.55	55789.4
843.3412	878.0039	56767.05	55796.5
843.4863	880.0441	56615.6	55641.7
843.6315	882.0837	56584.4	55614.75
843.7766	884.1226	56543.45	55569
843.9218	886.1609	56450.1	55478.55
844.0669	888.1984	56181.25	55205.35
844.212	890.2352	56613.95	55636.25
844.3572	892.2714	56005.85	55027.6
844.5023	894.3069	56125.35	55152.5
844.6475	896.3416	55896.5	54920.85
844.7926	898.3757	55831	54855.55
844.9377	900.4091	55279.8	54305.85
845.0829	902.4418	55893.95	54910.8
845.228	904.4739	55444.5	54459.1
845.3732	906.5052	55522.65	54546.2
845.5183	908.5358	55196.3	54221.85
845.6635	910.5658	55002.4	54025.05
845.8086	912.595	54896.75	53923.55
845.9538	914.6236	54308.5	53332.7
846.0989	916.6515	55022.55	54047.4
846.2441	918.6786	54118.65	53142.5
846.3892	920.7051	54343.75	53364.7
846.5344	922.7309	54242.05	53265.5
846.6795	924.756	54289.1	53314.7
846.8246	926.7804	54044.95	53068.55
846.9698	928.8041	53476.95	52498.75
847.1149	930.8272	53836.7	52864.2
847.2601	932.8495	53799.75	52823.5
847.4052	934.8711	53333.65	52355.45
847.5504	936.892	53051.65	52071.8
847.6955	938.9123	53120.95	52142.2
847.8407	940.9318	52730.2	51756.9
847.9858	942.9506	52587	51611.9
848.131	944.9688	52618.8	51646.45
848.2761	946.9862	51959.75	50983.35
848.4213	949.003	52063.75	51090.75
848.5664	951.019	51528.65	50551.2
848.7115	953.0344	51578.5	50606.3
848.8567	955.0491	51479.65	50501.2
849.0018	957.063	51672.55	50694.75
849.147	959.0763	51733.6	50750.05
849.2921	961.0888	51437.1	50462.15
849.4373	963.1007	51670.1	50699.6
849.5824	965.1119	51584.45	50619.9
849.7275	967.1223	51286.25	50327.6
849.8727	969.1321	51570.7	50611.05
850.0178	971.1412	51157.25	50193.8
850.1629	973.1495	50959.8	49989.55
850.3081	975.1572	51072	50056.8
850.4532	977.1641	50902.5	49927.65
850.5983	979.1704	50748.25	49770.8
850.7435	981.1759	50681.75	49705.9
850.8886	983.1808	50523.3	49546.8
851.0337	985.1849	50510	49522.8
851.1788	987.1884	50553.8	49574.75
851.324	989.1911	50797.65	49825.6
851.4691	991.1932	50298.3	49325.85
851.6142	993.1945	50301.75	49328.55
851.7593	995.1951	50264.6	49293.65
851.9045	997.1951	49983.55	49003.9
852.0496	999.1943	49761.6	48788.95
852.1947	1001.1928	49535.8	48562.55
852.3398	1003.1906	49559.95	48584.7
852.4849	1005.1877	49248.55	48274
852.63	1007.1841	49027.55	48058.95
852.7751	1009.1798	48904.75	47933.8
852.9202	1011.1748	48660.75	47690.95
853.0653	1013.1691	48408.9	47434.6
853.2104	1015.1627	47852.35	46877.85
853.3555	1017.1556	47573.25	46604.95
853.5006	1019.1477	47573.1	46607.75
853.6457	1021.1392	47125.65	46163.45
853.7908	1023.1299	46816.1	45854.85
853.9359	1025.12	46717.15	45764.75
854.081	1027.1093	46560	45619.8
854.2261	1029.0979	46534.4	45597.15
854.3712	1031.0859	46398	45454.4
854.5163	1033.0731	46180.45	45226.75
854.6613	1035.0596	46092.05	45130.9
854.8064	1037.0454	45764.15	44802.8
854.9515	1039.0304	45541.15	44571.75
855.0965	1041.0148	45199.1	44227.5
855.2416	1042.9985	45069.4	44099.1
855.3867	1044.9814	45136.7	44169.75
855.5317	1046.9636	44748.3	43781.45
855.6768	1048.9452	44616.6	43652.45
855.8219	1050.926	44660.85	43691.4
855.9669	1052.9061	44447.15	43482.65
856.112	1054.8855	44364.45	43394.75
856.257	1056.8642	44251.7	43280.8
856.4021	1058.8421	44255.65	43282.15
856.5471	1060.8194	44095.1	43120.8
856.6921	1062.7959	44012.85	43044.4
856.8372	1064.7717	43977.45	43007.2
856.9822	1066.7469	43886.35	42914.25
857.1272	1068.7213	43795.75	42818.85
857.2723	1070.695	43740.25	42768.6
857.4173	1072.6679	43413.45	42442.1
857.5623	1074.6402	43468.9	42499.1
857.7073	1076.6117	43296.15	42322.35
857.8523	1078.5826	43172.35	42199.25
857.9973	1080.5527	43081.9	42112.35
858.1423	1082.5221	42988.75	42021.75
858.2873	1084.4908	43052	42081.75
858.4323	1086.4587	43105.55	42134.4
858.5773	1088.426	43085.95	42120.45
858.7223	1090.3925	42915.95	41940.3
858.8673	1092.3584	42834.3	41866.7
859.0123	1094.3235	42484	41516.55
859.1573	1096.2879	42390.9	41422.6
859.3022	1098.2515	42279.4	41315.3
859.4472	1100.2145	42315.25	41350.15
859.5922	1102.1767	42196.6	41225.2
859.7371	1104.1382	42264.7	41299.05
859.8821	1106.099	42351.8	41381.7
860.027	1108.0591	42426.9	41460.55
860.172	1110.0185	42377.15	41407.35
860.3169	1111.9771	42381.3	41413.3
860.4619	1113.9351	42061.4	41094.35
860.6068	1115.8923	41712.75	40745.1
860.7517	1117.8488	41410.85	40440.25
860.8967	1119.8045	40989.25	40022.7
861.0416	1121.7596	40839.8	39871.65
861.1865	1123.7139	40657.85	39693.1
861.3314	1125.6675	40523.65	39556.15
861.4763	1127.6204	40611.5	39647.15
861.6212	1129.5726	40449.25	39481.75
861.7661	1131.524	40337.5	39374.5
861.911	1133.4748	40261.4	39296.25
862.0559	1135.4248	40085.85	39117.55
862.2008	1137.3741	39997.5	39034.9
862.3457	1139.3226	39854.95	38889.6
862.4905	1141.2705	39822.25	38852.45
862.6354	1143.2176	39536.25	38568.2
862.7803	1145.164	39475.65	38507.7
862.9251	1147.1097	39384.95	38413.9
863.07	1149.0546	39292.8	38326.2
863.2148	1150.9989	39211.45	38246.35
863.3597	1152.9424	39031.4	38064.1
863.5045	1154.8852	38805.65	37836.7
863.6493	1156.8272	38681.3	37715.2
863.7942	1158.7686	38619.65	37646.15
863.939	1160.7092	38429.6	37461.2
864.0838	1162.6491	38259.1	37291.25
864.2286	1164.5883	38325.55	37361.25
864.3734	1166.5267	38286.15	37321.85
864.5182	1168.4644	38368.2	37401.65
864.663	1170.4014	38431.55	37464.85
864.8078	1172.3377	38587	37628.55
864.9526	1174.2732	38715.75	37754
865.0974	1176.2081	38911.45	37946.1
865.2421	1178.1421	38984.9	38014.7
865.3869	1180.0755	39216.45	38250.1
865.5317	1182.0082	39111.1	38150
865.6764	1183.9401	39134.45	38175.55
865.8212	1185.8713	38941.25	37987.2
865.9659	1187.8017	38651.9	37705.3
866.1106	1189.7315	38389.1	37447.65
866.2554	1191.6605	37917.9	36979.8
866.4001	1193.5888	37581.15	36635.75
866.5448	1195.5163	37537.9	36585.35
866.6895	1197.4432	37313.7	36353.95
866.8342	1199.3693	37125.5	36165.65
866.9789	1201.2947	37022.1	36059.2
867.1236	1203.2193	36829.2	35866.6
867.2683	1205.1432	36798.8	35835.5
867.413	1207.0664	36709	35750.25
867.5576	1208.9889	36644.9	35681.35
867.7023	1210.9106	36538.35	35575.85
867.847	1212.8316	36428.25	35470.9
867.9916	1214.7519	36365.45	35396.6
868.1363	1216.6715	36297.35	35337.75
868.2809	1218.5903	36194.6	35231.25
868.4255	1220.5084	36169.15	35212.6
868.5701	1222.4257	36155.4	35194.75
868.7148	1224.3424	35870.7	34914.9
868.8594	1226.2583	35910.5	34948.4
869.004	1228.1735	35835.55	34875.8
869.1486	1230.0879	35803	34842
869.2932	1232.0016	35786.4	34828.95
869.4377	1233.9146	35746.7	34786.45
869.5823	1235.8269	35556.9	34597.9
869.7269	1237.7384	35467.95	34510.2
869.8715	1239.6492	35186.75	34224.6
870.016	1241.5592	35082.05	34120.7
870.1606	1243.4686	34854.95	33897.25
870.3051	1245.3772	34801.85	33842.85
870.4496	1247.285	34667.55	33708.2
870.5941	1249.1922	34602.3	33646.9
870.7387	1251.0986	34556.15	33597.95
870.8832	1253.0042	34393.1	33435.3
871.0277	1254.9092	34343.1	33384.55
871.1722	1256.8134	34378.6	33423.8
871.3167	1258.7169	34452.75	33493.65
871.4611	1260.6196	34488	33531.9
871.6056	1262.5216	34681.5	33723.85
871.7501	1264.4229	34705.25	33749.15
871.8945	1266.3234	34831.35	33876.6
872.039	1268.2232	34812.75	33851.05
872.1834	1270.1223	34715.25	33756.4
872.3278	1272.0207	34685.3	33723.85
872.4723	1273.9183	34518.6	33552.6
872.6167	1275.8151	34378.1	33420.05
872.7611	1277.7113	34316.2	33359.1
872.9055	1279.6067	34136.8	33182.65
873.0499	1281.5014	34023.25	33065.8
873.1943	1283.3953	33941.1	32983.3
873.3386	1285.2885	33950.35	32994.3
873.483	1287.181	33994.2	33041.9
873.6274	1289.0727	34088.45	33135.45
873.7717	1290.9637	34099.4	33144.75
873.9161	1292.854	34198.5	33240.15
874.0604	1294.7435	34177.85	33223.15
874.2047	1296.6323	34205.7	33248.5
874.349	1298.5204	34277.25	33320.6
874.4933	1300.4077	34387.6	33429.1
874.6376	1302.2943	34385.75	33430.75
874.7819	1304.1802	34350.05	33396.95
874.9262	1306.0653	34022.9	33066.35
875.0705	1307.9497	33802.7	32847.2
875.2147	1309.8333	33612.3	32661.45
875.359	1311.7162	33470	32515.4
875.5032	1313.5984	33406.05	32448.5
875.6475	1315.4798	33351.85	32392.5
875.7917	1317.3605	33340.7	32380.2
875.9359	1319.2405	33383.85	32431.65
876.0801	1321.1197	33305.9	32344.6
876.2243	1322.9982	33049.8	32090.55
876.3685	1324.876	32982.2	32027.45
876.5127	1326.753	32821.75	31865.2
876.6569	1328.6293	32795	31835.85
876.801	1330.5048	32754.65	31794.55
876.9452	1332.3796	32592.15	31635.55
877.0893	1334.2537	32589.05	31611.2
877.2335	1336.127	32440.9	31485.15
877.3776	1337.9996	32344.1	31390.5
877.5217	1339.8714	32284.75	31330.65
877.6658	1341.7426	32204.95	31208.1
877.8099	1343.6129	32123.45	31168.65
877.954	1345.4826	32055.45	31101
878.0981	1347.3515	32052.7	31094
878.2422	1349.2196	31917.55	30960.55
878.3862	1351.087	31917.1	30958.05
878.5303	1352.9537	31879.7	30925.7
878.6743	1354.8197	31954.9	30998.5
878.8184	1356.6849	32100.65	31147.6
878.9624	1358.5493	32059.65	31106.95
879.1064	1360.4131	32025.7	31073.45
879.2504	1362.276	31993.15	31043.05
879.3944	1364.1383	31838.3	30887.55
879.5384	1365.9998	31592.1	30631.55
879.6823	1367.8606	31229.5	30272.25
879.8263	1369.7206	30899.85	29943.25
879.9702	1371.5799	30647.3	29688.15
880.1142	1373.4384	30382.1	29427.2
880.2581	1375.2962	30215.45	29256.35
880.402	1377.1533	29872.1	28919.95
880.5459	1379.0096	29510.3	28560.5
880.6898	1380.8652	29224.65	28276.15
880.8337	1382.7201	28904.25	27955.65
880.9776	1384.5742	28623.4	27671.3
881.1215	1386.4275	28367.75	27412.25
881.2653	1388.2802	28166.75	27214.9
881.4092	1390.132	27992.75	27038.5
881.553	1391.9832	27941.45	26985.7
881.6968	1393.8336	27758.5	26806.3
881.8406	1395.6832	27678	26724.6
881.9844	1397.5322	27511.55	26561
882.1282	1399.3803	27468.65	26512.75
882.272	1401.2278	27274.3	26323.15
882.4158	1403.0745	27235	26286.05
882.5595	1404.9204	27081	26129.55
882.7033	1406.7656	27061.55	26109.15
882.847	1408.6101	27016.25	26066.55
882.9908	1410.4538	26954.55	26003.2
883.1345	1412.2968	26839.2	25885.65
883.2782	1414.139	26838.75	25889.45
883.4219	1415.9805	26888.4	25939.6
883.5656	1417.8213	26866.8	25897
883.7092	1419.6613	26862.8	25915.95
883.8529	1421.5006	26941.35	25992.6
883.9965	1423.3391	27086.95	26134.8
884.1402	1425.1769	27254.85	26305.85
884.2838	1427.0139	27591.8	26639
884.4274	1428.8502	28030.2	27079.6
884.571	1430.6858	28413.9	27466.25
884.7146	1432.5206	28665.9	27717.2
884.8582	1434.3547	28876.9	27927.3
885.0018	1436.188	28808.75	27860.7
885.1453	1438.0206	28710.25	27761.85
885.2889	1439.8524	28497.5	27547.8
885.4324	1441.6835	28371.65	27420.75
885.5759	1443.5139	28273.95	27323.3
885.7194	1445.3435	28090.1	27143.85
885.8629	1447.1724	28013.45	27067.5
886.0064	1449.0005	27972	27024.45
886.1499	1450.8279	27822.05	26875.65
886.2933	1452.6545	27809.3	26861.3
886.4368	1454.4804	27748	26803.55
886.5802	1456.3056	27698.8	26749
886.7237	1458.13	27571.5	26625.2
886.8671	1459.9536	27420.25	26472.6
887.0105	1461.7766	27093.05	26146.35
887.1539	1463.5987	26741.45	25793.95
887.2972	1465.4202	26371.05	25424.35
887.4406	1467.2409	25975.2	25028
887.584	1469.0608	25785.8	24835.85
887.7273	1470.88	25517.35	24569.4
887.8706	1472.6984	25270.5	24328.35
888.0139	1474.5161	25050.75	24100.9
888.1572	1476.3331	24833.5	23885.7
888.3005	1478.1493	24695.55	23748.15
888.4438	1479.9648	24626.75	23680.65
888.5871	1481.7795	24485.25	23538.8
888.7303	1483.5935	24437.15	23490.7
888.8736	1485.4067	24345.6	23396.45
889.0168	1487.2192	24255.4	23306.65
889.16	1489.031	24184.05	23236
889.3032	1490.842	24133.1	23184.55
889.4464	1492.6522	24044.2	23098.65
889.5896	1494.4618	23928.1	22979.65
889.7327	1496.2705	23907.3	22962.55
889.8759	1498.0785	23861.15	22914.25
890.019	1499.8858	23785.05	22838.35
890.1622	1501.6924	23743.6	22797
890.3053	1503.4981	23634	22688.3
890.4484	1505.3032	23627.25	22681.1
890.5914	1507.1075	23553.5	22608.8
890.7345	1508.911	23487.4	22538.9
890.8776	1510.7138	23381.7	22430.65
891.0206	1512.5159	23279	22334.3
891.1637	1514.3172	23204.85	22262.2
891.3067	1516.1178	23111.45	22169.2
891.4497	1517.9176	23076.55	22128.9
891.5927	1519.7166	22980.6	22036.8
891.7357	1521.515	22875.9	21926.65
891.8786	1523.3126	22814.4	21871.05
892.0216	1525.1094	22705.95	21758.7
892.1645	1526.9055	22695.8	21753
892.3074	1528.7008	22618.4	21673
892.4503	1530.4954	22448.6	21501.25
892.5932	1532.2893	22430.1	21490.95
892.7361	1534.0824	22301.3	21359.55
892.879	1535.8747	22264.85	21327.8
893.0218	1537.6663	22157.8	21219.8
893.1647	1539.4572	22140.2	21201.45
893.3075	1541.2473	22099.95	21162.15
893.4503	1543.0367	22017.7	21079.35
893.5931	1544.8253	21975.1	21032.45
893.7359	1546.6132	21951.7	21009.45
893.8787	1548.4003	21827.3	20880.25
894.0214	1550.1867	21837.8	20892.5
894.1642	1551.9723	21779.9	20841.5
894.3069	1553.7572	21836.4	20901.75
894.4496	1555.5414	21776.1	20841.95
894.5923	1557.3247	21773.6	20841.05
894.735	1559.1074	21790.25	20860.6
894.8777	1560.8893	21814.85	20886.4
895.0204	1562.6705	21840.95	20908.9
895.163	1564.4509	21831.3	20902.5
895.3056	1566.2305	21830.9	20907.65
895.4482	1568.0094	21862.3	20936.85
895.5908	1569.7876	21893.25	20965.75
895.7334	1571.565	21898.75	20967.5
895.876	1573.3417	21876.45	20945.7
896.0186	1575.1176	21783.95	20853.4
896.1611	1576.8928	21727.55	20801.6
896.3036	1578.6672	21644.7	20725.15
896.4461	1580.4409	21485.75	20568.5
896.5886	1582.2138	21387.15	20466.75
896.7311	1583.986	21283.85	20362.15
896.8736	1585.7575	21202.2	20277.9
897.0161	1587.5282	21109.1	20187.7
897.1585	1589.2981	21098.75	20179.55
897.3009	1591.0673	20986.55	20067.05
897.4433	1592.8358	20983	20062.7
897.5857	1594.6035	20961.45	20034.95
897.7281	1596.3704	20920.1	19991.25
897.8705	1598.1366	20905.15	19981.35
898.0128	1599.9021	20906.3	19984.8
898.1551	1601.6668	20910.05	19985.75
898.2975	1603.4308	20900.9	19973.6
898.4398	1605.194	20944.75	20017.7
898.5821	1606.9564	20982.8	20066.95
898.7243	1608.7182	21106.2	20193.15
898.8666	1610.4791	21230.9	20325.35
899.0088	1612.2394	21251.25	20346.3
899.1511	1613.9988	21390.5	20481
899.2933	1615.7576	21598.2	20684.05
899.4355	1617.5156	21770.9	20841.9
899.5776	1619.2728	21893	20964.1
899.7198	1621.0293	21901.55	20977.65
899.862	1622.785	21847.6	20928.6
900.0041	1624.54	21676.4	20761.45
900.1462	1626.2942	21496.35	20581.9
900.2883	1628.0477	21191.7	20275.55
900.4304	1629.8005	21001.5	20083
900.5725	1631.5525	20779.7	19863.15
900.7145	1633.3037	20561.5	19644.8
900.8566	1635.0542	20391.15	19478.35
900.9986	1636.804	20242.4	19325.75
901.1406	1638.553	20223.15	19255.2
901.2826	1640.3013	20082.25	19164.85
901.4245	1642.0488	19998	19080.6
901.5665	1643.7955	19997.6	19085.15
901.7085	1645.5416	20007.95	19094.2
901.8504	1647.2868	20037.35	19121.65
901.9923	1649.0313	20061.5	19145.6
902.1342	1650.7751	20160.65	19241.6
902.2761	1652.5181	20275.9	19362.4
902.4179	1654.2604	20347.4	19433.5
902.5598	1656.0019	20541	19628.9
902.7016	1657.7427	20768.25	19852.05
902.8434	1659.4828	20949.2	20030.6
902.9852	1661.222	21040.65	20123.25
903.127	1662.9606	21043.3	20126.9
903.2687	1664.6984	20867.9	19946.75
903.4105	1666.4354	20532.25	19610.55
903.5522	1668.1717	20043.45	19120.4
903.6939	1669.9072	19569.7	18648.75
903.8356	1671.642	19171.7	18246.8
903.9773	1673.3761	18863.5	17944.5
904.119	1675.1094	18578.05	17660.8
904.2606	1676.8419	18342.35	17425.95
904.4022	1678.5737	18131.7	17211.7
904.5439	1680.3048	17987.1	17071.4
904.6855	1682.0351	17836.35	16917.85
904.827	1683.7646	17734.85	16812.4
904.9686	1685.4934	17658.3	16742.4
905.1101	1687.2215	17565	16648.5
905.2517	1688.9488	17412.3	16497.6
905.3932	1690.6754	17351.3	16433
905.5347	1692.4012	17304.55	16386.25
905.6761	1694.1263	17214.2	16296.1
905.8176	1695.8506	17152.75	16237.1
905.9591	1697.5742	17088.95	16177.45
906.1005	1699.297	17010.9	16099.9
906.2419	1701.0191	16938.9	16031.35
906.3833	1702.7404	16876.45	15965.5
906.5246	1704.461	16800.1	15885.6
906.666	1706.1808	16699.45	15787.55
906.8073	1707.8999	16640.1	15730.5
906.9487	1709.6182	16579.55	15673.2
907.09	1711.3358	16536.05	15630.4
907.2313	1713.0527	16497.75	15592.55
907.3725	1714.7688	16402.65	15488.85
907.5138	1716.4841	16343.15	15429.85
907.655	1718.1987	16330.7	15413.5
907.7962	1719.9126	16264.75	15358.7
907.9374	1721.6257	16187.3	15281.45
908.0786	1723.338	16158.85	15255.3
908.2198	1725.0496	16081.85	15174
908.3609	1726.7605	16036.4	15125.4
908.502	1728.4706	15974.65	15065.45
908.6431	1730.18	15898.85	14993.75
908.7842	1731.8886	15854.85	14953.05
908.9253	1733.5964	15861.15	14933.3
909.0664	1735.3036	15773.95	14866
909.2074	1737.0099	15743.15	14835.95
909.3484	1738.7156	15708.7	14803.7
909.4894	1740.4204	15633.65	14726.3
909.6304	1742.1246	15615.95	14705.05
909.7714	1743.8279	15556.45	14652
909.9123	1745.5306	15549.65	14643.9
910.0532	1747.2325	15442.2	14539.95
910.1941	1748.9336	15404.3	14496.4
910.335	1750.634	15359.15	14449.95
910.4759	1752.3336	15327.9	14422.3
910.6168	1754.0325	15306.15	14408.25
910.7576	1755.7307	15280.55	14379.05
910.8984	1757.4281	15270.45	14367.45
911.0392	1759.1247	15233.15	14314.35
911.18	1760.8206	15186.4	14268.65
911.3208	1762.5158	15159.4	14245.45
911.4615	1764.2102	15067.7	14157.5
911.6022	1765.9039	15046.1	14142.9
911.7429	1767.5968	15022.9	14120.4
911.8836	1769.289	14984.6	14081.9
912.0243	1770.9804	14954.25	14049.05
912.1649	1772.6711	14944.35	14034.3
912.3056	1774.361	14892.25	13983.7
912.4462	1776.0502	14864	13958.7
912.5868	1777.7386	14833	13922.7
912.7274	1779.4263	14777.8	13872.1
912.8679	1781.1132	14773.3	13869.75
913.0084	1782.7994	14700.25	13799.3
913.149	1784.4849	14661.7	13760.6
913.2895	1786.1696	14629.2	13720.35
913.4299	1787.8535	14585.9	13690.2
913.5704	1789.5367	14554.55	13656.1
913.7108	1791.2192	14568	13666.75
913.8513	1792.9009	14485.2	13554.45
913.9917	1794.5818	14470.2	13561.7
914.132	1796.2621	14411.5	13507.6
914.2724	1797.9415	14392.7	13487.2
914.4128	1799.6202	14342.25	13435.55
914.5531	1801.2982	14320.5	13414
914.6934	1802.9755	14275.15	13367.05
914.8337	1804.6519	14244.25	13341.75
914.9739	1806.3277	14190.7	13287.7
915.1142	1808.0027	14140.2	13242.85
915.2544	1809.6769	14149.85	13251.3
915.3946	1811.3504	14090	13191
915.5348	1813.0231	14053.2	13151.1
915.675	1814.6951	14042	13139.25
915.8151	1816.3664	14046.6	13139.45
915.9553	1818.0369	14006.05	13099.25
916.0954	1819.7067	13966.9	13063.95
916.2355	1821.3757	13945.1	13038.65
916.3755	1823.044	13945	13040.25
916.5156	1824.7115	13893.45	12985.75
916.6556	1826.3783	13821.3	12918.15
916.7956	1828.0443	13773.85	12873
916.9356	1829.7096	13764.4	12856.95
917.0756	1831.3741	13754.55	12847.65
917.2155	1833.0379	13704.65	12803.3
917.3555	1834.701	13667.25	12766.95
917.4954	1836.3633	13651.4	12753.35
917.6353	1838.0248	13593.95	12695.2
917.7751	1839.6856	13593	12689.7
917.915	1841.3457	13575.65	12674.15
918.0548	1843.005	13537.9	12635.7
918.1946	1844.6636	13501.9	12597.35
918.3344	1846.3214	13465.35	12562.8
918.4742	1847.9785	13449.1	12546.2
918.6139	1849.6349	13411.85	12506.3
918.7537	1851.2904	13388.65	12469.75
918.8934	1852.9453	13355.55	12448.4
919.0331	1854.5994	13298.7	12390.7
919.1727	1856.2528	13347.3	12435.75
919.3124	1857.9054	13289.45	12383.3
919.452	1859.5572	13287.35	12386.8
919.5916	1861.2083	13246.8	12341.25
919.7312	1862.8587	13226.85	12322.35
919.8708	1864.5084	13190.65	12281.35
920.0103	1866.1572	13201.9	12295.55
920.1498	1867.8054	13131.7	12221.85
920.2893	1869.4528	13109.75	12202.4
920.4288	1871.0994	13063.35	12157.8
920.5683	1872.7453	13033.9	12129.25
920.7077	1874.3905	12981.45	12070.85
920.8471	1876.0349	12953.25	12046.25
920.9865	1877.6786	12951.9	12045.45
921.1259	1879.3215	12942.9	12039.8
921.2653	1880.9637	12890.45	11985.65
921.4046	1882.6051	12887.4	11984.2
921.5439	1884.2458	12857.8	11950.55
921.6832	1885.8858	12795.3	11892.15
921.8225	1887.525	12783.25	11879.35
921.9617	1889.1634	12723.25	11818.35
922.101	1890.8011	12694	11787.85
922.2402	1892.4381	12694.4	11790.5
922.3794	1894.0743	12658.05	11754.55
922.5185	1895.7098	12635.5	11731.95
922.6577	1897.3446	12608.7	11703.65
922.7968	1898.9786	12574.05	11663.05
922.9359	1900.6118	12546.15	11641.95
923.075	1902.2443	12482.95	11576.25
923.214	1903.8761	12433.2	11529.7
923.3531	1905.5071	12388.7	11486.65
923.4921	1907.1374	12344.7	11441.85
923.6311	1908.7669	12329.95	11426.6
923.77	1910.3957	12312.8	11411.15
923.909	1912.0237	12250.8	11348.05
924.0479	1913.651	12229.6	11327.4
924.1868	1915.2776	12179.65	11275.35
924.3257	1916.9034	12131.4	11229.15
924.4646	1918.5285	12083.7	11184.3
924.6034	1920.1528	12032.95	11130.45
924.7422	1921.7764	12040.9	11137.2
924.881	1923.3992	12003.05	11103.4
925.0198	1925.0213	11932.9	11032.85
925.1586	1926.6427	11881.75	10980.35
925.2973	1928.2633	11912.05	10942.3
925.436	1929.8832	11843.35	10940.6
925.5747	1931.5023	11766.5	10863.75
925.7134	1933.1207	11749.85	10848.25
925.852	1934.7383	11738.15	10836.45
925.9906	1936.3552	11690.6	10789.75
926.1292	1937.9714	11681.55	10780.45
926.2678	1939.5868	11614.05	10710.1
926.4064	1941.2015	11568.15	10664.45
926.5449	1942.8154	11546.55	10644.4
926.6834	1944.4286	11484.45	10580.3
926.8219	1946.041	11456.7	10532.4
926.9604	1947.6528	11372.3	10464.65
927.0988	1949.2637	11364.9	10462.9
927.2372	1950.8739	11336.15	10432.4
927.3756	1952.4834	11305.15	10402.9
927.514	1954.0921	11307.25	10406.25
927.6523	1955.7001	11265.8	10362.75
927.7907	1957.3074	11197	10300.9
927.929	1958.9139	11170.75	10275.2
928.0673	1960.5197	11153.75	10256.2
928.2055	1962.1247	11112.6	10216.4
928.3438	1963.729	11058.85	10164.85
928.482	1965.3325	11053.45	10133.3
928.6202	1966.9353	10970.45	10074.9
928.7584	1968.5374	10943.95	10045.7
928.8965	1970.1387	10920.4	10022.55
929.0346	1971.7393	10886.15	9989.3
929.1727	1973.3392	10865.8	9969.7
929.3108	1974.9383	10808.2	9914.05
929.4489	1976.5366	10733.5	9840
929.5869	1978.1342	10732.55	9839.05
929.7249	1979.7311	10697.4	9801.25
929.8629	1981.3273	10686.25	9790.85
930.0009	1982.9227	10662.2	9769.2
930.1388	1984.5173	10596.25	9704.35
930.2767	1986.1112	10570.05	9677.85
930.4146	1987.7044	10563.55	9673.05
930.5525	1989.2968	10534.2	9639.7
930.6904	1990.8885	10498.5	9602.9
930.8282	1992.4795	10491.9	9597.85
930.966	1994.0697	10428.1	9539.25
931.1038	1995.6592	10392.7	9501.1
931.2415	1997.2479	10373.8	9482
931.3793	1998.8359	10331.65	9441.1
931.517	2000.4232	10300.05	9411.6
931.6547	2002.0097	10271.6	9388.05
931.7923	2003.5955	10203.6	9315.45
931.93	2005.1805	10226.7	9337.25
932.0676	2006.7648	10201.7	9312.35
932.2052	2008.3484	10163.6	9272.65
932.3427	2009.9312	10150.2	9261.3
932.4803	2011.5133	10134.75	9249.45
932.6178	2013.0946	10087.3	9200.6
932.7553	2014.6752	10061.95	9173.65
932.8928	2016.2551	10054.1	9163.45
933.0302	2017.8342	10022.75	9132.7
933.1676	2019.4126	9960.15	9071.7
933.305	2020.9902	9931.6	9046.35
933.4424	2022.5672	9925.8	9040.2
933.5798	2024.1433	9890.85	8999.6
933.7171	2025.7188	9835.65	8951.7
933.8544	2027.2935	9810.2	8923.4
933.9917	2028.8674	9784.3	8900.05
934.129	2030.4406	9775.05	8891.55
934.2662	2032.0131	9699.7	8818.1
934.4034	2033.5849	9722.55	8835
934.5406	2035.1559	9709.55	8824.75
934.6778	2036.7261	9673	8785.5
934.8149	2038.2957	9662.95	8772.4
934.952	2039.8645	9635.85	8743.8
935.0891	2041.4325	9623.35	8729.3
935.2262	2042.9998	9581.95	8694.35
935.3632	2044.5664	9560.35	8670.7
935.5002	2046.1323	9514.55	8630.65
935.6372	2047.6974	9479.6	8595.95
935.7742	2049.2617	9501.5	8617.6
935.9111	2050.8254	9479.05	8587.3
936.048	2052.3883	9447.35	8556.45
936.1849	2053.9504	9408.6	8517.8
936.3218	2055.5118	9407.25	8515.45
936.4586	2057.0725	9367.5	8475.25
936.5955	2058.6325	9341.15	8455.45
936.7323	2060.1917	9323.3	8435.9
936.869	2061.7502	9285.5	8395.95
937.0058	2063.3079	9245.95	8362.25
937.1425	2064.8649	9243.05	8354.9
937.2792	2066.4212	9202.95	8315.95
937.4159	2067.9767	9190.65	8303.05
937.5525	2069.5315	9154.45	8266.8
937.6891	2071.0856	9120.35	8235.15
937.8257	2072.6389	9089.5	8202.05
937.9623	2074.1915	9036.7	8152.95
938.0989	2075.7433	8983.5	8095.5
938.2354	2077.2945	8977.9	8090.85
938.3719	2078.8448	8951.6	8061.05
938.5084	2080.3945	8916.55	8025.45
938.6448	2081.9434	8915.6	8025.7
938.7812	2083.4916	8897.35	8004
938.9176	2085.039	8864	7967.2
939.054	2086.5857	8874.8	7975.75
939.1903	2088.1317	8859.25	7962.2
939.3267	2089.677	8817.65	7920.05
939.463	2091.2215	8789.8	7893.55
939.5992	2092.7652	8756.8	7856.55
939.7355	2094.3083	8748.75	7853.5
939.8717	2095.8506	8741.7	7846.3
940.0079	2097.3921	8754.1	7862.8
940.1441	2098.933	8725.2	7834.45
940.2802	2100.4731	8685.75	7793.65
940.4163	2102.0124	8671.45	7772.3
940.5524	2103.5511	8643.35	7751.85
940.6885	2105.089	8622.15	7727.4
940.8245	2106.6261	8600.5	7708.4
940.9606	2108.1626	8601.25	7708.3
941.0965	2109.6983	8570.9	7649.65
941.2325	2111.2332	8528.85	7635.5
941.3684	2112.7675	8516.75	7622.3
941.5044	2114.301	8471.2	7577.1
941.6403	2115.8337	8468.9	7575.4
941.7761	2117.3657	8447.7	7555.25
941.912	2118.897	8426.4	7533.65
942.0478	2120.4276	8416	7516.55
942.1835	2121.9575	8382.25	7488.35
942.3193	2123.4866	8367.9	7471.05
942.455	2125.0149	8331.55	7437.6
942.5907	2126.5426	8284.3	7395.5
942.7264	2128.0695	8266.45	7375.05
942.8621	2129.5956	8260.4	7374.2
942.9977	2131.1211	8248.8	7355.45
943.1333	2132.6458	8234.75	7343.1
943.2689	2134.1698	8192.5	7299.1
943.4044	2135.693	8193	7294.65
943.54	2137.2155	8189.9	7292.7
943.6755	2138.7373	8154.75	7261
943.8109	2140.2584	8135.65	7247.85
943.9464	2141.7787	8109.65	7217.05
944.0818	2143.2983	8036.4	7150.7
944.2172	2144.8171	8011	7126.9
944.3526	2146.3353	8009.05	7121.3
944.4879	2147.8527	7979.75	7090.8
944.6232	2149.3693	7989.5	7095.95
944.7585	2150.8853	7976.2	7082.1
944.8938	2152.4005	7932.15	7039
945.029	2153.9149	7928.2	7032.1
945.1642	2155.4287	7989.5	6988.95
945.2994	2156.9417	7878.4	6982.8
945.4346	2158.454	7849.9	6959
945.5697	2159.9655	7833.5	6947.2
945.7048	2161.4764	7820.6	6932.1
945.8399	2162.9865	7808.45	6919.65
945.9749	2164.4958	7798.35	6907.85
946.1099	2166.0045	7740	6849
946.2449	2167.5124	7754.35	6862.55
946.3799	2169.0195	7721.2	6827.5
946.5148	2170.526	7726.2	6829.1
946.6498	2172.0317	7694.8	6803.95
946.7846	2173.5367	7664.25	6773.4
946.9195	2175.0409	7637.8	6748.5
947.0543	2176.5445	7670.5	6777.6
947.1891	2178.0473	7627.6	6734.6
947.3239	2179.5494	7605.35	6707.55
947.4587	2181.0507	7558.3	6664.05
947.5934	2182.5513	7548.8	6656.45
947.7281	2184.0512	7508.05	6615.55
947.8628	2185.5504	7493.25	6601.1
947.9974	2187.0488	7440.75	6551
948.132	2188.5465	7445.65	6557.85
948.2666	2190.0435	7410.65	6519.65
948.4012	2191.5397	7401.85	6507.9
948.5357	2193.0353	7392.7	6498.9
948.6702	2194.5301	7358.85	6463.45
948.8047	2196.0241	7335.75	6439.25
948.9392	2197.5175	7309.9	6410.85
949.0736	2199.0101	7297.3	6394
949.208	2200.502	7252.85	6360.35
949.3424	2201.9931	7226.1	6336.65
949.4767	2203.4835	7205.35	6315
949.611	2204.9733	7182.95	6278.95
949.7453	2206.4622	7175.85	6288.45
949.8796	2207.9505	7152.4	6263.2
950.0138	2209.438	7108.2	6224.05
950.148	2210.9248	7099.3	6209.6
950.2822	2212.4109	7098.3	6207.1
950.4164	2213.8962	7055.4	6157.25
950.5505	2215.3809	7048.1	6147.15
950.6846	2216.8648	7038.7	6139
950.8186	2218.3479	7009.05	6105.1
950.9527	2219.8304	6988	6086.95
951.0867	2221.3121	6949.45	6049.9
951.2207	2222.7931	6950.2	6054.2
951.3546	2224.2733	6912.5	6018.85
951.4886	2225.7529	6899.4	6004.5
951.6225	2227.2317	6873.95	5980.55
951.7563	2228.7098	6840.2	5950.5
951.8902	2230.1872	6820.3	5930
952.024	2231.6638	6830.95	5942.75
952.1578	2233.1397	6793.8	5901.3
952.2916	2234.6149	6775.4	5888.25
952.4253	2236.0894	6756.75	5864.8
952.559	2237.5632	6738.75	5845.95
952.6927	2239.0362	6710.2	5818.35
952.8263	2240.5085	6709.1	5818.2
952.9599	2241.9801	6674.95	5785.25
953.0935	2243.4509	6659.15	5763.2
953.2271	2244.921	6633.6	5738.25
953.3606	2246.3904	6596.35	5699
953.4941	2247.8591	6597.15	5701.05
953.6276	2249.3271	6569.8	5674.45
953.7611	2250.7943	6557.25	5662.15
953.8945	2252.2608	6528.4	5632.8
954.0279	2253.7266	6515.3	5619.55
954.1612	2255.1917	6489	5595.3
954.2946	2256.656	6477.85	5586.7
954.4279	2258.1197	6445.75	5557.7
954.5612	2259.5826	6450.15	5558.5
954.6944	2261.0447	6446.1	5550.75
954.8276	2262.5062	6415.7	5519.45
954.9608	2263.9669	6392.65	5495.95
955.094	2265.4269	6384.8	5492.5
955.2271	2266.8862	6357.75	5467.05
955.3602	2268.3448	6364.5	5472.35
955.4933	2269.8026	6320.4	5430.8
955.6264	2271.2598	6317.9	5427.65
955.7594	2272.7162	6302.55	5410.85
955.8924	2274.1719	6302.05	5407.7
956.0253	2275.6268	6283.15	5386.8
956.1583	2277.0811	6256.4	5359.65
956.2912	2278.5346	6247.95	5355.85
956.4241	2279.9874	6214.45	5327.8
956.5569	2281.4395	6230.6	5341.85
956.6897	2282.8908	6204.25	5308.1
956.8225	2284.3414	6192	5297.95
956.9553	2285.7914	6179.15	5287.75
957.088	2287.2406	6140.4	5241.65
957.2207	2288.689	6122	5225.25
957.3534	2290.1368	6101.05	5200.55
957.486	2291.5838	6111.9	5210.9
957.6186	2293.0302	6088	5188.3
957.7512	2294.4758	6064.05	5169.55
957.8838	2295.9206	6044.55	5146.2
958.0163	2297.3648	6042.95	5150.8
958.1488	2298.8082	6007.75	5115.45
958.2813	2300.251	6000.8	5103.8
958.4137	2301.693	5991.45	5093.25
958.5461	2303.1343	5971.65	5074.4
958.6785	2304.5748	5950.6	5056.4
958.8108	2306.0147	5937	5044.75
958.9432	2307.4538	5936.5	5045.55
959.0754	2308.8922	5901.1	5014.1
959.2077	2310.3299	5880.7	4993.85
959.3399	2311.7669	5866.5	4974.6
959.4721	2313.2031	5846.1	4951.3
959.6043	2314.6387	5818.45	4924.3
959.7365	2316.0735	5815.25	4921.9
959.8686	2317.5076	5809.6	4915.2
960.0006	2318.941	5769.3	4873.25
960.1327	2320.3737	5760.6	4862.4
960.2647	2321.8056	5753.15	4854.95
960.3967	2323.2369	5756.15	4861.65
960.5287	2324.6674	5726.35	4831.7
960.6606	2326.0972	5692.25	4798.75
960.7925	2327.5263	5702.2	4809.65
960.9244	2328.9547	5673.35	4775.95
961.0562	2330.3823	5660.2	4762.9
961.1881	2331.8092	5661.1	4760
961.3198	2333.2355	5628.85	4730.45
961.4516	2334.661	5620.35	4723.85
961.5833	2336.0858	5616.65	4719.65
961.715	2337.5098	5615	4719.1
961.8467	2338.9332	5596.65	4700.1
961.9783	2340.3558	5582.6	4689.3
962.1099	2341.7778	5561.2	4669.75
962.2415	2343.199	5538.5	4643.05
962.373	2344.6195	5507.5	4613.95
962.5045	2346.0393	5515.35	4623.3
962.636	2347.4583	5517.2	4624.2
962.7675	2348.8767	5479.2	4582.3
962.8989	2350.2943	5490.5	4593.45
963.0303	2351.7113	5474.4	4574.1
963.1617	2353.1275	5455.1	4556.3
963.293	2354.543	5439.9	4535.45
963.4243	2355.9578	5405.35	4509.1
963.5556	2357.3718	5376.85	4484.35
963.6868	2358.7852	5349.5	4456.35
963.818	2360.1978	5341.45	4447.4
963.9492	2361.6098	5352.35	4460.7
964.0803	2363.021	5325.6	4428.3
964.2114	2364.4315	5317.2	4423.75
964.3425	2365.8413	5306.6	4413.35
964.4736	2367.2504	5271.35	4379.5
964.6046	2368.6587	5251.1	4358.75
964.7356	2370.0664	5251.55	4360.2
964.8666	2371.4733	5212.3	4319.3
964.9975	2372.8795	5219.8	4326.1
965.1284	2374.285	5197.45	4302.9
965.2593	2375.6899	5153.75	4260.55
965.3901	2377.0939	5150.8	4257.1
965.5209	2378.4973	5137.6	4248.2
965.6517	2379.9	5123.35	4231
965.7825	2381.3019	5112.3	4220.7
965.9132	2382.7032	5099.7	4209.45
966.0439	2384.1037	5080.3	4191.65
966.1745	2385.5035	5069.9	4177.15
966.3051	2386.9027	5049.15	4160.1
966.4357	2388.3011	5033.35	4140.15
966.5663	2389.6987	5023.4	4132.9
966.6968	2391.0957	5019.65	4127.55
966.8273	2392.492	4974.15	4084.35
966.9578	2393.8876	4949.55	4057.05
967.0882	2395.2824	4940.95	4046.8
967.2186	2396.6765	4922.55	4030.7
967.349	2398.07	4906.1	4010.25
967.4793	2399.4627	4922.85	4027.2
967.6097	2400.8547	4900.6	4004.6
967.7399	2402.246	4879.75	3979.5
967.8702	2403.6366	4852.6	3959.15
968.0004	2405.0265	4842.7	3950.9
968.1306	2406.4156	4846.7	3950.65
968.2607	2407.8041	4816.25	3920.4
968.3909	2409.1918	4794.1	3896.55
968.521	2410.5789	4782.8	3888.1
968.651	2411.9652	4769.35	3871.2
968.781	2413.3508	4746.25	3852.1
968.911	2414.7358	4724.5	3830.6
969.041	2416.12	4730.7	3839.05
969.1709	2417.5035	4710.9	3817.6
969.3008	2418.8863	4685.7	3792.3
969.4307	2420.2684	4681.1	3787.3
969.5606	2421.6497	4655.55	3763.8
969.6904	2423.0304	4641.7	3751.1
969.8201	2424.4104	4642.8	3749.55
969.9499	2425.7896	4620.55	3726.6
970.0796	2427.1682	4609.2	3714.4
970.2093	2428.546	4595.5	3701.95
970.3389	2429.9232	4595.25	3700.3
970.4685	2431.2996	4584.3	3690.6
970.5981	2432.6753	4571.05	3675.6
970.7277	2434.0503	4555.8	3661.65
970.8572	2435.4246	4541.2	3648.05
970.9867	2436.7982	4526.4	3629.1
971.1161	2438.1711	4524.25	3630.55
971.2456	2439.5433	4496.5	3601.35
971.375	2440.9148	4490.8	3593.75
971.5043	2442.2856	4473.8	3580.85
971.6336	2443.6557	4468.9	3574.05
971.7629	2445.025	4441.5	3547.9
971.8922	2446.3937	4425.5	3531.8
972.0214	2447.7617	4415.55	3522.05
972.1506	2449.1289	4406.65	3514.7
972.2798	2450.4955	4425.65	3528.5
972.4089	2451.8613	4395.75	3503.45
972.538	2453.2265	4380.45	3486.65
972.6671	2454.5909	4380.4	3485.7
972.7961	2455.9546	4362.2	3469.8
972.9251	2457.3177	4350.6	3457.95
973.0541	2458.68	4342.6	3447.9
973.1831	2460.0416	4335.85	3442.7
973.312	2461.4025	4325.1	3430.85
973.4408	2462.7627	4312.1	3406.6
973.5697	2464.1222	4319.35	3429.5
973.6985	2465.4811	4289.2	3396.55
973.8273	2466.8392	4277.85	3383.8
973.956	2468.1966	4280.1	3384.8
974.0847	2469.5533	4267.55	3372.95
974.2134	2470.9093	4263.15	3366.85
974.3421	2472.2645	4255.1	3358.95
974.4707	2473.6191	4239.85	3345.75
974.5993	2474.973	4239.9	3346.7
974.7278	2476.3262	4216.95	3323.7
974.8563	2477.6787	4188.5	3297.9
974.9848	2479.0305	4187.4	3295.9
975.1132	2480.3816	4164.7	3271.15
975.2417	2481.7319	4155.25	3263.1
975.37	2483.0816	4141.9	3250.4
975.4984	2484.4306	4131.7	3239.7
975.6267	2485.7789	4110.2	3217.9
975.755	2487.1264	4101	3208.55
975.8833	2488.4733	4084.9	3193.35
976.0115	2489.8195	4074.5	3173.85
976.1397	2491.165	4053.55	3157.7
976.2678	2492.5097	4054.65	3160.35
976.3959	2493.8538	4034.35	3142.9
976.524	2495.1972	4014	3123.9
976.6521	2496.5398	4008.5	3113.9
976.7801	2497.8818	4011.8	3117.5
976.9081	2499.2231	3987.2	3091.25
977.036	2500.5637	3972.15	3076.6
977.164	2501.9035	3958.9	3064
977.2918	2503.2427	3951.65	3052.8
977.4197	2504.5812	3951.1	3056.75
977.5475	2505.919	3936.05	3040.15
977.6753	2507.256	3933.5	3040.25
977.8031	2508.5924	3910.7	3018.55
977.9308	2509.9281	3909.1	3010.05
978.0585	2511.2631	3896.4	3003.5
978.1861	2512.5974	3875.65	2984.15
978.3137	2513.9309	3862.6	2970.1
978.4413	2515.2638	3867.75	2949.45
978.5689	2516.596	3858.75	2963.45
978.6964	2517.9275	3846.9	2952.7
978.8239	2519.2583	3835.85	2942.25
978.9513	2520.5884	3817.8	2923.95
979.0788	2521.9178	3816	2922.75
979.2062	2523.2465	3810.1	2918.8
979.3335	2524.5745	3781.95	2890.2
979.4608	2525.9018	3772.8	2881.2
979.5881	2527.2284	3767	2875.45
979.7154	2528.5543	3760.3	2870
979.8426	2529.8796	3748.75	2854.6
979.9698	2531.2041	3746.45	2854.5
980.0969	2532.5279	3734.85	2845.4
980.224	2533.851	3718.75	2825.4
980.3511	2535.1735	3712.15	2817.25
980.4781	2536.4952	3710.6	2814.65
980.6052	2537.8163	3714	2821.65
980.7321	2539.1366	3690.8	2796.7
980.8591	2540.4562	3682.2	2788.1
980.986	2541.7752	3682.65	2789.65
981.1129	2543.0935	3689.1	2795.75
981.2397	2544.411	3661.6	2767.25
981.3665	2545.7279	3653.7	2761.75
981.4933	2547.0441	3660.3	2767.35
981.62	2548.3596	3662.8	2765.55
981.7467	2549.6744	3623.25	2728.25
981.8734	2550.9885	3637.55	2735.8
982.0001	2552.3019	3608.55	2716.55
982.1267	2553.6146	3614.7	2720
982.2532	2554.9266	3607.8	2713.6
982.3798	2556.2379	3591.4	2695.75
982.5063	2557.5485	3582.35	2690.05
982.6327	2558.8585	3584.3	2683.75
982.7592	2560.1677	3576.4	2678.1
982.8856	2561.4762	3573.2	2678.75
983.0119	2562.7841	3560.7	2662.65
983.1383	2564.0913	3571.95	2680.6
983.2646	2565.3977	3570.6	2674.85
983.3908	2566.7035	3544.05	2649
983.517	2568.0086	3532.5	2635.85
983.6432	2569.313	3536.85	2640.45
983.7694	2570.6167	3528.05	2629.8
983.8955	2571.9197	3520.95	2626.9
984.0216	2573.222	3508.75	2612.35
984.1476	2574.5236	3512.75	2617.05
984.2737	2575.8246	3493.7	2595.6
984.3996	2577.1248	3488.45	2590.65
984.5256	2578.4244	3473.45	2581.85
984.6515	2579.7232	3479.25	2585.6
984.7774	2581.0214	3501.15	2576.1
984.9032	2582.3189	3484.65	2590.35
985.029	2583.6157	3483.55	2584.95
985.1548	2584.9118	3469.55	2574.15
985.2806	2586.2072	3444.15	2550.85
985.4063	2587.5019	3429.9	2537.45
985.5319	2588.7959	3423.45	2530.5
985.6576	2590.0893	3443.6	2544.6
985.7832	2591.3819	3437.6	2545.3
985.9087	2592.6739	3423.45	2529.05
986.0343	2593.9652	3412.55	2516.65
986.1597	2595.2557	3404.75	2511.4
986.2852	2596.5456	3395.1	2496.9
986.4106	2597.8348	3383.5	2492.25
986.536	2599.1234	3368.65	2474.2
986.6614	2600.4112	3366.6	2474.05
986.7867	2601.6983	3366.65	2470.45
986.912	2602.9848	3352.05	2458.75
987.0372	2604.2705	3331.6	2430.6
987.1624	2605.5556	3341.35	2445.65
987.2876	2606.84	3338.5	2444.95
987.4128	2608.1237	3313	2421.7
987.5379	2609.4067	3312.35	2416.5
987.6629	2610.689	3314.3	2411.3
987.788	2611.9707	3310.8	2411.85
987.913	2613.2516	3267.55	2368.7
988.0379	2614.5319	3269.05	2376.9
988.1629	2615.8115	3262.4	2367.6
988.2878	2617.0903	3239.25	2343.2
988.4126	2618.3685	3241.25	2346.75
988.5375	2619.6461	3220.95	2326.5
988.6622	2620.9229	3222.85	2329.7
988.787	2622.199	3226.15	2330.6
988.9117	2623.4745	3209.15	2315.85
989.0364	2624.7493	3199.3	2306.8
989.161	2626.0234	3198.2	2305.1
989.2857	2627.2968	3191.05	2298
989.4102	2628.5695	3176.1	2282.4
989.5348	2629.8415	3167.65	2276.5
989.6593	2631.1128	3158.85	2261.95
989.7837	2632.3835	3143.8	2249.7
989.9082	2633.6535	3128.8	2237.65
990.0326	2634.9228	3143.35	2250
990.1569	2636.1914	3126.3	2234.05
990.2812	2637.4593	3118.7	2223.25
990.4055	2638.7265	3113.9	2219.3
990.5298	2639.9931	3105.15	2212.5
990.654	2641.259	3088.05	2192.75
990.7782	2642.5242	3097.4	2203.95
990.9023	2643.7887	3075.75	2181.1
991.0264	2645.0525	3077.95	2184.3
991.1505	2646.3156	3070.65	2159.8
991.2745	2647.5781	3064.5	2173.2
991.3985	2648.8398	3045.85	2154.45
991.5225	2650.1009	3051.75	2132.15
991.6464	2651.3613	3021.2	2128.3
991.7703	2652.6211	3023.8	2131.25
991.8942	2653.8801	3020.4	2125.35
992.018	2655.1385	3014.7	2120.15
992.1418	2656.3961	3012.65	2118.05
992.2655	2657.6531	3000.75	2107.2
992.3892	2658.9094	2998.65	2106.55
992.5129	2660.1651	2992.25	2098.9
992.6366	2661.42	2995.65	2102.5
992.7602	2662.6743	2981.7	2089.75
992.8837	2663.9279	2980.8	2087.8
993.0073	2665.1808	2979.55	2087.9
993.1307	2666.433	2970.45	2075.65
993.2542	2667.6846	2970.2	2077.75
993.3776	2668.9354	2966.6	2070.9
993.501	2670.1856	2959.9	2064.15
993.6244	2671.4351	2959.15	2067.15
993.7477	2672.6839	2950.8	2056.5
993.8709	2673.9321	2943.4	2052.45
993.9942	2675.1795	2941.6	2049.2
994.1174	2676.4263	2935.55	2044.75
994.2405	2677.6724	2933.6	2045.5
994.3637	2678.9179	2913.65	2020.7
994.4868	2680.1626	2918.65	2026.35
994.6098	2681.4067	2916.3	2025.2
994.7328	2682.6501	2910.75	2018.55
994.8558	2683.8928	2911.4	2018.5
994.9788	2685.1348	2895.5	2004.55
995.1017	2686.3761	2880.8	1987.7
995.2245	2687.6168	2884.4	1992.25
995.3474	2688.8568	2871.6	1980.05
995.4702	2690.0961	2848.7	1957.8
995.5929	2691.3348	2849.65	1958.4
995.7156	2692.5727	2859.1	1967.1
995.8383	2693.81	2844.9	1953.7
995.961	2695.0466	2819.15	1927.8
996.0836	2696.2826	2821.5	1929.65
996.2062	2697.5178	2824.1	1930.35
996.3287	2698.7524	2822.75	1928.9
996.4512	2699.9863	2808.7	1914.3
996.5737	2701.2195	2805.2	1915.4
996.6961	2702.452	2801.1	1908.2
996.8185	2703.6839	2800.2	1908.15
996.9408	2704.9151	2799.65	1910.05
997.0631	2706.1456	2792.8	1901
997.1854	2707.3755	2789.3	1897.15
997.3077	2708.6046	2790.85	1896.8
997.4299	2709.8331	2792.55	1901
997.552	2711.0609	2793.45	1900.15
997.6742	2712.2881	2791.85	1901.4
997.7963	2713.5145	2804.25	1910.4
997.9183	2714.7403	2798	1906.45
998.0403	2715.9654	2792.4	1899
998.1623	2717.1899	2818.5	1911.7
998.2842	2718.4136	2818.4	1928.7
998.4062	2719.6367	2806.35	1914.95
998.528	2720.8591	2811.3	1912.65
998.6498	2722.0809	2812.35	1920.1
998.7716	2723.3019	2812.2	1918.05
998.8934	2724.5223	2813.9	1920.75
999.0151	2725.7421	2805	1912.75
999.1368	2726.9611	2805.05	1911.45
999.2584	2728.1795	2801.6	1906.9
999.38	2729.3972	2777.5	1887.55
999.5016	2730.6142	2772.05	1874.45
999.6231	2731.8306	2767.4	1876.45
999.7446	2733.0462	2738.6	1847.1
999.8661	2734.2612	2709.6	1814.15
999.9875	2735.4756	2699.6	1807.4
1000.1089	2736.6892	2679.05	1787.85
1000.2302	2737.9022	2657.6	1768.7
1000.3515	2739.1145	2651.95	1760.85
1000.4728	2740.3262	2642.05	1743.85
1000.594	2741.5372	2611.05	1720.2
1000.7152	2742.7475	2589	1697.4
1000.8363	2743.9571	2584.1	1691.75
1000.9575	2745.1661	2570.25	1675.8
1001.0785	2746.3744	2557.2	1665.2
1001.1996	2747.582	2554.25	1666.3
1001.3206	2748.7889	2543.7	1652.4
1001.4415	2749.9952	2532.7	1643.5
1001.5625	2751.2008	2528.35	1638.25
1001.6833	2752.4057	2518.4	1626.45
1001.8042	2753.61	2501.1	1609.55
1001.925	2754.8136	2499.55	1607.3
1002.0458	2756.0165	2497.85	1606.4
1002.1665	2757.2188	2496.75	1606.15
1002.2872	2758.4204	2490.95	1599
1002.4078	2759.6213	2480.25	1587.85
1002.5285	2760.8215	2490.05	1596.75
1002.649	2762.0211	2471.65	1579.4
1002.7696	2763.22	2461.5	1568.25
1002.8901	2764.4182	2449.3	1558.25
1003.0106	2765.6158	2449.05	1555.75
1003.131	2766.8127	2437	1546.95
1003.2514	2768.009	2428.45	1540.7
1003.3717	2769.2045	2426	1536.15
1003.492	2770.3994	2438.2	1546.8
1003.6123	2771.5936	2421.15	1530.25
1003.7325	2772.7872	2412.25	1524.9
1003.8527	2773.9801	2393.95	1503.85
1003.9729	2775.1723	2410.6	1504.25
1004.093	2776.3639	2385.9	1497
1004.2131	2777.5548	2387	1494.7
1004.3331	2778.745	2386.35	1496.25
1004.4531	2779.9346	2381.7	1493.45
1004.5731	2781.1235	2388.6	1499.05
1004.693	2782.3117	2384.25	1496.75
1004.8129	2783.4992	2388.2	1500
1004.9328	2784.6861	2375.85	1487
1005.0526	2785.8723	2371.2	1481.3
1005.1723	2787.0579	2372.85	1481.5
1005.2921	2788.2428	2377.65	1487.55
1005.4118	2789.427	2365.3	1476.9
1005.5314	2790.6106	2378.8	1490.55
1005.651	2791.7935	2375.95	1486.35
1005.7706	2792.9757	2372.8	1484.8
1005.8902	2794.1573	2379.05	1487.5
1006.0097	2795.3382	2393.3	1504.05
1006.1291	2796.5184	2387	1499
1006.2485	2797.698	2398.75	1509.9
1006.3679	2798.8769	2413	1524.6
1006.4873	2800.0551	2428.15	1539.6
1006.6066	2801.2327	2428.95	1537.9
1006.7258	2802.4096	2432.9	1543.6
1006.8451	2803.5859	2444.8	1555.6
1006.9642	2804.7615	2449.6	1560.3
1007.0834	2805.9364	2465.7	1578.9
1007.2025	2807.1106	2478.55	1591.05
1007.3216	2808.2842	2510.15	1621.3
1007.4406	2809.4572	2521.7	1632.65
1007.5596	2810.6294	2562.5	1672.2
1007.6785	2811.801	2578.95	1692.2
1007.7975	2812.972	2610.4	1722.45
1007.9163	2814.1423	2636.5	1747.2
1008.0352	2815.3119	2668.55	1780.75
1008.154	2816.4808	2710.95	1823.45
1008.2727	2817.6491	2746.1	1858.2
1008.3914	2818.8167	2785.7	1898.65
1008.5101	2819.9837	2831.65	1938.8
1008.6288	2821.15	2866.95	1978.7
1008.7474	2822.3157	2902.1	2013.8
1008.8659	2823.4807	2946.7	2057.6
1008.9844	2824.645	2985.2	2094.65
1009.1029	2825.8086	3013.15	2125.6
1009.2214	2826.9716	3042.85	2154.55
1009.3398	2828.134	3076.35	2189.1
1009.4581	2829.2957	3110.4	2220.95
1009.5764	2830.4567	3133.15	2247.7
1009.6947	2831.617	3143.65	2255.65
1009.813	2832.7767	3157.6	2270.05
1009.9312	2833.9358	3148.4	2260.4
1010.0493	2835.0941	3151.3	2260.9
1010.1675	2836.2519	3132.2	2244.15
1010.2855	2837.4089	3119.55	2232.1
1010.4036	2838.5653	3115.1	2228.85
1010.5216	2839.7211	3100.45	2214.15
1010.6396	2840.8761	3106.3	2216.95
1010.7575	2842.0306	3117.1	2230.75
1010.8754	2843.1843	3133.8	2246
1010.9932	2844.3374	3156.25	2269.15
1011.111	2845.4899	3203.85	2315.15
1011.2288	2846.6417	3261.65	2371.5
1011.3465	2847.7928	3317.85	2431.35
1011.4642	2848.9433	3376.15	2490.2
1011.5818	2850.0931	3451.65	2567.6
1011.6995	2851.2422	3489.9	2600.85
1011.817	2852.3907	3550.3	2662.5
1011.9345	2853.5385	3599.3	2710.55
1012.052	2854.6857	3645.85	2751.55
1012.1695	2855.8323	3677.55	2791.8
1012.2869	2856.9781	3707.15	2820
1012.4042	2858.1233	3750.7	2862
1012.5216	2859.2679	3784.15	2898.55
1012.6389	2860.4118	3817.95	2933
1012.7561	2861.555	3856.35	2964.85
1012.8733	2862.6976	3878.55	2990.35
1012.9905	2863.8395	3917.8	3030.35
1013.1076	2864.9808	3924.6	3038.5
1013.2247	2866.1214	3922.45	3037.3
1013.3417	2867.2614	3935.85	3048
1013.4587	2868.4007	3955.25	3068.35
1013.5757	2869.5393	3954.5	3065.8
1013.6926	2870.6773	3970.95	3082.25
1013.8095	2871.8146	3980.75	3090.45
1013.9263	2872.9513	3973.7	3084.55
1014.0431	2874.0874	3958.6	3070.25
1014.1599	2875.2227	3957.1	3068.75
1014.2766	2876.3574	3947.6	3061.85
1014.3933	2877.4915	3906.7	3022.15
1014.51	2878.6249	3892.8	3007.6
1014.6266	2879.7577	3874.45	2987.2
1014.7431	2880.8898	3844.35	2946.35
1014.8596	2882.0212	3827.3	2939.8
1014.9761	2883.152	3812.8	2925.1
1015.0925	2884.2821	3799.1	2912.5
1015.2089	2885.4116	3793.2	2907.9
1015.3253	2886.5405	3792.6	2907.55
1015.4416	2887.6686	3789.7	2901.15
1015.5579	2888.7962	3791.65	2904.55
1015.6741	2889.923	3797.85	2912.35
1015.7903	2891.0493	3797.55	2911.75
1015.9065	2892.1748	3794.95	2908.35
1016.0226	2893.2997	3811.95	2925.5
1016.1387	2894.424	3815.55	2931.7
1016.2547	2895.5476	3835.05	2947.65
1016.3707	2896.6706	3838.15	2953.7
1016.4866	2897.7929	3857.5	2970.9
1016.6025	2898.9145	3872.15	2985.5
1016.7184	2900.0355	3896	3008.2
1016.8342	2901.1559	3929.8	3042.3
1016.95	2902.2756	3945.8	3059.95
1017.0658	2903.3946	3968.05	3082.7
1017.1815	2904.513	3991.5	3101.6
1017.2971	2905.6308	4005.4	3120.25
1017.4127	2906.7479	4028.95	3143.5
1017.5283	2907.8643	4044.65	3157.55
1017.6439	2908.9801	4051.95	3164.15
1017.7594	2910.0953	4049.3	3163.45
1017.8748	2911.2098	4050.15	3162.4
1017.9902	2912.3236	4044.5	3150.3
1018.1056	2913.4368	4032.9	3143.4
1018.2209	2914.5494	4001.95	3115.35
1018.3362	2915.6613	3970.15	3077.2
1018.4515	2916.7725	3962.75	3076.75
1018.5667	2917.8831	3929.15	3040.8
1018.6819	2918.9931	3890.85	3002.8
1018.797	2920.1024	3864.95	2977.7
1018.9121	2921.211	3850.85	2966.55
1019.0271	2922.319	3829.95	2944.8
1019.1421	2923.4264	3821.85	2938.25
1019.2571	2924.5331	3786.95	2901.8
1019.372	2925.6391	3789.4	2905.15
1019.4869	2926.7445	3785.45	2902
1019.6017	2927.8493	3785.6	2900.1
1019.7165	2928.9534	3770.45	2884.15
1019.8313	2930.0569	3761.35	2870.4
1019.946	2931.1597	3764.05	2878
1020.0606	2932.2619	3758.7	2874.65
1020.1753	2933.3634	3743.6	2857.1
1020.2899	2934.4643	3739.6	2848.65
1020.4044	2935.5645	3721.4	2831.05
1020.5189	2936.6641	3714.3	2823.15
1020.6334	2937.763	3680.85	2796.75
1020.7478	2938.8613	3625.2	2738.15
1020.8622	2939.959	3592.95	2703
1020.9765	2941.056	3529.85	2646.4
1021.0908	2942.1523	3455.6	2569.8
1021.2051	2943.248	3381.9	2495.85
1021.3193	2944.3431	3302.35	2418.05
1021.4334	2945.4375	3215.4	2331.6
1021.5476	2946.5313	3148.4	2265.8
1021.6617	2947.6244	3030.6	2144.9
1021.7757	2948.7169	2953.35	2068.65
1021.8897	2949.8087	2882.4	1998.55
1022.0037	2950.8999	2815.8	1931.15
1022.1176	2951.9904	2736.85	1851.95
1022.2315	2953.0803	2663.35	1777.5
1022.3453	2954.1696	2617.8	1733.75
1022.4591	2955.2582	2568.35	1683.2
1022.5728	2956.3462	2529.45	1645.95
1022.6865	2957.4335	2497.65	1612.35
1022.8002	2958.5202	2460.55	1571.95
1022.9138	2959.6062	2436.2	1550.8
1023.0274	2960.6916	2415.85	1531.1
1023.141	2961.7764	2395.15	1508.85
1023.2545	2962.8605	2386.65	1500.6
1023.3679	2963.9439	2372.25	1489.25
1023.4813	2965.0267	2354.3	1465.5
1023.5947	2966.1089	2372.2	1463.85
1023.708	2967.1905	2351.55	1467.65
1023.8213	2968.2714	2328.45	1446
1023.9346	2969.3516	2329.3	1444.95
1024.0478	2970.4312	2343.2	1454.2
1024.1609	2971.5102	2331.35	1447.35
1024.274	2972.5885	2325.9	1442.65
1024.3871	2973.6662	2337.9	1446.4
1024.5002	2974.7432	2321.9	1438.45
1024.6132	2975.8196	2312.2	1427.85
1024.7261	2976.8954	2299.05	1416.25
1024.839	2977.9705	2289.7	1406.85
1024.9519	2979.045	2284.4	1399.5
1025.0647	2980.1188	2264.85	1380.65
1025.1775	2981.192	2240.45	1359.55
1025.2902	2982.2645	2233.1	1347.9
1025.4029	2983.3364	2213.1	1326.4
1025.5156	2984.4077	2188.6	1303.6
1025.6282	2985.4783	2166.35	1277
1025.7407	2986.5483	2129.9	1247.75
1025.8532	2987.6177	2105.05	1222.85
1025.9657	2988.6864	2072.15	1186.45
1026.0782	2989.7545	2046.05	1162.1
1026.1906	2990.8219	2003	1119.85
1026.3029	2991.8887	1986.45	1100.4
1026.4152	2992.9548	1960.5	1073.9
1026.5275	2994.0204	1927.8	1045.3
1026.6397	2995.0852	1898.7	1015.25
1026.7519	2996.1495	1887.05	1000.1
1026.864	2997.2131	1852.25	969.25
1026.9761	2998.276	1834.05	949.95
1027.0882	2999.3383	1818.1	934.3
1027.2002	3000.4	1794.4	908.5
1027.3122	3001.4611	1783.6	899.15
1027.4241	3002.5215	1771.05	888.4
1027.536	3003.5812	1749.1	864.1
1027.6478	3004.6404	1738.15	852.95
1027.7596	3005.6989	1740.45	853.9
1027.8714	3006.7567	1724.95	840.1
1027.9831	3007.8139	1726.75	828.6
1028.0947	3008.8705	1701.7	819.75
1028.2064	3009.9264	1711.7	810.65
1028.3179	3010.9818	1694.45	811.5
1028.4295	3012.0364	1688.65	806.05
1028.541	3013.0905	1677.8	792.3
1028.6524	3014.1439	1670.35	786.2
1028.7638	3015.1966	1672.9	789.4
1028.8752	3016.2487	1661.6	778.8
1028.9865	3017.3002	1656.85	768.4
1029.0978	3018.3511	1662.2	779.05
1029.209	3019.4013	1666.5	781.9
1029.3202	3020.4509	1661.45	778.8
1029.4314	3021.4998	1656.9	775.45
1029.5425	3022.5481	1647.45	761.7
1029.6535	3023.5958	1652.25	766.5
1029.7645	3024.6428	1655.05	769.65
1029.8755	3025.6892	1648.8	765.35
1029.9864	3026.735	1644.25	760.2
1030.0973	3027.7802	1642.35	759.8
1030.2082	3028.8247	1645.65	762.5
1030.319	3029.8685	1638.6	755.3
1030.4297	3030.9118	1641.35	755.8
1030.5404	3031.9544	1650.9	769.35
1030.6511	3032.9963	1646.95	764.2
1030.7617	3034.0376	1648.6	766.75
1030.8723	3035.0783	1651.85	765.9
1030.9829	3036.1184	1653.7	770.25
1031.0934	3037.1578	1645.8	762.4
1031.2038	3038.1966	1646.9	761.45
1031.3142	3039.2348	1651.6	768
1031.4246	3040.2723	1657.95	766.05
1031.5349	3041.3092	1639.5	758
1031.6452	3042.3455	1650.4	767.25
1031.7554	3043.3811	1641.8	757.7
1031.8656	3044.4161	1638.55	755.5
1031.9758	3045.4505	1635.5	755.45
1032.0859	3046.4842	1622	738.35
1032.1959	3047.5173	1618.4	737.5
1032.3059	3048.5498	1609.4	726.45
1032.4159	3049.5816	1612.95	730.35
1032.5258	3050.6128	1600.95	717.8
1032.6357	3051.6434	1597.1	710.75
1032.7455	3052.6734	1590.1	707.45
1032.8553	3053.7027	1582.6	700.2
1032.9651	3054.7314	1579.85	695.05
1033.0748	3055.7594	1573.85	692.55
1033.1845	3056.7868	1568.1	684.85
1033.2941	3057.8136	1566.25	683.7
1033.4037	3058.8398	1558.05	674.85
1033.5132	3059.8653	1546.85	662.65
1033.6227	3060.8902	1548.75	666.75
1033.7321	3061.9145	1544.8	662.3
1033.8415	3062.9381	1545.7	663.25
1033.9509	3063.9612	1547.7	651.2
1034.0602	3064.9835	1535.25	652.55
1034.1694	3066.0053	1518.85	634.75
1034.2787	3067.0264	1515.55	634.8
1034.3878	3068.0469	1513.45	629.05
1034.497	3069.0668	1507.3	621.35
1034.6061	3070.086	1490.95	607.15
1034.7151	3071.1046	1493.6	612
1034.8241	3072.1226	1491.1	606.95
1034.9331	3073.1399	1476.65	592.65
1035.042	3074.1567	1468	584.75
1035.1508	3075.1727	1451.85	569.8
1035.2597	3076.1882	1446.7	564.7
1035.3684	3077.203	1445.55	563.35
1035.4772	3078.2173	1432.5	547.2
1035.5859	3079.2308	1432.55	545.6
1035.6945	3080.2438	1420.1	536.5
1035.8031	3081.2561	1406.15	523.45
1035.9117	3082.2678	1401.7	519.35
1036.0202	3083.2789	1402.75	518.7
1036.1286	3084.2893	1396.1	512.55
1036.2371	3085.2991	1382.65	500.1
1036.3454	3086.3083	1382.3	497.25
1036.4538	3087.3169	1375.9	491.55
1036.562	3088.3248	1370.2	486
1036.6703	3089.3321	1373.55	489.75
1036.7785	3090.3388	1367.7	488.7
1036.8866	3091.3449	1351.65	465.4
1036.9948	3092.3503	1354.8	471.85
1037.1028	3093.3551	1347.9	468.1
1037.2108	3094.3593	1340.65	459.7
1037.3188	3095.3629	1334.65	454.6
1037.4267	3096.3658	1334.85	449.3
1037.5346	3097.3681	1331.1	449.65
1037.6425	3098.3698	1325.75	442.5
1037.7503	3099.3708	1322.55	433.1
1037.858	3100.3713	1317.4	435.5
1037.9657	3101.3711	1323.55	440.85
1038.0734	3102.3702	1441.1	425.05
1038.181	3103.3688	1318.5	435.15
1038.2886	3104.3667	1307.05	426.4
1038.3961	3105.364	1306.65	426.1
1038.5036	3106.3607	1305.75	421
1038.611	3107.3568	1298.55	414.75
1038.7184	3108.3522	1295.75	415.5
1038.8257	3109.347	1289.15	404.5
1038.933	3110.3412	1290.9	405
1039.0403	3111.3348	1290.3	407.2
1039.1475	3112.3277	1283.5	401.6
1039.2547	3113.32	1274.95	394.25
1039.3618	3114.3117	1281.8	400.7
1039.4689	3115.3028	1271.45	389.25
1039.5759	3116.2932	1279.2	394.85
1039.6829	3117.2831	1272.1	386.05
1039.7898	3118.2723	1272	391.05
1039.8967	3119.2608	1264.3	382
1040.0035	3120.2488	1269.45	387.15
1040.1103	3121.2361	1261.9	378.75
1040.2171	3122.2229	1258.05	378.55
1040.3238	3123.209	1253.25	370.75
1040.4305	3124.1944	1254.6	373.95
1040.5371	3125.1793	1253.85	370.3
1040.6437	3126.1635	1245.4	363.7
1040.7502	3127.1471	1243.95	362.55
1040.8567	3128.1301	1242.1	363.1
1040.9631	3129.1125	1247.35	367.35
1041.0695	3130.0942	1238.3	358
1041.1759	3131.0753	1243.55	351.5
1041.2822	3132.0558	1235.75	349.9
1041.3884	3133.0357	1230.45	349.1
1041.4946	3134.015	1226.85	344.35
1041.6008	3134.9936	1226.85	344.45
1041.7069	3135.9716	1245.85	344.3
1041.813	3136.949	1226.3	344.7
1041.919	3137.9258	1243.1	343.4
1042.025	3138.902	1222.65	335.65
1042.1309	3139.8775	1219.4	336
1042.2368	3140.8524	1215.8	334.85
1042.3427	3141.8267	1217.6	333.25
1042.4485	3142.8004	1211.95	330.15
1042.5542	3143.7735	1216.4	328.15
1042.6599	3144.7459	1214.9	331
1042.7656	3145.7178	1211.2	328.9
1042.8712	3146.689	1201.25	322.15
1042.9768	3147.6596	1207.15	323.05
1043.0823	3148.6295	1200.95	320.35
1043.1878	3149.5989	1200.25	317.55
1043.2932	3150.5676	1198.15	318.75
1043.3986	3151.5357	1197.3	316.3
1043.5039	3152.5032	1190.25	308.6
1043.6092	3153.4701	1191.95	309.15
1043.7145	3154.4364	1193.15	309.45
1043.8197	3155.402	1193.75	312.2
1043.9248	3156.367	1192.05	308.15
1044.03	3157.3315	1225.35	310.2
1044.135	3158.2952	1184	300.7
1044.24	3159.2584	1179.15	297.75
1044.345	3160.221	1180.9	297.1
1044.4499	3161.1829	1181.25	298.95
1044.5548	3162.1442	1177.45	296.4
1044.6596	3163.105	1167.55	285.75
1044.7644	3164.065	1171.9	291.85
1044.8692	3165.0245	1171.4	288
1044.9739	3165.9834	1167.5	288.9
1045.0785	3166.9416	1168.9	287.3
1045.1831	3167.8993	1171.7	290.3
1045.2877	3168.8563	1163.25	282.4
1045.3922	3169.8127	1154.4	273.2
1045.4966	3170.7684	1163.5	279.85
1045.6011	3171.7236	1159.1	275.95
1045.7054	3172.6782	1156.45	273.8
1045.8098	3173.6321	1156.2	273.75
1045.914	3174.5854	1156.45	270.75
1046.0183	3175.5381	1157.95	277.75
1046.1224	3176.4902	1153.4	272.45
1046.2266	3177.4417	1152.2	271.45
1046.3307	3178.3926	1152.05	270.95
1046.4347	3179.3428	1145.7	266.55
1046.5387	3180.2924	1145.6	266
1046.6427	3181.2415	1142.55	259.7
1046.7466	3182.1899	1142.45	256.85
1046.8504	3183.1377	1141.3	260.85
1046.9542	3184.0848	1140.7	254.3
1047.058	3185.0314	1141.55	260
1047.1617	3185.9773	1137.8	256.6
1047.2654	3186.9227	1133.85	251.35
1047.369	3187.8674	1134.75	255.3
1047.4726	3188.8115	1135.5	251.7
1047.5761	3189.755	1133.3	252.95
1047.6796	3190.6979	1128.4	248.8
1047.783	3191.6402	1120.25	238.3
1047.8864	3192.5818	1127.2	246.35
1047.9898	3193.5229	1132.2	245.2
1048.0931	3194.4633	1125.55	244.65
1048.1963	3195.4031	1121.85	240.65
1048.2995	3196.3423	1120.55	238.6
1048.4027	3197.2809	1120.3	237.35
1048.5058	3198.2189	1117.25	238.45
1048.6089	3199.1563	1125.3	238.25
1048.7119	3200.0931	1115.2	235
1048.8148	3201.0292	1115.35	235.9
1048.9178	3201.9648	1116.5	237.1
1049.0206	3202.8997	1119.85	237.65
1049.1235	3203.834	1109.45	229.05
1049.2262	3204.7677	1112.55	233.8
1049.329	3205.7008	1111.9	230.8
1049.4317	3206.6333	1108	229.05
1049.5343	3207.5652	1110.8	227.9
1049.6369	3208.4964	1107.35	226.65
1049.7394	3209.4271	1109.55	230.15
1049.8419	3210.3571	1101.65	221.45
1049.9444	3211.2865	1101.4	219.75
1050.0468	3212.2154	1099.85	218.3
1050.1491	3213.1436	1102.85	219.75
1050.2514	3214.0712	1105.25	219.9
1050.3537	3214.9982	1095.65	216.8
1050.4559	3215.9246	1100.35	219.1
1050.5581	3216.8503	1094.7	215.25
1050.6602	3217.7755	1097.8	214.35
1050.7623	3218.7001	1094.4	214.05
1050.8643	3219.624	1094.65	214.2
1050.9663	3220.5473	1096.3	213.5
1051.0682	3221.4701	1090.3	209
1051.1701	3222.3922	1092.3	211.1
1051.2719	3223.3137	1093.15	214.05
1051.3737	3224.2346	1090.3	209.6
1051.4754	3225.1549	1085.95	204.75
1051.5771	3226.0746	1083.6	205.15
1051.6788	3226.9937	1082.8	202.05
1051.7804	3227.9121	1078.9	198.15
1051.8819	3228.83	1082.5	203.45
1051.9834	3229.7473	1075.15	194.4
1052.0849	3230.6639	1078.1	197.65
1052.1863	3231.5799	1074	193.8
1052.2876	3232.4954	1075.2	193.85
1052.3889	3233.4102	1072.15	190.85
1052.4902	3234.3244	1072.75	192.55
1052.5914	3235.238	1075.2	194.85
1052.6926	3236.151	1099	191.35
1052.7937	3237.0634	1072.95	194.15
1052.8948	3237.9752	1071.4	190.8
1052.9958	3238.8864	1068.35	186.95
1053.0968	3239.797	1066	186.25
1053.1977	3240.7069	1066.7	186.25
1053.2986	3241.6163	1068	186.7
1053.3994	3242.5251	1062.85	182.35
1053.5002	3243.4332	1059.3	179.95
1053.6009	3244.3408	1061.75	180.95
1053.7016	3245.2477	1056	176.55
1053.8022	3246.154	1059.1	178.6
1053.9028	3247.0598	1057.8	176.5
1054.0034	3247.9649	1057.1	174.9
1054.1039	3248.8694	1056.15	175.3
1054.2043	3249.7733	1059.15	179.1
1054.3047	3250.6766	1054.85	175.4
1054.4051	3251.5793	1052.9	171.9
1054.5054	3252.4814	1053.6	172.75
1054.6056	3253.3829	1047.75	167.45
1054.7058	3254.2838	1045.85	163.4
1054.806	3255.1841	1050.1	169.8
1054.9061	3256.0838	1046.2	167.55
1055.0061	3256.9829	1044.6	166
1055.1062	3257.8814	1045.25	164.65
1055.2061	3258.7792	1043	160.15
1055.306	3259.6765	1039.35	158
1055.4059	3260.5731	1038.25	159.8
1055.5057	3261.4692	1037.6	155.5
1055.6055	3262.3647	1032.15	150.35
1055.7052	3263.2595	1030.15	149.6
1055.8049	3264.1538	1029.45	150.2
1055.9045	3265.0474	1028.45	150.4
1056.0041	3265.9404	1026.95	146.55
1056.1036	3266.8329	1023.35	144.15
1056.2031	3267.7247	1028.75	137.3
1056.3025	3268.616	1017.2	137.5
1056.4019	3269.5066	1010.75	131.05
1056.5013	3270.3966	1013.2	132.5
1056.6005	3271.286	1004.45	126.9
