Software Version:	3.9.2.0
Unit SN:	10000200
Spectrometer SN:	6960
Date:	3/26/2024 1:24:25 PM
Data Line Index:	25
Spectral Points:	2048
Integration time (ms):	125
Averages:	20
Delay (ms):	30000
Sequence Number:	1
Processing:	dark subtract
Laser Power (mW):	300
Laser Current (mA):	821
Laser Diode Temp (C):	25.1
Laser Case Temp (C):	26.7
System Temp (C):	26.6
Spectrometer Temp (C):	24.4
CCD Temp (C):	0.007
Secondary Temp (C):	20.013
Heatsink Temp (C):	22.177
CCDPCB Temp (C):	36.451
SecondaryPCB Temp (C):	33.817

Wavelength	RamanShift	Raw Counts	Dark Subtracted
787.061	30.1047	477.4	65
787.2016	32.3739	478.2	68.55
787.3422	34.6426	486.15	75.85
787.4828	36.9109	492	79
787.6235	39.1787	500.5	85
787.7642	41.4461	510.85	90.3
787.9049	43.7131	520.2	95.8
788.0456	45.9796	529.05	101.45
788.1863	48.2456	539.05	107.15
788.3271	50.5112	550.35	116.2
788.4679	52.7764	557.15	118.65
788.6087	55.0411	568.15	125.85
788.7496	57.3054	583.3	137.05
788.8904	59.5692	593.75	145.55
789.0313	61.8326	606.55	155.55
789.1722	64.0955	620.35	164.15
789.3132	66.3579	643.15	181.65
789.4541	68.6199	660.5	196.65
789.5951	70.8815	694.95	227.25
789.7361	73.1426	768.1	299.35
789.8771	75.4032	953.55	478.85
790.0181	77.6634	1417.25	935.9
790.1592	79.9231	2501.8	2017.5
790.3003	82.1824	4882.45	4392.05
790.4414	84.4412	9240.7	8740.85
790.5825	86.6995	15387.05	14872.75
790.7237	88.9574	21531.2	21008.3
790.8648	91.2148	26109.55	25576.45
791.006	93.4717	28580.7	28043.4
791.1472	95.7282	29542.6	28999.35
791.2885	97.9842	29987.45	29443.25
791.4297	100.2398	29979.65	29431.3
791.571	102.4949	29928.15	29378.6
791.7123	104.7495	29783.4	29228.4
791.8536	107.0036	29543.3	28989.45
791.9949	109.2573	29453.45	28899.55
792.1363	111.5105	29330	28773
792.2777	113.7632	29166.55	28609.2
792.4191	116.0154	29111.55	28542
792.5605	118.2672	29145.7	28582.25
792.7019	120.5185	29115	28552.3
792.8434	122.7693	29131.15	28561
792.9849	125.0197	29132	28562.75
793.1264	127.2696	29086.8	28513.8
793.2679	129.519	29170.55	28595.8
793.4094	131.7679	29144.95	28566.95
793.551	134.0163	29170.55	28584.6
793.6926	136.2642	29103.3	28516.05
793.8342	138.5117	29055.75	28457.45
793.9758	140.7587	28944	28355.35
794.1175	143.0052	28965.05	28370.7
794.2591	145.2512	28801.85	28207.65
794.4008	147.4967	28752.95	28158.3
794.5425	149.7417	28699.25	28103.7
794.6842	151.9863	28620.1	28021.05
794.826	154.2304	28650.6	28047.45
794.9677	156.4739	28470.8	27860.75
795.1095	158.717	28500.25	27892.8
795.2513	160.9596	28467.2	27850.65
795.3931	163.2017	28368.5	27749.2
795.535	165.4433	28318.95	27702.65
795.6768	167.6844	28197.7	27577
795.8187	169.925	28165.45	27541.05
795.9606	172.1651	27981.1	27352.55
796.1025	174.4047	27994.45	27365.35
796.2445	176.6439	27895.55	27262.3
796.3864	178.8825	27814.3	27177.15
796.5284	181.1206	27828.05	27190
796.6704	183.3582	27810.9	27169.05
796.8124	185.5954	27760.05	27116.45
796.9544	187.832	27771.55	27123.9
797.0965	190.0681	27784	27133.3
797.2386	192.3037	27863.45	27208.7
797.3806	194.5388	27811.95	27154.6
797.5228	196.7734	27867.35	27207.2
797.6649	199.0075	27876.9	27214.3
797.807	201.2411	27980.8	27314.85
797.9492	203.4742	28001.45	27340
798.0914	205.7068	28134.65	27469.3
798.2336	207.9389	28098.25	27429.75
798.3758	210.1704	28196.6	27524.65
798.518	212.4015	28167.35	27492.3
798.6603	214.632	28233.35	27561.3
798.8025	216.862	28251.8	27587.6
798.9448	219.0915	28243.05	27588.7
799.0871	221.3205	28290.6	27633.45
799.2294	223.549	28336.55	27685.1
799.3718	225.777	28372.85	27720.15
799.5141	228.0044	28358	27703.25
799.6565	230.2314	28459.75	27804.95
799.7989	232.4578	28405.95	27751.4
799.9413	234.6837	28430.15	27766.4
800.0837	236.909	28508.5	27841.4
800.2262	239.1339	28522.95	27833.3
800.3687	241.3582	28529.85	27855.1
800.5111	243.582	28461.65	27754.3
800.6536	245.8053	28483.35	27788.4
800.7961	248.0281	28432.8	27743.75
800.9387	250.2503	28436.3	27745.05
801.0812	252.472	28467	27767.05
801.2238	254.6932	28473.7	27772.35
801.3664	256.9139	28451.4	27749.25
801.509	259.134	28448.1	27743.2
801.6516	261.3536	28443.55	27740.25
801.7942	263.5727	28554.1	27849.55
801.9369	265.7912	28519.15	27815.6
802.0795	268.0092	28603.8	27899.45
802.2222	270.2267	28634.95	27928.65
802.3649	272.4436	28675.85	27968.1
802.5076	274.6601	28665	27949.65
802.6504	276.8759	28623.65	27912.5
802.7931	279.0913	28644.85	27930.2
802.9359	281.3061	28609.35	27891.85
803.0787	283.5204	28665.75	27945.35
803.2215	285.7341	28643.45	27922.2
803.3643	287.9473	28650.05	27917.75
803.5071	290.16	28671.85	27944.85
803.6499	292.3721	28593.5	27868.55
803.7928	294.5837	28645.8	27923.2
803.9357	296.7947	28604.2	27881.7
804.0786	299.0052	28615.25	27890.65
804.2215	301.2152	28600.15	27873.1
804.3644	303.4246	28595.65	27872.7
804.5074	305.6334	28498.95	27777.65
804.6503	307.8418	28415.2	27689.55
804.7933	310.0495	28359.7	27631.65
804.9363	312.2568	28217.7	27488.5
805.0793	314.4635	28073.45	27345.7
805.2223	316.6696	27971.4	27236.5
805.3653	318.8752	27803.25	27062.8
805.5084	321.0802	27720.75	26987.45
805.6514	323.2847	27781.25	27047.85
805.7945	325.4887	27747.85	27012.55
805.9376	327.692	27659.8	26920.8
806.0807	329.8949	27780.4	27041.05
806.2238	332.0972	27697.65	26958.15
806.367	334.2989	27683.9	26940.65
806.5101	336.5001	27546.35	26801.8
806.6533	338.7007	27552.8	26809.2
806.7965	340.9008	27522.55	26773.6
806.9397	343.1003	27453.45	26706.1
807.0829	345.2992	27440.35	26691.7
807.2261	347.4976	27401.9	26651.95
807.3693	349.6955	27320.35	26564.85
807.5126	351.8927	27360.95	26607.3
807.6559	354.0895	27253.5	26488.6
807.7991	356.2856	27266.3	26506.4
807.9424	358.4812	27225.65	26469.5
808.0857	360.6763	27243.75	26484.8
808.2291	362.8707	27166.85	26405
808.3724	365.0646	27248.2	26487.4
808.5158	367.258	27194	26432.7
808.6591	369.4508	27098.95	26330.9
808.8025	371.643	27136.35	26369.55
808.9459	373.8346	27089.35	26318.25
809.0893	376.0257	27057.6	26282.3
809.2327	378.2162	27020	26247.2
809.3762	380.4062	27016.35	26240.4
809.5196	382.5956	26966.15	26188.85
809.6631	384.7844	26898.65	26120.3
809.8066	386.9726	26793.5	26014.6
809.9501	389.1603	26741.5	25965.9
810.0936	391.3474	26712.4	25903.35
810.2371	393.5339	26709	25934.2
810.3806	395.7199	26629.15	25859.5
810.5241	397.9052	26599.8	25827.95
810.6677	400.09	26579.05	25810.9
810.8113	402.2743	26574.35	25806.7
810.9548	404.4579	26545.65	25776.5
811.0984	406.641	26643	25873.1
811.2421	408.8235	26657.35	25887.95
811.3857	411.0054	26709.6	25936.7
811.5293	413.1868	26798.05	26022.1
811.673	415.3675	26829.95	26049.45
811.8166	417.5477	26793.3	26013.7
811.9603	419.7273	26756.75	25971.8
812.104	421.9064	26623.4	25835.05
812.2477	424.0848	26535.7	25751.35
812.3914	426.2627	26408.2	25621.05
812.5351	428.4399	26388.15	25600.85
812.6788	430.6166	26286.05	25494.1
812.8226	432.7928	26164.75	25373.15
812.9663	434.9683	26021.9	25231.05
813.1101	437.1432	25898	25101.95
813.2539	439.3176	25820.5	25027.75
813.3977	441.4914	25698.4	24904.15
813.5415	443.6645	25696.05	24899.3
813.6853	445.8371	25579.55	24778.35
813.8291	448.0091	25511.5	24716.3
813.973	450.1806	25416.15	24621.7
814.1168	452.3514	25380.25	24580.25
814.2607	454.5216	25387.35	24581.8
814.4046	456.6913	25248.1	24450.25
814.5485	458.8603	25266.5	24466.25
814.6924	461.0288	25263.7	24466.35
814.8363	463.1967	25239.25	24441.75
814.9802	465.3639	25256.7	24453
815.1241	467.5306	25189.9	24385.3
815.2681	469.6967	25141.8	24340.95
815.412	471.8622	25053.25	24250.85
815.556	474.0271	25068.6	24265.9
815.7	476.1914	25019.9	24211.45
815.844	478.3551	25017.25	24213.2
815.988	480.5182	25073	24267.6
816.132	482.6807	25046	24239.9
816.276	484.8426	25098	24293.35
816.4201	487.0039	25198.5	24393.25
816.5641	489.1647	25267.95	24460.1
816.7082	491.3248	25363.5	24555.65
816.8522	493.4843	25302.8	24496.4
816.9963	495.6432	25320.65	24515
817.1404	497.8015	25195.45	24381.65
817.2845	499.9592	25213.65	24402.2
817.4286	502.1163	25143.65	24332.15
817.5727	504.2728	24993.85	24178.7
817.7168	506.4287	24999.95	24191.8
817.861	508.5839	24836.4	24027.45
818.0051	510.7386	24811.75	24000.05
818.1493	512.8927	24788.4	23966.7
818.2935	515.0461	24842.3	24027.2
818.4377	517.199	24778.6	23964.85
818.5818	519.3512	24779.05	23962.5
818.726	521.5029	24846.95	24025.7
818.8703	523.6539	24837.3	24019.3
819.0145	525.8043	24865.05	24047.6
819.1587	527.9541	24853.1	24033.95
819.303	530.1033	24756.3	23936.6
819.4472	532.2519	24650.1	23832.8
819.5915	534.3999	24606.95	23784.6
819.7357	536.5472	24639.2	23818.1
819.88	538.694	24683.25	23866.25
820.0243	540.8401	24724.3	23901.55
820.1686	542.9856	24787	23963.55
820.3129	545.1305	24776.65	23950.5
820.4572	547.2748	24768.05	23943.2
820.6016	549.4185	24728.05	23899.6
820.7459	551.5615	24637.15	23811.6
820.8902	553.704	24619.9	23792.35
821.0346	555.8458	24563.75	23739.6
821.1789	557.987	24604.65	23779.6
821.3233	560.1276	24635.05	23807.15
821.4677	562.2675	24713.3	23886.85
821.6121	564.4069	24778	23951.25
821.7565	566.5456	24850.45	24025.25
821.9009	568.6837	24870.9	24041.8
822.0453	570.8212	24731.85	23903.5
822.1897	572.958	24521	23690.3
822.3342	575.0942	24382.45	23555.65
822.4786	577.2299	24227.3	23397.25
822.6231	579.3648	24114.2	23288
822.7675	581.4992	24001.45	23174.9
822.912	583.6329	23953.15	23127.15
823.0565	585.766	23954.8	23126.85
823.201	587.8985	23967.25	23139.9
823.3454	590.0304	23912.4	23072.3
823.4899	592.1616	23921.5	23087.3
823.6345	594.2922	23846.35	23011.3
823.779	596.4222	23741.5	22909.4
823.9235	598.5515	23680.1	22845.45
824.068	600.6802	23597.7	22763.8
824.2126	602.8083	23441.3	22608.7
824.3571	604.9358	23446.85	22613.15
824.5017	607.0626	23398.8	22562.15
824.6462	609.1888	23404.75	22565.25
824.7908	611.3144	23398.2	22559.85
824.9354	613.4393	23388.1	22549.15
825.08	615.5636	23420.1	22582.8
825.2246	617.6873	23411.05	22574.2
825.3692	619.8103	23397.6	22556.9
825.5138	621.9327	23301.4	22459.75
825.6584	624.0544	23242.8	22404.9
825.803	626.1756	23188.05	22350.65
825.9477	628.2961	23139	22299.8
826.0923	630.4159	23062.1	22220.75
826.237	632.5351	23109.3	22269.05
826.3816	634.6537	23044.3	22203.25
826.5263	636.7716	23072.65	22229
826.6709	638.8889	23042.95	22197.1
826.8156	641.0056	23091.55	22247.4
826.9603	643.1216	23006.1	22161.6
827.105	645.237	23059.1	22213.6
827.2497	647.3518	22980.95	22136.55
827.3944	649.4659	22972.9	22129.15
827.5391	651.5793	22900.4	22058.6
827.6838	653.6922	22872.4	22028.15
827.8285	655.8043	22823.25	21980.65
827.9733	657.9159	22812.3	21966.4
828.118	660.0268	22756.1	21907.25
828.2627	662.137	22705.6	21858.9
828.4075	664.2466	22710.6	21860.2
828.5522	666.3556	22685.55	21836.75
828.697	668.4639	22593.9	21745.2
828.8418	670.5716	22606.3	21760.6
828.9865	672.6786	22600.1	21751.75
829.1313	674.785	22477.1	21627
829.2761	676.8907	22438.75	21589.55
829.4209	678.9958	22424.3	21576
829.5657	681.1002	22350.8	21501.2
829.7105	683.204	22324.95	21471.5
829.8553	685.3072	22300.85	21446.45
830.0001	687.4097	22281.65	21428.15
830.1449	689.5115	22283.05	21429.5
830.2898	691.6127	22220.45	21369.15
830.4346	693.7132	22191.55	21341.75
830.5794	695.8131	22219.05	21343.05
830.7243	697.9123	22227.1	21371.85
830.8691	700.0109	22149.35	21294.7
831.014	702.1089	22164	21308.05
831.1588	704.2061	22146.65	21290.8
831.3037	706.3028	22122.35	21265.3
831.4486	708.3987	22124.4	21268.65
831.5935	710.4941	22093.95	21239.2
831.7383	712.5887	22096.6	21240.65
831.8832	714.6827	22081.7	21221.35
832.0281	716.7761	22084.4	21230.25
832.173	718.8688	22069.45	21212
832.3179	720.9608	22040.7	21179.5
832.4628	723.0522	22080.35	21221.3
832.6077	725.1429	22050.15	21191.7
832.7527	727.233	22057.35	21200.2
832.8976	729.3224	22062.45	21204.9
833.0425	731.4112	21985.2	21126.25
833.1874	733.4993	21958.3	21098.15
833.3324	735.5867	21823.5	20962.5
833.4773	737.6735	21750.05	20888.6
833.6222	739.7596	21666.3	20804.75
833.7672	741.845	21607.15	20749.7
833.9122	743.9298	21533.9	20672.65
834.0571	746.014	21517.2	20657.15
834.2021	748.0974	21559.2	20693.55
834.347	750.1802	21452.45	20588.9
834.492	752.2624	21347.7	20484.5
834.637	754.3439	21289.15	20425.45
834.782	756.4247	21277.8	20406.3
834.9269	758.5048	21217.15	20354.9
835.0719	760.5843	21245.75	20382.2
835.2169	762.6631	21238.3	20373.65
835.3619	764.7413	21269.95	20407.1
835.5069	766.8188	21421	20556.2
835.6519	768.8956	21437.9	20571.55
835.7969	770.9718	21563.9	20701.4
835.9419	773.0473	21509	20644.6
836.0869	775.1221	21424.85	20559.65
836.232	777.1962	21296.65	20431.9
836.377	779.2697	21260.95	20394.6
836.522	781.3426	21215.95	20332.9
836.667	783.4147	21190.7	20322
836.8121	785.4862	21250.35	20382.2
836.9571	787.557	21132.45	20265.9
837.1021	789.6271	21014.2	20147.8
837.2472	791.6966	20818.8	19949.55
837.3922	793.7654	20641.15	19774.55
837.5373	795.8335	20508.4	19643.3
837.6823	797.901	20388.6	19523.75
837.8274	799.9678	20310.2	19438.35
837.9724	802.0339	20256.55	19389.55
838.1175	804.0993	20235.55	19357.6
838.2626	806.1641	20107.95	19241.1
838.4076	808.2282	20059.2	19189.85
838.5527	810.2916	20041.1	19171.45
838.6978	812.3544	20011.75	19143.6
838.8428	814.4164	19922.7	19054.4
838.9879	816.4778	19950.2	19083.55
839.133	818.5385	19906.45	19034.95
839.2781	820.5986	19937	19068.6
839.4232	822.658	19932.05	19062.45
839.5682	824.7166	19936.15	19068.7
839.7133	826.7747	20061.6	19192.15
839.8584	828.832	20122.7	19252.45
840.0035	830.8886	20108	19235.15
840.1486	832.9446	20136.3	19262.7
840.2937	834.9999	20096.65	19228.2
840.4388	837.0545	20017.45	19142.1
840.5839	839.1085	19928.05	19057.3
840.729	841.1618	19826.05	18950.75
840.8741	843.2143	19727.5	18860.2
841.0192	845.2662	19580.5	18709.45
841.1643	847.3175	19560.55	18690.45
841.3095	849.368	19468.1	18596.7
841.4546	851.4179	19419.9	18548.7
841.5997	853.467	19325.05	18452.7
841.7448	855.5155	19297.25	18424.05
841.8899	857.5633	19228.4	18356.1
842.0351	859.6105	19123.85	18250.55
842.1802	861.6569	19115.75	18243.4
842.3253	863.7027	19062.9	18189.1
842.4704	865.7478	19053.3	18179.3
842.6156	867.7922	18991.8	18119.45
842.7607	869.8359	18950	18075.15
842.9058	871.8789	18884.35	18010.35
843.0509	873.9212	18893.4	17985.6
843.1961	875.9629	18826.15	17950.55
843.3412	878.0039	18818.4	17941.45
843.4863	880.0441	18838.45	17963.1
843.6315	882.0837	18847.25	17971.3
843.7766	884.1226	18797.95	17920.3
843.9218	886.1609	18810.85	17937.1
844.0669	888.1984	18815.75	17941.45
844.212	890.2352	18833.1	17957.3
844.3572	892.2714	18811.15	17932.55
844.5023	894.3069	18790.2	17913.45
844.6475	896.3416	18620.85	17744.3
844.7926	898.3757	18610.35	17735.9
844.9377	900.4091	18514.25	17634.8
845.0829	902.4418	18496.5	17617.05
845.228	904.4739	18452.65	17574.45
845.3732	906.5052	18415.15	17536.15
845.5183	908.5358	18367.35	17488.25
845.6635	910.5658	18319.85	17439.85
845.8086	912.595	18236.85	17357.2
845.9538	914.6236	18125.7	17247.55
846.0989	916.6515	18116.75	17239.1
846.2441	918.6786	17971.65	17092.5
846.3892	920.7051	17980.35	17100.7
846.5344	922.7309	17971.85	17093.35
846.6795	924.756	17875.5	16997.1
846.8246	926.7804	17870	16990.2
846.9698	928.8041	17741.65	16860.1
847.1149	930.8272	17759.8	16884.1
847.2601	932.8495	17693.5	16814
847.4052	934.8711	17644.75	16761.7
847.5504	936.892	17566.25	16684.5
847.6955	938.9123	17543.35	16663.95
847.8407	940.9318	17527	16649.45
847.9858	942.9506	17451.6	16569.55
848.131	944.9688	17392.4	16514.55
848.2761	946.9862	17331.55	16449.8
848.4213	949.003	17218.55	16334.65
848.5664	951.019	17125.85	16245.85
848.7115	953.0344	17083.2	16204.45
848.8567	955.0491	17038.2	16155.55
849.0018	957.063	17043.6	16163.75
849.147	959.0763	17047.8	16161.45
849.2921	961.0888	16975.3	16094.2
849.4373	963.1007	16961.05	16081.25
849.5824	965.1119	16933.9	16053.05
849.7275	967.1223	16920.05	16040.85
849.8727	969.1321	16851	15972.05
850.0178	971.1412	16802.85	15923.3
850.1629	973.1495	16739.3	15858.85
850.3081	975.1572	16752	15852.9
850.4532	977.1641	16689.15	15809.05
850.5983	979.1704	16629.1	15749.3
850.7435	981.1759	16566.25	15679.3
850.8886	983.1808	16568.2	15686.05
851.0337	985.1849	16541	15650.45
851.1788	987.1884	16447.65	15561.4
851.324	989.1911	16439.25	15554.35
851.4691	991.1932	16408.75	15523.95
851.6142	993.1945	16346.25	15464.35
851.7593	995.1951	16254.4	15369.1
851.9045	997.1951	16235.6	15345.7
852.0496	999.1943	16150.7	15269.65
852.1947	1001.1928	16069.9	15185.85
852.3398	1003.1906	16033.4	15149.2
852.4849	1005.1877	16027.8	15145.15
852.63	1007.1841	16004.85	15123
852.7751	1009.1798	15972.2	15092.1
852.9202	1011.1748	15860.4	14976.95
853.0653	1013.1691	15797.65	14913.35
853.2104	1015.1627	15726	14842
853.3555	1017.1556	15556.75	14674.15
853.5006	1019.1477	15484.85	14600.15
853.6457	1021.1392	15372.6	14492.9
853.7908	1023.1299	15292.2	14411.7
853.9359	1025.12	15229.65	14348.55
854.081	1027.1093	15169.35	14292
854.2261	1029.0979	15152	14274.3
854.3712	1031.0859	15126.6	14249.8
854.5163	1033.0731	15122.6	14239.85
854.6613	1035.0596	15061.65	14179.95
854.8064	1037.0454	14953.45	14070.25
854.9515	1039.0304	14902.95	14019.65
855.0965	1041.0148	14801.85	13918.75
855.2416	1042.9985	14714.3	13828.2
855.3867	1044.9814	14664	13782.95
855.5317	1046.9636	14621.75	13737.85
855.6768	1048.9452	14562.8	13682.45
855.8219	1050.926	14521.8	13638.05
855.9669	1052.9061	14476.6	13593.8
856.112	1054.8855	14473.5	13589.5
856.257	1056.8642	14445.3	13561.4
856.4021	1058.8421	14429.9	13540.6
856.5471	1060.8194	14364.95	13480
856.6921	1062.7959	14342.45	13458.75
856.8372	1064.7717	14304.65	13419.3
856.9822	1066.7469	14273.55	13387.95
857.1272	1068.7213	14282.5	13395.6
857.2723	1070.695	14272.15	13389.75
857.4173	1072.6679	14203.85	13319.45
857.5623	1074.6402	14180.8	13294.6
857.7073	1076.6117	14216.4	13327.1
857.8523	1078.5826	14141.45	13254.35
857.9973	1080.5527	14060.6	13172.7
858.1423	1082.5221	13967.15	13080.8
858.2873	1084.4908	13943.4	13057
858.4323	1086.4587	13867.15	12980.05
858.5773	1088.426	13849.7	12964.2
858.7223	1090.3925	13784.6	12892.25
858.8673	1092.3584	13797.5	12912.75
859.0123	1094.3235	13702.15	12818
859.1573	1096.2879	13671.95	12786.4
859.3022	1098.2515	13671.7	12785.85
859.4472	1100.2145	13723.55	12840
859.5922	1102.1767	13711.4	12823.9
859.7371	1104.1382	13685.3	12798.25
859.8821	1106.099	13709.05	12821.2
860.027	1108.0591	13716.15	12828.55
860.172	1110.0185	13765.35	12878.15
860.3169	1111.9771	13740.8	12853.85
860.4619	1113.9351	13703.7	12817.5
860.6068	1115.8923	13651.65	12765.65
860.7517	1117.8488	13567.6	12680.55
860.8967	1119.8045	13479.35	12592.1
861.0416	1121.7596	13419.8	12532.6
861.1865	1123.7139	13313	12426.95
861.3314	1125.6675	13235.55	12349.5
861.4763	1127.6204	13239.25	12352.25
861.6212	1129.5726	13183.75	12297.1
861.7661	1131.524	13166.75	12280.2
861.911	1133.4748	13128.6	12241.45
862.0559	1135.4248	13015.05	12128
862.2008	1137.3741	12937.55	12051.4
862.3457	1139.3226	12899.4	12010.75
862.4905	1141.2705	12846.8	11958.65
862.6354	1143.2176	12787.2	11894.95
862.7803	1145.164	12763.05	11874.4
862.9251	1147.1097	12710.1	11823.35
863.07	1149.0546	12664.5	11777.7
863.2148	1150.9989	12608.75	11721.05
863.3597	1152.9424	12582.35	11693.65
863.5045	1154.8852	12506.55	11619.55
863.6493	1156.8272	12498.5	11610.3
863.7942	1158.7686	12462.4	11567.05
863.939	1160.7092	12404.15	11514.3
864.0838	1162.6491	12356.3	11466.35
864.2286	1164.5883	12380.8	11493.75
864.3734	1166.5267	12347.4	11459.95
864.5182	1168.4644	12385.4	11499.55
864.663	1170.4014	12425.35	11533.45
864.8078	1172.3377	12429	11542.85
864.9526	1174.2732	12480.25	11594.85
865.0974	1176.2081	12552.95	11667.3
865.2421	1178.1421	12638.55	11745.15
865.3869	1180.0755	12723.15	11837.45
865.5317	1182.0082	12786.4	11899.2
865.6764	1183.9401	12818.45	11931.15
865.8212	1185.8713	12739.95	11855.25
865.9659	1187.8017	12643.8	11758.85
866.1106	1189.7315	12497.4	11614.3
866.2554	1191.6605	12331.35	11447.2
866.4001	1193.5888	12217.65	11330.95
866.5448	1195.5163	12150.25	11266.3
866.6895	1197.4432	12062.65	11175.55
866.8342	1199.3693	11988.75	11103.45
866.9789	1201.2947	11945.15	11054.65
867.1236	1203.2193	11885.5	10999.85
867.2683	1205.1432	11856.95	10968.95
867.413	1207.0664	11828.4	10938.3
867.5576	1208.9889	11753.25	10860.05
867.7023	1210.9106	11721.05	10831.75
867.847	1212.8316	11671.15	10783.6
867.9916	1214.7519	11666.25	10769.85
868.1363	1216.6715	11620.1	10731.15
868.2809	1218.5903	11635	10747.85
868.4255	1220.5084	11628.3	10742.9
868.5701	1222.4257	11627.6	10739.15
868.7148	1224.3424	11571.4	10684.75
868.8594	1226.2583	11609	10715.25
869.004	1228.1735	11608.45	10719.4
869.1486	1230.0879	11603.35	10715.2
869.2932	1232.0016	11605.05	10715.9
869.4377	1233.9146	11613.1	10722.75
869.5823	1235.8269	11615.9	10727.65
869.7269	1237.7384	11600.7	10713.6
869.8715	1239.6492	11515.25	10626.5
870.016	1241.5592	11513.55	10623.65
870.1606	1243.4686	11490.15	10604.75
870.3051	1245.3772	11520.05	10631.95
870.4496	1247.285	11542.65	10652.45
870.5941	1249.1922	11564.55	10676.45
870.7387	1251.0986	11629.5	10742.75
870.8832	1253.0042	11620.7	10732.25
871.0277	1254.9092	11651.85	10764.35
871.1722	1256.8134	11661.05	10773.9
871.3167	1258.7169	11746.8	10857.1
871.4611	1260.6196	11724.75	10839.15
871.6056	1262.5216	11734.8	10844.85
871.7501	1264.4229	11740.9	10854.55
871.8945	1266.3234	11779.45	10891.6
872.039	1268.2232	11759.8	10868.85
872.1834	1270.1223	11761.45	10872.45
872.3278	1272.0207	11715.95	10824.55
872.4723	1273.9183	11690.05	10795.55
872.6167	1275.8151	11653.7	10765.1
872.7611	1277.7113	11603.6	10714.5
872.9055	1279.6067	11598.95	10711.4
873.0499	1281.5014	11652.8	10761.55
873.1943	1283.3953	11756.15	10865.65
873.3386	1285.2885	11937.8	11049.75
873.483	1287.181	12070.55	11182.2
873.6274	1289.0727	12259.75	11373.1
873.7717	1290.9637	12342.05	11452.2
873.9161	1292.854	12410.3	11519.25
874.0604	1294.7435	12394.85	11506.2
874.2047	1296.6323	12336.75	11447.35
874.349	1298.5204	12240.75	11348.85
874.4933	1300.4077	12147.65	11257.2
874.6376	1302.2943	12027.6	11141.1
874.7819	1304.1802	11917.3	11028.9
874.9262	1306.0653	11745	10854.4
875.0705	1307.9497	11600.35	10711.55
875.2147	1309.8333	11454.7	10566.85
875.359	1311.7162	11330.75	10442.05
875.5032	1313.5984	11254.7	10363.3
875.6475	1315.4798	11187.4	10284.25
875.7917	1317.3605	11153.35	10258.75
875.9359	1319.2405	11101.05	10209.8
876.0801	1321.1197	11043.55	10152.75
876.2243	1322.9982	10975.85	10084.2
876.3685	1324.876	10870.05	9980.65
876.5127	1326.753	10752.15	9862.6
876.6569	1328.6293	10662.2	9770.8
876.801	1330.5048	10602.45	9710.6
876.9452	1332.3796	10524.05	9633.15
877.0893	1334.2537	10455.7	9542.7
877.2335	1336.127	10367.75	9478.9
877.3776	1337.9996	10318.1	9428.5
877.5217	1339.8714	10292.05	9401.2
877.6658	1341.7426	10254.9	9321.25
877.8099	1343.6129	10236.55	9345.45
877.954	1345.4826	10195.55	9306.55
878.0981	1347.3515	10184	9293.3
878.2422	1349.2196	10154.05	9262.95
878.3862	1351.087	10150.3	9259.9
878.5303	1352.9537	10127.75	9236.55
878.6743	1354.8197	10142.05	9251.8
878.8184	1356.6849	10170.3	9282.15
878.9624	1358.5493	10184.85	9294.65
879.1064	1360.4131	10201.8	9311.95
879.2504	1362.276	10208.55	9317.9
879.3944	1364.1383	10201.35	9310.85
879.5384	1365.9998	10197.8	9304.05
879.6823	1367.8606	10134.9	9243.05
879.8263	1369.7206	10058	9168.25
879.9702	1371.5799	9981.15	9087.6
880.1142	1373.4384	9911.2	9023.3
880.2581	1375.2962	9853.4	8963.65
880.402	1377.1533	9745.5	8855.55
880.5459	1379.0096	9616.65	8725.2
880.6898	1380.8652	9515.8	8627.05
880.8337	1382.7201	9406.85	8518.6
880.9776	1384.5742	9327.55	8438.45
881.1215	1386.4275	9287.1	8394.2
881.2653	1388.2802	9214.7	8326.55
881.4092	1390.132	9137.8	8248.35
881.553	1391.9832	9120.45	8228.45
881.6968	1393.8336	9045.15	8154.4
881.8406	1395.6832	9045.2	8153.95
881.9844	1397.5322	8977.4	8086.05
882.1282	1399.3803	8960.75	8067
882.272	1401.2278	8912.5	8021.4
882.4158	1403.0745	8872.5	7982
882.5595	1404.9204	8814.1	7927.4
882.7033	1406.7656	8793.2	7903.55
882.847	1408.6101	8755.95	7865.45
882.9908	1410.4538	8761.4	7869.95
883.1345	1412.2968	8745.05	7853.35
883.2782	1414.139	8734.5	7845.8
883.4219	1415.9805	8719.05	7830
883.5656	1417.8213	8710.6	7801.4
883.7092	1419.6613	8693.75	7804.3
883.8529	1421.5006	8725.15	7837.95
883.9965	1423.3391	8740.85	7849.9
884.1402	1425.1769	8778.3	7889.15
884.2838	1427.0139	8876.5	7986.6
884.4274	1428.8502	8994.6	8101.45
884.571	1430.6858	9063.75	8174.4
884.7146	1432.5206	9135.5	8246.35
884.8582	1434.3547	9180.55	8287.45
885.0018	1436.188	9167.25	8277.25
885.1453	1438.0206	9149.6	8259.1
885.2889	1439.8524	9077	8185.95
885.4324	1441.6835	9039.8	8150.05
885.5759	1443.5139	9013.35	8118.45
885.7194	1445.3435	8974	8084.55
885.8629	1447.1724	8940.25	8052.05
886.0064	1449.0005	8907.1	8016.75
886.1499	1450.8279	8872.25	7984.15
886.2933	1452.6545	8871.45	7984
886.4368	1454.4804	8887.35	7997.85
886.5802	1456.3056	8873.6	7978.9
886.7237	1458.13	8829.05	7940.2
886.8671	1459.9536	8794.3	7904.25
887.0105	1461.7766	8723.6	7834
887.1539	1463.5987	8625.45	7735.85
887.2972	1465.4202	8549.4	7659.75
887.4406	1467.2409	8470.15	7579.9
887.584	1469.0608	8408.1	7518.8
887.7273	1470.88	8322.75	7432.8
887.8706	1472.6984	8261.65	7372.4
888.0139	1474.5161	8147.2	7254.65
888.1572	1476.3331	8107.4	7218.8
888.3005	1478.1493	8082.15	7191.5
888.4438	1479.9648	8060.35	7171.3
888.5871	1481.7795	8017	7127.15
888.7303	1483.5935	7992.25	7102.45
888.8736	1485.4067	7979.35	7092.35
889.0168	1487.2192	7971.4	7082.15
889.16	1489.031	7955.65	7065.9
889.3032	1490.842	7914.5	7022.3
889.4464	1492.6522	7909.2	7021
889.5896	1494.4618	7883.5	6990.6
889.7327	1496.2705	7851.15	6962.9
889.8759	1498.0785	7845.8	6952.7
890.019	1499.8858	7804.35	6913.45
890.1622	1501.6924	7809.95	6923.7
890.3053	1503.4981	7775.65	6887.2
890.4484	1505.3032	7773.15	6885.9
890.5914	1507.1075	7705.6	6814.65
890.7345	1508.911	7683.9	6793.8
890.8776	1510.7138	7670.7	6781.2
891.0206	1512.5159	7649.3	6756.9
891.1637	1514.3172	7603.95	6714
891.3067	1516.1178	7572.95	6688.35
891.4497	1517.9176	7558.25	6664.75
891.5927	1519.7166	7530.1	6640.05
891.7357	1521.515	7518.65	6624.45
891.8786	1523.3126	7503.75	6614.2
892.0216	1525.1094	7479.95	6592.95
892.1645	1526.9055	7420.9	6532.85
892.3074	1528.7008	7403.1	6513.35
892.4503	1530.4954	7369.4	6478.15
892.5932	1532.2893	7364.55	6476.05
892.7361	1534.0824	7318.85	6425.25
892.879	1535.8747	7311.35	6423.05
893.0218	1537.6663	7276.6	6387.05
893.1647	1539.4572	7242.05	6353.6
893.3075	1541.2473	7232.1	6344.35
893.4503	1543.0367	7222.5	6335.9
893.5931	1544.8253	7210.85	6317
893.7359	1546.6132	7182.35	6288.95
893.8787	1548.4003	7172.7	6274.15
894.0214	1550.1867	7174.25	6276.65
894.1642	1551.9723	7175.6	6283.7
894.3069	1553.7572	7177.15	6289.25
894.4496	1555.5414	7180.55	6292.9
894.5923	1557.3247	7184.05	6297.55
894.735	1559.1074	7204.1	6319.85
894.8777	1560.8893	7234.2	6349.75
895.0204	1562.6705	7242.85	6354.95
895.163	1564.4509	7286.55	6399.4
895.3056	1566.2305	7275.25	6389.5
895.4482	1568.0094	7292.1	6407.65
895.5908	1569.7876	7276.2	6391.5
895.7334	1571.565	7264.35	6375.1
895.876	1573.3417	7261.7	6377.05
896.0186	1575.1176	7237.35	6351.7
896.1611	1576.8928	7230.25	6344.55
896.3036	1578.6672	7202.65	6318.6
896.4461	1580.4409	7222.1	6336.75
896.5886	1582.2138	7201.4	6313.7
896.7311	1583.986	7225.3	6338.25
896.8736	1585.7575	7250.3	6363.45
897.0161	1587.5282	7247.4	6362.75
897.1585	1589.2981	7287.85	6402.25
897.3009	1591.0673	7251.15	6367.05
897.4433	1592.8358	7279.35	6396.45
897.5857	1594.6035	7280.6	6392.35
897.7281	1596.3704	7267.5	6381.5
897.8705	1598.1366	7255.85	6370.45
898.0128	1599.9021	7245.85	6361.25
898.1551	1601.6668	7221.55	6334.4
898.2975	1603.4308	7220.3	6332.6
898.4398	1605.194	7217.55	6328.4
898.5821	1606.9564	7248.45	6364.75
898.7243	1608.7182	7275.95	6386.25
898.8666	1610.4791	7334	6450
899.0088	1612.2394	7404.7	6521.9
899.1511	1613.9988	7461.1	6575.8
899.2933	1615.7576	7570.55	6688.3
899.4355	1617.5156	7629.05	6735.55
899.5776	1619.2728	7651.7	6767.35
899.7198	1621.0293	7631.65	6748.4
899.862	1622.785	7563.25	6678.25
900.0041	1624.54	7455.1	6569.1
900.1462	1626.2942	7333.5	6447.1
900.2883	1628.0477	7189.15	6300.5
900.4304	1629.8005	7071	6182.8
900.5725	1631.5525	6958.65	6072.1
900.7145	1633.3037	6836.55	5954.3
900.8566	1635.0542	6755	5869.35
900.9986	1636.804	6692.35	5807.95
901.1406	1638.553	6694.85	5738.65
901.2826	1640.3013	6588.75	5706
901.4245	1642.0488	6534.2	5650.3
901.5665	1643.7955	6518.35	5634.5
901.7085	1645.5416	6487.95	5604.3
901.8504	1647.2868	6489.1	5606.9
901.9923	1649.0313	6467.15	5582.05
902.1342	1650.7751	6482.8	5596
902.2761	1652.5181	6476.85	5593.45
902.4179	1654.2604	6474.1	5587.25
902.5598	1656.0019	6486.55	5605.3
902.7016	1657.7427	6502.8	5618.4
902.8434	1659.4828	6572.05	5686.25
902.9852	1661.222	6599.15	5713
903.127	1662.9606	6610.95	5728.3
903.2687	1664.6984	6581.9	5697.7
903.4105	1666.4354	6523.15	5638.1
903.5522	1668.1717	6418.2	5532.25
903.6939	1669.9072	6290.7	5405.9
903.8356	1671.642	6186.85	5299.55
903.9773	1673.3761	6100.75	5218.65
904.119	1675.1094	6003.65	5116.95
904.2606	1676.8419	5956.4	5074.2
904.4022	1678.5737	5883.7	4998.35
904.5439	1680.3048	5843.05	4960
904.6855	1682.0351	5803.3	4919.1
904.827	1683.7646	5750.6	4864.5
904.9686	1685.4934	5736.75	4852.7
905.1101	1687.2215	5694.45	4809.75
905.2517	1688.9488	5671.75	4788.1
905.3932	1690.6754	5635.1	4753.5
905.5347	1692.4012	5629.5	4745.8
905.6761	1694.1263	5603.3	4718.9
905.8176	1695.8506	5583.3	4698.7
905.9591	1697.5742	5572.8	4689.55
906.1005	1699.297	5551.95	4667.15
906.2419	1701.0191	5516.75	4633.2
906.3833	1702.7404	5484.8	4601.35
906.5246	1704.461	5448.45	4562.6
906.666	1706.1808	5426.4	4541.9
906.8073	1707.8999	5420.8	4534.1
906.9487	1709.6182	5394.25	4510.75
907.09	1711.3358	5390.35	4507.15
907.2313	1713.0527	5374.65	4493
907.3725	1714.7688	5344.05	4455
907.5138	1716.4841	5324.35	4440.4
907.655	1718.1987	5333.65	4445.2
907.7962	1719.9126	5297.5	4414.45
907.9374	1721.6257	5292.2	4407.3
908.0786	1723.338	5271.8	4387.9
908.2198	1725.0496	5229.15	4344.15
908.3609	1726.7605	5231.95	4348.1
908.502	1728.4706	5215.5	4329.75
908.6431	1730.18	5189.7	4303.75
908.7842	1731.8886	5192.85	4308.4
908.9253	1733.5964	5185.7	4295.9
909.0664	1735.3036	5159.6	4272.85
909.2074	1737.0099	5155.35	4271.9
909.3484	1738.7156	5146.65	4264.05
909.4894	1740.4204	5121.3	4234.85
909.6304	1742.1246	5137.95	4253.2
909.7714	1743.8279	5103.2	4219.25
909.9123	1745.5306	5097.9	4213.95
910.0532	1747.2325	5098.15	4215.25
910.1941	1748.9336	5057.85	4175.65
910.335	1750.634	5058.3	4170.5
910.4759	1752.3336	5037.25	4152.9
910.6168	1754.0325	5020.65	4138
910.7576	1755.7307	5029.25	4145.75
910.8984	1757.4281	5021.55	4138.85
911.0392	1759.1247	5028.95	4136.35
911.18	1760.8206	5024.75	4138.9
911.3208	1762.5158	5011.35	4124.15
911.4615	1764.2102	4969.7	4086.6
911.6022	1765.9039	4964.4	4080.6
911.7429	1767.5968	4941.4	4058.55
911.8836	1769.289	4933.75	4050.9
912.0243	1770.9804	4917.1	4032.4
912.1649	1772.6711	4925.95	4039.5
912.3056	1774.361	4883.9	3998.9
912.4462	1776.0502	4920.95	4036.75
912.5868	1777.7386	4904.7	4018.05
912.7274	1779.4263	4885	4001.45
912.8679	1781.1132	4883.55	4000.2
913.0084	1782.7994	4867.65	3982.5
913.149	1784.4849	4852.1	3967.2
913.2895	1786.1696	4849.65	3958.75
913.4299	1787.8535	4824.7	3941.35
913.5704	1789.5367	4820.4	3936.15
913.7108	1791.2192	4816.05	3933.05
913.8513	1792.9009	4807.55	3895.15
913.9917	1794.5818	4776.45	3893.3
914.132	1796.2621	4758.6	3876.1
914.2724	1797.9415	4759.1	3875
914.4128	1799.6202	4750.65	3867.7
914.5531	1801.2982	4740	3854.6
914.6934	1802.9755	4730.7	3845.05
914.8337	1804.6519	4708.5	3825.15
914.9739	1806.3277	4700.3	3818.65
915.1142	1808.0027	4689	3807.45
915.2544	1809.6769	4678.95	3794.55
915.3946	1811.3504	4681.05	3799.05
915.5348	1813.0231	4659.6	3775.45
915.675	1814.6951	4652.95	3769.55
915.8151	1816.3664	4644.65	3759
915.9553	1818.0369	4659.75	3775.95
916.0954	1819.7067	4628.6	3745.5
916.2355	1821.3757	4622.3	3736.55
916.3755	1823.044	4610.15	3725.9
916.5156	1824.7115	4605.15	3720.95
916.6556	1826.3783	4587.25	3702.8
916.7956	1828.0443	4571.25	3689.2
916.9356	1829.7096	4569.85	3685
917.0756	1831.3741	4567.5	3682.1
917.2155	1833.0379	4565.2	3683.05
917.3555	1834.701	4550.8	3664.55
917.4954	1836.3633	4533.1	3648.05
917.6353	1838.0248	4523.25	3638.3
917.7751	1839.6856	4523.35	3641.7
917.915	1841.3457	4505.6	3623.25
918.0548	1843.005	4501.7	3617.4
918.1946	1844.6636	4495.65	3613.3
918.3344	1846.3214	4495.3	3613.05
918.4742	1847.9785	4476.65	3593.95
918.6139	1849.6349	4473.05	3589.8
918.7537	1851.2904	4478.2	3586.65
918.8934	1852.9453	4445.25	3562.15
919.0331	1854.5994	4445.65	3563.3
919.1727	1856.2528	4446.25	3557.8
919.3124	1857.9054	4415.9	3533.4
919.452	1859.5572	4410.45	3526.7
919.5916	1861.2083	4407.1	3522.9
919.7312	1862.8587	4402.25	3519.4
919.8708	1864.5084	4405.7	3521.9
920.0103	1866.1572	4396.55	3513.3
920.1498	1867.8054	4371.35	3487.85
920.2893	1869.4528	4377.3	3494.15
920.4288	1871.0994	4368.65	3485.9
920.5683	1872.7453	4347	3461
920.7077	1874.3905	4344.95	3455.25
920.8471	1876.0349	4331.3	3444.25
920.9865	1877.6786	4323.7	3440.35
921.1259	1879.3215	4318.3	3434.25
921.2653	1880.9637	4317.25	3430.95
921.4046	1882.6051	4315.55	3434.65
921.5439	1884.2458	4298.25	3414.05
921.6832	1885.8858	4281.95	3396.65
921.8225	1887.525	4287.7	3403.15
921.9617	1889.1634	4256.55	3374.2
922.101	1890.8011	4254.35	3371.15
922.2402	1892.4381	4243.2	3361.9
922.3794	1894.0743	4248.45	3365.2
922.5185	1895.7098	4229.75	3344.1
922.6577	1897.3446	4218.75	3333.8
922.7968	1898.9786	4191.6	3303.4
922.9359	1900.6118	4217.45	3333.4
923.075	1902.2443	4177.8	3292.3
923.214	1903.8761	4171.2	3287.8
923.3531	1905.5071	4159.75	3273.45
923.4921	1907.1374	4161.75	3276.55
923.6311	1908.7669	4145.6	3263.55
923.77	1910.3957	4144.8	3261.65
923.909	1912.0237	4116.55	3233.8
924.0479	1913.651	4115.9	3233.65
924.1868	1915.2776	4099.5	3218.9
924.3257	1916.9034	4095	3212.35
924.4646	1918.5285	4070.65	3187.9
924.6034	1920.1528	4045	3161.5
924.7422	1921.7764	4066	3184
924.881	1923.3992	4052.85	3172.4
925.0198	1925.0213	4032.15	3148.3
925.1586	1926.6427	4019.4	3136.85
925.2973	1928.2633	4062.5	3112.15
925.436	1929.8832	4000.35	3115.5
925.5747	1931.5023	3980.4	3097
925.7134	1933.1207	3980.6	3095.75
925.852	1934.7383	3969.15	3085.65
925.9906	1936.3552	3953.5	3070.7
926.1292	1937.9714	3939.95	3056.85
926.2678	1939.5868	3938.85	3052.55
926.4064	1941.2015	3915.65	3030.25
926.5449	1942.8154	3899.8	3016.2
926.6834	1944.4286	3901.85	3018.2
926.8219	1946.041	3883.65	2976.2
926.9604	1947.6528	3870.7	2980.5
927.0988	1949.2637	3867	2983.05
927.2372	1950.8739	3850.85	2966.5
927.3756	1952.4834	3848.2	2963.5
927.514	1954.0921	3836.55	2953.55
927.6523	1955.7001	3833.5	2943.55
927.7907	1957.3074	3832.3	2949
927.929	1958.9139	3816.4	2932.85
928.0673	1960.5197	3793.55	2909.95
928.2055	1962.1247	3787.15	2904.4
928.3438	1963.729	3769.55	2888.35
928.482	1965.3325	3773.2	2866.8
928.6202	1966.9353	3753.2	2869.9
928.7584	1968.5374	3730.95	2847.85
928.8965	1970.1387	3728.95	2845.8
929.0346	1971.7393	3732.95	2849.6
929.1727	1973.3392	3709.65	2826.95
929.3108	1974.9383	3704.5	2823.6
929.4489	1976.5366	3684.25	2801.1
929.5869	1978.1342	3689.4	2805.45
929.7249	1979.7311	3682.05	2798.45
929.8629	1981.3273	3674.2	2791.6
930.0009	1982.9227	3666.95	2780.45
930.1388	1984.5173	3648.25	2765.55
930.2767	1986.1112	3651.9	2769.5
930.4146	1987.7044	3634.7	2753
930.5525	1989.2968	3620.3	2737.65
930.6904	1990.8885	3623.45	2736.45
930.8282	1992.4795	3603.3	2717.25
930.966	1994.0697	3594.2	2711.7
931.1038	1995.6592	3594.6	2709.65
931.2415	1997.2479	3575.4	2692.6
931.3793	1998.8359	3578.2	2695.5
931.517	2000.4232	3568	2687.8
931.6547	2002.0097	3561.9	2680.3
931.7923	2003.5955	3549.75	2667.55
931.93	2005.1805	3544.05	2661.55
932.0676	2006.7648	3534.55	2650.35
932.2052	2008.3484	3535.9	2653
932.3427	2009.9312	3527.55	2643.15
932.4803	2011.5133	3514.05	2632.6
932.6178	2013.0946	3516.75	2633.8
932.7553	2014.6752	3502.1	2620.95
932.8928	2016.2551	3499.5	2615.4
933.0302	2017.8342	3493.15	2612.75
933.1676	2019.4126	3483.1	2601.65
933.305	2020.9902	3469.4	2588
933.4424	2022.5672	3467.2	2581.4
933.5798	2024.1433	3460.9	2573.85
933.7171	2025.7188	3440.55	2560.1
933.8544	2027.2935	3440.65	2555.6
933.9917	2028.8674	3432.1	2550.35
934.129	2030.4406	3410.15	2529.4
934.2662	2032.0131	3413.2	2531.25
934.4034	2033.5849	3408	2521.2
934.5406	2035.1559	3409.35	2527.65
934.6778	2036.7261	3388.15	2507.05
934.8149	2038.2957	3381.55	2497.35
934.952	2039.8645	3370.75	2488.6
935.0891	2041.4325	3373.45	2487.95
935.2262	2042.9998	3374.5	2492.2
935.3632	2044.5664	3354.25	2468.05
935.5002	2046.1323	3345.05	2462.8
935.6372	2047.6974	3345.15	2461.9
935.7742	2049.2617	3338.2	2457.15
935.9111	2050.8254	3334.55	2447.45
936.048	2052.3883	3330.7	2447.1
936.1849	2053.9504	3317.5	2435.85
936.3218	2055.5118	3312.4	2428.9
936.4586	2057.0725	3285.35	2398.3
936.5955	2058.6325	3303.85	2421.4
936.7323	2060.1917	3295.25	2414.75
936.869	2061.7502	3287.75	2403
937.0058	2063.3079	3278.4	2396.25
937.1425	2064.8649	3272	2387.1
937.2792	2066.4212	3269.85	2387.4
937.4159	2067.9767	3246.6	2363.8
937.5525	2069.5315	3245.5	2364.2
937.6891	2071.0856	3222.45	2337.6
937.8257	2072.6389	3220.9	2338.3
937.9623	2074.1915	3216.65	2337
938.0989	2075.7433	3216.5	2331.7
938.2354	2077.2945	3211	2328.65
938.3719	2078.8448	3192.05	2309.3
938.5084	2080.3945	3174.6	2291.45
938.6448	2081.9434	3178.8	2296.9
938.7812	2083.4916	3177.55	2294.45
938.9176	2085.039	3168.75	2286.5
939.054	2086.5857	3168.1	2284.05
939.1903	2088.1317	3160	2277.35
939.3267	2089.677	3167.1	2280.75
939.463	2091.2215	3137.45	2254.8
939.5992	2092.7652	3136.25	2251.35
939.7355	2094.3083	3128.65	2246.55
939.8717	2095.8506	3134.1	2253.35
940.0079	2097.3921	3131.95	2252.05
940.1441	2098.933	3114.2	2229.7
940.2802	2100.4731	3115.6	2232.15
940.4163	2102.0124	3118	2228.55
940.5524	2103.5511	3105.6	2223.85
940.6885	2105.089	3097.95	2215.4
940.8245	2106.6261	3105.3	2221.8
940.9606	2108.1626	3094.45	2210.3
941.0965	2109.6983	3104.6	2193
941.2325	2111.2332	3088.25	2204.25
941.3684	2112.7675	3066.2	2180.6
941.5044	2114.301	3065	2178.4
941.6403	2115.8337	3066.4	2182.35
941.7761	2117.3657	3048.1	2166.3
941.912	2118.897	3047.15	2161.55
942.0478	2120.4276	3049.75	2160.65
942.1835	2121.9575	3038.45	2153.9
942.3193	2123.4866	3034.65	2146.15
942.455	2125.0149	3032.95	2148.05
942.5907	2126.5426	3011.65	2127.55
942.7264	2128.0695	3011.5	2124.95
942.8621	2129.5956	2984.15	2102.7
942.9977	2131.1211	2995.65	2107.55
943.1333	2132.6458	2992.65	2111.15
943.2689	2134.1698	2998.45	2115.7
943.4044	2135.693	2978.4	2093.35
943.54	2137.2155	2985.3	2100.1
943.6755	2138.7373	2971.05	2086.15
943.8109	2140.2584	2969	2085.15
943.9464	2141.7787	2957.4	2069.85
944.0818	2143.2983	2939.6	2057.85
944.2172	2144.8171	2945.1	2064.25
944.3526	2146.3353	2946.35	2062.15
944.4879	2147.8527	2907.45	2023.35
944.6232	2149.3693	2922.7	2038.45
944.7585	2150.8853	2925.95	2042.75
944.8938	2152.4005	2905.5	2023.4
945.029	2153.9149	2907.1	2022.9
945.1642	2155.4287	2986.25	1998.2
945.2994	2156.9417	2903.75	2018.4
945.4346	2158.454	2882.8	1998.3
945.5697	2159.9655	2881.05	1998.25
945.7048	2161.4764	2879.45	1995.15
945.8399	2162.9865	2864.4	1980.8
945.9749	2164.4958	2873.45	1990.7
946.1099	2166.0045	2858.25	1970.65
946.2449	2167.5124	2850	1968.25
946.3799	2169.0195	2837.3	1954.55
946.5148	2170.526	2850.9	1968.2
946.6498	2172.0317	2834.95	1951.95
946.7846	2173.5367	2841	1957.6
946.9195	2175.0409	2827.05	1944.75
947.0543	2176.5445	2831.1	1948.5
947.1891	2178.0473	2813.05	1930.45
947.3239	2179.5494	2816.35	1929.55
947.4587	2181.0507	2797.05	1914
947.5934	2182.5513	2787.9	1903.65
947.7281	2184.0512	2782.65	1898.35
947.8628	2185.5504	2781.5	1897.9
947.9974	2187.0488	2774.1	1891.45
948.132	2188.5465	2775.05	1891.15
948.2666	2190.0435	2762.6	1879.4
948.4012	2191.5397	2760.45	1879.65
948.5357	2193.0353	2751.95	1869.7
948.6702	2194.5301	2740.05	1855.25
948.8047	2196.0241	2742.2	1857.35
948.9392	2197.5175	2726.95	1842.35
949.0736	2199.0101	2724.85	1837.65
949.208	2200.502	2713.85	1829.65
949.3424	2201.9931	2699.9	1817.85
949.4767	2203.4835	2694.7	1808.5
949.611	2204.9733	2717.05	1816.8
949.7453	2206.4622	2694.7	1812.6
949.8796	2207.9505	2676.45	1792.6
950.0138	2209.438	2676.25	1794.4
950.148	2210.9248	2659.05	1773.9
950.2822	2212.4109	2669.25	1786.95
950.4164	2213.8962	2647.7	1761.7
950.5505	2215.3809	2655.05	1770.05
950.6846	2216.8648	2655.9	1770.75
950.8186	2218.3479	2642.2	1752.9
950.9527	2219.8304	2651.1	1764.45
951.0867	2221.3121	2623.5	1736.65
951.2207	2222.7931	2622.1	1738.1
951.3546	2224.2733	2622.35	1739.35
951.4886	2225.7529	2615.35	1733.95
951.6225	2227.2317	2603.05	1718.55
951.7563	2228.7098	2601.75	1715.55
951.8902	2230.1872	2583.65	1699.55
952.024	2231.6638	2589.8	1707.65
952.1578	2233.1397	2577.95	1691.4
952.2916	2234.6149	2568.3	1685.55
952.4253	2236.0894	2556.65	1672.7
952.559	2237.5632	2575.75	1691.65
952.6927	2239.0362	2562.65	1678.05
952.8263	2240.5085	2559.25	1675.95
952.9599	2241.9801	2546.85	1663.1
953.0935	2243.4509	2548.75	1666.5
953.2271	2244.921	2527.1	1640.9
953.3606	2246.3904	2531.05	1644.9
953.4941	2247.8591	2528.7	1647.05
953.6276	2249.3271	2517.05	1635.25
953.7611	2250.7943	2515.45	1631.4
953.8945	2252.2608	2506.65	1622.85
954.0279	2253.7266	2506.65	1622
954.1612	2255.1917	2486.05	1604.5
954.2946	2256.656	2485	1601.45
954.4279	2258.1197	2494.45	1612.55
954.5612	2259.5826	2488.55	1603.35
954.6944	2261.0447	2484.85	1600.85
954.8276	2262.5062	2473	1586.65
954.9608	2263.9669	2483.05	1597.55
955.094	2265.4269	2472.55	1590.35
955.2271	2266.8862	2472.6	1590.3
955.3602	2268.3448	2461.35	1576.45
955.4933	2269.8026	2450.45	1566.9
955.6264	2271.2598	2439.95	1557.6
955.7594	2272.7162	2434.25	1551.95
955.8924	2274.1719	2430.15	1545.9
956.0253	2275.6268	2435.5	1551.35
956.1583	2277.0811	2419.2	1535.15
956.2912	2278.5346	2416.2	1533.55
956.4241	2279.9874	2422.35	1538.65
956.5569	2281.4395	2408.75	1525.95
956.6897	2282.8908	2418.6	1529.25
956.8225	2284.3414	2413.05	1527
956.9553	2285.7914	2405.05	1521.8
957.088	2287.2406	2392.6	1507.3
957.2207	2288.689	2395.35	1512.35
957.3534	2290.1368	2383.25	1495.9
957.486	2291.5838	2388.6	1502.45
957.6186	2293.0302	2375.55	1490.85
957.7512	2294.4758	2380.4	1496.85
957.8838	2295.9206	2353.6	1466.9
958.0163	2297.3648	2359.3	1476.1
958.1488	2298.8082	2362.9	1480.35
958.2813	2300.251	2351	1467.1
958.4137	2301.693	2335.9	1449.05
958.5461	2303.1343	2350.55	1467.8
958.6785	2304.5748	2339.95	1454.4
958.8108	2306.0147	2339.2	1455.9
958.9432	2307.4538	2331.9	1446.75
959.0754	2308.8922	2331.2	1449.9
959.2077	2310.3299	2306.7	1423.35
959.3399	2311.7669	2316.35	1434.2
959.4721	2313.2031	2308	1423.75
959.6043	2314.6387	2296.45	1413.15
959.7365	2316.0735	2287.15	1403.65
959.8686	2317.5076	2302.2	1417.7
960.0006	2318.941	2299.85	1416.55
960.1327	2320.3737	2287	1402.2
960.2647	2321.8056	2295.7	1410.15
960.3967	2323.2369	2277	1394.25
960.5287	2324.6674	2272.6	1387.05
960.6606	2326.0972	2268.1	1382.65
960.7925	2327.5263	2268.15	1385
960.9244	2328.9547	2252.95	1368.9
961.0562	2330.3823	2259.95	1374.55
961.1881	2331.8092	2256.95	1369.9
961.3198	2333.2355	2243.15	1359.4
961.4516	2334.661	2243.55	1359.75
961.5833	2336.0858	2244.95	1359.4
961.715	2337.5098	2230	1346.25
961.8467	2338.9332	2226.65	1341.15
961.9783	2340.3558	2228.95	1342.8
962.1099	2341.7778	2222.65	1339.35
962.2415	2343.199	2220.55	1335.8
962.373	2344.6195	2203.85	1320.9
962.5045	2346.0393	2208.25	1326.4
962.636	2347.4583	2200.5	1316.8
962.7675	2348.8767	2209.3	1323.35
962.8989	2350.2943	2191	1306.95
963.0303	2351.7113	2182	1294.2
963.1617	2353.1275	2181.05	1294.7
963.293	2354.543	2198.9	1290.45
963.4243	2355.9578	2178.3	1292.45
963.5556	2357.3718	2165.8	1282.45
963.6868	2358.7852	2167.05	1280.15
963.818	2360.1978	2145.2	1260.95
963.9492	2361.6098	2152.85	1269.7
964.0803	2363.021	2154.4	1266.1
964.2114	2364.4315	2144.65	1260.6
964.3425	2365.8413	2134.55	1243
964.4736	2367.2504	2138	1255.05
964.6046	2368.6587	2132.9	1248.2
964.7356	2370.0664	2121.15	1238.85
964.8666	2371.4733	2108.55	1223.35
964.9975	2372.8795	2116.15	1233
965.1284	2374.285	2107.15	1221.9
965.2593	2375.6899	2095.95	1214.85
965.3901	2377.0939	2096.7	1213.05
965.5209	2378.4973	2076.8	1193.35
965.6517	2379.9	2088.3	1204.6
965.7825	2381.3019	2080.8	1196.65
965.9132	2382.7032	2080.55	1198.05
966.0439	2384.1037	2079.2	1198.6
966.1745	2385.5035	2074.75	1190.35
966.3051	2386.9027	2059.9	1175.1
966.4357	2388.3011	2051.8	1167.15
966.5663	2389.6987	2049.7	1166.2
966.6968	2391.0957	2048.55	1164.45
966.8273	2392.492	2040.95	1156.6
966.9578	2393.8876	2036.85	1154.75
967.0882	2395.2824	2024.55	1139.6
967.2186	2396.6765	2027	1144
967.349	2398.07	2020.35	1137.25
967.4793	2399.4627	2018.5	1132.85
967.6097	2400.8547	2019.9	1134.6
967.7399	2402.246	2009.2	1122.7
967.8702	2403.6366	2010.55	1126.25
968.0004	2405.0265	1987.75	1105.05
968.1306	2406.4156	1996.2	1107.5
968.2607	2407.8041	1991.55	1106.05
968.3909	2409.1918	1977.9	1091.5
968.521	2410.5789	1979.2	1094.15
968.651	2411.9652	1978	1092.8
968.781	2413.3508	1966.45	1083
968.911	2414.7358	1956.1	1070.8
969.041	2416.12	1963.55	1078.85
969.1709	2417.5035	1961.45	1076.65
969.3008	2418.8863	1960.9	1074.85
969.4307	2420.2684	1956.7	1072.85
969.5606	2421.6497	1937.95	1054.35
969.6904	2423.0304	1931.95	1049.1
969.8201	2424.4104	1936.65	1051.55
969.9499	2425.7896	1939.15	1052.75
970.0796	2427.1682	1926.2	1044.4
970.2093	2428.546	1928.3	1042
970.3389	2429.9232	1931.05	1046.6
970.4685	2431.2996	1921.95	1039.55
970.5981	2432.6753	1924.35	1042.7
970.7277	2434.0503	1916.75	1033.35
970.8572	2435.4246	1910.3	1025.55
970.9867	2436.7982	1907.4	1021.15
971.1161	2438.1711	1902.1	1018.8
971.2456	2439.5433	1905.45	1020.6
971.375	2440.9148	1911.5	1020.3
971.5043	2442.2856	1887.5	1003.4
971.6336	2443.6557	1897	1012.2
971.7629	2445.025	1875.7	991.1
971.8922	2446.3937	1890.95	1006.5
972.0214	2447.7617	1888.15	1003.2
972.1506	2449.1289	1879.65	994.55
972.2798	2450.4955	1873.5	985.15
972.4089	2451.8613	1862.6	980.7
972.538	2453.2265	1864.2	980.05
972.6671	2454.5909	1870.25	987.65
972.7961	2455.9546	1855.8	972.95
972.9251	2457.3177	1855.95	972.2
973.0541	2458.68	1844	957.25
973.1831	2460.0416	1855	971.3
973.312	2461.4025	1847.2	962.4
973.4408	2462.7627	1862.4	966.95
973.5697	2464.1222	1849.25	966.1
973.6985	2465.4811	1842.45	957.8
973.8273	2466.8392	1833.25	948.95
973.956	2468.1966	1831.65	945.85
974.0847	2469.5533	1833.6	948.1
974.2134	2470.9093	1828.15	944.1
974.3421	2472.2645	1826.6	944.15
974.4707	2473.6191	1826.75	943.35
974.5993	2474.973	1824.2	939.55
974.7278	2476.3262	1821.2	937.7
974.8563	2477.6787	1806.95	922.2
974.9848	2479.0305	1808.85	926.1
975.1132	2480.3816	1808.15	922.8
975.2417	2481.7319	1802.3	918.65
975.37	2483.0816	1796.9	911.6
975.4984	2484.4306	1800.55	916.9
975.6267	2485.7789	1791.65	908.4
975.755	2487.1264	1784.25	897.75
975.8833	2488.4733	1781.85	899.15
976.0115	2489.8195	1796.45	896.3
976.1397	2491.165	1787	901.75
976.2678	2492.5097	1777.25	893.5
976.3959	2493.8538	1768.15	884.2
976.524	2495.1972	1774.4	890.85
976.6521	2496.5398	1759.15	874.35
976.7801	2497.8818	1757.6	870.8
976.9081	2499.2231	1761.8	878.1
977.036	2500.5637	1758.35	872.15
977.164	2501.9035	1749.55	864.25
977.2918	2503.2427	1748.6	861.4
977.4197	2504.5812	1743.8	859
977.5475	2505.919	1749.45	864.4
977.6753	2507.256	1744.55	862.35
977.8031	2508.5924	1743.05	861.85
977.9308	2509.9281	1747.4	856.95
978.0585	2511.2631	1724.8	840.65
978.1861	2512.5974	1724.3	842.5
978.3137	2513.9309	1726.45	842.2
978.4413	2515.2638	1742.7	831.65
978.5689	2516.596	1717.3	834.8
978.6964	2517.9275	1714	829.65
978.8239	2519.2583	1717.45	832.2
978.9513	2520.5884	1713.7	827.85
979.0788	2521.9178	1705.3	820.9
979.2062	2523.2465	1702.6	818.75
979.3335	2524.5745	1700.75	817.65
979.4608	2525.9018	1693.5	810.05
979.5881	2527.2284	1691.6	808.3
979.7154	2528.5543	1692.6	810.4
979.8426	2529.8796	1688.7	804.65
979.9698	2531.2041	1686.7	802.5
980.0969	2532.5279	1685.6	803.2
980.224	2533.851	1679.1	795.4
980.3511	2535.1735	1678.45	796.6
980.4781	2536.4952	1673.8	789.15
980.6052	2537.8163	1675.55	792.8
980.7321	2539.1366	1671.75	789.05
980.8591	2540.4562	1668.15	782.25
980.986	2541.7752	1669.25	785.7
981.1129	2543.0935	1672	788.4
981.2397	2544.411	1669.05	783.9
981.3665	2545.7279	1663.35	779.45
981.4933	2547.0441	1667.8	783.65
981.62	2548.3596	1656.95	771.1
981.7467	2549.6744	1655.8	772.65
981.8734	2550.9885	1661.75	774.95
982.0001	2552.3019	1647.9	763.35
982.1267	2553.6146	1655.65	772.2
982.2532	2554.9266	1639.95	755.6
982.3798	2556.2379	1641.7	754.35
982.5063	2557.5485	1641.95	758.4
982.6327	2558.8585	1655.75	763.75
982.7592	2560.1677	1643.9	755.6
982.8856	2561.4762	1644.2	761.55
983.0119	2562.7841	1649.1	760.4
983.1383	2564.0913	1630.35	749.3
983.2646	2565.3977	1638.75	754.05
983.3908	2566.7035	1624.7	739.45
983.517	2568.0086	1631.4	745.25
983.6432	2569.313	1630.8	745.75
983.7694	2570.6167	1628.85	740.55
983.8955	2571.9197	1627.8	743.55
984.0216	2573.222	1623.25	737.85
984.1476	2574.5236	1623.7	740.45
984.2737	2575.8246	1620.4	734.45
984.3996	2577.1248	1614.45	726.5
984.5256	2578.4244	1611.65	726.65
984.6515	2579.7232	1611.75	726.8
984.7774	2581.0214	1636.35	721.8
984.9032	2582.3189	1603.5	719.5
985.029	2583.6157	1611.55	717.35
985.1548	2584.9118	1598.95	715.85
985.2806	2586.2072	1608.7	725.2
985.4063	2587.5019	1605.8	723.25
985.5319	2588.7959	1591.65	704.95
985.6576	2590.0893	1597.4	712.45
985.7832	2591.3819	1594.95	711.25
985.9087	2592.6739	1584.85	700.9
986.0343	2593.9652	1588.15	703.8
986.1597	2595.2557	1587	703.05
986.2852	2596.5456	1587.25	702.05
986.4106	2597.8348	1585.25	700.9
986.536	2599.1234	1571.6	689.05
986.6614	2600.4112	1571.5	687.1
986.7867	2601.6983	1571.9	685.6
986.912	2602.9848	1561.65	677.4
987.0372	2604.2705	1570.95	681
987.1624	2605.5556	1568.25	683.8
987.2876	2606.84	1562.75	680.5
987.4128	2608.1237	1562.25	675.6
987.5379	2609.4067	1558.95	675.05
987.6629	2610.689	1561.7	671.15
987.788	2611.9707	1558.45	671.2
987.913	2613.2516	1549.1	662.1
988.0379	2614.5319	1539.75	656.2
988.1629	2615.8115	1541.55	658.9
988.2878	2617.0903	1540.65	656.25
988.4126	2618.3685	1535.2	652.45
988.5375	2619.6461	1527.25	643.75
988.6622	2620.9229	1533.1	649.85
988.787	2622.199	1528.9	645.85
988.9117	2623.4745	1531.9	648.05
989.0364	2624.7493	1516.25	633.45
989.161	2626.0234	1515.9	632.25
989.2857	2627.2968	1522.85	641
989.4102	2628.5695	1517	633.4
989.5348	2629.8415	1509.15	625.5
989.6593	2631.1128	1508.7	623.95
989.7837	2632.3835	1501.75	616.95
989.9082	2633.6535	1513.35	630.1
990.0326	2634.9228	1500.6	618.4
990.1569	2636.1914	1506.4	624.75
990.2812	2637.4593	1496.05	610.7
990.4055	2638.7265	1492.3	609.3
990.5298	2639.9931	1496.9	614.9
990.654	2641.259	1496.4	612.5
990.7782	2642.5242	1490.85	607.15
990.9023	2643.7887	1491.95	608.15
991.0264	2645.0525	1490.05	606.15
991.1505	2646.3156	1501.6	603.4
991.2745	2647.5781	1481.15	598.55
991.3985	2648.8398	1485.65	603.65
991.5225	2650.1009	1503.35	595.8
991.6464	2651.3613	1473.7	590.45
991.7703	2652.6211	1476.9	594.1
991.8942	2653.8801	1468.75	587.25
992.018	2655.1385	1473.2	587.1
992.1418	2656.3961	1473.8	590.25
992.2655	2657.6531	1467.7	584.45
992.3892	2658.9094	1471.6	588.05
992.5129	2660.1651	1466.8	583.55
992.6366	2661.42	1468.4	585
992.7602	2662.6743	1463.95	579.7
992.8837	2663.9279	1467.5	585.5
993.0073	2665.1808	1458.4	574.4
993.1307	2666.433	1463.3	579.85
993.2542	2667.6846	1453.55	571.7
993.3776	2668.9354	1458.4	573
993.501	2670.1856	1449.8	564.25
993.6244	2671.4351	1455.55	572.3
993.7477	2672.6839	1448.95	565.35
993.8709	2673.9321	1441.05	558.5
993.9942	2675.1795	1442.1	558.45
994.1174	2676.4263	1441.5	559.15
994.2405	2677.6724	1443.65	561.9
994.3637	2678.9179	1437.25	555.05
994.4868	2680.1626	1437.5	554.65
994.6098	2681.4067	1437.35	553.6
994.7328	2682.6501	1434.85	549.65
994.8558	2683.8928	1435.85	552.85
994.9788	2685.1348	1432.8	549.9
995.1017	2686.3761	1430.65	549.7
995.2245	2687.6168	1428.1	544.85
995.3474	2688.8568	1431.35	546.35
995.4702	2690.0961	1423.3	540.75
995.5929	2691.3348	1419.1	537.55
995.7156	2692.5727	1412.05	527.65
995.8383	2693.81	1418.15	535.7
995.961	2695.0466	1413.65	532.5
996.0836	2696.2826	1414.9	530.5
996.2062	2697.5178	1418	531.35
996.3287	2698.7524	1410.65	527.85
996.4512	2699.9863	1416.8	532.6
996.5737	2701.2195	1407.7	527.65
996.6961	2702.452	1407.8	523.1
996.8185	2703.6839	1407.5	523.1
996.9408	2704.9151	1408.45	525.5
997.0631	2706.1456	1405.75	520.9
997.1854	2707.3755	1399.95	515.95
997.3077	2708.6046	1407	521.35
997.4299	2709.8331	1403.85	519.6
997.552	2711.0609	1399.65	516.05
997.6742	2712.2881	1400.5	518.45
997.7963	2713.5145	1406.05	518.75
997.9183	2714.7403	1392.65	510.4
998.0403	2715.9654	1403.3	520.4
998.1623	2717.1899	1414.5	515.8
998.2842	2718.4136	1411.4	527.25
998.4062	2719.6367	1409.7	527.2
998.528	2720.8591	1410.6	520.95
998.6498	2722.0809	1412.45	531.05
998.7716	2723.3019	1404.9	517.75
998.8934	2724.5223	1398.35	515
999.0151	2725.7421	1401.8	516.8
999.1368	2726.9611	1403.05	517.8
999.2584	2728.1795	1398.85	511.9
999.38	2729.3972	1398.6	516.15
999.5016	2730.6142	1401.5	510.1
999.6231	2731.8306	1384.05	500.85
999.7446	2733.0462	1384.8	497.75
999.8661	2734.2612	1379.9	494.75
999.9875	2735.4756	1368.7	483.6
1000.1089	2736.6892	1365.55	483.4
1000.2302	2737.9022	1365.65	482.35
1000.3515	2739.1145	1356.05	472.2
1000.4728	2740.3262	1363.85	472.9
1000.594	2741.5372	1353.7	471.5
1000.7152	2742.7475	1347.3	466.4
1000.8363	2743.9571	1354.65	470.7
1000.9575	2745.1661	1350.35	464.35
1001.0785	2746.3744	1341.05	458
1001.1996	2747.582	1338.7	456.5
1001.3206	2748.7889	1336.65	450.05
1001.4415	2749.9952	1331.55	449.55
1001.5625	2751.2008	1323.1	437.85
1001.6833	2752.4057	1334.35	450.5
1001.8042	2753.61	1324	438.7
1001.925	2754.8136	1329.45	446.1
1002.0458	2756.0165	1319.6	437.45
1002.1665	2757.2188	1323.8	440.9
1002.2872	2758.4204	1323.35	440
1002.4078	2759.6213	1321.3	435
1002.5285	2760.8215	1324.6	437.65
1002.649	2762.0211	1309.7	425.05
1002.7696	2763.22	1316.2	430.7
1002.8901	2764.4182	1312.55	429.35
1003.0106	2765.6158	1310.9	427.65
1003.131	2766.8127	1305.6	422.85
1003.2514	2768.009	1307.9	425.2
1003.3717	2769.2045	1308.45	425.4
1003.492	2770.3994	1306.25	422.45
1003.6123	2771.5936	1298.25	412.95
1003.7325	2772.7872	1290.85	409.1
1003.8527	2773.9801	1298.25	413.15
1003.9729	2775.1723	1307.8	406.6
1004.093	2776.3639	1293.65	410.5
1004.2131	2777.5548	1292.9	407.9
1004.3331	2778.745	1290.05	407.05
1004.4531	2779.9346	1285.45	402.4
1004.5731	2781.1235	1287.9	405.65
1004.693	2782.3117	1288.4	405.1
1004.8129	2783.4992	1287.4	405.15
1004.9328	2784.6861	1280.5	399.15
1005.0526	2785.8723	1285.8	401.55
1005.1723	2787.0579	1282.15	398.2
1005.2921	2788.2428	1279.3	396.6
1005.4118	2789.427	1284.95	401.55
1005.5314	2790.6106	1277.25	396.2
1005.651	2791.7935	1280.4	395.8
1005.7706	2792.9757	1280.35	397.55
1005.8902	2794.1573	1277.6	391.4
1006.0097	2795.3382	1279.65	397.5
1006.1291	2796.5184	1278	397.55
1006.2485	2797.698	1279.95	395.25
1006.3679	2798.8769	1277.8	394.15
1006.4873	2800.0551	1277.5	394.05
1006.6066	2801.2327	1284.9	399.4
1006.7258	2802.4096	1281.55	397.7
1006.8451	2803.5859	1285.1	400.65
1006.9642	2804.7615	1279.4	396.25
1007.0834	2805.9364	1281.95	400.9
1007.2025	2807.1106	1292	408.6
1007.3216	2808.2842	1295.65	414.2
1007.4406	2809.4572	1296.9	415.65
1007.5596	2810.6294	1298.1	413.5
1007.6785	2811.801	1302.8	423.15
1007.7975	2812.972	1310.45	427.4
1007.9163	2814.1423	1316	432.75
1008.0352	2815.3119	1328.25	444.55
1008.154	2816.4808	1332.1	450.35
1008.2727	2817.6491	1339.5	456
1008.3914	2818.8167	1347.8	467.05
1008.5101	2819.9837	1354.5	468.45
1008.6288	2821.15	1358.25	476.45
1008.7474	2822.3157	1374.7	492.55
1008.8659	2823.4807	1377.45	493.85
1008.9844	2824.645	1404.25	520.05
1009.1029	2825.8086	1400.85	520.5
1009.2214	2826.9716	1420.25	537.15
1009.3398	2828.134	1423.65	540.15
1009.4581	2829.2957	1435.05	552.55
1009.5764	2830.4567	1441.05	559.1
1009.6947	2831.617	1438.2	553.8
1009.813	2832.7767	1449.6	567.8
1009.9312	2833.9358	1442.55	559.75
1010.0493	2835.0941	1443.05	558.8
1010.1675	2836.2519	1430.25	549.15
1010.2855	2837.4089	1427.65	547.25
1010.4036	2838.5653	1425.15	542.35
1010.5216	2839.7211	1430.05	548.7
1010.6396	2840.8761	1423.65	539
1010.7575	2842.0306	1416.65	534.3
1010.8754	2843.1843	1435.35	555
1010.9932	2844.3374	1434.05	552.15
1011.111	2845.4899	1442.55	559.35
1011.2288	2846.6417	1446.55	565.15
1011.3465	2847.7928	1459.55	577.75
1011.4642	2848.9433	1460.6	578.05
1011.5818	2850.0931	1477.75	596.6
1011.6995	2851.2422	1489.65	604.8
1011.817	2852.3907	1496.1	613.2
1011.9345	2853.5385	1502.7	620.1
1012.052	2854.6857	1521.05	630.15
1012.1695	2855.8323	1521.15	640.1
1012.2869	2856.9781	1523.35	641.8
1012.4042	2858.1233	1536	653
1012.5216	2859.2679	1540.75	658.65
1012.6389	2860.4118	1549	664.9
1012.7561	2861.555	1560.35	673.8
1012.8733	2862.6976	1570.15	686
1012.9905	2863.8395	1571.1	687.9
1013.1076	2864.9808	1575.5	693.65
1013.2247	2866.1214	1576.2	696.85
1013.3417	2867.2614	1574.9	691.7
1013.4587	2868.4007	1577.5	694.1
1013.5757	2869.5393	1588	705
1013.6926	2870.6773	1592	708.05
1013.8095	2871.8146	1592.95	708
1013.9263	2872.9513	1590.8	705.85
1014.0431	2874.0874	1582.85	700.35
1014.1599	2875.2227	1584.75	701.2
1014.2766	2876.3574	1580.1	698.15
1014.3933	2877.4915	1573.35	691.15
1014.51	2878.6249	1565.05	683.35
1014.6266	2879.7577	1556.75	672.7
1014.7431	2880.8898	1567.55	674.25
1014.8596	2882.0212	1556.8	675.5
1014.9761	2883.152	1550.3	667.15
1015.0925	2884.2821	1548.8	668.5
1015.2089	2885.4116	1542.7	661.95
1015.3253	2886.5405	1551.15	669.7
1015.4416	2887.6686	1549.8	666
1015.5579	2888.7962	1548.8	667.55
1015.6741	2889.923	1556.7	676.7
1015.7903	2891.0493	1559.65	678.8
1015.9065	2892.1748	1560.75	676.65
1016.0226	2893.2997	1553.5	670.5
1016.1387	2894.424	1560	678.55
1016.2547	2895.5476	1551.4	669.75
1016.3707	2896.6706	1557.7	676.9
1016.4866	2897.7929	1561.45	678.5
1016.6025	2898.9145	1568.55	686.65
1016.7184	2900.0355	1568.15	686.05
1016.8342	2901.1559	1568.85	686.45
1016.95	2902.2756	1582.45	701.3
1017.0658	2903.3946	1575.9	693.3
1017.1815	2904.513	1589.55	704.45
1017.2971	2905.6308	1588.3	707.1
1017.4127	2906.7479	1585.2	702.8
1017.5283	2907.8643	1595.2	713.1
1017.6439	2908.9801	1594.6	711.55
1017.7594	2910.0953	1589.75	708.15
1017.8748	2911.2098	1589.2	706.35
1017.9902	2912.3236	1591.85	700.85
1018.1056	2913.4368	1584.8	700.4
1018.2209	2914.5494	1577.45	696.4
1018.3362	2915.6613	1571.75	684.1
1018.4515	2916.7725	1566.3	682.7
1018.5667	2917.8831	1554.35	672.45
1018.6819	2918.9931	1552.2	667.6
1018.797	2920.1024	1544.85	661.1
1018.9121	2921.211	1541.9	658.35
1019.0271	2922.319	1539.35	657.75
1019.1421	2923.4264	1528.25	645.5
1019.2571	2924.5331	1531.95	651
1019.372	2925.6391	1516.4	634.5
1019.4869	2926.7445	1519.45	636.75
1019.6017	2927.8493	1526.15	643.95
1019.7165	2928.9534	1527.25	643.4
1019.8313	2930.0569	1529.6	643.9
1019.946	2931.1597	1526.55	645.15
1020.0606	2932.2619	1525.95	643.8
1020.1753	2933.3634	1520.2	636.9
1020.2899	2934.4643	1534.1	644.8
1020.4044	2935.5645	1520.05	630
1020.5189	2936.6641	1520.1	630.5
1020.6334	2937.763	1513.95	631.35
1020.7478	2938.8613	1509.4	626.7
1020.8622	2939.959	1511.45	623.75
1020.9765	2941.056	1489.95	609.85
1021.0908	2942.1523	1474.2	590
1021.2051	2943.248	1465.55	585
1021.3193	2944.3431	1451.85	569.95
1021.4334	2945.4375	1432.15	549.6
1021.5476	2946.5313	1407.6	526.7
1021.6617	2947.6244	1391.25	510.4
1021.7757	2948.7169	1370.35	488.4
1021.8897	2949.8087	1354.7	472.85
1022.0037	2950.8999	1339.6	457
1022.1176	2951.9904	1330.55	448.05
1022.2315	2953.0803	1317.55	436.35
1022.3453	2954.1696	1300.7	418.8
1022.4591	2955.2582	1285.85	405.95
1022.5728	2956.3462	1286.6	402.85
1022.6865	2957.4335	1273.6	391.25
1022.8002	2958.5202	1271.4	388.3
1022.9138	2959.6062	1263.8	380.3
1023.0274	2960.6916	1262.1	381.5
1023.141	2961.7764	1257.35	375.25
1023.2545	2962.8605	1249.55	365.7
1023.3679	2963.9439	1253.2	373.35
1023.4813	2965.0267	1245.4	360.2
1023.5947	2966.1089	1270.55	364.25
1023.708	2967.1905	1240.7	357.65
1023.8213	2968.2714	1247.45	366.35
1023.9346	2969.3516	1242.25	361.6
1024.0478	2970.4312	1250	358.75
1024.1609	2971.5102	1241.45	359.9
1024.274	2972.5885	1242.75	361.85
1024.3871	2973.6662	1246.85	360.7
1024.5002	2974.7432	1249	368.65
1024.6132	2975.8196	1242.75	359.85
1024.7261	2976.8954	1243.2	361.15
1024.839	2977.9705	1246.15	364.75
1024.9519	2979.045	1234.95	351.35
1025.0647	2980.1188	1229.7	349.55
1025.1775	2981.192	1237.3	356.65
1025.2902	2982.2645	1225.85	343.3
1025.4029	2983.3364	1222.5	340.55
1025.5156	2984.4077	1212.65	329.2
1025.6282	2985.4783	1218.3	331.15
1025.7407	2986.5483	1203.35	321.95
1025.8532	2987.6177	1195.9	312.85
1025.9657	2988.6864	1194.1	311.3
1026.0782	2989.7545	1185.15	300.35
1026.1906	2990.8219	1174.9	293.4
1026.3029	2991.8887	1171.75	288.65
1026.4152	2992.9548	1163.15	280.3
1026.5275	2994.0204	1156.5	276.4
1026.6397	2995.0852	1151.25	269.8
1026.7519	2996.1495	1145.35	262.8
1026.864	2997.2131	1135.6	253.5
1026.9761	2998.276	1131.4	246.6
1027.0882	2999.3383	1129.8	247.85
1027.2002	3000.4	1122.2	238.55
1027.3122	3001.4611	1118.4	236.05
1027.4241	3002.5215	1114.4	230.85
1027.536	3003.5812	1111.35	229.3
1027.6478	3004.6404	1109	227.05
1027.7596	3005.6989	1101.15	215.4
1027.8714	3006.7567	1099.55	219
1027.9831	3007.8139	1116.15	213.9
1028.0947	3008.8705	1093.3	212.5
1028.2064	3009.9264	1108.15	208.4
1028.3179	3010.9818	1091.6	211.1
1028.4295	3012.0364	1090.9	205.9
1028.541	3013.0905	1088.15	205.8
1028.6524	3014.1439	1088.25	204.35
1028.7638	3015.1966	1087.15	206
1028.8752	3016.2487	1083.5	200.4
1028.9865	3017.3002	1088.05	201.55
1029.0978	3018.3511	1078.9	199.7
1029.209	3019.4013	1080.4	197.95
1029.3202	3020.4509	1079.05	198.9
1029.4314	3021.4998	1076.65	192.9
1029.5425	3022.5481	1073.3	191.55
1029.6535	3023.5958	1079.75	197.8
1029.7645	3024.6428	1076.65	192.05
1029.8755	3025.6892	1073.5	192.2
1029.9864	3026.735	1073.4	192.25
1030.0973	3027.7802	1070.4	186.55
1030.2082	3028.8247	1071.25	190.95
1030.319	3029.8685	1074	191.1
1030.4297	3030.9118	1067.3	185.1
1030.5404	3031.9544	1072.65	190.6
1030.6511	3032.9963	1068.85	186.9
1030.7617	3034.0376	1070.1	188.45
1030.8723	3035.0783	1068.75	182.8
1030.9829	3036.1184	1071.95	188.75
1031.0934	3037.1578	1068.85	188.4
1031.2038	3038.1966	1074.15	192.65
1031.3142	3039.2348	1066.1	186.65
1031.4246	3040.2723	1077	186.1
1031.5349	3041.3092	1069.95	190.3
1031.6452	3042.3455	1065	183.4
1031.7554	3043.3811	1064.5	181
1031.8656	3044.4161	1064.35	182.9
1031.9758	3045.4505	1061.05	180.1
1032.0859	3046.4842	1069.55	186.05
1032.1959	3047.5173	1063.1	182.75
1032.3059	3048.5498	1063.8	180.6
1032.4159	3049.5816	1062.3	179.4
1032.5258	3050.6128	1059.3	174.7
1032.6357	3051.6434	1064.15	180.35
1032.7455	3052.6734	1060.85	178.4
1032.8553	3053.7027	1060.45	179
1032.9651	3054.7314	1056.4	175.85
1033.0748	3055.7594	1055.25	174.75
1033.1845	3056.7868	1056.95	173.8
1033.2941	3057.8136	1052.75	171.1
1033.4037	3058.8398	1050.7	169.85
1033.5132	3059.8653	1055.5	174.65
1033.6227	3060.8902	1057.1	175.25
1033.7321	3061.9145	1053	171.1
1033.8415	3062.9381	1050.9	169.4
1033.9509	3063.9612	1063.8	166.55
1034.0602	3064.9835	1047.45	165.85
1034.1694	3066.0053	1050.05	166.1
1034.2787	3067.0264	1050.8	167.35
1034.3878	3068.0469	1049.1	164.75
1034.497	3069.0668	1045.8	160.1
1034.6061	3070.086	1042.55	162.05
1034.7151	3071.1046	1044.1	159.9
1034.8241	3072.1226	1042.6	160.55
1034.9331	3073.1399	1034.65	153.25
1035.042	3074.1567	1038.4	155.9
1035.1508	3075.1727	1037.85	153.95
1035.2597	3076.1882	1034.55	152
1035.3684	3077.203	1033.4	152.55
1035.4772	3078.2173	1032.8	150.2
1035.5859	3079.2308	1034.15	147.65
1035.6945	3080.2438	1034.8	149.55
1035.8031	3081.2561	1023.6	140.65
1035.9117	3082.2678	1024.7	143.45
1036.0202	3083.2789	1024.5	145
1036.1286	3084.2893	1021.8	141.65
1036.2371	3085.2991	1025	144.25
1036.3454	3086.3083	1022.9	137.75
1036.4538	3087.3169	1020.85	137
1036.562	3088.3248	1019.75	134.85
1036.6703	3089.3321	1016.75	133
1036.7785	3090.3388	1014.3	134.2
1036.8866	3091.3449	1012.45	130.3
1036.9948	3092.3503	1014.75	128.75
1037.1028	3093.3551	1011.3	130.65
1037.2108	3094.3593	1011.65	130.6
1037.3188	3095.3629	1011.05	131.1
1037.4267	3096.3658	1012.85	131.8
1037.5346	3097.3681	1007.5	127.15
1037.6425	3098.3698	1006.65	122.95
1037.7503	3099.3708	1009.35	123.4
1037.858	3100.3713	1004.85	124.3
1037.9657	3101.3711	1004	121.95
1038.0734	3102.3702	1138.9	118.15
1038.181	3103.3688	1005.95	123.4
1038.2886	3104.3667	998.9	118.1
1038.3961	3105.364	1002.75	122.55
1038.5036	3106.3607	1002	118.2
1038.611	3107.3568	1002.6	117
1038.7184	3108.3522	996.4	115.85
1038.8257	3109.347	999.65	116.7
1038.933	3110.3412	997.35	113.45
1039.0403	3111.3348	994.75	112.1
1039.1475	3112.3277	993.15	110.95
1039.2547	3113.32	993.4	111.9
1039.3618	3114.3117	993.25	110
1039.4689	3115.3028	992.65	111.4
1039.5759	3116.2932	992.3	107.85
1039.6829	3117.2831	993.2	106.35
1039.7898	3118.2723	991.75	109.95
1039.8967	3119.2608	988.3	105.4
1040.0035	3120.2488	990.1	108.4
1040.1103	3121.2361	989.5	108.45
1040.2171	3122.2229	988.6	103.4
1040.3238	3123.209	986.7	104
1040.4305	3124.1944	987.05	103.2
1040.5371	3125.1793	986	100.8
1040.6437	3126.1635	983.3	101.2
1040.7502	3127.1471	984.55	102.95
1040.8567	3128.1301	984.45	103
1040.9631	3129.1125	980.35	98.35
1041.0695	3130.0942	983.1	102.15
1041.1759	3131.0753	989.35	95.65
1041.2822	3132.0558	984	99.3
1041.3884	3133.0357	983.05	101.6
1041.4946	3134.015	977.3	93.35
1041.6008	3134.9936	979.4	95.05
1041.7069	3135.9716	995.3	92.5
1041.813	3136.949	979.25	96.3
1041.919	3137.9258	999.7	97.25
1042.025	3138.902	987.55	99.2
1042.1309	3139.8775	977.55	96.15
1042.2368	3140.8524	976.2	96.15
1042.3427	3141.8267	974.75	89
1042.4485	3142.8004	974	92.9
1042.5542	3143.7735	980.85	93.85
1042.6599	3144.7459	975.55	90.55
1042.7656	3145.7178	976.55	93.2
1042.8712	3146.689	970.55	90.3
1042.9768	3147.6596	977.8	91.5
1043.0823	3148.6295	974.4	93.3
1043.1878	3149.5989	971	88.5
1043.2932	3150.5676	969.5	89.35
1043.3986	3151.5357	969.75	89.3
1043.5039	3152.5032	968.15	87.45
1043.6092	3153.4701	968.7	89.3
1043.7145	3154.4364	969.9	84.3
1043.8197	3155.402	970.15	90.95
1043.9248	3156.367	967.65	83.45
1044.03	3157.3315	989.15	88.9
1044.135	3158.2952	965.2	82.55
1044.24	3159.2584	967.55	84.2
1044.345	3160.221	964.2	83.1
1044.4499	3161.1829	964.55	82.4
1044.5548	3162.1442	965.75	83.45
1044.6596	3163.105	965.6	84.05
1044.7644	3164.065	963.2	82.55
1044.8692	3165.0245	965.2	81.2
1044.9739	3165.9834	963.2	83.8
1045.0785	3166.9416	965.15	84.3
1045.1831	3167.8993	964.6	83.7
1045.2877	3168.8563	960.85	76.8
1045.3922	3169.8127	959.8	76.6
1045.4966	3170.7684	960.6	78.65
1045.6011	3171.7236	962.15	79.2
1045.7054	3172.6782	958.75	76.45
1045.8098	3173.6321	962.15	77.85
1045.914	3174.5854	962.6	77.65
1046.0183	3175.5381	958.4	77.65
1046.1224	3176.4902	957.5	75.35
1046.2266	3177.4417	959.05	77.9
1046.3307	3178.3926	955.75	71.85
1046.4347	3179.3428	957.55	76.75
1046.5387	3180.2924	955.85	76.2
1046.6427	3181.2415	957.25	74.8
1046.7466	3182.1899	956.65	74.2
1046.8504	3183.1377	954.15	70.65
1046.9542	3184.0848	957.55	72.35
1047.058	3185.0314	953	70.8
1047.1617	3185.9773	951	68
1047.2654	3186.9227	953.9	70.25
1047.369	3187.8674	953.25	71.25
1047.4726	3188.8115	954.35	68.3
1047.5761	3189.755	950	69
1047.6796	3190.6979	951.15	69.55
1047.783	3191.6402	951.35	69.9
1047.8864	3192.5818	952.15	70.75
1047.9898	3193.5229	958	67.9
1048.0931	3194.4633	948.95	68.1
1048.1963	3195.4031	949.95	67.8
1048.2995	3196.3423	951.35	68.2
1048.4027	3197.2809	949.85	69.25
1048.5058	3198.2189	950.9	66.4
1048.6089	3199.1563	954.9	67.75
1048.7119	3200.0931	946.8	64.15
1048.8148	3201.0292	947.2	66.85
1048.9178	3201.9648	948.7	65.85
1049.0206	3202.8997	950.45	64.2
1049.1235	3203.834	945.2	66.25
1049.2262	3204.7677	944	62.05
1049.329	3205.7008	948.3	64.65
1049.4317	3206.6333	945.15	66.2
1049.5343	3207.5652	950.5	65.4
1049.6369	3208.4964	943.3	61.15
1049.7394	3209.4271	946.45	64.2
1049.8419	3210.3571	943.05	61.55
1049.9444	3211.2865	944.65	62.75
1050.0468	3212.2154	944.1	61
1050.1491	3213.1436	948.25	64.1
1050.2514	3214.0712	949.6	59.65
1050.3537	3214.9982	944.65	62.5
1050.4559	3215.9246	944.7	63.05
1050.5581	3216.8503	942.1	61.4
1050.6602	3217.7755	944.15	62.4
1050.7623	3218.7001	941.7	59.3
1050.8643	3219.624	943.35	60.45
1050.9663	3220.5473	943.05	63.4
1051.0682	3221.4701	941.2	58.35
1051.1701	3222.3922	942.15	59.1
1051.2719	3223.3137	940.35	59.35
1051.3737	3224.2346	940.75	59.1
1051.4754	3225.1549	943.05	62.85
1051.5771	3226.0746	938.8	56.3
1051.6788	3226.9937	941.35	60.05
1051.7804	3227.9121	939.5	57.95
1051.8819	3228.83	937.9	56.85
1051.9834	3229.7473	938.25	55.55
1052.0849	3230.6639	939.8	55.8
1052.1863	3231.5799	938.8	57.65
1052.2876	3232.4954	938.25	54.4
1052.3889	3233.4102	939.1	58.05
1052.4902	3234.3244	936.45	54.75
1052.5914	3235.238	935.45	53.65
1052.6926	3236.151	962.8	56.1
1052.7937	3237.0634	934.2	54.05
1052.8948	3237.9752	933.7	53.6
1052.9958	3238.8864	933	51
1053.0968	3239.797	933.75	53.5
1053.1977	3240.7069	935.6	52.9
1053.2986	3241.6163	934.3	52.3
1053.3994	3242.5251	933.6	51.55
1053.5002	3243.4332	932.65	52.1
1053.6009	3244.3408	931.95	50.8
1053.7016	3245.2477	929.8	47.85
1053.8022	3246.154	931.5	47.6
1053.9028	3247.0598	932.45	48.8
1054.0034	3247.9649	933	52.65
1054.1039	3248.8694	932.05	47.8
1054.2043	3249.7733	930.1	47.85
1054.3047	3250.6766	929.85	48.8
1054.4051	3251.5793	930.9	48.15
1054.5054	3252.4814	928.3	45.65
1054.6056	3253.3829	926.65	46.1
1054.7058	3254.2838	928.2	47.45
1054.806	3255.1841	928.6	49
1054.9061	3256.0838	928.2	45.85
1055.0061	3256.9829	928.5	47.7
1055.1062	3257.8814	928.6	43.95
1055.2061	3258.7792	928.55	45.9
1055.306	3259.6765	927.45	46.55
1055.4059	3260.5731	927.65	46.95
1055.5057	3261.4692	927.5	45.05
1055.6055	3262.3647	925.95	44.75
1055.7052	3263.2595	921.1	37.8
1055.8049	3264.1538	923.85	41.45
1055.9045	3265.0474	926.25	43.7
1056.0041	3265.9404	923.75	41.3
1056.1036	3266.8329	920.8	38.8
1056.2031	3267.7247	933.6	40.2
1056.3025	3268.616	919	37.9
1056.4019	3269.5066	918.85	37.9
1056.5013	3270.3966	919.95	36.9
1056.6005	3271.286	917.9	38.2
