Software Version:	3.9.2.0
Unit SN:	10000200
Spectrometer SN:	6960
Date:	3/26/2024 2:56:59 PM
Data Line Index:	25
Spectral Points:	2048
Integration time (ms):	125
Averages:	20
Delay (ms):	30000
Sequence Number:	1
Processing:	dark subtract
Laser Power (mW):	300
Laser Current (mA):	820
Laser Diode Temp (C):	25.1
Laser Case Temp (C):	28.1
System Temp (C):	28.1
Spectrometer Temp (C):	25.9
CCD Temp (C):	0.005
Secondary Temp (C):	20.01
Heatsink Temp (C):	23.457
CCDPCB Temp (C):	37.619
SecondaryPCB Temp (C):	34.962

Wavelength	RamanShift	Raw Counts	Dark Subtracted
787.061	30.1047	680.65	271.35
787.2016	32.3739	689.6	282
787.3422	34.6426	707.65	298.7
787.4828	36.9109	728.05	318.25
787.6235	39.1787	757.5	344.1
787.7642	41.4461	786.15	366.9
787.9049	43.7131	812.9	390.6
788.0456	45.9796	838.65	410.85
788.1863	48.2456	864.1	432.95
788.3271	50.5112	904.15	468.95
788.4679	52.7764	932.2	496
788.6087	55.0411	961.3	520.75
788.7496	57.3054	998.9	553.05
788.8904	59.5692	1034.25	586.2
789.0313	61.8326	1082.15	629.4
789.1722	64.0955	1131.15	674.45
789.3132	66.3579	1184.4	721.45
789.4541	68.6199	1251.05	786.85
789.5951	70.8815	1357.05	889.4
789.7361	73.1426	1594.55	1124.95
789.8771	75.4032	2177.4	1700.45
790.0181	77.6634	3651	3167.55
790.1592	79.9231	7358.15	6867.45
790.3003	82.1824	15879.7	15373.75
790.4414	84.4412	38935.15	38400.7
790.5825	86.6995	64885.85	64314.85
790.7237	88.9574	65535	64926.05
790.8648	91.2148	65535	64905.9
791.006	93.4717	65535	64885.4
791.1472	95.7282	65535	64872.7
791.2885	97.9842	65535	64869.55
791.4297	100.2398	65535	64866
791.571	102.4949	65535	64864.2
791.7123	104.7495	65535	64862.75
791.8536	107.0036	65535	64862.85
791.9949	109.2573	65535	64861.9
792.1363	111.5105	65535	64860.25
792.2777	113.7632	65535	64858.2
792.4191	116.0154	65535	64850
792.5605	118.2672	65535	64854.05
792.7019	120.5185	65535	64853.8
792.8434	122.7693	65535	64847.95
792.9849	125.0197	65535	64850.55
793.1264	127.2696	65535	64841.95
793.2679	129.519	65535	64840
793.4094	131.7679	65535	64841.3
793.551	134.0163	65535	64836.4
793.6926	136.2642	65535	64832.35
793.8342	138.5117	65535	64827.75
793.9758	140.7587	65535	64822.95
794.1175	143.0052	65535	64824.75
794.2591	145.2512	65535	64826.45
794.4008	147.4967	65535	64827.55
794.5425	149.7417	65535	64820.3
794.6842	151.9863	65535	64817.6
794.826	154.2304	65535	64815.05
794.9677	156.4739	65535	64809.6
795.1095	158.717	65535	64809.3
795.2513	160.9596	65535	64801.6
795.3931	163.2017	65535	64807.5
795.535	165.4433	65535	64805
795.6768	167.6844	65535	64801.75
795.8187	169.925	65535	64798.75
795.9606	172.1651	65535	64797.75
796.1025	174.4047	65535	64795.9
796.2445	176.6439	65535	64791.15
796.3864	178.8825	65535	64794.55
796.5284	181.1206	65535	64783.15
796.6704	183.3582	65535	64777.85
796.8124	185.5954	65535	64778.7
796.9544	187.832	65535	64774.45
797.0965	190.0681	65535	64769.75
797.2386	192.3037	65535	64771.6
797.3806	194.5388	65535	64765.55
797.5228	196.7734	65535	64763.95
797.6649	199.0075	65535	64761.4
797.807	201.2411	65535	64755.5
797.9492	203.4742	65535	64755.9
798.0914	205.7068	65535	64754.7
798.2336	207.9389	65535	64755.6
798.3758	210.1704	65535	64752.35
798.518	212.4015	65535	64753.3
798.6603	214.632	65535	64751
798.8025	216.862	65535	64763.25
798.9448	219.0915	65535	64768.85
799.0871	221.3205	65535	64768.5
799.2294	223.549	65535	64770.7
799.3718	225.777	65535	64776.2
799.5141	228.0044	65535	64772.4
799.6565	230.2314	65535	64772.5
799.7989	232.4578	65535	64776.1
799.9413	234.6837	65535	64764.05
800.0837	236.909	65535	64762.25
800.2262	239.1339	65535	64739.25
800.3687	241.3582	65535	64751.25
800.5111	243.582	65535	64719.85
800.6536	245.8053	65535	64733.65
800.7961	248.0281	65535	64742.8
800.9387	250.2503	65535	64734.4
801.0812	252.472	65535	64733.55
801.2238	254.6932	65535	64730.05
801.3664	256.9139	65535	64726.3
801.509	259.134	65535	64727
801.6516	261.3536	65535	64724.6
801.7942	263.5727	65535	64722.6
801.9369	265.7912	65535	64729.9
802.0795	268.0092	65535	64728.1
802.2222	270.2267	65535	64723.3
802.3649	272.4436	65535	64727.05
802.5076	274.6601	65535	64716.8
802.6504	276.8759	65535	64720.5
802.7931	279.0913	65535	64715
802.9359	281.3061	65535	64715.7
803.0787	283.5204	65535	64713
803.2215	285.7341	65535	64709.95
803.3643	287.9473	65535	64700.2
803.5071	290.16	65535	64706.2
803.6499	292.3721	65535	64710.75
803.7928	294.5837	65535	64706.3
803.9357	296.7947	65535	64706.85
804.0786	299.0052	65535	64709.55
804.2215	301.2152	65535	64706.15
804.3644	303.4246	65535	64708.7
804.5074	305.6334	65535	64711.65
804.6503	307.8418	65535	64708.15
804.7933	310.0495	65535	64707.7
804.9363	312.2568	65535	64706.45
805.0793	314.4635	65535	64704.2
805.2223	316.6696	65535	64704
805.3653	318.8752	65535	64692.5
805.5084	321.0802	65535	64701.25
805.6514	323.2847	65535	64700.3
805.7945	325.4887	65535	64699.5
805.9376	327.692	65535	64701.5
806.0807	329.8949	65535	64696.25
806.2238	332.0972	65535	64694.75
806.367	334.2989	65535	64692.5
806.5101	336.5001	65535	64690.9
806.6533	338.7007	65535	64695.5
806.7965	340.9008	65535	64690
806.9397	343.1003	65535	64686.5
807.0829	345.2992	65535	64686.95
807.2261	347.4976	65535	64688.15
807.3693	349.6955	65535	64681.55
807.5126	351.8927	65535	64685.35
807.6559	354.0895	65535	64672.4
807.7991	356.2856	65535	64682.8
807.9424	358.4812	65535	64680.5
808.0857	360.6763	65535	64680.6
808.2291	362.8707	65535	64679.35
808.3724	365.0646	65535	64676.4
808.5158	367.258	65535	64675
808.6591	369.4508	65535	64673.95
808.8025	371.643	65535	64672.9
808.9459	373.8346	65535	64671.4
809.0893	376.0257	65535	64666.75
809.2327	378.2162	65535	64668.4
809.3762	380.4062	65535	64666.45
809.5196	382.5956	65535	64662.85
809.6631	384.7844	65535	64667.75
809.8066	386.9726	65535	64669.75
809.9501	389.1603	65535	64667.7
810.0936	391.3474	65535	64626.95
810.2371	393.5339	65535	64665.45
810.3806	395.7199	65535	64675.75
810.5241	397.9052	65535	64674.6
810.6677	400.09	65535	64675.85
810.8113	402.2743	65535	64677.25
810.9548	404.4579	65535	64674.85
811.0984	406.641	65535	64676.3
811.2421	408.8235	65535	64674.25
811.3857	411.0054	65535	64676.4
811.5293	413.1868	65535	64667.75
811.673	415.3675	65535	64671.55
811.8166	417.5477	65535	64669.95
811.9603	419.7273	65535	64667.7
812.104	421.9064	65535	64663.45
812.2477	424.0848	65535	64666.75
812.3914	426.2627	65535	64663.75
812.5351	428.4399	65535	64659.75
812.6788	430.6166	65535	64656.65
812.8226	432.7928	65535	64657.8
812.9663	434.9683	65535	64657.15
813.1101	437.1432	65535	64660.15
813.2539	439.3176	65535	64660.4
813.3977	441.4914	65535	64663.95
813.5415	443.6645	65535	64659.2
813.6853	445.8371	65535	64656.75
813.8291	448.0091	65535	64661.35
813.973	450.1806	65535	64657.4
814.1168	452.3514	65535	64657.75
814.2607	454.5216	65535	64650.8
814.4046	456.6913	65535	64653.15
814.5485	458.8603	65535	64657
814.6924	461.0288	65535	64659.85
814.8363	463.1967	65535	64661.15
814.9802	465.3639	65535	64660.95
815.1241	467.5306	65535	64654.85
815.2681	469.6967	65535	64661.6
815.412	471.8622	65535	64659.65
815.556	474.0271	65535	64661
815.7	476.1914	65535	64654.05
815.844	478.3551	65535	64657.7
815.988	480.5182	65535	64657.75
816.132	482.6807	65535	64660.35
816.276	484.8426	65535	64667.9
816.4201	487.0039	65535	64660.35
816.5641	489.1647	65535	64656.9
816.7082	491.3248	65535	64657.45
816.8522	493.4843	65535	64657.75
816.9963	495.6432	65535	64659.45
817.1404	497.8015	65535	64648.3
817.2845	499.9592	65535	64648.45
817.4286	502.1163	65535	64649.15
817.5727	504.2728	65535	64653.4
817.7168	506.4287	65535	64661.4
817.861	508.5839	65535	64659.5
818.0051	510.7386	65535	64654.65
818.1493	512.8927	65535	64642.75
818.2935	515.0461	65535	64648.15
818.4377	517.199	65535	64650.4
818.5818	519.3512	65535	64648.6
818.726	521.5029	65535	64646.1
818.8703	523.6539	65535	64648.35
819.0145	525.8043	65535	64647.7
819.1587	527.9541	65535	64643.4
819.303	530.1033	65535	64646.4
819.4472	532.2519	65535	64644.35
819.5915	534.3999	65535	64641.65
819.7357	536.5472	65535	64644.75
819.88	538.694	65535	64650.3
820.0243	540.8401	65535	64642.9
820.1686	542.9856	65535	64638.1
820.3129	545.1305	65535	64634.2
820.4572	547.2748	65535	64634.75
820.6016	549.4185	65535	64629.6
820.7459	551.5615	65535	64633.7
820.8902	553.704	65535	64630.25
821.0346	555.8458	65535	64638.9
821.1789	557.987	65535	64637.95
821.3233	560.1276	65535	64634.9
821.4677	562.2675	65535	64635.25
821.6121	564.4069	65535	64637.2
821.7565	566.5456	65535	64640.7
821.9009	568.6837	65535	64645.65
822.0453	570.8212	65535	64639.8
822.1897	572.958	65535	64640.7
822.3342	575.0942	65535	64643.85
822.4786	577.2299	65535	64644
822.6231	579.3648	65535	64651
822.7675	581.4992	65535	64655.05
822.912	583.6329	65535	64658.25
823.0565	585.766	65535	64652.45
823.201	587.8985	65535	64651.45
823.3454	590.0304	65535	64635.05
823.4899	592.1616	65535	64638.55
823.6345	594.2922	65535	64638.75
823.779	596.4222	65535	64634.45
823.9235	598.5515	65535	64635.55
824.068	600.6802	65535	64631.55
824.2126	602.8083	65535	64636.75
824.3571	604.9358	65535	64636.65
824.5017	607.0626	65535	64630.45
824.6462	609.1888	65535	64630.55
824.7908	611.3144	65535	64630.7
824.9354	613.4393	65535	64633.6
825.08	615.5636	65535	64626.55
825.2246	617.6873	65535	64631.55
825.3692	619.8103	65535	64630
825.5138	621.9327	65535	64628.2
825.6584	624.0544	65535	64634.45
825.803	626.1756	65535	64638.45
825.9477	628.2961	65535	64630.8
826.0923	630.4159	65535	64634.5
826.237	632.5351	65535	64630.1
826.3816	634.6537	65535	64630.05
826.5263	636.7716	65535	64627.55
826.6709	638.8889	65535	64626.55
826.8156	641.0056	65535	64623.95
826.9603	643.1216	65535	64621.45
827.105	645.237	65535	64625.65
827.2497	647.3518	65535	64632.2
827.3944	649.4659	65535	64637.55
827.5391	651.5793	65535	64632.85
827.6838	653.6922	65535	64634
827.8285	655.8043	65535	64632.4
827.9733	657.9159	65535	64629.95
828.118	660.0268	65535	64630.4
828.2627	662.137	65535	64630.75
828.4075	664.2466	65535	64625.15
828.5522	666.3556	65535	64628.25
828.697	668.4639	65535	64623.7
828.8418	670.5716	65535	64631.7
828.9865	672.6786	65535	64624.7
829.1313	674.785	65535	64620.95
829.2761	676.8907	65535	64627.45
829.4209	678.9958	65535	64630.65
829.5657	681.1002	65535	64627.45
829.7105	683.204	65535	64620.45
829.8553	685.3072	65535	64621.65
830.0001	687.4097	65535	64625.25
830.1449	689.5115	65535	64621.75
830.2898	691.6127	65535	64626.35
830.4346	693.7132	65535	64624.3
830.5794	695.8131	65535	64605.65
830.7243	697.9123	65535	64620.8
830.8691	700.0109	65535	64621
831.014	702.1089	65535	64624.35
831.1588	704.2061	65535	64625.35
831.3037	706.3028	65535	64619.35
831.4486	708.3987	65535	64625.8
831.5935	710.4941	65535	64623.95
831.7383	712.5887	65535	64621.9
831.8832	714.6827	65535	64619.55
832.0281	716.7761	65535	64627
832.173	718.8688	65535	64623
832.3179	720.9608	65535	64615.35
832.4628	723.0522	65535	64613.7
832.6077	725.1429	65535	64616.4
832.7527	727.233	65535	64618.4
832.8976	729.3224	65535	64623.95
833.0425	731.4112	65535	64619.85
833.1874	733.4993	65535	64620.8
833.3324	735.5867	65535	64622.55
833.4773	737.6735	65535	64619.7
833.6222	739.7596	65535	64616.4
833.7672	741.845	65535	64620.55
833.9122	743.9298	65535	64620.5
834.0571	746.014	65535	64620.7
834.2021	748.0974	65535	64615.95
834.347	750.1802	65535	64615.8
834.492	752.2624	65535	64618.85
834.637	754.3439	65535	64615.8
834.782	756.4247	65535	64607.35
834.9269	758.5048	65535	64616.05
835.0719	760.5843	65535	64617.45
835.2169	762.6631	65535	64614.3
835.3619	764.7413	65535	64617.6
835.5069	766.8188	65535	64616.3
835.6519	768.8956	65535	64615.9
835.7969	770.9718	65535	64620.05
835.9419	773.0473	65535	64615.8
836.0869	775.1221	65535	64617.45
836.232	777.1962	65535	64616.4
836.377	779.2697	65535	64612.75
836.522	781.3426	65535	64604.7
836.667	783.4147	65535	64612.55
836.8121	785.4862	65535	64614.8
836.9571	787.557	65535	64613.4
837.1021	789.6271	65535	64612.8
837.2472	791.6966	65535	64615.85
837.3922	793.7654	65535	64613.45
837.5373	795.8335	65535	64616.2
837.6823	797.901	65535	64611.9
837.8274	799.9678	65535	64609.65
837.9724	802.0339	65534.8	64613.65
838.1175	804.0993	65535	64604.7
838.2626	806.1641	65534.8	64615.45
838.4076	808.2282	65529.9	64612.05
838.5527	810.2916	65523.4	64599.45
838.6978	812.3544	65535	64616.55
838.8428	814.4164	65521.05	64600.5
838.9879	816.4778	65519.75	64596.45
839.133	818.5385	65520.2	64599.95
839.2781	820.5986	65520.5	64598.75
839.4232	822.658	65522.3	64594.95
839.5682	824.7166	65522.8	64600.2
839.7133	826.7747	65494.8	64573.6
839.8584	828.832	65507.1	64583.65
840.0035	830.8886	65522	64595.15
840.1486	832.9446	65524.9	64600.4
840.2937	834.9999	65457.75	64534.2
840.4388	837.0545	65499.1	64576.1
840.5839	839.1085	65521.85	64600.3
840.729	841.1618	65511.95	64586.15
840.8741	843.2143	65453.15	64530.35
841.0192	845.2662	65454.4	64533.05
841.1643	847.3175	65476.2	64552.05
841.3095	849.368	65395.15	64470.5
841.4546	851.4179	65460.25	64537.5
841.5997	853.467	65416.6	64495.35
841.7448	855.5155	65449.2	64527
841.8899	857.5633	65395.5	64471.3
842.0351	859.6105	65373.95	64449.35
842.1802	861.6569	65386.35	64463.45
842.3253	863.7027	65338	64412.65
842.4704	865.7478	65363.95	64437.7
842.6156	867.7922	65355.8	64433.35
842.7607	869.8359	65382.8	64457.95
842.9058	871.8789	65323.7	64400.15
843.0509	873.9212	65357.9	64403.6
843.1961	875.9629	65367.4	64443.15
843.3412	878.0039	65357.35	64432
843.4863	880.0441	65343.55	64423.45
843.6315	882.0837	65337.9	64411.35
843.7766	884.1226	65330.9	64407.6
843.9218	886.1609	65330.9	64409.2
844.0669	888.1984	65300.9	64378.55
844.212	890.2352	65336.6	64413.8
844.3572	892.2714	65288.85	64360.9
844.5023	894.3069	65301.35	64375.4
844.6475	896.3416	65270.9	64344.1
844.7926	898.3757	65267.75	64340.95
844.9377	900.4091	65190.65	64260.1
845.0829	902.4418	65277.85	64347.65
845.228	904.4739	65243.6	64314.05
845.3732	906.5052	65250.3	64323.25
845.5183	908.5358	65217.6	64290.3
845.6635	910.5658	65189.45	64259.9
845.8086	912.595	65184.25	64257.6
845.9538	914.6236	65056.4	64128
846.0989	916.6515	65198.45	64269.2
846.2441	918.6786	65033.8	64106.95
846.3892	920.7051	65088.45	64159.7
846.5344	922.7309	65056.85	64130.35
846.6795	924.756	65093.6	64169.45
846.8246	926.7804	65033	64106.1
846.9698	928.8041	64773	63843.35
847.1149	930.8272	64997.8	64070.45
847.2601	932.8495	64999.5	64074.95
847.4052	934.8711	64794.7	63866.55
847.5504	936.892	64571.25	63642.7
847.6955	938.9123	64703.6	63776.85
847.8407	940.9318	64487.55	63563.35
847.9858	942.9506	64371.4	63444.2
848.131	944.9688	64438.95	63512.15
848.2761	946.9862	63835.2	62909.65
848.4213	949.003	64085.9	63154.05
848.5664	951.019	63494.85	62567.65
848.7115	953.0344	63657.5	62730.55
848.8567	955.0491	63536.3	62609.65
849.0018	957.063	63766.3	62838
849.147	959.0763	63835.95	62902.3
849.2921	961.0888	63276.85	62351.75
849.4373	963.1007	63670.8	62745.45
849.5824	965.1119	63665.75	62746.9
849.7275	967.1223	63197.75	62280.4
849.8727	969.1321	63728.15	62810
850.0178	971.1412	63049.85	62128.8
850.1629	973.1495	62769.85	61846.3
850.3081	975.1572	63123.5	62164.1
850.4532	977.1641	62793.05	61867.3
850.5983	979.1704	62687.45	61759.4
850.7435	981.1759	62763.85	61834.1
850.8886	983.1808	62290.4	61361.75
851.0337	985.1849	62358.9	61423.4
851.1788	987.1884	62580.1	61649.8
851.324	989.1911	62980.75	62052.35
851.4691	991.1932	61882.05	60957.7
851.6142	993.1945	62163.65	61240.75
851.7593	995.1951	62422.25	61499.45
851.9045	997.1951	61684.35	60751.5
852.0496	999.1943	61551.75	60626
852.1947	1001.1928	61274.6	60346.35
852.3398	1003.1906	61432.1	60503.35
852.4849	1005.1877	60493	59565.5
852.63	1007.1841	60195.55	59268.1
852.7751	1009.1798	60206.15	59280.45
852.9202	1011.1748	60041.65	59116.05
853.0653	1013.1691	59773.4	58843.95
853.2104	1015.1627	58081.5	57156.35
853.3555	1017.1556	58560.1	57637.65
853.5006	1019.1477	58811	57886.5
853.6457	1021.1392	57946.7	57025.5
853.7908	1023.1299	57052.75	56133.2
853.9359	1025.12	57614.3	56699
854.081	1027.1093	57073.95	56164.75
854.2261	1029.0979	57021.1	56113.95
854.3712	1031.0859	56898.6	55988.25
854.5163	1033.0731	56183.8	55266
854.6613	1035.0596	56364.15	55442.3
854.8064	1037.0454	56109.75	55188.85
854.9515	1039.0304	55484.25	54562.55
855.0965	1041.0148	54815.35	53890.65
855.2416	1042.9985	54849.5	53923.35
855.3867	1044.9814	55114.5	54193.75
855.5317	1046.9636	54460.55	53535.45
855.6768	1048.9452	54339.15	53416.6
855.8219	1050.926	54155.05	53232.05
855.9669	1052.9061	54029.2	53103.35
856.112	1054.8855	53968.9	53042.65
856.257	1056.8642	53563.5	52639.4
856.4021	1058.8421	53401.9	52471.85
856.5471	1060.8194	53348.85	52423.05
856.6921	1062.7959	53126.25	52201
856.8372	1064.7717	53233.85	52306.8
856.9822	1066.7469	52951	52025.1
857.1272	1068.7213	52833.8	51906.8
857.2723	1070.695	52521.7	51597.9
857.4173	1072.6679	52107.25	51182.45
857.5623	1074.6402	52104.45	51181.1
857.7073	1076.6117	51961.8	51031.05
857.8523	1078.5826	51869.05	50940.65
857.9973	1080.5527	51818.3	50890.05
858.1423	1082.5221	51656.75	50733.35
858.2873	1084.4908	51840.25	50917.1
858.4323	1086.4587	51856.95	50931.9
858.5773	1088.426	51969.7	51044
858.7223	1090.3925	51692.2	50760.6
858.8673	1092.3584	51538.4	50612.1
859.0123	1094.3235	50991.2	50068.5
859.1573	1096.2879	50768.35	49843.1
859.3022	1098.2515	50674.75	49752.85
859.4472	1100.2145	50573.05	49649.9
859.5922	1102.1767	50336.2	49412
859.7371	1104.1382	50403.45	49478.4
859.8821	1106.099	50468.55	49543.2
860.027	1108.0591	50453.7	49530.05
860.172	1110.0185	50243.6	49319.85
860.3169	1111.9771	50322.55	49400.05
860.4619	1113.9351	49776.15	48852.15
860.6068	1115.8923	49302.2	48378.15
860.7517	1117.8488	48723.85	47799.9
860.8967	1119.8045	48280.3	47353.95
861.0416	1121.7596	48063.5	47139.2
861.1865	1123.7139	47822.5	46900.6
861.3314	1125.6675	47682.8	46761.2
861.4763	1127.6204	47752.15	46829.95
861.6212	1129.5726	47493.7	46571.2
861.7661	1131.524	47479.95	46555.75
861.911	1133.4748	47463.85	46544.05
862.0559	1135.4248	47265.3	46342.65
862.2008	1137.3741	47195.1	46272.85
862.3457	1139.3226	47052.05	46127.3
862.4905	1141.2705	46989.35	46064.3
862.6354	1143.2176	46590.75	45658.55
862.7803	1145.164	46564.2	45636.3
862.9251	1147.1097	46450.4	45524.85
863.07	1149.0546	46363.3	45437.8
863.2148	1150.9989	46220.25	45294
863.3597	1152.9424	45964.1	45038.95
863.5045	1154.8852	45648.4	44721.2
863.6493	1156.8272	45403.6	44480.65
863.7942	1158.7686	45279.7	44347.5
863.939	1160.7092	45000.95	44075.55
864.0838	1162.6491	44743.75	43818.55
864.2286	1164.5883	44791.6	43870.5
864.3734	1166.5267	44688.75	43764.4
864.5182	1168.4644	44780.8	43856.9
864.663	1170.4014	44829.75	43905.75
864.8078	1172.3377	45008.9	44088.6
864.9526	1174.2732	45122	44200
865.0974	1176.2081	45180	44258
865.2421	1178.1421	45244.55	44314.7
865.3869	1180.0755	45278.6	44354.8
865.5317	1182.0082	45019.1	44099.15
865.6764	1183.9401	44884.45	43962.05
865.8212	1185.8713	44481.95	43561.85
865.9659	1187.8017	44136.75	43218.3
866.1106	1189.7315	43855.75	42946
866.2554	1191.6605	43348	42437.45
866.4001	1193.5888	42997.1	42083.9
866.5448	1195.5163	42811.25	41890.7
866.6895	1197.4432	42598.75	41677.6
866.8342	1199.3693	42405.8	41487.35
866.9789	1201.2947	42122.1	41192.3
867.1236	1203.2193	41888.45	40968.2
867.2683	1205.1432	41881.8	40959.55
867.413	1207.0664	41785.3	40863.5
867.5576	1208.9889	41684.9	40760
867.7023	1210.9106	41542.05	40621.8
867.847	1212.8316	41532.55	40611.25
867.9916	1214.7519	41499.9	40566.5
868.1363	1216.6715	41281.35	40356.6
868.2809	1218.5903	41216.25	40293.1
868.4255	1220.5084	41036.85	40113.5
868.5701	1222.4257	40927.3	40006.95
868.7148	1224.3424	40603.3	39686.15
868.8594	1226.2583	40595.35	39670.95
869.004	1228.1735	40550.45	39626.75
869.1486	1230.0879	40493.05	39571.65
869.2932	1232.0016	40496.25	39578.15
869.4377	1233.9146	40381.1	39458.35
869.5823	1235.8269	40219	39298.5
869.7269	1237.7384	39986.1	39063.6
869.8715	1239.6492	39617.55	38699.3
870.016	1241.5592	39466.2	38542.25
870.1606	1243.4686	39193.55	38271.25
870.3051	1245.3772	39035.05	38115.95
870.4496	1247.285	38758.4	37838.55
870.5941	1249.1922	38577.45	37660.1
870.7387	1251.0986	38493.2	37573.75
870.8832	1253.0042	38322.05	37399.5
871.0277	1254.9092	38323.5	37403.6
871.1722	1256.8134	38322.85	37403.6
871.3167	1258.7169	38449.65	37529.15
871.4611	1260.6196	38447.05	37528.35
871.6056	1262.5216	38583.85	37662.5
871.7501	1264.4229	38562.45	37643.35
871.8945	1266.3234	38615.8	37699.8
872.039	1268.2232	38603.45	37679.6
872.1834	1270.1223	38424.75	37505.6
872.3278	1272.0207	38320.1	37400
872.4723	1273.9183	38180.35	37255
872.6167	1275.8151	37971	37053.2
872.7611	1277.7113	37851.5	36934.4
872.9055	1279.6067	37549.9	36630.45
873.0499	1281.5014	37281.7	36357.9
873.1943	1283.3953	36961.6	36037.9
873.3386	1285.2885	36803.15	35884.1
873.483	1287.181	36628.8	35709.6
873.6274	1289.0727	36659.2	35740.85
873.7717	1290.9637	36555.7	35633.5
873.9161	1292.854	36636.95	35719.45
874.0604	1294.7435	36641.15	35721.6
874.2047	1296.6323	36741.95	35820.25
874.349	1298.5204	36999.4	36074.95
874.4933	1300.4077	37226.95	36307
874.6376	1302.2943	37310.4	36390.7
874.7819	1304.1802	37307.25	36388.5
874.9262	1306.0653	37136.05	36214.05
875.0705	1307.9497	36874.15	35953.2
875.2147	1309.8333	36832.25	35915.5
875.359	1311.7162	36717.9	35798.75
875.5032	1313.5984	36770.75	35848.4
875.6475	1315.4798	36775.75	35837.7
875.7917	1317.3605	36842.7	35919.55
875.9359	1319.2405	37032.1	36109.6
876.0801	1321.1197	36938.8	36017.4
876.2243	1322.9982	36758.55	35834.8
876.3685	1324.876	36784.4	35865.2
876.5127	1326.753	36633.05	35714.3
876.6569	1328.6293	36646.1	35721.55
876.801	1330.5048	36637.85	35716.55
876.9452	1332.3796	36475.25	35557.7
877.0893	1334.2537	36428.1	35482
877.2335	1336.127	36278.6	35359.7
877.3776	1337.9996	36106.3	35187.25
877.5217	1339.8714	36000.6	35080.75
877.6658	1341.7426	35825.3	34862.4
877.8099	1343.6129	35685.25	34765.85
877.954	1345.4826	35539.6	34619.75
878.0981	1347.3515	35447.95	34528.85
878.2422	1349.2196	35299.35	34377.9
878.3862	1351.087	35259.8	34338.65
878.5303	1352.9537	35220.65	34300.55
878.6743	1354.8197	35271.5	34349.45
878.8184	1356.6849	35410.7	34490.65
878.9624	1358.5493	35395.4	34476.65
879.1064	1360.4131	35329.25	34410.95
879.2504	1362.276	35122.15	34203.6
879.3944	1364.1383	34823.75	33906.45
879.5384	1365.9998	34515.8	33590.95
879.6823	1367.8606	34122.9	33203.85
879.8263	1369.7206	33833.6	32915.15
879.9702	1371.5799	33565.55	32644.95
880.1142	1373.4384	33355.2	32437.6
880.2581	1375.2962	33177.7	32258.85
880.402	1377.1533	32785.45	31866.15
880.5459	1379.0096	32330.1	31414.05
880.6898	1380.8652	31970.85	31055.75
880.8337	1382.7201	31674.05	30756.6
880.9776	1384.5742	31390.2	30471.7
881.1215	1386.4275	31112.05	30192.65
881.2653	1388.2802	30883.4	29964.25
881.4092	1390.132	30722.6	29803.55
881.553	1391.9832	30600.05	29678.75
881.6968	1393.8336	30398.95	29480.6
881.8406	1395.6832	30306.1	29386.5
881.9844	1397.5322	30114.45	29196.85
882.1282	1399.3803	30034.05	29112.85
882.272	1401.2278	29838.85	28920.3
882.4158	1403.0745	29765.1	28849.05
882.5595	1404.9204	29613.95	28699
882.7033	1406.7656	29554.55	28637.4
882.847	1408.6101	29460.15	28542.75
882.9908	1410.4538	29379.85	28463.7
883.1345	1412.2968	29272.5	28357.2
883.2782	1414.139	29188.7	28272.4
883.4219	1415.9805	29240.85	28323.5
883.5656	1417.8213	29139.3	28200.5
883.7092	1419.6613	29217.3	28303.65
883.8529	1421.5006	29376.8	28458.35
883.9965	1423.3391	29552.8	28635.8
884.1402	1425.1769	29776.6	28862.25
884.2838	1427.0139	30296.45	29382.55
884.4274	1428.8502	30864.85	29945.45
884.571	1430.6858	31305.25	30389.15
884.7146	1432.5206	31600.65	30684.9
884.8582	1434.3547	31842.4	30926.2
885.0018	1436.188	31847.4	30933.9
885.1453	1438.0206	31736.4	30820.5
885.2889	1439.8524	31509.8	30592.95
885.4324	1441.6835	31368.15	30454.05
885.5759	1443.5139	31185.85	30268.85
885.7194	1445.3435	31001.65	30086.55
885.8629	1447.1724	30923.15	30008.65
886.0064	1449.0005	30778.55	29864.3
886.1499	1450.8279	30604.35	29689.5
886.2933	1452.6545	30558.85	29644.75
886.4368	1454.4804	30527.55	29614.4
886.5802	1456.3056	30485.5	29562.1
886.7237	1458.13	30303.25	29388.6
886.8671	1459.9536	30038.8	29126.05
887.0105	1461.7766	29652.95	28737.95
887.1539	1463.5987	29129.05	28212.95
887.2972	1465.4202	28703.1	27787.15
887.4406	1467.2409	28213.2	27297.25
887.584	1469.0608	27971.45	27056.2
887.7273	1470.88	27642.9	26731.5
887.8706	1472.6984	27339.5	26428.75
888.0139	1474.5161	27051.35	26133.45
888.1572	1476.3331	26789.35	25878.4
888.3005	1478.1493	26641.25	25727.3
888.4438	1479.9648	26512.9	25598.6
888.5871	1481.7795	26399.1	25484.5
888.7303	1483.5935	26298.2	25384.7
888.8736	1485.4067	26146	25228.25
889.0168	1487.2192	26084.95	25170.7
889.16	1489.031	26001.8	25085.5
889.3032	1490.842	25898.35	24987.65
889.4464	1492.6522	25850.2	24938.55
889.5896	1494.4618	25757.25	24840.3
889.7327	1496.2705	25690.65	24779
889.8759	1498.0785	25637.05	24721.75
890.019	1499.8858	25485.7	24572
890.1622	1501.6924	25393.05	24481
890.3053	1503.4981	25357.3	24444.05
890.4484	1505.3032	25296	24383
890.5914	1507.1075	25209.15	24293.85
890.7345	1508.911	25165	24252.15
890.8776	1510.7138	25049.75	24133.2
891.0206	1512.5159	24972.9	24059
891.1637	1514.3172	24828.05	23917
891.3067	1516.1178	24727.15	23815.6
891.4497	1517.9176	24658.85	23742.75
891.5927	1519.7166	24516.55	23606.55
891.7357	1521.515	24463.25	23544.3
891.8786	1523.3126	24400.4	23490.55
892.0216	1525.1094	24299.3	23386.7
892.1645	1526.9055	24235.05	23324.9
892.3074	1528.7008	24126.95	23214.2
892.4503	1530.4954	24012	23096.75
892.5932	1532.2893	23960.8	23050.65
892.7361	1534.0824	23758.95	22843.2
892.879	1535.8747	23729.15	22819.2
893.0218	1537.6663	23621.65	22711.95
893.1647	1539.4572	23544.25	22633.1
893.3075	1541.2473	23541.1	22631.15
893.4503	1543.0367	23425.5	22519.3
893.5931	1544.8253	23309.05	22394
893.7359	1546.6132	23294.2	22380.65
893.8787	1548.4003	23171.5	22252.55
894.0214	1550.1867	23191.5	22277.05
894.1642	1551.9723	23123.5	22212.6
894.3069	1553.7572	23074.75	22164.2
894.4496	1555.5414	23029.65	22119.05
894.5923	1557.3247	22984.9	22076.75
894.735	1559.1074	22961.8	22057.8
894.8777	1560.8893	22965.15	22061.3
895.0204	1562.6705	22910.55	22007.35
895.163	1564.4509	22949.35	22047.6
895.3056	1566.2305	22935.45	22034.75
895.4482	1568.0094	23031.55	22129.5
895.5908	1569.7876	23072.25	22168.35
895.7334	1571.565	23064	22158.9
895.876	1573.3417	23094.1	22193.7
896.0186	1575.1176	23042	22136.7
896.1611	1576.8928	22955.25	22053.95
896.3036	1578.6672	22794.7	21897.4
896.4461	1580.4409	22614.95	21716.8
896.5886	1582.2138	22428.75	21526.9
896.7311	1583.986	22261.55	21357.5
896.8736	1585.7575	22144.2	21242.75
897.0161	1587.5282	21961.85	21064.05
897.1585	1589.2981	21840.15	20942.75
897.3009	1591.0673	21719.7	20819.3
897.4433	1592.8358	21687.1	20790.3
897.5857	1594.6035	21630.4	20728
897.7281	1596.3704	21550.5	20647.75
897.8705	1598.1366	21482.3	20578.35
898.0128	1599.9021	21451.35	20550.45
898.1551	1601.6668	21392.5	20493.15
898.2975	1603.4308	21369.85	20466.75
898.4398	1605.194	21430.35	20523.35
898.5821	1606.9564	21419.25	20520.55
898.7243	1608.7182	21470.8	20573.15
898.8666	1610.4791	21540.35	20646.3
899.0088	1612.2394	21633.15	20741.55
899.1511	1613.9988	21739.45	20845.45
899.2933	1615.7576	21961.75	21066.45
899.4355	1617.5156	22145.55	21237.6
899.5776	1619.2728	22365.05	21462.2
899.7198	1621.0293	22456.3	21554.6
899.862	1622.785	22491.65	21592.25
900.0041	1624.54	22334.35	21436.7
900.1462	1626.2942	22169.95	21272.4
900.2883	1628.0477	21801.05	20901.25
900.4304	1629.8005	21578.9	20680.5
900.5725	1631.5525	21268.45	20371.5
900.7145	1633.3037	20943.25	20047.9
900.8566	1635.0542	20768.05	19873.45
900.9986	1636.804	20565.15	19667.95
901.1406	1638.553	20513.4	19542.35
901.2826	1640.3013	20325.1	19428.1
901.4245	1642.0488	20208.2	19309.2
901.5665	1643.7955	20179.3	19287
901.7085	1645.5416	20092.1	19196.15
901.8504	1647.2868	20129.85	19232.8
901.9923	1649.0313	20113.35	19216.05
902.1342	1650.7751	20243.4	19345.95
902.2761	1652.5181	20372.85	19476.85
902.4179	1654.2604	20533.85	19637.75
902.5598	1656.0019	20788.5	19894.85
902.7016	1657.7427	21115.75	20218.5
902.8434	1659.4828	21466.55	20569.05
902.9852	1661.222	21647.5	20749.25
903.127	1662.9606	21665.55	20769.65
903.2687	1664.6984	21506.6	20607.8
903.4105	1666.4354	21106.2	20208.15
903.5522	1668.1717	20623.2	19722.7
903.6939	1669.9072	20122.6	19223.95
903.8356	1671.642	19708.5	18807.7
903.9773	1673.3761	19398.65	18501.3
904.119	1675.1094	19111.45	18214.65
904.2606	1676.8419	18871.9	17974.2
904.4022	1678.5737	18673	17774.9
904.5439	1680.3048	18529.8	17632.7
904.6855	1682.0351	18381.5	17485.3
904.827	1683.7646	18235.3	17333.75
904.9686	1685.4934	18181.15	17286.55
905.1101	1687.2215	18055.7	17160.25
905.2517	1688.9488	17951.35	17055.7
905.3932	1690.6754	17877.95	16982.3
905.5347	1692.4012	17776.8	16879.1
905.6761	1694.1263	17750.75	16855.35
905.8176	1695.8506	17692.7	16796.7
905.9591	1697.5742	17607.95	16715.85
906.1005	1699.297	17527.1	16635.05
906.2419	1701.0191	17434.15	16542.15
906.3833	1702.7404	17342.05	16449.75
906.5246	1704.461	17226.2	16330.95
906.666	1706.1808	17173.6	16277.3
906.8073	1707.8999	17130.45	16235.5
906.9487	1709.6182	17059.25	16169.15
907.09	1711.3358	17024.2	16134.75
907.2313	1713.0527	16958.35	16067.4
907.3725	1714.7688	16878.75	15982.15
907.5138	1716.4841	16800.75	15908
907.655	1718.1987	16808.2	15910.3
907.7962	1719.9126	16713.35	15823.35
907.9374	1721.6257	16652.1	15759.85
908.0786	1723.338	16595.7	15705.55
908.2198	1725.0496	16522.45	15631.55
908.3609	1726.7605	16489	15598.55
908.502	1728.4706	16397.9	15504.75
908.6431	1730.18	16328.2	15436.35
908.7842	1731.8886	16267.7	15378.75
908.9253	1733.5964	16225	15314.8
909.0664	1735.3036	16182.3	15289.35
909.2074	1737.0099	16136.4	15246.35
909.3484	1738.7156	16096.45	15209.2
909.4894	1740.4204	15998.6	15106.15
909.6304	1742.1246	15954.4	15062.7
909.7714	1743.8279	15938.65	15048.25
909.9123	1745.5306	15901.75	15012.2
910.0532	1747.2325	15822.1	14932
910.1941	1748.9336	15791.2	14900.85
910.335	1750.634	15730.8	14836.2
910.4759	1752.3336	15696.95	14807.4
910.6168	1754.0325	15672.9	14784.65
910.7576	1755.7307	15629.8	14741.4
910.8984	1757.4281	15616.25	14724.85
911.0392	1759.1247	15568.25	14666.2
911.18	1760.8206	15541.6	14643.55
911.3208	1762.5158	15506.9	14612.5
911.4615	1764.2102	15431.8	14542.8
911.6022	1765.9039	15367.95	14479.1
911.7429	1767.5968	15344.25	14457.05
911.8836	1769.289	15289.1	14402.7
912.0243	1770.9804	15259.5	14369.6
912.1649	1772.6711	15244.9	14351
912.3056	1774.361	15198.9	14308.3
912.4462	1776.0502	15167.2	14274.75
912.5868	1777.7386	15126.75	14236.2
912.7274	1779.4263	15031.3	14140.8
912.8679	1781.1132	15020.95	14134.7
913.0084	1782.7994	14965.55	14076.7
913.149	1784.4849	14917.05	14030.35
913.2895	1786.1696	14890.55	13986.3
913.4299	1787.8535	14861.2	13973.85
913.5704	1789.5367	14775.05	13889.5
913.7108	1791.2192	14789.05	13902.95
913.8513	1792.9009	14739.45	13825.45
913.9917	1794.5818	14667.95	13776.3
914.132	1796.2621	14650.9	13762.65
914.2724	1797.9415	14613.75	13724.2
914.4128	1799.6202	14561.35	13673.3
914.5531	1801.2982	14507.5	13618.3
914.6934	1802.9755	14497.9	13608.35
914.8337	1804.6519	14467.2	13577.45
914.9739	1806.3277	14401.15	13513.75
915.1142	1808.0027	14360.05	13475.9
915.2544	1809.6769	14353.35	13465.8
915.3946	1811.3504	14312.15	13424.15
915.5348	1813.0231	14255.45	13367.85
915.675	1814.6951	14237.4	13350.3
915.8151	1816.3664	14217.3	13329.7
915.9553	1818.0369	14194.05	13306.75
916.0954	1819.7067	14120.05	13233
916.2355	1821.3757	14074	13182.15
916.3755	1823.044	14053.95	13165.45
916.5156	1824.7115	14044	13153.95
916.6556	1826.3783	13964.35	13076.6
916.7956	1828.0443	13918.05	13031.9
916.9356	1829.7096	13901.75	13011.1
917.0756	1831.3741	13886.25	12995.2
917.2155	1833.0379	13820	12933
917.3555	1834.701	13790.65	12904.8
917.4954	1836.3633	13764.45	12878.45
917.6353	1838.0248	13738.2	12848.2
917.7751	1839.6856	13710.3	12823.35
917.915	1841.3457	13701	12813.7
918.0548	1843.005	13658.4	12771.35
918.1946	1844.6636	13631.7	12744.15
918.3344	1846.3214	13568.65	12680.6
918.4742	1847.9785	13592.5	12705
918.6139	1849.6349	13526.75	12636.45
918.7537	1851.2904	13524.95	12627.15
918.8934	1852.9453	13439.7	12548.25
919.0331	1854.5994	13404.05	12512.65
919.1727	1856.2528	13426.6	12531.85
919.3124	1857.9054	13400.85	12510.95
919.452	1859.5572	13372.15	12483.45
919.5916	1861.2083	13288.85	12397.1
919.7312	1862.8587	13343.15	12455.7
919.8708	1864.5084	13301.75	12412.15
920.0103	1866.1572	13223.65	12335.1
920.1498	1867.8054	13178.6	12289.75
920.2893	1869.4528	13141.25	12252.8
920.4288	1871.0994	13123.45	12232.85
920.5683	1872.7453	13097.6	12208
920.7077	1874.3905	13069.4	12174.25
920.8471	1876.0349	13010.3	12121.55
920.9865	1877.6786	12997.35	12107.1
921.1259	1879.3215	12977.55	12090.65
921.2653	1880.9637	12934	12045.9
921.4046	1882.6051	12935.65	12048.7
921.5439	1884.2458	12876.5	11987.75
921.6832	1885.8858	12829.4	11939.4
921.8225	1887.525	12801.35	11911.2
921.9617	1889.1634	12752.65	11862.85
922.101	1890.8011	12682.65	11793.6
922.2402	1892.4381	12656.9	11769.7
922.3794	1894.0743	12674.9	11790.15
922.5185	1895.7098	12622.85	11736.9
922.6577	1897.3446	12584.65	11695.15
922.7968	1898.9786	12554.35	11662.2
922.9359	1900.6118	12530.45	11642.3
923.075	1902.2443	12452.55	11563.15
923.214	1903.8761	12420.7	11534.4
923.3531	1905.5071	12373.25	11485.95
923.4921	1907.1374	12347.95	11460.95
923.6311	1908.7669	12325.75	11439.55
923.77	1910.3957	12286.2	11398.7
923.909	1912.0237	12245.1	11356.6
924.0479	1913.651	12215.75	11328.4
924.1868	1915.2776	12181	11294.85
924.3257	1916.9034	12124.05	11235.7
924.4646	1918.5285	12077	11191.7
924.6034	1920.1528	12029.6	11140.5
924.7422	1921.7764	12014.6	11126.95
924.881	1923.3992	11947.2	11059.05
925.0198	1925.0213	11860	10973.6
925.1586	1926.6427	11836.8	10949.9
925.2973	1928.2633	11908.65	10901.45
925.436	1929.8832	11783.7	10894.4
925.5747	1931.5023	11712.15	10826.1
925.7134	1933.1207	11687.15	10801.7
925.852	1934.7383	11654.3	10766.95
925.9906	1936.3552	11627.85	10739.7
926.1292	1937.9714	11588.3	10702.15
926.2678	1939.5868	11547.25	10659.55
926.4064	1941.2015	11480.45	10592.15
926.5449	1942.8154	11455.3	10569.5
926.6834	1944.4286	11423.15	10534.45
926.8219	1946.041	11416.85	10508.25
926.9604	1947.6528	11331.7	10439.95
927.0988	1949.2637	11316.4	10429.25
927.2372	1950.8739	11242.75	10355.25
927.3756	1952.4834	11204.15	10315.7
927.514	1954.0921	11211.2	10325.5
927.6523	1955.7001	11127.4	10238.9
927.7907	1957.3074	11129.3	10244.95
927.929	1958.9139	11082.75	10197.3
928.0673	1960.5197	11024.3	10138.25
928.2055	1962.1247	10993.9	10109.35
928.3438	1963.729	10950.35	10067.95
928.482	1965.3325	10929.75	10021.6
928.6202	1966.9353	10849.6	9967.05
928.7584	1968.5374	10840.35	9952.55
928.8965	1970.1387	10804.4	9920.75
929.0346	1971.7393	10744.85	9860.85
929.1727	1973.3392	10720.15	9835.25
929.3108	1974.9383	10683.2	9799.3
929.4489	1976.5366	10625	9741.6
929.5869	1978.1342	10623.25	9739.8
929.7249	1979.7311	10607.5	9723.15
929.8629	1981.3273	10544.05	9660.75
930.0009	1982.9227	10522.3	9639.1
930.1388	1984.5173	10471.6	9587.3
930.2767	1986.1112	10446.6	9565.25
930.4146	1987.7044	10430.5	9548.7
930.5525	1989.2968	10403.6	9518.7
930.6904	1990.8885	10350.3	9462.75
930.8282	1992.4795	10334.75	9449.7
930.966	1994.0697	10297.2	9415.95
931.1038	1995.6592	10250.15	9367.05
931.2415	1997.2479	10221.15	9338.7
931.3793	1998.8359	10196.6	9312.55
931.517	2000.4232	10165.1	9284.75
931.6547	2002.0097	10130.65	9249.7
931.7923	2003.5955	10060.75	9179.2
931.93	2005.1805	10079	9196.9
932.0676	2006.7648	10039.75	9159.25
932.2052	2008.3484	10010.15	9128.75
932.3427	2009.9312	10013.35	9131
932.4803	2011.5133	9958.35	9077.35
932.6178	2013.0946	9946.95	9067.6
932.7553	2014.6752	9913.8	9034.9
932.8928	2016.2551	9906.9	9026.55
933.0302	2017.8342	9845.25	8963.5
933.1676	2019.4126	9797.25	8918.8
933.305	2020.9902	9755.1	8874.95
933.4424	2022.5672	9738.35	8859
933.5798	2024.1433	9730.6	8846.3
933.7171	2025.7188	9689.6	8810.05
933.8544	2027.2935	9654.2	8772.4
933.9917	2028.8674	9610.7	8729.95
934.129	2030.4406	9601.5	8722.4
934.2662	2032.0131	9543.25	8665.75
934.4034	2033.5849	9518.3	8632.95
934.5406	2035.1559	9520.6	8641.65
934.6778	2036.7261	9501.2	8620.55
934.8149	2038.2957	9456.85	8574.75
934.952	2039.8645	9445.25	8563.3
935.0891	2041.4325	9443.2	8559.5
935.2262	2042.9998	9381.35	8501.2
935.3632	2044.5664	9364.85	8483.55
935.5002	2046.1323	9346.9	8466.2
935.6372	2047.6974	9303.6	8421.1
935.7742	2049.2617	9298.95	8417.75
935.9111	2050.8254	9287.35	8402.55
936.048	2052.3883	9260.9	8378.9
936.1849	2053.9504	9232.55	8350.9
936.3218	2055.5118	9193.55	8312
936.4586	2057.0725	9168.25	8282
936.5955	2058.6325	9131.35	8250.5
936.7323	2060.1917	9113.65	8234
936.869	2061.7502	9072.3	8188.85
937.0058	2063.3079	9049.35	8169.65
937.1425	2064.8649	9014.9	8132.75
937.2792	2066.4212	8976.95	8093.95
937.4159	2067.9767	8967.55	8084.45
937.5525	2069.5315	8939.05	8055.55
937.6891	2071.0856	8890.15	8010.05
937.8257	2072.6389	8868	7987.05
937.9623	2074.1915	8831.1	7951.2
938.0989	2075.7433	8790.8	7910.85
938.2354	2077.2945	8788.4	7908.95
938.3719	2078.8448	8753.8	7871.4
938.5084	2080.3945	8722.4	7840.2
938.6448	2081.9434	8717.75	7837.8
938.7812	2083.4916	8678.35	7795
938.9176	2085.039	8655.8	7771.4
939.054	2086.5857	8638.9	7750.35
939.1903	2088.1317	8617.1	7732.4
939.3267	2089.677	8581.15	7694.85
939.463	2091.2215	8579.75	7695.65
939.5992	2092.7652	8530.05	7645
939.7355	2094.3083	8528.15	7642.2
939.8717	2095.8506	8485.6	7603.2
940.0079	2097.3921	8508.25	7627
940.1441	2098.933	8486.45	7603.55
940.2802	2100.4731	8451.1	7570.45
940.4163	2102.0124	8435.15	7544.1
940.5524	2103.5511	8412.05	7530.6
940.6885	2105.089	8380.15	7494.9
940.8245	2106.6261	8373.5	7491.5
940.9606	2108.1626	8350.05	7467.7
941.0965	2109.6983	8346.6	7434.4
941.2325	2111.2332	8303.8	7420.45
941.3684	2112.7675	8283.2	7398.3
941.5044	2114.301	8240.7	7352.2
941.6403	2115.8337	8249.65	7367.7
941.7761	2117.3657	8211.2	7328.65
941.912	2118.897	8203.85	7318.65
942.0478	2120.4276	8186.4	7294.85
942.1835	2121.9575	8132.1	7243.65
942.3193	2123.4866	8149	7251.9
942.455	2125.0149	8118.75	7231.05
942.5907	2126.5426	8072.65	7191.3
942.7264	2128.0695	8048.1	7161.9
942.8621	2129.5956	8029.65	7150.35
942.9977	2131.1211	8020.4	7136.8
943.1333	2132.6458	7989.55	7107.35
943.2689	2134.1698	7973.35	7089.4
943.4044	2135.693	7957.4	7070.6
943.54	2137.2155	7933.3	7045.1
943.6755	2138.7373	7899.65	7014.35
943.8109	2140.2584	7884.75	7002.7
943.9464	2141.7787	7869	6980.65
944.0818	2143.2983	7834.9	6954.95
944.2172	2144.8171	7787.85	6906.95
944.3526	2146.3353	7783.05	6898.1
944.4879	2147.8527	7731.55	6850.35
944.6232	2149.3693	7747.25	6864.1
944.7585	2150.8853	7745.35	6860.65
944.8938	2152.4005	7673.5	6787.9
945.029	2153.9149	7668.95	6785.75
945.1642	2155.4287	7721.45	6728.85
945.2994	2156.9417	7650.05	6762.65
945.4346	2158.454	7621	6736.85
945.5697	2159.9655	7585.4	6702.5
945.7048	2161.4764	7585.2	6703.2
945.8399	2162.9865	7548.6	6667.45
945.9749	2164.4958	7521.4	6638.95
946.1099	2166.0045	7493	6608.45
946.2449	2167.5124	7483.2	6599.8
946.3799	2169.0195	7461.15	6578.5
946.5148	2170.526	7465.25	6579.45
946.6498	2172.0317	7437.2	6552.45
946.7846	2173.5367	7396.5	6514.55
946.9195	2175.0409	7374.3	6490.95
947.0543	2176.5445	7369.6	6487.2
947.1891	2178.0473	7350.5	6467.45
947.3239	2179.5494	7335.15	6446.3
947.4587	2181.0507	7284.7	6403.4
947.5934	2182.5513	7265.85	6382.65
947.7281	2184.0512	7262.6	6378.7
947.8628	2185.5504	7238.75	6355.7
947.9974	2187.0488	7192.85	6308.65
948.132	2188.5465	7169.55	6286.85
948.2666	2190.0435	7150.45	6265.55
948.4012	2191.5397	7136.25	6252.35
948.5357	2193.0353	7121.55	6237
948.6702	2194.5301	7079.55	6191.85
948.8047	2196.0241	7071.05	6183.2
948.9392	2197.5175	7044.15	6158.3
949.0736	2199.0101	7031.55	6141.6
949.208	2200.502	6988.6	6102.95
949.3424	2201.9931	6949.3	6066.75
949.4767	2203.4835	6945.15	6061.7
949.611	2204.9733	6948.35	6060.35
949.7453	2206.4622	6921.05	6039.75
949.8796	2207.9505	6875.8	5993.25
950.0138	2209.438	6843.75	5963.3
950.148	2210.9248	6841.4	5956.95
950.2822	2212.4109	6810.8	5928.6
950.4164	2213.8962	6790.7	5899.9
950.5505	2215.3809	6800.5	5913.7
950.6846	2216.8648	6778.6	5892.45
950.8186	2218.3479	6744.45	5853.55
950.9527	2219.8304	6728.35	5839.8
951.0867	2221.3121	6709.95	5821.85
951.2207	2222.7931	6673.45	5787.7
951.3546	2224.2733	6654.85	5767.3
951.4886	2225.7529	6631.1	5747.2
951.6225	2227.2317	6605.85	5722.4
951.7563	2228.7098	6581.45	5699.3
951.8902	2230.1872	6560.45	5679
952.024	2231.6638	6552.75	5670.6
952.1578	2233.1397	6558.65	5672.45
952.2916	2234.6149	6510.75	5628.15
952.4253	2236.0894	6491.55	5609.6
952.559	2237.5632	6503.85	5610.3
952.6927	2239.0362	6460.75	5576
952.8263	2240.5085	6428.95	5545.6
952.9599	2241.9801	6425.8	5540.3
953.0935	2243.4509	6409.7	5526.15
953.2271	2244.921	6404.75	5518.95
953.3606	2246.3904	6360.3	5472.1
953.4941	2247.8591	6325.45	5440.75
953.6276	2249.3271	6298.05	5413.45
953.7611	2250.7943	6291.25	5403.75
953.8945	2252.2608	6268.15	5382.75
954.0279	2253.7266	6249.15	5366.75
954.1612	2255.1917	6255.15	5371.55
954.2946	2256.656	6217.75	5332.85
954.4279	2258.1197	6199.1	5317.55
954.5612	2259.5826	6174.8	5290.65
954.6944	2261.0447	6180.4	5295.45
954.8276	2262.5062	6137.1	5251.1
954.9608	2263.9669	6135.75	5249.75
955.094	2265.4269	6132.2	5248.55
955.2271	2266.8862	6108.85	5224.15
955.3602	2268.3448	6102.2	5219.2
955.4933	2269.8026	6061.65	5176.45
955.6264	2271.2598	6054.55	5171
955.7594	2272.7162	6029.1	5148.45
955.8924	2274.1719	6035.1	5150.85
956.0253	2275.6268	5999.7	5114.45
956.1583	2277.0811	6003.75	5116.65
956.2912	2278.5346	5998.25	5115.15
956.4241	2279.9874	5976.3	5094
956.5569	2281.4395	5958.5	5075.7
956.6897	2282.8908	5920.8	5034.2
956.8225	2284.3414	5936.65	5050.45
956.9553	2285.7914	5900.5	5018.2
957.088	2287.2406	5877.65	4990.35
957.2207	2288.689	5873.35	4985.45
957.3534	2290.1368	5839.35	4952.2
957.486	2291.5838	5833.6	4944.45
957.6186	2293.0302	5819.85	4930.8
957.7512	2294.4758	5789.2	4904.25
957.8838	2295.9206	5781.7	4894.75
958.0163	2297.3648	5765.8	4883.15
958.1488	2298.8082	5752.85	4866.05
958.2813	2300.251	5754.45	4869.2
958.4137	2301.693	5722.65	4835.9
958.5461	2303.1343	5717.35	4832
958.6785	2304.5748	5703.15	4817.65
958.8108	2306.0147	5690.6	4805.7
958.9432	2307.4538	5683.15	4798.05
959.0754	2308.8922	5648.15	4766.95
959.2077	2310.3299	5625.75	4743.35
959.3399	2311.7669	5599.5	4717.75
959.4721	2313.2031	5581	4696.8
959.6043	2314.6387	5572.45	4686.25
959.7365	2316.0735	5557.2	4673.95
959.8686	2317.5076	5526.5	4640
960.0006	2318.941	5532.2	4644.2
960.1327	2320.3737	5517.85	4631.65
960.2647	2321.8056	5505.6	4617.95
960.3967	2323.2369	5491.9	4605.35
960.5287	2324.6674	5464.45	4577.55
960.6606	2326.0972	5448.7	4561.35
960.7925	2327.5263	5433	4548.9
960.9244	2328.9547	5423.9	4537.7
961.0562	2330.3823	5407.8	4522.3
961.1881	2331.8092	5407.65	4519.55
961.3198	2333.2355	5376.2	4489.85
961.4516	2334.661	5363.45	4475.7
961.5833	2336.0858	5353.95	4466
961.715	2337.5098	5342.7	4457.35
961.8467	2338.9332	5339.95	4455.2
961.9783	2340.3558	5299.45	4410.6
962.1099	2341.7778	5286.05	4401.9
962.2415	2343.199	5286	4399.8
962.373	2344.6195	5255.1	4371.55
962.5045	2346.0393	5249	4364.7
962.636	2347.4583	5260.1	4375.15
962.7675	2348.8767	5248.05	4360.05
962.8989	2350.2943	5218.7	4330.25
963.0303	2351.7113	5208.75	4320.2
963.1617	2353.1275	5185.55	4296.75
963.293	2354.543	5194.3	4280.65
963.4243	2355.9578	5168.6	4280.4
963.5556	2357.3718	5136.1	4251.05
963.6868	2358.7852	5116.45	4229.1
963.818	2360.1978	5094.65	4209.2
963.9492	2361.6098	5072.2	4186.5
964.0803	2363.021	5080.55	4192.3
964.2114	2364.4315	5053.85	4167.2
964.3425	2365.8413	5032.9	4143.55
964.4736	2367.2504	5016.6	4133.7
964.6046	2368.6587	4989.55	4104.65
964.7356	2370.0664	4980.55	4096.6
964.8666	2371.4733	4974.4	4090.65
964.9975	2372.8795	4958.25	4073.8
965.1284	2374.285	4937.95	4052.35
965.2593	2375.6899	4919.25	4034.5
965.3901	2377.0939	4889.65	4008.05
965.5209	2378.4973	4885.6	4000.55
965.6517	2379.9	4865.4	3979.15
965.7825	2381.3019	4843.5	3959.35
965.9132	2382.7032	4849.75	3966.85
966.0439	2384.1037	4843.55	3961.25
966.1745	2385.5035	4825.8	3943.65
966.3051	2386.9027	4791.45	3910.75
966.4357	2388.3011	4790.25	3905.6
966.5663	2389.6987	4780.85	3896.85
966.6968	2391.0957	4754.25	3872.65
966.8273	2392.492	4744.2	3860.25
966.9578	2393.8876	4720.6	3835.5
967.0882	2395.2824	4708.85	3822.3
967.2186	2396.6765	4683.85	3797.75
967.349	2398.07	4663.3	3780.1
967.4793	2399.4627	4662.6	3774.05
967.6097	2400.8547	4631.1	3746.1
967.7399	2402.246	4634.85	3743.15
967.8702	2403.6366	4602.2	3719.05
968.0004	2405.0265	4585.25	3700.6
968.1306	2406.4156	4584.4	3693.65
968.2607	2407.8041	4574	3685.35
968.3909	2409.1918	4545.9	3659.15
968.521	2410.5789	4539.5	3655.55
968.651	2411.9652	4521.3	3633.35
968.781	2413.3508	4514.3	3628.95
968.911	2414.7358	4488.45	3601.3
969.041	2416.12	4486.85	3602.3
969.1709	2417.5035	4467.4	3582.75
969.3008	2418.8863	4468.45	3582.15
969.4307	2420.2684	4441.45	3555.95
969.5606	2421.6497	4430.2	3545
969.6904	2423.0304	4402.85	3518.05
969.8201	2424.4104	4409.05	3523.75
969.9499	2425.7896	4388.6	3501.75
970.0796	2427.1682	4381.35	3496.1
970.2093	2428.546	4362.7	3476.1
970.3389	2429.9232	4366.45	3481.3
970.4685	2431.2996	4346.25	3459.45
970.5981	2432.6753	4345.75	3461.2
970.7277	2434.0503	4329.35	3444.25
970.8572	2435.4246	4309.6	3422.55
970.9867	2436.7982	4286.9	3398.45
971.1161	2438.1711	4276.4	3389.3
971.2456	2439.5433	4265.1	3378.8
971.375	2440.9148	4251.2	3361.5
971.5043	2442.2856	4232.55	3347.9
971.6336	2443.6557	4217.7	3331.9
971.7629	2445.025	4218.5	3331.65
971.8922	2446.3937	4201.65	3315.45
972.0214	2447.7617	4181	3293.75
972.1506	2449.1289	4192.05	3306.9
972.2798	2450.4955	4174.05	3285.3
972.4089	2451.8613	4161.15	3275.2
972.538	2453.2265	4159.8	3274.8
972.6671	2454.5909	4152.3	3267.2
972.7961	2455.9546	4146.9	3262.95
972.9251	2457.3177	4118.7	3235.1
973.0541	2458.68	4119.85	3232.6
973.1831	2460.0416	4113.2	3227.95
973.312	2461.4025	4104.25	3218.05
973.4408	2462.7627	4087.4	3191.9
973.5697	2464.1222	4067.15	3185.6
973.6985	2465.4811	4068.05	3184
973.8273	2466.8392	4050.25	3166.15
973.956	2468.1966	4050.7	3163.35
974.0847	2469.5533	4052.65	3166.9
974.2134	2470.9093	4035.55	3151.8
974.3421	2472.2645	4036.45	3148.75
974.4707	2473.6191	4007.8	3123.9
974.5993	2474.973	4001.55	3116.75
974.7278	2476.3262	3990.4	3105.15
974.8563	2477.6787	3970.8	3086.6
974.9848	2479.0305	3948.9	3063.3
975.1132	2480.3816	3958.7	3071.15
975.2417	2481.7319	3936.45	3052.95
975.37	2483.0816	3917.6	3032.25
975.4984	2484.4306	3910.95	3026.85
975.6267	2485.7789	3892	3005.75
975.755	2487.1264	3885.4	3000.5
975.8833	2488.4733	3858.05	2975.95
976.0115	2489.8195	3853.95	2961.2
976.1397	2491.165	3850.15	2961.9
976.2678	2492.5097	3839	2950.65
976.3959	2493.8538	3810.75	2925.9
976.524	2495.1972	3796.05	2912
976.6521	2496.5398	3784.45	2898.55
976.7801	2497.8818	3799.45	2912.2
976.9081	2499.2231	3762.45	2875.35
977.036	2500.5637	3763.8	2875.65
977.164	2501.9035	3735.55	2847.2
977.2918	2503.2427	3752.85	2862.3
977.4197	2504.5812	3726.8	2841.85
977.5475	2505.919	3737.05	2846.75
977.6753	2507.256	3726.3	2841.75
977.8031	2508.5924	3703.45	2819.6
977.9308	2509.9281	3703.9	2811.55
978.0585	2511.2631	3693.9	2807.85
978.1861	2512.5974	3677.8	2794.55
978.3137	2513.9309	3677.35	2793.6
978.4413	2515.2638	3671.05	2760.9
978.5689	2516.596	3659.85	2773.55
978.6964	2517.9275	3632.1	2744.8
978.8239	2519.2583	3635	2748.1
978.9513	2520.5884	3622.9	2734.9
979.0788	2521.9178	3600.25	2716.2
979.2062	2523.2465	3589.95	2705.8
979.3335	2524.5745	3577.65	2692.1
979.4608	2525.9018	3567.8	2681.2
979.5881	2527.2284	3568.7	2681.85
979.7154	2528.5543	3555.5	2670.1
979.8426	2529.8796	3546.2	2661.8
979.9698	2531.2041	3548.4	2662.75
980.0969	2532.5279	3527.4	2643.8
980.224	2533.851	3532.25	2646.25
980.3511	2535.1735	3519.45	2634.55
980.4781	2536.4952	3521.05	2634.7
980.6052	2537.8163	3517.55	2632.2
980.7321	2539.1366	3507.75	2621.45
980.8591	2540.4562	3489.3	2601.45
980.986	2541.7752	3480.85	2595.4
981.1129	2543.0935	3478.5	2592.95
981.2397	2544.411	3453.5	2566.1
981.3665	2545.7279	3471.75	2588.05
981.4933	2547.0441	3471	2586.6
981.62	2548.3596	3465.8	2577.2
981.7467	2549.6744	3450.65	2563.4
981.8734	2550.9885	3425.95	2539.8
982.0001	2552.3019	3421	2537
982.1267	2553.6146	3410.3	2526.3
982.2532	2554.9266	3414.15	2527.9
982.3798	2556.2379	3400.6	2512.15
982.5063	2557.5485	3396	2512.2
982.6327	2558.8585	3390.95	2500.35
982.7592	2560.1677	3389.6	2499.35
982.8856	2561.4762	3377.45	2491.55
983.0119	2562.7841	3366.45	2478.75
983.1383	2564.0913	3353.2	2470.35
983.2646	2565.3977	3335.25	2449.3
983.3908	2566.7035	3358.3	2472.85
983.517	2568.0086	3326.8	2439.55
983.6432	2569.313	3341.1	2453.6
983.7694	2570.6167	3322.35	2433.45
983.8955	2571.9197	3323.15	2435.55
984.0216	2573.222	3311.5	2422.05
984.1476	2574.5236	3304.15	2417.7
984.2737	2575.8246	3299.75	2411.25
984.3996	2577.1248	3286.2	2396.45
984.5256	2578.4244	3295.55	2410.2
984.6515	2579.7232	3303.35	2416.7
984.7774	2581.0214	3296.25	2379.25
984.9032	2582.3189	3279.85	2393.8
985.029	2583.6157	3290.75	2399.1
985.1548	2584.9118	3283.4	2398.7
985.2806	2586.2072	3260.45	2373.85
985.4063	2587.5019	3255.45	2368.85
985.5319	2588.7959	3249.5	2362.95
985.6576	2590.0893	3259	2370.95
985.7832	2591.3819	3250.35	2365.8
985.9087	2592.6739	3237.45	2352.55
986.0343	2593.9652	3236.35	2347.65
986.1597	2595.2557	3231.1	2344.55
986.2852	2596.5456	3215.5	2327.05
986.4106	2597.8348	3201.9	2316.4
986.536	2599.1234	3199.15	2314.2
986.6614	2600.4112	3197.9	2311
986.7867	2601.6983	3195.7	2306.25
986.912	2602.9848	3189.5	2303.15
987.0372	2604.2705	3167.65	2274.6
987.1624	2605.5556	3160.6	2274.35
987.2876	2606.84	3164.15	2280.6
987.4128	2608.1237	3147.85	2263.7
987.5379	2609.4067	3149.75	2262.95
987.6629	2610.689	3150.2	2254.25
987.788	2611.9707	3117.55	2228.35
987.913	2613.2516	3120.55	2231.7
988.0379	2614.5319	3101.95	2216.7
988.1629	2615.8115	3090.25	2204.35
988.2878	2617.0903	3083.6	2194.8
988.4126	2618.3685	3077.15	2190.5
988.5375	2619.6461	3061.6	2177.8
988.6622	2620.9229	3065.25	2178.85
988.787	2622.199	3073.75	2188.2
988.9117	2623.4745	3061.2	2174.25
989.0364	2624.7493	3045.9	2160.55
989.161	2626.0234	3038.1	2152.85
989.2857	2627.2968	3033.15	2149.2
989.4102	2628.5695	3020.15	2135.05
989.5348	2629.8415	3021.2	2136.7
989.6593	2631.1128	3004.15	2117.3
989.7837	2632.3835	2989.45	2103.55
989.9082	2633.6535	2985.5	2099.8
990.0326	2634.9228	2980.75	2092.45
990.1569	2636.1914	2981.05	2096.2
990.2812	2637.4593	2967.05	2080.85
990.4055	2638.7265	2972.05	2085
990.5298	2639.9931	2956.85	2071.2
990.654	2641.259	2947.1	2059.15
990.7782	2642.5242	2932.05	2047.35
990.9023	2643.7887	2928.9	2043.4
991.0264	2645.0525	2929.8	2045.2
991.1505	2646.3156	2924.8	2023.8
991.2745	2647.5781	2913.7	2027.75
991.3985	2648.8398	2901.3	2015.75
991.5225	2650.1009	2901.45	1991.15
991.6464	2651.3613	2894.65	2009.9
991.7703	2652.6211	2881.95	1998.1
991.8942	2653.8801	2882.1	1998.45
992.018	2655.1385	2870.4	1983.55
992.1418	2656.3961	2872.5	1988.15
992.2655	2657.6531	2854.55	1971.5
992.3892	2658.9094	2860.8	1976.6
992.5129	2660.1651	2849.05	1964.1
992.6366	2661.42	2845.85	1959.5
992.7602	2662.6743	2841.75	1957.9
992.8837	2663.9279	2855.2	1970.3
993.0073	2665.1808	2840.85	1952.95
993.1307	2666.433	2835.75	1949.25
993.2542	2667.6846	2828	1943.9
993.3776	2668.9354	2824.35	1935.1
993.501	2670.1856	2824	1938.6
993.6244	2671.4351	2807.6	1922.65
993.7477	2672.6839	2813.45	1925.9
993.8709	2673.9321	2817.25	1933.75
993.9942	2675.1795	2801.65	1917.15
994.1174	2676.4263	2798.8	1914.45
994.2405	2677.6724	2801.35	1916.05
994.3637	2678.9179	2799.85	1913.1
994.4868	2680.1626	2800.6	1915.3
994.6098	2681.4067	2784	1898.25
994.7328	2682.6501	2783.6	1899.4
994.8558	2683.8928	2784.45	1899.15
994.9788	2685.1348	2769.5	1884.95
995.1017	2686.3761	2758.05	1872.45
995.2245	2687.6168	2754.05	1869
995.3474	2688.8568	2738.8	1855.2
995.4702	2690.0961	2723.4	1839.15
995.5929	2691.3348	2727.75	1842.7
995.7156	2692.5727	2717.55	1832.35
995.8383	2693.81	2722.4	1837.7
995.961	2695.0466	2699.45	1816.35
996.0836	2696.2826	2698.4	1813.95
996.2062	2697.5178	2696.1	1809.7
996.3287	2698.7524	2692.05	1808.45
996.4512	2699.9863	2687.5	1800.15
996.5737	2701.2195	2683.05	1798
996.6961	2702.452	2687.1	1801.3
996.8185	2703.6839	2678.8	1794.3
996.9408	2704.9151	2682.55	1799.25
997.0631	2706.1456	2680.35	1796.75
997.1854	2707.3755	2678.05	1791.25
997.3077	2708.6046	2677.65	1791.2
997.4299	2709.8331	2682.15	1798.2
997.552	2711.0609	2681.75	1797.95
997.6742	2712.2881	2686.85	1803.5
997.7963	2713.5145	2696.35	1807.5
997.9183	2714.7403	2697.55	1813.85
998.0403	2715.9654	2692.55	1807.5
998.1623	2717.1899	2712.8	1817.15
998.2842	2718.4136	2707.65	1824.9
998.4062	2719.6367	2720.7	1836.4
998.528	2720.8591	2719.5	1827.6
998.6498	2722.0809	2721.65	1837.25
998.7716	2723.3019	2733.65	1848.1
998.8934	2724.5223	2732.05	1846.8
999.0151	2725.7421	2726.2	1841
999.1368	2726.9611	2739.2	1854.3
999.2584	2728.1795	2725.1	1837.25
999.38	2729.3972	2709.65	1825.6
999.5016	2730.6142	2703.9	1806.5
999.6231	2731.8306	2682.45	1797.95
999.7446	2733.0462	2637.15	1750.7
999.8661	2734.2612	2633.45	1744.25
999.9875	2735.4756	2618.35	1731.9
1000.1089	2736.6892	2596.2	1712.15
1000.2302	2737.9022	2565.35	1681.7
1000.3515	2739.1145	2538.25	1652
1000.4728	2740.3262	2530.7	1638.8
1000.594	2741.5372	2517.15	1634.45
1000.7152	2742.7475	2515.7	1632.15
1000.8363	2743.9571	2491.85	1607.65
1000.9575	2745.1661	2475.5	1584.5
1001.0785	2746.3744	2458.45	1574.75
1001.1996	2747.582	2449	1564.5
1001.3206	2748.7889	2443.5	1557
1001.4415	2749.9952	2430.85	1547.45
1001.5625	2751.2008	2423.05	1538.25
1001.6833	2752.4057	2417.3	1532.3
1001.8042	2753.61	2411.95	1529.7
1001.925	2754.8136	2399.85	1513.7
1002.0458	2756.0165	2404.7	1522
1002.1665	2757.2188	2396.85	1514.4
1002.2872	2758.4204	2373.15	1490.8
1002.4078	2759.6213	2375.1	1489.65
1002.5285	2760.8215	2377.6	1489.7
1002.649	2762.0211	2375.25	1489.15
1002.7696	2763.22	2365.1	1478.4
1002.8901	2764.4182	2360	1474.85
1003.0106	2765.6158	2347.9	1463.75
1003.131	2766.8127	2352.15	1467.9
1003.2514	2768.009	2331.3	1448.35
1003.3717	2769.2045	2333.85	1448.85
1003.492	2770.3994	2320.4	1436.1
1003.6123	2771.5936	2326.9	1442.05
1003.7325	2772.7872	2311.2	1429.05
1003.8527	2773.9801	2298.45	1412.5
1003.9729	2775.1723	2319	1418.65
1004.093	2776.3639	2301.65	1418.65
1004.2131	2777.5548	2303.65	1418.6
1004.3331	2778.745	2305.35	1419.3
1004.4531	2779.9346	2296.45	1414.2
1004.5731	2781.1235	2300.75	1416.6
1004.693	2782.3117	2294.8	1412.95
1004.8129	2783.4992	2279.75	1396.2
1004.9328	2784.6861	2286.2	1401.25
1005.0526	2785.8723	2295.1	1410.1
1005.1723	2787.0579	2294.75	1409.75
1005.2921	2788.2428	2295.4	1411.85
1005.4118	2789.427	2299.45	1417.05
1005.5314	2790.6106	2301.05	1419.55
1005.651	2791.7935	2316.95	1434
1005.7706	2792.9757	2319.55	1438.85
1005.8902	2794.1573	2322.25	1438.35
1006.0097	2795.3382	2343.6	1459.95
1006.1291	2796.5184	2337.1	1454.95
1006.2485	2797.698	2354.85	1469.9
1006.3679	2798.8769	2377.65	1494.7
1006.4873	2800.0551	2387.1	1504.2
1006.6066	2801.2327	2405.15	1519.75
1006.7258	2802.4096	2410.35	1528.2
1006.8451	2803.5859	2442.45	1558.35
1006.9642	2804.7615	2447.45	1565.75
1007.0834	2805.9364	2476	1593.85
1007.2025	2807.1106	2496.65	1614.8
1007.3216	2808.2842	2531.5	1648
1007.4406	2809.4572	2555.15	1672.2
1007.5596	2810.6294	2589.75	1704.95
1007.6785	2811.801	2645.4	1763.65
1007.7975	2812.972	2673.3	1790.6
1007.9163	2814.1423	2706.35	1822.6
1008.0352	2815.3119	2755.2	1872.4
1008.154	2816.4808	2795.95	1913.7
1008.2727	2817.6491	2838.25	1954.55
1008.3914	2818.8167	2895.45	2014.3
1008.5101	2819.9837	2936.75	2048.7
1008.6288	2821.15	2983.8	2101.45
1008.7474	2822.3157	3016.25	2133.35
1008.8659	2823.4807	3057.8	2175
1008.9844	2824.645	3106	2222.9
1009.1029	2825.8086	3154.25	2273.35
1009.2214	2826.9716	3178.7	2296.75
1009.3398	2828.134	3207.85	2325.55
1009.4581	2829.2957	3255.3	2372.95
1009.5764	2830.4567	3279.05	2399.6
1009.6947	2831.617	3292.3	2409.5
1009.813	2832.7767	3298.8	2417.3
1009.9312	2833.9358	3297.4	2415.65
1010.0493	2835.0941	3295.4	2408.6
1010.1675	2836.2519	3272.75	2391.15
1010.2855	2837.4089	3258.7	2375.25
1010.4036	2838.5653	3253.2	2371
1010.5216	2839.7211	3268.4	2387.65
1010.6396	2840.8761	3272.3	2389.5
1010.7575	2842.0306	3286.9	2407.55
1010.8754	2843.1843	3320.2	2437.9
1010.9932	2844.3374	3378.45	2497.55
1011.111	2845.4899	3432.5	2549.4
1011.2288	2846.6417	3492.1	2608.2
1011.3465	2847.7928	3583.3	2703
1011.4642	2848.9433	3659.75	2779.8
1011.5818	2850.0931	3740.75	2858.6
1011.6995	2851.2422	3823.8	2938.45
1011.817	2852.3907	3881.35	2997.95
1011.9345	2853.5385	3943.95	3061.4
1012.052	2854.6857	4009.75	3119.05
1012.1695	2855.8323	4052.9	3170.5
1012.2869	2856.9781	4096	3213.7
1012.4042	2858.1233	4151	3268.85
1012.5216	2859.2679	4185.75	3304.2
1012.6389	2860.4118	4228.5	3347.25
1012.7561	2861.555	4270.75	3385.55
1012.8733	2862.6976	4305.35	3421.4
1012.9905	2863.8395	4319.4	3437.55
1013.1076	2864.9808	4349.7	3466.7
1013.2247	2866.1214	4351.45	3472.6
1013.3417	2867.2614	4370.8	3486.75
1013.4587	2868.4007	4370.8	3488.15
1013.5757	2869.5393	4379.15	3496.4
1013.6926	2870.6773	4379.5	3494.95
1013.8095	2871.8146	4400.1	3514.6
1013.9263	2872.9513	4402.65	3520
1014.0431	2874.0874	4393.85	3512.8
1014.1599	2875.2227	4385.15	3501.75
1014.2766	2876.3574	4372.95	3490.25
1014.3933	2877.4915	4341.8	3460.8
1014.51	2878.6249	4304.05	3423.95
1014.6266	2879.7577	4270.95	3388.8
1014.7431	2880.8898	4269.2	3375.55
1014.8596	2882.0212	4225.75	3346.55
1014.9761	2883.152	4226.85	3342.3
1015.0925	2884.2821	4198.65	3319.85
1015.2089	2885.4116	4218.55	3337.85
1015.3253	2886.5405	4192.7	3312.1
1015.4416	2887.6686	4208.8	3324.4
1015.5579	2888.7962	4200.3	3318.85
1015.6741	2889.923	4181.6	3301.4
1015.7903	2891.0493	4218.8	3337.45
1015.9065	2892.1748	4219.7	3336.7
1016.0226	2893.2997	4222.7	3340.4
1016.1387	2894.424	4248.5	3367.15
1016.2547	2895.5476	4274.15	3390.95
1016.3707	2896.6706	4279.45	3397.6
1016.4866	2897.7929	4304	3421.55
1016.6025	2898.9145	4333.05	3451.4
1016.7184	2900.0355	4368.4	3485.6
1016.8342	2901.1559	4399.05	3516.4
1016.95	2902.2756	4423.6	3541.85
1017.0658	2903.3946	4430.05	3550.15
1017.1815	2904.513	4470.35	3584.2
1017.2971	2905.6308	4482.4	3602.05
1017.4127	2906.7479	4523.6	3642.55
1017.5283	2907.8643	4552.65	3670.55
1017.6439	2908.9801	4555.95	3673.8
1017.7594	2910.0953	4559.9	3678.85
1017.8748	2911.2098	4553.55	3668.25
1017.9902	2912.3236	4538	3648.3
1018.1056	2913.4368	4536.8	3654.2
1018.2209	2914.5494	4506.45	3625.85
1018.3362	2915.6613	4482.55	3594
1018.4515	2916.7725	4454.2	3569.3
1018.5667	2917.8831	4436.6	3553.7
1018.6819	2918.9931	4387.85	3504.7
1018.797	2920.1024	4360.6	3478.75
1018.9121	2921.211	4340.6	3460.5
1019.0271	2922.319	4313.55	3430.75
1019.1421	2923.4264	4289.4	3407.6
1019.2571	2924.5331	4269.5	3390.1
1019.372	2925.6391	4254.6	3374.85
1019.4869	2926.7445	4243.55	3365.85
1019.6017	2927.8493	4238.3	3357.1
1019.7165	2928.9534	4228.4	3346.15
1019.8313	2930.0569	4215	3331.2
1019.946	2931.1597	4209.35	3328.15
1020.0606	2932.2619	4192.9	3311.2
1020.1753	2933.3634	4191	3310.45
1020.2899	2934.4643	4183.85	3296.1
1020.4044	2935.5645	4157.1	3271.05
1020.5189	2936.6641	4107.05	3222.35
1020.6334	2937.763	4067.65	3187.2
1020.7478	2938.8613	4023.35	3144.3
1020.8622	2939.959	3961.7	3073.4
1020.9765	2941.056	3866.15	2987.3
1021.0908	2942.1523	3781	2897.6
1021.2051	2943.248	3704.05	2822.6
1021.3193	2944.3431	3569.65	2691.4
1021.4334	2945.4375	3493.1	2612.45
1021.5476	2946.5313	3388.95	2510.2
1021.6617	2947.6244	3288.55	2406.5
1021.7757	2948.7169	3178.95	2299.45
1021.8897	2949.8087	3071.05	2189.6
1022.0037	2950.8999	2971.85	2090.2
1022.1176	2951.9904	2888.3	2007.3
1022.2315	2953.0803	2818.3	1936.65
1022.3453	2954.1696	2749.85	1868.95
1022.4591	2955.2582	2694.8	1816.2
1022.5728	2956.3462	2647.4	1765.1
1022.6865	2957.4335	2617.15	1737.9
1022.8002	2958.5202	2576.4	1694.2
1022.9138	2959.6062	2541.75	1661.5
1023.0274	2960.6916	2531.4	1651.4
1023.141	2961.7764	2508.7	1626.45
1023.2545	2962.8605	2492.55	1611.3
1023.3679	2963.9439	2470.95	1590.6
1023.4813	2965.0267	2460.2	1577.65
1023.5947	2966.1089	2476.85	1573.45
1023.708	2967.1905	2449.9	1570.8
1023.8213	2968.2714	2429.05	1549.75
1023.9346	2969.3516	2431.5	1551.65
1024.0478	2970.4312	2433.55	1545.4
1024.1609	2971.5102	2436.65	1557.25
1024.274	2972.5885	2434	1552.15
1024.3871	2973.6662	2428.7	1543.3
1024.5002	2974.7432	2418.55	1537.9
1024.6132	2975.8196	2416.7	1536.4
1024.7261	2976.8954	2394.85	1516.95
1024.839	2977.9705	2391.4	1510
1024.9519	2979.045	2370.95	1491.25
1025.0647	2980.1188	2353.95	1474.75
1025.1775	2981.192	2338.7	1458.7
1025.2902	2982.2645	2322.1	1442.05
1025.4029	2983.3364	2281.65	1400.5
1025.5156	2984.4077	2247.5	1368.2
1025.6282	2985.4783	2211.9	1325.55
1025.7407	2986.5483	2188.2	1308.55
1025.8532	2987.6177	2149.35	1269.75
1025.9657	2988.6864	2116.85	1236
1026.0782	2989.7545	2083.2	1202.1
1026.1906	2990.8219	2039.6	1159.2
1026.3029	2991.8887	2007.9	1127.05
1026.4152	2992.9548	1981.7	1100.15
1026.5275	2994.0204	1950.3	1070.15
1026.6397	2995.0852	1919.25	1040.6
1026.7519	2996.1495	1890.95	1009.8
1026.864	2997.2131	1864	984.4
1026.9761	2998.276	1855.1	974.45
1027.0882	2999.3383	1821.65	941.25
1027.2002	3000.4	1801.85	921.75
1027.3122	3001.4611	1788.35	908.6
1027.4241	3002.5215	1775.5	894.9
1027.536	3003.5812	1754.6	874.35
1027.6478	3004.6404	1737	858.15
1027.7596	3005.6989	1728.85	847.3
1027.8714	3006.7567	1720.1	840.3
1027.9831	3007.8139	1735.25	836.8
1028.0947	3008.8705	1703.1	824.95
1028.2064	3009.9264	1718.85	820.95
1028.3179	3010.9818	1701.35	823.35
1028.4295	3012.0364	1690.2	810.6
1028.541	3013.0905	1684.55	802.3
1028.6524	3014.1439	1683.35	804.05
1028.7638	3015.1966	1678.7	798
1028.8752	3016.2487	1673.3	792.35
1028.9865	3017.3002	1679.25	791.55
1029.0978	3018.3511	1673.9	795.7
1029.209	3019.4013	1673.6	794.55
1029.3202	3020.4509	1670.25	791.45
1029.4314	3021.4998	1666.85	785.25
1029.5425	3022.5481	1668.4	789.85
1029.6535	3023.5958	1668.05	790.4
1029.7645	3024.6428	1672.9	791.1
1029.8755	3025.6892	1668.15	788.3
1029.9864	3026.735	1672.35	792.85
1030.0973	3027.7802	1675.35	795.25
1030.2082	3028.8247	1668	789.65
1030.319	3029.8685	1674.15	794.5
1030.4297	3030.9118	1684.95	804.05
1030.5404	3031.9544	1673	793.05
1030.6511	3032.9963	1683.15	803.85
1030.7617	3034.0376	1689.7	810.7
1030.8723	3035.0783	1694.45	812.25
1030.9829	3036.1184	1695.65	814.25
1031.0934	3037.1578	1690.6	811.6
1031.2038	3038.1966	1694.4	812.95
1031.3142	3039.2348	1696.85	817.6
1031.4246	3040.2723	1705.35	815.65
1031.5349	3041.3092	1698.95	820.25
1031.6452	3042.3455	1691.9	812.3
1031.7554	3043.3811	1681.25	802.05
1031.8656	3044.4161	1674	791.9
1031.9758	3045.4505	1668.3	790.25
1032.0859	3046.4842	1670.9	790.95
1032.1959	3047.5173	1656.05	778.1
1032.3059	3048.5498	1646.5	766.5
1032.4159	3049.5816	1638.15	757.15
1032.5258	3050.6128	1635.35	754.8
1032.6357	3051.6434	1623.05	743.5
1032.7455	3052.6734	1607.35	726.9
1032.8553	3053.7027	1605.05	726.4
1032.9651	3054.7314	1597.25	716.65
1033.0748	3055.7594	1590.85	711.15
1033.1845	3056.7868	1580.7	701.8
1033.2941	3057.8136	1571.25	691.55
1033.4037	3058.8398	1570	691.05
1033.5132	3059.8653	1566.7	686.9
1033.6227	3060.8902	1565.7	686.65
1033.7321	3061.9145	1554.5	673.95
1033.8415	3062.9381	1540.8	661.9
1033.9509	3063.9612	1544.25	649.2
1034.0602	3064.9835	1535.15	654.2
1034.1694	3066.0053	1528.25	646.65
1034.2787	3067.0264	1518.1	638.2
1034.3878	3068.0469	1518.45	637.7
1034.497	3069.0668	1497.35	616.5
1034.6061	3070.086	1495.2	617.2
1034.7151	3071.1046	1480.9	598.55
1034.8241	3072.1226	1472.35	593.1
1034.9331	3073.1399	1461.2	581.9
1035.042	3074.1567	1449.6	570.1
1035.1508	3075.1727	1445.15	562.8
1035.2597	3076.1882	1432.65	554.2
1035.3684	3077.203	1414.8	536.35
1035.4772	3078.2173	1411.15	530.85
1035.5859	3079.2308	1401.65	517.8
1035.6945	3080.2438	1398	516.35
1035.8031	3081.2561	1388.6	508.65
1035.9117	3082.2678	1379.7	501.85
1036.0202	3083.2789	1368.6	488.95
1036.1286	3084.2893	1360.55	481.5
1036.2371	3085.2991	1350.7	472.95
1036.3454	3086.3083	1354.25	468.85
1036.4538	3087.3169	1346.65	466.95
1036.562	3088.3248	1332	450.9
1036.6703	3089.3321	1336.2	454.3
1036.7785	3090.3388	1322.75	443
1036.8866	3091.3449	1317.4	439.85
1036.9948	3092.3503	1319.6	438.2
1037.1028	3093.3551	1311.6	433.1
1037.2108	3094.3593	1307.85	429
1037.3188	3095.3629	1301.25	423.9
1037.4267	3096.3658	1299.55	420.5
1037.5346	3097.3681	1294.25	416.05
1037.6425	3098.3698	1291.25	409.7
1037.7503	3099.3708	1297.2	409.5
1037.858	3100.3713	1282.7	404.05
1037.9657	3101.3711	1279.75	398.15
1038.0734	3102.3702	1408.65	396.4
1038.181	3103.3688	1277.55	397.65
1038.2886	3104.3667	1269.05	391.15
1038.3961	3105.364	1261.15	383.55
1038.5036	3106.3607	1267.6	387.8
1038.611	3107.3568	1262.05	382.55
1038.7184	3108.3522	1260.85	383.4
1038.8257	3109.347	1256.35	377.2
1038.933	3110.3412	1252.9	367.3
1039.0403	3111.3348	1250.35	371.2
1039.1475	3112.3277	1251.2	373.05
1039.2547	3113.32	1236.5	358.3
1039.3618	3114.3117	1242.4	360.8
1039.4689	3115.3028	1245	366.25
1039.5759	3116.2932	1234.9	352.45
1039.6829	3117.2831	1239.9	355.4
1039.7898	3118.2723	1233.5	353.7
1039.8967	3119.2608	1230.45	350.7
1040.0035	3120.2488	1229.65	348.65
1040.1103	3121.2361	1223.75	344.35
1040.2171	3122.2229	1229.75	350.65
1040.3238	3123.209	1219.5	338.45
1040.4305	3124.1944	1219.75	341.1
1040.5371	3125.1793	1221.65	339.7
1040.6437	3126.1635	1215.65	338.6
1040.7502	3127.1471	1213.25	336
1040.8567	3128.1301	1209.65	330.1
1040.9631	3129.1125	1204.7	326.2
1041.0695	3130.0942	1209.25	330.05
1041.1759	3131.0753	1216.1	326.25
1041.2822	3132.0558	1210.3	328.85
1041.3884	3133.0357	1200.6	320.65
1041.4946	3134.015	1201.2	322.55
1041.6008	3134.9936	1193.5	314.75
1041.7069	3135.9716	1219.8	317.85
1041.813	3136.949	1192.6	314
1041.919	3137.9258	1212.65	313.9
1042.025	3138.902	1198	313.1
1042.1309	3139.8775	1184.55	305.45
1042.2368	3140.8524	1188.75	310.3
1042.3427	3141.8267	1186.8	306.15
1042.4485	3142.8004	1186.15	307.8
1042.5542	3143.7735	1187.3	302.45
1042.6599	3144.7459	1180.85	299.95
1042.7656	3145.7178	1178.25	298.1
1042.8712	3146.689	1171.1	294.7
1042.9768	3147.6596	1170.05	289.45
1043.0823	3148.6295	1170.9	292.55
1043.1878	3149.5989	1169.85	291
1043.2932	3150.5676	1165.25	286.55
1043.3986	3151.5357	1162.5	284.4
1043.5039	3152.5032	1164.85	285.55
1043.6092	3153.4701	1164.7	286.65
1043.7145	3154.4364	1160.85	280.75
1043.8197	3155.402	1158.65	280.75
1043.9248	3156.367	1155.6	274.25
1044.03	3157.3315	1180.8	275.65
1044.135	3158.2952	1153.75	273.75
1044.24	3159.2584	1154.3	276.75
1044.345	3160.221	1145.9	266.7
1044.4499	3161.1829	1150.55	273.3
1044.5548	3162.1442	1150.6	274.75
1044.6596	3163.105	1141.1	262.05
1044.7644	3164.065	1149.2	272.6
1044.8692	3165.0245	1142.8	262.05
1044.9739	3165.9834	1139.1	260.95
1045.0785	3166.9416	1137.8	258.9
1045.1831	3167.8993	1142	263.25
1045.2877	3168.8563	1131.95	254.9
1045.3922	3169.8127	1128.95	252.55
1045.4966	3170.7684	1132.1	253.2
1045.6011	3171.7236	1132.25	251.45
1045.7054	3172.6782	1128.4	248.85
1045.8098	3173.6321	1131.2	253.65
1045.914	3174.5854	1127.6	242.95
1046.0183	3175.5381	1127.4	250.85
1046.1224	3176.4902	1124.1	246.6
1046.2266	3177.4417	1116.7	236.4
1046.3307	3178.3926	1121.9	243.3
1046.4347	3179.3428	1123.2	245.05
1046.5387	3180.2924	1119.55	242.05
1046.6427	3181.2415	1116	237.2
1046.7466	3182.1899	1117.3	235.55
1046.8504	3183.1377	1116.9	238.8
1046.9542	3184.0848	1114.75	231.4
1047.058	3185.0314	1115.9	235.35
1047.1617	3185.9773	1113.45	235.7
1047.2654	3186.9227	1109.45	228.95
1047.369	3187.8674	1104.6	226.6
1047.4726	3188.8115	1112	229.35
1047.5761	3189.755	1108.5	230.05
1047.6796	3190.6979	1104.35	227.05
1047.783	3191.6402	1106.05	229.15
1047.8864	3192.5818	1098.8	220.5
1047.9898	3193.5229	1112.45	221.4
1048.0931	3194.4633	1104.25	226.6
1048.1963	3195.4031	1100.2	223.35
1048.2995	3196.3423	1095.9	217.35
1048.4027	3197.2809	1097.7	219.25
1048.5058	3198.2189	1100.05	222.85
1048.6089	3199.1563	1099.05	213.2
1048.7119	3200.0931	1089.9	211.7
1048.8148	3201.0292	1092.2	215.5
1048.9178	3201.9648	1092.2	214.45
1049.0206	3202.8997	1092.65	212.05
1049.1235	3203.834	1087.05	208.3
1049.2262	3204.7677	1087.6	208.7
1049.329	3205.7008	1090.2	210.6
1049.4317	3206.6333	1079.05	202.15
1049.5343	3207.5652	1086.3	207.1
1049.6369	3208.4964	1084.65	205.95
1049.7394	3209.4271	1079.15	201.8
1049.8419	3210.3571	1078.25	198.6
1049.9444	3211.2865	1080.3	200.55
1050.0468	3212.2154	1080.4	202.55
1050.1491	3213.1436	1080.05	200.4
1050.2514	3214.0712	1081.75	197.15
1050.3537	3214.9982	1074.6	196.3
1050.4559	3215.9246	1075	196
1050.5581	3216.8503	1071.65	194.4
1050.6602	3217.7755	1077.2	198.9
1050.7623	3218.7001	1073.15	195.5
1050.8643	3219.624	1071.65	193.05
1050.9663	3220.5473	1071.05	192.95
1051.0682	3221.4701	1073.45	194.05
1051.1701	3222.3922	1064.55	185.8
1051.2719	3223.3137	1069.55	192
1051.3737	3224.2346	1062.55	184.3
1051.4754	3225.1549	1066.1	188.5
1051.5771	3226.0746	1065.95	186.75
1051.6788	3226.9937	1066.95	188.45
1051.7804	3227.9121	1063.6	186.5
1051.8819	3228.83	1058.15	180.05
1051.9834	3229.7473	1061.35	180.7
1052.0849	3230.6639	1058.95	180.9
1052.1863	3231.5799	1054.3	175.75
1052.2876	3232.4954	1056.45	175.3
1052.3889	3233.4102	1053.85	176.4
1052.4902	3234.3244	1056.65	178.9
1052.5914	3235.238	1054.7	175.4
1052.6926	3236.151	1081.95	180.35
1052.7937	3237.0634	1051.45	173.4
1052.8948	3237.9752	1050.8	170.75
1052.9958	3238.8864	1054.15	175.85
1053.0968	3239.797	1052.1	173.95
1053.1977	3240.7069	1047.85	168.25
1053.2986	3241.6163	1045.8	166
1053.3994	3242.5251	1044.45	166.3
1053.5002	3243.4332	1043.1	166.7
1053.6009	3244.3408	1046.05	167.05
1053.7016	3245.2477	1038.75	162.25
1053.8022	3246.154	1042.5	164.1
1053.9028	3247.0598	1043.2	166
1054.0034	3247.9649	1038.65	160.85
1054.1039	3248.8694	1037.65	160.85
1054.2043	3249.7733	1040.35	163
1054.3047	3250.6766	1034.85	157.25
1054.4051	3251.5793	1041.4	163.1
1054.5054	3252.4814	1032.55	155.85
1054.6056	3253.3829	1034.75	156.6
1054.7058	3254.2838	1032.65	156.45
1054.806	3255.1841	1034.1	155.45
1054.9061	3256.0838	1027.95	148.95
1055.0061	3256.9829	1025.05	149.2
1055.1062	3257.8814	1028.5	147.65
1055.2061	3258.7792	1027.25	148.5
1055.306	3259.6765	1024.9	145.65
1055.4059	3260.5731	1023.25	145.6
1055.5057	3261.4692	1020.3	140.25
1055.6055	3262.3647	1016.8	137.25
1055.7052	3263.2595	1018.4	140.45
1055.8049	3264.1538	1016.2	138
1055.9045	3265.0474	1014.75	135.55
1056.0041	3265.9404	1007.95	131.4
1056.1036	3266.8329	1007.4	129.3
1056.2031	3267.7247	1016.95	128.8
1056.3025	3268.616	1001.05	122.15
1056.4019	3269.5066	1000.05	123.3
1056.5013	3270.3966	1003.5	123.8
1056.6005	3271.286	995.45	120.35
