Software Version:	3.9.2.0
Unit SN:	10000200
Spectrometer SN:	6960
Date:	3/26/2024 1:35:32 PM
Data Line Index:	25
Spectral Points:	2048
Integration time (ms):	125
Averages:	20
Delay (ms):	30000
Sequence Number:	1
Processing:	dark subtract
Laser Power (mW):	305
Laser Current (mA):	820
Laser Diode Temp (C):	25
Laser Case Temp (C):	27
System Temp (C):	27
Spectrometer Temp (C):	24.7
CCD Temp (C):	0.008
Secondary Temp (C):	20.008
Heatsink Temp (C):	22.577
CCDPCB Temp (C):	36.64
SecondaryPCB Temp (C):	34.139

Wavelength	RamanShift	Raw Counts	Dark Subtracted
787.061	30.1047	576.95	164.55
787.2016	32.3739	587.9	178.25
787.3422	34.6426	599.8	187.75
787.4828	36.9109	615.75	202.2
787.6235	39.1787	631.35	214.05
787.7642	41.4461	653	230.15
787.9049	43.7131	670.95	245.45
788.0456	45.9796	690.9	264.35
788.1863	48.2456	706.45	273.75
788.3271	50.5112	725.15	289.1
788.4679	52.7764	744.2	304.8
788.6087	55.0411	774.45	332.2
788.7496	57.3054	788.3	342.7
788.8904	59.5692	816.6	367.6
789.0313	61.8326	842.2	391
789.1722	64.0955	876.75	419.65
789.3132	66.3579	911.4	448.55
789.4541	68.6199	956.85	493.6
789.5951	70.8815	1029.5	563.15
789.7361	73.1426	1200.5	730.35
789.8771	75.4032	1612.25	1137.4
790.0181	77.6634	2650.35	2165.1
790.1592	79.9231	5199.65	4707.55
790.3003	82.1824	11002.05	10493.65
790.4414	84.4412	22556.9	22024.55
790.5825	86.6995	41846.3	41272.65
790.7237	88.9574	53747.25	53141.55
790.8648	91.2148	59101.7	58477.1
791.006	93.4717	60285.45	59640.75
791.1472	95.7282	60758.6	60103.8
791.2885	97.9842	60931.45	60273.55
791.4297	100.2398	60878.95	60217.45
791.571	102.4949	60728.95	60064.9
791.7123	104.7495	60711.05	60044.8
791.8536	107.0036	60454.5	59786.1
791.9949	109.2573	60608.35	59943.9
792.1363	111.5105	60292.7	59622.95
792.2777	113.7632	60334.9	59661.9
792.4191	116.0154	60343.45	59662.7
792.5605	118.2672	60466	59792.05
792.7019	120.5185	60387.85	59713.7
792.8434	122.7693	60350.6	59672.5
792.9849	125.0197	60090	59412.7
793.1264	127.2696	60522.55	59840.5
793.2679	129.519	60442.8	59754.85
793.4094	131.7679	60618.5	59928.35
793.551	134.0163	60053.8	59358.1
793.6926	136.2642	60241.95	59540
793.8342	138.5117	60478.6	59763
793.9758	140.7587	60325.7	59625
794.1175	143.0052	60276.95	59572.65
794.2591	145.2512	59983.25	59276.5
794.4008	147.4967	60280.8	59578.6
794.5425	149.7417	60163.55	59456.2
794.6842	151.9863	60140.55	59429.75
794.826	154.2304	59914.9	59199.7
794.9677	156.4739	60004.95	59282.1
795.1095	158.717	60207.75	59486.8
795.2513	160.9596	60036.85	59311.85
795.3931	163.2017	59705.25	58978.3
795.535	165.4433	59957.2	59229.75
795.6768	167.6844	59758.95	59029.45
795.8187	169.925	59864.75	59133.8
795.9606	172.1651	59649.9	58916.6
796.1025	174.4047	59694.3	58957.2
796.2445	176.6439	59638.7	58904.2
796.3864	178.8825	59515.3	58772.3
796.5284	181.1206	59754.35	59004.05
796.6704	183.3582	59656.6	58902.05
796.8124	185.5954	59507.1	58751.5
796.9544	187.832	59556.25	58804.35
797.0965	190.0681	59380.1	58624
797.2386	192.3037	59665.35	58904.5
797.3806	194.5388	59957.7	59193.15
797.5228	196.7734	59173.55	58404.45
797.6649	199.0075	59902.4	59129.2
797.807	201.2411	59677.9	58901.65
797.9492	203.4742	60057.7	59278.95
798.0914	205.7068	59998.6	59224.1
798.2336	207.9389	59993.2	59217.8
798.3758	210.1704	59936.85	59159
798.518	212.4015	60171.45	59388.85
798.6603	214.632	59916.1	59130.7
798.8025	216.862	60217.95	59443.3
798.9448	219.0915	60093.1	59325.6
799.0871	221.3205	60061.85	59295.3
799.2294	223.549	60324	59557.1
799.3718	225.777	60289.75	59529.05
799.5141	228.0044	60422.65	59659.4
799.6565	230.2314	60346.4	59583.05
799.7989	232.4578	60342.85	59583.35
799.9413	234.6837	60405.05	59638.05
800.0837	236.909	60869.1	60099.9
800.2262	239.1339	60206.85	59412.4
800.3687	241.3582	60486.55	59702.65
800.5111	243.582	60481.4	59669.4
800.6536	245.8053	60461.1	59662.7
800.7961	248.0281	60460.7	59666.3
800.9387	250.2503	60509.8	59712.45
801.0812	252.472	60360.85	59554.65
801.2238	254.6932	60505.75	59698.1
801.3664	256.9139	60427.3	59618.2
801.509	259.134	60872.35	60059.75
801.6516	261.3536	60410.2	59599.35
801.7942	263.5727	60702.3	59886.85
801.9369	265.7912	60571.9	59763.75
802.0795	268.0092	60674.85	59863.15
802.2222	270.2267	60732.05	59915.4
802.3649	272.4436	60512.85	59698.05
802.5076	274.6601	60720.3	59897.4
802.6504	276.8759	60751.1	59938.5
802.7931	279.0913	60627.45	59812.35
802.9359	281.3061	60659.2	59838.6
803.0787	283.5204	60718.9	59897.05
803.2215	285.7341	60658.1	59828.7
803.3643	287.9473	60881.55	60041.7
803.5071	290.16	60720.25	59885.6
803.6499	292.3721	60849.3	60025.65
803.7928	294.5837	60696.55	59868.9
803.9357	296.7947	60545.9	59715.7
804.0786	299.0052	60895.4	60066.95
804.2215	301.2152	60774.65	59942
804.3644	303.4246	60887.55	60061.7
804.5074	305.6334	60809.6	59985.2
804.6503	307.8418	60467.2	59636.85
804.7933	310.0495	60417	59583.45
804.9363	312.2568	60364.8	59529.8
805.0793	314.4635	60297.4	59461.35
805.2223	316.6696	60366.4	59530.9
805.3653	318.8752	60437.35	59591.65
805.5084	321.0802	59989.85	59154.1
805.6514	323.2847	60176.15	59335.3
805.7945	325.4887	60175.1	59337.5
805.9376	327.692	60080.7	59238.55
806.0807	329.8949	60177.7	59333.3
806.2238	332.0972	60036.3	59195.85
806.367	334.2989	60029.25	59182.45
806.5101	336.5001	60129.75	59285.2
806.6533	338.7007	59803.5	58953.4
806.7965	340.9008	59982.6	59132.95
806.9397	343.1003	59977	59124.4
807.0829	345.2992	60050.25	59196.7
807.2261	347.4976	59884.75	59032.2
807.3693	349.6955	59933.85	59077.55
807.5126	351.8927	59811.85	58952.65
807.6559	354.0895	59922.15	59051.65
807.7991	356.2856	59886.1	59027.7
807.9424	358.4812	60000.65	59141.25
808.0857	360.6763	59786.8	58925.1
808.2291	362.8707	59936.6	59073.55
808.3724	365.0646	59830.05	58966.45
808.5158	367.258	59840.35	58977.8
808.6591	369.4508	59700.2	58831.7
808.8025	371.643	59948.4	59078.75
808.9459	373.8346	59813.7	58943.85
809.0893	376.0257	59826.55	58951.35
809.2327	378.2162	59756.65	58887.9
809.3762	380.4062	59564.7	58690.9
809.5196	382.5956	59667.05	58790.65
809.6631	384.7844	59634.95	58758.45
809.8066	386.9726	59667.7	58787.6
809.9501	389.1603	59625.3	58749.1
810.0936	391.3474	59481.15	58569.7
810.2371	393.5339	59598.25	58721.4
810.3806	395.7199	59352.75	58486.45
810.5241	397.9052	59395.85	58529.85
810.6677	400.09	59437.05	58572
810.8113	402.2743	59565.35	58698.65
810.9548	404.4579	59407.55	58542.6
811.0984	406.641	59439.9	58577.8
811.2421	408.8235	59548.75	58684.4
811.3857	411.0054	59588.25	58726.4
811.5293	413.1868	59668.75	58796.65
811.673	415.3675	59603	58727.55
811.8166	417.5477	59603.6	58730.4
811.9603	419.7273	59599.85	58727.6
812.104	421.9064	59516.65	58636.7
812.2477	424.0848	59570.25	58691.8
812.3914	426.2627	59596.2	58714.3
812.5351	428.4399	59342.45	58455.45
812.6788	430.6166	59093.75	58206.05
812.8226	432.7928	59268.85	58379.25
812.9663	434.9683	59037.1	58154.6
813.1101	437.1432	58973.25	58089.85
813.2539	439.3176	59083.7	58206.65
813.3977	441.4914	58721.8	57843.95
813.5415	443.6645	58792.35	57910.4
813.6853	445.8371	58810.5	57925.25
813.8291	448.0091	58622.85	57740.75
813.973	450.1806	58514.65	57634.55
814.1168	452.3514	58558.45	57677.95
814.2607	454.5216	58383.85	57494.3
814.4046	456.6913	58508.4	57625.85
814.5485	458.8603	58545.85	57662
814.6924	461.0288	58342	57459.3
814.8363	463.1967	58556.5	57679.4
814.9802	465.3639	58514.9	57631.8
815.1241	467.5306	58047.05	57162.55
815.2681	469.6967	58296.65	57413.8
815.412	471.8622	58393.5	57512.65
815.556	474.0271	58258.75	57374.6
815.7	476.1914	58316.65	57429.9
815.844	478.3551	58313.2	57423.6
815.988	480.5182	58567.65	57682.9
816.132	482.6807	58235.5	57359.55
816.276	484.8426	58318.85	57443.5
816.4201	487.0039	58631.4	57754.3
816.5641	489.1647	58681.5	57797.7
816.7082	491.3248	58433.5	57545.05
816.8522	493.4843	58774.05	57893.15
816.9963	495.6432	58761.55	57876.7
817.1404	497.8015	58354.45	57459.95
817.2845	499.9592	58598.75	57701.45
817.4286	502.1163	58542.35	57645.15
817.5727	504.2728	58444.6	57553.7
817.7168	506.4287	58361.85	57481.8
817.861	508.5839	58083.5	57204.4
818.0051	510.7386	58202.4	57314.4
818.1493	512.8927	58213.9	57313.5
818.2935	515.0461	58109.85	57215.85
818.4377	517.199	58294.85	57399.45
818.5818	519.3512	58126.25	57231
818.726	521.5029	58167.05	57267.55
818.8703	523.6539	58241.25	57344.25
819.0145	525.8043	57978.55	57080.9
819.1587	527.9541	58192.75	57291.95
819.303	530.1033	58108.3	57214.35
819.4472	532.2519	57958.55	57060.6
819.5915	534.3999	58184.9	57283.25
819.7357	536.5472	58271.05	57375.8
819.88	538.694	57915.15	57022
820.0243	540.8401	58203.05	57305.95
820.1686	542.9856	58289.45	57382.45
820.3129	545.1305	58355.55	57443.6
820.4572	547.2748	58110.6	57197.7
820.6016	549.4185	58088.65	57174.85
820.7459	551.5615	58234.2	57317.3
820.8902	553.704	58129.2	57215.8
821.0346	555.8458	57990.8	57082.6
821.1789	557.987	58067.5	57159.15
821.3233	560.1276	58212.35	57303.8
821.4677	562.2675	58175.6	57264.65
821.6121	564.4069	58269.9	57357.45
821.7565	566.5456	58453.35	57546.6
821.9009	568.6837	58239.95	57334.35
822.0453	570.8212	58204.1	57298.2
822.1897	572.958	57648.4	56739.3
822.3342	575.0942	57878.3	56971.4
822.4786	577.2299	57542.1	56640.7
822.6231	579.3648	57414.55	56522.95
822.7675	581.4992	57278.3	56397.85
822.912	583.6329	57299.85	56417.85
823.0565	585.766	57311.5	56425.4
823.201	587.8985	57479.45	56586.35
823.3454	590.0304	56988.15	56074.85
823.4899	592.1616	57310.6	56400.1
823.6345	594.2922	57094.7	56181.75
823.779	596.4222	56766.85	55854.05
823.9235	598.5515	56818.3	55904
824.068	600.6802	56904.5	55991.25
824.2126	602.8083	56514.45	55603.45
824.3571	604.9358	56499.3	55585.85
824.5017	607.0626	56766.95	55852.65
824.6462	609.1888	56260.9	55340.85
824.7908	611.3144	56680	55756.85
824.9354	613.4393	56481.15	55563
825.08	615.5636	56283.2	55362.7
825.2246	617.6873	56523.7	55606.7
825.3692	619.8103	56110.95	55189.9
825.5138	621.9327	56465.45	55548.25
825.6584	624.0544	56420.55	55508.9
825.803	626.1756	56108.05	55197.25
825.9477	628.2961	56050.1	55136.3
826.0923	630.4159	55826.65	54910.75
826.237	632.5351	55713.5	54794
826.3816	634.6537	56352.7	55434.6
826.5263	636.7716	55664.1	54739.35
826.6709	638.8889	55812.2	54889.4
826.8156	641.0056	55828.85	54904.1
826.9603	643.1216	55903.15	54979.9
827.105	645.237	56018.35	55095.4
827.2497	647.3518	55592.6	54678.45
827.3944	649.4659	55674.85	54764.95
827.5391	651.5793	55672.45	54762.5
827.6838	653.6922	55746.5	54832.8
827.8285	655.8043	55282.7	54366
827.9733	657.9159	55897.4	54980.85
828.118	660.0268	54758.25	53840.2
828.2627	662.137	55357.8	54437.25
828.4075	664.2466	55447.2	54517.85
828.5522	666.3556	55202	54280.1
828.697	668.4639	55347	54426.1
828.8418	670.5716	55030.85	54119.85
828.9865	672.6786	55225.05	54303
829.1313	674.785	54854.5	53929.2
829.2761	676.8907	54859.85	53938.55
829.4209	678.9958	55027.35	54111.4
829.5657	681.1002	55092.75	54170.7
829.7105	683.204	54687.5	53754.8
829.8553	685.3072	54459.95	53529
830.0001	687.4097	54625.1	53698.7
830.1449	689.5115	54453.9	53529.55
830.2898	691.6127	54794.4	53872.55
830.4346	693.7132	54443	53521.65
830.5794	695.8131	54501.1	53570.5
830.7243	697.9123	54612.5	53680.25
830.8691	700.0109	54678.9	53747.5
831.014	702.1089	54146.85	53219.45
831.1588	704.2061	54310.5	53385.35
831.3037	706.3028	54361.15	53432.7
831.4486	708.3987	54418.9	53493.05
831.5935	710.4941	54204.75	53279.1
831.7383	712.5887	54486.85	53562.65
831.8832	714.6827	54319.3	53388.85
832.0281	716.7761	54555.45	53629.95
832.173	718.8688	54618.8	53688.95
832.3179	720.9608	54383.7	53450.4
832.4628	723.0522	54458.2	53521.25
832.6077	725.1429	54211.75	53278.7
832.7527	727.233	54945.4	54011.7
832.8976	729.3224	53861.75	52929.35
833.0425	731.4112	54171.95	53244.5
833.1874	733.4993	54116.3	53186.95
833.3324	735.5867	53985.85	53054.4
833.4773	737.6735	53700.55	52769.95
833.6222	739.7596	53330.6	52398.35
833.7672	741.845	53281.7	52352.55
833.9122	743.9298	53539.75	52607.5
834.0571	746.014	53232.65	52306.2
834.2021	748.0974	52968.4	52034.65
834.347	750.1802	53368.25	52433.25
834.492	752.2624	52717.85	51784.95
834.637	754.3439	52838.5	51903.4
834.782	756.4247	52933.1	51988.6
834.9269	758.5048	52757.55	51822.1
835.0719	760.5843	52913.1	51976.3
835.2169	762.6631	53071	52131.2
835.3619	764.7413	53210.3	52277.4
835.5069	766.8188	53475.8	52534.8
835.6519	768.8956	53798.85	52862.35
835.7969	770.9718	53878.45	52941.9
835.9419	773.0473	53679.55	52742.45
836.0869	775.1221	53315.4	52378.15
836.232	777.1962	53149.65	52212
836.377	779.2697	52827.95	51893.5
836.522	781.3426	52920.65	51970.6
836.667	783.4147	53043	52106.9
836.8121	785.4862	52955.35	52015.7
836.9571	787.557	52636.6	51700.8
837.1021	789.6271	52653.35	51713
837.2472	791.6966	52161.25	51218.45
837.3922	793.7654	51551.95	50616.2
837.5373	795.8335	51365.65	50427.45
837.6823	797.901	51258.2	50318.25
837.8274	799.9678	51035.45	50095.75
837.9724	802.0339	50918.45	49976.25
838.1175	804.0993	50850.25	49902
838.2626	806.1641	50671.55	49731.2
838.4076	808.2282	50534.05	49594.75
838.5527	810.2916	50431.75	49494.05
838.6978	812.3544	50605.55	49669.8
838.8428	814.4164	50212.6	49277.9
838.9879	816.4778	50295.5	49357.35
839.133	818.5385	50296	49351.65
839.2781	820.5986	50273.75	49331.2
839.4232	822.658	50416.6	49472.5
839.5682	824.7166	50572.2	49633.3
839.7133	826.7747	50565.05	49627.95
839.8584	828.832	50849.55	49908.55
840.0035	830.8886	51114.3	50172.85
840.1486	832.9446	51127.8	50185.9
840.2937	834.9999	50504	49563.85
840.4388	837.0545	50565.6	49620.6
840.5839	839.1085	50475.3	49532.1
840.729	841.1618	50196.25	49250.2
840.8741	843.2143	49729.9	48788.2
841.0192	845.2662	49570.65	48627.7
841.1643	847.3175	49648.25	48707.9
841.3095	849.368	49161.8	48217.6
841.4546	851.4179	49364.85	48425.1
841.5997	853.467	48988.05	48042
841.7448	855.5155	49015.1	48068.4
841.8899	857.5633	48832.5	47888.45
842.0351	859.6105	48623.9	47679.5
842.1802	861.6569	48683.95	47742.15
842.3253	863.7027	48272.85	47329.2
842.4704	865.7478	48382.35	47439.3
842.6156	867.7922	48275.2	47333.95
842.7607	869.8359	48346.15	47403.7
842.9058	871.8789	47988.1	47044.35
843.0509	873.9212	48165.85	47190.1
843.1961	875.9629	48119	47174.1
843.3412	878.0039	48129.85	47187.95
843.4863	880.0441	48030.75	47091.4
843.6315	882.0837	48087.15	47146.7
843.7766	884.1226	48032.3	47087.5
843.9218	886.1609	47994.05	47052
844.0669	888.1984	47888.2	46943.15
844.212	890.2352	48215.3	47272
844.3572	892.2714	47839.2	46888.65
844.5023	894.3069	47917.1	46970.5
844.6475	896.3416	47598.2	46651.6
844.7926	898.3757	47473.75	46526.95
844.9377	900.4091	47129.5	46183.9
845.0829	902.4418	47368.95	46418.45
845.228	904.4739	47104.55	46156.75
845.3732	906.5052	47178.65	46231.8
845.5183	908.5358	47005.2	46057.35
845.6635	910.5658	46748.65	45799.6
845.8086	912.595	46586.15	45635.35
845.9538	914.6236	46180.15	45232.3
846.0989	916.6515	46533.8	45589.2
846.2441	918.6786	45894.5	44948.3
846.3892	920.7051	45978.05	45026.7
846.5344	922.7309	45930.3	44983.5
846.6795	924.756	45888.45	44944.55
846.8246	926.7804	45797.5	44851.25
846.9698	928.8041	45351.4	44403.15
847.1149	930.8272	45572.9	44626.25
847.2601	932.8495	45402.6	44454.05
847.4052	934.8711	45167.85	44220.65
847.5504	936.892	44991.95	44043.4
847.6955	938.9123	44966.35	44019.4
847.8407	940.9318	44870.6	43921.85
847.9858	942.9506	44731.75	43782
848.131	944.9688	44628.65	43680.95
848.2761	946.9862	44239.9	43291.3
848.4213	949.003	44065.95	43117.6
848.5664	951.019	43763.65	42815.95
848.7115	953.0344	43694.85	42746.65
848.8567	955.0491	43636.25	42690.3
849.0018	957.063	43687.05	42738.8
849.147	959.0763	43812.9	42858.3
849.2921	961.0888	43521	42573.3
849.4373	963.1007	43668.2	42725.45
849.5824	965.1119	43600.75	42663.1
849.7275	967.1223	43467.75	42533.45
849.8727	969.1321	43488.95	42554.25
850.0178	971.1412	43287.6	42347.85
850.1629	973.1495	43112	42167.75
850.3081	975.1572	43104.5	42142.25
850.4532	977.1641	43030.3	42084.85
850.5983	979.1704	42881.95	41933.9
850.7435	981.1759	42780.05	41830.45
850.8886	983.1808	42674.35	41723
851.0337	985.1849	42637.75	41681
851.1788	987.1884	42600.9	41651.4
851.324	989.1911	42639.2	41688.9
851.4691	991.1932	42476.85	41531.15
851.6142	993.1945	42358.15	41413.25
851.7593	995.1951	42199	41251.2
851.9045	997.1951	42078.95	41126.05
852.0496	999.1943	41908.25	40961.55
852.1947	1001.1928	41753.65	40804.7
852.3398	1003.1906	41685.45	40738.65
852.4849	1005.1877	41596.9	40649.95
852.63	1007.1841	41450.8	40505.95
852.7751	1009.1798	41393.3	40446.1
852.9202	1011.1748	41170	40227.3
853.0653	1013.1691	40978	40032.15
853.2104	1015.1627	40599.15	39652.4
853.3555	1017.1556	40299.85	39355.6
853.5006	1019.1477	40162.15	39218.6
853.6457	1021.1392	39853.8	38916.75
853.7908	1023.1299	39648.5	38712.3
853.9359	1025.12	39600.9	38666.85
854.081	1027.1093	39420.4	38501.35
854.2261	1029.0979	39447.7	38529.55
854.3712	1031.0859	39416.75	38492
854.5163	1033.0731	39199.75	38265.35
854.6613	1035.0596	39073.65	38135.5
854.8064	1037.0454	38799.25	37859.1
854.9515	1039.0304	38655.5	37712.1
855.0965	1041.0148	38414.4	37471.1
855.2416	1042.9985	38242.4	37296.45
855.3867	1044.9814	38187.3	37241.7
855.5317	1046.9636	37942	36998.9
855.6768	1048.9452	37805.6	36868.7
855.8219	1050.926	37807.3	36864.4
855.9669	1052.9061	37730.05	36786.85
856.112	1054.8855	37687.9	36744.1
856.257	1056.8642	37593.2	36649.1
856.4021	1058.8421	37612.1	36663.85
856.5471	1060.8194	37506.95	36564.8
856.6921	1062.7959	37453.85	36507.7
856.8372	1064.7717	37413.6	36465.65
856.9822	1066.7469	37374.8	36427.1
857.1272	1068.7213	37354.8	36408.65
857.2723	1070.695	37287.8	36345.6
857.4173	1072.6679	37132.3	36189.45
857.5623	1074.6402	37100.5	36158.3
857.7073	1076.6117	37023.85	36071.8
857.8523	1078.5826	36929.05	35985.2
857.9973	1080.5527	36695.05	35752.45
858.1423	1082.5221	36511.05	35566.8
858.2873	1084.4908	36516.5	35574.95
858.4323	1086.4587	36398.7	35455.05
858.5773	1088.426	36421	35477.2
858.7223	1090.3925	36250.7	35299.45
858.8673	1092.3584	36210.4	35267
859.0123	1094.3235	36059.45	35117.6
859.1573	1096.2879	35982.75	35039.9
859.3022	1098.2515	36038.4	35095.4
859.4472	1100.2145	36084.15	35141.05
859.5922	1102.1767	36087.6	35141.15
859.7371	1104.1382	36149.65	35206
859.8821	1106.099	36250.05	35302.65
860.027	1108.0591	36321	35380.4
860.172	1110.0185	36311.4	35370.6
860.3169	1111.9771	36339.35	35396.45
860.4619	1113.9351	36102.55	35161.65
860.6068	1115.8923	35919.9	34975.6
860.7517	1117.8488	35622	34676.3
860.8967	1119.8045	35373.35	34431.8
861.0416	1121.7596	35243.45	34301.25
861.1865	1123.7139	35038.55	34100.9
861.3314	1125.6675	34959.75	34022.1
861.4763	1127.6204	34997.3	34060.25
861.6212	1129.5726	34858.25	33914.35
861.7661	1131.524	34787.8	33845.9
861.911	1133.4748	34659.85	33718.05
862.0559	1135.4248	34405.55	33462.75
862.2008	1137.3741	34211.7	33273.2
862.3457	1139.3226	34052.1	33106.9
862.4905	1141.2705	34033.9	33091.7
862.6354	1143.2176	33775.05	32824.85
862.7803	1145.164	33749.05	32805.15
862.9251	1147.1097	33611.4	32669.75
863.07	1149.0546	33502.4	32558
863.2148	1150.9989	33363.9	32422.4
863.3597	1152.9424	33213.5	32271.25
863.5045	1154.8852	33097.25	32158.2
863.6493	1156.8272	33031.15	32093.95
863.7942	1158.7686	33030.1	32080.65
863.939	1160.7092	32897.9	31957.7
864.0838	1162.6491	32781	31835.45
864.2286	1164.5883	32842.05	31900.6
864.3734	1166.5267	32863.25	31918.8
864.5182	1168.4644	32903.65	31964.1
864.663	1170.4014	32982	32040.55
864.8078	1172.3377	33161.8	32222.35
864.9526	1174.2732	33307.45	32371.05
865.0974	1176.2081	33548.45	32609.1
865.2421	1178.1421	33870.05	32926.5
865.3869	1180.0755	34166.25	33228.55
865.5317	1182.0082	34296	33358.9
865.6764	1183.9401	34363.05	33426.9
865.8212	1185.8713	34139.35	33205.8
865.9659	1187.8017	33782.3	32854
866.1106	1189.7315	33477.1	32557.05
866.2554	1191.6605	33039	32116.55
866.4001	1193.5888	32781.5	31858.7
866.5448	1195.5163	32609.25	31677.6
866.6895	1197.4432	32415.85	31476.95
866.8342	1199.3693	32305.2	31367.8
866.9789	1201.2947	32139.55	31197.95
867.1236	1203.2193	32010.45	31071.15
867.2683	1205.1432	31968.2	31031.5
867.413	1207.0664	31812.4	30874.7
867.5576	1208.9889	31704.2	30762.5
867.7023	1210.9106	31633.05	30695.45
867.847	1212.8316	31510.4	30574.95
867.9916	1214.7519	31541.6	30594
868.1363	1216.6715	31430.3	30494.35
868.2809	1218.5903	31441.6	30506.3
868.4255	1220.5084	31391.3	30455.15
868.5701	1222.4257	31476.6	30541.1
868.7148	1224.3424	31340.1	30404.55
868.8594	1226.2583	31342.8	30402.45
869.004	1228.1735	31367.6	30430.9
869.1486	1230.0879	31382.45	30445.25
869.2932	1232.0016	31433.45	30498.3
869.4377	1233.9146	31399.05	30458.95
869.5823	1235.8269	31361	30423.5
869.7269	1237.7384	31352.8	30413.4
869.8715	1239.6492	31092.6	30155.15
870.016	1241.5592	31022.3	30084.1
870.1606	1243.4686	30996.45	30060.35
870.3051	1245.3772	31003.2	30067.95
870.4496	1247.285	31074.65	30134.15
870.5941	1249.1922	31129.6	30193.3
870.7387	1251.0986	31190.65	30257.9
870.8832	1253.0042	31097.85	30164.65
871.0277	1254.9092	31092.55	30156
871.1722	1256.8134	31083.1	30148.65
871.3167	1258.7169	31199.4	30260.75
871.4611	1260.6196	31221.95	30285.8
871.6056	1262.5216	31409.3	30472.35
871.7501	1264.4229	31414.2	30478.9
871.8945	1266.3234	31562.75	30628.2
872.039	1268.2232	31599.25	30662.3
872.1834	1270.1223	31561.65	30623.25
872.3278	1272.0207	31533.35	30595.4
872.4723	1273.9183	31451.75	30507.45
872.6167	1275.8151	31358.25	30422.75
872.7611	1277.7113	31270.55	30334.95
872.9055	1279.6067	31205.3	30271.05
873.0499	1281.5014	31252.75	30316.6
873.1943	1283.3953	31476.5	30535.65
873.3386	1285.2885	31853.8	30919.75
873.483	1287.181	32140.4	31202.5
873.6274	1289.0727	32521.65	31589.65
873.7717	1290.9637	32664.7	31729.75
873.9161	1292.854	32809.3	31870.75
874.0604	1294.7435	32695.85	31761.35
874.2047	1296.6323	32565.15	31632.15
874.349	1298.5204	32457.25	31519.05
874.4933	1300.4077	32270.35	31335.55
874.6376	1302.2943	32060.15	31125.6
874.7819	1304.1802	31833.65	30899.15
874.9262	1306.0653	31402	30466.45
875.0705	1307.9497	31022.95	30089.5
875.2147	1309.8333	30685.6	29754.1
875.359	1311.7162	30431.4	29497.05
875.5032	1313.5984	30282.4	29345.15
875.6475	1315.4798	30135.55	29188.5
875.7917	1317.3605	30030.85	29078.3
875.9359	1319.2405	29924.2	28985.9
876.0801	1321.1197	29734.45	28798.5
876.2243	1322.9982	29374.6	28437.95
876.3685	1324.876	29194.45	28258.15
876.5127	1326.753	28960.15	28024.4
876.6569	1328.6293	28790.9	27856
876.801	1330.5048	28683.45	27747.4
876.9452	1332.3796	28411.1	27478.7
877.0893	1334.2537	28372.15	27412.3
877.2335	1336.127	28244.3	27309.7
877.3776	1337.9996	28155.85	27219.15
877.5217	1339.8714	28085.2	27152.65
877.6658	1341.7426	28066.65	27087.95
877.8099	1343.6129	28035.3	27102.6
877.954	1345.4826	27975.85	27036.2
878.0981	1347.3515	27983.1	27047.2
878.2422	1349.2196	27929.3	26992.55
878.3862	1351.087	27904.7	26968.9
878.5303	1352.9537	27876.35	26940.05
878.6743	1354.8197	27948	27013.3
878.8184	1356.6849	28043.15	27109.25
878.9624	1358.5493	28076.5	27141.2
879.1064	1360.4131	28181.3	27248.35
879.2504	1362.276	28241.7	27309.7
879.3944	1364.1383	28167	27234.05
879.5384	1365.9998	27936.4	26997.3
879.6823	1367.8606	27675.2	26738.9
879.8263	1369.7206	27332.35	26396.4
879.9702	1371.5799	27031.3	26094.65
880.1142	1373.4384	26776.8	25840.75
880.2581	1375.2962	26593.8	25657.4
880.402	1377.1533	26231.1	25298.05
880.5459	1379.0096	25842.15	24912.3
880.6898	1380.8652	25563.05	24633.7
880.8337	1382.7201	25301.75	24371.05
880.9776	1384.5742	25014.1	24081.9
881.1215	1386.4275	24797.3	23864.25
881.2653	1388.2802	24670.3	23737.6
881.4092	1390.132	24473.1	23538.35
881.553	1391.9832	24408.4	23473.8
881.6968	1393.8336	24262.7	23330.75
881.8406	1395.6832	24191.5	23258.2
881.9844	1397.5322	24041.6	23109.2
882.1282	1399.3803	23980.45	23042.5
882.272	1401.2278	23836.65	22906.1
882.4158	1403.0745	23801.95	22869.05
882.5595	1404.9204	23660.7	22729.2
882.7033	1406.7656	23640.55	22710.05
882.847	1408.6101	23549.5	22616.85
882.9908	1410.4538	23466.25	22535.85
883.1345	1412.2968	23500.3	22570.7
883.2782	1414.139	23452.2	22519.8
883.4219	1415.9805	23474.7	22543.55
883.5656	1417.8213	23404.25	22452.9
883.7092	1419.6613	23436.55	22507.9
883.8529	1421.5006	23518.85	22588.4
883.9965	1423.3391	23614.6	22684.25
884.1402	1425.1769	23737.6	22808.7
884.2838	1427.0139	24007.15	23075.8
884.4274	1428.8502	24393.45	23462.05
884.571	1430.6858	24727.95	23795.3
884.7146	1432.5206	24894.45	23965.5
884.8582	1434.3547	25058	24127.2
885.0018	1436.188	25019.9	24091.75
885.1453	1438.0206	24935.55	24005.25
885.2889	1439.8524	24727.2	23798.3
885.4324	1441.6835	24603.2	23672.55
885.5759	1443.5139	24498.55	23564.85
885.7194	1445.3435	24383.1	23454.55
885.8629	1447.1724	24339.95	23411.3
886.0064	1449.0005	24248.95	23324.4
886.1499	1450.8279	24197.65	23268.95
886.2933	1452.6545	24161.65	23236.2
886.4368	1454.4804	24162.05	23236.15
886.5802	1456.3056	24099.6	23165.85
886.7237	1458.13	24011.65	23084.5
886.8671	1459.9536	23866.7	22936.55
887.0105	1461.7766	23610.65	22680.4
887.1539	1463.5987	23315.75	22385.65
887.2972	1465.4202	23075.85	22146.45
887.4406	1467.2409	22764.95	21835.95
887.584	1469.0608	22581.4	21653.4
887.7273	1470.88	22336.7	21407.3
887.8706	1472.6984	22133.1	21205.25
888.0139	1474.5161	21916.95	20984.05
888.1572	1476.3331	21756.95	20829
888.3005	1478.1493	21675.2	20747.25
888.4438	1479.9648	21575.95	20649.85
888.5871	1481.7795	21478.35	20549
888.7303	1483.5935	21427.4	20499.15
888.8736	1485.4067	21344	20413.35
889.0168	1487.2192	21299.5	20370.4
889.16	1489.031	21225.35	20295.2
889.3032	1490.842	21154.85	20228.2
889.4464	1492.6522	21106.8	20179.65
889.5896	1494.4618	21029.65	20103
889.7327	1496.2705	20967.45	20040.1
889.8759	1498.0785	20899.4	19972.7
890.019	1499.8858	20829.4	19902.15
890.1622	1501.6924	20743	19813.6
890.3053	1503.4981	20732.25	19804.95
890.4484	1505.3032	20634.7	19706.75
890.5914	1507.1075	20609.7	19684.05
890.7345	1508.911	20533.1	19607.7
890.8776	1510.7138	20493.2	19564.3
891.0206	1512.5159	20372.95	19446.75
891.1637	1514.3172	20300.55	19378.9
891.3067	1516.1178	20210.45	19284.5
891.4497	1517.9176	20169.65	19241.05
891.5927	1519.7166	20092.9	19170.9
891.7357	1521.515	20044.7	19115.8
891.8786	1523.3126	20000.25	19076.3
892.0216	1525.1094	19877.85	18953.8
892.1645	1526.9055	19832.25	18907.9
892.3074	1528.7008	19761.7	18840
892.4503	1530.4954	19643.2	18711.4
892.5932	1532.2893	19619.5	18694.65
892.7361	1534.0824	19561.3	18633.4
892.879	1535.8747	19504.45	18584.2
893.0218	1537.6663	19401.05	18481.1
893.1647	1539.4572	19372.65	18449.55
893.3075	1541.2473	19341.2	18418.25
893.4503	1543.0367	19324.45	18405
893.5931	1544.8253	19230.65	18305
893.7359	1546.6132	19239.85	18315.85
893.8787	1548.4003	19193.45	18264
894.0214	1550.1867	19200.1	18271.7
894.1642	1551.9723	19197.55	18273.35
894.3069	1553.7572	19236.1	18317.15
894.4496	1555.5414	19247.35	18328.65
894.5923	1557.3247	19294.05	18377.65
894.735	1559.1074	19368.95	18452.6
894.8777	1560.8893	19443.8	18527.85
895.0204	1562.6705	19490.15	18575.1
895.163	1564.4509	19520.3	18608.1
895.3056	1566.2305	19559.25	18648.15
895.4482	1568.0094	19619.85	18710.3
895.5908	1569.7876	19569.45	18656.9
895.7334	1571.565	19533.9	18619.05
895.876	1573.3417	19482.45	18568.65
896.0186	1575.1176	19438.15	18524.95
896.1611	1576.8928	19425.5	18512.65
896.3036	1578.6672	19326.25	18418.3
896.4461	1580.4409	19292.5	18387.5
896.5886	1582.2138	19291.2	18379.05
896.7311	1583.986	19244.6	18332.75
896.8736	1585.7575	19288.95	18377.1
897.0161	1587.5282	19293.7	18385.2
897.1585	1589.2981	19330	18424.65
897.3009	1591.0673	19306.55	18400.7
897.4433	1592.8358	19340.5	18433.1
897.5857	1594.6035	19417.9	18504.35
897.7281	1596.3704	19423.7	18512.6
897.8705	1598.1366	19425.3	18514.35
898.0128	1599.9021	19437.75	18529.15
898.1551	1601.6668	19459.95	18549.3
898.2975	1603.4308	19464.15	18550.2
898.4398	1605.194	19584.3	18669.75
898.5821	1606.9564	19656.05	18753.1
898.7243	1608.7182	19797.35	18894.9
898.8666	1610.4791	19977.25	19079.75
899.0088	1612.2394	20135.45	19234.05
899.1511	1613.9988	20339.2	19442.2
899.2933	1615.7576	20568.6	19664.5
899.4355	1617.5156	20667.35	19752.6
899.5776	1619.2728	20744.15	19833.35
899.7198	1621.0293	20683.9	19776.35
899.862	1622.785	20491.85	19585.35
900.0041	1624.54	20172.75	19267.65
900.1462	1626.2942	19924.9	19021.85
900.2883	1628.0477	19512.4	18604.9
900.4304	1629.8005	19201.85	18294.95
900.5725	1631.5525	18965.1	18060.7
900.7145	1633.3037	18706.6	17803.75
900.8566	1635.0542	18554.45	17651.9
900.9986	1636.804	18366.25	17463.6
901.1406	1638.553	18315.85	17359.6
901.2826	1640.3013	18151.5	17250.25
901.4245	1642.0488	18071.1	17165.3
901.5665	1643.7955	18044.5	17144.55
901.7085	1645.5416	18056.1	17154.05
901.8504	1647.2868	18085.7	17182.2
901.9923	1649.0313	18096.5	17193.45
902.1342	1650.7751	18213.45	17305.85
902.2761	1652.5181	18282.2	17379.2
902.4179	1654.2604	18365.1	17463.35
902.5598	1656.0019	18514.3	17613.65
902.7016	1657.7427	18632.55	17727.9
902.8434	1659.4828	18788.25	17884.25
902.9852	1661.222	18884.8	17979.35
903.127	1662.9606	18832.95	17929.9
903.2687	1664.6984	18641.8	17735.85
903.4105	1666.4354	18342.8	17433.85
903.5522	1668.1717	17895.05	16987.95
903.6939	1669.9072	17419.15	16511.75
903.8356	1671.642	17049.85	16140.9
903.9773	1673.3761	16742.25	15836.3
904.119	1675.1094	16505.45	15600.55
904.2606	1676.8419	16292.75	15386.9
904.4022	1678.5737	16062.25	15158.2
904.5439	1680.3048	15919.55	15014.7
904.6855	1682.0351	15790.75	14884.85
904.827	1683.7646	15642.2	14735.9
904.9686	1685.4934	15552.4	14649.15
905.1101	1687.2215	15480.4	14575.75
905.2517	1688.9488	15406.65	14504.85
905.3932	1690.6754	15261.25	14357.55
905.5347	1692.4012	15232.85	14330.4
905.6761	1694.1263	15138	14234.85
905.8176	1695.8506	15095.65	14189.5
905.9591	1697.5742	15035	14136.1
906.1005	1699.297	14953.3	14055.1
906.2419	1701.0191	14868.55	13971.2
906.3833	1702.7404	14816.1	13918.1
906.5246	1704.461	14701.15	13799.7
906.666	1706.1808	14659.05	13754.45
906.8073	1707.8999	14588	13687.6
906.9487	1709.6182	14515.8	13619.7
907.09	1711.3358	14499.4	13604.15
907.2313	1713.0527	14461.2	13566.35
907.3725	1714.7688	14393.5	13490.45
907.5138	1716.4841	14329.05	13425.6
907.655	1718.1987	14318.5	13414.4
907.7962	1719.9126	14261.5	13365.8
907.9374	1721.6257	14201	13302.75
908.0786	1723.338	14175.55	13279.5
908.2198	1725.0496	14073.8	13175.65
908.3609	1726.7605	14050.1	13149.65
908.502	1728.4706	14027.6	13132.5
908.6431	1730.18	13961.75	13062.85
908.7842	1731.8886	13928.9	13033.65
908.9253	1733.5964	13915.65	13011.65
909.0664	1735.3036	13877.85	12979
909.2074	1737.0099	13832.8	12934.85
909.3484	1738.7156	13802.8	12906.1
909.4894	1740.4204	13712.45	12812.8
909.6304	1742.1246	13680.8	12781.8
909.7714	1743.8279	13640.9	12744
909.9123	1745.5306	13637.2	12743.6
910.0532	1747.2325	13571.45	12676
910.1941	1748.9336	13510.5	12614.5
910.335	1750.634	13442.85	12543
910.4759	1752.3336	13472.15	12574.6
910.6168	1754.0325	13431.95	12539.05
910.7576	1755.7307	13390.65	12496.35
910.8984	1757.4281	13386.7	12487.3
911.0392	1759.1247	13363	12455.65
911.18	1760.8206	13318.4	12411.5
911.3208	1762.5158	13329.4	12426.45
911.4615	1764.2102	13239.1	12341.85
911.6022	1765.9039	13212.4	12315.7
911.7429	1767.5968	13190.5	12297.85
911.8836	1769.289	13139.2	12242.25
912.0243	1770.9804	13109.3	12212.1
912.1649	1772.6711	13081.95	12183.55
912.3056	1774.361	13028.05	12128.5
912.4462	1776.0502	13056.95	12157.7
912.5868	1777.7386	13014.2	12112.65
912.7274	1779.4263	12970.85	12074.45
912.8679	1781.1132	12960	12066.75
913.0084	1782.7994	12903.9	12008.8
913.149	1784.4849	12860.1	11965.75
913.2895	1786.1696	12813.3	11912.4
913.4299	1787.8535	12800.7	11906.95
913.5704	1789.5367	12768.8	11876.6
913.7108	1791.2192	12765.85	11871.7
913.8513	1792.9009	12746.85	11823.55
913.9917	1794.5818	12716.45	11818.6
914.132	1796.2621	12653.25	11756.75
914.2724	1797.9415	12647.75	11752.3
914.4128	1799.6202	12600.05	11704.35
914.5531	1801.2982	12553.3	11654.9
914.6934	1802.9755	12536.35	11637.7
914.8337	1804.6519	12526.6	11629.1
914.9739	1806.3277	12467.65	11574.1
915.1142	1808.0027	12429.25	11537.65
915.2544	1809.6769	12412.3	11521.4
915.3946	1811.3504	12368.15	11474.2
915.5348	1813.0231	12327.8	11432.65
915.675	1814.6951	12302.85	11408.1
915.8151	1816.3664	12335.9	11437.75
915.9553	1818.0369	12299.8	11403.5
916.0954	1819.7067	12246.45	11351.3
916.2355	1821.3757	12245.2	11346.35
916.3755	1823.044	12206.85	11311
916.5156	1824.7115	12175.65	11278.3
916.6556	1826.3783	12115.25	11220.45
916.7956	1828.0443	12108	11212.05
916.9356	1829.7096	12081.9	11185.6
917.0756	1831.3741	12072.8	11173.5
917.2155	1833.0379	12039	11144.5
917.3555	1834.701	12001.5	11108.6
917.4954	1836.3633	11993.9	11101.85
917.6353	1838.0248	11935.9	11039.55
917.7751	1839.6856	11929.05	11033.65
917.915	1841.3457	11905.3	11011.45
918.0548	1843.005	11886.25	10991.4
918.1946	1844.6636	11871.35	10976
918.3344	1846.3214	11827.65	10930.5
918.4742	1847.9785	11832.45	10938.65
918.6139	1849.6349	11806	10908.9
918.7537	1851.2904	11810.45	10905.9
918.8934	1852.9453	11758.4	10860.15
919.0331	1854.5994	11720.6	10820.7
919.1727	1856.2528	11721.35	10821.4
919.3124	1857.9054	11677.5	10780.7
919.452	1859.5572	11640.55	10746.8
919.5916	1861.2083	11654.85	10759.05
919.7312	1862.8587	11629.85	10734.4
919.8708	1864.5084	11574.9	10676.45
920.0103	1866.1572	11574.7	10674.75
920.1498	1867.8054	11524.95	10626.05
920.2893	1869.4528	11512.05	10614.85
920.4288	1871.0994	11479.65	10582.2
920.5683	1872.7453	11439.85	10542.8
920.7077	1874.3905	11430.8	10528.85
920.8471	1876.0349	11416.05	10518.1
920.9865	1877.6786	11394.5	10496.3
921.1259	1879.3215	11368.3	10472.85
921.2653	1880.9637	11324.2	10428.35
921.4046	1882.6051	11298.25	10404.35
921.5439	1884.2458	11302.65	10405.5
921.6832	1885.8858	11273.25	10378.05
921.8225	1887.525	11244.75	10346.55
921.9617	1889.1634	11186.4	10291.4
922.101	1890.8011	11155.3	10257.85
922.2402	1892.4381	11143.5	10246.35
922.3794	1894.0743	11123.65	10227.85
922.5185	1895.7098	11101.65	10206.35
922.6577	1897.3446	11098.55	10201.95
922.7968	1898.9786	11036.25	10135.6
922.9359	1900.6118	11032.45	10135.35
923.075	1902.2443	10961.25	10065.45
923.214	1903.8761	10939.5	10045.5
923.3531	1905.5071	10902.35	10004.8
923.4921	1907.1374	10864.25	9968.05
923.6311	1908.7669	10853	9958.55
923.77	1910.3957	10844.9	9951.25
923.909	1912.0237	10773.85	9880.1
924.0479	1913.651	10762.05	9864.95
924.1868	1915.2776	10757.25	9862.8
924.3257	1916.9034	10696.5	9803.5
924.4646	1918.5285	10667.5	9775.95
924.6034	1920.1528	10628.55	9732.5
924.7422	1921.7764	10608.85	9714.85
924.881	1923.3992	10565.4	9672.6
925.0198	1925.0213	10511.15	9616.1
925.1586	1926.6427	10479.95	9585
925.2973	1928.2633	10489.3	9527.25
925.436	1929.8832	10429.7	9533.75
925.5747	1931.5023	10385.2	9489.3
925.7134	1933.1207	10386.55	9492.5
925.852	1934.7383	10342.8	9447.75
925.9906	1936.3552	10307.35	9412.65
926.1292	1937.9714	10278.5	9384.2
926.2678	1939.5868	10257.95	9362.95
926.4064	1941.2015	10161.05	9262.85
926.5449	1942.8154	10137.35	9239.9
926.6834	1944.4286	10105.25	9209.9
926.8219	1946.041	10124.9	9207.45
926.9604	1947.6528	10036.95	9136.4
927.0988	1949.2637	10028.45	9133
927.2372	1950.8739	9988.9	9094.7
927.3756	1952.4834	9986.4	9093.5
927.514	1954.0921	9988	9091.65
927.6523	1955.7001	9926	9029.65
927.7907	1957.3074	9894.7	9001.65
927.929	1958.9139	9867	8975.95
928.0673	1960.5197	9846.85	8952.1
928.2055	1962.1247	9765.7	8872.65
928.3438	1963.729	9749.35	8858.6
928.482	1965.3325	9758.3	8842.15
928.6202	1966.9353	9697.6	8806.4
928.7584	1968.5374	9666.3	8774.05
928.8965	1970.1387	9619.6	8726.25
929.0346	1971.7393	9595.4	8700.95
929.1727	1973.3392	9586.55	8695.4
929.3108	1974.9383	9527.1	8635.75
929.4489	1976.5366	9485.5	8595.2
929.5869	1978.1342	9483.75	8593.05
929.7249	1979.7311	9472.9	8583.9
929.8629	1981.3273	9445.95	8555.4
930.0009	1982.9227	9407.25	8516.25
930.1388	1984.5173	9366	8475.65
930.2767	1986.1112	9334.45	8445.55
930.4146	1987.7044	9326.5	8437.75
930.5525	1989.2968	9300.05	8411.05
930.6904	1990.8885	9273.55	8378.7
930.8282	1992.4795	9264	8374.6
930.966	1994.0697	9212.2	8322.6
931.1038	1995.6592	9197.85	8309.2
931.2415	1997.2479	9166.75	8277.1
931.3793	1998.8359	9147.2	8259.4
931.517	2000.4232	9089.7	8202
931.6547	2002.0097	9060.45	8175.35
931.7923	2003.5955	9036.95	8149.2
931.93	2005.1805	9059.4	8170.85
932.0676	2006.7648	9033.85	8145.4
932.2052	2008.3484	8976.9	8088.1
932.3427	2009.9312	8980.55	8093.65
932.4803	2011.5133	8941.2	8057.3
932.6178	2013.0946	8930.85	8045
932.7553	2014.6752	8890.75	8004.6
932.8928	2016.2551	8897	8008.2
933.0302	2017.8342	8852.3	7964.1
933.1676	2019.4126	8834	7948.95
933.305	2020.9902	8764.9	7880.1
933.4424	2022.5672	8786.7	7899.35
933.5798	2024.1433	8765.15	7873.05
933.7171	2025.7188	8721.75	7837.5
933.8544	2027.2935	8685.35	7800.1
933.9917	2028.8674	8689.6	7804.45
934.129	2030.4406	8640.85	7755.85
934.2662	2032.0131	8614	7731.4
934.4034	2033.5849	8570.55	7684.65
934.5406	2035.1559	8568.25	7682.4
934.6778	2036.7261	8575.75	7688.2
934.8149	2038.2957	8536.45	7648.3
934.952	2039.8645	8528.25	7640.55
935.0891	2041.4325	8528.8	7635.4
935.2262	2042.9998	8500.05	7613.4
935.3632	2044.5664	8476.15	7588.55
935.5002	2046.1323	8420.9	7534.65
935.6372	2047.6974	8410.55	7525.9
935.7742	2049.2617	8380.8	7495.35
935.9111	2050.8254	8377.15	7483.95
936.048	2052.3883	8378.95	7490.45
936.1849	2053.9504	8351.9	7462.4
936.3218	2055.5118	8320.6	7432.4
936.4586	2057.0725	8286.3	7394.8
936.5955	2058.6325	8257.1	7370.75
936.7323	2060.1917	8257.15	7370.2
936.869	2061.7502	8237.7	7350.15
937.0058	2063.3079	8221	7337.45
937.1425	2064.8649	8189.55	7299.9
937.2792	2066.4212	8139.8	7251
937.4159	2067.9767	8141.2	7254.3
937.5525	2069.5315	8101.8	7215.25
937.6891	2071.0856	8063.15	7175.05
937.8257	2072.6389	8048.35	7160.9
937.9623	2074.1915	8005.9	7120.85
938.0989	2075.7433	7974.5	7086.7
938.2354	2077.2945	7956.7	7070.95
938.3719	2078.8448	7945.65	7056.1
938.5084	2080.3945	7911.05	7024.25
938.6448	2081.9434	7919.8	7031.8
938.7812	2083.4916	7882.95	6993.45
938.9176	2085.039	7852.45	6960.45
939.054	2086.5857	7866.15	6972.55
939.1903	2088.1317	7836.65	6943.85
939.3267	2089.677	7817.75	6925.75
939.463	2091.2215	7796.65	6904.2
939.5992	2092.7652	7778.75	6884.4
939.7355	2094.3083	7761.5	6867.65
939.8717	2095.8506	7732.95	6844.25
940.0079	2097.3921	7742.7	6852.8
940.1441	2098.933	7726.8	6836.8
940.2802	2100.4731	7694.3	6805.7
940.4163	2102.0124	7681.3	6785.45
940.5524	2103.5511	7675.95	6784
940.6885	2105.089	7668.2	6775
940.8245	2106.6261	7632.7	6741.7
940.9606	2108.1626	7604.3	6714.35
941.0965	2109.6983	7600.9	6683.1
941.2325	2111.2332	7577.6	6687.4
941.3684	2112.7675	7559.95	6667.7
941.5044	2114.301	7541.25	6650.9
941.6403	2115.8337	7530.05	6640.6
941.7761	2117.3657	7506.15	6614.25
941.912	2118.897	7509.55	6616.85
942.0478	2120.4276	7460.85	6562.5
942.1835	2121.9575	7441.5	6547.65
942.3193	2123.4866	7447.3	6554.3
942.455	2125.0149	7448.95	6558.65
942.5907	2126.5426	7372.6	6485.55
942.7264	2128.0695	7379.3	6489.95
942.8621	2129.5956	7350.85	6464.7
942.9977	2131.1211	7328.7	6435.5
943.1333	2132.6458	7319.65	6430.85
943.2689	2134.1698	7301.85	6410.15
943.4044	2135.693	7284.35	6387.2
943.54	2137.2155	7268.6	6373.85
943.6755	2138.7373	7259.05	6368.5
943.8109	2140.2584	7238.15	6350
943.9464	2141.7787	7191.2	6300.5
944.0818	2143.2983	7170.3	6285.15
944.2172	2144.8171	7129.3	6245.55
944.3526	2146.3353	7112.9	6223.4
944.4879	2147.8527	7097.1	6209.95
944.6232	2149.3693	7080.2	6188.2
944.7585	2150.8853	7083.15	6189.65
944.8938	2152.4005	7051.75	6158.95
945.029	2153.9149	7047.3	6154
945.1642	2155.4287	7118.95	6125.35
945.2994	2156.9417	7031.25	6138.1
945.4346	2158.454	7013.7	6122.45
945.5697	2159.9655	6978.55	6090.5
945.7048	2161.4764	6964.95	6077.25
945.8399	2162.9865	6927.15	6038.1
945.9749	2164.4958	6905.05	6018.25
946.1099	2166.0045	6898.35	6005.5
946.2449	2167.5124	6897.6	6007.95
946.3799	2169.0195	6902.1	6014.35
946.5148	2170.526	6871	5980.75
946.6498	2172.0317	6841.85	5951.55
946.7846	2173.5367	6833.25	5942.05
946.9195	2175.0409	6805.6	5916.05
947.0543	2176.5445	6808.55	5917.7
947.1891	2178.0473	6763.9	5871.45
947.3239	2179.5494	6734.15	5839.9
947.4587	2181.0507	6747.35	5858.5
947.5934	2182.5513	6731.55	5839.35
947.7281	2184.0512	6706.65	5816.3
947.8628	2185.5504	6684.6	5793.25
947.9974	2187.0488	6645.9	5758.55
948.132	2188.5465	6625.85	5736.65
948.2666	2190.0435	6587.3	5696.85
948.4012	2191.5397	6589.4	5700.15
948.5357	2193.0353	6583.25	5691.3
948.6702	2194.5301	6555.6	5661.95
948.8047	2196.0241	6525.7	5630.15
948.9392	2197.5175	6525.95	5633.55
949.0736	2199.0101	6495.55	5600.45
949.208	2200.502	6485.35	5594
949.3424	2201.9931	6450.8	5562.85
949.4767	2203.4835	6431.35	5541.5
949.611	2204.9733	6431.45	5524.55
949.7453	2206.4622	6417	5526.85
949.8796	2207.9505	6382.35	5493.2
950.0138	2209.438	6357.65	5471.85
950.148	2210.9248	6319.55	5430.5
950.2822	2212.4109	6326.35	5438.35
950.4164	2213.8962	6297.1	5403.8
950.5505	2215.3809	6296.25	5400.15
950.6846	2216.8648	6274.35	5379.6
950.8186	2218.3479	6261.4	5361.7
950.9527	2219.8304	6246.5	5348.75
951.0867	2221.3121	6211.45	5313.45
951.2207	2222.7931	6199.1	5303.4
951.3546	2224.2733	6173.3	5281.8
951.4886	2225.7529	6147.45	5255.8
951.6225	2227.2317	6127.3	5234.5
951.7563	2228.7098	6116.15	5227.85
951.8902	2230.1872	6086.35	5197.45
952.024	2231.6638	6097.05	5208.6
952.1578	2233.1397	6071.5	5179.15
952.2916	2234.6149	6054.8	5166.55
952.4253	2236.0894	6033.75	5143.95
952.559	2237.5632	6025.55	5132.7
952.6927	2239.0362	6009.55	5120.5
952.8263	2240.5085	6001.7	5110.9
952.9599	2241.9801	5969.65	5077.2
953.0935	2243.4509	5951.3	5059.05
953.2271	2244.921	5943.9	5050.45
953.3606	2246.3904	5920.35	5023.45
953.4941	2247.8591	5892.6	5000.6
953.6276	2249.3271	5862.95	4969.5
953.7611	2250.7943	5852.4	4957.95
953.8945	2252.2608	5851.95	4957.35
954.0279	2253.7266	5826.05	4934.95
954.1612	2255.1917	5813.35	4921.35
954.2946	2256.656	5785.05	4894.05
954.4279	2258.1197	5762.8	4874.05
954.5612	2259.5826	5756.1	4866.8
954.6944	2261.0447	5757.8	4864.9
954.8276	2262.5062	5734.15	4841
954.9608	2263.9669	5713.45	4817.4
955.094	2265.4269	5705.3	4812.6
955.2271	2266.8862	5675.15	4783.85
955.3602	2268.3448	5686	4794.65
955.4933	2269.8026	5683.05	4792.5
955.6264	2271.2598	5672.5	4782.1
955.7594	2272.7162	5638.55	4748.45
955.8924	2274.1719	5620.1	4729.15
956.0253	2275.6268	5606.1	4712.75
956.1583	2277.0811	5610	4717.95
956.2912	2278.5346	5602.7	4713.15
956.4241	2279.9874	5567.25	4677.75
956.5569	2281.4395	5563.3	4675.65
956.6897	2282.8908	5558.6	4664.55
956.8225	2284.3414	5561.4	4669.6
956.9553	2285.7914	5534.3	4642.7
957.088	2287.2406	5513.1	4618.4
957.2207	2288.689	5491.1	4598.3
957.3534	2290.1368	5491.5	4595.8
957.486	2291.5838	5470.35	4573.15
957.6186	2293.0302	5452.1	4555.45
957.7512	2294.4758	5426.55	4532.15
957.8838	2295.9206	5429.3	4535.15
958.0163	2297.3648	5410.05	4517.5
958.1488	2298.8082	5414.15	4520.1
958.2813	2300.251	5380.25	4487.95
958.4137	2301.693	5371.6	4474.6
958.5461	2303.1343	5357.3	4461.5
958.6785	2304.5748	5332.6	4442.25
958.8108	2306.0147	5306.5	4416.4
958.9432	2307.4538	5324.5	4432.1
959.0754	2308.8922	5275.75	4388.3
959.2077	2310.3299	5278.3	4389.5
959.3399	2311.7669	5260.15	4371.5
959.4721	2313.2031	5259.05	4367.15
959.6043	2314.6387	5244.35	4353.5
959.7365	2316.0735	5215.8	4322.4
959.8686	2317.5076	5203.8	4310.85
960.0006	2318.941	5194.95	4301.2
960.1327	2320.3737	5193.55	4297.65
960.2647	2321.8056	5159.55	4264.7
960.3967	2323.2369	5152.7	4260.85
960.5287	2324.6674	5158.8	4263.8
960.6606	2326.0972	5130.7	4236.8
960.7925	2327.5263	5120.8	4228.45
960.9244	2328.9547	5088.45	4194.9
961.0562	2330.3823	5106.5	4211.7
961.1881	2331.8092	5109.2	4208.75
961.3198	2333.2355	5069.9	4174.55
961.4516	2334.661	5048	4153.75
961.5833	2336.0858	5041.75	4145.05
961.715	2337.5098	5022.55	4128.4
961.8467	2338.9332	5020.55	4127.85
961.9783	2340.3558	5005.85	4110.25
962.1099	2341.7778	4976.4	4083.55
962.2415	2343.199	4957.85	4065.7
962.373	2344.6195	4965.55	4072.85
962.5045	2346.0393	4954.1	4062.2
962.636	2347.4583	4950.95	4056.85
962.7675	2348.8767	4924.75	4030.65
962.8989	2350.2943	4924.9	4029.9
963.0303	2351.7113	4917.5	4018.7
963.1617	2353.1275	4891.25	3996.4
963.293	2354.543	4899.55	3978.6
963.4243	2355.9578	4880.7	3988.45
963.5556	2357.3718	4845.9	3955.2
963.6868	2358.7852	4816.8	3924.95
963.818	2360.1978	4822.6	3932.75
963.9492	2361.6098	4805.95	3915.8
964.0803	2363.021	4805.25	3908.9
964.2114	2364.4315	4791.5	3898.55
964.3425	2365.8413	4759.65	3865.7
964.4736	2367.2504	4749.8	3858.3
964.6046	2368.6587	4725.45	3833.3
964.7356	2370.0664	4723.25	3831
964.8666	2371.4733	4710.35	3817.95
964.9975	2372.8795	4701.9	3811
965.1284	2374.285	4689.75	3797.6
965.2593	2375.6899	4670.65	3779.35
965.3901	2377.0939	4632.1	3739.25
965.5209	2378.4973	4625.15	3733.55
965.6517	2379.9	4619.05	3724.9
965.7825	2381.3019	4604.45	3713.95
965.9132	2382.7032	4603.15	3712.25
966.0439	2384.1037	4579.05	3690.8
966.1745	2385.5035	4564.85	3677
966.3051	2386.9027	4550.85	3661.55
966.4357	2388.3011	4564.3	3671.4
966.5663	2389.6987	4548	3656.3
966.6968	2391.0957	4537.8	3647.4
966.8273	2392.492	4502.95	3613.95
966.9578	2393.8876	4468.3	3578.65
967.0882	2395.2824	4478.6	3587.3
967.2186	2396.6765	4451.75	3559.9
967.349	2398.07	4440.15	3547.95
967.4793	2399.4627	4426.1	3533.1
967.6097	2400.8547	4433.6	3540.65
967.7399	2402.246	4435.55	3538.6
967.8702	2403.6366	4396.2	3502.7
968.0004	2405.0265	4374.45	3482.45
968.1306	2406.4156	4364.05	3470.05
968.2607	2407.8041	4346.9	3452.25
968.3909	2409.1918	4345.25	3451
968.521	2410.5789	4324.8	3432.8
968.651	2411.9652	4308.45	3412.55
968.781	2413.3508	4282	3389.85
968.911	2414.7358	4280.9	3385.9
969.041	2416.12	4271.05	3377.3
969.1709	2417.5035	4256.4	3364
969.3008	2418.8863	4241.25	3347.45
969.4307	2420.2684	4240.7	3349.65
969.5606	2421.6497	4216.15	3323
969.6904	2423.0304	4189.25	3298
969.8201	2424.4104	4199.2	3306.65
969.9499	2425.7896	4200	3306.2
970.0796	2427.1682	4172.9	3280.8
970.2093	2428.546	4158.25	3266.4
970.3389	2429.9232	4145.5	3252.2
970.4685	2431.2996	4128.75	3236.75
970.5981	2432.6753	4144.6	3253.45
970.7277	2434.0503	4144.9	3252.8
970.8572	2435.4246	4120.55	3228.35
970.9867	2436.7982	4100.25	3204.8
971.1161	2438.1711	4086.05	3195.1
971.2456	2439.5433	4084.45	3189.95
971.375	2440.9148	4060.25	3160.55
971.5043	2442.2856	4044.95	3152.9
971.6336	2443.6557	4042.1	3147.45
971.7629	2445.025	4029.35	3137.35
971.8922	2446.3937	4016.75	3123.25
972.0214	2447.7617	4008.65	3115.95
972.1506	2449.1289	4017.2	3123.7
972.2798	2450.4955	4001.2	3104.2
972.4089	2451.8613	3972.8	3083.05
972.538	2453.2265	3970.3	3078.35
972.6671	2454.5909	3966.95	3074.9
972.7961	2455.9546	3954.3	3062.45
972.9251	2457.3177	3926.9	3037.1
973.0541	2458.68	3925.65	3032.55
973.1831	2460.0416	3928	3035.25
973.312	2461.4025	3918.55	3024.3
973.4408	2462.7627	3921.15	3017.85
973.5697	2464.1222	3904.1	3014.1
973.6985	2465.4811	3897.6	3005.5
973.8273	2466.8392	3884.95	2994.85
973.956	2468.1966	3859.45	2965.4
974.0847	2469.5533	3876.55	2982.2
974.2134	2470.9093	3876.3	2984.3
974.3421	2472.2645	3859.8	2968.3
974.4707	2473.6191	3850.1	2958.3
974.5993	2474.973	3834.7	2941.35
974.7278	2476.3262	3825.8	2932.35
974.8563	2477.6787	3791.35	2899.65
974.9848	2479.0305	3783.9	2892.25
975.1132	2480.3816	3792.5	2901.15
975.2417	2481.7319	3770.7	2879.6
975.37	2483.0816	3767.6	2874.4
975.4984	2484.4306	3756	2866.6
975.6267	2485.7789	3739.8	2849.8
975.755	2487.1264	3725.3	2832.2
975.8833	2488.4733	3710.05	2821.05
976.0115	2489.8195	3714.15	2806.9
976.1397	2491.165	3683.95	2787.25
976.2678	2492.5097	3661.35	2768.2
976.3959	2493.8538	3660.7	2771.5
976.524	2495.1972	3652.55	2760.7
976.6521	2496.5398	3650.35	2758.75
976.7801	2497.8818	3646.95	2753.65
976.9081	2499.2231	3625.35	2733.3
977.036	2500.5637	3618.2	2723.75
977.164	2501.9035	3623.55	2731.1
977.2918	2503.2427	3617.9	2722.7
977.4197	2504.5812	3604.05	2711.5
977.5475	2505.919	3583.7	2688.75
977.6753	2507.256	3584.1	2691.75
977.8031	2508.5924	3570.15	2679.65
977.9308	2509.9281	3565.2	2669.35
978.0585	2511.2631	3539.1	2650.15
978.1861	2512.5974	3535.05	2645.2
978.3137	2513.9309	3532.95	2641.05
978.4413	2515.2638	3540.45	2620.3
978.5689	2516.596	3508.5	2615.8
978.6964	2517.9275	3504.15	2608.65
978.8239	2519.2583	3497.35	2606.8
978.9513	2520.5884	3484.7	2593.65
979.0788	2521.9178	3470.05	2578.3
979.2062	2523.2465	3460.15	2570.2
979.3335	2524.5745	3449.75	2560.35
979.4608	2525.9018	3444.95	2553.05
979.5881	2527.2284	3432.75	2542.2
979.7154	2528.5543	3423.15	2533.05
979.8426	2529.8796	3417.05	2523.65
979.9698	2531.2041	3422.5	2531.05
980.0969	2532.5279	3407.65	2517.1
980.224	2533.851	3390.9	2499.6
980.3511	2535.1735	3386.3	2494.45
980.4781	2536.4952	3381.45	2489.45
980.6052	2537.8163	3378.45	2484.7
980.7321	2539.1366	3362.9	2472
980.8591	2540.4562	3362.75	2469.9
980.986	2541.7752	3360.45	2466.7
981.1129	2543.0935	3346.4	2453.1
981.2397	2544.411	3342.85	2448.55
981.3665	2545.7279	3337.7	2445.65
981.4933	2547.0441	3348.3	2457
981.62	2548.3596	3333.75	2437.2
981.7467	2549.6744	3324.45	2431.7
981.8734	2550.9885	3324.95	2432.1
982.0001	2552.3019	3306.15	2415.35
982.1267	2553.6146	3310.85	2418.65
982.2532	2554.9266	3289.3	2397
982.3798	2556.2379	3291.85	2396.55
982.5063	2557.5485	3288.05	2397.35
982.6327	2558.8585	3274.65	2375.1
982.7592	2560.1677	3274.6	2377.35
982.8856	2561.4762	3264.3	2371.5
983.0119	2562.7841	3271.1	2377.45
983.1383	2564.0913	3251.65	2360.55
983.2646	2565.3977	3256.95	2364.55
983.3908	2566.7035	3238.1	2345.5
983.517	2568.0086	3240.75	2348.65
983.6432	2569.313	3239.35	2344.4
983.7694	2570.6167	3227.05	2328.85
983.8955	2571.9197	3220.45	2328.4
984.0216	2573.222	3221.5	2325.6
984.1476	2574.5236	3212.85	2320.75
984.2737	2575.8246	3202.05	2306.55
984.3996	2577.1248	3187.45	2291.6
984.5256	2578.4244	3195.2	2305.05
984.6515	2579.7232	3189.1	2294.65
984.7774	2581.0214	3199.65	2277.5
984.9032	2582.3189	3178.7	2285.7
985.029	2583.6157	3183.5	2286.95
985.1548	2584.9118	3171.45	2278.45
985.2806	2586.2072	3149	2256.85
985.4063	2587.5019	3147.45	2254.95
985.5319	2588.7959	3146	2253.9
985.6576	2590.0893	3148.85	2255.75
985.7832	2591.3819	3127.55	2234.3
985.9087	2592.6739	3119.15	2228.5
986.0343	2593.9652	3123.6	2230.6
986.1597	2595.2557	3117.3	2225.65
986.2852	2596.5456	3108	2213.1
986.4106	2597.8348	3095.1	2204.5
986.536	2599.1234	3088.15	2197.8
986.6614	2600.4112	3087	2194.55
986.7867	2601.6983	3097.15	2202.3
986.912	2602.9848	3071.6	2178.9
987.0372	2604.2705	3066.8	2170.2
987.1624	2605.5556	3055.2	2163.75
987.2876	2606.84	3045.45	2156.2
987.4128	2608.1237	3040.8	2146.85
987.5379	2609.4067	3029.5	2140
987.6629	2610.689	3025.2	2126.45
987.788	2611.9707	3008.1	2112.3
987.913	2613.2516	3010.05	2114.1
988.0379	2614.5319	2985.35	2093.95
988.1629	2615.8115	2978.1	2085.85
988.2878	2617.0903	2956.75	2065.8
988.4126	2618.3685	2962.1	2070.7
988.5375	2619.6461	2957.4	2066.6
988.6622	2620.9229	2963.6	2071.4
988.787	2622.199	2945.85	2054.4
988.9117	2623.4745	2941.3	2050.75
989.0364	2624.7493	2930.6	2041.3
989.161	2626.0234	2912.3	2024.45
989.2857	2627.2968	2916.95	2026.1
989.4102	2628.5695	2903.55	2012.35
989.5348	2629.8415	2902.95	2012.35
989.6593	2631.1128	2893.55	2002
989.7837	2632.3835	2885.5	1994.3
989.9082	2633.6535	2874.35	1983.6
990.0326	2634.9228	2864.9	1973.7
990.1569	2636.1914	2866	1976.8
990.2812	2637.4593	2864.75	1974.45
990.4055	2638.7265	2856.35	1965.15
990.5298	2639.9931	2840.05	1947.95
990.654	2641.259	2834.8	1942.9
990.7782	2642.5242	2820.45	1931.5
990.9023	2643.7887	2827.75	1938.25
991.0264	2645.0525	2821.35	1929.85
991.1505	2646.3156	2819.6	1914.65
991.2745	2647.5781	2797.65	1907.1
991.3985	2648.8398	2788.7	1898.8
991.5225	2650.1009	2810.25	1894.95
991.6464	2651.3613	2796.6	1906.95
991.7703	2652.6211	2783.25	1891.5
991.8942	2653.8801	2774.25	1886.55
992.018	2655.1385	2764.45	1869.55
992.1418	2656.3961	2766.45	1875.75
992.2655	2657.6531	2753.3	1862.25
992.3892	2658.9094	2752.8	1862
992.5129	2660.1651	2755.25	1864.6
992.6366	2661.42	2740.35	1850.25
992.7602	2662.6743	2750.25	1858.6
992.8837	2663.9279	2746.45	1856.6
993.0073	2665.1808	2745.3	1854.7
993.1307	2666.433	2732.1	1839.9
993.2542	2667.6846	2715.8	1826.4
993.3776	2668.9354	2722.15	1828.55
993.501	2670.1856	2714.05	1822.05
993.6244	2671.4351	2717.8	1826.4
993.7477	2672.6839	2710.3	1818.35
993.8709	2673.9321	2710.85	1820.65
993.9942	2675.1795	2687.45	1796.3
994.1174	2676.4263	2695.9	1805.95
994.2405	2677.6724	2696.8	1806.3
994.3637	2678.9179	2684.55	1793.2
994.4868	2680.1626	2677.4	1786.5
994.6098	2681.4067	2689.8	1799
994.7328	2682.6501	2676.9	1787.3
994.8558	2683.8928	2664.9	1775.65
994.9788	2685.1348	2643.7	1753.65
995.1017	2686.3761	2638.65	1748.05
995.2245	2687.6168	2632.65	1743.25
995.3474	2688.8568	2634.55	1743.85
995.4702	2690.0961	2623.25	1732.95
995.5929	2691.3348	2622.95	1732.15
995.7156	2692.5727	2619.25	1729.8
995.8383	2693.81	2611.7	1720.8
995.961	2695.0466	2598.95	1710.9
996.0836	2696.2826	2596.05	1705.5
996.2062	2697.5178	2592.85	1701.1
996.3287	2698.7524	2582.75	1691.4
996.4512	2699.9863	2584.25	1692.6
996.5737	2701.2195	2586.3	1696.2
996.6961	2702.452	2578.5	1688.65
996.8185	2703.6839	2575.55	1684.5
996.9408	2704.9151	2573.95	1684.65
997.0631	2706.1456	2573.8	1684.5
997.1854	2707.3755	2560.2	1669.1
997.3077	2708.6046	2572.65	1681.2
997.4299	2709.8331	2571.7	1681.95
997.552	2711.0609	2561.85	1671.9
997.6742	2712.2881	2568.7	1680.8
997.7963	2713.5145	2572.45	1679.25
997.9183	2714.7403	2560.85	1670.5
998.0403	2715.9654	2559.7	1667.45
998.1623	2717.1899	2582.1	1677.35
998.2842	2718.4136	2576.45	1685.1
998.4062	2719.6367	2582.2	1695.05
998.528	2720.8591	2580.85	1685.95
998.6498	2722.0809	2572.35	1683.4
998.7716	2723.3019	2580.5	1685.45
998.8934	2724.5223	2580.8	1688.75
999.0151	2725.7421	2575.35	1685.15
999.1368	2726.9611	2565.6	1673.55
999.2584	2728.1795	2569	1673.65
999.38	2729.3972	2551.2	1662.05
999.5016	2730.6142	2545.5	1649.5
999.6231	2731.8306	2533.45	1641.15
999.7446	2733.0462	2512.25	1622.5
999.8661	2734.2612	2502.8	1608.05
999.9875	2735.4756	2491.5	1600.4
1000.1089	2736.6892	2468.3	1579.85
1000.2302	2737.9022	2446.95	1558
1000.3515	2739.1145	2441.8	1551.9
1000.4728	2740.3262	2434	1537.5
1000.594	2741.5372	2416.45	1528
1000.7152	2742.7475	2398.5	1506.6
1000.8363	2743.9571	2396.3	1506
1000.9575	2745.1661	2393.65	1498.85
1001.0785	2746.3744	2380.85	1491.7
1001.1996	2747.582	2348.25	1460.25
1001.3206	2748.7889	2338.7	1449.05
1001.4415	2749.9952	2345.6	1458.65
1001.5625	2751.2008	2325.2	1435.1
1001.6833	2752.4057	2317.85	1425.25
1001.8042	2753.61	2321.95	1430.65
1001.925	2754.8136	2325.65	1433.35
1002.0458	2756.0165	2306	1416.6
1002.1665	2757.2188	2301.95	1415.05
1002.2872	2758.4204	2298.45	1409.95
1002.4078	2759.6213	2294.55	1404
1002.5285	2760.8215	2293.95	1399.85
1002.649	2762.0211	2288.3	1397.85
1002.7696	2763.22	2284.7	1392.95
1002.8901	2764.4182	2288.55	1400.7
1003.0106	2765.6158	2276.4	1386.6
1003.131	2766.8127	2261.8	1373.2
1003.2514	2768.009	2258.4	1369.7
1003.3717	2769.2045	2255.85	1366.15
1003.492	2770.3994	2255.9	1363.25
1003.6123	2771.5936	2236.75	1347.25
1003.7325	2772.7872	2225.35	1338.35
1003.8527	2773.9801	2216.8	1326.3
1003.9729	2775.1723	2238.9	1332.95
1004.093	2776.3639	2216.8	1329.05
1004.2131	2777.5548	2215.55	1323.6
1004.3331	2778.745	2211.8	1321.45
1004.4531	2779.9346	2212.8	1324.45
1004.5731	2781.1235	2201.65	1313.8
1004.693	2782.3117	2193.25	1306.5
1004.8129	2783.4992	2187.9	1299.05
1004.9328	2784.6861	2201.1	1312.6
1005.0526	2785.8723	2199.8	1309.7
1005.1723	2787.0579	2196.95	1306.2
1005.2921	2788.2428	2184.5	1293.9
1005.4118	2789.427	2179.8	1290.6
1005.5314	2790.6106	2186.9	1299.65
1005.651	2791.7935	2189.9	1302.2
1005.7706	2792.9757	2195.7	1307.8
1005.8902	2794.1573	2189.45	1299.1
1006.0097	2795.3382	2194.25	1305.4
1006.1291	2796.5184	2184.55	1298.45
1006.2485	2797.698	2204.9	1315.45
1006.3679	2798.8769	2201.1	1312.8
1006.4873	2800.0551	2201.25	1314
1006.6066	2801.2327	2203.95	1315.15
1006.7258	2802.4096	2217.25	1328.5
1006.8451	2803.5859	2220.35	1332.75
1006.9642	2804.7615	2235.85	1347.15
1007.0834	2805.9364	2246.5	1358.85
1007.2025	2807.1106	2253.7	1366.1
1007.3216	2808.2842	2270.2	1380.5
1007.4406	2809.4572	2278.5	1388.65
1007.5596	2810.6294	2299.7	1411.65
1007.6785	2811.801	2320.95	1434.8
1007.7975	2812.972	2347.3	1460.5
1007.9163	2814.1423	2371.35	1483.85
1008.0352	2815.3119	2398.35	1509.15
1008.154	2816.4808	2437	1550.6
1008.2727	2817.6491	2451.75	1563.5
1008.3914	2818.8167	2495.4	1607.95
1008.5101	2819.9837	2525.75	1631.05
1008.6288	2821.15	2550.65	1664.35
1008.7474	2822.3157	2594.3	1708.3
1008.8659	2823.4807	2628.35	1740.7
1008.9844	2824.645	2681.65	1792.5
1009.1029	2825.8086	2721.5	1834.2
1009.2214	2826.9716	2749.05	1862.9
1009.3398	2828.134	2781.65	1895.3
1009.4581	2829.2957	2816.4	1928.6
1009.5764	2830.4567	2843.55	1957.45
1009.6947	2831.617	2868.9	1981.5
1009.813	2832.7767	2844.55	1957
1009.9312	2833.9358	2865.6	1977.55
1010.0493	2835.0941	2849.85	1959.9
1010.1675	2836.2519	2825.55	1939.85
1010.2855	2837.4089	2811.65	1925.2
1010.4036	2838.5653	2802.6	1916.15
1010.5216	2839.7211	2805.7	1920.15
1010.6396	2840.8761	2788.85	1900.65
1010.7575	2842.0306	2782.05	1896.9
1010.8754	2843.1843	2799.9	1912.7
1010.9932	2844.3374	2811.35	1923.4
1011.111	2845.4899	2841.25	1952.8
1011.2288	2846.6417	2882.4	1997.25
1011.3465	2847.7928	2928.05	2042.85
1011.4642	2848.9433	2964.7	2078.1
1011.5818	2850.0931	3005.65	2119.1
1011.6995	2851.2422	3056.1	2167.45
1011.817	2852.3907	3096.2	2207
1011.9345	2853.5385	3131.85	2242.85
1012.052	2854.6857	3164.85	2270.15
1012.1695	2855.8323	3205.05	2317.05
1012.2869	2856.9781	3219.35	2333.35
1012.4042	2858.1233	3258.2	2369.65
1012.5216	2859.2679	3301.05	2415.2
1012.6389	2860.4118	3318.05	2430.2
1012.7561	2861.555	3339.8	2447.25
1012.8733	2862.6976	3382.9	2495.4
1012.9905	2863.8395	3417.7	2532
1013.1076	2864.9808	3424	2534.9
1013.2247	2866.1214	3422	2537.95
1013.3417	2867.2614	3422.2	2536.15
1013.4587	2868.4007	3463.55	2576.55
1013.5757	2869.5393	3450	2562.25
1013.6926	2870.6773	3456.05	2566.4
1013.8095	2871.8146	3477.1	2587.1
1013.9263	2872.9513	3482.65	2593.2
1014.0431	2874.0874	3455.25	2569.95
1014.1599	2875.2227	3448.55	2561.8
1014.2766	2876.3574	3428.05	2539
1014.3933	2877.4915	3403.2	2518.8
1014.51	2878.6249	3384.35	2497.7
1014.6266	2879.7577	3359.05	2470.1
1014.7431	2880.8898	3356.95	2457.85
1014.8596	2882.0212	3348.7	2462.75
1014.9761	2883.152	3338.45	2449.7
1015.0925	2884.2821	3313.3	2428.35
1015.2089	2885.4116	3319.4	2434.45
1015.3253	2886.5405	3299.95	2414.95
1015.4416	2887.6686	3315.7	2427.05
1015.5579	2888.7962	3312.15	2427.2
1015.6741	2889.923	3322.05	2439.35
1015.7903	2891.0493	3322.05	2435.65
1015.9065	2892.1748	3319.9	2433.85
1016.0226	2893.2997	3321.35	2434.5
1016.1387	2894.424	3317.2	2431.7
1016.2547	2895.5476	3340.1	2451.25
1016.3707	2896.6706	3343.5	2460.15
1016.4866	2897.7929	3367.5	2479.95
1016.6025	2898.9145	3387.35	2501.1
1016.7184	2900.0355	3407.2	2518.75
1016.8342	2901.1559	3413.9	2527.25
1016.95	2902.2756	3431.05	2546.5
1017.0658	2903.3946	3447.25	2561.9
1017.1815	2904.513	3453.7	2564.1
1017.2971	2905.6308	3471.85	2587.05
1017.4127	2906.7479	3492.05	2605.45
1017.5283	2907.8643	3509	2620.9
1017.6439	2908.9801	3503.45	2619.35
1017.7594	2910.0953	3506	2618.95
1017.8748	2911.2098	3507.45	2618.15
1017.9902	2912.3236	3502.45	2606.55
1018.1056	2913.4368	3497.95	2609.95
1018.2209	2914.5494	3473.7	2586.6
1018.3362	2915.6613	3444.75	2552.55
1018.4515	2916.7725	3415.05	2524.75
1018.5667	2917.8831	3398.05	2512.4
1018.6819	2918.9931	3384.7	2495.1
1018.797	2920.1024	3344.55	2457.3
1018.9121	2921.211	3330.8	2443.95
1019.0271	2922.319	3303.25	2418.15
1019.1421	2923.4264	3301.85	2414.95
1019.2571	2924.5331	3309	2422.3
1019.372	2925.6391	3301.75	2417.9
1019.4869	2926.7445	3291.6	2405.95
1019.6017	2927.8493	3283.65	2397.85
1019.7165	2928.9534	3268.1	2381.55
1019.8313	2930.0569	3296.05	2407.3
1019.946	2931.1597	3283.4	2395.85
1020.0606	2932.2619	3302.95	2418.6
1020.1753	2933.3634	3284.2	2398.55
1020.2899	2934.4643	3293.85	2399.9
1020.4044	2935.5645	3274.5	2384.25
1020.5189	2936.6641	3260.95	2371.7
1020.6334	2937.763	3241.95	2357.35
1020.7478	2938.8613	3209	2323.15
1020.8622	2939.959	3184.8	2294.75
1020.9765	2941.056	3131.15	2245.1
1021.0908	2942.1523	3078.75	2192.7
1021.2051	2943.248	3025.9	2139.75
1021.3193	2944.3431	2954.65	2070.35
1021.4334	2945.4375	2884.05	1997.45
1021.5476	2946.5313	2802.75	1917.55
1021.6617	2947.6244	2740.4	1855.95
1021.7757	2948.7169	2667.35	1781.7
1021.8897	2949.8087	2597.65	1713.1
1022.0037	2950.8999	2529.5	1644.45
1022.1176	2951.9904	2463.55	1577.95
1022.2315	2953.0803	2426.2	1539.45
1022.3453	2954.1696	2379.6	1492.1
1022.4591	2955.2582	2329.45	1445.8
1022.5728	2956.3462	2300.35	1414.75
1022.6865	2957.4335	2271.8	1386.05
1022.8002	2958.5202	2243.55	1355.7
1022.9138	2959.6062	2220	1333.6
1023.0274	2960.6916	2193.8	1310.45
1023.141	2961.7764	2186	1299.35
1023.2545	2962.8605	2163.95	1279.3
1023.3679	2963.9439	2168.8	1282.9
1023.4813	2965.0267	2161.75	1274.55
1023.5947	2966.1089	2178.55	1269.7
1023.708	2967.1905	2141.1	1255.55
1023.8213	2968.2714	2137.35	1253.55
1023.9346	2969.3516	2132.4	1249.15
1024.0478	2970.4312	2143.3	1250.55
1024.1609	2971.5102	2143.45	1259.25
1024.274	2972.5885	2135.05	1248.95
1024.3871	2973.6662	2141.35	1251.8
1024.5002	2974.7432	2130.55	1246.4
1024.6132	2975.8196	2129.4	1246.2
1024.7261	2976.8954	2121.65	1235
1024.839	2977.9705	2116.4	1231.05
1024.9519	2979.045	2104.45	1219.4
1025.0647	2980.1188	2085.4	1201.85
1025.1775	2981.192	2077.3	1192.8
1025.2902	2982.2645	2060	1175.65
1025.4029	2983.3364	2039.8	1156.3
1025.5156	2984.4077	2027.35	1142.2
1025.6282	2985.4783	2014.1	1123.4
1025.7407	2986.5483	1987.5	1101.7
1025.8532	2987.6177	1951.7	1067.4
1025.9657	2988.6864	1928.15	1041.65
1026.0782	2989.7545	1908.1	1022.45
1026.1906	2990.8219	1887.7	1003.5
1026.3029	2991.8887	1859.5	973.55
1026.4152	2992.9548	1835.85	949.65
1026.5275	2994.0204	1817.95	934
1026.6397	2995.0852	1786.15	902.9
1026.7519	2996.1495	1760.8	874
1026.864	2997.2131	1741.15	854
1026.9761	2998.276	1727.3	842.45
1027.0882	2999.3383	1713.95	829.45
1027.2002	3000.4	1684.35	796.85
1027.3122	3001.4611	1680.5	794.95
1027.4241	3002.5215	1657	770.6
1027.536	3003.5812	1649.4	767.9
1027.6478	3004.6404	1633.6	750.1
1027.7596	3005.6989	1632.8	745.25
1027.8714	3006.7567	1611.45	725.55
1027.9831	3007.8139	1627.2	722.2
1028.0947	3008.8705	1592.1	706.85
1028.2064	3009.9264	1603	701.7
1028.3179	3010.9818	1591	707.35
1028.4295	3012.0364	1588.15	704.55
1028.541	3013.0905	1576.9	692.05
1028.6524	3014.1439	1573.4	689.1
1028.7638	3015.1966	1560.1	674.15
1028.8752	3016.2487	1559	675.65
1028.9865	3017.3002	1554.4	666.75
1029.0978	3018.3511	1548.75	667
1029.209	3019.4013	1547	661.55
1029.3202	3020.4509	1547.5	666.25
1029.4314	3021.4998	1546.6	661.15
1029.5425	3022.5481	1545.1	660.75
1029.6535	3023.5958	1540.7	655.85
1029.7645	3024.6428	1531.8	645.8
1029.8755	3025.6892	1529	644.95
1029.9864	3026.735	1527	641.5
1030.0973	3027.7802	1533.75	647.5
1030.2082	3028.8247	1526.9	642.8
1030.319	3029.8685	1523.65	639.4
1030.4297	3030.9118	1527.65	641.6
1030.5404	3031.9544	1525.8	641.65
1030.6511	3032.9963	1525.95	641.65
1030.7617	3034.0376	1527.5	642.8
1030.8723	3035.0783	1527.4	639.3
1030.9829	3036.1184	1524.05	637.9
1031.0934	3037.1578	1522.95	640.3
1031.2038	3038.1966	1526.55	640.95
1031.3142	3039.2348	1517.8	634.45
1031.4246	3040.2723	1531.6	637.7
1031.5349	3041.3092	1523.2	640.15
1031.6452	3042.3455	1513.15	629.2
1031.7554	3043.3811	1511.15	624.15
1031.8656	3044.4161	1514.7	631.1
1031.9758	3045.4505	1506.65	622.3
1032.0859	3046.4842	1507.9	623.5
1032.1959	3047.5173	1508.65	626.65
1032.3059	3048.5498	1504.25	619.45
1032.4159	3049.5816	1499.05	614.9
1032.5258	3050.6128	1500.45	613
1032.6357	3051.6434	1498.35	612.6
1032.7455	3052.6734	1484.2	598.35
1032.8553	3053.7027	1480.8	597
1032.9651	3054.7314	1478.35	594.3
1033.0748	3055.7594	1481.55	597.6
1033.1845	3056.7868	1478.3	595.15
1033.2941	3057.8136	1469.55	586.75
1033.4037	3058.8398	1465.75	582.3
1033.5132	3059.8653	1460	574.95
1033.6227	3060.8902	1457.6	574.9
1033.7321	3061.9145	1461.55	577.95
1033.8415	3062.9381	1456.05	571.25
1033.9509	3063.9612	1466.9	566.85
1034.0602	3064.9835	1447.85	563.8
1034.1694	3066.0053	1438.3	553.8
1034.2787	3067.0264	1436.25	551.7
1034.3878	3068.0469	1434.35	548.9
1034.497	3069.0668	1436.75	549.9
1034.6061	3070.086	1426.05	542.55
1034.7151	3071.1046	1412.35	525.1
1034.8241	3072.1226	1413.2	529.15
1034.9331	3073.1399	1405.55	524
1035.042	3074.1567	1399.85	515.2
1035.1508	3075.1727	1398.2	513.65
1035.2597	3076.1882	1390	505.85
1035.3684	3077.203	1386.8	503.55
1035.4772	3078.2173	1380.3	494.75
1035.5859	3079.2308	1376.25	489.45
1035.6945	3080.2438	1366.4	479.6
1035.8031	3081.2561	1360.65	476.25
1035.9117	3082.2678	1353	469.05
1036.0202	3083.2789	1353.05	471.15
1036.1286	3084.2893	1343.6	461.5
1036.2371	3085.2991	1342.7	456.35
1036.3454	3086.3083	1335.8	446.9
1036.4538	3087.3169	1332.45	446.7
1036.562	3088.3248	1326.4	441.55
1036.6703	3089.3321	1324.05	437.15
1036.7785	3090.3388	1321.9	439.55
1036.8866	3091.3449	1310.1	425.9
1036.9948	3092.3503	1311.3	425.3
1037.1028	3093.3551	1304.15	421.35
1037.2108	3094.3593	1299.95	416.45
1037.3188	3095.3629	1296.5	414.35
1037.4267	3096.3658	1303.8	420.05
1037.5346	3097.3681	1291.1	407.95
1037.6425	3098.3698	1293.7	408.5
1037.7503	3099.3708	1291.25	401.2
1037.858	3100.3713	1276.65	391.15
1037.9657	3101.3711	1281.7	397.95
1038.0734	3102.3702	1416.85	387.6
1038.181	3103.3688	1275	389.75
1038.2886	3104.3667	1267.85	385.55
1038.3961	3105.364	1272.35	389.3
1038.5036	3106.3607	1261.35	377.7
1038.611	3107.3568	1261.9	376.3
1038.7184	3108.3522	1256.8	373.2
1038.8257	3109.347	1257.45	373.95
1038.933	3110.3412	1254.95	366.15
1039.0403	3111.3348	1245.8	361.35
1039.1475	3112.3277	1245.85	362.5
1039.2547	3113.32	1242.85	360.7
1039.3618	3114.3117	1242.15	359.65
1039.4689	3115.3028	1237.35	353.75
1039.5759	3116.2932	1238	351.2
1039.6829	3117.2831	1244.95	357
1039.7898	3118.2723	1229.1	344
1039.8967	3119.2608	1229.05	345.75
1040.0035	3120.2488	1230.55	346.25
1040.1103	3121.2361	1218.05	334.65
1040.2171	3122.2229	1221.8	337.5
1040.3238	3123.209	1214.65	330.15
1040.4305	3124.1944	1218.95	336.3
1040.5371	3125.1793	1212.95	326.65
1040.6437	3126.1635	1214.55	333.15
1040.7502	3127.1471	1206.4	322.85
1040.8567	3128.1301	1205.75	324.9
1040.9631	3129.1125	1206.45	324.4
1041.0695	3130.0942	1210.55	325.15
1041.1759	3131.0753	1213.9	322.65
1041.2822	3132.0558	1202.1	315.9
1041.3884	3133.0357	1201	314.55
1041.4946	3134.015	1203.75	319.25
1041.6008	3134.9936	1202.15	316.35
1041.7069	3135.9716	1219.85	316.6
1041.813	3136.949	1195.95	313.05
1041.919	3137.9258	1203.95	301.8
1042.025	3138.902	1195.1	307
1042.1309	3139.8775	1185.65	302.15
1042.2368	3140.8524	1187.1	303.45
1042.3427	3141.8267	1185.45	299.1
1042.4485	3142.8004	1188.45	305.9
1042.5542	3143.7735	1191.7	301.45
1042.6599	3144.7459	1181.3	294.9
1042.7656	3145.7178	1182.05	297.7
1042.8712	3146.689	1176.1	293.5
1042.9768	3147.6596	1175.3	291.65
1043.0823	3148.6295	1172.15	288.2
1043.1878	3149.5989	1170.3	286.75
1043.2932	3150.5676	1169	287.65
1043.3986	3151.5357	1165.9	284.1
1043.5039	3152.5032	1169.7	287.8
1043.6092	3153.4701	1169.6	287.2
1043.7145	3154.4364	1167.4	280.8
1043.8197	3155.402	1163.1	280.5
1043.9248	3156.367	1162.8	279.05
1044.03	3157.3315	1192.05	270.55
1044.135	3158.2952	1155.25	270.8
1044.24	3159.2584	1156.8	273.05
1044.345	3160.221	1157.05	272.05
1044.4499	3161.1829	1151	269.4
1044.5548	3162.1442	1144.6	262.45
1044.6596	3163.105	1147.25	262.8
1044.7644	3164.065	1149.95	266.95
1044.8692	3165.0245	1143.4	259.55
1044.9739	3165.9834	1138.05	255.4
1045.0785	3166.9416	1142.15	258.75
1045.1831	3167.8993	1145.8	260.95
1045.2877	3168.8563	1141.3	257.55
1045.3922	3169.8127	1140.35	257.4
1045.4966	3170.7684	1141.1	255.1
1045.6011	3171.7236	1135.75	250.6
1045.7054	3172.6782	1132.95	250.6
1045.8098	3173.6321	1136.1	250.2
1045.914	3174.5854	1138.25	252.15
1046.0183	3175.5381	1138.8	256.35
1046.1224	3176.4902	1130.6	248.45
1046.2266	3177.4417	1125.75	241.85
1046.3307	3178.3926	1128.3	245.35
1046.4347	3179.3428	1125.75	244.25
1046.5387	3180.2924	1124.1	241.35
1046.6427	3181.2415	1121.7	238.85
1046.7466	3182.1899	1125.4	240.6
1046.8504	3183.1377	1121.8	239.85
1046.9542	3184.0848	1124.1	236.25
1047.058	3185.0314	1116.45	234.35
1047.1617	3185.9773	1115.25	229.9
1047.2654	3186.9227	1113.15	228.05
1047.369	3187.8674	1114.7	231.7
1047.4726	3188.8115	1113.1	224.75
1047.5761	3189.755	1110.7	229.85
1047.6796	3190.6979	1104.7	220.65
1047.783	3191.6402	1106.05	224.4
1047.8864	3192.5818	1107	221.6
1047.9898	3193.5229	1109.8	221.5
1048.0931	3194.4633	1107.9	226.2
1048.1963	3195.4031	1105	222.1
1048.2995	3196.3423	1102.15	218.5
1048.4027	3197.2809	1102.4	217.4
1048.5058	3198.2189	1099.5	214.95
1048.6089	3199.1563	1105.6	214.3
1048.7119	3200.0931	1093.25	210.7
1048.8148	3201.0292	1096.35	213.95
1048.9178	3201.9648	1100.55	218.4
1049.0206	3202.8997	1098.6	214.2
1049.1235	3203.834	1094.65	212.5
1049.2262	3204.7677	1086.8	204.55
1049.329	3205.7008	1086.85	201.75
1049.4317	3206.6333	1084.75	202.4
1049.5343	3207.5652	1089.9	205.1
1049.6369	3208.4964	1085.4	202
1049.7394	3209.4271	1085.9	201.5
1049.8419	3210.3571	1082.95	202.2
1049.9444	3211.2865	1083.2	199.55
1050.0468	3212.2154	1086.5	204.4
1050.1491	3213.1436	1082	195.85
1050.2514	3214.0712	1079.5	190.9
1050.3537	3214.9982	1081.85	199.65
1050.4559	3215.9246	1078.15	195.15
1050.5581	3216.8503	1082.4	201.25
1050.6602	3217.7755	1078.25	193.45
1050.7623	3218.7001	1072.6	190.45
1050.8643	3219.624	1071.4	186.7
1050.9663	3220.5473	1077.25	193
1051.0682	3221.4701	1070.7	186.85
1051.1701	3222.3922	1075.05	189.75
1051.2719	3223.3137	1073.9	191.1
1051.3737	3224.2346	1071.35	189
1051.4754	3225.1549	1068.8	186.4
1051.5771	3226.0746	1067.2	185.15
1051.6788	3226.9937	1066.9	184.15
1051.7804	3227.9121	1066.65	184.2
1051.8819	3228.83	1063.65	181.5
1051.9834	3229.7473	1067.15	182.15
1052.0849	3230.6639	1063.25	180.3
1052.1863	3231.5799	1056.5	173.8
1052.2876	3232.4954	1060.05	176.7
1052.3889	3233.4102	1063.2	180.2
1052.4902	3234.3244	1059.95	176.95
1052.5914	3235.238	1056.3	173.75
1052.6926	3236.151	1084.15	176.05
1052.7937	3237.0634	1056.25	175.3
1052.8948	3237.9752	1050.75	168.35
1052.9958	3238.8864	1055.05	172.5
1053.0968	3239.797	1050	167.35
1053.1977	3240.7069	1051.35	170.3
1053.2986	3241.6163	1051.1	166.85
1053.3994	3242.5251	1049.05	167.85
1053.5002	3243.4332	1045.1	162.25
1053.6009	3244.3408	1048.3	163.8
1053.7016	3245.2477	1046.75	164.6
1053.8022	3246.154	1048.9	166.55
1053.9028	3247.0598	1042.5	157.65
1054.0034	3247.9649	1040.2	158.6
1054.1039	3248.8694	1044.3	160.8
1054.2043	3249.7733	1043.1	162.55
1054.3047	3250.6766	1037.4	155.25
1054.4051	3251.5793	1036.75	155.2
1054.5054	3252.4814	1037.7	155
1054.6056	3253.3829	1029.9	146.85
1054.7058	3254.2838	1033.5	151.6
1054.806	3255.1841	1030.6	148.35
1054.9061	3256.0838	1032.35	150.1
1055.0061	3256.9829	1028.7	146.25
1055.1062	3257.8814	1035.95	149.3
1055.2061	3258.7792	1032.85	148.35
1055.306	3259.6765	1027.95	145.3
1055.4059	3260.5731	1025.05	141.9
1055.5057	3261.4692	1025.1	143.4
1055.6055	3262.3647	1021.1	137.2
1055.7052	3263.2595	1015.85	134.7
1055.8049	3264.1538	1018.7	137.7
1055.9045	3265.0474	1015.65	132
1056.0041	3265.9404	1010.9	127.3
1056.1036	3266.8329	1009.8	127.45
1056.2031	3267.7247	1020.95	128.65
1056.3025	3268.616	1008.8	126.9
1056.4019	3269.5066	1001.7	117.9
1056.5013	3270.3966	1002.65	119.1
1056.6005	3271.286	992.4	110.75
