Software Version:	3.9.2.0
Unit SN:	10000200
Spectrometer SN:	6960
Date:	3/26/2024 2:15:59 PM
Data Line Index:	25
Spectral Points:	2048
Integration time (ms):	125
Averages:	20
Delay (ms):	30000
Sequence Number:	1
Processing:	dark subtract
Laser Power (mW):	305
Laser Current (mA):	819
Laser Diode Temp (C):	25.1
Laser Case Temp (C):	27.6
System Temp (C):	27.6
Spectrometer Temp (C):	25.5
CCD Temp (C):	0.002
Secondary Temp (C):	20.006
Heatsink Temp (C):	22.966
CCDPCB Temp (C):	36.852
SecondaryPCB Temp (C):	34.628

Wavelength	RamanShift	Raw Counts	Dark Subtracted
787.061	30.1047	694	283.55
787.2016	32.3739	704.2	296.15
787.3422	34.6426	724.3	315.25
787.4828	36.9109	749.8	337.75
787.6235	39.1787	773.65	359
787.7642	41.4461	797.8	377.45
787.9049	43.7131	829.75	406.7
788.0456	45.9796	858.85	432.15
788.1863	48.2456	891.9	460
788.3271	50.5112	923.6	488.95
788.4679	52.7764	954.8	517.1
788.6087	55.0411	989.75	547.65
788.7496	57.3054	1023.3	576.25
788.8904	59.5692	1064.05	613.4
789.0313	61.8326	1104.5	652.2
789.1722	64.0955	1156.25	698.85
789.3132	66.3579	1211.85	750.15
789.4541	68.6199	1274	810.1
789.5951	70.8815	1388.1	922.4
789.7361	73.1426	1626.35	1154.95
789.8771	75.4032	2215.75	1737.85
790.0181	77.6634	3717.15	3233.45
790.1592	79.9231	7488.75	6995.9
790.3003	82.1824	16946.2	16435.05
790.4414	84.4412	38010.45	37462.15
790.5825	86.6995	63747.3	63153.95
790.7237	88.9574	65535	64895.65
790.8648	91.2148	65535	64862.4
791.006	93.4717	65535	64841.35
791.1472	95.7282	65535	64828.45
791.2885	97.9842	65535	64821.45
791.4297	100.2398	65535	64822.35
791.571	102.4949	65535	64818.05
791.7123	104.7495	65535	64814.8
791.8536	107.0036	65535	64817
791.9949	109.2573	65535	64818.25
792.1363	111.5105	65535	64818.15
792.2777	113.7632	65535	64808.65
792.4191	116.0154	65535	64801.8
792.5605	118.2672	65535	64805.5
792.7019	120.5185	65535	64804.55
792.8434	122.7693	65535	64803.55
792.9849	125.0197	65535	64801
793.1264	127.2696	65535	64801.85
793.2679	129.519	65535	64793.25
793.4094	131.7679	65535	64788.7
793.551	134.0163	65535	64784.85
793.6926	136.2642	65535	64781.85
793.8342	138.5117	65535	64778.8
793.9758	140.7587	65535	64776.3
794.1175	143.0052	65535	64768.85
794.2591	145.2512	65535	64773.2
794.4008	147.4967	65535	64778.45
794.5425	149.7417	65535	64777.25
794.6842	151.9863	65535	64768.9
794.826	154.2304	65535	64763.15
794.9677	156.4739	65535	64763.55
795.1095	158.717	65535	64757.2
795.2513	160.9596	65535	64752.1
795.3931	163.2017	65535	64756.2
795.535	165.4433	65535	64752
795.6768	167.6844	65535	64752.5
795.8187	169.925	65535	64749.6
795.9606	172.1651	65535	64748.55
796.1025	174.4047	65535	64748.1
796.2445	176.6439	65535	64747.1
796.3864	178.8825	65535	64744
796.5284	181.1206	65535	64732.9
796.6704	183.3582	65535	64725.1
796.8124	185.5954	65535	64727.4
796.9544	187.832	65535	64725.6
797.0965	190.0681	65535	64724.05
797.2386	192.3037	65535	64720.1
797.3806	194.5388	65535	64718.8
797.5228	196.7734	65535	64711.6
797.6649	199.0075	65535	64708.5
797.807	201.2411	65535	64701.45
797.9492	203.4742	65535	64705.25
798.0914	205.7068	65535	64702.25
798.2336	207.9389	65535	64706.95
798.3758	210.1704	65535	64699.8
798.518	212.4015	65535	64699.7
798.6603	214.632	65535	64704.6
798.8025	216.862	65535	64716.2
798.9448	219.0915	65535	64724.05
799.0871	221.3205	65535	64719.15
799.2294	223.549	65535	64720.75
799.3718	225.777	65535	64727.55
799.5141	228.0044	65535	64719.05
799.6565	230.2314	65535	64723.55
799.7989	232.4578	65535	64724.2
799.9413	234.6837	65535	64721.55
800.0837	236.909	65535	64712.7
800.2262	239.1339	65535	64685.35
800.3687	241.3582	65535	64700.2
800.5111	243.582	65535	64673.55
800.6536	245.8053	65535	64686.05
800.7961	248.0281	65535	64691.7
800.9387	250.2503	65535	64683.65
801.0812	252.472	65535	64678.45
801.2238	254.6932	65535	64675.15
801.3664	256.9139	65535	64674.35
801.509	259.134	65535	64670.75
801.6516	261.3536	65535	64677.15
801.7942	263.5727	65535	64668.75
801.9369	265.7912	65535	64672.65
802.0795	268.0092	65535	64675.15
802.2222	270.2267	65535	64673.95
802.3649	272.4436	65535	64669.8
802.5076	274.6601	65535	64660.75
802.6504	276.8759	65535	64677.5
802.7931	279.0913	65535	64664.15
802.9359	281.3061	65535	64666.1
803.0787	283.5204	65535	64664.2
803.2215	285.7341	65535	64660.15
803.3643	287.9473	65535	64644.8
803.5071	290.16	65535	64652.15
803.6499	292.3721	65535	64659.75
803.7928	294.5837	65535	64655.65
803.9357	296.7947	65535	64660.35
804.0786	299.0052	65535	64659.1
804.2215	301.2152	65535	64655.35
804.3644	303.4246	65535	64661.65
804.5074	305.6334	65535	64663.2
804.6503	307.8418	65535	64660.65
804.7933	310.0495	65535	64658.85
804.9363	312.2568	65535	64648.7
805.0793	314.4635	65535	64644.75
805.2223	316.6696	65535	64652.5
805.3653	318.8752	65535	64643.3
805.5084	321.0802	65535	64654.65
805.6514	323.2847	65535	64649.9
805.7945	325.4887	65535	64647.4
805.9376	327.692	65535	64645
806.0807	329.8949	65535	64640.95
806.2238	332.0972	65535	64646.85
806.367	334.2989	65535	64641.5
806.5101	336.5001	65535	64641.45
806.6533	338.7007	65535	64641.2
806.7965	340.9008	65535	64642.15
806.9397	343.1003	65535	64638.9
807.0829	345.2992	65535	64637.05
807.2261	347.4976	65535	64632.4
807.3693	349.6955	65535	64627.6
807.5126	351.8927	65535	64629.8
807.6559	354.0895	65535	64623
807.7991	356.2856	65535	64628.1
807.9424	358.4812	65535	64629.85
808.0857	360.6763	65535	64628.65
808.2291	362.8707	65535	64632.35
808.3724	365.0646	65535	64627.3
808.5158	367.258	65535	64625.5
808.6591	369.4508	65535	64620.1
808.8025	371.643	65535	64621.75
808.9459	373.8346	65535	64622.05
809.0893	376.0257	65535	64617.7
809.2327	378.2162	65535	64621.5
809.3762	380.4062	65535	64615.8
809.5196	382.5956	65535	64617.9
809.6631	384.7844	65535	64619.35
809.8066	386.9726	65535	64617.5
809.9501	389.1603	65535	64616.7
810.0936	391.3474	65535	64583.95
810.2371	393.5339	65535	64615.55
810.3806	395.7199	65535	64619
810.5241	397.9052	65535	64626.9
810.6677	400.09	65535	64631.6
810.8113	402.2743	65535	64633.9
810.9548	404.4579	65535	64631.55
811.0984	406.641	65535	64630.35
811.2421	408.8235	65535	64632
811.3857	411.0054	65535	64627.4
811.5293	413.1868	65535	64618.25
811.673	415.3675	65535	64621.35
811.8166	417.5477	65535	64619.8
811.9603	419.7273	65535	64624.8
812.104	421.9064	65535	64611.85
812.2477	424.0848	65535	64615.5
812.3914	426.2627	65535	64614.9
812.5351	428.4399	65535	64612.9
812.6788	430.6166	65535	64612.25
812.8226	432.7928	65535	64613.2
812.9663	434.9683	65535	64615.1
813.1101	437.1432	65535	64618.15
813.2539	439.3176	65535	64620.75
813.3977	441.4914	65535	64622.05
813.5415	443.6645	65535	64619.05
813.6853	445.8371	65535	64609.9
813.8291	448.0091	65535	64610.55
813.973	450.1806	65535	64618.65
814.1168	452.3514	65535	64617.05
814.2607	454.5216	65535	64610.65
814.4046	456.6913	65535	64614.2
814.5485	458.8603	65535	64613.85
814.6924	461.0288	65535	64620.4
814.8363	463.1967	65535	64619.3
814.9802	465.3639	65535	64615.8
815.1241	467.5306	65535	64611.5
815.2681	469.6967	65535	64621.95
815.412	471.8622	65535	64626.8
815.556	474.0271	65535	64623.35
815.7	476.1914	65535	64612.65
815.844	478.3551	65535	64612.3
815.988	480.5182	65535	64617.7
816.132	482.6807	65535	64625.4
816.276	484.8426	65535	64633.3
816.4201	487.0039	65535	64624.1
816.5641	489.1647	65535	64613.3
816.7082	491.3248	65535	64613.25
816.8522	493.4843	65535	64618.6
816.9963	495.6432	65535	64617.3
817.1404	497.8015	65535	64608.05
817.2845	499.9592	65535	64604.4
817.4286	502.1163	65535	64605.2
817.5727	504.2728	65535	64610.35
817.7168	506.4287	65535	64624.7
817.861	508.5839	65535	64624.35
818.0051	510.7386	65535	64616.25
818.1493	512.8927	65535	64604.15
818.2935	515.0461	65535	64607.75
818.4377	517.199	65535	64605.9
818.5818	519.3512	65535	64605.1
818.726	521.5029	65535	64602.3
818.8703	523.6539	65535	64607.85
819.0145	525.8043	65535	64605
819.1587	527.9541	65535	64604.05
819.303	530.1033	65535	64606.3
819.4472	532.2519	65535	64604.3
819.5915	534.3999	65535	64604.9
819.7357	536.5472	65535	64606.45
819.88	538.694	65535	64610.2
820.0243	540.8401	65535	64605.4
820.1686	542.9856	65535	64593.6
820.3129	545.1305	65535	64587.35
820.4572	547.2748	65535	64584.05
820.6016	549.4185	65535	64578.7
820.7459	551.5615	65535	64586.65
820.8902	553.704	65535	64583.8
821.0346	555.8458	65535	64594.9
821.1789	557.987	65535	64594.6
821.3233	560.1276	65535	64592.3
821.4677	562.2675	65535	64591.7
821.6121	564.4069	65535	64592.3
821.7565	566.5456	65535	64595.65
821.9009	568.6837	65535	64596.05
822.0453	570.8212	65535	64597
822.1897	572.958	65535	64596.25
822.3342	575.0942	65535	64604.6
822.4786	577.2299	65535	64608.9
822.6231	579.3648	65535	64616.75
822.7675	581.4992	65535	64625.9
822.912	583.6329	65535	64630.7
823.0565	585.766	65535	64621.5
823.201	587.8985	65535	64619.15
823.3454	590.0304	65535	64593.55
823.4899	592.1616	65535	64596.35
823.6345	594.2922	65535	64595.35
823.779	596.4222	65535	64593.5
823.9235	598.5515	65535	64589.9
824.068	600.6802	65535	64593.45
824.2126	602.8083	65535	64595.65
824.3571	604.9358	65535	64592.9
824.5017	607.0626	65535	64591.05
824.6462	609.1888	65535	64583.25
824.7908	611.3144	65535	64583.7
824.9354	613.4393	65535	64586.25
825.08	615.5636	65535	64584.05
825.2246	617.6873	65535	64589.65
825.3692	619.8103	65535	64587.1
825.5138	621.9327	65535	64591.5
825.6584	624.0544	65535	64597.25
825.803	626.1756	65535	64596.75
825.9477	628.2961	65535	64592.05
826.0923	630.4159	65535	64590.3
826.237	632.5351	65535	64588.7
826.3816	634.6537	65535	64587.6
826.5263	636.7716	65535	64582.75
826.6709	638.8889	65535	64578.25
826.8156	641.0056	65535	64577.8
826.9603	643.1216	65535	64576.5
827.105	645.237	65535	64585.75
827.2497	647.3518	65535	64595.25
827.3944	649.4659	65535	64597.05
827.5391	651.5793	65535	64596.9
827.6838	653.6922	65535	64591.2
827.8285	655.8043	65535	64587.5
827.9733	657.9159	65535	64589.25
828.118	660.0268	65535	64590.8
828.2627	662.137	65535	64584.7
828.4075	664.2466	65535	64582.85
828.5522	666.3556	65535	64581.9
828.697	668.4639	65535	64588.8
828.8418	670.5716	65535	64593.8
828.9865	672.6786	65535	64588.05
829.1313	674.785	65535	64582.5
829.2761	676.8907	65535	64587.05
829.4209	678.9958	65535	64586.75
829.5657	681.1002	65535	64586.2
829.7105	683.204	65535	64574.6
829.8553	685.3072	65535	64574.35
830.0001	687.4097	65535	64583.1
830.1449	689.5115	65535	64580.25
830.2898	691.6127	65535	64583.75
830.4346	693.7132	65535	64587.3
830.5794	695.8131	65535	64562.1
830.7243	697.9123	65535	64573.6
830.8691	700.0109	65535	64574.25
831.014	702.1089	65535	64579.55
831.1588	704.2061	65535	64581.75
831.3037	706.3028	65535	64578
831.4486	708.3987	65535	64576.3
831.5935	710.4941	65535	64580.35
831.7383	712.5887	65535	64583.05
831.8832	714.6827	65535	64582.55
832.0281	716.7761	65535	64586.9
832.173	718.8688	65535	64580.45
832.3179	720.9608	65535	64573.65
832.4628	723.0522	65535	64569.9
832.6077	725.1429	65535	64577.65
832.7527	727.233	65535	64576.45
832.8976	729.3224	65535	64579.6
833.0425	731.4112	65535	64578.45
833.1874	733.4993	65535	64579.05
833.3324	735.5867	65535	64583.85
833.4773	737.6735	65535	64575.05
833.6222	739.7596	65535	64572.65
833.7672	741.845	65535	64575.65
833.9122	743.9298	65535	64576.75
834.0571	746.014	65535	64578.35
834.2021	748.0974	65535	64568.8
834.347	750.1802	65535	64571.6
834.492	752.2624	65535	64574.25
834.637	754.3439	65535	64571.05
834.782	756.4247	65535	64570.15
834.9269	758.5048	65535	64572.5
835.0719	760.5843	65535	64576.05
835.2169	762.6631	65535	64575.2
835.3619	764.7413	65535	64573.75
835.5069	766.8188	65535	64571.4
835.6519	768.8956	65535	64573.25
835.7969	770.9718	65535	64573.85
835.9419	773.0473	65535	64573.15
836.0869	775.1221	65535	64572.25
836.232	777.1962	65535	64575.05
836.377	779.2697	65535	64573.7
836.522	781.3426	65535	64554.3
836.667	783.4147	65535	64570.2
836.8121	785.4862	65535	64575.95
836.9571	787.557	65535	64572.35
837.1021	789.6271	65535	64569.7
837.2472	791.6966	65535	64569.25
837.3922	793.7654	65535	64573.6
837.5373	795.8335	65535	64572.3
837.6823	797.901	65535	64574.15
837.8274	799.9678	65535	64569.5
837.9724	802.0339	65535	64570.5
838.1175	804.0993	65535	64560.65
838.2626	806.1641	65535	64572.6
838.4076	808.2282	65535	64569.85
838.5527	810.2916	65535	64571.55
838.6978	812.3544	65535	64571.7
838.8428	814.4164	65535	64572.55
838.9879	816.4778	65535	64570.6
839.133	818.5385	65535	64568.2
839.2781	820.5986	65535	64568.8
839.4232	822.658	65535	64568.7
839.5682	824.7166	65535	64567.05
839.7133	826.7747	65535	64571.8
839.8584	828.832	65535	64570.35
840.0035	830.8886	65535	64569.9
840.1486	832.9446	65535	64569.5
840.2937	834.9999	65535	64573.6
840.4388	837.0545	65535	64564.05
840.5839	839.1085	65535	64567.9
840.729	841.1618	65535	64567.25
840.8741	843.2143	65535	64572.1
841.0192	845.2662	65535	64568.1
841.1643	847.3175	65535	64572.6
841.3095	849.368	65535	64569.3
841.4546	851.4179	65535	64568.35
841.5997	853.467	65535	64573
841.7448	855.5155	65535	64571.05
841.8899	857.5633	65535	64571.3
842.0351	859.6105	65535	64571.4
842.1802	861.6569	65535	64568.15
842.3253	863.7027	65535	64567.1
842.4704	865.7478	65535	64565.55
842.6156	867.7922	65535	64566.35
842.7607	869.8359	65535	64567.2
842.9058	871.8789	65535	64567.55
843.0509	873.9212	65535	64533.15
843.1961	875.9629	65535	64568.2
843.3412	878.0039	65535	64565.15
843.4863	880.0441	65535	64569.95
843.6315	882.0837	65535	64569.2
843.7766	884.1226	65535	64567.5
843.9218	886.1609	65535	64568.35
844.0669	888.1984	65535	64571
844.212	890.2352	65535	64566.55
844.3572	892.2714	65535	64563.4
844.5023	894.3069	65535	64564.9
844.6475	896.3416	65535	64569
844.7926	898.3757	65535	64568.35
844.9377	900.4091	65514.55	64546.75
845.0829	902.4418	65535	64558.8
845.228	904.4739	65535	64561.45
845.3732	906.5052	65534.25	64566.85
845.5183	908.5358	65521.55	64552.35
845.6635	910.5658	65516.75	64544.3
845.8086	912.595	65513.9	64546.85
845.9538	914.6236	65417.4	64448.85
846.0989	916.6515	65532.75	64563.7
846.2441	918.6786	65414.4	64441.55
846.3892	920.7051	65485.45	64515.05
846.5344	922.7309	65454.95	64489.4
846.6795	924.756	65486.25	64517.9
846.8246	926.7804	65444.7	64475.05
846.9698	928.8041	65218.15	64247.85
847.1149	930.8272	65405.75	64435.45
847.2601	932.8495	65410.5	64439.1
847.4052	934.8711	65237.7	64267
847.5504	936.892	65068.15	64101.85
847.6955	938.9123	65163.9	64196.45
847.8407	940.9318	65054.55	64090.4
847.9858	942.9506	65015.85	64047.5
848.131	944.9688	65041.05	64070.9
848.2761	946.9862	64615.3	63645.9
848.4213	949.003	64826	63856.85
848.5664	951.019	64424.9	63458
848.7115	953.0344	64523.5	63557.45
848.8567	955.0491	64453.55	63483.45
849.0018	957.063	64603.25	63637.45
849.147	959.0763	64670	63695.9
849.2921	961.0888	64321.65	63356.95
849.4373	963.1007	64575.3	63612.55
849.5824	965.1119	64550	63589.7
849.7275	967.1223	64262.55	63312.1
849.8727	969.1321	64604.8	63654.6
850.0178	971.1412	64173.35	63214.95
850.1629	973.1495	63987.2	63025.35
850.3081	975.1572	64258.95	63241.7
850.4532	977.1641	64001.3	63035.9
850.5983	979.1704	63965.6	62996.2
850.7435	981.1759	64004	63030.45
850.8886	983.1808	63706	62733.55
851.0337	985.1849	63727.75	62752.2
851.1788	987.1884	63898.05	62931.65
851.324	989.1911	64153.55	63187.3
851.4691	991.1932	63313.35	62343.7
851.6142	993.1945	63558.85	62595.4
851.7593	995.1951	63807.95	62842.7
851.9045	997.1951	63332	62361.9
852.0496	999.1943	63190.75	62224.3
852.1947	1001.1928	62989.8	62021.35
852.3398	1003.1906	63127.75	62161.3
852.4849	1005.1877	62363.45	61399.3
852.63	1007.1841	62174.1	61209.75
852.7751	1009.1798	62178.25	61208.75
852.9202	1011.1748	62113.2	61149.5
853.0653	1013.1691	61945.7	60978.55
853.2104	1015.1627	60421.75	59456.5
853.3555	1017.1556	61003.65	60043.5
853.5006	1019.1477	61247.5	60282.85
853.6457	1021.1392	60517.05	59559.8
853.7908	1023.1299	59684.3	58730.4
853.9359	1025.12	60219.15	59273.2
854.081	1027.1093	59770.85	58832
854.2261	1029.0979	59751.25	58819.65
854.3712	1031.0859	59647.45	58707.7
854.5163	1033.0731	58869.2	57919
854.6613	1035.0596	59139.15	58183.3
854.8064	1037.0454	58936.35	57981.05
854.9515	1039.0304	58436.7	57476.3
855.0965	1041.0148	57566.6	56604.3
855.2416	1042.9985	57669.8	56706.25
855.3867	1044.9814	58166.1	57205.05
855.5317	1046.9636	57291.3	56330.15
855.6768	1048.9452	57348.2	56389.4
855.8219	1050.926	57111.2	56149.65
855.9669	1052.9061	57032	56072.7
856.112	1054.8855	57070	56108.9
856.257	1056.8642	56608.95	55645.75
856.4021	1058.8421	56334.25	55367.35
856.5471	1060.8194	56340.8	55379
856.6921	1062.7959	56037.9	55078.55
856.8372	1064.7717	56276.3	55313.4
856.9822	1066.7469	55962.85	55000.75
857.1272	1068.7213	55948.45	54983.45
857.2723	1070.695	55632.7	54671.65
857.4173	1072.6679	55134.95	54172.7
857.5623	1074.6402	55316.65	54358.4
857.7073	1076.6117	54986.05	54018
857.8523	1078.5826	54949.25	53983.85
857.9973	1080.5527	54991.25	54025.6
858.1423	1082.5221	54788	53825
858.2873	1084.4908	54955.95	53996.15
858.4323	1086.4587	54948.55	53987.2
858.5773	1088.426	54952.6	53992.4
858.7223	1090.3925	54862.55	53893.95
858.8673	1092.3584	54683.35	53720.8
859.0123	1094.3235	54092.05	53134.1
859.1573	1096.2879	53837.15	52878.05
859.3022	1098.2515	53820.4	52861.2
859.4472	1100.2145	53684.8	52726.45
859.5922	1102.1767	53503.5	52541.15
859.7371	1104.1382	53621.45	52663.1
859.8821	1106.099	53546.85	52585.75
860.027	1108.0591	53546.9	52586.35
860.172	1110.0185	53188.85	52228.7
860.3169	1111.9771	53495.35	52536.3
860.4619	1113.9351	52996.4	52035.6
860.6068	1115.8923	52543.15	51581.2
860.7517	1117.8488	52000.8	51041.2
860.8967	1119.8045	51454.85	50495.1
861.0416	1121.7596	51379.4	50419.45
861.1865	1123.7139	51091.65	50135.4
861.3314	1125.6675	51018.95	50061.5
861.4763	1127.6204	50978.55	50021
861.6212	1129.5726	50726.4	49762.9
861.7661	1131.524	50717.2	49761
861.911	1133.4748	50783.6	49821.35
862.0559	1135.4248	50569.85	49606.85
862.2008	1137.3741	50543.8	49581.5
862.3457	1139.3226	50335.65	49375.5
862.4905	1141.2705	50307.4	49349.85
862.6354	1143.2176	49937.4	48971.6
862.7803	1145.164	49843.2	48878.5
862.9251	1147.1097	49803.6	48847.5
863.07	1149.0546	49705.3	48745.75
863.2148	1150.9989	49543.85	48586.25
863.3597	1152.9424	49232.05	48273.3
863.5045	1154.8852	49047.55	48087.2
863.6493	1156.8272	48777.15	47820.1
863.7942	1158.7686	48730.05	47760.2
863.939	1160.7092	48294	47331.3
864.0838	1162.6491	48166.55	47203.7
864.2286	1164.5883	48199.95	47240.65
864.3734	1166.5267	48120.7	47161.5
864.5182	1168.4644	48188	47231.7
864.663	1170.4014	48257	47294.25
864.8078	1172.3377	48423.45	47470.55
864.9526	1174.2732	48448.1	47492.65
865.0974	1176.2081	48532.55	47576.05
865.2421	1178.1421	48531.1	47568.45
865.3869	1180.0755	48635.15	47678.2
865.5317	1182.0082	48345.6	47395.25
865.6764	1183.9401	48251.8	47300.7
865.8212	1185.8713	47901.4	46952.3
865.9659	1187.8017	47591	46648.2
866.1106	1189.7315	47334.25	46395.45
866.2554	1191.6605	46816.4	45884.15
866.4001	1193.5888	46461.35	45519
866.5448	1195.5163	46305	45359.95
866.6895	1197.4432	46051.95	45098.1
866.8342	1199.3693	45833.7	44878.9
866.9789	1201.2947	45590.25	44630.5
867.1236	1203.2193	45477.7	44522.95
867.2683	1205.1432	45420.95	44466.2
867.413	1207.0664	45281.3	44328.9
867.5576	1208.9889	45212.3	44257.9
867.7023	1210.9106	45128.75	44176.65
867.847	1212.8316	44990.1	44036.95
867.9916	1214.7519	44983.75	44019.95
868.1363	1216.6715	44817.5	43865.6
868.2809	1218.5903	44741.25	43785.9
868.4255	1220.5084	44543.9	43589.5
868.5701	1222.4257	44479.45	43528.8
868.7148	1224.3424	44127.8	43178.6
868.8594	1226.2583	44130.55	43178.65
869.004	1228.1735	44065.7	43111.85
869.1486	1230.0879	43972.5	43018.3
869.2932	1232.0016	44031.95	43079.8
869.4377	1233.9146	43883.6	42929.15
869.5823	1235.8269	43702.4	42747.8
869.7269	1237.7384	43541.4	42589.9
869.8715	1239.6492	43138.7	42187.95
870.016	1241.5592	43015.25	42059.15
870.1606	1243.4686	42773.05	41821.95
870.3051	1245.3772	42597.65	41646.6
870.4496	1247.285	42439.6	41488.85
870.5941	1249.1922	42203.6	41251
870.7387	1251.0986	42141.3	41189.55
870.8832	1253.0042	41921.9	40970.8
871.0277	1254.9092	41912.6	40962.25
871.1722	1256.8134	41901.4	40953.2
871.3167	1258.7169	42030.6	41080
871.4611	1260.6196	41977.95	41028.6
871.6056	1262.5216	42096.15	41144.55
871.7501	1264.4229	42102.75	41155.75
871.8945	1266.3234	42219.95	41269.8
872.039	1268.2232	42180.8	41228.95
872.1834	1270.1223	42009.7	41056.5
872.3278	1272.0207	41853.55	40901.4
872.4723	1273.9183	41724	40766.85
872.6167	1275.8151	41531.55	40583.55
872.7611	1277.7113	41389.25	40441.3
872.9055	1279.6067	41099.3	40149.6
873.0499	1281.5014	40867.5	39915.9
873.1943	1283.3953	40658.7	39707.55
873.3386	1285.2885	40430.5	39480.9
873.483	1287.181	40286.85	39338.4
873.6274	1289.0727	40282.45	39336.95
873.7717	1290.9637	40171.95	39222.2
873.9161	1292.854	40223	39276.05
874.0604	1294.7435	40232.45	39284.55
874.2047	1296.6323	40373.25	39423.6
874.349	1298.5204	40529.65	39579.05
874.4933	1300.4077	40718.25	39766.85
874.6376	1302.2943	40874.7	39923.65
874.7819	1304.1802	40859.6	39912.85
874.9262	1306.0653	40728.8	39779.4
875.0705	1307.9497	40524.9	39578.95
875.2147	1309.8333	40355.85	39407.95
875.359	1311.7162	40276.85	39328.6
875.5032	1313.5984	40345.3	39393.35
875.6475	1315.4798	40349.75	39388.9
875.7917	1317.3605	40356.25	39401
875.9359	1319.2405	40570.15	39618.65
876.0801	1321.1197	40462.65	39512.8
876.2243	1322.9982	40280.85	39330.1
876.3685	1324.876	40295	39348.2
876.5127	1326.753	40139.25	39191.35
876.6569	1328.6293	40151.85	39199.2
876.801	1330.5048	40193.7	39242.65
876.9452	1332.3796	40063.35	39114.75
877.0893	1334.2537	40003.6	39030.65
877.2335	1336.127	39758.75	38811.7
877.3776	1337.9996	39605.45	38658.5
877.5217	1339.8714	39533.65	38583.2
877.6658	1341.7426	39397.25	38404.15
877.8099	1343.6129	39245.9	38296.15
877.954	1345.4826	39108.2	38158.55
878.0981	1347.3515	39072.35	38122.25
878.2422	1349.2196	38882.05	37933.35
878.3862	1351.087	38903.6	37954.3
878.5303	1352.9537	38833.4	37884.15
878.6743	1354.8197	38915.9	37967.05
878.8184	1356.6849	39062.35	38112.05
878.9624	1358.5493	39012.25	38063.45
879.1064	1360.4131	38925.75	37980.95
879.2504	1362.276	38736.6	37790.6
879.3944	1364.1383	38455.35	37509.3
879.5384	1365.9998	38191.2	37239.4
879.6823	1367.8606	37864.6	36916.55
879.8263	1369.7206	37540.65	36593.4
879.9702	1371.5799	37219.3	36269.95
880.1142	1373.4384	37051.95	36103.1
880.2581	1375.2962	36941.9	35993.45
880.402	1377.1533	36522.45	35574.95
880.5459	1379.0096	36159.45	35216.1
880.6898	1380.8652	35810.5	34869.7
880.8337	1382.7201	35522.65	34579.35
880.9776	1384.5742	35197.9	34252.7
881.1215	1386.4275	34927.15	33979.55
881.2653	1388.2802	34779.05	33835.2
881.4092	1390.132	34530.9	33578.05
881.553	1391.9832	34490.45	33541.2
881.6968	1393.8336	34242.9	33296.5
881.8406	1395.6832	34130	33182.75
881.9844	1397.5322	33937.75	32993.85
882.1282	1399.3803	33896.15	32948
882.272	1401.2278	33671.1	32728.15
882.4158	1403.0745	33568.35	32626.2
882.5595	1404.9204	33411.55	32468
882.7033	1406.7656	33388.3	32442.2
882.847	1408.6101	33274.7	32325.8
882.9908	1410.4538	33131.85	32186.25
883.1345	1412.2968	33111.55	32167.6
883.2782	1414.139	33026.7	32084.75
883.4219	1415.9805	33059.1	32116.15
883.5656	1417.8213	32961.6	31999.25
883.7092	1419.6613	32982.35	32039.85
883.8529	1421.5006	33120.3	32176.85
883.9965	1423.3391	33268.05	32322.8
884.1402	1425.1769	33497.8	32550.55
884.2838	1427.0139	33949.8	33006.95
884.4274	1428.8502	34478.95	33533.7
884.571	1430.6858	34916.3	33975.3
884.7146	1432.5206	35176.45	34234
884.8582	1434.3547	35392.8	34448.6
885.0018	1436.188	35363.95	34423.35
885.1453	1438.0206	35307.45	34363.1
885.2889	1439.8524	35042.7	34098.5
885.4324	1441.6835	34965.1	34020.15
885.5759	1443.5139	34820	33875.9
885.7194	1445.3435	34600.05	33658.1
885.8629	1447.1724	34495.05	33552.1
886.0064	1449.0005	34380.85	33441.15
886.1499	1450.8279	34224.75	33283.85
886.2933	1452.6545	34144.9	33205.2
886.4368	1454.4804	34153.5	33215.25
886.5802	1456.3056	34055.1	33108.45
886.7237	1458.13	33912.3	32973.85
886.8671	1459.9536	33681.85	32740.25
887.0105	1461.7766	33321.8	32379.35
887.1539	1463.5987	32866.1	31927.05
887.2972	1465.4202	32413.75	31471.8
887.4406	1467.2409	31999.75	31061.15
887.584	1469.0608	31756.95	30816.6
887.7273	1470.88	31431.95	30492
887.8706	1472.6984	31158.95	30221.4
888.0139	1474.5161	30904.8	29961.75
888.1572	1476.3331	30715.75	29780
888.3005	1478.1493	30529.95	29590.05
888.4438	1479.9648	30394	29455.8
888.5871	1481.7795	30211	29266.75
888.7303	1483.5935	30166.4	29221.25
888.8736	1485.4067	30028.9	29088.45
889.0168	1487.2192	29975.1	29036.95
889.16	1489.031	29903.45	28962.6
889.3032	1490.842	29770.95	28831.15
889.4464	1492.6522	29708.45	28771.15
889.5896	1494.4618	29599.05	28659.25
889.7327	1496.2705	29566.85	28627
889.8759	1498.0785	29426.35	28486.7
890.019	1499.8858	29373.35	28433.55
890.1622	1501.6924	29328.9	28393.05
890.3053	1503.4981	29225.35	28286.05
890.4484	1505.3032	29194.9	28255.35
890.5914	1507.1075	29087.95	28147.15
890.7345	1508.911	29032.7	28096.15
890.8776	1510.7138	28912.75	27972
891.0206	1512.5159	28844.25	27907.8
891.1637	1514.3172	28646.15	27710.3
891.3067	1516.1178	28498.4	27562.6
891.4497	1517.9176	28535.45	27595.8
891.5927	1519.7166	28377.1	27439.55
891.7357	1521.515	28241.4	27299.2
891.8786	1523.3126	28082.55	27146.5
892.0216	1525.1094	28112.45	27175.4
892.1645	1526.9055	28004.95	27070
892.3074	1528.7008	27910	26974.3
892.4503	1530.4954	27685.75	26745.5
892.5932	1532.2893	27665.7	26733.55
892.7361	1534.0824	27470.9	26535
892.879	1535.8747	27451.5	26521.85
893.0218	1537.6663	27441.15	26508.7
893.1647	1539.4572	27234.85	26302.7
893.3075	1541.2473	27211.7	26277.35
893.4503	1543.0367	27111	26181.25
893.5931	1544.8253	26975.85	26038.6
893.7359	1546.6132	26982.8	26046.3
893.8787	1548.4003	26805.15	25865.35
894.0214	1550.1867	26777.05	25835.4
894.1642	1551.9723	26713.6	25779
894.3069	1553.7572	26658.3	25729
894.4496	1555.5414	26628.2	25702.2
894.5923	1557.3247	26517.65	25589.75
894.735	1559.1074	26512.8	25586
894.8777	1560.8893	26480.9	25558.1
895.0204	1562.6705	26422.75	25495.85
895.163	1564.4509	26443.05	25519.15
895.3056	1566.2305	26412.2	25488.1
895.4482	1568.0094	26534.6	25615.6
895.5908	1569.7876	26559.65	25638.9
895.7334	1571.565	26568.95	25644.45
895.876	1573.3417	26563.45	25636.9
896.0186	1575.1176	26534.4	25611.65
896.1611	1576.8928	26433.45	25514.25
896.3036	1578.6672	26237.3	25320
896.4461	1580.4409	26080.8	25168.85
896.5886	1582.2138	25852.55	24932.5
896.7311	1583.986	25698.3	24776.85
896.8736	1585.7575	25543.25	24623.65
897.0161	1587.5282	25418.1	24498.75
897.1585	1589.2981	25296.6	24384.25
897.3009	1591.0673	25147.35	24233
897.4433	1592.8358	25031.5	24114.75
897.5857	1594.6035	25008.9	24088.25
897.7281	1596.3704	24869.2	23948.5
897.8705	1598.1366	24820.35	23900.9
898.0128	1599.9021	24778.15	23864.25
898.1551	1601.6668	24714.7	23792.9
898.2975	1603.4308	24721.8	23800.85
898.4398	1605.194	24710.05	23788.45
898.5821	1606.9564	24706.5	23794.7
898.7243	1608.7182	24732.2	23821.45
898.8666	1610.4791	24755.45	23853.4
899.0088	1612.2394	24855.7	23952.2
899.1511	1613.9988	24931.65	24026.65
899.2933	1615.7576	25110.95	24200.2
899.4355	1617.5156	25302.45	24377.35
899.5776	1619.2728	25516.1	24595.55
899.7198	1621.0293	25651.9	24733.25
899.862	1622.785	25670.95	24757.9
900.0041	1624.54	25544.55	24632.45
900.1462	1626.2942	25373.75	24463.5
900.2883	1628.0477	24993.1	24079.4
900.4304	1629.8005	24687.9	23775.7
900.5725	1631.5525	24401.85	23492.15
900.7145	1633.3037	24132.8	23223.1
900.8566	1635.0542	23935.85	23026.25
900.9986	1636.804	23751.75	22840.65
901.1406	1638.553	23655.65	22697.65
901.2826	1640.3013	23440.15	22527.3
901.4245	1642.0488	23358.65	22446.65
901.5665	1643.7955	23289.75	22383.35
901.7085	1645.5416	23232.65	22323.15
901.8504	1647.2868	23223.05	22313.65
901.9923	1649.0313	23222.9	22313.75
902.1342	1650.7751	23328.35	22415.05
902.2761	1652.5181	23451.25	22541.75
902.4179	1654.2604	23573.8	22665.75
902.5598	1656.0019	23798.9	22893.75
902.7016	1657.7427	24082.45	23172.45
902.8434	1659.4828	24480.85	23569.4
902.9852	1661.222	24639	23724.55
903.127	1662.9606	24643.6	23732.25
903.2687	1664.6984	24470.3	23556.7
903.4105	1666.4354	24146.2	23229.75
903.5522	1668.1717	23685	22768.15
903.6939	1669.9072	23160.6	22244.3
903.8356	1671.642	22762.65	21846.3
903.9773	1673.3761	22380.85	21468.7
904.119	1675.1094	22130.45	21221.1
904.2606	1676.8419	21852.75	20944.5
904.4022	1678.5737	21636.95	20725.55
904.5439	1680.3048	21502.55	20589.2
904.6855	1682.0351	21289.5	20376.5
904.827	1683.7646	21184.45	20269.95
904.9686	1685.4934	21086.4	20175.8
905.1101	1687.2215	20963.8	20051.2
905.2517	1688.9488	20868.45	19958
905.3932	1690.6754	20732.85	19822.1
905.5347	1692.4012	20685.85	19772.5
905.6761	1694.1263	20620.8	19708.35
905.8176	1695.8506	20531.4	19620.3
905.9591	1697.5742	20444.95	19538.1
906.1005	1699.297	20363	19455.75
906.2419	1701.0191	20241.6	19339.1
906.3833	1702.7404	20183.25	19278.9
906.5246	1704.461	20033.6	19123.05
906.666	1706.1808	19981.55	19074.9
906.8073	1707.8999	19936.85	19028.9
906.9487	1709.6182	19825.05	18923.2
907.09	1711.3358	19796.5	18896
907.2313	1713.0527	19717.3	18817.3
907.3725	1714.7688	19612.2	18702.9
907.5138	1716.4841	19534.1	18627.1
907.655	1718.1987	19560.3	18650.45
907.7962	1719.9126	19441.05	18536.05
907.9374	1721.6257	19348.45	18446.75
908.0786	1723.338	19322.55	18423.1
908.2198	1725.0496	19180.55	18276.5
908.3609	1726.7605	19149.05	18243.95
908.502	1728.4706	19103.2	18199.15
908.6431	1730.18	18994.95	18092.25
908.7842	1731.8886	18932.45	18030.85
908.9253	1733.5964	18885.95	17963.75
909.0664	1735.3036	18855	17950.95
909.2074	1737.0099	18809.8	17907.75
909.3484	1738.7156	18746.5	17844.95
909.4894	1740.4204	18669.15	17766.45
909.6304	1742.1246	18598.05	17695.25
909.7714	1743.8279	18568.8	17668.8
909.9123	1745.5306	18507.15	17608.45
910.0532	1747.2325	18451.5	17553.65
910.1941	1748.9336	18404	17501.85
910.335	1750.634	18322.5	17416.95
910.4759	1752.3336	18259	17358.65
910.6168	1754.0325	18210.5	17312.45
910.7576	1755.7307	18213	17316.85
910.8984	1757.4281	18162	17260
911.0392	1759.1247	18111.5	17200.7
911.18	1760.8206	18088.65	17178.1
911.3208	1762.5158	18050.7	17143.1
911.4615	1764.2102	17971.05	17067.15
911.6022	1765.9039	17920.55	17020.2
911.7429	1767.5968	17873.05	16974.85
911.8836	1769.289	17840.75	16942.4
912.0243	1770.9804	17796.55	16896.85
912.1649	1772.6711	17764.5	16860.8
912.3056	1774.361	17721.75	16817.7
912.4462	1776.0502	17660	16755.9
912.5868	1777.7386	17601.3	16697.15
912.7274	1779.4263	17554.9	16655.15
912.8679	1781.1132	17531.45	16635.85
913.0084	1782.7994	17455.55	16558.15
913.149	1784.4849	17407.3	16512.2
913.2895	1786.1696	17358.25	16444.5
913.4299	1787.8535	17308.2	16411.9
913.5704	1789.5367	17255.7	16360.85
913.7108	1791.2192	17241.4	16346.5
913.8513	1792.9009	17181.65	16254.7
913.9917	1794.5818	17124.25	16222.25
914.132	1796.2621	17045.4	16144.7
914.2724	1797.9415	17043.25	16142
914.4128	1799.6202	17019.95	16118
914.5531	1801.2982	16929.05	16028.05
914.6934	1802.9755	16923.2	16022.25
914.8337	1804.6519	16905.85	16005.3
914.9739	1806.3277	16811.7	15914.05
915.1142	1808.0027	16713.9	15819.95
915.2544	1809.6769	16729.55	15834.15
915.3946	1811.3504	16673.75	15781.5
915.5348	1813.0231	16641.1	15747.05
915.675	1814.6951	16616.5	15721.15
915.8151	1816.3664	16602.3	15701.7
915.9553	1818.0369	16553.15	15653.75
916.0954	1819.7067	16497.5	15597.8
916.2355	1821.3757	16483.25	15581.8
916.3755	1823.044	16394.4	15493.2
916.5156	1824.7115	16365.55	15464.75
916.6556	1826.3783	16271.55	15373.7
916.7956	1828.0443	16264.15	15366.65
916.9356	1829.7096	16245.6	15344.95
917.0756	1831.3741	16209.65	15306.75
917.2155	1833.0379	16143.55	15246.55
917.3555	1834.701	16111.85	15215.2
917.4954	1836.3633	16092.8	15195.45
917.6353	1838.0248	16030.05	15133.15
917.7751	1839.6856	16002.4	15106.15
917.915	1841.3457	15964	15065.9
918.0548	1843.005	15921.8	15024.5
918.1946	1844.6636	15915.6	15018.25
918.3344	1846.3214	15856.1	14958
918.4742	1847.9785	15845	14948.85
918.6139	1849.6349	15815.5	14914.1
918.7537	1851.2904	15766.5	14856.5
918.8934	1852.9453	15689.65	14786.25
919.0331	1854.5994	15661.15	14757.1
919.1727	1856.2528	15689.3	14782.1
919.3124	1857.9054	15635	14735.75
919.452	1859.5572	15581.65	14684.6
919.5916	1861.2083	15581.7	14683.55
919.7312	1862.8587	15560.65	14660.75
919.8708	1864.5084	15513.8	14612.3
920.0103	1866.1572	15458.05	14556.2
920.1498	1867.8054	15357.45	14453.6
920.2893	1869.4528	15341.4	14437.95
920.4288	1871.0994	15301.55	14400.05
920.5683	1872.7453	15273.2	14372.85
920.7077	1874.3905	15254.25	14348.25
920.8471	1876.0349	15203.6	14303.7
920.9865	1877.6786	15183.15	14283.5
921.1259	1879.3215	15160.5	14260.95
921.2653	1880.9637	15132.75	14232
921.4046	1882.6051	15061.3	14162.95
921.5439	1884.2458	15041.2	14142.05
921.6832	1885.8858	14981	14083.8
921.8225	1887.525	14960.05	14061.45
921.9617	1889.1634	14870.6	13970.85
922.101	1890.8011	14844.6	13943.7
922.2402	1892.4381	14817.65	13916.45
922.3794	1894.0743	14784.65	13887.1
922.5185	1895.7098	14730.35	13830
922.6577	1897.3446	14723.4	13824.65
922.7968	1898.9786	14692.05	13789.55
922.9359	1900.6118	14643.7	13746.9
923.075	1902.2443	14577.1	13674.6
923.214	1903.8761	14538	13641.7
923.3531	1905.5071	14437.25	13538.35
923.4921	1907.1374	14407.05	13508.55
923.6311	1908.7669	14363.6	13464.6
923.77	1910.3957	14321.65	13423.6
923.909	1912.0237	14259.2	13362.5
924.0479	1913.651	14243.1	13347.5
924.1868	1915.2776	14176.45	13280.6
924.3257	1916.9034	14155.45	13260.8
924.4646	1918.5285	14078.35	13183.85
924.6034	1920.1528	14021.75	13123.9
924.7422	1921.7764	13987.7	13092.05
924.881	1923.3992	13971.5	13075.45
925.0198	1925.0213	13881.55	12982.1
925.1586	1926.6427	13825.6	12930.3
925.2973	1928.2633	13845.2	12875.6
925.436	1929.8832	13799.75	12898.8
925.5747	1931.5023	13701.65	12803.7
925.7134	1933.1207	13658.4	12759.7
925.852	1934.7383	13638.6	12740.7
925.9906	1936.3552	13580.8	12684.95
926.1292	1937.9714	13548.2	12651
926.2678	1939.5868	13517.9	12618.85
926.4064	1941.2015	13426.15	12528.05
926.5449	1942.8154	13403.3	12503.5
926.6834	1944.4286	13294.5	12396.35
926.8219	1946.041	13286.7	12369.05
926.9604	1947.6528	13204.65	12300.15
927.0988	1949.2637	13186.55	12288.8
927.2372	1950.8739	13111	12214.25
927.3756	1952.4834	13092.5	12195.7
927.514	1954.0921	13058.35	12163.3
927.6523	1955.7001	12991.3	12090.8
927.7907	1957.3074	12984.2	12091.5
927.929	1958.9139	12926.75	12034.1
928.0673	1960.5197	12882.25	11989.2
928.2055	1962.1247	12832.85	11938.25
928.3438	1963.729	12769.75	11877.05
928.482	1965.3325	12765.8	11848.55
928.6202	1966.9353	12697.7	11806.35
928.7584	1968.5374	12635.8	11743.3
928.8965	1970.1387	12594.35	11703.25
929.0346	1971.7393	12555	11661.05
929.1727	1973.3392	12525.95	11633.4
929.3108	1974.9383	12479.7	11590.55
929.4489	1976.5366	12404.5	11511.7
929.5869	1978.1342	12382.7	11489.6
929.7249	1979.7311	12369.95	11476.5
929.8629	1981.3273	12314.2	11423.75
930.0009	1982.9227	12231.85	11344.15
930.1388	1984.5173	12240.05	11351.7
930.2767	1986.1112	12203.45	11315.15
930.4146	1987.7044	12154.1	11267.1
930.5525	1989.2968	12139.8	11249.05
930.6904	1990.8885	12083.5	11190.1
930.8282	1992.4795	12058.5	11169.1
930.966	1994.0697	11997.05	11110.1
931.1038	1995.6592	11927.05	11037.05
931.2415	1997.2479	11939.55	11048.6
931.3793	1998.8359	11891.1	11002.75
931.517	2000.4232	11858.05	10972.15
931.6547	2002.0097	11811.5	10928.6
931.7923	2003.5955	11780.9	10894.9
931.93	2005.1805	11777.7	10890
932.0676	2006.7648	11733.05	10847.55
932.2052	2008.3484	11680.05	10791
932.3427	2009.9312	11691.1	10804.4
932.4803	2011.5133	11627.55	10743.1
932.6178	2013.0946	11605.5	10720.45
932.7553	2014.6752	11569.45	10683.35
932.8928	2016.2551	11547.95	10660.15
933.0302	2017.8342	11477.55	10589.55
933.1676	2019.4126	11450.8	10569.1
933.305	2020.9902	11404.95	10520.95
933.4424	2022.5672	11376.6	10491.55
933.5798	2024.1433	11374.7	10484.95
933.7171	2025.7188	11302.95	10422.8
933.8544	2027.2935	11273.85	10389.75
933.9917	2028.8674	11238.1	10354.65
934.129	2030.4406	11187.5	10304.45
934.2662	2032.0131	11119	10235.45
934.4034	2033.5849	11126.9	10236.35
934.5406	2035.1559	11087.8	10205.55
934.6778	2036.7261	11058.9	10172.8
934.8149	2038.2957	11056.45	10169.6
934.952	2039.8645	11023.65	10135.15
935.0891	2041.4325	10999.25	10108.9
935.2262	2042.9998	10950.65	10065.25
935.3632	2044.5664	10945.7	10057.95
935.5002	2046.1323	10907.3	10023.1
935.6372	2047.6974	10873.6	9991.3
935.7742	2049.2617	10844.1	9958.1
935.9111	2050.8254	10818.75	9928.25
936.048	2052.3883	10811.9	9924.25
936.1849	2053.9504	10780.6	9892.55
936.3218	2055.5118	10735.15	9848.3
936.4586	2057.0725	10672.35	9782.5
936.5955	2058.6325	10670.85	9783.85
936.7323	2060.1917	10627.85	9744.6
936.869	2061.7502	10610.5	9723.3
937.0058	2063.3079	10550.05	9668.9
937.1425	2064.8649	10522.85	9635
937.2792	2066.4212	10474.95	9589.9
937.4159	2067.9767	10469.95	9582.4
937.5525	2069.5315	10429.8	9545
937.6891	2071.0856	10368	9483.05
937.8257	2072.6389	10328.65	9442.15
937.9623	2074.1915	10268.6	9385.3
938.0989	2075.7433	10228.75	9342.75
938.2354	2077.2945	10211.35	9325.8
938.3719	2078.8448	10178.1	9289.8
938.5084	2080.3945	10159.25	9271.15
938.6448	2081.9434	10157.3	9269.65
938.7812	2083.4916	10109.6	9220.3
938.9176	2085.039	10073	9178.25
939.054	2086.5857	10053.75	9159.65
939.1903	2088.1317	10039.35	9145
939.3267	2089.677	9997.45	9103.15
939.463	2091.2215	9981.6	9086.75
939.5992	2092.7652	9969.1	9072.7
939.7355	2094.3083	9923.7	9030.5
939.8717	2095.8506	9922.45	9032.9
940.0079	2097.3921	9872.65	8985.8
940.1441	2098.933	9869.05	8981.4
940.2802	2100.4731	9836.85	8947.8
940.4163	2102.0124	9830.45	8934.45
940.5524	2103.5511	9805.05	8913.7
940.6885	2105.089	9766.8	8875.3
940.8245	2106.6261	9750	8858.5
940.9606	2108.1626	9716.75	8827.3
941.0965	2109.6983	9708.7	8791.8
941.2325	2111.2332	9674.4	8784.35
941.3684	2112.7675	9634.1	8742.75
941.5044	2114.301	9626.95	8734.25
941.6403	2115.8337	9603.45	8710.6
941.7761	2117.3657	9579	8688.7
941.912	2118.897	9541.7	8651.35
942.0478	2120.4276	9503.5	8606.1
942.1835	2121.9575	9478	8585.35
942.3193	2123.4866	9471.25	8579.55
942.455	2125.0149	9448.25	8556.65
942.5907	2126.5426	9398.85	8512.9
942.7264	2128.0695	9338.6	8450
942.8621	2129.5956	9346.7	8463.1
942.9977	2131.1211	9311.55	8420.7
943.1333	2132.6458	9296.45	8408.2
943.2689	2134.1698	9296.65	8403.75
943.4044	2135.693	9265.65	8371.45
943.54	2137.2155	9241.75	8346.85
943.6755	2138.7373	9213.25	8324
943.8109	2140.2584	9191.45	8303.5
943.9464	2141.7787	9151.9	8261.1
944.0818	2143.2983	9114.65	8230.3
944.2172	2144.8171	9098.35	8216
944.3526	2146.3353	9063.55	8177.65
944.4879	2147.8527	9004.05	8116.9
944.6232	2149.3693	9015.75	8124.75
944.7585	2150.8853	8978.75	8084.95
944.8938	2152.4005	8942.25	8049.9
945.029	2153.9149	8911.35	8018.75
945.1642	2155.4287	8978.5	7980.05
945.2994	2156.9417	8898.75	8005.45
945.4346	2158.454	8873.95	7983.25
945.5697	2159.9655	8821.6	7933.85
945.7048	2161.4764	8824.15	7938.1
945.8399	2162.9865	8781.65	7891.9
945.9749	2164.4958	8746.4	7858.4
946.1099	2166.0045	8733.85	7844.85
946.2449	2167.5124	8703.7	7817.65
946.3799	2169.0195	8683.1	7794.15
946.5148	2170.526	8685.3	7794.5
946.6498	2172.0317	8639.7	7749.3
946.7846	2173.5367	8610.8	7721.55
946.9195	2175.0409	8595.9	7708.2
947.0543	2176.5445	8565.05	7676.1
947.1891	2178.0473	8551.3	7658.75
947.3239	2179.5494	8507.75	7612.4
947.4587	2181.0507	8495.1	7604.8
947.5934	2182.5513	8453.2	7562.9
947.7281	2184.0512	8455.35	7562.7
947.8628	2185.5504	8397.55	7507.7
947.9974	2187.0488	8355.65	7469.6
948.132	2188.5465	8334.95	7449.05
948.2666	2190.0435	8330.5	7441.1
948.4012	2191.5397	8301.3	7411.85
948.5357	2193.0353	8274.65	7384.35
948.6702	2194.5301	8238.15	7344.4
948.8047	2196.0241	8215.7	7320.95
948.9392	2197.5175	8188.7	7294.45
949.0736	2199.0101	8143.35	7246.4
949.208	2200.502	8112.05	7221.35
949.3424	2201.9931	8092.7	7205.75
949.4767	2203.4835	8071.25	7182.35
949.611	2204.9733	8081.2	7176.3
949.7453	2206.4622	8027.2	7141.1
949.8796	2207.9505	7990.5	7101.7
950.0138	2209.438	7949.4	7064.5
950.148	2210.9248	7940.5	7054.3
950.2822	2212.4109	7910.75	7020.1
950.4164	2213.8962	7894.05	6996.3
950.5505	2215.3809	7866.8	6974.3
950.6846	2216.8648	7831.15	6935.2
950.8186	2218.3479	7839.9	6942.35
950.9527	2219.8304	7801.6	6902.75
951.0867	2221.3121	7770	6872.9
951.2207	2222.7931	7748.5	6857.85
951.3546	2224.2733	7715.5	6823.55
951.4886	2225.7529	7684.05	6794.05
951.6225	2227.2317	7672.95	6780.9
951.7563	2228.7098	7638.35	6750.05
951.8902	2230.1872	7607.65	6721.65
952.024	2231.6638	7619.9	6732.6
952.1578	2233.1397	7572.65	6682.45
952.2916	2234.6149	7549.35	6660.8
952.4253	2236.0894	7537.35	6648.15
952.559	2237.5632	7507.45	6617.7
952.6927	2239.0362	7473.15	6583.85
952.8263	2240.5085	7469.2	6579.4
952.9599	2241.9801	7432	6540.6
953.0935	2243.4509	7415.3	6521.8
953.2271	2244.921	7379.95	6486.6
953.3606	2246.3904	7339.85	6442.75
953.4941	2247.8591	7324.8	6431.45
953.6276	2249.3271	7328.9	6436.35
953.7611	2250.7943	7291.4	6397.3
953.8945	2252.2608	7250.15	6358.2
954.0279	2253.7266	7235.6	6343.65
954.1612	2255.1917	7204.95	6313.3
954.2946	2256.656	7193.9	6303.1
954.4279	2258.1197	7172.65	6283.55
954.5612	2259.5826	7173	6282.25
954.6944	2261.0447	7153.95	6262.2
954.8276	2262.5062	7119.1	6226.25
954.9608	2263.9669	7105.5	6212.7
955.094	2265.4269	7091.8	6200.35
955.2271	2266.8862	7072.8	6183.4
955.3602	2268.3448	7073.4	6185.85
955.4933	2269.8026	7036.25	6147.4
955.6264	2271.2598	7024.1	6135.65
955.7594	2272.7162	7005.45	6114.35
955.8924	2274.1719	6986.7	6094.05
956.0253	2275.6268	6950.4	6057.05
956.1583	2277.0811	6960.55	6068.6
956.2912	2278.5346	6919.75	6029.85
956.4241	2279.9874	6892	6002.45
956.5569	2281.4395	6884.45	5998.5
956.6897	2282.8908	6857.55	5961.8
956.8225	2284.3414	6851.55	5958.65
956.9553	2285.7914	6821.8	5930.85
957.088	2287.2406	6818.1	5923.55
957.2207	2288.689	6783.75	5890.05
957.3534	2290.1368	6793.9	5898.7
957.486	2291.5838	6771.75	5871.7
957.6186	2293.0302	6735.55	5838.5
957.7512	2294.4758	6697.55	5802.9
957.8838	2295.9206	6673.7	5781
958.0163	2297.3648	6667.9	5777.6
958.1488	2298.8082	6663.8	5772.8
958.2813	2300.251	6635.65	5743
958.4137	2301.693	6618.6	5720.15
958.5461	2303.1343	6616.5	5721.95
958.6785	2304.5748	6603.95	5711.5
958.8108	2306.0147	6556.85	5667.45
958.9432	2307.4538	6528.15	5638.65
959.0754	2308.8922	6497.05	5611.2
959.2077	2310.3299	6487.85	5599.45
959.3399	2311.7669	6460.9	5572.9
959.4721	2313.2031	6435.6	5545.05
959.6043	2314.6387	6430.5	5538.95
959.7365	2316.0735	6407.25	5517.15
959.8686	2317.5076	6401.85	5508.85
960.0006	2318.941	6385.7	5493.25
960.1327	2320.3737	6363.85	5469.85
960.2647	2321.8056	6351.9	5455.6
960.3967	2323.2369	6323.3	5429.7
960.5287	2324.6674	6308.4	5413.4
960.6606	2326.0972	6293.45	5402.15
960.7925	2327.5263	6264.75	5373.5
960.9244	2328.9547	6253.5	5359.9
961.0562	2330.3823	6229.6	5333.75
961.1881	2331.8092	6226.9	5326.15
961.3198	2333.2355	6183.4	5289.6
961.4516	2334.661	6197.6	5302.85
961.5833	2336.0858	6177.6	5282.95
961.715	2337.5098	6159.7	5266.35
961.8467	2338.9332	6137.35	5245.3
961.9783	2340.3558	6117.7	5223.65
962.1099	2341.7778	6107.85	5220.7
962.2415	2343.199	6099.8	5207.6
962.373	2344.6195	6048.55	5159.5
962.5045	2346.0393	6062.35	5173.7
962.636	2347.4583	6055.05	5162.95
962.7675	2348.8767	6020.45	5128.65
962.8989	2350.2943	5986.1	5090.15
963.0303	2351.7113	5980.55	5084.95
963.1617	2353.1275	5965.5	5069.5
963.293	2354.543	5937.2	5035.45
963.4243	2355.9578	5939.35	5046.2
963.5556	2357.3718	5914	5023.05
963.6868	2358.7852	5893	5002.2
963.818	2360.1978	5875.85	4986.2
963.9492	2361.6098	5845.5	4955.25
964.0803	2363.021	5837.3	4942.6
964.2114	2364.4315	5821.5	4927
964.3425	2365.8413	5803.05	4909.6
964.4736	2367.2504	5790.05	4901.55
964.6046	2368.6587	5735.75	4846.15
964.7356	2370.0664	5719.9	4830.5
964.8666	2371.4733	5713.95	4822.5
964.9975	2372.8795	5685.95	4795.35
965.1284	2374.285	5671	4780
965.2593	2375.6899	5654	4765.25
965.3901	2377.0939	5619.15	4729
965.5209	2378.4973	5619.7	4729
965.6517	2379.9	5592.9	4703.2
965.7825	2381.3019	5568.85	4679.3
965.9132	2382.7032	5546.2	4656.9
966.0439	2384.1037	5564.65	4678.8
966.1745	2385.5035	5508.4	4619.7
966.3051	2386.9027	5500.2	4613.75
966.4357	2388.3011	5490.4	4599.95
966.5663	2389.6987	5472.95	4583.4
966.6968	2391.0957	5461	4574.35
966.8273	2392.492	5420.5	4533.9
966.9578	2393.8876	5416.75	4530.55
967.0882	2395.2824	5384.85	4495.5
967.2186	2396.6765	5376.7	4488.7
967.349	2398.07	5355.95	4468.05
967.4793	2399.4627	5337.8	4446.2
967.6097	2400.8547	5321.75	4431.5
967.7399	2402.246	5294.8	4400.45
967.8702	2403.6366	5289.45	4400.25
968.0004	2405.0265	5267.35	4379.65
968.1306	2406.4156	5242.55	4351.55
968.2607	2407.8041	5236.9	4343.85
968.3909	2409.1918	5217.75	4325.8
968.521	2410.5789	5202.7	4312.7
968.651	2411.9652	5171.1	4278.75
968.781	2413.3508	5171.05	4279.1
968.911	2414.7358	5147.8	4255.35
969.041	2416.12	5139.2	4250.35
969.1709	2417.5035	5124.8	4236.35
969.3008	2418.8863	5096.1	4203.8
969.4307	2420.2684	5077.1	4186.5
969.5606	2421.6497	5065.9	4173.3
969.6904	2423.0304	5024.35	4135.1
969.8201	2424.4104	5045.3	4154.45
969.9499	2425.7896	5014.35	4124.05
970.0796	2427.1682	4996.6	4108.85
970.2093	2428.546	4973.5	4083.7
970.3389	2429.9232	4955.95	4065.5
970.4685	2431.2996	4963.85	4072.35
970.5981	2432.6753	4942.25	4049.6
970.7277	2434.0503	4931.35	4040.05
970.8572	2435.4246	4905.2	4014.6
970.9867	2436.7982	4901	4009.95
971.1161	2438.1711	4897	4005.3
971.2456	2439.5433	4875	3983.7
971.375	2440.9148	4853.75	3958.8
971.5043	2442.2856	4838.95	3948.35
971.6336	2443.6557	4816.9	3922.7
971.7629	2445.025	4789.2	3898.55
971.8922	2446.3937	4799.35	3907.95
972.0214	2447.7617	4793.2	3903.85
972.1506	2449.1289	4790.8	3900.2
972.2798	2450.4955	4772.85	3878.7
972.4089	2451.8613	4758.85	3869.5
972.538	2453.2265	4743.8	3854.15
972.6671	2454.5909	4730.45	3840
972.7961	2455.9546	4740.4	3850.5
972.9251	2457.3177	4711.8	3822.5
973.0541	2458.68	4696.9	3804.6
973.1831	2460.0416	4672.4	3781.05
973.312	2461.4025	4669.5	3779.3
973.4408	2462.7627	4662.35	3762.35
973.5697	2464.1222	4668.5	3781
973.6985	2465.4811	4651.75	3764.3
973.8273	2466.8392	4609.2	3720.65
973.956	2468.1966	4602.25	3711.5
974.0847	2469.5533	4617.65	3723.25
974.2134	2470.9093	4608.25	3717.95
974.3421	2472.2645	4593.2	3701.1
974.4707	2473.6191	4581.6	3693.05
974.5993	2474.973	4561.2	3670.6
974.7278	2476.3262	4553.65	3660.75
974.8563	2477.6787	4527.2	3639.65
974.9848	2479.0305	4495.25	3605.3
975.1132	2480.3816	4492.55	3600.5
975.2417	2481.7319	4469.6	3578.8
975.37	2483.0816	4455.15	3562.6
975.4984	2484.4306	4451.95	3562.7
975.6267	2485.7789	4421.75	3534.85
975.755	2487.1264	4420.95	3529.7
975.8833	2488.4733	4416.4	3528.3
976.0115	2489.8195	4390.25	3483.2
976.1397	2491.165	4371.65	3478.95
976.2678	2492.5097	4367.45	3476.25
976.3959	2493.8538	4341.95	3452.7
976.524	2495.1972	4327.15	3439.35
976.6521	2496.5398	4301.15	3411.3
976.7801	2497.8818	4316.6	3422.7
976.9081	2499.2231	4291	3400.4
977.036	2500.5637	4264.9	3371.15
977.164	2501.9035	4267.4	3374.45
977.2918	2503.2427	4257.3	3363.25
977.4197	2504.5812	4244	3353.45
977.5475	2505.919	4233.4	3341.35
977.6753	2507.256	4229.35	3335.25
977.8031	2508.5924	4215.45	3325.15
977.9308	2509.9281	4205.15	3309.3
978.0585	2511.2631	4180.25	3290.85
978.1861	2512.5974	4162.65	3273.95
978.3137	2513.9309	4166.45	3276.3
978.4413	2515.2638	4164.35	3246.2
978.5689	2516.596	4135.75	3243.75
978.6964	2517.9275	4115.35	3225.65
978.8239	2519.2583	4110.05	3219
978.9513	2520.5884	4098.55	3205.25
979.0788	2521.9178	4091.1	3199.5
979.2062	2523.2465	4073.45	3185.05
979.3335	2524.5745	4046.25	3158.05
979.4608	2525.9018	4031.25	3139.4
979.5881	2527.2284	4028.95	3140.85
979.7154	2528.5543	4048.15	3161.1
979.8426	2529.8796	4019.45	3130.5
979.9698	2531.2041	3991.45	3100.8
980.0969	2532.5279	4003.8	3118.45
980.224	2533.851	4002.05	3111.65
980.3511	2535.1735	3990.2	3102
980.4781	2536.4952	3990.25	3098.55
980.6052	2537.8163	3968.2	3072.9
980.7321	2539.1366	3957.95	3065.9
980.8591	2540.4562	3934.15	3041.6
980.986	2541.7752	3944.6	3053.5
981.1129	2543.0935	3936.45	3044.3
981.2397	2544.411	3912.15	3021.5
981.3665	2545.7279	3907.5	3018.5
981.4933	2547.0441	3915	3024.9
981.62	2548.3596	3902.4	3007.05
981.7467	2549.6744	3899.85	3007.9
981.8734	2550.9885	3887.85	2993.4
982.0001	2552.3019	3863.35	2975.75
982.1267	2553.6146	3871.1	2978.4
982.2532	2554.9266	3844.9	2954.9
982.3798	2556.2379	3837.1	2944.25
982.5063	2557.5485	3818.55	2929.6
982.6327	2558.8585	3834.5	2935.55
982.7592	2560.1677	3818.2	2922.3
982.8856	2561.4762	3807.9	2915.35
983.0119	2562.7841	3805.6	2910.65
983.1383	2564.0913	3804.3	2914.65
983.2646	2565.3977	3796.95	2906.6
983.3908	2566.7035	3785.45	2894.15
983.517	2568.0086	3776.15	2883.9
983.6432	2569.313	3765.65	2872.15
983.7694	2570.6167	3757.2	2861.85
983.8955	2571.9197	3743.55	2850.4
984.0216	2573.222	3742.6	2847.35
984.1476	2574.5236	3729.1	2837.15
984.2737	2575.8246	3730.45	2837.2
984.3996	2577.1248	3717.35	2822.35
984.5256	2578.4244	3694.9	2802.15
984.6515	2579.7232	3715.35	2824.6
984.7774	2581.0214	3722.6	2801.95
984.9032	2582.3189	3702.8	2813.4
985.029	2583.6157	3709.65	2815.3
985.1548	2584.9118	3692.55	2800.05
985.2806	2586.2072	3681.45	2789.55
985.4063	2587.5019	3671.05	2779.35
985.5319	2588.7959	3655.5	2762.8
985.6576	2590.0893	3655.2	2760.9
985.7832	2591.3819	3643.65	2751.95
985.9087	2592.6739	3633.1	2742.55
986.0343	2593.9652	3630.8	2737.95
986.1597	2595.2557	3629	2737.95
986.2852	2596.5456	3618.25	2725.45
986.4106	2597.8348	3606.4	2715.7
986.536	2599.1234	3599.85	2708.8
986.6614	2600.4112	3594.7	2703.55
986.7867	2601.6983	3585.6	2691.65
986.912	2602.9848	3574.8	2683.5
987.0372	2604.2705	3566.95	2670.3
987.1624	2605.5556	3570.35	2678.9
987.2876	2606.84	3529.05	2637.7
987.4128	2608.1237	3538.15	2648.95
987.5379	2609.4067	3519.9	2628.75
987.6629	2610.689	3530.1	2631.5
987.788	2611.9707	3519.95	2623.4
987.913	2613.2516	3512.6	2616.05
988.0379	2614.5319	3488.75	2599.8
988.1629	2615.8115	3464.5	2573.6
988.2878	2617.0903	3463.2	2573.5
988.4126	2618.3685	3445.4	2552.1
988.5375	2619.6461	3435	2544.25
988.6622	2620.9229	3425.6	2534.75
988.787	2622.199	3421.35	2530.95
988.9117	2623.4745	3421.9	2529.5
989.0364	2624.7493	3404.2	2514.2
989.161	2626.0234	3392.1	2502.85
989.2857	2627.2968	3385.6	2493.6
989.4102	2628.5695	3382.6	2490.05
989.5348	2629.8415	3378.5	2488.55
989.6593	2631.1128	3359.45	2467.8
989.7837	2632.3835	3351.85	2462.25
989.9082	2633.6535	3341.7	2451.35
990.0326	2634.9228	3336.6	2445.9
990.1569	2636.1914	3319.3	2429.7
990.2812	2637.4593	3312.95	2417.05
990.4055	2638.7265	3317	2423.85
990.5298	2639.9931	3290.25	2400.35
990.654	2641.259	3286.85	2393.8
990.7782	2642.5242	3290.5	2399.4
990.9023	2643.7887	3271.1	2379.85
991.0264	2645.0525	3266.7	2374.9
991.1505	2646.3156	3281.15	2377.9
991.2745	2647.5781	3251.1	2362.45
991.3985	2648.8398	3243.45	2355.55
991.5225	2650.1009	3232.05	2336
991.6464	2651.3613	3219.45	2329.2
991.7703	2652.6211	3212.55	2321.25
991.8942	2653.8801	3195.3	2303.9
992.018	2655.1385	3195.65	2301.7
992.1418	2656.3961	3195	2305.5
992.2655	2657.6531	3190.95	2299.95
992.3892	2658.9094	3189.9	2298.9
992.5129	2660.1651	3189.25	2299.3
992.6366	2661.42	3167.75	2278.2
992.7602	2662.6743	3158.75	2267
992.8837	2663.9279	3169.7	2279.7
993.0073	2665.1808	3159.8	2268.65
993.1307	2666.433	3155	2264
993.2542	2667.6846	3142.85	2250.3
993.3776	2668.9354	3151.95	2260
993.501	2670.1856	3124.75	2232.35
993.6244	2671.4351	3133.2	2243.2
993.7477	2672.6839	3126.7	2235.45
993.8709	2673.9321	3121.15	2231.6
993.9942	2675.1795	3111.75	2220.9
994.1174	2676.4263	3108.3	2218.7
994.2405	2677.6724	3104.3	2214.9
994.3637	2678.9179	3104.05	2216.1
994.4868	2680.1626	3097	2207.35
994.6098	2681.4067	3093.4	2201.3
994.7328	2682.6501	3090.35	2198.75
994.8558	2683.8928	3067.1	2175.2
994.9788	2685.1348	3064.5	2176.25
995.1017	2686.3761	3057.5	2168.35
995.2245	2687.6168	3050.55	2160.65
995.3474	2688.8568	3024.3	2134.3
995.4702	2690.0961	3034.45	2146.25
995.5929	2691.3348	3032.6	2140.9
995.7156	2692.5727	3025.45	2135.3
995.8383	2693.81	3000.3	2110.45
995.961	2695.0466	2991.7	2102.35
996.0836	2696.2826	2987.5	2096.65
996.2062	2697.5178	2982.55	2091.7
996.3287	2698.7524	2977.25	2087.75
996.4512	2699.9863	2974.55	2084.4
996.5737	2701.2195	2974.7	2085.7
996.6961	2702.452	2975.2	2085.9
996.8185	2703.6839	2968.8	2078.95
996.9408	2704.9151	2951.4	2062.3
997.0631	2706.1456	2950.05	2059.95
997.1854	2707.3755	2957.35	2068.8
997.3077	2708.6046	2955.55	2060.95
997.4299	2709.8331	2950.5	2059.8
997.552	2711.0609	2942	2052.5
997.6742	2712.2881	2954.05	2064.1
997.7963	2713.5145	2963.1	2071.8
997.9183	2714.7403	2970.6	2081.8
998.0403	2715.9654	2961.85	2071.05
998.1623	2717.1899	2978.85	2075.35
998.2842	2718.4136	2968	2078.95
998.4062	2719.6367	2981.8	2092.75
998.528	2720.8591	2979.9	2084.6
998.6498	2722.0809	2975.9	2087.4
998.7716	2723.3019	2986.35	2095.3
998.8934	2724.5223	2986.5	2096.95
999.0151	2725.7421	2990.25	2100.9
999.1368	2726.9611	2993	2103.15
999.2584	2728.1795	2973.25	2079.35
999.38	2729.3972	2957.95	2070.1
999.5016	2730.6142	2948.7	2052.4
999.6231	2731.8306	2923.55	2034.55
999.7446	2733.0462	2902.35	2013.45
999.8661	2734.2612	2884.65	1989.75
999.9875	2735.4756	2861.65	1971.25
1000.1089	2736.6892	2833.05	1945.3
1000.2302	2737.9022	2813.75	1926.8
1000.3515	2739.1145	2808.2	1919.55
1000.4728	2740.3262	2790.25	1893.5
1000.594	2741.5372	2764.1	1875.5
1000.7152	2742.7475	2742.6	1851.1
1000.8363	2743.9571	2733.4	1842.4
1000.9575	2745.1661	2731.15	1838.4
1001.0785	2746.3744	2705.15	1815.95
1001.1996	2747.582	2693.45	1805.7
1001.3206	2748.7889	2676.45	1785.3
1001.4415	2749.9952	2669.35	1780.15
1001.5625	2751.2008	2671.95	1780.3
1001.6833	2752.4057	2656.85	1766.2
1001.8042	2753.61	2639.35	1750.95
1001.925	2754.8136	2634.05	1744.05
1002.0458	2756.0165	2625.7	1738.25
1002.1665	2757.2188	2611.3	1725.4
1002.2872	2758.4204	2612.3	1724.8
1002.4078	2759.6213	2623.3	1730.95
1002.5285	2760.8215	2617.95	1722.6
1002.649	2762.0211	2613.5	1723.2
1002.7696	2763.22	2593.75	1702.6
1002.8901	2764.4182	2594.85	1706.7
1003.0106	2765.6158	2579.95	1692
1003.131	2766.8127	2575.1	1686
1003.2514	2768.009	2557.05	1669.7
1003.3717	2769.2045	2563.9	1672.4
1003.492	2770.3994	2557.55	1665.55
1003.6123	2771.5936	2543.15	1652.8
1003.7325	2772.7872	2536.2	1647.85
1003.8527	2773.9801	2515.35	1626.35
1003.9729	2775.1723	2538.65	1634.55
1004.093	2776.3639	2514.25	1627.1
1004.2131	2777.5548	2511.85	1623.25
1004.3331	2778.745	2506.6	1619.3
1004.4531	2779.9346	2505.55	1619.75
1004.5731	2781.1235	2507.3	1619.45
1004.693	2782.3117	2502.3	1614.3
1004.8129	2783.4992	2502.6	1616.6
1004.9328	2784.6861	2499.4	1610.85
1005.0526	2785.8723	2497.1	1607.8
1005.1723	2787.0579	2500.65	1612.4
1005.2921	2788.2428	2507.05	1618.3
1005.4118	2789.427	2506.6	1619.2
1005.5314	2790.6106	2515.15	1628.4
1005.651	2791.7935	2509.7	1622.55
1005.7706	2792.9757	2517.25	1631.45
1005.8902	2794.1573	2531.3	1642.05
1006.0097	2795.3382	2532.85	1647.35
1006.1291	2796.5184	2540.25	1654.15
1006.2485	2797.698	2560.3	1669.6
1006.3679	2798.8769	2566.25	1679.2
1006.4873	2800.0551	2574.3	1687.6
1006.6066	2801.2327	2589.4	1702.15
1006.7258	2802.4096	2598.7	1711.55
1006.8451	2803.5859	2626.2	1736.25
1006.9642	2804.7615	2637.5	1749.15
1007.0834	2805.9364	2658.5	1773.55
1007.2025	2807.1106	2676.7	1791.15
1007.3216	2808.2842	2708.65	1821.05
1007.4406	2809.4572	2735	1847.85
1007.5596	2810.6294	2769.5	1882.05
1007.6785	2811.801	2795.05	1908.35
1007.7975	2812.972	2839.3	1952.85
1007.9163	2814.1423	2882.5	1996.5
1008.0352	2815.3119	2924.65	2038.1
1008.154	2816.4808	2959.25	2072.1
1008.2727	2817.6491	3007.15	2119.8
1008.3914	2818.8167	3049.8	2164.05
1008.5101	2819.9837	3099	2207.1
1008.6288	2821.15	3134.15	2247.8
1008.7474	2822.3157	3184.9	2300.6
1008.8659	2823.4807	3224.45	2337.5
1008.9844	2824.645	3274.3	2386
1009.1029	2825.8086	3298.9	2414
1009.2214	2826.9716	3334.65	2447.4
1009.3398	2828.134	3369.2	2482.35
1009.4581	2829.2957	3406.2	2518.75
1009.5764	2830.4567	3410.8	2524.7
1009.6947	2831.617	3442.55	2554.6
1009.813	2832.7767	3448.45	2563.9
1009.9312	2833.9358	3452.45	2567.35
1010.0493	2835.0941	3428.75	2541.3
1010.1675	2836.2519	3433	2546.75
1010.2855	2837.4089	3414.55	2528.5
1010.4036	2838.5653	3395	2508.3
1010.5216	2839.7211	3408.55	2523.75
1010.6396	2840.8761	3391.35	2502.75
1010.7575	2842.0306	3424.85	2541.8
1010.8754	2843.1843	3455.15	2568.05
1010.9932	2844.3374	3498.9	2612.85
1011.111	2845.4899	3559.35	2672.35
1011.2288	2846.6417	3621	2736
1011.3465	2847.7928	3715.15	2831.9
1011.4642	2848.9433	3780.75	2895.65
1011.5818	2850.0931	3853.25	2965.7
1011.6995	2851.2422	3925.8	3037.1
1011.817	2852.3907	4006.5	3119.45
1011.9345	2853.5385	4054.2	3166.1
1012.052	2854.6857	4102.1	3208.35
1012.1695	2855.8323	4148.4	3261.25
1012.2869	2856.9781	4208.45	3323.35
1012.4042	2858.1233	4248.05	3362.2
1012.5216	2859.2679	4293.25	3411.35
1012.6389	2860.4118	4322.8	3437.95
1012.7561	2861.555	4366.6	3476.35
1012.8733	2862.6976	4411	3523.15
1012.9905	2863.8395	4412.25	3529
1013.1076	2864.9808	4450.65	3564.8
1013.2247	2866.1214	4450.65	3566.05
1013.3417	2867.2614	4463.4	3577.9
1013.4587	2868.4007	4463.1	3576.25
1013.5757	2869.5393	4472.4	3582.45
1013.6926	2870.6773	4508	3620.7
1013.8095	2871.8146	4526.15	3636.35
1013.9263	2872.9513	4497.05	3608.25
1014.0431	2874.0874	4496.2	3610.35
1014.1599	2875.2227	4483.75	3598.15
1014.2766	2876.3574	4466.8	3580.15
1014.3933	2877.4915	4431.25	3547.15
1014.51	2878.6249	4397.55	3513.9
1014.6266	2879.7577	4371.15	3484.2
1014.7431	2880.8898	4355.15	3459.2
1014.8596	2882.0212	4327.35	3442.8
1014.9761	2883.152	4306.65	3420.9
1015.0925	2884.2821	4293.7	3409.4
1015.2089	2885.4116	4283.3	3400.4
1015.3253	2886.5405	4277.85	3392.75
1015.4416	2887.6686	4303.5	3414.25
1015.5579	2888.7962	4276.05	3391.9
1015.6741	2889.923	4277.2	3393.05
1015.7903	2891.0493	4310.95	3427
1015.9065	2892.1748	4319.35	3435.05
1016.0226	2893.2997	4307	3423.45
1016.1387	2894.424	4326.3	3441.25
1016.2547	2895.5476	4346.7	3461.3
1016.3707	2896.6706	4371.4	3487.5
1016.4866	2897.7929	4379	3493.15
1016.6025	2898.9145	4412.35	3527.9
1016.7184	2900.0355	4431.85	3548.5
1016.8342	2901.1559	4445.55	3560.35
1016.95	2902.2756	4486.3	3602.85
1017.0658	2903.3946	4517.75	3632.2
1017.1815	2904.513	4540.95	3653.6
1017.2971	2905.6308	4591.95	3710.15
1017.4127	2906.7479	4591.05	3706.45
1017.5283	2907.8643	4609.25	3724.1
1017.6439	2908.9801	4626.5	3741.6
1017.7594	2910.0953	4608	3723.7
1017.8748	2911.2098	4626.1	3736.9
1017.9902	2912.3236	4607.75	3715.35
1018.1056	2913.4368	4588.55	3701.3
1018.2209	2914.5494	4566.1	3681.95
1018.3362	2915.6613	4559.35	3670.1
1018.4515	2916.7725	4515.95	3629.55
1018.5667	2917.8831	4482.3	3596.5
1018.6819	2918.9931	4453.9	3569.75
1018.797	2920.1024	4424.45	3537.1
1018.9121	2921.211	4394.5	3510.1
1019.0271	2922.319	4375.65	3489.85
1019.1421	2923.4264	4364.5	3481.45
1019.2571	2924.5331	4346.75	3464.2
1019.372	2925.6391	4332.5	3448.75
1019.4869	2926.7445	4325.9	3443.4
1019.6017	2927.8493	4302.15	3417.8
1019.7165	2928.9534	4290.85	3406.75
1019.8313	2930.0569	4277.4	3391
1019.946	2931.1597	4277	3392.1
1020.0606	2932.2619	4254.7	3369.15
1020.1753	2933.3634	4239.7	3356.2
1020.2899	2934.4643	4233.15	3341.85
1020.4044	2935.5645	4210.25	3320.2
1020.5189	2936.6641	4193.05	3304.85
1020.6334	2937.763	4125.6	3242
1020.7478	2938.8613	4091.65	3208.65
1020.8622	2939.959	4025.45	3134.4
1020.9765	2941.056	3948.75	3066.05
1021.0908	2942.1523	3872.15	2984.1
1021.2051	2943.248	3767.15	2883.2
1021.3193	2944.3431	3682.4	2798.75
1021.4334	2945.4375	3578.1	2693.05
1021.5476	2946.5313	3466.35	2583.1
1021.6617	2947.6244	3369.85	2486.5
1021.7757	2948.7169	3271.55	2386.85
1021.8897	2949.8087	3173.7	2289.95
1022.0037	2950.8999	3071.85	2187.3
1022.1176	2951.9904	2987.5	2103.75
1022.2315	2953.0803	2922	2035.55
1022.3453	2954.1696	2861.4	1977.3
1022.4591	2955.2582	2804.65	1921.75
1022.5728	2956.3462	2752.4	1869.95
1022.6865	2957.4335	2706.5	1822.2
1022.8002	2958.5202	2678.05	1792.55
1022.9138	2959.6062	2632.2	1747.6
1023.0274	2960.6916	2616.2	1736
1023.141	2961.7764	2594.95	1709.55
1023.2545	2962.8605	2580.95	1696.8
1023.3679	2963.9439	2557.15	1673.2
1023.4813	2965.0267	2546.85	1662.3
1023.5947	2966.1089	2549.5	1641.95
1023.708	2967.1905	2537.7	1655.35
1023.8213	2968.2714	2539.5	1657.8
1023.9346	2969.3516	2532.4	1650.05
1024.0478	2970.4312	2529.7	1637.85
1024.1609	2971.5102	2514.4	1631.3
1024.274	2972.5885	2527.65	1643.55
1024.3871	2973.6662	2519.2	1630.55
1024.5002	2974.7432	2510.8	1626.3
1024.6132	2975.8196	2501	1616.8
1024.7261	2976.8954	2478.35	1596
1024.839	2977.9705	2472.2	1587
1024.9519	2979.045	2444.45	1561.35
1025.0647	2980.1188	2428.35	1546
1025.1775	2981.192	2414.25	1533.3
1025.2902	2982.2645	2392.05	1508.55
1025.4029	2983.3364	2357.45	1473.4
1025.5156	2984.4077	2339.55	1454.8
1025.6282	2985.4783	2308.8	1421.9
1025.7407	2986.5483	2268.1	1387.4
1025.8532	2987.6177	2236.15	1352.7
1025.9657	2988.6864	2194.9	1311.8
1026.0782	2989.7545	2171.85	1287.65
1026.1906	2990.8219	2142.75	1257.8
1026.3029	2991.8887	2103.15	1217.5
1026.4152	2992.9548	2068.25	1185
1026.5275	2994.0204	2034.5	1152.6
1026.6397	2995.0852	1996.05	1112.2
1026.7519	2996.1495	1979.75	1096.15
1026.864	2997.2131	1952.7	1070.95
1026.9761	2998.276	1934.05	1052.15
1027.0882	2999.3383	1904.2	1021.8
1027.2002	3000.4	1893.45	1007.3
1027.3122	3001.4611	1878.55	995.2
1027.4241	3002.5215	1850.85	967.9
1027.536	3003.5812	1838.15	955
1027.6478	3004.6404	1829.05	945.75
1027.7596	3005.6989	1815.3	929.55
1027.8714	3006.7567	1808.8	928.6
1027.9831	3007.8139	1815.1	909.05
1028.0947	3008.8705	1786.05	903.65
1028.2064	3009.9264	1796.1	894.5
1028.3179	3010.9818	1771.25	885.95
1028.4295	3012.0364	1769.1	886.55
1028.541	3013.0905	1767.45	883.65
1028.6524	3014.1439	1764.6	882.7
1028.7638	3015.1966	1758.75	876.6
1028.8752	3016.2487	1761.8	879.3
1028.9865	3017.3002	1755.6	865.1
1029.0978	3018.3511	1747.45	867
1029.209	3019.4013	1753.5	870.7
1029.3202	3020.4509	1749.55	868.25
1029.4314	3021.4998	1747.4	861.3
1029.5425	3022.5481	1745.6	862.55
1029.6535	3023.5958	1755.5	873.15
1029.7645	3024.6428	1744.25	859.5
1029.8755	3025.6892	1747	865.25
1029.9864	3026.735	1744.65	861.1
1030.0973	3027.7802	1744.6	861.6
1030.2082	3028.8247	1743.6	860.9
1030.319	3029.8685	1754.1	871.25
1030.4297	3030.9118	1745.75	862.65
1030.5404	3031.9544	1747.6	866.95
1030.6511	3032.9963	1752.75	869.65
1030.7617	3034.0376	1758.2	877.45
1030.8723	3035.0783	1772.3	886.8
1030.9829	3036.1184	1765.8	882.3
1031.0934	3037.1578	1761.85	880.55
1031.2038	3038.1966	1773.65	890
1031.3142	3039.2348	1762.4	882.15
1031.4246	3040.2723	1762.2	870
1031.5349	3041.3092	1755.65	874.4
1031.6452	3042.3455	1756.45	875.45
1031.7554	3043.3811	1748.6	867.25
1031.8656	3044.4161	1737	854.75
1031.9758	3045.4505	1728.75	845.75
1032.0859	3046.4842	1728.65	846.3
1032.1959	3047.5173	1722.2	840.9
1032.3059	3048.5498	1707.05	824.5
1032.4159	3049.5816	1713.55	831.65
1032.5258	3050.6128	1699.95	815.6
1032.6357	3051.6434	1694.75	810.35
1032.7455	3052.6734	1681.2	799
1032.8553	3053.7027	1668.55	784.05
1032.9651	3054.7314	1660.1	780.2
1033.0748	3055.7594	1666.75	783.25
1033.1845	3056.7868	1657.75	773.6
1033.2941	3057.8136	1644.05	761.75
1033.4037	3058.8398	1641.25	758.45
1033.5132	3059.8653	1634.9	752.9
1033.6227	3060.8902	1624.55	741.8
1033.7321	3061.9145	1624.9	743.85
1033.8415	3062.9381	1615.6	733.65
1033.9509	3063.9612	1624.2	727.5
1034.0602	3064.9835	1593.95	709.85
1034.1694	3066.0053	1588.3	704.1
1034.2787	3067.0264	1581.4	700.9
1034.3878	3068.0469	1573.75	689.75
1034.497	3069.0668	1562.25	677.2
1034.6061	3070.086	1548.9	670.3
1034.7151	3071.1046	1551.5	669.75
1034.8241	3072.1226	1536.2	653.2
1034.9331	3073.1399	1523	642.05
1035.042	3074.1567	1512.7	630.05
1035.1508	3075.1727	1509	626.55
1035.2597	3076.1882	1492.6	611.3
1035.3684	3077.203	1477.1	595.3
1035.4772	3078.2173	1474.55	591.6
1035.5859	3079.2308	1470.95	584.9
1035.6945	3080.2438	1458.8	575.5
1035.8031	3081.2561	1445.65	563.3
1035.9117	3082.2678	1435.5	551.9
1036.0202	3083.2789	1434.35	552.55
1036.1286	3084.2893	1419.25	537.15
1036.2371	3085.2991	1413.3	533.65
1036.3454	3086.3083	1413.75	526.95
1036.4538	3087.3169	1406.95	523.4
1036.562	3088.3248	1399.3	516.8
1036.6703	3089.3321	1396.85	511.8
1036.7785	3090.3388	1383.6	502.5
1036.8866	3091.3449	1380.95	499.4
1036.9948	3092.3503	1382.15	498.9
1037.1028	3093.3551	1366.3	485.55
1037.2108	3094.3593	1369.05	489.6
1037.3188	3095.3629	1367.6	485.9
1037.4267	3096.3658	1361.9	480.35
1037.5346	3097.3681	1356.05	473.6
1037.6425	3098.3698	1354.3	471.6
1037.7503	3099.3708	1350.4	460.95
1037.858	3100.3713	1344.45	462.5
1037.9657	3101.3711	1342.35	459.6
1038.0734	3102.3702	1459.25	440
1038.181	3103.3688	1330.6	447.1
1038.2886	3104.3667	1328.15	447.9
1038.3961	3105.364	1323.5	444.2
1038.5036	3106.3607	1319.8	437.3
1038.611	3107.3568	1321.05	438.3
1038.7184	3108.3522	1314.65	434.05
1038.8257	3109.347	1312	428.95
1038.933	3110.3412	1314.25	430.85
1039.0403	3111.3348	1304.8	423.75
1039.1475	3112.3277	1305.1	424.4
1039.2547	3113.32	1296.3	417.8
1039.3618	3114.3117	1298.65	417.65
1039.4689	3115.3028	1295.1	412.45
1039.5759	3116.2932	1290.7	407.7
1039.6829	3117.2831	1288.35	401.55
1039.7898	3118.2723	1285.35	403.3
1039.8967	3119.2608	1282.4	399.1
1040.0035	3120.2488	1280.8	398.35
1040.1103	3121.2361	1282.85	402.15
1040.2171	3122.2229	1278.3	398.05
1040.3238	3123.209	1278.1	397.7
1040.4305	3124.1944	1276.05	396.2
1040.5371	3125.1793	1269.45	387.55
1040.6437	3126.1635	1266.9	384.6
1040.7502	3127.1471	1266.85	388.45
1040.8567	3128.1301	1260.85	380.15
1040.9631	3129.1125	1261.55	380.35
1041.0695	3130.0942	1259.35	378.4
1041.1759	3131.0753	1269.5	379.45
1041.2822	3132.0558	1255.55	372.35
1041.3884	3133.0357	1245.7	364.7
1041.4946	3134.015	1250.85	368.95
1041.6008	3134.9936	1248.35	366
1041.7069	3135.9716	1258.95	358.2
1041.813	3136.949	1243.65	363.25
1041.919	3137.9258	1256.7	355.95
1042.025	3138.902	1250.1	362.7
1042.1309	3139.8775	1239.2	360.1
1042.2368	3140.8524	1236.8	356.05
1042.3427	3141.8267	1234.55	352.25
1042.4485	3142.8004	1229.35	346.85
1042.5542	3143.7735	1239.6	353.8
1042.6599	3144.7459	1231.25	346.95
1042.7656	3145.7178	1228.8	346.9
1042.8712	3146.689	1217.5	336.45
1042.9768	3147.6596	1222.8	341.65
1043.0823	3148.6295	1221.45	340.25
1043.1878	3149.5989	1217.3	337.65
1043.2932	3150.5676	1215.5	336.25
1043.3986	3151.5357	1212.8	335.3
1043.5039	3152.5032	1208.1	327.6
1043.6092	3153.4701	1206.85	326.35
1043.7145	3154.4364	1211	325.65
1043.8197	3155.402	1204.6	325.05
1043.9248	3156.367	1197.1	314.2
1044.03	3157.3315	1250.45	325.2
1044.135	3158.2952	1197.5	314.35
1044.24	3159.2584	1192.35	309.05
1044.345	3160.221	1192.25	310.7
1044.4499	3161.1829	1187.95	307.4
1044.5548	3162.1442	1188.6	305.95
1044.6596	3163.105	1193.4	313.65
1044.7644	3164.065	1184.65	303.2
1044.8692	3165.0245	1188.2	304.8
1044.9739	3165.9834	1175.1	297.05
1045.0785	3166.9416	1178.75	298.9
1045.1831	3167.8993	1178.05	296.25
1045.2877	3168.8563	1175.5	293.05
1045.3922	3169.8127	1179.8	299.2
1045.4966	3170.7684	1175.25	292.6
1045.6011	3171.7236	1172.2	290.8
1045.7054	3172.6782	1172.85	292.4
1045.8098	3173.6321	1171.55	291.8
1045.914	3174.5854	1170.05	283.95
1046.0183	3175.5381	1164.8	285.25
1046.1224	3176.4902	1161.15	282
1046.2266	3177.4417	1161.65	281.35
1046.3307	3178.3926	1160.5	281
1046.4347	3179.3428	1151.65	272.85
1046.5387	3180.2924	1160.5	279.7
1046.6427	3181.2415	1158.9	278
1046.7466	3182.1899	1154.65	271.6
1046.8504	3183.1377	1150.9	271.9
1046.9542	3184.0848	1151.65	268.65
1047.058	3185.0314	1146.45	265.9
1047.1617	3185.9773	1150.7	268.35
1047.2654	3186.9227	1148.8	265.2
1047.369	3187.8674	1142.9	263.3
1047.4726	3188.8115	1144.45	259.35
1047.5761	3189.755	1140.25	258.25
1047.6796	3190.6979	1139	258.9
1047.783	3191.6402	1141.9	261.35
1047.8864	3192.5818	1140.05	259.15
1047.9898	3193.5229	1145	259.35
1048.0931	3194.4633	1138.5	258
1048.1963	3195.4031	1132.4	251.05
1048.2995	3196.3423	1131.6	252.65
1048.4027	3197.2809	1135.4	254.8
1048.5058	3198.2189	1126.4	246.65
1048.6089	3199.1563	1133.65	248.35
1048.7119	3200.0931	1131.1	251.9
1048.8148	3201.0292	1124.65	246.25
1048.9178	3201.9648	1124.2	244
1049.0206	3202.8997	1119.8	235.55
1049.1235	3203.834	1125.75	245.95
1049.2262	3204.7677	1121.9	240.7
1049.329	3205.7008	1120.45	236.45
1049.4317	3206.6333	1111.9	234.2
1049.5343	3207.5652	1114.55	231.45
1049.6369	3208.4964	1115.85	235.95
1049.7394	3209.4271	1115.55	236.45
1049.8419	3210.3571	1111.15	232.75
1049.9444	3211.2865	1117.2	237.95
1050.0468	3212.2154	1112.35	228.75
1050.1491	3213.1436	1112.95	232.1
1050.2514	3214.0712	1115.5	229.3
1050.3537	3214.9982	1107.6	229.55
1050.4559	3215.9246	1104.25	223.7
1050.5581	3216.8503	1102.5	221.5
1050.6602	3217.7755	1103.8	222.85
1050.7623	3218.7001	1100.25	221.4
1050.8643	3219.624	1101.55	220.35
1050.9663	3220.5473	1096.95	217.55
1051.0682	3221.4701	1097.9	216.9
1051.1701	3222.3922	1097.45	215.05
1051.2719	3223.3137	1097.55	217.45
1051.3737	3224.2346	1098.75	218.65
1051.4754	3225.1549	1092.85	213.9
1051.5771	3226.0746	1096.55	215.4
1051.6788	3226.9937	1093.95	214.3
1051.7804	3227.9121	1090.4	210.95
1051.8819	3228.83	1090.55	212.4
1051.9834	3229.7473	1089.55	209.35
1052.0849	3230.6639	1085.1	205.85
1052.1863	3231.5799	1087.6	208.5
1052.2876	3232.4954	1079.25	197.8
1052.3889	3233.4102	1085.65	206.1
1052.4902	3234.3244	1080.9	200.25
1052.5914	3235.238	1081.8	202.5
1052.6926	3236.151	1102.7	199.55
1052.7937	3237.0634	1080	199.3
1052.8948	3237.9752	1079.35	199.35
1052.9958	3238.8864	1080.35	198.35
1053.0968	3239.797	1077.2	196.15
1053.1977	3240.7069	1077.5	197.45
1053.2986	3241.6163	1074.65	192.1
1053.3994	3242.5251	1072.2	192.45
1053.5002	3243.4332	1077.15	199.05
1053.6009	3244.3408	1071.05	192.1
1053.7016	3245.2477	1068	188.1
1053.8022	3246.154	1071.3	189.8
1053.9028	3247.0598	1068.15	186.1
1054.0034	3247.9649	1066.7	186.7
1054.1039	3248.8694	1066.4	186.65
1054.2043	3249.7733	1067.85	185.8
1054.3047	3250.6766	1065.45	185.85
1054.4051	3251.5793	1062.75	179.25
1054.5054	3252.4814	1058.35	178.55
1054.6056	3253.3829	1055.3	175.3
1054.7058	3254.2838	1055	175.95
1054.806	3255.1841	1055.1	177.4
1054.9061	3256.0838	1055.35	175.85
1055.0061	3256.9829	1048.8	171.05
1055.1062	3257.8814	1052.8	171.35
1055.2061	3258.7792	1050.65	167.55
1055.306	3259.6765	1047.55	166.15
1055.4059	3260.5731	1041.15	162.7
1055.5057	3261.4692	1042.75	163.8
1055.6055	3262.3647	1042	161.7
1055.7052	3263.2595	1039.95	161.45
1055.8049	3264.1538	1037.25	157.35
1055.9045	3265.0474	1033.55	153.7
1056.0041	3265.9404	1033.2	153.65
1056.1036	3266.8329	1032.1	152.9
1056.2031	3267.7247	1037.6	148
1056.3025	3268.616	1022.9	144.3
1056.4019	3269.5066	1023.6	143.8
1056.5013	3270.3966	1018.85	138.75
1056.6005	3271.286	1011.3	132.45
