Software Version:	3.9.2.0
Unit SN:	10000200
Spectrometer SN:	6960
Date:	3/26/2024 1:08:30 PM
Data Line Index:	25
Spectral Points:	2048
Integration time (ms):	125
Averages:	20
Delay (ms):	30000
Sequence Number:	1
Processing:	dark subtract
Laser Power (mW):	300
Laser Current (mA):	818
Laser Diode Temp (C):	25
Laser Case Temp (C):	26.1
System Temp (C):	26
Spectrometer Temp (C):	23.8
CCD Temp (C):	0.004
Secondary Temp (C):	20.007
Heatsink Temp (C):	21.644
CCDPCB Temp (C):	36.618
SecondaryPCB Temp (C):	31.761

Wavelength	RamanShift	Raw Counts	Dark Subtracted
787.061	30.1047	423.6	12.45
787.2016	32.3739	420.95	11.45
787.3422	34.6426	423.2	12.2
787.4828	36.9109	426.55	13.4
787.6235	39.1787	430.45	14.3
787.7642	41.4461	440.05	19.4
787.9049	43.7131	444.15	19.9
788.0456	45.9796	444.2	16.8
788.1863	48.2456	451.5	20.85
788.3271	50.5112	457.3	21.2
788.4679	52.7764	461	21
788.6087	55.0411	465	24.05
788.7496	57.3054	469.4	25.25
788.8904	59.5692	475.65	27.4
789.0313	61.8326	482.15	30
789.1722	64.0955	489.8	33.15
789.3132	66.3579	497.05	36.2
789.4541	68.6199	504.45	41.6
789.5951	70.8815	515.6	49.15
789.7361	73.1426	535.45	65.5
789.8771	75.4032	585.3	112.15
790.0181	77.6634	696.4	217.4
790.1592	79.9231	963.15	480.35
790.3003	82.1824	1529.3	1044.15
790.4414	84.4412	2475.35	1980.4
790.5825	86.6995	3746.2	3245.2
790.7237	88.9574	5014.55	4505.8
790.8648	91.2148	5956.75	5445.15
791.006	93.4717	6465.55	5948.8
791.1472	95.7282	6641.75	6120.35
791.2885	97.9842	6720.1	6197.45
791.4297	100.2398	6717.85	6195.35
791.571	102.4949	6698.6	6170.95
791.7123	104.7495	6687.05	6154.85
791.8536	107.0036	6653.6	6119.7
791.9949	109.2573	6600.95	6070.5
792.1363	111.5105	6563.2	6027.8
792.2777	113.7632	6472.5	5936.35
792.4191	116.0154	6435.35	5889.65
792.5605	118.2672	6374.95	5834.9
792.7019	120.5185	6308.85	5766.25
792.8434	122.7693	6233.85	5689.5
792.9849	125.0197	6208.9	5661.85
793.1264	127.2696	6153	5603.45
793.2679	129.519	6127.8	5576.65
793.4094	131.7679	6099.4	5545.05
793.551	134.0163	6086.1	5529.2
793.6926	136.2642	6055.4	5491.15
793.8342	138.5117	6053.2	5478.95
793.9758	140.7587	6056.2	5485.8
794.1175	143.0052	6002.25	5429.35
794.2591	145.2512	5973.85	5402.3
794.4008	147.4967	5920.6	5348.1
794.5425	149.7417	5891.75	5319.25
794.6842	151.9863	5858.25	5282.2
794.826	154.2304	5857.7	5278.35
794.9677	156.4739	5818.35	5231.7
795.1095	158.717	5834.45	5248.9
795.2513	160.9596	5841.15	5250.85
795.3931	163.2017	5846.2	5252.8
795.535	165.4433	5845.8	5252.4
795.6768	167.6844	5834.2	5236.1
795.8187	169.925	5822	5221.35
795.9606	172.1651	5763.4	5158.45
796.1025	174.4047	5720.8	5112.1
796.2445	176.6439	5690.4	5081.25
796.3864	178.8825	5657.8	5044.55
796.5284	181.1206	5651.6	5034.5
796.6704	183.3582	5641.2	5020.9
796.8124	185.5954	5624.1	5001.95
796.9544	187.832	5622.95	4999.25
797.0965	190.0681	5621.5	4994.6
797.2386	192.3037	5629.95	5000
797.3806	194.5388	5634.25	5001.75
797.5228	196.7734	5641.7	5006.8
797.6649	199.0075	5637.7	4997.75
797.807	201.2411	5659.05	5017.9
797.9492	203.4742	5664.6	5022.05
798.0914	205.7068	5682.9	5040.5
798.2336	207.9389	5698.6	5053.6
798.3758	210.1704	5707.55	5060.95
798.518	212.4015	5696.15	5043.6
798.6603	214.632	5711	5059.85
798.8025	216.862	5713.45	5069.35
798.9448	219.0915	5699.15	5064.7
799.0871	221.3205	5693.35	5059.05
799.2294	223.549	5684.05	5054.7
799.3718	225.777	5700.65	5071.85
799.5141	228.0044	5689.35	5055.8
799.6565	230.2314	5678.8	5047.55
799.7989	232.4578	5655.45	5024.2
799.9413	234.6837	5651.6	5012
800.0837	236.909	5646.65	5006.25
800.2262	239.1339	5626.65	4959.55
800.3687	241.3582	5634.9	4983.5
800.5111	243.582	5640.55	4959.05
800.6536	245.8053	5621.1	4949.3
800.7961	248.0281	5614.05	4948.3
800.9387	250.2503	5618.65	4947.85
801.0812	252.472	5606.4	4931.6
801.2238	254.6932	5616.95	4939.55
801.3664	256.9139	5606.4	4926.2
801.509	259.134	5631.15	4948.35
801.6516	261.3536	5626.65	4947.2
801.7942	263.5727	5663.6	4979.75
801.9369	265.7912	5666.65	4982.8
802.0795	268.0092	5714.7	5031.7
802.2222	270.2267	5747.4	5062.6
802.3649	272.4436	5742.85	5052.15
802.5076	274.6601	5771.05	5076.75
802.6504	276.8759	5783.3	5095.55
802.7931	279.0913	5801.8	5109.2
802.9359	281.3061	5801.75	5108.65
803.0787	283.5204	5817.6	5121.45
803.2215	285.7341	5838.85	5138.6
803.3643	287.9473	5868.4	5157
803.5071	290.16	5850.8	5146
803.6499	292.3721	5827	5127.05
803.7928	294.5837	5789.25	5086.1
803.9357	296.7947	5743.25	5047.25
804.0786	299.0052	5731.8	5031.55
804.2215	301.2152	5711.1	5008.85
804.3644	303.4246	5698.1	4996.05
804.5074	305.6334	5689.9	4985.5
804.6503	307.8418	5662.1	4954
804.7933	310.0495	5641.7	4935.65
804.9363	312.2568	5624.7	4919.7
805.0793	314.4635	5570.4	4862.35
805.2223	316.6696	5517.1	4805.05
805.3653	318.8752	5494.65	4775.95
805.5084	321.0802	5461.85	4750.75
805.6514	323.2847	5426.1	4710.9
805.7945	325.4887	5412.75	4699.05
805.9376	327.692	5401.45	4684.85
806.0807	329.8949	5448.7	4733.05
806.2238	332.0972	5473.4	4756
806.367	334.2989	5511.9	4786.4
806.5101	336.5001	5499.45	4777.55
806.6533	338.7007	5470.25	4747.6
806.7965	340.9008	5454.6	4729.1
806.9397	343.1003	5412.5	4687.1
807.0829	345.2992	5354.65	4627
807.2261	347.4976	5309.2	4580.3
807.3693	349.6955	5287.45	4555.25
807.5126	351.8927	5292.45	4559.15
807.6559	354.0895	5283.8	4537.35
807.7991	356.2856	5266.3	4531.15
807.9424	358.4812	5239.4	4504.55
808.0857	360.6763	5239.85	4501.75
808.2291	362.8707	5223.6	4486.6
808.3724	365.0646	5219.05	4480.4
808.5158	367.258	5238.45	4495.35
808.6591	369.4508	5223.55	4475.35
808.8025	371.643	5240.7	4493.4
808.9459	373.8346	5246.4	4497.2
809.0893	376.0257	5287.55	4533.3
809.2327	378.2162	5299.35	4546.65
809.3762	380.4062	5311.15	4557.15
809.5196	382.5956	5297.05	4539.35
809.6631	384.7844	5251	4493.7
809.8066	386.9726	5195.85	4435.9
809.9501	389.1603	5166.2	4408.3
810.0936	391.3474	5156.95	4366.95
810.2371	393.5339	5114.5	4358.45
810.3806	395.7199	5099.25	4350.95
810.5241	397.9052	5121.5	4373.4
810.6677	400.09	5155.55	4409.15
810.8113	402.2743	5177	4429.15
810.9548	404.4579	5178.05	4429.3
811.0984	406.641	5215	4463.25
811.2421	408.8235	5259.25	4509.3
811.3857	411.0054	5312.5	4562.3
811.5293	413.1868	5401.15	4647.45
811.673	415.3675	5502.1	4745.15
811.8166	417.5477	5537.25	4780.9
811.9603	419.7273	5461.05	4700.25
812.104	421.9064	5324.05	4555.35
812.2477	424.0848	5235.05	4469.7
812.3914	426.2627	5186.7	4419.85
812.5351	428.4399	5119.25	4348.6
812.6788	430.6166	5081.65	4309.6
812.8226	432.7928	5032.55	4258.5
812.9663	434.9683	4988.1	4214.65
813.1101	437.1432	4953.15	4177.15
813.2539	439.3176	4935.7	4162.45
813.3977	441.4914	4894.55	4119.3
813.5415	443.6645	4896.2	4116.55
813.6853	445.8371	4882.4	4102.65
813.8291	448.0091	4891.4	4113.2
813.973	450.1806	4880.55	4101.7
814.1168	452.3514	4857.7	4077
814.2607	454.5216	4848.5	4061.05
814.4046	456.6913	4824.15	4040.45
814.5485	458.8603	4828.6	4047.95
814.6924	461.0288	4840.65	4058.15
814.8363	463.1967	4836.15	4054.55
814.9802	465.3639	4827.45	4042.35
815.1241	467.5306	4824.1	4039.25
815.2681	469.6967	4808.25	4023.15
815.412	471.8622	4783.95	3996.8
815.556	474.0271	4786.95	4003.55
815.7	476.1914	4787.45	3998.1
815.844	478.3551	4770.05	3981.8
815.988	480.5182	4758.3	3971
816.132	482.6807	4784.7	3996.3
816.276	484.8426	4788.85	3999.75
816.4201	487.0039	4815.4	4027.95
816.5641	489.1647	4868.5	4076.95
816.7082	491.3248	4891.75	4101.9
816.8522	493.4843	4907.9	4118.8
816.9963	495.6432	4908.6	4116.55
817.1404	497.8015	4879.4	4086.2
817.2845	499.9592	4841.25	4046.9
817.4286	502.1163	4802.7	4007.75
817.5727	504.2728	4747.75	3952.6
817.7168	506.4287	4746.9	3953.15
817.861	508.5839	4725.8	3931.25
818.0051	510.7386	4723.1	3928.7
818.1493	512.8927	4728.65	3924.8
818.2935	515.0461	4721.65	3925.1
818.4377	517.199	4727.3	3929.8
818.5818	519.3512	4748.1	3951.4
818.726	521.5029	4795.25	3991.4
818.8703	523.6539	4855.4	4056.5
819.0145	525.8043	4871.8	4070.15
819.1587	527.9541	4839.7	4036.4
819.303	530.1033	4773	3969.25
819.4472	532.2519	4737.4	3933.45
819.5915	534.3999	4727.7	3923.95
819.7357	536.5472	4708.45	3903.75
819.88	538.694	4717.65	3913.35
820.0243	540.8401	4734.25	3927.5
820.1686	542.9856	4736	3927.8
820.3129	545.1305	4735.3	3926.95
820.4572	547.2748	4747.75	3939.2
820.6016	549.4185	4766.1	3955.95
820.7459	551.5615	4767.5	3957.85
820.8902	553.704	4765.9	3954.65
821.0346	555.8458	4760.3	3949.85
821.1789	557.987	4777.9	3967.7
821.3233	560.1276	4808.2	3998
821.4677	562.2675	4846.35	4038.25
821.6121	564.4069	4890.25	4079.1
821.7565	566.5456	4912.2	4104.65
821.9009	568.6837	4900.2	4087.6
822.0453	570.8212	4841.3	4030.7
822.1897	572.958	4802.1	3987.5
822.3342	575.0942	4784.3	3973.2
822.4786	577.2299	4736.55	3924.9
822.6231	579.3648	4716	3903.2
822.7675	581.4992	4670.2	3857.6
822.912	583.6329	4660.9	3848
823.0565	585.766	4662.95	3850.95
823.201	587.8985	4675.95	3864.5
823.3454	590.0304	4727.05	3901.85
823.4899	592.1616	4748.85	3930.75
823.6345	594.2922	4737.95	3920.45
823.779	596.4222	4715.75	3896.2
823.9235	598.5515	4668.4	3850.05
824.068	600.6802	4631.2	3812.1
824.2126	602.8083	4580.1	3762.8
824.3571	604.9358	4567.4	3746.15
824.5017	607.0626	4556.9	3737.4
824.6462	609.1888	4569.2	3746.85
824.7908	611.3144	4578.8	3756.55
824.9354	613.4393	4596.3	3773.2
825.08	615.5636	4636.7	3814.75
825.2246	617.6873	4663.05	3840.85
825.3692	619.8103	4705.4	3882.1
825.5138	621.9327	4698.85	3872.2
825.6584	624.0544	4673.75	3851.8
825.803	626.1756	4628.95	3808.6
825.9477	628.2961	4583.2	3757.85
826.0923	630.4159	4551.6	3727.95
826.237	632.5351	4559.35	3734.5
826.3816	634.6537	4545.95	3719.1
826.5263	636.7716	4529.05	3701.1
826.6709	638.8889	4534.2	3707.45
826.8156	641.0056	4564.8	3738.75
826.9603	643.1216	4552.3	3725.4
827.105	645.237	4566.15	3736.4
827.2497	647.3518	4543.05	3716.5
827.3944	649.4659	4529.15	3701.45
827.5391	651.5793	4520.6	3690.65
827.6838	653.6922	4493.5	3666.65
827.8285	655.8043	4483	3653.1
827.9733	657.9159	4467.05	3635.75
828.118	660.0268	4443.1	3609.65
828.2627	662.137	4441.45	3610.2
828.4075	664.2466	4450.5	3619.1
828.5522	666.3556	4441.8	3609.2
828.697	668.4639	4442.85	3609.25
828.8418	670.5716	4425.15	3594.2
828.9865	672.6786	4428.2	3593.45
829.1313	674.785	4413	3576.4
829.2761	676.8907	4408.35	3572.75
829.4209	678.9958	4412.25	3577.75
829.5657	681.1002	4407.4	3573.3
829.7105	683.204	4409.2	3570.2
829.8553	685.3072	4395.6	3560.7
830.0001	687.4097	4383.4	3545.35
830.1449	689.5115	4397.2	3558.4
830.2898	691.6127	4394	3557.75
830.4346	693.7132	4391.65	3552.55
830.5794	695.8131	4399.4	3544.05
830.7243	697.9123	4407.45	3567.85
830.8691	700.0109	4387.5	3549.3
831.014	702.1089	4400.05	3561.75
831.1588	704.2061	4406.55	3569.35
831.3037	706.3028	4419.05	3578.15
831.4486	708.3987	4438.25	3596.6
831.5935	710.4941	4435.45	3595.65
831.7383	712.5887	4444.45	3603.7
831.8832	714.6827	4450.1	3605.15
832.0281	716.7761	4430.65	3590.75
832.173	718.8688	4455.5	3613.95
832.3179	720.9608	4433.2	3588
832.4628	723.0522	4448.8	3604.05
832.6077	725.1429	4441.55	3599.85
832.7527	727.233	4472.75	3629.9
832.8976	729.3224	4515.55	3672.55
833.0425	731.4112	4559.85	3716
833.1874	733.4993	4575.35	3730.9
833.3324	735.5867	4538.3	3691.25
833.4773	737.6735	4490.2	3645.35
833.6222	739.7596	4443.1	3596.85
833.7672	741.845	4415.45	3570.7
833.9122	743.9298	4412.6	3565
834.0571	746.014	4432.6	3587.1
834.2021	748.0974	4436.85	3588.85
834.347	750.1802	4438.4	3591.9
834.492	752.2624	4412.75	3566.35
834.637	754.3439	4389.5	3540.45
834.782	756.4247	4390.9	3534.6
834.9269	758.5048	4355.4	3508.55
835.0719	760.5843	4340.7	3493.7
835.2169	762.6631	4351.95	3502.65
835.3619	764.7413	4381.6	3536.15
835.5069	766.8188	4434.6	3584.8
835.6519	768.8956	4481.7	3631.8
835.7969	770.9718	4528.1	3678.65
835.9419	773.0473	4515.5	3665
836.0869	775.1221	4484.1	3633.75
836.232	777.1962	4461.4	3610.8
836.377	779.2697	4496.95	3646.9
836.522	781.3426	4567.95	3697.35
836.667	783.4147	4631.4	3778.55
836.8121	785.4862	4618.05	3768.75
836.9571	787.557	4548.1	3697.2
837.1021	789.6271	4465.6	3614.6
837.2472	791.6966	4355.15	3504.85
837.3922	793.7654	4277.6	3423.4
837.5373	795.8335	4243.4	3391.15
837.6823	797.901	4199.45	3348.05
837.8274	799.9678	4204.4	3348.8
837.9724	802.0339	4182.85	3329.85
838.1175	804.0993	4173.65	3311.7
838.2626	806.1641	4154.9	3300.05
838.4076	808.2282	4139.4	3286.55
838.5527	810.2916	4117.2	3260.55
838.6978	812.3544	4105.7	3254.6
838.8428	814.4164	4103.55	3251.1
838.9879	816.4778	4105.9	3252.5
839.133	818.5385	4118.15	3265.4
839.2781	820.5986	4125.7	3271.8
839.4232	822.658	4166.6	3310.85
839.5682	824.7166	4206.55	3353.1
839.7133	826.7747	4284.55	3428.3
839.8584	828.832	4330.8	3476.7
840.0035	830.8886	4354.85	3496.3
840.1486	832.9446	4373	3515.65
840.2937	834.9999	4340.3	3483.85
840.4388	837.0545	4291.15	3431.6
840.5839	839.1085	4221.65	3364.5
840.729	841.1618	4163.45	3304.1
840.8741	843.2143	4114.85	3257.3
841.0192	845.2662	4080.8	3225.3
841.1643	847.3175	4086.5	3229.4
841.3095	849.368	4057.25	3199.5
841.4546	851.4179	4048.1	3189.9
841.5997	853.467	4037.6	3180.65
841.7448	855.5155	4039.05	3179.95
841.8899	857.5633	4033.65	3174.7
842.0351	859.6105	4031.45	3172.95
842.1802	861.6569	4002.7	3144.6
842.3253	863.7027	3989.4	3127.15
842.4704	865.7478	3982.9	3121.65
842.6156	867.7922	3969.3	3111.4
842.7607	869.8359	3958.55	3098.7
842.9058	871.8789	3963.3	3103.25
843.0509	873.9212	3975.3	3084.05
843.1961	875.9629	3936.2	3077.25
843.3412	878.0039	3951.15	3088.8
843.4863	880.0441	3954.35	3094.25
843.6315	882.0837	3970.1	3109.2
843.7766	884.1226	3957.2	3094.7
843.9218	886.1609	3987	3127.55
844.0669	888.1984	4035.15	3175.45
844.212	890.2352	4063.65	3204.85
844.3572	892.2714	4082	3216.2
844.5023	894.3069	4045.25	3184.15
844.6475	896.3416	4004.2	3140.4
844.7926	898.3757	3971.35	3109.8
844.9377	900.4091	3939.1	3077.2
845.0829	902.4418	3941.8	3072.7
845.228	904.4739	3937.5	3071.4
845.3732	906.5052	3937.65	3076.4
845.5183	908.5358	3958.7	3096.55
845.6635	910.5658	3944.75	3080
845.8086	912.595	3922.2	3058.4
845.9538	914.6236	3868.85	3005.55
846.0989	916.6515	3833.6	2971.15
846.2441	918.6786	3804.05	2937.65
846.3892	920.7051	3806.85	2940.55
846.5344	922.7309	3805.75	2942.4
846.6795	924.756	3785.1	2921.1
846.8246	926.7804	3783.8	2918.35
846.9698	928.8041	3770.85	2904.75
847.1149	930.8272	3794.45	2930.9
847.2601	932.8495	3778.65	2912.2
847.4052	934.8711	3792.2	2927
847.5504	936.892	3788.05	2923.3
847.6955	938.9123	3791.2	2923.45
847.8407	940.9318	3789.55	2924.65
847.9858	942.9506	3794.85	2926.8
848.131	944.9688	3787.7	2921.25
848.2761	946.9862	3782	2915.35
848.4213	949.003	3734.45	2865.75
848.5664	951.019	3706.5	2839.1
848.7115	953.0344	3691.7	2823.85
848.8567	955.0491	3678.7	2810.35
849.0018	957.063	3660.05	2792.75
849.147	959.0763	3676.65	2802.25
849.2921	961.0888	3648.65	2779.25
849.4373	963.1007	3642.15	2774.4
849.5824	965.1119	3644	2777
849.7275	967.1223	3631.05	2763.55
849.8727	969.1321	3621.55	2753.2
850.0178	971.1412	3613.75	2748.65
850.1629	973.1495	3590.6	2723.4
850.3081	975.1572	3592.75	2705.85
850.4532	977.1641	3583.4	2716
850.5983	979.1704	3573.5	2706.55
850.7435	981.1759	3571.25	2702.2
850.8886	983.1808	3559.6	2688.05
851.0337	985.1849	3547.4	2666.75
851.1788	987.1884	3536.05	2663.5
851.324	989.1911	3533.45	2660.8
851.4691	991.1932	3541.05	2671.65
851.6142	993.1945	3516.65	2646.05
851.7593	995.1951	3503.4	2632.85
851.9045	997.1951	3500.15	2624.1
852.0496	999.1943	3491.35	2624
852.1947	1001.1928	3488.6	2617.1
852.3398	1003.1906	3479.2	2607.15
852.4849	1005.1877	3492	2621.2
852.63	1007.1841	3500.05	2627.8
852.7751	1009.1798	3490.75	2620.5
852.9202	1011.1748	3484.5	2613.55
853.0653	1013.1691	3464.95	2592.4
853.2104	1015.1627	3440.8	2569.55
853.3555	1017.1556	3403.45	2532.1
853.5006	1019.1477	3379.4	2507.95
853.6457	1021.1392	3352.3	2481.3
853.7908	1023.1299	3334	2463.6
853.9359	1025.12	3315.25	2442.65
854.081	1027.1093	3316.3	2448.1
854.2261	1029.0979	3320.8	2452.45
854.3712	1031.0859	3332.65	2462.2
854.5163	1033.0731	3333.4	2461.55
854.6613	1035.0596	3324.05	2452.7
854.8064	1037.0454	3304.45	2433.25
854.9515	1039.0304	3292	2419
855.0965	1041.0148	3262.2	2389.65
855.2416	1042.9985	3248.8	2375.7
855.3867	1044.9814	3235.2	2363.05
855.5317	1046.9636	3214.25	2339.85
855.6768	1048.9452	3217.45	2345.65
855.8219	1050.926	3226.75	2355.75
855.9669	1052.9061	3216.55	2345.65
856.112	1054.8855	3226.9	2354.4
856.257	1056.8642	3229.15	2356
856.4021	1058.8421	3228.65	2349.45
856.5471	1060.8194	3209	2335.7
856.6921	1062.7959	3201.3	2328.25
856.8372	1064.7717	3195.3	2318.75
856.9822	1066.7469	3178.85	2302.95
857.1272	1068.7213	3178.15	2300.5
857.2723	1070.695	3186.55	2313.7
857.4173	1072.6679	3186.85	2311.9
857.5623	1074.6402	3197.7	2323.2
857.7073	1076.6117	3213.65	2335.7
857.8523	1078.5826	3194.8	2319.3
857.9973	1080.5527	3161.5	2285.1
858.1423	1082.5221	3116.95	2241.65
858.2873	1084.4908	3097.45	2222.2
858.4323	1086.4587	3080.5	2207.2
858.5773	1088.426	3069.25	2193.25
858.7223	1090.3925	3060.45	2181.75
858.8673	1092.3584	3054.9	2180.3
859.0123	1094.3235	3053.5	2178.35
859.1573	1096.2879	3063.7	2188.15
859.3022	1098.2515	3064.9	2190.75
859.4472	1100.2145	3090.15	2213.75
859.5922	1102.1767	3088.1	2211.3
859.7371	1104.1382	3124.6	2247.25
859.8821	1106.099	3161.45	2285.9
860.027	1108.0591	3182.1	2307.25
860.172	1110.0185	3217.3	2341.8
860.3169	1111.9771	3235.2	2360.6
860.4619	1113.9351	3261.95	2385.85
860.6068	1115.8923	3300.35	2425.35
860.7517	1117.8488	3332.25	2453.8
860.8967	1119.8045	3300	2422.4
861.0416	1121.7596	3224.05	2346.95
861.1865	1123.7139	3133	2258.35
861.3314	1125.6675	3081.8	2207.6
861.4763	1127.6204	3084.3	2210.25
861.6212	1129.5726	3074.8	2195.6
861.7661	1131.524	3075.6	2199.8
861.911	1133.4748	3047.05	2168.75
862.0559	1135.4248	2993	2114.45
862.2008	1137.3741	2952.1	2075.1
862.3457	1139.3226	2920.15	2039.75
862.4905	1141.2705	2918.55	2040.95
862.6354	1143.2176	2907.4	2023
862.7803	1145.164	2917.15	2038.85
862.9251	1147.1097	2903.9	2028.45
863.07	1149.0546	2905.4	2028.1
863.2148	1150.9989	2880.45	2001.75
863.3597	1152.9424	2863.25	1987.1
863.5045	1154.8852	2841.35	1964.65
863.6493	1156.8272	2824.75	1947.4
863.7942	1158.7686	2842.3	1959.15
863.939	1160.7092	2814.85	1936.8
864.0838	1162.6491	2813.85	1933.1
864.2286	1164.5883	2819.5	1942.9
864.3734	1166.5267	2823.2	1943.4
864.5182	1168.4644	2833.5	1955.55
864.663	1170.4014	2857.9	1976.05
864.8078	1172.3377	2890.85	2014.8
864.9526	1174.2732	2908.4	2030.35
865.0974	1176.2081	2960.35	2083.4
865.2421	1178.1421	3055.85	2173.75
865.3869	1180.0755	3143.55	2267.25
865.5317	1182.0082	3198.3	2319.7
865.6764	1183.9401	3206.35	2326.55
865.8212	1185.8713	3133.65	2258.15
865.9659	1187.8017	3028.1	2150.05
866.1106	1189.7315	2928.45	2051.45
866.2554	1191.6605	2867.65	1988.15
866.4001	1193.5888	2819.4	1940.15
866.5448	1195.5163	2791	1913.2
866.6895	1197.4432	2757.6	1874.85
866.8342	1199.3693	2747.15	1869.4
866.9789	1201.2947	2729.75	1847.65
867.1236	1203.2193	2701.05	1821.4
867.2683	1205.1432	2709.15	1830.7
867.413	1207.0664	2691.45	1810.05
867.5576	1208.9889	2685.35	1803.15
867.7023	1210.9106	2693.55	1814.65
867.847	1212.8316	2674.35	1795.4
867.9916	1214.7519	2678.95	1789.9
868.1363	1216.6715	2667.15	1787.95
868.2809	1218.5903	2687.7	1810.8
868.4255	1220.5084	2678.7	1799.9
868.5701	1222.4257	2692.4	1811.75
868.7148	1224.3424	2688.65	1807.45
868.8594	1226.2583	2699.9	1817.2
869.004	1228.1735	2722.4	1841.5
869.1486	1230.0879	2740.75	1861.15
869.2932	1232.0016	2774	1895.35
869.4377	1233.9146	2795.5	1913.7
869.5823	1235.8269	2788.15	1909.5
869.7269	1237.7384	2796.35	1916.55
869.8715	1239.6492	2789.65	1909.1
870.016	1241.5592	2782.25	1901.25
870.1606	1243.4686	2813.3	1932.6
870.3051	1245.3772	2871.75	1992.15
870.4496	1247.285	2934.65	2052.9
870.5941	1249.1922	2977	2096.4
870.7387	1251.0986	3044.05	2163.95
870.8832	1253.0042	3081.2	2200.65
871.0277	1254.9092	3142.1	2262.7
871.1722	1256.8134	3227.9	2348.1
871.3167	1258.7169	3293.55	2411.7
871.4611	1260.6196	3338.8	2458
871.6056	1262.5216	3376.3	2491.45
871.7501	1264.4229	3366.65	2486.2
871.8945	1266.3234	3339.25	2457.85
872.039	1268.2232	3296.6	2414.85
872.1834	1270.1223	3239.85	2358.15
872.3278	1272.0207	3185.95	2304
872.4723	1273.9183	3181.5	2295.1
872.6167	1275.8151	3172.4	2292.85
872.7611	1277.7113	3190.55	2308.75
872.9055	1279.6067	3247.1	2365.3
873.0499	1281.5014	3350.55	2466.05
873.1943	1283.3953	3498.15	2617.25
873.3386	1285.2885	3655.45	2774.05
873.483	1287.181	3775.5	2890.8
873.6274	1289.0727	3836.2	2955.45
873.7717	1290.9637	3799.7	2917.75
873.9161	1292.854	3722.05	2840.9
874.0604	1294.7435	3604.5	2721.7
874.2047	1296.6323	3505.2	2624
874.349	1298.5204	3401.5	2517.15
874.4933	1300.4077	3329.6	2448.05
874.6376	1302.2943	3282.3	2400.6
874.7819	1304.1802	3255.6	2374.05
874.9262	1306.0653	3224.75	2340.25
875.0705	1307.9497	3195.35	2314.5
875.2147	1309.8333	3175.25	2291.2
875.359	1311.7162	3156.5	2273.65
875.5032	1313.5984	3136.2	2250.05
875.6475	1315.4798	3115.45	2221
875.7917	1317.3605	3098.9	2209.6
875.9359	1319.2405	3104.45	2220.7
876.0801	1321.1197	3101.5	2217.45
876.2243	1322.9982	3076.6	2188.6
876.3685	1324.876	3032.55	2150.3
876.5127	1326.753	2965.85	2083.25
876.6569	1328.6293	2891.25	2007.05
876.801	1330.5048	2821.15	1936.45
876.9452	1332.3796	2736.15	1854.45
877.0893	1334.2537	2702.5	1795.05
877.2335	1336.127	2652.05	1770.8
877.3776	1337.9996	2610.5	1728.05
877.5217	1339.8714	2594.1	1712.15
877.6658	1341.7426	2609.05	1682.15
877.8099	1343.6129	2558.95	1674.15
877.954	1345.4826	2530.45	1648.2
878.0981	1347.3515	2526.95	1640.35
878.2422	1349.2196	2518.25	1633.5
878.3862	1351.087	2495.4	1612
878.5303	1352.9537	2491.1	1609.05
878.6743	1354.8197	2495.45	1612.85
878.8184	1356.6849	2507.9	1624.5
878.9624	1358.5493	2514.3	1630.85
879.1064	1360.4131	2523.95	1641.5
879.2504	1362.276	2544.7	1661.45
879.3944	1364.1383	2578.5	1695.05
879.5384	1365.9998	2573.45	1684.7
879.6823	1367.8606	2570.95	1685.8
879.8263	1369.7206	2558.4	1673.95
879.9702	1371.5799	2562.4	1677.65
880.1142	1373.4384	2565.4	1682.4
880.2581	1375.2962	2534.8	1651.7
880.402	1377.1533	2500.7	1618.95
880.5459	1379.0096	2457.8	1575.5
880.6898	1380.8652	2426.9	1544.6
880.8337	1382.7201	2397.45	1516.55
880.9776	1384.5742	2374.05	1489
881.1215	1386.4275	2338.3	1455.15
881.2653	1388.2802	2327.55	1444.7
881.4092	1390.132	2312.4	1427.5
881.553	1391.9832	2303.05	1419
881.6968	1393.8336	2282.35	1399.6
881.8406	1395.6832	2278.5	1390.65
881.9844	1397.5322	2274	1389.05
882.1282	1399.3803	2267.2	1377.45
882.272	1401.2278	2255.65	1372.35
882.4158	1403.0745	2239.9	1358.35
882.5595	1404.9204	2222.8	1339.9
882.7033	1406.7656	2223.75	1341.5
882.847	1408.6101	2209.8	1326.35
882.9908	1410.4538	2202.35	1316.95
883.1345	1412.2968	2195.2	1311.25
883.2782	1414.139	2197.9	1314.25
883.4219	1415.9805	2206.35	1322.4
883.5656	1417.8213	2225.5	1321.6
883.7092	1419.6613	2218.45	1335.5
883.8529	1421.5006	2226.65	1341.8
883.9965	1423.3391	2264.9	1380.4
884.1402	1425.1769	2285.9	1400.15
884.2838	1427.0139	2348.2	1465.15
884.4274	1428.8502	2418.9	1532.65
884.571	1430.6858	2460	1576.95
884.7146	1432.5206	2483.6	1598.45
884.8582	1434.3547	2478.25	1595.45
885.0018	1436.188	2467.05	1582.8
885.1453	1438.0206	2447.6	1562.15
885.2889	1439.8524	2425.55	1541.95
885.4324	1441.6835	2439.4	1554.95
885.5759	1443.5139	2419.3	1530.7
885.7194	1445.3435	2433.05	1549
885.8629	1447.1724	2437	1555.35
886.0064	1449.0005	2437.05	1551.85
886.1499	1450.8279	2413.4	1527.95
886.2933	1452.6545	2408.75	1523.7
886.4368	1454.4804	2412.5	1529.7
886.5802	1456.3056	2411.8	1522.3
886.7237	1458.13	2389.5	1505
886.8671	1459.9536	2365.8	1480.8
887.0105	1461.7766	2342.25	1458.8
887.1539	1463.5987	2309.15	1423.65
887.2972	1465.4202	2273.85	1388.1
887.4406	1467.2409	2241.05	1355.55
887.584	1469.0608	2213.65	1329.9
887.7273	1470.88	2194.45	1309.75
887.8706	1472.6984	2170.35	1287.65
888.0139	1474.5161	2146.8	1258.3
888.1572	1476.3331	2124.7	1240.2
888.3005	1478.1493	2117.95	1234
888.4438	1479.9648	2113.05	1228.45
888.5871	1481.7795	2101.95	1218.85
888.7303	1483.5935	2112.35	1226.8
888.8736	1485.4067	2107.75	1221.6
889.0168	1487.2192	2098.1	1213.55
889.16	1489.031	2110.25	1222.1
889.3032	1490.842	2103.2	1218.1
889.4464	1492.6522	2098.3	1214.9
889.5896	1494.4618	2093.8	1205.35
889.7327	1496.2705	2098.05	1214
889.8759	1498.0785	2078.9	1194.2
890.019	1499.8858	2082.8	1197.85
890.1622	1501.6924	2074.2	1188.5
890.3053	1503.4981	2065.05	1181.4
890.4484	1505.3032	2053.4	1167.6
890.5914	1507.1075	2057.05	1172.35
890.7345	1508.911	2047.45	1162.25
890.8776	1510.7138	2042.95	1157.95
891.0206	1512.5159	2033.45	1149.4
891.1637	1514.3172	2028.95	1142.6
891.3067	1516.1178	2011.3	1127.65
891.4497	1517.9176	2001.05	1112.55
891.5927	1519.7166	1995.6	1111.3
891.7357	1521.515	1999.15	1109.2
891.8786	1523.3126	1994.65	1109.9
892.0216	1525.1094	1991.25	1104.45
892.1645	1526.9055	1969.55	1086.2
892.3074	1528.7008	1966.15	1081.3
892.4503	1530.4954	1943.75	1057.2
892.5932	1532.2893	1955.8	1072.35
892.7361	1534.0824	1958.95	1070.55
892.879	1535.8747	1943.9	1060.35
893.0218	1537.6663	1934.15	1050.45
893.1647	1539.4572	1933.85	1047.6
893.3075	1541.2473	1934.4	1048.65
893.4503	1543.0367	1921.1	1036.15
893.5931	1544.8253	1927.35	1037.1
893.7359	1546.6132	1935.45	1046.9
893.8787	1548.4003	1937.7	1042.6
894.0214	1550.1867	1938.3	1046.85
894.1642	1551.9723	1943.95	1054
894.3069	1553.7572	1944.5	1059.75
894.4496	1555.5414	1946.15	1062.05
894.5923	1557.3247	1968.6	1084.2
894.735	1559.1074	1979.35	1094.35
894.8777	1560.8893	2009.4	1126.5
895.0204	1562.6705	2059.95	1172.9
895.163	1564.4509	2078.3	1192.85
895.3056	1566.2305	2077.55	1194.35
895.4482	1568.0094	2089.85	1206.2
895.5908	1569.7876	2088.3	1204.4
895.7334	1571.565	2087.85	1202.3
895.876	1573.3417	2081.45	1197.9
896.0186	1575.1176	2086.15	1202
896.1611	1576.8928	2088.95	1203.3
896.3036	1578.6672	2106.6	1222.9
896.4461	1580.4409	2118.9	1234.2
896.5886	1582.2138	2148.5	1261.65
896.7311	1583.986	2176.75	1291.65
896.8736	1585.7575	2210.7	1329.05
897.0161	1587.5282	2240.3	1358.85
897.1585	1589.2981	2271.2	1386.05
897.3009	1591.0673	2279.1	1394.5
897.4433	1592.8358	2280.6	1397.3
897.5857	1594.6035	2282.65	1396.05
897.7281	1596.3704	2260.25	1376.25
897.8705	1598.1366	2232.45	1348.4
898.0128	1599.9021	2215.15	1330.3
898.1551	1601.6668	2198.95	1312.85
898.2975	1603.4308	2178.45	1292
898.4398	1605.194	2162.45	1273.45
898.5821	1606.9564	2170.35	1285.85
898.7243	1608.7182	2221.75	1332.65
898.8666	1610.4791	2283.1	1399.5
899.0088	1612.2394	2362.7	1478.4
899.1511	1613.9988	2451.7	1567.8
899.2933	1615.7576	2528.05	1642.55
899.4355	1617.5156	2573.55	1683.75
899.5776	1619.2728	2572.7	1687.5
899.7198	1621.0293	2498.25	1614
899.862	1622.785	2397.65	1512.6
900.0041	1624.54	2287.95	1402.05
900.1462	1626.2942	2197.25	1310.9
900.2883	1628.0477	2094.65	1208.35
900.4304	1629.8005	2021.8	1133.9
900.5725	1631.5525	1957.5	1073.1
900.7145	1633.3037	1909.05	1023.15
900.8566	1635.0542	1867.95	983.15
900.9986	1636.804	1837.6	952.65
901.1406	1638.553	1853.1	918.65
901.2826	1640.3013	1788.6	905.4
901.4245	1642.0488	1777.7	889.9
901.5665	1643.7955	1754.35	871
901.7085	1645.5416	1745.65	861.15
901.8504	1647.2868	1734.4	850
901.9923	1649.0313	1723.6	839.95
902.1342	1650.7751	1727.05	838.85
902.2761	1652.5181	1717.25	833.25
902.4179	1654.2604	1706.95	821.5
902.5598	1656.0019	1709.2	825
902.7016	1657.7427	1714	830.5
902.8434	1659.4828	1731.1	848.35
902.9852	1661.222	1753.4	868.2
903.127	1662.9606	1781.4	898.35
903.2687	1664.6984	1809	923.5
903.4105	1666.4354	1817.15	931.55
903.5522	1668.1717	1816.35	932.35
903.6939	1669.9072	1779.65	895.4
903.8356	1671.642	1739.15	851.6
903.9773	1673.3761	1698.1	814.45
904.119	1675.1094	1670.05	785.85
904.2606	1676.8419	1655.35	770.25
904.4022	1678.5737	1637.55	751.95
904.5439	1680.3048	1628.8	742.35
904.6855	1682.0351	1623.35	738.05
904.827	1683.7646	1607.05	719.1
904.9686	1685.4934	1596.9	713.4
905.1101	1687.2215	1593.75	708.45
905.2517	1688.9488	1587.3	704.25
905.3932	1690.6754	1579.05	694.1
905.5347	1692.4012	1582.1	697.3
905.6761	1694.1263	1577.35	692.9
905.8176	1695.8506	1569.15	683.95
905.9591	1697.5742	1569.15	687
906.1005	1699.297	1571.4	686.95
906.2419	1701.0191	1559.1	674.3
906.3833	1702.7404	1554.85	671.15
906.5246	1704.461	1556.25	668.55
906.666	1706.1808	1544.05	659.65
906.8073	1707.8999	1542.4	657.55
906.9487	1709.6182	1537.05	651.7
907.09	1711.3358	1537.3	652.25
907.2313	1713.0527	1533.65	649.95
907.3725	1714.7688	1529	638.55
907.5138	1716.4841	1533.65	646.05
907.655	1718.1987	1522.3	633.8
907.7962	1719.9126	1520.3	636.4
907.9374	1721.6257	1526.1	638.8
908.0786	1723.338	1523.5	640.6
908.2198	1725.0496	1515.6	630
908.3609	1726.7605	1519.05	632.25
908.502	1728.4706	1509	621.5
908.6431	1730.18	1509.3	622.45
908.7842	1731.8886	1504.9	619.3
908.9253	1733.5964	1510.7	620.15
909.0664	1735.3036	1510.05	622
909.2074	1737.0099	1504	618.7
909.3484	1738.7156	1502.25	618.1
909.4894	1740.4204	1498.15	610.65
909.6304	1742.1246	1504.25	617.9
909.7714	1743.8279	1491.95	607.3
909.9123	1745.5306	1498.4	612.3
910.0532	1747.2325	1494.8	609.4
910.1941	1748.9336	1488.15	602.2
910.335	1750.634	1490.2	602.45
910.4759	1752.3336	1489.3	605.35
910.6168	1754.0325	1486.1	602.35
910.7576	1755.7307	1478.8	594.9
910.8984	1757.4281	1486.55	602.55
911.0392	1759.1247	1495.3	600.35
911.18	1760.8206	1486.95	596.15
911.3208	1762.5158	1489.55	601.75
911.4615	1764.2102	1476.75	591.2
911.6022	1765.9039	1474.05	591.45
911.7429	1767.5968	1468.25	583.55
911.8836	1769.289	1471.6	586.35
912.0243	1770.9804	1476.05	588.8
912.1649	1772.6711	1468.55	583.75
912.3056	1774.361	1465.4	577.75
912.4462	1776.0502	1466.85	581.9
912.5868	1777.7386	1466.7	577.25
912.7274	1779.4263	1466.9	581.35
912.8679	1781.1132	1462.25	575.75
913.0084	1782.7994	1455	569.65
913.149	1784.4849	1453.7	569.05
913.2895	1786.1696	1464.9	573.45
913.4299	1787.8535	1461.55	577.8
913.5704	1789.5367	1451.65	565.5
913.7108	1791.2192	1455.2	571.95
913.8513	1792.9009	1471.55	562.1
913.9917	1794.5818	1451.95	564.55
914.132	1796.2621	1446.85	562.8
914.2724	1797.9415	1442.6	557
914.4128	1799.6202	1442.95	558.95
914.5531	1801.2982	1438.3	552.5
914.6934	1802.9755	1439.55	552
914.8337	1804.6519	1433.45	548.9
914.9739	1806.3277	1438	553.9
915.1142	1808.0027	1424.7	541.6
915.2544	1809.6769	1438.7	553.75
915.3946	1811.3504	1427.05	541.4
915.5348	1813.0231	1428.15	542.35
915.675	1814.6951	1428.2	544.9
915.8151	1816.3664	1430.15	541.35
915.9553	1818.0369	1430.1	545
916.0954	1819.7067	1424.75	539.3
916.2355	1821.3757	1420.1	532.7
916.3755	1823.044	1424.4	538.2
916.5156	1824.7115	1413.2	527.2
916.6556	1826.3783	1418	533.75
916.7956	1828.0443	1413.35	529.6
916.9356	1829.7096	1419.9	535.35
917.0756	1831.3741	1419.25	530.15
917.2155	1833.0379	1411.4	526.45
917.3555	1834.701	1409.3	522.55
917.4954	1836.3633	1410.95	525.65
917.6353	1838.0248	1409.3	521.95
917.7751	1839.6856	1409.8	525.1
917.915	1841.3457	1408.65	524.05
918.0548	1843.005	1395.15	508.55
918.1946	1844.6636	1397.1	512.85
918.3344	1846.3214	1401.45	515.9
918.4742	1847.9785	1405	519.8
918.6139	1849.6349	1403.25	517.85
918.7537	1851.2904	1410.6	516.1
918.8934	1852.9453	1394.05	508.6
919.0331	1854.5994	1404.25	518.6
919.1727	1856.2528	1399.8	511.75
919.3124	1857.9054	1393.1	507.9
919.452	1859.5572	1391.15	507.65
919.5916	1861.2083	1389.05	502.6
919.7312	1862.8587	1391.9	505.75
919.8708	1864.5084	1386	498.35
920.0103	1866.1572	1384.25	499.5
920.1498	1867.8054	1387.2	503.1
920.2893	1869.4528	1387.35	502.15
920.4288	1871.0994	1386.7	502.5
920.5683	1872.7453	1382.35	496.55
920.7077	1874.3905	1389.45	498.15
920.8471	1876.0349	1377.85	491.7
920.9865	1877.6786	1385.15	497.3
921.1259	1879.3215	1371.6	486.85
921.2653	1880.9637	1376.45	490.65
921.4046	1882.6051	1376.1	491
921.5439	1884.2458	1377.05	488.1
921.6832	1885.8858	1373.9	489.6
921.8225	1887.525	1373.8	486.9
921.9617	1889.1634	1368.6	485.7
922.101	1890.8011	1369.7	483.45
922.2402	1892.4381	1368.9	485.3
922.3794	1894.0743	1368.05	484.55
922.5185	1895.7098	1366.55	481.1
922.6577	1897.3446	1364.35	475.95
922.7968	1898.9786	1371.85	480.25
922.9359	1900.6118	1367.6	483.05
923.075	1902.2443	1362.75	479.85
923.214	1903.8761	1356.9	471.7
923.3531	1905.5071	1353.65	465.75
923.4921	1907.1374	1358.4	473.2
923.6311	1908.7669	1356.25	471.25
923.77	1910.3957	1353.5	468
923.909	1912.0237	1347.95	464.3
924.0479	1913.651	1350.15	464.6
924.1868	1915.2776	1346.9	463.35
924.3257	1916.9034	1346.4	461.9
924.4646	1918.5285	1343.25	458.85
924.6034	1920.1528	1340.85	454.4
924.7422	1921.7764	1342.05	458.3
924.881	1923.3992	1337.35	451.5
925.0198	1925.0213	1340.45	454.1
925.1586	1926.6427	1337.15	452.4
925.2973	1928.2633	1400.1	444.75
925.436	1929.8832	1338.5	451.9
925.5747	1931.5023	1329	445.35
925.7134	1933.1207	1327.1	439.85
925.852	1934.7383	1332.15	446.3
925.9906	1936.3552	1323.1	437.25
926.1292	1937.9714	1328.7	443.95
926.2678	1939.5868	1327.4	441.1
926.4064	1941.2015	1318	433.15
926.5449	1942.8154	1313.25	427.6
926.6834	1944.4286	1317.15	431.45
926.8219	1946.041	1346.75	438.85
926.9604	1947.6528	1322.8	434.65
927.0988	1949.2637	1313.95	428.8
927.2372	1950.8739	1311.05	424.05
927.3756	1952.4834	1315.65	431
927.514	1954.0921	1317.75	431.25
927.6523	1955.7001	1318.55	428.95
927.7907	1957.3074	1309.75	424.75
927.929	1958.9139	1306.5	421.6
928.0673	1960.5197	1310.85	425
928.2055	1962.1247	1305.65	422.4
928.3438	1963.729	1302.6	418.75
928.482	1965.3325	1328.25	420.3
928.6202	1966.9353	1304.5	419.45
928.7584	1968.5374	1301.7	415.7
928.8965	1970.1387	1296.65	412.25
929.0346	1971.7393	1299.6	414.25
929.1727	1973.3392	1298.1	413.75
929.3108	1974.9383	1298.45	414.95
929.4489	1976.5366	1292.15	408
929.5869	1978.1342	1291.9	406.85
929.7249	1979.7311	1292.45	405.85
929.8629	1981.3273	1293.65	406.9
930.0009	1982.9227	1288.6	402.8
930.1388	1984.5173	1286.9	401.75
930.2767	1986.1112	1284.75	399.8
930.4146	1987.7044	1281.85	400.05
930.5525	1989.2968	1283.1	398
930.6904	1990.8885	1285.2	398.45
930.8282	1992.4795	1283	396.9
930.966	1994.0697	1282.65	399.25
931.1038	1995.6592	1282.1	398.05
931.2415	1997.2479	1276.4	392.4
931.3793	1998.8359	1279.35	394.7
931.517	2000.4232	1273.55	389.3
931.6547	2002.0097	1274.55	390.1
931.7923	2003.5955	1273.6	389.7
931.93	2005.1805	1275	387.8
932.0676	2006.7648	1276.45	390.95
932.2052	2008.3484	1272.9	386.7
932.3427	2009.9312	1276.7	392.2
932.4803	2011.5133	1270.95	389.15
932.6178	2013.0946	1271.85	388.9
932.7553	2014.6752	1266.7	384.35
932.8928	2016.2551	1270.6	386.1
933.0302	2017.8342	1272.6	387.55
933.1676	2019.4126	1264.85	382.15
933.305	2020.9902	1259.7	374.4
933.4424	2022.5672	1265.6	382.75
933.5798	2024.1433	1271.45	380.75
933.7171	2025.7188	1255.5	372.05
933.8544	2027.2935	1260.85	374.8
933.9917	2028.8674	1257.75	374.7
934.129	2030.4406	1259.25	378
934.2662	2032.0131	1264.2	380.75
934.4034	2033.5849	1261.65	375.55
934.5406	2035.1559	1251.8	367.95
934.6778	2036.7261	1254.6	370.2
934.8149	2038.2957	1257.65	372.8
934.952	2039.8645	1254.75	371.5
935.0891	2041.4325	1264.6	377.05
935.2262	2042.9998	1253.15	370.55
935.3632	2044.5664	1258.9	373.1
935.5002	2046.1323	1247.95	364.05
935.6372	2047.6974	1246.75	363.7
935.7742	2049.2617	1252.7	368.55
935.9111	2050.8254	1256.25	367.7
936.048	2052.3883	1253.3	367.6
936.1849	2053.9504	1247.95	363.15
936.3218	2055.5118	1252.25	369.3
936.4586	2057.0725	1249.7	361.8
936.5955	2058.6325	1247.65	362.7
936.7323	2060.1917	1247.05	362.35
936.869	2061.7502	1245.65	358.95
937.0058	2063.3079	1244.45	362.65
937.1425	2064.8649	1245.2	356.2
937.2792	2066.4212	1241.7	357.05
937.4159	2067.9767	1240.65	356.9
937.5525	2069.5315	1239.55	355.5
937.6891	2071.0856	1236.1	352.15
937.8257	2072.6389	1237.7	351.6
937.9623	2074.1915	1233.75	351.7
938.0989	2075.7433	1239.35	354
938.2354	2077.2945	1232.7	350.15
938.3719	2078.8448	1234.4	351.6
938.5084	2080.3945	1230.85	345.8
938.6448	2081.9434	1240.85	358.2
938.7812	2083.4916	1233.6	349.1
938.9176	2085.039	1232.75	348.05
939.054	2086.5857	1230.7	345.1
939.1903	2088.1317	1231.2	347.35
939.3267	2089.677	1235.25	350.05
939.463	2091.2215	1230.1	344.8
939.5992	2092.7652	1232.35	346.75
939.7355	2094.3083	1228.85	343.75
939.8717	2095.8506	1231.6	348.7
940.0079	2097.3921	1223.7	341.45
940.1441	2098.933	1232.5	348.65
940.2802	2100.4731	1230.65	346.4
940.4163	2102.0124	1248.3	345.7
940.5524	2103.5511	1226.95	342.75
940.6885	2105.089	1229.45	345.2
940.8245	2106.6261	1224.25	340.65
940.9606	2108.1626	1226.6	341.1
941.0965	2109.6983	1259.9	347.75
941.2325	2111.2332	1223.9	337.1
941.3684	2112.7675	1222.5	335.75
941.5044	2114.301	1228.7	341.9
941.6403	2115.8337	1223.6	338.85
941.7761	2117.3657	1220.85	336.1
941.912	2118.897	1223.9	339.7
942.0478	2120.4276	1223.2	333.7
942.1835	2121.9575	1224.45	340.15
942.3193	2123.4866	1233.1	334.95
942.455	2125.0149	1218.35	332.75
942.5907	2126.5426	1210.95	326.05
942.7264	2128.0695	1220.55	332.45
942.8621	2129.5956	1213.5	329.95
942.9977	2131.1211	1222.2	331.5
943.1333	2132.6458	1213.65	329.7
943.2689	2134.1698	1211.05	325.45
943.4044	2135.693	1215.5	329.2
943.54	2137.2155	1217.9	332
943.6755	2138.7373	1212.65	328.35
943.8109	2140.2584	1208.6	325.65
943.9464	2141.7787	1217.3	328.05
944.0818	2143.2983	1210.15	327
944.2172	2144.8171	1207	325.55
944.3526	2146.3353	1207.7	322.95
944.4879	2147.8527	1209.3	326.6
944.6232	2149.3693	1203.6	318.4
944.7585	2150.8853	1212.6	324.7
944.8938	2152.4005	1203.6	319.15
945.029	2153.9149	1201.55	317.1
945.1642	2155.4287	1306.5	318.9
945.2994	2156.9417	1204.5	317.9
945.4346	2158.454	1205.1	319.4
945.5697	2159.9655	1197.35	315.2
945.7048	2161.4764	1201.7	317.15
945.8399	2162.9865	1200.45	315.65
945.9749	2164.4958	1198.7	313.05
946.1099	2166.0045	1200.1	310.45
946.2449	2167.5124	1197.05	313.2
946.3799	2169.0195	1201.4	316.5
946.5148	2170.526	1195.15	311.15
946.6498	2172.0317	1193.7	308.6
946.7846	2173.5367	1196.3	313
946.9195	2175.0409	1195.35	311.3
947.0543	2176.5445	1195.85	314.4
947.1891	2178.0473	1194.5	309.1
947.3239	2179.5494	1197.05	310.6
947.4587	2181.0507	1193.25	307.25
947.5934	2182.5513	1191.35	308.3
947.7281	2184.0512	1184.6	300.2
947.8628	2185.5504	1190.2	305.55
947.9974	2187.0488	1190.4	307.45
948.132	2188.5465	1186.8	302.1
948.2666	2190.0435	1188.4	303.15
948.4012	2191.5397	1182.05	299.3
948.5357	2193.0353	1181.45	296.15
948.6702	2194.5301	1182.2	296.75
948.8047	2196.0241	1184.75	300.9
948.9392	2197.5175	1181.75	298.5
949.0736	2199.0101	1185.05	296.45
949.208	2200.502	1178.25	295.65
949.3424	2201.9931	1177.8	294.1
949.4767	2203.4835	1177.7	291.75
949.611	2204.9733	1196.8	296.1
949.7453	2206.4622	1177.6	293.1
949.8796	2207.9505	1177.85	292.3
950.0138	2209.438	1175.25	291.85
950.148	2210.9248	1172.25	287.3
950.2822	2212.4109	1173.55	289.4
950.4164	2213.8962	1177	290.1
950.5505	2215.3809	1176.8	292.5
950.6846	2216.8648	1171.95	287.35
950.8186	2218.3479	1171.65	282.65
950.9527	2219.8304	1165.1	276.95
951.0867	2221.3121	1167.1	279.65
951.2207	2222.7931	1167.25	282.4
951.3546	2224.2733	1162.45	279
951.4886	2225.7529	1170.95	285.5
951.6225	2227.2317	1163.2	276.35
951.7563	2228.7098	1161.3	279.25
951.8902	2230.1872	1158.6	273.9
952.024	2231.6638	1159.05	273.7
952.1578	2233.1397	1167.3	279
952.2916	2234.6149	1161.35	276.8
952.4253	2236.0894	1156.3	272.8
952.559	2237.5632	1161.95	275.15
952.6927	2239.0362	1158.45	277.05
952.8263	2240.5085	1154.85	273.6
952.9599	2241.9801	1153.6	268.4
953.0935	2243.4509	1157.35	275.35
953.2271	2244.921	1148.3	264.4
953.3606	2246.3904	1151.5	264.4
953.4941	2247.8591	1149.65	264.8
953.6276	2249.3271	1151.15	266.3
953.7611	2250.7943	1152.5	267.95
953.8945	2252.2608	1147.8	264.7
954.0279	2253.7266	1150.4	265.45
954.1612	2255.1917	1149.5	266.2
954.2946	2256.656	1147.9	263.6
954.4279	2258.1197	1145.35	262.6
954.5612	2259.5826	1146.5	258.8
954.6944	2261.0447	1147.85	264.05
954.8276	2262.5062	1145.5	258.35
954.9608	2263.9669	1144.7	258.9
955.094	2265.4269	1144.05	259.3
955.2271	2266.8862	1144	261
955.3602	2268.3448	1147.55	263.35
955.4933	2269.8026	1145.55	260.6
955.6264	2271.2598	1140.85	256.35
955.7594	2272.7162	1138.4	255.75
955.8924	2274.1719	1135.75	253.4
956.0253	2275.6268	1144	260.1
956.1583	2277.0811	1137.6	252.85
956.2912	2278.5346	1138.55	255.1
956.4241	2279.9874	1133	250.25
956.5569	2281.4395	1136.95	250.95
956.6897	2282.8908	1143.8	254.35
956.8225	2284.3414	1135.1	249.3
956.9553	2285.7914	1134.7	253.35
957.088	2287.2406	1135.95	250.85
957.2207	2288.689	1130.7	247.75
957.3534	2290.1368	1131.2	246.3
957.486	2291.5838	1134.05	250.5
957.6186	2293.0302	1132.1	245.9
957.7512	2294.4758	1125.95	239.55
957.8838	2295.9206	1132.55	245.55
958.0163	2297.3648	1128.45	243.5
958.1488	2298.8082	1127.35	242.65
958.2813	2300.251	1126.35	241.5
958.4137	2301.693	1128.75	241.75
958.5461	2303.1343	1120.05	236.05
958.6785	2304.5748	1123.8	240.35
958.8108	2306.0147	1125.75	242.4
958.9432	2307.4538	1126.4	239.95
959.0754	2308.8922	1120.2	234.95
959.2077	2310.3299	1126.85	241.25
959.3399	2311.7669	1119.15	234.85
959.4721	2313.2031	1123.2	237.5
959.6043	2314.6387	1122.5	238.7
959.7365	2316.0735	1118.2	235.1
959.8686	2317.5076	1117	231.6
960.0006	2318.941	1122.4	238.55
960.1327	2320.3737	1117.85	232.65
960.2647	2321.8056	1122.4	235.95
960.3967	2323.2369	1119.45	234.55
960.5287	2324.6674	1122.4	236.9
960.6606	2326.0972	1122.35	235.45
960.7925	2327.5263	1120.5	236.65
960.9244	2328.9547	1125.4	240.1
961.0562	2330.3823	1118.05	233.3
961.1881	2331.8092	1118	230.1
961.3198	2333.2355	1113.1	227.8
961.4516	2334.661	1111.8	226.7
961.5833	2336.0858	1116.2	230.1
961.715	2337.5098	1112.8	227.55
961.8467	2338.9332	1114.8	230.05
961.9783	2340.3558	1114.4	225.2
962.1099	2341.7778	1108.45	225.8
962.2415	2343.199	1110.05	223.3
962.373	2344.6195	1108.95	223.55
962.5045	2346.0393	1107.25	222.75
962.636	2347.4583	1105.35	220.7
962.7675	2348.8767	1108.3	222.5
962.8989	2350.2943	1104.6	217.6
963.0303	2351.7113	1109.85	225.4
963.1617	2353.1275	1100.1	215.05
963.293	2354.543	1124.5	213.65
963.4243	2355.9578	1103.05	217.25
963.5556	2357.3718	1102.9	217.95
963.6868	2358.7852	1107.8	221.1
963.818	2360.1978	1097.1	211.45
963.9492	2361.6098	1091.45	205.55
964.0803	2363.021	1104.2	216.5
964.2114	2364.4315	1099.55	213.25
964.3425	2365.8413	1106.45	216.2
964.4736	2367.2504	1103.2	218.85
964.6046	2368.6587	1099.3	213.85
964.7356	2370.0664	1098.55	213.75
964.8666	2371.4733	1091.95	207.9
964.9975	2372.8795	1095.5	210.7
965.1284	2374.285	1092	208.35
965.2593	2375.6899	1090.05	206.6
965.3901	2377.0939	1091.8	207.4
965.5209	2378.4973	1089.15	206.3
965.6517	2379.9	1091.45	206.1
965.7825	2381.3019	1092.25	208.5
965.9132	2382.7032	1084.1	199.25
966.0439	2384.1037	1089.95	207.8
966.1745	2385.5035	1083.65	197.75
966.3051	2386.9027	1085.1	200.15
966.4357	2388.3011	1087.85	201.55
966.5663	2389.6987	1087.5	202.5
966.6968	2391.0957	1085.7	202.55
966.8273	2392.492	1085.45	200.45
966.9578	2393.8876	1083.4	198.6
967.0882	2395.2824	1082.3	199.4
967.2186	2396.6765	1078.65	193.6
967.349	2398.07	1080.8	196.5
967.4793	2399.4627	1084.85	198.2
967.6097	2400.8547	1081.65	195.75
967.7399	2402.246	1085.95	195.65
967.8702	2403.6366	1077.75	192.7
968.0004	2405.0265	1075.75	189.45
968.1306	2406.4156	1080.8	192.35
968.2607	2407.8041	1079.1	188.95
968.3909	2409.1918	1078	190.75
968.521	2410.5789	1074.5	189.65
968.651	2411.9652	1077.85	191.25
968.781	2413.3508	1076.4	192.25
968.911	2414.7358	1076.5	188.85
969.041	2416.12	1069.1	184.95
969.1709	2417.5035	1073.65	189.8
969.3008	2418.8863	1072.65	184.8
969.4307	2420.2684	1070.05	183.4
969.5606	2421.6497	1066.65	180.45
969.6904	2423.0304	1068.65	183.55
969.8201	2424.4104	1067.05	179.5
969.9499	2425.7896	1070.8	184.05
970.0796	2427.1682	1066.8	181.4
970.2093	2428.546	1069.85	182.15
970.3389	2429.9232	1067.75	181.95
970.4685	2431.2996	1062.15	176.75
970.5981	2432.6753	1062.8	178.45
970.7277	2434.0503	1067.9	184.95
970.8572	2435.4246	1061.8	177.9
970.9867	2436.7982	1063.85	176.9
971.1161	2438.1711	1059.4	175.4
971.2456	2439.5433	1063.35	176.85
971.375	2440.9148	1064.85	175.4
971.5043	2442.2856	1060.8	174.1
971.6336	2443.6557	1062.6	174.95
971.7629	2445.025	1056.85	171.6
971.8922	2446.3937	1059.4	172.1
972.0214	2447.7617	1059.55	174.15
972.1506	2449.1289	1057.3	171.95
972.2798	2450.4955	1062.4	173.2
972.4089	2451.8613	1055.7	171.2
972.538	2453.2265	1059.05	172.6
972.6671	2454.5909	1057.75	172.4
972.7961	2455.9546	1053.55	168.4
972.9251	2457.3177	1051.15	168.05
973.0541	2458.68	1054.55	167
973.1831	2460.0416	1056.25	170.85
973.312	2461.4025	1056.5	169.8
973.4408	2462.7627	1063.75	166.9
973.5697	2464.1222	1051.55	167.8
973.6985	2465.4811	1055.6	169.6
973.8273	2466.8392	1051.6	164.1
973.956	2468.1966	1050.45	163.6
974.0847	2469.5533	1052.1	165
974.2134	2470.9093	1049.9	163.8
974.3421	2472.2645	1049.8	165.4
974.4707	2473.6191	1043.15	157.2
974.5993	2474.973	1051.75	168.2
974.7278	2476.3262	1049	160.95
974.8563	2477.6787	1045.6	162.05
974.9848	2479.0305	1045	160.4
975.1132	2480.3816	1047	159.6
975.2417	2481.7319	1044	161.15
975.37	2483.0816	1049.65	163.5
975.4984	2484.4306	1042.4	156.45
975.6267	2485.7789	1046.2	161.2
975.755	2487.1264	1044.45	158.7
975.8833	2488.4733	1044.35	163.35
976.0115	2489.8195	1052.2	160.85
976.1397	2491.165	1048.05	161.3
976.2678	2492.5097	1044.75	157.55
976.3959	2493.8538	1041.2	157.35
976.524	2495.1972	1037.9	152.05
976.6521	2496.5398	1038.75	152.45
976.7801	2497.8818	1041.75	153.35
976.9081	2499.2231	1038.6	153.75
977.036	2500.5637	1039.85	151.75
977.164	2501.9035	1041.5	156.05
977.2918	2503.2427	1041.8	154
977.4197	2504.5812	1035.65	151.4
977.5475	2505.919	1038.65	150.35
977.6753	2507.256	1035.55	149.7
977.8031	2508.5924	1036.55	152.35
977.9308	2509.9281	1041.35	150.85
978.0585	2511.2631	1034.45	147.7
978.1861	2512.5974	1031.2	146.75
978.3137	2513.9309	1034.15	149.85
978.4413	2515.2638	1056.3	147.75
978.5689	2516.596	1032.55	149.05
978.6964	2517.9275	1032.45	145.3
978.8239	2519.2583	1031.55	144.75
978.9513	2520.5884	1035.4	147.55
979.0788	2521.9178	1033.9	149.75
979.2062	2523.2465	1029.95	145.2
979.3335	2524.5745	1029.55	145.5
979.4608	2525.9018	1027.9	141.8
979.5881	2527.2284	1024.35	141.55
979.7154	2528.5543	1024.95	140.95
979.8426	2529.8796	1026.2	140.95
979.9698	2531.2041	1029.95	145.45
980.0969	2532.5279	1024.45	141.25
980.224	2533.851	1027.4	143.05
980.3511	2535.1735	1028.4	144.65
980.4781	2536.4952	1028	144.4
980.6052	2537.8163	1025.55	138.15
980.7321	2539.1366	1023.05	140
980.8591	2540.4562	1024.2	138.2
980.986	2541.7752	1021.55	136.05
981.1129	2543.0935	1023.95	137.65
981.2397	2544.411	1021	135.6
981.3665	2545.7279	1020.9	136.5
981.4933	2547.0441	1019.75	135.25
981.62	2548.3596	1026.55	138.85
981.7467	2549.6744	1021.9	136.8
981.8734	2550.9885	1029	137.35
982.0001	2552.3019	1020.35	135.25
982.1267	2553.6146	1019.85	135.15
982.2532	2554.9266	1025.05	140.05
982.3798	2556.2379	1019.3	132.5
982.5063	2557.5485	1017.25	132.85
982.6327	2558.8585	1026.4	133.5
982.7592	2560.1677	1021.25	130.75
982.8856	2561.4762	1018.05	132.35
983.0119	2562.7841	1020.45	134
983.1383	2564.0913	1011.6	128.4
983.2646	2565.3977	1016.55	130.25
983.3908	2566.7035	1018.25	134.35
983.517	2568.0086	1017.75	130.4
983.6432	2569.313	1017.55	131.75
983.7694	2570.6167	1020.15	130.45
983.8955	2571.9197	1017.85	134.6
984.0216	2573.222	1022.2	133.5
984.1476	2574.5236	1012.85	127.35
984.2737	2575.8246	1017.2	129.9
984.3996	2577.1248	1022.3	134.85
984.5256	2578.4244	1013.65	130.75
984.6515	2579.7232	1013.7	128.85
984.7774	2581.0214	1041.7	125.9
984.9032	2582.3189	1015.35	132.25
985.029	2583.6157	1022.6	126
985.1548	2584.9118	1015.3	131.7
985.2806	2586.2072	1014.05	129.95
985.4063	2587.5019	1011.55	126.7
985.5319	2588.7959	1014.85	130.15
985.6576	2590.0893	1012.05	124.85
985.7832	2591.3819	1009.1	124.3
985.9087	2592.6739	1012.55	128.45
986.0343	2593.9652	1010.45	124.4
986.1597	2595.2557	1013.5	129.65
986.2852	2596.5456	1012.85	126.15
986.4106	2597.8348	1011	127.4
986.536	2599.1234	1004.55	120.65
986.6614	2600.4112	1006.1	122.25
986.7867	2601.6983	1014.05	125.3
986.912	2602.9848	1008.9	123.95
987.0372	2604.2705	1016.85	124.45
987.1624	2605.5556	1006.55	120.5
987.2876	2606.84	1006.45	121.5
987.4128	2608.1237	1008.95	124.2
987.5379	2609.4067	1006.45	120.15
987.6629	2610.689	1012.1	119.05
987.788	2611.9707	1008.8	123
987.913	2613.2516	1009.5	121.45
988.0379	2614.5319	1003.65	119.2
988.1629	2615.8115	1004.35	118.4
988.2878	2617.0903	1005.95	120.75
988.4126	2618.3685	1001.8	116.6
988.5375	2619.6461	1002.85	117.9
988.6622	2620.9229	1002	118.6
988.787	2622.199	1001.05	115
988.9117	2623.4745	999.25	114.95
989.0364	2624.7493	998.6	116.2
989.161	2626.0234	999.75	115.55
989.2857	2627.2968	999.5	113.7
989.4102	2628.5695	1000.2	113.55
989.5348	2629.8415	999.35	113.95
989.6593	2631.1128	1000.25	114.6
989.7837	2632.3835	999.6	114.3
989.9082	2633.6535	994	109.95
990.0326	2634.9228	995.65	109.9
990.1569	2636.1914	997.85	113.45
990.2812	2637.4593	1003.5	112.05
990.4055	2638.7265	995.85	110.9
990.5298	2639.9931	995.2	113.25
990.654	2641.259	996.9	111.35
990.7782	2642.5242	993.8	108.95
990.9023	2643.7887	993.6	109.3
991.0264	2645.0525	993.45	109.1
991.1505	2646.3156	1004.45	106.15
991.2745	2647.5781	989.95	104.75
991.3985	2648.8398	992.05	108.4
991.5225	2650.1009	999.35	107.35
991.6464	2651.3613	995.6	110.8
991.7703	2652.6211	989.2	105.6
991.8942	2653.8801	989.6	105.9
992.018	2655.1385	993	103.85
992.1418	2656.3961	990.95	104.9
992.2655	2657.6531	990.25	105.25
992.3892	2658.9094	990.2	105.2
992.5129	2660.1651	990.5	106.45
992.6366	2661.42	988.9	103.05
992.7602	2662.6743	990.55	104.6
992.8837	2663.9279	989	104.15
993.0073	2665.1808	988.9	101.95
993.1307	2666.433	989.75	104.25
993.2542	2667.6846	985.7	102.05
993.3776	2668.9354	995.75	108.85
993.501	2670.1856	989.55	104.35
993.6244	2671.4351	988.4	102.55
993.7477	2672.6839	991.4	104.5
993.8709	2673.9321	991.65	107.75
993.9942	2675.1795	987.3	102.2
994.1174	2676.4263	988.85	105.05
994.2405	2677.6724	988.45	105.45
994.3637	2678.9179	989.4	102.55
994.4868	2680.1626	987	104.8
994.6098	2681.4067	986.95	101.6
994.7328	2682.6501	984.65	98.8
994.8558	2683.8928	984.05	101.15
994.9788	2685.1348	984	101.2
995.1017	2686.3761	984	99.9
995.2245	2687.6168	982.3	96.5
995.3474	2688.8568	982.95	97.25
995.4702	2690.0961	979.35	97.25
995.5929	2691.3348	980.2	94.75
995.7156	2692.5727	984	98.65
995.8383	2693.81	984.9	100
995.961	2695.0466	977.65	93.35
996.0836	2696.2826	981.9	97.05
996.2062	2697.5178	981.7	95.1
996.3287	2698.7524	978	91.75
996.4512	2699.9863	981.9	94.2
996.5737	2701.2195	981	95.55
996.6961	2702.452	981.15	95.9
996.8185	2703.6839	980.65	96.3
996.9408	2704.9151	979.3	96.4
997.0631	2706.1456	979.3	94.6
997.1854	2707.3755	981.55	95.4
997.3077	2708.6046	983.95	95.45
997.4299	2709.8331	982.3	96.3
997.552	2711.0609	980.35	94.45
997.6742	2712.2881	981.4	97.7
997.7963	2713.5145	981.7	94.1
997.9183	2714.7403	983.4	99.9
998.0403	2715.9654	980.3	94.95
998.1623	2717.1899	994.9	93.7
998.2842	2718.4136	984.9	101.1
998.4062	2719.6367	981.25	97.15
998.528	2720.8591	988.4	97.45
998.6498	2722.0809	985.1	101.2
998.7716	2723.3019	985.4	98.35
998.8934	2724.5223	987.2	100.8
999.0151	2725.7421	980.8	94.75
999.1368	2726.9611	985.8	97.15
999.2584	2728.1795	985.4	96.4
999.38	2729.3972	980.8	96
999.5016	2730.6142	987.45	95
999.6231	2731.8306	978.9	93.45
999.7446	2733.0462	978.2	91.3
999.8661	2734.2612	981.6	93.25
999.9875	2735.4756	977.15	90.8
1000.1089	2736.6892	974.85	91.8
1000.2302	2737.9022	970.6	86.65
1000.3515	2739.1145	974	88.2
1000.4728	2740.3262	981.6	90
1000.594	2741.5372	970.65	86.4
1000.7152	2742.7475	972.35	87.2
1000.8363	2743.9571	974.75	90.2
1000.9575	2745.1661	974.55	86.5
1001.0785	2746.3744	969.85	85.95
1001.1996	2747.582	968	83.25
1001.3206	2748.7889	970.95	85.25
1001.4415	2749.9952	966.95	81.65
1001.5625	2751.2008	965.2	80.55
1001.6833	2752.4057	968.55	80.75
1001.8042	2753.61	969.7	84.95
1001.925	2754.8136	965.3	79.3
1002.0458	2756.0165	965.55	83.85
1002.1665	2757.2188	961.3	78.65
1002.2872	2758.4204	959.4	75.3
1002.4078	2759.6213	964.9	78.1
1002.5285	2760.8215	963.85	75.3
1002.649	2762.0211	968.05	81.25
1002.7696	2763.22	964.7	77.25
1002.8901	2764.4182	963.4	78.7
1003.0106	2765.6158	965.2	78.7
1003.131	2766.8127	962	78.65
1003.2514	2768.009	961.05	78
1003.3717	2769.2045	961.7	77.5
1003.492	2770.3994	961.6	77.35
1003.6123	2771.5936	962.1	75.95
1003.7325	2772.7872	962.55	78.6
1003.8527	2773.9801	961.85	74.85
1003.9729	2775.1723	972.65	69.5
1004.093	2776.3639	959.2	75.7
1004.2131	2777.5548	960.8	75.75
1004.3331	2778.745	959.7	74.25
1004.4531	2779.9346	956.75	70.35
1004.5731	2781.1235	961.15	76.85
1004.693	2782.3117	958.9	73.15
1004.8129	2783.4992	958.75	75.05
1004.9328	2784.6861	959.4	73
1005.0526	2785.8723	956.1	70.85
1005.1723	2787.0579	957.9	72
1005.2921	2788.2428	956.05	72.95
1005.4118	2789.427	954.45	70.6
1005.5314	2790.6106	955.35	71.05
1005.651	2791.7935	955.5	69.6
1005.7706	2792.9757	956.15	73.85
1005.8902	2794.1573	957.55	72.7
1006.0097	2795.3382	955.6	70.4
1006.1291	2796.5184	956.05	71.95
1006.2485	2797.698	958.05	71.95
1006.3679	2798.8769	958.7	74.05
1006.4873	2800.0551	954.95	68.4
1006.6066	2801.2327	962.15	75.75
1006.7258	2802.4096	956.9	73.2
1006.8451	2803.5859	952.65	70.05
1006.9642	2804.7615	955.9	70.65
1007.0834	2805.9364	955.45	71.65
1007.2025	2807.1106	956.55	72.05
1007.3216	2808.2842	962.85	77.15
1007.4406	2809.4572	959.8	76.8
1007.5596	2810.6294	960.4	76.05
1007.6785	2811.801	958.2	73.45
1007.7975	2812.972	963.75	79.9
1007.9163	2814.1423	963.45	80.3
1008.0352	2815.3119	964.2	79.85
1008.154	2816.4808	964.45	79.8
1008.2727	2817.6491	969	83.65
1008.3914	2818.8167	968.05	85.2
1008.5101	2819.9837	976.6	87
1008.6288	2821.15	979.95	95
1008.7474	2822.3157	978.95	95.3
1008.8659	2823.4807	988	103.15
1008.9844	2824.645	993.45	107.5
1009.1029	2825.8086	998.65	114.45
1009.2214	2826.9716	1007.05	124.05
1009.3398	2828.134	1015.3	130.5
1009.4581	2829.2957	1020.15	136.7
1009.5764	2830.4567	1022.6	140.1
1009.6947	2831.617	1026.65	140.05
1009.813	2832.7767	1029.2	145.3
1009.9312	2833.9358	1030.45	145.65
1010.0493	2835.0941	1032.35	147.65
1010.1675	2836.2519	1023.65	140.3
1010.2855	2837.4089	1022.1	136.15
1010.4036	2838.5653	1016.55	131.7
1010.5216	2839.7211	1013.15	132.5
1010.6396	2840.8761	1015.15	129.25
1010.7575	2842.0306	1014.65	131.3
1010.8754	2843.1843	1014.05	130.55
1010.9932	2844.3374	1014.2	130.25
1011.111	2845.4899	1017.9	132.2
1011.2288	2846.6417	1017.95	134.85
1011.3465	2847.7928	1019.9	136.9
1011.4642	2848.9433	1022.2	138.9
1011.5818	2850.0931	1018.6	135
1011.6995	2851.2422	1024.65	137.85
1011.817	2852.3907	1023.7	140.35
1011.9345	2853.5385	1021.7	136.6
1012.052	2854.6857	1030.55	139.45
1012.1695	2855.8323	1022.85	139.2
1012.2869	2856.9781	1026.3	141.25
1012.4042	2858.1233	1030.15	147.45
1012.5216	2859.2679	1028.55	144.35
1012.6389	2860.4118	1036.25	152.85
1012.7561	2861.555	1040.6	152.25
1012.8733	2862.6976	1047.15	160.55
1012.9905	2863.8395	1040.45	156.45
1013.1076	2864.9808	1043.3	159.95
1013.2247	2866.1214	1041.15	156.8
1013.3417	2867.2614	1046.85	161.75
1013.4587	2868.4007	1048.9	164.25
1013.5757	2869.5393	1051.85	164.15
1013.6926	2870.6773	1052.2	166.15
1013.8095	2871.8146	1058.85	170.9
1013.9263	2872.9513	1056.65	172.65
1014.0431	2874.0874	1052.4	167.95
1014.1599	2875.2227	1055.75	171.05
1014.2766	2876.3574	1058.85	175.6
1014.3933	2877.4915	1063.65	179.1
1014.51	2878.6249	1059	175.3
1014.6266	2879.7577	1060.75	175.95
1014.7431	2880.8898	1078.35	183.6
1014.8596	2882.0212	1065.75	182.05
1014.9761	2883.152	1067.25	182.2
1015.0925	2884.2821	1068.85	186
1015.2089	2885.4116	1072.35	188.75
1015.3253	2886.5405	1072.85	188.6
1015.4416	2887.6686	1076.65	188.2
1015.5579	2888.7962	1076.7	194.6
1015.6741	2889.923	1074.7	193.45
1015.7903	2891.0493	1076.25	192.6
1015.9065	2892.1748	1074.15	190
1016.0226	2893.2997	1071.4	186.3
1016.1387	2894.424	1071.85	190.6
1016.2547	2895.5476	1074.45	189.7
1016.3707	2896.6706	1073.25	188.95
1016.4866	2897.7929	1071.05	186.4
1016.6025	2898.9145	1070.45	185.25
1016.7184	2900.0355	1070.3	186.45
1016.8342	2901.1559	1073.4	186.9
1016.95	2902.2756	1072.45	184.9
1017.0658	2903.3946	1069.5	186.4
1017.1815	2904.513	1074.6	187.5
1017.2971	2905.6308	1070.5	186.55
1017.4127	2906.7479	1069.85	183.1
1017.5283	2907.8643	1067.05	182.25
1017.6439	2908.9801	1066.5	181.9
1017.7594	2910.0953	1064	179.9
1017.8748	2911.2098	1066.35	179.05
1017.9902	2912.3236	1073.7	180.95
1018.1056	2913.4368	1066.9	177.9
1018.2209	2914.5494	1061.4	177.65
1018.3362	2915.6613	1065.15	176.3
1018.4515	2916.7725	1060	173.3
1018.5667	2917.8831	1060.55	175.5
1018.6819	2918.9931	1057.05	171.1
1018.797	2920.1024	1052.45	166.45
1018.9121	2921.211	1049.4	163.9
1019.0271	2922.319	1045.85	162.3
1019.1421	2923.4264	1044.15	160.6
1019.2571	2924.5331	1046.15	161.05
1019.372	2925.6391	1047.15	163.2
1019.4869	2926.7445	1044.7	162.8
1019.6017	2927.8493	1050.1	164.75
1019.7165	2928.9534	1048.2	163.2
1019.8313	2930.0569	1050.3	164.55
1019.946	2931.1597	1053.7	168.4
1020.0606	2932.2619	1048.2	163.8
1020.1753	2933.3634	1054.65	172
1020.2899	2934.4643	1060.8	168.55
1020.4044	2935.5645	1057.75	169.05
1020.5189	2936.6641	1060.2	171.25
1020.6334	2937.763	1057.45	175.85
1020.7478	2938.8613	1053.2	169.1
1020.8622	2939.959	1058.35	168.9
1020.9765	2941.056	1048.9	166.6
1021.0908	2942.1523	1042.5	156.9
1021.2051	2943.248	1041.95	157
1021.3193	2944.3431	1037.4	153.2
1021.4334	2945.4375	1028.95	144
1021.5476	2946.5313	1022.35	140.6
1021.6617	2947.6244	1015.85	131.5
1021.7757	2948.7169	1011.6	126.85
1021.8897	2949.8087	1004.7	121.05
1022.0037	2950.8999	999.4	115.45
1022.1176	2951.9904	991.95	107.8
1022.2315	2953.0803	986.8	101.55
1022.3453	2954.1696	985.65	101.4
1022.4591	2955.2582	978.55	93.95
1022.5728	2956.3462	977.35	91.75
1022.6865	2957.4335	984.35	99.25
1022.8002	2958.5202	980.45	94.85
1022.9138	2959.6062	975.85	91.25
1023.0274	2960.6916	977.3	93.6
1023.141	2961.7764	978.8	93.55
1023.2545	2962.8605	977.2	93.6
1023.3679	2963.9439	976.25	93.45
1023.4813	2965.0267	977.7	92.4
1023.5947	2966.1089	998	90.3
1023.708	2967.1905	977.5	94.05
1023.8213	2968.2714	972.15	88.45
1023.9346	2969.3516	973.8	90.95
1024.0478	2970.4312	981.6	91.7
1024.1609	2971.5102	971.7	88.15
1024.274	2972.5885	971.6	88.6
1024.3871	2973.6662	978.1	88.85
1024.5002	2974.7432	971	87.2
1024.6132	2975.8196	971.6	88.2
1024.7261	2976.8954	971.7	91.55
1024.839	2977.9705	972.75	88.1
1024.9519	2979.045	968.95	85.95
1025.0647	2980.1188	969.1	85.6
1025.1775	2981.192	971.2	88.7
1025.2902	2982.2645	973.95	88.75
1025.4029	2983.3364	969.4	84.9
1025.5156	2984.4077	966.15	78.7
1025.6282	2985.4783	972.8	82.7
1025.7407	2986.5483	960.95	78.65
1025.8532	2987.6177	961.5	76.45
1025.9657	2988.6864	959.05	76.05
1026.0782	2989.7545	955.95	69.55
1026.1906	2990.8219	955.1	71.1
1026.3029	2991.8887	956.45	70.1
1026.4152	2992.9548	951.35	64.4
1026.5275	2994.0204	948.15	63.6
1026.6397	2995.0852	946.45	63.7
1026.7519	2996.1495	947.55	62
1026.864	2997.2131	943.75	58.85
1026.9761	2998.276	939.65	56.3
1027.0882	2999.3383	936.55	51.55
1027.2002	3000.4	937.7	51
1027.3122	3001.4611	934.5	51.25
1027.4241	3002.5215	934.1	50.15
1027.536	3003.5812	929.95	47.45
1027.6478	3004.6404	931.8	48.85
1027.7596	3005.6989	931.1	45.35
1027.8714	3006.7567	928.05	43.55
1027.9831	3007.8139	946.25	42.8
1028.0947	3008.8705	928.35	44.85
1028.2064	3009.9264	931.75	43.7
1028.3179	3010.9818	927.6	42.55
1028.4295	3012.0364	923.9	37.55
1028.541	3013.0905	925.1	39.8
1028.6524	3014.1439	926.3	41.6
1028.7638	3015.1966	925.2	41.6
1028.8752	3016.2487	923.85	39.5
1028.9865	3017.3002	927.45	40.45
1029.0978	3018.3511	921.25	38
1029.209	3019.4013	919.6	36.05
1029.3202	3020.4509	923.55	40
1029.4314	3021.4998	922.75	39.05
1029.5425	3022.5481	920.2	36.3
1029.6535	3023.5958	920.15	36.1
1029.7645	3024.6428	924.1	37.8
1029.8755	3025.6892	921.25	37.7
1029.9864	3026.735	921	36.3
1030.0973	3027.7802	921.75	36.45
1030.2082	3028.8247	919.4	37
1030.319	3029.8685	922.15	38.8
1030.4297	3030.9118	919.25	34.25
1030.5404	3031.9544	919.1	36.85
1030.6511	3032.9963	922.1	37.75
1030.7617	3034.0376	922.2	38.95
1030.8723	3035.0783	922.7	35.55
1030.9829	3036.1184	924.85	39.85
1031.0934	3037.1578	920.15	36.95
1031.2038	3038.1966	922.3	36.8
1031.3142	3039.2348	920.3	38.3
1031.4246	3040.2723	927.2	33.65
1031.5349	3041.3092	919.9	36.7
1031.6452	3042.3455	922.1	38.1
1031.7554	3043.3811	920.15	34.25
1031.8656	3044.4161	922.1	39.05
1031.9758	3045.4505	920.9	38.45
1032.0859	3046.4842	918.55	34.75
1032.1959	3047.5173	920.35	35.6
1032.3059	3048.5498	919.15	34.75
1032.4159	3049.5816	922.85	38.3
1032.5258	3050.6128	921.6	36.85
1032.6357	3051.6434	920.75	35.7
1032.7455	3052.6734	920.7	36.15
1032.8553	3053.7027	920	35.1
1032.9651	3054.7314	921.1	36.55
1033.0748	3055.7594	919.5	36.3
1033.1845	3056.7868	922.5	37.9
1033.2941	3057.8136	918.8	35.85
1033.4037	3058.8398	919.05	36.35
1033.5132	3059.8653	922.7	39.35
1033.6227	3060.8902	921.65	38.3
1033.7321	3061.9145	922.35	39.1
1033.8415	3062.9381	921.05	39.9
1033.9509	3063.9612	935.5	35.95
1034.0602	3064.9835	922.15	38.35
1034.1694	3066.0053	921.3	34.15
1034.2787	3067.0264	917.6	34.8
1034.3878	3068.0469	922.55	40.15
1034.497	3069.0668	924	36.75
1034.6061	3070.086	919.35	37.3
1034.7151	3071.1046	920.85	34.25
1034.8241	3072.1226	920.25	34.5
1034.9331	3073.1399	919.85	36.35
1035.042	3074.1567	920.15	36.25
1035.1508	3075.1727	920.9	35.65
1035.2597	3076.1882	920.55	36.7
1035.3684	3077.203	915.8	30.65
1035.4772	3078.2173	919.3	35.55
1035.5859	3079.2308	919.7	32.6
1035.6945	3080.2438	915.45	30.65
1035.8031	3081.2561	916.7	31.75
1035.9117	3082.2678	917	34.05
1036.0202	3083.2789	917.05	34.2
1036.1286	3084.2893	913	28.8
1036.2371	3085.2991	912.85	27.8
1036.3454	3086.3083	917.25	28.75
1036.4538	3087.3169	913.7	27.25
1036.562	3088.3248	916.35	31.85
1036.6703	3089.3321	913.95	28.6
1036.7785	3090.3388	908.55	24.9
1036.8866	3091.3449	911.9	28.8
1036.9948	3092.3503	914.8	28.25
1037.1028	3093.3551	906.2	23.75
1037.2108	3094.3593	910.85	27.15
1037.3188	3095.3629	910.8	29
1037.4267	3096.3658	910.4	27.35
1037.5346	3097.3681	912.95	28.55
1037.6425	3098.3698	912.85	27.4
1037.7503	3099.3708	912.35	21.05
1037.858	3100.3713	911.95	29.55
1037.9657	3101.3711	913.35	30.4
1038.0734	3102.3702	1045.65	26.9
1038.181	3103.3688	910.05	22.9
1038.2886	3104.3667	908	27.1
1038.3961	3105.364	909.8	25.45
1038.5036	3106.3607	910.75	24.95
1038.611	3107.3568	911.2	24.3
1038.7184	3108.3522	907.35	26.25
1038.8257	3109.347	908	22.6
1038.933	3110.3412	911.9	24.05
1039.0403	3111.3348	908.55	24.75
1039.1475	3112.3277	904.45	19.1
1039.2547	3113.32	908.8	25.85
1039.3618	3114.3117	908.8	23.05
1039.4689	3115.3028	906.35	19.95
1039.5759	3116.2932	906.6	20.8
1039.6829	3117.2831	911.35	21.35
1039.7898	3118.2723	909	25.9
1039.8967	3119.2608	905.8	23.6
1040.0035	3120.2488	905.75	22.5
1040.1103	3121.2361	906.1	22.95
1040.2171	3122.2229	904.2	18.55
1040.3238	3123.209	905.75	20.6
1040.4305	3124.1944	906	22.15
1040.5371	3125.1793	904.1	17.9
1040.6437	3126.1635	903.25	20.85
1040.7502	3127.1471	902.2	19.7
1040.8567	3128.1301	903.9	19.05
1040.9631	3129.1125	904.5	19.3
1041.0695	3130.0942	903.4	19.7
1041.1759	3131.0753	912.6	21.1
1041.2822	3132.0558	905.2	19.15
1041.3884	3133.0357	904.8	20.85
1041.4946	3134.015	904.5	19.5
1041.6008	3134.9936	906.85	21.75
1041.7069	3135.9716	922.15	19.9
1041.813	3136.949	900.85	15.45
1041.919	3137.9258	919.75	17.55
1042.025	3138.902	909.1	19.7
1042.1309	3139.8775	903.5	19.3
1042.2368	3140.8524	903.55	20.95
1042.3427	3141.8267	905.75	20.4
1042.4485	3142.8004	902.9	18.85
1042.5542	3143.7735	910.45	21.3
1042.6599	3144.7459	901.7	12.2
1042.7656	3145.7178	901.65	15.1
1042.8712	3146.689	901.15	20.7
1042.9768	3147.6596	903.25	17.7
1043.0823	3148.6295	902.75	19.45
1043.1878	3149.5989	900.1	17.15
1043.2932	3150.5676	899.25	17.15
1043.3986	3151.5357	900.25	17.7
1043.5039	3152.5032	900.55	17.35
1043.6092	3153.4701	902.4	19.2
1043.7145	3154.4364	902.7	18.2
1043.8197	3155.402	900.45	15.95
1043.9248	3156.367	901	18.9
1044.03	3157.3315	938.25	18.1
1044.135	3158.2952	901.3	19.05
1044.24	3159.2584	899.05	15.4
1044.345	3160.221	899.15	13.85
1044.4499	3161.1829	901.35	17.4
1044.5548	3162.1442	900.75	18.2
1044.6596	3163.105	900.8	17.95
1044.7644	3164.065	900.2	17.05
1044.8692	3165.0245	901.4	13.2
1044.9739	3165.9834	900.3	18.7
1045.0785	3166.9416	899.9	15.85
1045.1831	3167.8993	900.5	15.2
1045.2877	3168.8563	901.8	17.25
1045.3922	3169.8127	898.05	13.8
1045.4966	3170.7684	897.7	16.25
1045.6011	3171.7236	901.2	16.55
1045.7054	3172.6782	900.1	16.45
1045.8098	3173.6321	898.8	15.05
1045.914	3174.5854	902.75	13.55
1046.0183	3175.5381	899.1	14.95
1046.1224	3176.4902	897.85	14.1
1046.2266	3177.4417	898.7	15.15
1046.3307	3178.3926	897.65	15.95
1046.4347	3179.3428	896.3	15.85
1046.5387	3180.2924	901	18.2
1046.6427	3181.2415	898.45	15.1
1046.7466	3182.1899	899.1	12.55
1046.8504	3183.1377	897.05	15.65
1046.9542	3184.0848	900.05	12.7
1047.058	3185.0314	899	16.7
1047.1617	3185.9773	898.3	14.15
1047.2654	3186.9227	901.45	17.4
1047.369	3187.8674	898.55	15.5
1047.4726	3188.8115	904	17.15
1047.5761	3189.755	898.2	15.1
1047.6796	3190.6979	896.4	14.8
1047.783	3191.6402	896.25	13.35
1047.8864	3192.5818	897.75	16.55
1047.9898	3193.5229	902.75	11.65
1048.0931	3194.4633	895.75	11.3
1048.1963	3195.4031	897.8	13.15
1048.2995	3196.3423	895.85	13.45
1048.4027	3197.2809	897.25	13.55
1048.5058	3198.2189	896.3	11.8
1048.6089	3199.1563	904.6	13.85
1048.7119	3200.0931	896.75	16.3
1048.8148	3201.0292	896.45	14.55
1048.9178	3201.9648	895.35	12.3
1049.0206	3202.8997	899.7	12.05
1049.1235	3203.834	897.8	14
1049.2262	3204.7677	897.15	14.05
1049.329	3205.7008	897.35	11.05
1049.4317	3206.6333	895	11.3
1049.5343	3207.5652	898.3	11.3
1049.6369	3208.4964	897.05	13.05
1049.7394	3209.4271	894.9	12.2
1049.8419	3210.3571	893.85	11
1049.9444	3211.2865	898.45	15.85
1050.0468	3212.2154	896.75	11.55
1050.1491	3213.1436	897.65	9.35
1050.2514	3214.0712	902.8	13.15
1050.3537	3214.9982	894.75	10.95
1050.4559	3215.9246	895.3	10.2
1050.5581	3216.8503	895.9	12.2
1050.6602	3217.7755	895.45	9.1
1050.7623	3218.7001	894.15	11.55
1050.8643	3219.624	897.45	12.15
1050.9663	3220.5473	896	12.6
1051.0682	3221.4701	897	12.05
1051.1701	3222.3922	899.75	14.05
1051.2719	3223.3137	894.7	13.7
1051.3737	3224.2346	895	11.45
1051.4754	3225.1549	894.65	11.75
1051.5771	3226.0746	895.95	12.4
1051.6788	3226.9937	894.8	9.15
1051.7804	3227.9121	895.75	11.1
1051.8819	3228.83	893.7	8.45
1051.9834	3229.7473	895.15	10.4
1052.0849	3230.6639	893.6	9.35
1052.1863	3231.5799	892.5	10.85
1052.2876	3232.4954	896.35	11.7
1052.3889	3233.4102	895.05	12.35
1052.4902	3234.3244	894.6	9.95
1052.5914	3235.238	893.85	10
1052.6926	3236.151	909.75	10.85
1052.7937	3237.0634	895.05	12.85
1052.8948	3237.9752	892.5	7.55
1052.9958	3238.8864	895.3	11.05
1053.0968	3239.797	895.05	11.75
1053.1977	3240.7069	896.8	11.85
1053.2986	3241.6163	896.15	12.75
1053.3994	3242.5251	894.2	10.75
1053.5002	3243.4332	891.55	9.75
1053.6009	3244.3408	893.15	8.7
1053.7016	3245.2477	894.05	10.8
1053.8022	3246.154	895.95	9.85
1053.9028	3247.0598	895.15	11.15
1054.0034	3247.9649	891.05	6.1
1054.1039	3248.8694	894.75	10.15
1054.2043	3249.7733	891.95	6
1054.3047	3250.6766	893.1	11.45
1054.4051	3251.5793	892.8	8.35
1054.5054	3252.4814	891.6	8.1
1054.6056	3253.3829	891.7	9.25
1054.7058	3254.2838	895.55	11.7
1054.806	3255.1841	891.95	8.85
1054.9061	3256.0838	892.65	9.1
1055.0061	3256.9829	891	10
1055.1062	3257.8814	895.85	8.85
1055.2061	3258.7792	895.7	10
1055.306	3259.6765	893.85	8.4
1055.4059	3260.5731	892.15	8.2
1055.5057	3261.4692	893.75	8.55
1055.6055	3262.3647	892.5	7.15
1055.7052	3263.2595	893.35	9.15
1055.8049	3264.1538	891.35	8.45
1055.9045	3265.0474	892.65	5.4
1056.0041	3265.9404	889.4	6.85
1056.1036	3266.8329	890.95	7.75
1056.2031	3267.7247	902.65	9.65
1056.3025	3268.616	890.85	6.3
1056.4019	3269.5066	891.15	8.05
1056.5013	3270.3966	892.65	6.9
1056.6005	3271.286	889.05	6.65
