Software Version:	3.9.2.0
Unit SN:	10000200
Spectrometer SN:	6960
Date:	3/26/2024 1:01:20 PM
Data Line Index:	25
Spectral Points:	2048
Integration time (ms):	125
Averages:	20
Delay (ms):	30000
Sequence Number:	1
Processing:	dark subtract
Laser Power (mW):	305
Laser Current (mA):	818
Laser Diode Temp (C):	25.1
Laser Case Temp (C):	25.6
System Temp (C):	25.5
Spectrometer Temp (C):	23.3
CCD Temp (C):	0.005
Secondary Temp (C):	20.008
Heatsink Temp (C):	21.394
CCDPCB Temp (C):	35.918
SecondaryPCB Temp (C):	29.148

Wavelength	RamanShift	Raw Counts	Dark Subtracted
787.061	30.1047	421.55	11.9
787.2016	32.3739	420.95	12
787.3422	34.6426	423.95	16
787.4828	36.9109	426.65	16
787.6235	39.1787	430.75	13.9
787.7642	41.4461	435.3	16.1
787.9049	43.7131	440.9	17.5
788.0456	45.9796	444.6	16.05
788.1863	48.2456	447.6	15.25
788.3271	50.5112	455.2	17.85
788.4679	52.7764	457.25	19.1
788.6087	55.0411	460.45	19.75
788.7496	57.3054	467.15	21.75
788.8904	59.5692	471.7	25.7
789.0313	61.8326	474.45	24.8
789.1722	64.0955	483.9	28.8
789.3132	66.3579	489.25	28.55
789.4541	68.6199	494.7	32.25
789.5951	70.8815	508.2	43.05
789.7361	73.1426	527.75	58.05
789.8771	75.4032	570.45	98.2
790.0181	77.6634	664.5	184.2
790.1592	79.9231	894.75	410.8
790.3003	82.1824	1363.35	875.7
790.4414	84.4412	2158.95	1665.55
790.5825	86.6995	3220.45	2719.8
790.7237	88.9574	4253.8	3746.5
790.8648	91.2148	5028.55	4519.55
791.006	93.4717	5418.1	4903.85
791.1472	95.7282	5557.7	5039.6
791.2885	97.9842	5605	5084.4
791.4297	100.2398	5588.15	5067.2
791.571	102.4949	5565.6	5038.4
791.7123	104.7495	5527.85	4998.15
791.8536	107.0036	5511.15	4979.75
791.9949	109.2573	5454.4	4924.15
792.1363	111.5105	5414	4882.1
792.2777	113.7632	5337.3	4804.3
792.4191	116.0154	5295.05	4752.1
792.5605	118.2672	5227.3	4689.8
792.7019	120.5185	5161.8	4622.85
792.8434	122.7693	5090.2	4548.4
792.9849	125.0197	5032.45	4486.5
793.1264	127.2696	4968.3	4421.5
793.2679	129.519	4942.8	4392.8
793.4094	131.7679	4928.45	4375.35
793.551	134.0163	4889.15	4333.8
793.6926	136.2642	4886.8	4324.4
793.8342	138.5117	4889.3	4317.9
793.9758	140.7587	4852.95	4286.65
794.1175	143.0052	4844.6	4275.15
794.2591	145.2512	4793.35	4225.1
794.4008	147.4967	4765.45	4196
794.5425	149.7417	4746.6	4175.4
794.6842	151.9863	4681.35	4107.4
794.826	154.2304	4681.9	4100.7
794.9677	156.4739	4670.9	4089.25
795.1095	158.717	4655.1	4072.15
795.2513	160.9596	4681.45	4091.75
795.3931	163.2017	4696.4	4107.1
795.535	165.4433	4700.3	4108.2
795.6768	167.6844	4691.65	4098.05
795.8187	169.925	4671.9	4073.15
795.9606	172.1651	4613.3	4012.1
796.1025	174.4047	4607.2	4002
796.2445	176.6439	4560.5	3954.15
796.3864	178.8825	4541	3932.05
796.5284	181.1206	4522.15	3908.6
796.6704	183.3582	4491.8	3871.5
796.8124	185.5954	4496.6	3876.8
796.9544	187.832	4494.2	3874.4
797.0965	190.0681	4498.65	3875.3
797.2386	192.3037	4507.05	3879.6
797.3806	194.5388	4505.8	3874.35
797.5228	196.7734	4515.5	3883.2
797.6649	199.0075	4520	3881.7
797.807	201.2411	4550.65	3910.5
797.9492	203.4742	4544.55	3902.65
798.0914	205.7068	4577.85	3937.7
798.2336	207.9389	4580.15	3938.55
798.3758	210.1704	4598.35	3953.35
798.518	212.4015	4617	3969.1
798.6603	214.632	4617.5	3969.6
798.8025	216.862	4599.35	3956.15
798.9448	219.0915	4578.65	3942.2
799.0871	221.3205	4605.1	3969.25
799.2294	223.549	4608.25	3980.9
799.3718	225.777	4606.9	3980.3
799.5141	228.0044	4596.45	3967
799.6565	230.2314	4598.3	3970.15
799.7989	232.4578	4590.05	3958.4
799.9413	234.6837	4569.65	3932.8
800.0837	236.909	4565.15	3927.2
800.2262	239.1339	4571.95	3909.6
800.3687	241.3582	4552.8	3905.7
800.5111	243.582	4560.35	3881.4
800.6536	245.8053	4575.2	3909.4
800.7961	248.0281	4563.85	3901.45
800.9387	250.2503	4569	3901.85
801.0812	252.472	4582.55	3911.2
801.2238	254.6932	4580.2	3905.2
801.3664	256.9139	4570.05	3892.4
801.509	259.134	4568.25	3887.2
801.6516	261.3536	4586.5	3909.1
801.7942	263.5727	4615.9	3933.6
801.9369	265.7912	4626.8	3947.4
802.0795	268.0092	4666.85	3982.45
802.2222	270.2267	4717.15	4033.2
802.3649	272.4436	4724.55	4039.7
802.5076	274.6601	4764.65	4069.4
802.6504	276.8759	4777.3	4090.35
802.7931	279.0913	4789.25	4098.8
802.9359	281.3061	4804.8	4113.5
803.0787	283.5204	4832.6	4138.65
803.2215	285.7341	4841.4	4145.25
803.3643	287.9473	4873.3	4167.95
803.5071	290.16	4861.4	4156.7
803.6499	292.3721	4825.95	4128.05
803.7928	294.5837	4795.1	4096.55
803.9357	296.7947	4756.55	4057.65
804.0786	299.0052	4728.95	4028.25
804.2215	301.2152	4712.15	4007.1
804.3644	303.4246	4713.7	4015.4
804.5074	305.6334	4698.65	3999.9
804.6503	307.8418	4717.05	4013.45
804.7933	310.0495	4679.4	3972.75
804.9363	312.2568	4650.8	3944.8
805.0793	314.4635	4606.45	3901
805.2223	316.6696	4585	3877.4
805.3653	318.8752	4543.9	3826.45
805.5084	321.0802	4497.2	3788.2
805.6514	323.2847	4492.9	3779.75
805.7945	325.4887	4493.1	3781.25
805.9376	327.692	4474.2	3761
806.0807	329.8949	4523.75	3809.1
806.2238	332.0972	4563.95	3844.45
806.367	334.2989	4585.05	3862.95
806.5101	336.5001	4591.4	3870.45
806.6533	338.7007	4578.8	3856.1
806.7965	340.9008	4557.15	3835.4
806.9397	343.1003	4495.35	3770.9
807.0829	345.2992	4448.05	3721.15
807.2261	347.4976	4419.3	3691.3
807.3693	349.6955	4391.6	3659.45
807.5126	351.8927	4372.35	3640.9
807.6559	354.0895	4375.4	3631.85
807.7991	356.2856	4354.95	3620
807.9424	358.4812	4340.9	3607
808.0857	360.6763	4337.25	3601.9
808.2291	362.8707	4329	3593
808.3724	365.0646	4318.15	3579.65
808.5158	367.258	4321.95	3578.95
808.6591	369.4508	4332.95	3587.75
808.8025	371.643	4364.85	3619.6
808.9459	373.8346	4384.25	3637.5
809.0893	376.0257	4429.6	3680.4
809.2327	378.2162	4437.75	3687.6
809.3762	380.4062	4455.75	3703.1
809.5196	382.5956	4429.65	3676.85
809.6631	384.7844	4409.1	3656.55
809.8066	386.9726	4343.55	3588.6
809.9501	389.1603	4310.95	3555.25
810.0936	391.3474	4315.65	3521.35
810.2371	393.5339	4293.45	3538.55
810.3806	395.7199	4271.35	3524.65
810.5241	397.9052	4285.05	3538.9
810.6677	400.09	4321.7	3575.4
810.8113	402.2743	4343.35	3597.4
810.9548	404.4579	4376.15	3628.35
811.0984	406.641	4404.85	3655.55
811.2421	408.8235	4450.9	3702.75
811.3857	411.0054	4499.75	3750.1
811.5293	413.1868	4590.8	3840.1
811.673	415.3675	4725.05	3970.1
811.8166	417.5477	4758.55	4001.45
811.9603	419.7273	4674.35	3914.15
812.104	421.9064	4549.4	3783.8
812.2477	424.0848	4447.5	3684.95
812.3914	426.2627	4399.3	3632.5
812.5351	428.4399	4349.5	3582.5
812.6788	430.6166	4302.45	3533.25
812.8226	432.7928	4252.75	3480.3
812.9663	434.9683	4213.2	3440.85
813.1101	437.1432	4190.1	3417.75
813.2539	439.3176	4166	3393.7
813.3977	441.4914	4134.25	3360.25
813.5415	443.6645	4147.45	3370.5
813.6853	445.8371	4132.75	3356.65
813.8291	448.0091	4122	3346.1
813.973	450.1806	4124.25	3347.3
814.1168	452.3514	4118.2	3336.85
814.2607	454.5216	4120.15	3330.5
814.4046	456.6913	4088.45	3307.85
814.5485	458.8603	4088.7	3308.1
814.6924	461.0288	4098	3317.7
814.8363	463.1967	4090.35	3311.1
814.9802	465.3639	4098	3315.55
815.1241	467.5306	4079.65	3293.45
815.2681	469.6967	4071.5	3288.7
815.412	471.8622	4059.4	3274.5
815.556	474.0271	4073.45	3290.25
815.7	476.1914	4062.45	3275.8
815.844	478.3551	4057.95	3274.4
815.988	480.5182	4070.15	3284.7
816.132	482.6807	4061.8	3274.65
816.276	484.8426	4078.25	3291.15
816.4201	487.0039	4119.7	3334.85
816.5641	489.1647	4156.05	3366.35
816.7082	491.3248	4192.45	3404.75
816.8522	493.4843	4204.2	3416.75
816.9963	495.6432	4193.6	3404.7
817.1404	497.8015	4174.05	3379.6
817.2845	499.9592	4148.05	3358.35
817.4286	502.1163	4106.65	3314
817.5727	504.2728	4061.7	3266.7
817.7168	506.4287	4035.95	3245.45
817.861	508.5839	4017.35	3222.8
818.0051	510.7386	4015.35	3221.75
818.1493	512.8927	4026.05	3224.85
818.2935	515.0461	4029.25	3235
818.4377	517.199	4043.7	3247.9
818.5818	519.3512	4064.7	3266.9
818.726	521.5029	4115.55	3311
818.8703	523.6539	4164.6	3367.2
819.0145	525.8043	4185.05	3386
819.1587	527.9541	4156.75	3357.65
819.303	530.1033	4094.35	3292
819.4472	532.2519	4056.4	3252.65
819.5915	534.3999	4019	3213.95
819.7357	536.5472	4016.05	3213.75
819.88	538.694	4030.2	3226.05
820.0243	540.8401	4029.85	3225.45
820.1686	542.9856	4044.95	3238.55
820.3129	545.1305	4052.65	3244.95
820.4572	547.2748	4076.85	3269.6
820.6016	549.4185	4081.35	3272.15
820.7459	551.5615	4083.9	3275.4
820.8902	553.704	4079.95	3271.6
821.0346	555.8458	4089.45	3280.75
821.1789	557.987	4106.8	3299.8
821.3233	560.1276	4141.2	3330.8
821.4677	562.2675	4182.65	3374.8
821.6121	564.4069	4242	3433
821.7565	566.5456	4274.25	3466.55
821.9009	568.6837	4281.05	3470.6
822.0453	570.8212	4210.7	3401.15
822.1897	572.958	4155.15	3342.35
822.3342	575.0942	4111	3303
822.4786	577.2299	4076.6	3267.35
822.6231	579.3648	4040.9	3231.35
822.7675	581.4992	3994.05	3183.25
822.912	583.6329	3989.2	3179.75
823.0565	585.766	4007.65	3199.1
823.201	587.8985	4032.05	3221.25
823.3454	590.0304	4076.75	3252.5
823.4899	592.1616	4109.95	3292.95
823.6345	594.2922	4122.15	3305.15
823.779	596.4222	4085.95	3268.7
823.9235	598.5515	4050.55	3233.4
824.068	600.6802	3983.05	3167.2
824.2126	602.8083	3942.35	3124.2
824.3571	604.9358	3935.6	3117.3
824.5017	607.0626	3919.05	3098.65
824.6462	609.1888	3930.15	3107.6
824.7908	611.3144	3935.5	3112.25
824.9354	613.4393	3970.75	3151.25
825.08	615.5636	3992.75	3172.8
825.2246	617.6873	4052.05	3229.75
825.3692	619.8103	4079.3	3256.65
825.5138	621.9327	4087.25	3263.1
825.6584	624.0544	4062.9	3242.9
825.803	626.1756	4014.5	3194.05
825.9477	628.2961	3958.6	3138.1
826.0923	630.4159	3948.25	3126.65
826.237	632.5351	3933.15	3110.55
826.3816	634.6537	3919.65	3096.3
826.5263	636.7716	3912.1	3088.3
826.6709	638.8889	3914.8	3089.35
826.8156	641.0056	3932.1	3107
826.9603	643.1216	3940	3113.55
827.105	645.237	3956.5	3127.95
827.2497	647.3518	3931.05	3105.25
827.3944	649.4659	3921.3	3093.55
827.5391	651.5793	3904.5	3077.3
827.6838	653.6922	3886	3059.45
827.8285	655.8043	3855.3	3026.15
827.9733	657.9159	3854.05	3026
828.118	660.0268	3828.8	2998.45
828.2627	662.137	3835.2	3005.65
828.4075	664.2466	3830.05	2999.05
828.5522	666.3556	3832.15	2999.8
828.697	668.4639	3835.75	3002.55
828.8418	670.5716	3823.75	2992.65
828.9865	672.6786	3823.5	2990.95
829.1313	674.785	3814.45	2979.3
829.2761	676.8907	3809.95	2976.95
829.4209	678.9958	3811.25	2979.65
829.5657	681.1002	3792.2	2958.9
829.7105	683.204	3809.4	2972.6
829.8553	685.3072	3785.1	2951.35
830.0001	687.4097	3781.75	2945.3
830.1449	689.5115	3800.05	2963.65
830.2898	691.6127	3786	2952.8
830.4346	693.7132	3791	2956.25
830.5794	695.8131	3820	2969.7
830.7243	697.9123	3792.3	2953.9
830.8691	700.0109	3788.65	2949.95
831.014	702.1089	3783.8	2946.9
831.1588	704.2061	3802.55	2964.2
831.3037	706.3028	3828.25	2987.05
831.4486	708.3987	3837.65	3000.05
831.5935	710.4941	3847.6	3009.9
831.7383	712.5887	3859.05	3019.95
831.8832	714.6827	3853.7	3010.65
832.0281	716.7761	3854.5	3015.4
832.173	718.8688	3834.25	2994.4
832.3179	720.9608	3832.65	2986.65
832.4628	723.0522	3835.7	2992.05
832.6077	725.1429	3850.35	3008.05
832.7527	727.233	3876.6	3033.7
832.8976	729.3224	3934.85	3093.95
833.0425	731.4112	3957.85	3114.65
833.1874	733.4993	3985.85	3141.6
833.3324	735.5867	3965.25	3120.1
833.4773	737.6735	3907.75	3062.95
833.6222	739.7596	3856.4	3012.6
833.7672	741.845	3847.75	3004.85
833.9122	743.9298	3852.7	3007.95
834.0571	746.014	3846.85	3001.35
834.2021	748.0974	3869.55	3022.35
834.347	750.1802	3869.4	3022.7
834.492	752.2624	3854.65	3008.85
834.637	754.3439	3825.4	2978.15
834.782	756.4247	3805.45	2950.4
834.9269	758.5048	3780.6	2934.45
835.0719	760.5843	3769.05	2921.75
835.2169	762.6631	3787.4	2938.5
835.3619	764.7413	3811.9	2966.75
835.5069	766.8188	3870.65	3019.45
835.6519	768.8956	3937.95	3086.3
835.7969	770.9718	3979.1	3134.4
835.9419	773.0473	3964.7	3117.55
836.0869	775.1221	3929.65	3082.9
836.232	777.1962	3906.4	3057.4
836.377	779.2697	3960.65	3108.8
836.522	781.3426	4050.7	3184.45
836.667	783.4147	4098.95	3248.6
836.8121	785.4862	4102.9	3253.25
836.9571	787.557	4040.2	3190.75
837.1021	789.6271	3931.45	3082.05
837.2472	791.6966	3825.25	2974.5
837.3922	793.7654	3729.35	2878.15
837.5373	795.8335	3664.3	2813.95
837.6823	797.901	3646.85	2793.85
837.8274	799.9678	3631.8	2778.2
837.9724	802.0339	3628.05	2777.1
838.1175	804.0993	3639.1	2776.8
838.2626	806.1641	3615.6	2762.15
838.4076	808.2282	3612.85	2760.5
838.5527	810.2916	3601.35	2745.25
838.6978	812.3544	3572.85	2721.2
838.8428	814.4164	3555.9	2706.25
838.9879	816.4778	3565.45	2711
839.133	818.5385	3565.6	2713.85
839.2781	820.5986	3576.65	2724.6
839.4232	822.658	3640.6	2785.95
839.5682	824.7166	3665.95	2808.8
839.7133	826.7747	3757.8	2903.85
839.8584	828.832	3796	2943.2
840.0035	830.8886	3836.25	2980.95
840.1486	832.9446	3865.5	3009.7
840.2937	834.9999	3848	2994.5
840.4388	837.0545	3792.45	2936.8
840.5839	839.1085	3726.35	2871.65
840.729	841.1618	3653.5	2793.65
840.8741	843.2143	3602.4	2747.4
841.0192	845.2662	3570.8	2714.7
841.1643	847.3175	3528.6	2673.55
841.3095	849.368	3523.5	2668.2
841.4546	851.4179	3532.15	2674.15
841.5997	853.467	3511.15	2655.9
841.7448	855.5155	3528.25	2670.95
841.8899	857.5633	3514.15	2659.4
842.0351	859.6105	3515.3	2659.05
842.1802	861.6569	3507.3	2651.9
842.3253	863.7027	3484.55	2626.65
842.4704	865.7478	3470.45	2612
842.6156	867.7922	3460.35	2599.8
842.7607	869.8359	3452.65	2594.25
842.9058	871.8789	3442	2584.75
843.0509	873.9212	3458.45	2571.8
843.1961	875.9629	3428	2569.5
843.3412	878.0039	3445.1	2585.2
843.4863	880.0441	3444	2584.85
843.6315	882.0837	3467.95	2605.8
843.7766	884.1226	3478.35	2616.85
843.9218	886.1609	3487.65	2628.55
844.0669	888.1984	3530.3	2672.25
844.212	890.2352	3573.65	2714.75
844.3572	892.2714	3583.15	2719.35
844.5023	894.3069	3579.65	2719.15
844.6475	896.3416	3508.7	2646.9
844.7926	898.3757	3476.05	2614.65
844.9377	900.4091	3438.9	2578.15
845.0829	902.4418	3455.85	2589.3
845.228	904.4739	3449.75	2586
845.3732	906.5052	3473.35	2612.35
845.5183	908.5358	3472.45	2613
845.6635	910.5658	3470.4	2604.95
845.8086	912.595	3421.6	2559.5
845.9538	914.6236	3381.45	2518.5
846.0989	916.6515	3367.3	2505.3
846.2441	918.6786	3343.7	2481.75
846.3892	920.7051	3329.55	2463.25
846.5344	922.7309	3328.6	2465
846.6795	924.756	3313.35	2450.5
846.8246	926.7804	3312.4	2446
846.9698	928.8041	3318.6	2450.5
847.1149	930.8272	3314.1	2448.7
847.2601	932.8495	3323.15	2456.75
847.4052	934.8711	3330.8	2466.25
847.5504	936.892	3323.2	2459.25
847.6955	938.9123	3333.4	2465
847.8407	940.9318	3342.15	2476.15
847.9858	942.9506	3358.65	2490.6
848.131	944.9688	3350	2485.1
848.2761	946.9862	3323.55	2456.6
848.4213	949.003	3295.35	2428.45
848.5664	951.019	3266.95	2401
848.7115	953.0344	3239.2	2373.8
848.8567	955.0491	3242.85	2376.7
849.0018	957.063	3218.45	2354
849.147	959.0763	3234.8	2360.7
849.2921	961.0888	3223.8	2356.1
849.4373	963.1007	3203.05	2335
849.5824	965.1119	3185.1	2319.75
849.7275	967.1223	3182.7	2316.75
849.8727	969.1321	3163.35	2297.85
850.0178	971.1412	3165.45	2299.55
850.1629	973.1495	3153	2285.25
850.3081	975.1572	3186.65	2271.05
850.4532	977.1641	3159.25	2292.1
850.5983	979.1704	3145.65	2276.9
850.7435	981.1759	3149.4	2280.45
850.8886	983.1808	3130.25	2261.9
851.0337	985.1849	3119.5	2241.1
851.1788	987.1884	3116.6	2246.8
851.324	989.1911	3102.4	2231.95
851.4691	991.1932	3117.7	2248.55
851.6142	993.1945	3099.35	2228.85
851.7593	995.1951	3105.6	2236
851.9045	997.1951	3103	2228.3
852.0496	999.1943	3076.9	2207.6
852.1947	1001.1928	3072.35	2202.1
852.3398	1003.1906	3068.2	2200.2
852.4849	1005.1877	3083.6	2211.25
852.63	1007.1841	3097.1	2229.55
852.7751	1009.1798	3102.3	2231.6
852.9202	1011.1748	3092.6	2224.25
853.0653	1013.1691	3068.3	2196.95
853.2104	1015.1627	3028.3	2157.75
853.3555	1017.1556	3005.65	2137.05
853.5006	1019.1477	2979.45	2108.2
853.6457	1021.1392	2948.5	2079.5
853.7908	1023.1299	2944.9	2074.15
853.9359	1025.12	2929.5	2058.35
854.081	1027.1093	2924.55	2057.75
854.2261	1029.0979	2940.45	2070.3
854.3712	1031.0859	2955.65	2085.75
854.5163	1033.0731	2954.95	2084.25
854.6613	1035.0596	2948.25	2076.8
854.8064	1037.0454	2946.15	2077.15
854.9515	1039.0304	2950.15	2075.4
855.0965	1041.0148	2912	2042.3
855.2416	1042.9985	2896.05	2022.05
855.3867	1044.9814	2876.85	2006.1
855.5317	1046.9636	2852.65	1980.2
855.6768	1048.9452	2843.8	1971.95
855.8219	1050.926	2852.3	1982.4
855.9669	1052.9061	2872.05	2000.2
856.112	1054.8855	2860.7	1987.95
856.257	1056.8642	2876	2007.1
856.4021	1058.8421	2871.95	1994.45
856.5471	1060.8194	2861.5	1989.75
856.6921	1062.7959	2853.4	1980.9
856.8372	1064.7717	2851.85	1977.45
856.9822	1066.7469	2853.7	1978.55
857.1272	1068.7213	2834.4	1959.4
857.2723	1070.695	2854.55	1981.5
857.4173	1072.6679	2846.05	1972.9
857.5623	1074.6402	2865.3	1991.15
857.7073	1076.6117	2884.4	2005.95
857.8523	1078.5826	2873	1997.3
857.9973	1080.5527	2830.65	1954.9
858.1423	1082.5221	2795.05	1921.6
858.2873	1084.4908	2758.9	1884.05
858.4323	1086.4587	2744.2	1867.45
858.5773	1088.426	2737.75	1865.45
858.7223	1090.3925	2732.4	1853.95
858.8673	1092.3584	2729.2	1855.3
859.0123	1094.3235	2718.05	1845.1
859.1573	1096.2879	2735.2	1860.75
859.3022	1098.2515	2745.15	1871.75
859.4472	1100.2145	2762.35	1888.5
859.5922	1102.1767	2781	1904.45
859.7371	1104.1382	2804.8	1931
859.8821	1106.099	2843.05	1967.5
860.027	1108.0591	2882.6	2008.85
860.172	1110.0185	2927.3	2051.35
860.3169	1111.9771	2945.6	2073.45
860.4619	1113.9351	2964.5	2089.35
860.6068	1115.8923	3030.05	2153.95
860.7517	1117.8488	3053.35	2176.85
860.8967	1119.8045	3034.5	2159.7
861.0416	1121.7596	2948.05	2072.5
861.1865	1123.7139	2856.2	1980.45
861.3314	1125.6675	2796.9	1920.65
861.4763	1127.6204	2774.5	1897.95
861.6212	1129.5726	2803.15	1923.8
861.7661	1131.524	2803.7	1929.65
861.911	1133.4748	2776.9	1899.75
862.0559	1135.4248	2713.95	1836.55
862.2008	1137.3741	2674.85	1799
862.3457	1139.3226	2656.8	1780.3
862.4905	1141.2705	2636.75	1761.55
862.6354	1143.2176	2633.25	1751.25
862.7803	1145.164	2648	1770
862.9251	1147.1097	2643.45	1766
863.07	1149.0546	2618.2	1739.4
863.2148	1150.9989	2611.15	1732.75
863.3597	1152.9424	2589.55	1711.8
863.5045	1154.8852	2565.85	1687.05
863.6493	1156.8272	2563.1	1687
863.7942	1158.7686	2562.9	1677.15
863.939	1160.7092	2542.3	1667
864.0838	1162.6491	2535.85	1658.05
864.2286	1164.5883	2549.4	1672.6
864.3734	1166.5267	2562.55	1684.7
864.5182	1168.4644	2562.65	1686.7
864.663	1170.4014	2589.25	1709.7
864.8078	1172.3377	2602.2	1727.05
864.9526	1174.2732	2656.15	1778.5
865.0974	1176.2081	2703.75	1826.5
865.2421	1178.1421	2802.85	1917.95
865.3869	1180.0755	2910.1	2033.9
865.5317	1182.0082	2974.5	2095.7
865.6764	1183.9401	2991.1	2113.75
865.8212	1185.8713	2918.8	2042.55
865.9659	1187.8017	2816.25	1939.05
866.1106	1189.7315	2707.75	1832.45
866.2554	1191.6605	2625.9	1750.1
866.4001	1193.5888	2579.55	1702.3
866.5448	1195.5163	2542.5	1665.6
866.6895	1197.4432	2525.95	1647.1
866.8342	1199.3693	2493.9	1617.3
866.9789	1201.2947	2477.05	1592.05
867.1236	1203.2193	2465.8	1588.85
867.2683	1205.1432	2471.3	1592.4
867.413	1207.0664	2461.55	1582.7
867.5576	1208.9889	2446.3	1564.25
867.7023	1210.9106	2440	1559.6
867.847	1212.8316	2431.7	1552.65
867.9916	1214.7519	2460	1572.2
868.1363	1216.6715	2446.8	1568.4
868.2809	1218.5903	2461.9	1583.25
868.4255	1220.5084	2459.35	1580.35
868.5701	1222.4257	2468.2	1588.6
868.7148	1224.3424	2457.95	1581.45
868.8594	1226.2583	2488	1606.55
869.004	1228.1735	2507.75	1628.55
869.1486	1230.0879	2527.65	1648.15
869.2932	1232.0016	2547.25	1667.7
869.4377	1233.9146	2575.5	1694.55
869.5823	1235.8269	2591.1	1712.3
869.7269	1237.7384	2601.7	1720.7
869.8715	1239.6492	2573.25	1691.85
870.016	1241.5592	2590.05	1708.3
870.1606	1243.4686	2605.35	1727.5
870.3051	1245.3772	2659.5	1780.65
870.4496	1247.285	2728.35	1848.3
870.5941	1249.1922	2782.75	1903.7
870.7387	1251.0986	2845.7	1966.35
870.8832	1253.0042	2891.2	2010.45
871.0277	1254.9092	2959.95	2080.95
871.1722	1256.8134	3044.15	2165.35
871.3167	1258.7169	3131.2	2250.7
871.4611	1260.6196	3189.6	2310.8
871.6056	1262.5216	3218.25	2337.8
871.7501	1264.4229	3229.45	2349.05
871.8945	1266.3234	3197.2	2316.15
872.039	1268.2232	3155.95	2275.5
872.1834	1270.1223	3102.45	2221.6
872.3278	1272.0207	3038.95	2156.65
872.4723	1273.9183	3031.1	2145.1
872.6167	1275.8151	3027.2	2146.6
872.7611	1277.7113	3039.5	2156.95
872.9055	1279.6067	3093.05	2214.65
873.0499	1281.5014	3189.85	2307.9
873.1943	1283.3953	3354.35	2471.45
873.3386	1285.2885	3532.2	2649.65
873.483	1287.181	3690.35	2807.35
873.6274	1289.0727	3770.6	2890.15
873.7717	1290.9637	3721.45	2839.55
873.9161	1292.854	3624.8	2745.85
874.0604	1294.7435	3489.2	2606.3
874.2047	1296.6323	3360.35	2479.85
874.349	1298.5204	3271.35	2387.2
874.4933	1300.4077	3191.45	2307.95
874.6376	1302.2943	3148.05	2267.35
874.7819	1304.1802	3098.55	2217.4
874.9262	1306.0653	3064.2	2181.15
875.0705	1307.9497	3046.55	2164.05
875.2147	1309.8333	3036	2156.4
875.359	1311.7162	2999.55	2118.4
875.5032	1313.5984	2978.25	2095.1
875.6475	1315.4798	2967.25	2072.7
875.7917	1317.3605	2964.6	2073.85
875.9359	1319.2405	2979.3	2095.1
876.0801	1321.1197	2983.7	2099.75
876.2243	1322.9982	2957.55	2071.15
876.3685	1324.876	2900.95	2018.9
876.5127	1326.753	2820	1936.05
876.6569	1328.6293	2764.6	1879.55
876.801	1330.5048	2688.55	1804.25
876.9452	1332.3796	2595.5	1715.3
877.0893	1334.2537	2561.65	1658.1
877.2335	1336.127	2493.35	1611.8
877.3776	1337.9996	2464.5	1581.4
877.5217	1339.8714	2444.1	1560.5
877.6658	1341.7426	2455.8	1529.5
877.8099	1343.6129	2410	1527.55
877.954	1345.4826	2389.2	1507.55
878.0981	1347.3515	2372.85	1486.5
878.2422	1349.2196	2355.6	1474.55
878.3862	1351.087	2349.1	1466.35
878.5303	1352.9537	2341.2	1457.8
878.6743	1354.8197	2349.55	1467.6
878.8184	1356.6849	2343.6	1459.6
878.9624	1358.5493	2350.65	1467.15
879.1064	1360.4131	2369.95	1487.4
879.2504	1362.276	2395.6	1512.45
879.3944	1364.1383	2429.55	1547.4
879.5384	1365.9998	2440.45	1552.8
879.6823	1367.8606	2434.3	1550.65
879.8263	1369.7206	2435.1	1550.7
879.9702	1371.5799	2425.95	1540.9
880.1142	1373.4384	2418.1	1535.1
880.2581	1375.2962	2406.55	1523.2
880.402	1377.1533	2346.25	1463.3
880.5459	1379.0096	2313.65	1432.2
880.6898	1380.8652	2281.8	1398.2
880.8337	1382.7201	2255.05	1373.05
880.9776	1384.5742	2225.45	1341.8
881.1215	1386.4275	2202.1	1318.05
881.2653	1388.2802	2188.2	1306.15
881.4092	1390.132	2176	1292.35
881.553	1391.9832	2177.25	1294.45
881.6968	1393.8336	2156.5	1274.35
881.8406	1395.6832	2144.35	1257.7
881.9844	1397.5322	2136.05	1253.85
882.1282	1399.3803	2127.9	1239.75
882.272	1401.2278	2113.5	1231.25
882.4158	1403.0745	2106.8	1222.15
882.5595	1404.9204	2094.4	1214
882.7033	1406.7656	2088.05	1204.55
882.847	1408.6101	2082.5	1194.8
882.9908	1410.4538	2073.85	1191.45
883.1345	1412.2968	2067.95	1184.45
883.2782	1414.139	2074.8	1191.7
883.4219	1415.9805	2076.8	1195
883.5656	1417.8213	2094.4	1188.6
883.7092	1419.6613	2083.3	1200
883.8529	1421.5006	2109.65	1224.6
883.9965	1423.3391	2130.7	1247
884.1402	1425.1769	2169.85	1284.6
884.2838	1427.0139	2227.6	1343.05
884.4274	1428.8502	2289.45	1403.9
884.571	1430.6858	2374.3	1488.45
884.7146	1432.5206	2386	1502.1
884.8582	1434.3547	2393.3	1510.9
885.0018	1436.188	2365	1479.9
885.1453	1438.0206	2349.2	1465.55
885.2889	1439.8524	2335.35	1451.5
885.4324	1441.6835	2338.05	1453.1
885.5759	1443.5139	2336.75	1449.35
885.7194	1445.3435	2322.6	1438.8
885.8629	1447.1724	2335.55	1451.15
886.0064	1449.0005	2340.1	1454.65
886.1499	1450.8279	2322.55	1435.9
886.2933	1452.6545	2319.2	1437.1
886.4368	1454.4804	2314.55	1431.75
886.5802	1456.3056	2309.7	1419.25
886.7237	1458.13	2286.65	1402.8
886.8671	1459.9536	2262.5	1379.75
887.0105	1461.7766	2243.4	1362.25
887.1539	1463.5987	2209.8	1324.3
887.2972	1465.4202	2176.25	1291.95
887.4406	1467.2409	2140.6	1255.8
887.584	1469.0608	2126.95	1243.6
887.7273	1470.88	2090.05	1204.75
887.8706	1472.6984	2058.1	1173.1
888.0139	1474.5161	2036.7	1150.25
888.1572	1476.3331	2016.85	1133.15
888.3005	1478.1493	2013	1127.05
888.4438	1479.9648	2006.85	1122.3
888.5871	1481.7795	2000.6	1116.65
888.7303	1483.5935	1998.5	1115.8
888.8736	1485.4067	2004.65	1121.2
889.0168	1487.2192	2015.35	1129.9
889.16	1489.031	2009.8	1123.55
889.3032	1490.842	1996.5	1112.8
889.4464	1492.6522	1997.65	1113.35
889.5896	1494.4618	2000.8	1114.45
889.7327	1496.2705	1993.9	1110.15
889.8759	1498.0785	1988.45	1103.2
890.019	1499.8858	1985.4	1100.45
890.1622	1501.6924	1979.85	1096.1
890.3053	1503.4981	1972.2	1087.7
890.4484	1505.3032	1968.4	1082.8
890.5914	1507.1075	1959.45	1074.25
890.7345	1508.911	1954.95	1069.15
890.8776	1510.7138	1950.6	1064.2
891.0206	1512.5159	1935.9	1052.2
891.1637	1514.3172	1927.65	1042.15
891.3067	1516.1178	1919	1036.35
891.4497	1517.9176	1923.85	1035.9
891.5927	1519.7166	1911.45	1026.9
891.7357	1521.515	1914.4	1022.15
891.8786	1523.3126	1901.2	1012.1
892.0216	1525.1094	1897.4	1010.35
892.1645	1526.9055	1880.7	995.45
892.3074	1528.7008	1878.2	993.6
892.4503	1530.4954	1867.05	981.9
892.5932	1532.2893	1869.8	985.85
892.7361	1534.0824	1864.9	975
892.879	1535.8747	1862.65	978.1
893.0218	1537.6663	1858.2	972.65
893.1647	1539.4572	1851.9	965.35
893.3075	1541.2473	1845.45	959.25
893.4503	1543.0367	1847.55	963.1
893.5931	1544.8253	1845.85	955.6
893.7359	1546.6132	1848.7	960.8
893.8787	1548.4003	1844.4	949.35
894.0214	1550.1867	1859.75	964.6
894.1642	1551.9723	1864.95	976.25
894.3069	1553.7572	1875.3	990.75
894.4496	1555.5414	1879.75	995.45
894.5923	1557.3247	1898.15	1012.1
894.735	1559.1074	1923.7	1040.8
894.8777	1560.8893	1952.2	1068.1
895.0204	1562.6705	1986.8	1102.25
895.163	1564.4509	2015.1	1130.15
895.3056	1566.2305	2022.35	1138.25
895.4482	1568.0094	2032.2	1148.15
895.5908	1569.7876	2024.95	1139.75
895.7334	1571.565	2028	1144.1
895.876	1573.3417	2023.4	1139.75
896.0186	1575.1176	2022.05	1139.05
896.1611	1576.8928	2034.4	1149.85
896.3036	1578.6672	2043.1	1160.5
896.4461	1580.4409	2075.85	1194.05
896.5886	1582.2138	2108.5	1221.45
896.7311	1583.986	2131.2	1246.75
896.8736	1585.7575	2172.7	1290.2
897.0161	1587.5282	2203.75	1320.15
897.1585	1589.2981	2231.95	1347.65
897.3009	1591.0673	2243.9	1358.9
897.4433	1592.8358	2238.65	1354.65
897.5857	1594.6035	2254.35	1367.05
897.7281	1596.3704	2227.7	1343.4
897.8705	1598.1366	2200.3	1317.25
898.0128	1599.9021	2192.85	1309.1
898.1551	1601.6668	2153.8	1268.95
898.2975	1603.4308	2138.05	1254.05
898.4398	1605.194	2123.95	1233.8
898.5821	1606.9564	2138.8	1255.8
898.7243	1608.7182	2185.05	1296.7
898.8666	1610.4791	2246.25	1363.65
899.0088	1612.2394	2332.4	1449.9
899.1511	1613.9988	2427.55	1542.2
899.2933	1615.7576	2515.3	1631.65
899.4355	1617.5156	2574.2	1683.8
899.5776	1619.2728	2570.5	1685.75
899.7198	1621.0293	2491.4	1609.45
899.862	1622.785	2395.6	1509.7
900.0041	1624.54	2286.15	1400.85
900.1462	1626.2942	2163.6	1279.5
900.2883	1628.0477	2068.65	1182.15
900.4304	1629.8005	1996.15	1109.75
900.5725	1631.5525	1918.1	1033.3
900.7145	1633.3037	1869.65	985.2
900.8566	1635.0542	1832.6	949.05
900.9986	1636.804	1787.45	903.1
901.1406	1638.553	1817.4	883.85
901.2826	1640.3013	1751.7	866.05
901.4245	1642.0488	1724.4	838.9
901.5665	1643.7955	1717.1	831.95
901.7085	1645.5416	1706.8	823.95
901.8504	1647.2868	1699.7	817.1
901.9923	1649.0313	1684.15	798.8
902.1342	1650.7751	1678.2	792.05
902.2761	1652.5181	1674.55	791.65
902.4179	1654.2604	1672.75	789.15
902.5598	1656.0019	1682.15	799.25
902.7016	1657.7427	1684.85	799.55
902.8434	1659.4828	1693.2	808.05
902.9852	1661.222	1707.65	820.8
903.127	1662.9606	1738.35	853.2
903.2687	1664.6984	1780.75	896.25
903.4105	1666.4354	1800.8	914.05
903.5522	1668.1717	1797.95	913.65
903.6939	1669.9072	1755.45	870.4
903.8356	1671.642	1715.55	826.1
903.9773	1673.3761	1673.4	790.45
904.119	1675.1094	1637.35	752.7
904.2606	1676.8419	1624.15	738.6
904.4022	1678.5737	1600.5	715.35
904.5439	1680.3048	1594.25	707.95
904.6855	1682.0351	1583.35	697.7
904.827	1683.7646	1574.25	684.45
904.9686	1685.4934	1554.7	669.05
905.1101	1687.2215	1557.5	673.5
905.2517	1688.9488	1552.7	666.9
905.3932	1690.6754	1556.35	672.4
905.5347	1692.4012	1548.1	663.8
905.6761	1694.1263	1543.8	659.5
905.8176	1695.8506	1536.4	650
905.9591	1697.5742	1540.65	657.1
906.1005	1699.297	1531.55	647
906.2419	1701.0191	1524.25	639.55
906.3833	1702.7404	1527.45	642.2
906.5246	1704.461	1529.8	645.6
906.666	1706.1808	1522	636.15
906.8073	1707.8999	1513.5	626.95
906.9487	1709.6182	1504.75	619.4
907.09	1711.3358	1506.85	620.85
907.2313	1713.0527	1494.9	612.8
907.3725	1714.7688	1506.95	616.1
907.5138	1716.4841	1498.7	611.15
907.655	1718.1987	1500.8	611.2
907.7962	1719.9126	1484.65	601.9
907.9374	1721.6257	1496.65	609.8
908.0786	1723.338	1490	605.05
908.2198	1725.0496	1493.8	607.15
908.3609	1726.7605	1482.25	597.55
908.502	1728.4706	1486.6	599.6
908.6431	1730.18	1485.75	600.3
908.7842	1731.8886	1482.7	597.05
908.9253	1733.5964	1485.25	596.55
909.0664	1735.3036	1480.5	594.55
909.2074	1737.0099	1477	592.4
909.3484	1738.7156	1473.6	590.6
909.4894	1740.4204	1480.55	591.6
909.6304	1742.1246	1474.95	589.3
909.7714	1743.8279	1476.5	593.35
909.9123	1745.5306	1467.9	582.15
910.0532	1747.2325	1478.5	595.7
910.1941	1748.9336	1458.25	573.15
910.335	1750.634	1460	574.1
910.4759	1752.3336	1460.85	575.55
910.6168	1754.0325	1454.65	571
910.7576	1755.7307	1458.6	574.1
910.8984	1757.4281	1455.05	567.9
911.0392	1759.1247	1471	576.3
911.18	1760.8206	1466.85	577.55
911.3208	1762.5158	1462.9	573.45
911.4615	1764.2102	1454.25	570.4
911.6022	1765.9039	1445.7	562.25
911.7429	1767.5968	1447.85	562.2
911.8836	1769.289	1454.3	570.45
912.0243	1770.9804	1453.1	567.8
912.1649	1772.6711	1444.9	560.85
912.3056	1774.361	1446.7	559.7
912.4462	1776.0502	1443.3	557.65
912.5868	1777.7386	1438.8	551.1
912.7274	1779.4263	1444.9	556.55
912.8679	1781.1132	1442.25	557.45
913.0084	1782.7994	1443.95	556.5
913.149	1784.4849	1427	541.35
913.2895	1786.1696	1449	556.85
913.4299	1787.8535	1428.1	543.7
913.5704	1789.5367	1433.65	549.5
913.7108	1791.2192	1432.1	548.65
913.8513	1792.9009	1455.65	545.45
913.9917	1794.5818	1426.1	539.3
914.132	1796.2621	1424.35	540.4
914.2724	1797.9415	1424.1	540.4
914.4128	1799.6202	1419.2	534.9
914.5531	1801.2982	1423.6	541.05
914.6934	1802.9755	1414.9	529.05
914.8337	1804.6519	1416.4	529.75
914.9739	1806.3277	1418.4	535.3
915.1142	1808.0027	1416.15	531.95
915.2544	1809.6769	1420.05	534.7
915.3946	1811.3504	1409.7	522.6
915.5348	1813.0231	1408.55	524.8
915.675	1814.6951	1402.7	517.5
915.8151	1816.3664	1410.95	522.3
915.9553	1818.0369	1415.05	530.4
916.0954	1819.7067	1401	515.05
916.2355	1821.3757	1400.95	513.6
916.3755	1823.044	1396.55	511.9
916.5156	1824.7115	1400.45	515.8
916.6556	1826.3783	1392.4	508.65
916.7956	1828.0443	1392.35	507.65
916.9356	1829.7096	1397.25	511.25
917.0756	1831.3741	1394.95	507.8
917.2155	1833.0379	1401.5	518.4
917.3555	1834.701	1390.15	503.2
917.4954	1836.3633	1388.5	500.8
917.6353	1838.0248	1389.05	502.05
917.7751	1839.6856	1389.5	504.25
917.915	1841.3457	1385.75	501.75
918.0548	1843.005	1387.6	502.5
918.1946	1844.6636	1385.45	499.8
918.3344	1846.3214	1385.9	501.05
918.4742	1847.9785	1384.05	500.85
918.6139	1849.6349	1385.9	498.7
918.7537	1851.2904	1388.3	494.9
918.8934	1852.9453	1381	496.95
919.0331	1854.5994	1379.15	491.8
919.1727	1856.2528	1386.05	496.4
919.3124	1857.9054	1376.5	492.4
919.452	1859.5572	1374.1	490.95
919.5916	1861.2083	1380.7	494.35
919.7312	1862.8587	1379.1	493.15
919.8708	1864.5084	1372.05	485.95
920.0103	1866.1572	1372.35	489.55
920.1498	1867.8054	1367.05	483.55
920.2893	1869.4528	1370.15	483.75
920.4288	1871.0994	1368.8	483.15
920.5683	1872.7453	1369.15	482.45
920.7077	1874.3905	1370.6	481.3
920.8471	1876.0349	1361.85	474.35
920.9865	1877.6786	1369.2	482.3
921.1259	1879.3215	1367.45	483.3
921.2653	1880.9637	1361.95	473.25
921.4046	1882.6051	1361.85	477.95
921.5439	1884.2458	1364.35	475.4
921.6832	1885.8858	1358.4	471.4
921.8225	1887.525	1360.2	475.95
921.9617	1889.1634	1343.85	458.25
922.101	1890.8011	1352.5	467.7
922.2402	1892.4381	1346.95	462.15
922.3794	1894.0743	1357.6	473.35
922.5185	1895.7098	1355.1	470
922.6577	1897.3446	1351.6	465.35
922.7968	1898.9786	1353.5	463.25
922.9359	1900.6118	1344.4	460.85
923.075	1902.2443	1340.85	454.7
923.214	1903.8761	1336.9	452.5
923.3531	1905.5071	1344.35	455.6
923.4921	1907.1374	1336.75	451.75
923.6311	1908.7669	1342.85	458.1
923.77	1910.3957	1337.55	451.75
923.909	1912.0237	1334.15	447.2
924.0479	1913.651	1330.65	444.05
924.1868	1915.2776	1330.55	445.95
924.3257	1916.9034	1332.55	449.5
924.4646	1918.5285	1326.8	440.95
924.6034	1920.1528	1327.4	443.35
924.7422	1921.7764	1319.95	433
924.881	1923.3992	1322.5	438.05
925.0198	1925.0213	1327.45	443.65
925.1586	1926.6427	1321.7	438.15
925.2973	1928.2633	1391.7	438.35
925.436	1929.8832	1329.9	443.1
925.5747	1931.5023	1315.6	428.55
925.7134	1933.1207	1317.4	433.4
925.852	1934.7383	1315.6	429.25
925.9906	1936.3552	1318	432.6
926.1292	1937.9714	1315.4	430
926.2678	1939.5868	1311.65	426
926.4064	1941.2015	1317.05	431.55
926.5449	1942.8154	1310.65	424.65
926.6834	1944.4286	1309.3	424.4
926.8219	1946.041	1329.85	423.05
926.9604	1947.6528	1304.7	415
927.0988	1949.2637	1303.75	418.4
927.2372	1950.8739	1302.4	418.25
927.3756	1952.4834	1311.15	425.7
927.514	1954.0921	1300.15	412.5
927.6523	1955.7001	1300.65	411.45
927.7907	1957.3074	1301.75	416.95
927.929	1958.9139	1297.2	412.45
928.0673	1960.5197	1294.45	407.45
928.2055	1962.1247	1296.1	410.3
928.3438	1963.729	1296.15	412.45
928.482	1965.3325	1312.5	402.6
928.6202	1966.9353	1285.4	399.75
928.7584	1968.5374	1286.85	401.1
928.8965	1970.1387	1289.9	406
929.0346	1971.7393	1279.65	393.75
929.1727	1973.3392	1285.1	399.35
929.3108	1974.9383	1283.4	398.65
929.4489	1976.5366	1284.15	398.75
929.5869	1978.1342	1277.65	390.35
929.7249	1979.7311	1283.6	395.65
929.8629	1981.3273	1274.5	391
930.0009	1982.9227	1282.75	395.25
930.1388	1984.5173	1273.15	388.9
930.2767	1986.1112	1276.6	391.95
930.4146	1987.7044	1274.05	390.1
930.5525	1989.2968	1274.85	388.85
930.6904	1990.8885	1277.9	389.95
930.8282	1992.4795	1273.9	388.35
930.966	1994.0697	1269.3	386.65
931.1038	1995.6592	1264.9	379.75
931.2415	1997.2479	1268.25	384.75
931.3793	1998.8359	1271.05	384.3
931.517	2000.4232	1267.9	383.8
931.6547	2002.0097	1261.7	380.3
931.7923	2003.5955	1262.95	376.15
931.93	2005.1805	1265.4	378.3
932.0676	2006.7648	1261.15	377.2
932.2052	2008.3484	1261.4	377.1
932.3427	2009.9312	1264.05	377.95
932.4803	2011.5133	1260.95	376.8
932.6178	2013.0946	1259.85	377.15
932.7553	2014.6752	1254.05	370.9
932.8928	2016.2551	1265.65	379.5
933.0302	2017.8342	1256.05	371.45
933.1676	2019.4126	1252.3	369.3
933.305	2020.9902	1250.15	366.35
933.4424	2022.5672	1250.7	363.7
933.5798	2024.1433	1252.6	362.05
933.7171	2025.7188	1253	371.3
933.8544	2027.2935	1250.25	365.35
933.9917	2028.8674	1243.2	357.9
934.129	2030.4406	1248.6	364.6
934.2662	2032.0131	1245.25	361.05
934.4034	2033.5849	1251.05	356.9
934.5406	2035.1559	1241.4	357.85
934.6778	2036.7261	1240.15	355.85
934.8149	2038.2957	1247.9	365.45
934.952	2039.8645	1242.85	358.1
935.0891	2041.4325	1243.95	357.5
935.2262	2042.9998	1236	351.25
935.3632	2044.5664	1245.5	360.45
935.5002	2046.1323	1238.25	353.85
935.6372	2047.6974	1237.9	352.65
935.7742	2049.2617	1239.05	354.55
935.9111	2050.8254	1260.5	354.9
936.048	2052.3883	1243.1	356.3
936.1849	2053.9504	1241.95	358.35
936.3218	2055.5118	1235.25	349.75
936.4586	2057.0725	1242.45	354.9
936.5955	2058.6325	1237.75	353.1
936.7323	2060.1917	1234.35	350.4
936.869	2061.7502	1239.45	354.6
937.0058	2063.3079	1237.45	354.05
937.1425	2064.8649	1234.15	345.2
937.2792	2066.4212	1234.8	350.35
937.4159	2067.9767	1228.1	345
937.5525	2069.5315	1230.15	345.85
937.6891	2071.0856	1230.15	345.1
937.8257	2072.6389	1229.25	344.95
937.9623	2074.1915	1223.3	338.65
938.0989	2075.7433	1230.25	344.35
938.2354	2077.2945	1225.6	342.95
938.3719	2078.8448	1218.65	332.1
938.5084	2080.3945	1224.15	339.25
938.6448	2081.9434	1219.15	335.7
938.7812	2083.4916	1221.4	336.45
938.9176	2085.039	1222.2	337.7
939.054	2086.5857	1218.55	332.95
939.1903	2088.1317	1219.05	333.4
939.3267	2089.677	1223.75	337.8
939.463	2091.2215	1216.2	332.45
939.5992	2092.7652	1219.95	334.05
939.7355	2094.3083	1216.35	329.9
939.8717	2095.8506	1212.75	330.35
940.0079	2097.3921	1215.65	332.5
940.1441	2098.933	1220.35	335.8
940.2802	2100.4731	1215.9	333.1
940.4163	2102.0124	1231.4	330.2
940.5524	2103.5511	1211.85	329.35
940.6885	2105.089	1218.65	332.3
940.8245	2106.6261	1209.9	326.55
940.9606	2108.1626	1214.85	330.85
941.0965	2109.6983	1242.05	329.6
941.2325	2111.2332	1210.5	326.3
941.3684	2112.7675	1212.1	326.25
941.5044	2114.301	1215.3	328.3
941.6403	2115.8337	1217.8	332.25
941.7761	2117.3657	1209.65	325
941.912	2118.897	1203.45	317.6
942.0478	2120.4276	1211.3	322.8
942.1835	2121.9575	1204.35	317.25
942.3193	2123.4866	1224.8	326.5
942.455	2125.0149	1209.85	321.35
942.5907	2126.5426	1202.55	319.05
942.7264	2128.0695	1208.3	321.45
942.8621	2129.5956	1203.3	320.3
942.9977	2131.1211	1206.4	316.5
943.1333	2132.6458	1199.9	316.55
943.2689	2134.1698	1201.55	317.15
943.4044	2135.693	1205.45	319.4
943.54	2137.2155	1202.35	314.6
943.6755	2138.7373	1199.4	315.2
943.8109	2140.2584	1195.9	312
943.9464	2141.7787	1198.4	307.15
944.0818	2143.2983	1198.05	313.15
944.2172	2144.8171	1196.3	314.2
944.3526	2146.3353	1197.9	311.7
944.4879	2147.8527	1196.4	314.3
944.6232	2149.3693	1196.55	311.75
944.7585	2150.8853	1193	309.25
944.8938	2152.4005	1194.45	310.2
945.029	2153.9149	1192.85	307.25
945.1642	2155.4287	1298.6	305.45
945.2994	2156.9417	1194.9	306.5
945.4346	2158.454	1191	304.9
945.5697	2159.9655	1187.65	302.05
945.7048	2161.4764	1187.3	303.25
945.8399	2162.9865	1190.55	306.45
945.9749	2164.4958	1194.9	309.85
946.1099	2166.0045	1191.6	304.5
946.2449	2167.5124	1185.85	303.3
946.3799	2169.0195	1182.45	297.2
946.5148	2170.526	1187.85	302.35
946.6498	2172.0317	1181.95	297.2
946.7846	2173.5367	1186.5	300.15
946.9195	2175.0409	1185.95	301.75
947.0543	2176.5445	1184.6	300.85
947.1891	2178.0473	1187	301.35
947.3239	2179.5494	1186.65	299.1
947.4587	2181.0507	1178.65	294.45
947.5934	2182.5513	1177.5	293.35
947.7281	2184.0512	1172.05	287.1
947.8628	2185.5504	1171.3	287
947.9974	2187.0488	1168.95	284.45
948.132	2188.5465	1176	290.95
948.2666	2190.0435	1179.6	294.7
948.4012	2191.5397	1171.45	285.75
948.5357	2193.0353	1176.9	294.3
948.6702	2194.5301	1170.95	283.9
948.8047	2196.0241	1171.75	287.85
948.9392	2197.5175	1173.3	290.25
949.0736	2199.0101	1174	285.7
949.208	2200.502	1170.1	287.15
949.3424	2201.9931	1162.15	276.85
949.4767	2203.4835	1161.55	275.2
949.611	2204.9733	1183.1	283.5
949.7453	2206.4622	1166.5	281.95
949.8796	2207.9505	1165.7	279.05
950.0138	2209.438	1159.8	277.3
950.148	2210.9248	1163.6	276.6
950.2822	2212.4109	1160.3	278
950.4164	2213.8962	1162.3	276.35
950.5505	2215.3809	1159.85	275
950.6846	2216.8648	1157.2	271.2
950.8186	2218.3479	1165.35	278.75
950.9527	2219.8304	1163.35	275.9
951.0867	2221.3121	1158.65	273.3
951.2207	2222.7931	1155.45	271.5
951.3546	2224.2733	1159.45	275.35
951.4886	2225.7529	1150.6	265.6
951.6225	2227.2317	1150.65	262.7
951.7563	2228.7098	1153.45	269
951.8902	2230.1872	1151.2	266.55
952.024	2231.6638	1151.95	266.5
952.1578	2233.1397	1150.7	263.6
952.2916	2234.6149	1150.1	265.85
952.4253	2236.0894	1148.75	265.85
952.559	2237.5632	1145.8	260.55
952.6927	2239.0362	1144.95	260.35
952.8263	2240.5085	1148.4	265.45
952.9599	2241.9801	1144.45	259.6
953.0935	2243.4509	1141.85	258
953.2271	2244.921	1140.2	254.9
953.3606	2246.3904	1144.8	258.45
953.4941	2247.8591	1143.85	258.9
953.6276	2249.3271	1144.1	260.55
953.7611	2250.7943	1143.9	256.65
953.8945	2252.2608	1141.9	259.8
954.0279	2253.7266	1139.65	255.9
954.1612	2255.1917	1134.8	251.55
954.2946	2256.656	1137.35	250.9
954.4279	2258.1197	1131.3	247.15
954.5612	2259.5826	1136.95	249.25
954.6944	2261.0447	1138.5	253.6
954.8276	2262.5062	1139.35	252.65
954.9608	2263.9669	1138.35	253.25
955.094	2265.4269	1131.15	247.5
955.2271	2266.8862	1132.55	247.65
955.3602	2268.3448	1129.8	245.05
955.4933	2269.8026	1132.65	248.55
955.6264	2271.2598	1130.65	246.9
955.7594	2272.7162	1128.05	243.7
955.8924	2274.1719	1126.55	242.15
956.0253	2275.6268	1128.65	244.2
956.1583	2277.0811	1130.75	246.85
956.2912	2278.5346	1121.55	237.85
956.4241	2279.9874	1133	248.25
956.5569	2281.4395	1123.9	240.05
956.6897	2282.8908	1126.8	237.9
956.8225	2284.3414	1131.05	243.75
956.9553	2285.7914	1126.6	244.05
957.088	2287.2406	1125.3	238.9
957.2207	2288.689	1116.45	232.65
957.3534	2290.1368	1121.35	234.25
957.486	2291.5838	1122.6	235.6
957.6186	2293.0302	1128.4	242.5
957.7512	2294.4758	1117	232.25
957.8838	2295.9206	1122.8	237.15
958.0163	2297.3648	1124.8	243
958.1488	2298.8082	1121.4	237.3
958.2813	2300.251	1116.8	233.35
958.4137	2301.693	1124.85	236.45
958.5461	2303.1343	1113.3	228.8
958.6785	2304.5748	1111.85	227.15
958.8108	2306.0147	1118.4	233.25
958.9432	2307.4538	1116.8	231.05
959.0754	2308.8922	1109.9	227.55
959.2077	2310.3299	1109.1	224.3
959.3399	2311.7669	1113.4	229.8
959.4721	2313.2031	1112.95	227.6
959.6043	2314.6387	1117.5	234.4
959.7365	2316.0735	1109	225.2
959.8686	2317.5076	1110.2	226.85
960.0006	2318.941	1110.9	226.05
960.1327	2320.3737	1107.35	222.8
960.2647	2321.8056	1106.05	218.2
960.3967	2323.2369	1114.5	228.15
960.5287	2324.6674	1113.45	226.5
960.6606	2326.0972	1110.55	224.6
960.7925	2327.5263	1109.65	225.85
960.9244	2328.9547	1115.45	230.2
961.0562	2330.3823	1112.1	226.35
961.1881	2331.8092	1111	222
961.3198	2333.2355	1102.85	217.9
961.4516	2334.661	1105.9	221
961.5833	2336.0858	1101	212.8
961.715	2337.5098	1102.2	218.4
961.8467	2338.9332	1099.3	213.65
961.9783	2340.3558	1103.75	215.4
962.1099	2341.7778	1101.05	215.75
962.2415	2343.199	1101.55	215.05
962.373	2344.6195	1097.8	214.85
962.5045	2346.0393	1094.2	210
962.636	2347.4583	1096.35	210.7
962.7675	2348.8767	1097.2	210.15
962.8989	2350.2943	1095.45	209.75
963.0303	2351.7113	1099.7	211.5
963.1617	2353.1275	1096.05	210.05
963.293	2354.543	1121	212
963.4243	2355.9578	1096.75	210.85
963.5556	2357.3718	1090.25	204.9
963.6868	2358.7852	1097.65	210.2
963.818	2360.1978	1092.85	207.25
963.9492	2361.6098	1091.55	209.3
964.0803	2363.021	1089.65	200.2
964.2114	2364.4315	1093.05	206.65
964.3425	2365.8413	1091.35	203.35
964.4736	2367.2504	1088.45	205.15
964.6046	2368.6587	1087.2	203.9
964.7356	2370.0664	1086.8	205
964.8666	2371.4733	1089.75	204.35
964.9975	2372.8795	1089.4	206.95
965.1284	2374.285	1088.55	202.85
965.2593	2375.6899	1083.1	199.5
965.3901	2377.0939	1088.9	203.9
965.5209	2378.4973	1085.45	202.05
965.6517	2379.9	1086.85	200.5
965.7825	2381.3019	1083.8	199.75
965.9132	2382.7032	1083.85	200.9
966.0439	2384.1037	1082.45	199.35
966.1745	2385.5035	1087.05	203.9
966.3051	2386.9027	1081.05	196.55
966.4357	2388.3011	1083.05	194.3
966.5663	2389.6987	1077.65	191.35
966.6968	2391.0957	1080.8	197.8
966.8273	2392.492	1073.55	187.65
966.9578	2393.8876	1072.65	191.75
967.0882	2395.2824	1078.45	193.4
967.2186	2396.6765	1078.95	194.35
967.349	2398.07	1075.35	192.1
967.4793	2399.4627	1074.9	188.9
967.6097	2400.8547	1074.65	188.95
967.7399	2402.246	1078.1	186.65
967.8702	2403.6366	1070.9	183.6
968.0004	2405.0265	1072	188.2
968.1306	2406.4156	1071.05	179.7
968.2607	2407.8041	1071	184.8
968.3909	2409.1918	1073.65	187.25
968.521	2410.5789	1070.15	183.6
968.651	2411.9652	1069.45	182.75
968.781	2413.3508	1071.95	182.65
968.911	2414.7358	1071.4	185.85
969.041	2416.12	1068.6	183.3
969.1709	2417.5035	1067.2	181.6
969.3008	2418.8863	1065.45	180.2
969.4307	2420.2684	1068.3	182.3
969.5606	2421.6497	1067.2	180
969.6904	2423.0304	1059.7	174.6
969.8201	2424.4104	1063.8	178.15
969.9499	2425.7896	1065.9	180.25
970.0796	2427.1682	1061.15	176.4
970.2093	2428.546	1061.35	175.05
970.3389	2429.9232	1066.3	181
970.4685	2431.2996	1064.25	178.15
970.5981	2432.6753	1058.95	174.55
970.7277	2434.0503	1058.3	172.7
970.8572	2435.4246	1052.75	166.95
970.9867	2436.7982	1060.85	173.75
971.1161	2438.1711	1060.9	175.95
971.2456	2439.5433	1059	172.9
971.375	2440.9148	1066.25	176.25
971.5043	2442.2856	1058.6	173.3
971.6336	2443.6557	1055.6	170.95
971.7629	2445.025	1058.65	172.5
971.8922	2446.3937	1055.4	170.35
972.0214	2447.7617	1055.75	171.45
972.1506	2449.1289	1052.45	165.7
972.2798	2450.4955	1056.3	167.9
972.4089	2451.8613	1049.45	162.65
972.538	2453.2265	1051.2	167.85
972.6671	2454.5909	1055.2	170.9
972.7961	2455.9546	1049.15	165.45
972.9251	2457.3177	1047.85	163.45
973.0541	2458.68	1051.15	165.3
973.1831	2460.0416	1048.1	164
973.312	2461.4025	1049.25	162.35
973.4408	2462.7627	1061.8	165.05
973.5697	2464.1222	1052.5	169.1
973.6985	2465.4811	1049.75	161.95
973.8273	2466.8392	1049.05	164.6
973.956	2468.1966	1054.25	165.2
974.0847	2469.5533	1050.8	162.85
974.2134	2470.9093	1046.4	161.05
974.3421	2472.2645	1045.2	159.1
974.4707	2473.6191	1046.5	162.35
974.5993	2474.973	1044.65	161.5
974.7278	2476.3262	1046.9	158.45
974.8563	2477.6787	1043.3	158.35
974.9848	2479.0305	1039.45	154.95
975.1132	2480.3816	1047.65	160.9
975.2417	2481.7319	1045.95	160.4
975.37	2483.0816	1041.1	153.85
975.4984	2484.4306	1042.8	155.9
975.6267	2485.7789	1041.35	156.75
975.755	2487.1264	1039	152.75
975.8833	2488.4733	1036.9	154.1
976.0115	2489.8195	1043.85	152.45
976.1397	2491.165	1039.1	151.45
976.2678	2492.5097	1040.7	153.7
976.3959	2493.8538	1034.65	150.1
976.524	2495.1972	1038.9	154.9
976.6521	2496.5398	1040.1	154.85
976.7801	2497.8818	1040.35	154.85
976.9081	2499.2231	1037.4	150.7
977.036	2500.5637	1034.3	148.1
977.164	2501.9035	1034.7	147.7
977.2918	2503.2427	1042.7	153.4
977.4197	2504.5812	1030.45	146.1
977.5475	2505.919	1036.85	149.8
977.6753	2507.256	1034.7	150.25
977.8031	2508.5924	1031.25	148.3
977.9308	2509.9281	1038.15	146.35
978.0585	2511.2631	1033.4	148.3
978.1861	2512.5974	1032	146.55
978.3137	2513.9309	1029.65	145.55
978.4413	2515.2638	1055.8	146.05
978.5689	2516.596	1029.5	143.65
978.6964	2517.9275	1033.05	146.2
978.8239	2519.2583	1027.9	142.75
978.9513	2520.5884	1029.25	142.45
979.0788	2521.9178	1029.85	145.35
979.2062	2523.2465	1026	141.55
979.3335	2524.5745	1029.25	145.05
979.4608	2525.9018	1029.2	142.7
979.5881	2527.2284	1025.1	141.4
979.7154	2528.5543	1028.45	144
979.8426	2529.8796	1024.4	139.25
979.9698	2531.2041	1023.15	138.35
980.0969	2532.5279	1023.55	138.35
980.224	2533.851	1026.7	141
980.3511	2535.1735	1023.1	138.35
980.4781	2536.4952	1021.85	136.5
980.6052	2537.8163	1020.75	133.8
980.7321	2539.1366	1018.1	134.45
980.8591	2540.4562	1025.8	138.9
980.986	2541.7752	1021.1	137.55
981.1129	2543.0935	1025.3	139.15
981.2397	2544.411	1021.8	134.4
981.3665	2545.7279	1025.85	141.9
981.4933	2547.0441	1019.15	133.05
981.62	2548.3596	1026.8	137.3
981.7467	2549.6744	1020.65	137.5
981.8734	2550.9885	1026.6	133.1
982.0001	2552.3019	1018.25	136.05
982.1267	2553.6146	1018.5	134.4
982.2532	2554.9266	1018.5	133.4
982.3798	2556.2379	1017.8	132.9
982.5063	2557.5485	1013.5	127.3
982.6327	2558.8585	1025.85	133.6
982.7592	2560.1677	1020.85	130.6
982.8856	2561.4762	1015.35	129.8
983.0119	2562.7841	1022.1	133.8
983.1383	2564.0913	1016.55	133.5
983.2646	2565.3977	1018.85	134.5
983.3908	2566.7035	1016.15	130.3
983.517	2568.0086	1015.5	126.65
983.6432	2569.313	1010.9	126.85
983.7694	2570.6167	1013.2	123.5
983.8955	2571.9197	1013.8	128.85
984.0216	2573.222	1019.1	129.9
984.1476	2574.5236	1017.2	131.25
984.2737	2575.8246	1016.15	128.8
984.3996	2577.1248	1013.1	125.6
984.5256	2578.4244	1015.95	132.35
984.6515	2579.7232	1013.05	128
984.7774	2581.0214	1043.25	128.1
984.9032	2582.3189	1008.65	124.55
985.029	2583.6157	1028	129.1
985.1548	2584.9118	1010.4	125.5
985.2806	2586.2072	1009.2	123.8
985.4063	2587.5019	1011.05	126.65
985.5319	2588.7959	1011.45	124.85
985.6576	2590.0893	1015.4	128.7
985.7832	2591.3819	1011.5	128.8
985.9087	2592.6739	1005.05	121
986.0343	2593.9652	1012.1	125.2
986.1597	2595.2557	1008.2	125.3
986.2852	2596.5456	1011.7	124.75
986.4106	2597.8348	1006.55	123.75
986.536	2599.1234	1011.05	126.25
986.6614	2600.4112	1008.75	124.3
986.7867	2601.6983	1011.05	122.85
986.912	2602.9848	1012.15	126.05
987.0372	2604.2705	1013.2	121.8
987.1624	2605.5556	1006.8	120.1
987.2876	2606.84	1007.45	122.8
987.4128	2608.1237	1007.15	121.45
987.5379	2609.4067	1007.7	123.55
987.6629	2610.689	1013.7	120.85
987.788	2611.9707	1006.9	117.3
987.913	2613.2516	1006.6	116.2
988.0379	2614.5319	1005.9	122.4
988.1629	2615.8115	1006.2	119.55
988.2878	2617.0903	1005.05	118.45
988.4126	2618.3685	1001.6	117.15
988.5375	2619.6461	1001.4	116.55
988.6622	2620.9229	1000.1	116.55
988.787	2622.199	1003.15	116.45
988.9117	2623.4745	998.7	113.35
989.0364	2624.7493	998.35	112.15
989.161	2626.0234	999.5	113.8
989.2857	2627.2968	999.7	114.95
989.4102	2628.5695	1000.8	114.35
989.5348	2629.8415	998.05	113.45
989.6593	2631.1128	998.3	112.95
989.7837	2632.3835	996.85	111.65
989.9082	2633.6535	998.15	112.95
990.0326	2634.9228	995.9	110.15
990.1569	2636.1914	994.2	108.7
990.2812	2637.4593	1002.15	109.2
990.4055	2638.7265	1000.05	112.9
990.5298	2639.9931	994.4	108.2
990.654	2641.259	998.3	112.9
990.7782	2642.5242	993.15	107.7
990.9023	2643.7887	992.7	107.6
991.0264	2645.0525	995.55	109.35
991.1505	2646.3156	1008.95	110.7
991.2745	2647.5781	994.65	110.75
991.3985	2648.8398	989.95	104.75
991.5225	2650.1009	996.85	103.95
991.6464	2651.3613	990.4	106.4
991.7703	2652.6211	991.3	105.5
991.8942	2653.8801	991.9	106.55
992.018	2655.1385	992.6	105.25
992.1418	2656.3961	992.3	106.6
992.2655	2657.6531	990.95	105.9
992.3892	2658.9094	988.95	102.95
992.5129	2660.1651	988.45	104.7
992.6366	2661.42	990.65	105.6
992.7602	2662.6743	990.05	104.4
992.8837	2663.9279	986.7	101
993.0073	2665.1808	990	103.45
993.1307	2666.433	987.75	103.65
993.2542	2667.6846	989.55	103.55
993.3776	2668.9354	991	103.45
993.501	2670.1856	990.9	103.95
993.6244	2671.4351	990.6	107.45
993.7477	2672.6839	989.1	101.7
993.8709	2673.9321	982.55	96.65
993.9942	2675.1795	987.25	101.05
994.1174	2676.4263	987.8	102.55
994.2405	2677.6724	988.35	103.1
994.3637	2678.9179	989.05	102.35
994.4868	2680.1626	987.7	102
994.6098	2681.4067	986.85	101.75
994.7328	2682.6501	987.4	102.35
994.8558	2683.8928	987.6	102.7
994.9788	2685.1348	983.75	97.3
995.1017	2686.3761	983.4	98.65
995.2245	2687.6168	982	97.75
995.3474	2688.8568	983.85	98.55
995.4702	2690.0961	981.7	96
995.5929	2691.3348	982.85	97.4
995.7156	2692.5727	982.15	95.85
995.8383	2693.81	982	97.8
995.961	2695.0466	977.4	92.9
996.0836	2696.2826	982.05	96.85
996.2062	2697.5178	985.45	98.4
996.3287	2698.7524	980.6	95.75
996.4512	2699.9863	984.45	99.3
996.5737	2701.2195	983.7	100.1
996.6961	2702.452	983	95.8
996.8185	2703.6839	979.75	93.9
996.9408	2704.9151	983.35	98.2
997.0631	2706.1456	980.9	96.35
997.1854	2707.3755	982.65	97.9
997.3077	2708.6046	981.35	94.2
997.4299	2709.8331	981.5	97.25
997.552	2711.0609	979.6	94
997.6742	2712.2881	978.15	94.05
997.7963	2713.5145	983.4	94.85
997.9183	2714.7403	979.1	95.75
998.0403	2715.9654	982.45	96.8
998.1623	2717.1899	995.8	97.05
998.2842	2718.4136	983.25	99.35
998.4062	2719.6367	980.3	96.3
998.528	2720.8591	989.15	96.55
998.6498	2722.0809	985.3	98.7
998.7716	2723.3019	989.4	101.05
998.8934	2724.5223	986	101.2
999.0151	2725.7421	986.1	98.05
999.1368	2726.9611	985.35	99.45
999.2584	2728.1795	989.65	100
999.38	2729.3972	982.2	98.15
999.5016	2730.6142	993.85	96.8
999.6231	2731.8306	981.25	94.95
999.7446	2733.0462	978.1	91.95
999.8661	2734.2612	981.95	91.95
999.9875	2735.4756	976.45	89.05
1000.1089	2736.6892	974.75	88.05
1000.2302	2737.9022	972.45	88.2
1000.3515	2739.1145	971.25	86.9
1000.4728	2740.3262	978.1	86.35
1000.594	2741.5372	972.75	87.1
1000.7152	2742.7475	973.45	90.15
1000.8363	2743.9571	973.9	88.25
1000.9575	2745.1661	974.35	84.85
1001.0785	2746.3744	970.95	84.85
1001.1996	2747.582	969.35	84.55
1001.3206	2748.7889	970.6	85.8
1001.4415	2749.9952	969.35	84
1001.5625	2751.2008	970.9	85.15
1001.6833	2752.4057	968.65	82.95
1001.8042	2753.61	967.7	81.55
1001.925	2754.8136	967.5	79.95
1002.0458	2756.0165	961.95	77.9
1002.1665	2757.2188	963.45	81.4
1002.2872	2758.4204	966.3	81.65
1002.4078	2759.6213	965.9	78.05
1002.5285	2760.8215	971.05	82.35
1002.649	2762.0211	965.55	79.45
1002.7696	2763.22	966.5	79.7
1002.8901	2764.4182	961.3	74.7
1003.0106	2765.6158	963.6	76.1
1003.131	2766.8127	963.55	77.95
1003.2514	2768.009	962.95	78.9
1003.3717	2769.2045	962.25	75.9
1003.492	2770.3994	962.95	76.3
1003.6123	2771.5936	964.85	80.55
1003.7325	2772.7872	960.65	74.4
1003.8527	2773.9801	963.95	77.55
1003.9729	2775.1723	978	76.55
1004.093	2776.3639	960.9	76.85
1004.2131	2777.5548	962.55	76.4
1004.3331	2778.745	959.75	73.35
1004.4531	2779.9346	957.15	72.1
1004.5731	2781.1235	959.85	73.8
1004.693	2782.3117	959.2	76.05
1004.8129	2783.4992	960.45	75.45
1004.9328	2784.6861	956.15	71.35
1005.0526	2785.8723	960.55	76
1005.1723	2787.0579	958.05	73.05
1005.2921	2788.2428	957.95	73.2
1005.4118	2789.427	955.1	70.75
1005.5314	2790.6106	956.7	70.65
1005.651	2791.7935	956.65	71.1
1005.7706	2792.9757	956.5	73.25
1005.8902	2794.1573	959.8	72.15
1006.0097	2795.3382	955.8	71.5
1006.1291	2796.5184	955	71.3
1006.2485	2797.698	958.1	73.05
1006.3679	2798.8769	955.85	70.95
1006.4873	2800.0551	956.15	72.35
1006.6066	2801.2327	959.2	71.3
1006.7258	2802.4096	957.9	71.3
1006.8451	2803.5859	959.35	74.6
1006.9642	2804.7615	963.2	77.4
1007.0834	2805.9364	960.25	77.7
1007.2025	2807.1106	957.55	73.45
1007.3216	2808.2842	958.95	73.65
1007.4406	2809.4572	961.95	76.7
1007.5596	2810.6294	963.8	79.25
1007.6785	2811.801	958.05	73.65
1007.7975	2812.972	962.6	76.75
1007.9163	2814.1423	964.85	79.75
1008.0352	2815.3119	965.35	81.4
1008.154	2816.4808	967.05	83.75
1008.2727	2817.6491	967.5	80.85
1008.3914	2818.8167	972.05	89
1008.5101	2819.9837	983.6	94.65
1008.6288	2821.15	980.15	95.55
1008.7474	2822.3157	984.8	100.95
1008.8659	2823.4807	990.85	105.1
1008.9844	2824.645	997.8	112.1
1009.1029	2825.8086	1004.3	120.35
1009.2214	2826.9716	1009.75	125.85
1009.3398	2828.134	1025.8	140.85
1009.4581	2829.2957	1025.95	140.4
1009.5764	2830.4567	1024.25	140.9
1009.6947	2831.617	1032.7	148.35
1009.813	2832.7767	1035.25	152.6
1009.9312	2833.9358	1034.7	152.2
1010.0493	2835.0941	1036.45	149.65
1010.1675	2836.2519	1030.45	146
1010.2855	2837.4089	1031.55	146.8
1010.4036	2838.5653	1022.45	135.45
1010.5216	2839.7211	1020.85	136.5
1010.6396	2840.8761	1021	136.1
1010.7575	2842.0306	1020.4	137.3
1010.8754	2843.1843	1017.25	133.15
1010.9932	2844.3374	1023.7	140.85
1011.111	2845.4899	1022.45	138.7
1011.2288	2846.6417	1018.85	136.15
1011.3465	2847.7928	1022.7	137.65
1011.4642	2848.9433	1023.7	140.8
1011.5818	2850.0931	1027.7	142.4
1011.6995	2851.2422	1027.6	139.75
1011.817	2852.3907	1029.45	144.05
1011.9345	2853.5385	1029.1	143.4
1012.052	2854.6857	1031.3	139.05
1012.1695	2855.8323	1027.75	142.25
1012.2869	2856.9781	1028.55	144.9
1012.4042	2858.1233	1034.05	148.2
1012.5216	2859.2679	1030.7	147.05
1012.6389	2860.4118	1040.1	156.35
1012.7561	2861.555	1044.7	153.5
1012.8733	2862.6976	1044.2	158.05
1012.9905	2863.8395	1046.35	164.25
1013.1076	2864.9808	1049.45	166.3
1013.2247	2866.1214	1044.75	163.05
1013.3417	2867.2614	1051.25	167.95
1013.4587	2868.4007	1056.1	172
1013.5757	2869.5393	1056.8	171.1
1013.6926	2870.6773	1059.45	172.8
1013.8095	2871.8146	1061.1	174
1013.9263	2872.9513	1062	173.35
1014.0431	2874.0874	1059.05	176.25
1014.1599	2875.2227	1063.65	178.8
1014.2766	2876.3574	1066.9	182.05
1014.3933	2877.4915	1064.95	180.2
1014.51	2878.6249	1074.3	190.6
1014.6266	2879.7577	1069.4	185.2
1014.7431	2880.8898	1083.8	188.45
1014.8596	2882.0212	1072.5	189.05
1014.9761	2883.152	1073.95	191.45
1015.0925	2884.2821	1078.7	196.7
1015.2089	2885.4116	1079.4	194.3
1015.3253	2886.5405	1077.1	193.65
1015.4416	2887.6686	1092.4	204.95
1015.5579	2888.7962	1085.05	201.2
1015.6741	2889.923	1084.6	199.55
1015.7903	2891.0493	1076.55	192.15
1015.9065	2892.1748	1082.95	199.5
1016.0226	2893.2997	1085.35	199.25
1016.1387	2894.424	1081.8	199.65
1016.2547	2895.5476	1082.05	198.25
1016.3707	2896.6706	1080.7	198.4
1016.4866	2897.7929	1085.5	201.55
1016.6025	2898.9145	1077.1	192.25
1016.7184	2900.0355	1080.95	195.15
1016.8342	2901.1559	1084.4	196.9
1016.95	2902.2756	1082.45	193
1017.0658	2903.3946	1078.65	195.4
1017.1815	2904.513	1083	194.45
1017.2971	2905.6308	1075.65	193.3
1017.4127	2906.7479	1075.85	192
1017.5283	2907.8643	1073.9	187.85
1017.6439	2908.9801	1073.05	189.6
1017.7594	2910.0953	1074.65	190.95
1017.8748	2911.2098	1079.9	193.65
1017.9902	2912.3236	1079.6	187.2
1018.1056	2913.4368	1073.8	185.55
1018.2209	2914.5494	1072.9	188.9
1018.3362	2915.6613	1078.5	188.75
1018.4515	2916.7725	1070.25	183.65
1018.5667	2917.8831	1070.15	183.75
1018.6819	2918.9931	1066.85	179.95
1018.797	2920.1024	1064.5	178.5
1018.9121	2921.211	1059.15	174.65
1019.0271	2922.319	1054.75	170.8
1019.1421	2923.4264	1053.5	169.45
1019.2571	2924.5331	1058.95	175.05
1019.372	2925.6391	1051.75	168.15
1019.4869	2926.7445	1056.4	173.8
1019.6017	2927.8493	1052.5	166.95
1019.7165	2928.9534	1054.9	171.3
1019.8313	2930.0569	1057.55	171.75
1019.946	2931.1597	1058.3	170.55
1020.0606	2932.2619	1056.35	171
1020.1753	2933.3634	1057.8	173.75
1020.2899	2934.4643	1067.35	175.65
1020.4044	2935.5645	1067.45	176.8
1020.5189	2936.6641	1065.4	179.75
1020.6334	2937.763	1060.3	176.6
1020.7478	2938.8613	1064.1	179.5
1020.8622	2939.959	1066.45	177.8
1020.9765	2941.056	1054.85	171.95
1021.0908	2942.1523	1053.85	167.1
1021.2051	2943.248	1047.85	162.5
1021.3193	2944.3431	1042.7	158.85
1021.4334	2945.4375	1037	151.8
1021.5476	2946.5313	1025.85	142.55
1021.6617	2947.6244	1017.65	133.15
1021.7757	2948.7169	1017	132.4
1021.8897	2949.8087	1009	126.7
1022.0037	2950.8999	1002.35	117.3
1022.1176	2951.9904	998.15	116.55
1022.2315	2953.0803	996.15	108.45
1022.3453	2954.1696	986.5	103.5
1022.4591	2955.2582	986.85	103.3
1022.5728	2956.3462	983.8	100.5
1022.6865	2957.4335	984.3	99.85
1022.8002	2958.5202	983.6	98.4
1022.9138	2959.6062	981.75	97.85
1023.0274	2960.6916	981.25	98.1
1023.141	2961.7764	984.55	100.95
1023.2545	2962.8605	982	96.75
1023.3679	2963.9439	981.65	98.4
1023.4813	2965.0267	982	97.95
1023.5947	2966.1089	1005.05	97.05
1023.708	2967.1905	981.3	96.15
1023.8213	2968.2714	978	95.35
1023.9346	2969.3516	974.55	90.4
1024.0478	2970.4312	980.85	88.85
1024.1609	2971.5102	974.35	89.05
1024.274	2972.5885	973.15	88.2
1024.3871	2973.6662	983.8	91.65
1024.5002	2974.7432	976.15	92.25
1024.6132	2975.8196	978.95	94.05
1024.7261	2976.8954	974.9	91.8
1024.839	2977.9705	976.75	93.05
1024.9519	2979.045	971.2	86.85
1025.0647	2980.1188	975.95	90.15
1025.1775	2981.192	972.4	90
1025.2902	2982.2645	975.05	89.25
1025.4029	2983.3364	969.8	85.5
1025.5156	2984.4077	971.85	87.85
1025.6282	2985.4783	971.65	82.5
1025.7407	2986.5483	963	78.65
1025.8532	2987.6177	961.75	77.9
1025.9657	2988.6864	963.05	79.1
1026.0782	2989.7545	963.5	76.9
1026.1906	2990.8219	961.2	76.75
1026.3029	2991.8887	958	71.6
1026.4152	2992.9548	954.95	70.4
1026.5275	2994.0204	948.55	65
1026.6397	2995.0852	948.4	65.75
1026.7519	2996.1495	947	62.35
1026.864	2997.2131	941.4	57
1026.9761	2998.276	942	58.6
1027.0882	2999.3383	941.45	58.05
1027.2002	3000.4	941.3	55.85
1027.3122	3001.4611	934.1	50.2
1027.4241	3002.5215	935.05	49.95
1027.536	3003.5812	935.75	50
1027.6478	3004.6404	931.8	46.45
1027.7596	3005.6989	933	47.6
1027.8714	3006.7567	930.15	46.15
1027.9831	3007.8139	948.15	44
1028.0947	3008.8705	928.85	43.5
1028.2064	3009.9264	931.4	45.1
1028.3179	3010.9818	929.4	45.2
1028.4295	3012.0364	927.8	42.55
1028.541	3013.0905	926.45	41.1
1028.6524	3014.1439	924.9	41.55
1028.7638	3015.1966	923.65	41
1028.8752	3016.2487	927.05	42
1028.9865	3017.3002	926.15	37.9
1029.0978	3018.3511	921.65	38.15
1029.209	3019.4013	922.65	39.85
1029.3202	3020.4509	923.55	40.35
1029.4314	3021.4998	925.05	39.8
1029.5425	3022.5481	922.45	36.85
1029.6535	3023.5958	922.2	38.3
1029.7645	3024.6428	922.9	37.25
1029.8755	3025.6892	919.7	36.45
1029.9864	3026.735	922.8	38.55
1030.0973	3027.7802	920.6	35.55
1030.2082	3028.8247	918.75	36.95
1030.319	3029.8685	923.6	37.95
1030.4297	3030.9118	923.75	38.85
1030.5404	3031.9544	921.55	38.2
1030.6511	3032.9963	920.45	33.8
1030.7617	3034.0376	923.15	41.8
1030.8723	3035.0783	924.5	34.65
1030.9829	3036.1184	921.15	36.5
1031.0934	3037.1578	920.7	37.85
1031.2038	3038.1966	922.9	37.55
1031.3142	3039.2348	920.1	35.4
1031.4246	3040.2723	928.95	38.45
1031.5349	3041.3092	920.15	37.35
1031.6452	3042.3455	923.55	38.7
1031.7554	3043.3811	920.7	36.2
1031.8656	3044.4161	923.1	38.4
1031.9758	3045.4505	921.85	39.65
1032.0859	3046.4842	922.4	37.65
1032.1959	3047.5173	916.95	32.25
1032.3059	3048.5498	921.35	36.6
1032.4159	3049.5816	924.95	41.4
1032.5258	3050.6128	924	38.75
1032.6357	3051.6434	925.45	40.3
1032.7455	3052.6734	923.6	37.4
1032.8553	3053.7027	924.4	38.4
1032.9651	3054.7314	922.3	39.15
1033.0748	3055.7594	919.8	37.35
1033.1845	3056.7868	921.05	36.05
1033.2941	3057.8136	921.4	38.6
1033.4037	3058.8398	921.85	38.2
1033.5132	3059.8653	923	38.55
1033.6227	3060.8902	924.5	41.35
1033.7321	3061.9145	921.9	37.3
1033.8415	3062.9381	924.05	41.1
1033.9509	3063.9612	940.45	39.7
1034.0602	3064.9835	924.45	41.05
1034.1694	3066.0053	923.65	36.8
1034.2787	3067.0264	923.65	39.2
1034.3878	3068.0469	923.45	38.05
1034.497	3069.0668	925.7	37.8
1034.6061	3070.086	923.4	41.05
1034.7151	3071.1046	924	36.8
1034.8241	3072.1226	923.8	37.7
1034.9331	3073.1399	919.95	35.7
1035.042	3074.1567	921.75	38.15
1035.1508	3075.1727	922.55	35.65
1035.2597	3076.1882	922.15	39.65
1035.3684	3077.203	918.35	33.75
1035.4772	3078.2173	920.95	36.1
1035.5859	3079.2308	920.35	33.55
1035.6945	3080.2438	920.5	33.95
1035.8031	3081.2561	917.15	34.85
1035.9117	3082.2678	916.1	32.2
1036.0202	3083.2789	919.15	35.7
1036.1286	3084.2893	915.4	30.95
1036.2371	3085.2991	914	29.9
1036.3454	3086.3083	919.45	31.4
1036.4538	3087.3169	916.95	32
1036.562	3088.3248	916.8	31.35
1036.6703	3089.3321	913.5	28.4
1036.7785	3090.3388	913.95	30.2
1036.8866	3091.3449	913.9	29.5
1036.9948	3092.3503	915.75	29.05
1037.1028	3093.3551	912.5	30.9
1037.2108	3094.3593	911.3	28.35
1037.3188	3095.3629	912.15	28.5
1037.4267	3096.3658	912.1	28.8
1037.5346	3097.3681	912.4	25.9
1037.6425	3098.3698	913.4	28.65
1037.7503	3099.3708	919.35	28.55
1037.858	3100.3713	909.65	25.35
1037.9657	3101.3711	911.7	27.1
1038.0734	3102.3702	1045.65	27.95
1038.181	3103.3688	911.2	25.6
1038.2886	3104.3667	909.5	26.65
1038.3961	3105.364	908.25	24.5
1038.5036	3106.3607	912.25	25.4
1038.611	3107.3568	910.55	24.25
1038.7184	3108.3522	907.1	24.25
1038.8257	3109.347	906.8	21.45
1038.933	3110.3412	913.2	24.2
1039.0403	3111.3348	909.6	26.25
1039.1475	3112.3277	909.15	24.8
1039.2547	3113.32	906.1	25.4
1039.3618	3114.3117	907.25	22.85
1039.4689	3115.3028	905.1	21.85
1039.5759	3116.2932	910.75	25.6
1039.6829	3117.2831	913.8	24.4
1039.7898	3118.2723	906.75	23.6
1039.8967	3119.2608	908.3	24.15
1040.0035	3120.2488	905.95	21.2
1040.1103	3121.2361	906.65	22.75
1040.2171	3122.2229	903.75	17.5
1040.3238	3123.209	906.55	22.2
1040.4305	3124.1944	907.2	24.5
1040.5371	3125.1793	905.35	19.7
1040.6437	3126.1635	903.55	20.4
1040.7502	3127.1471	903	20.6
1040.8567	3128.1301	905.3	21.05
1040.9631	3129.1125	906	23
1041.0695	3130.0942	905.05	18.9
1041.1759	3131.0753	913.05	20.55
1041.2822	3132.0558	906.15	19.1
1041.3884	3133.0357	904.7	20.95
1041.4946	3134.015	907.5	23.3
1041.6008	3134.9936	906	19.75
1041.7069	3135.9716	926.75	20.05
1041.813	3136.949	905.45	22.2
1041.919	3137.9258	919.1	14.65
1042.025	3138.902	909.6	20.45
1042.1309	3139.8775	902	18.35
1042.2368	3140.8524	902.55	18.95
1042.3427	3141.8267	906.25	21.4
1042.4485	3142.8004	904.85	20.2
1042.5542	3143.7735	911.5	20.35
1042.6599	3144.7459	905.1	17.6
1042.7656	3145.7178	902.95	18.6
1042.8712	3146.689	900.6	18.4
1042.9768	3147.6596	903.05	15.15
1043.0823	3148.6295	902.3	16.45
1043.1878	3149.5989	901.2	17.7
1043.2932	3150.5676	901.15	18.6
1043.3986	3151.5357	903	21.5
1043.5039	3152.5032	900.35	16.9
1043.6092	3153.4701	902.35	19.9
1043.7145	3154.4364	905.55	18
1043.8197	3155.402	901.15	18.6
1043.9248	3156.367	905	19.55
1044.03	3157.3315	937.8	19.05
1044.135	3158.2952	902.6	17.95
1044.24	3159.2584	904.1	19.7
1044.345	3160.221	902.55	17.85
1044.4499	3161.1829	901.5	17.75
1044.5548	3162.1442	901.35	17.5
1044.6596	3163.105	898.45	15
1044.7644	3164.065	899.45	13.7
1044.8692	3165.0245	903.4	16.7
1044.9739	3165.9834	899.6	18.75
1045.0785	3166.9416	900.15	14.05
1045.1831	3167.8993	901.6	15.6
1045.2877	3168.8563	901	17.5
1045.3922	3169.8127	898.85	14.9
1045.4966	3170.7684	901.4	17
1045.6011	3171.7236	899.45	13.95
1045.7054	3172.6782	898.15	13.75
1045.8098	3173.6321	900.65	15.65
1045.914	3174.5854	902.95	15.7
1046.0183	3175.5381	898.85	14.45
1046.1224	3176.4902	900.35	16.2
1046.2266	3177.4417	898.75	15.55
1046.3307	3178.3926	898.2	15.55
1046.4347	3179.3428	898.1	15.25
1046.5387	3180.2924	898.9	16.2
1046.6427	3181.2415	899.55	13.8
1046.7466	3182.1899	901.4	13.15
1046.8504	3183.1377	900.85	16.95
1046.9542	3184.0848	902.1	13.9
1047.058	3185.0314	897.7	13.45
1047.1617	3185.9773	899.15	12.95
1047.2654	3186.9227	901.05	16.85
1047.369	3187.8674	898.3	16.05
1047.4726	3188.8115	901.15	14.45
1047.5761	3189.755	896.95	15.55
1047.6796	3190.6979	898.05	13.9
1047.783	3191.6402	895.95	12.2
1047.8864	3192.5818	898.9	14.9
1047.9898	3193.5229	904.05	12.8
1048.0931	3194.4633	899.4	14.7
1048.1963	3195.4031	900.75	15.25
1048.2995	3196.3423	897.25	13.65
1048.4027	3197.2809	897.05	13.1
1048.5058	3198.2189	897.5	13.75
1048.6089	3199.1563	916.75	17.15
1048.7119	3200.0931	897.65	14.65
1048.8148	3201.0292	898.15	17.05
1048.9178	3201.9648	898.05	12.95
1049.0206	3202.8997	901.15	14.3
1049.1235	3203.834	895.65	12.25
1049.2262	3204.7677	897.95	13.95
1049.329	3205.7008	899.55	11.25
1049.4317	3206.6333	895.4	14
1049.5343	3207.5652	899.1	12.6
1049.6369	3208.4964	898.65	16.5
1049.7394	3209.4271	895.75	12.05
1049.8419	3210.3571	897.1	14.2
1049.9444	3211.2865	896.95	11.65
1050.0468	3212.2154	898.55	14.95
1050.1491	3213.1436	896.95	8.35
1050.2514	3214.0712	906.1	14.4
1050.3537	3214.9982	897.85	14.65
1050.4559	3215.9246	896.75	13.4
1050.5581	3216.8503	897.45	14.85
1050.6602	3217.7755	894.6	10.75
1050.7623	3218.7001	895.05	12
1050.8643	3219.624	896.85	11.75
1050.9663	3220.5473	897.3	14.05
1051.0682	3221.4701	899.35	14.55
1051.1701	3222.3922	895.85	9.05
1051.2719	3223.3137	896.15	12.85
1051.3737	3224.2346	895.85	11
1051.4754	3225.1549	893.6	9.35
1051.5771	3226.0746	897.35	13.95
1051.6788	3226.9937	896.6	12.85
1051.7804	3227.9121	894.9	12.95
1051.8819	3228.83	895.9	12.15
1051.9834	3229.7473	894.15	12.1
1052.0849	3230.6639	896.1	11.9
1052.1863	3231.5799	894.65	12.1
1052.2876	3232.4954	896.35	11.85
1052.3889	3233.4102	894.25	10
1052.4902	3234.3244	894.25	10
1052.5914	3235.238	894.05	10.85
1052.6926	3236.151	909.75	12.45
1052.7937	3237.0634	896.65	16.55
1052.8948	3237.9752	895.8	10.35
1052.9958	3238.8864	896.2	12.55
1053.0968	3239.797	894.75	11.45
1053.1977	3240.7069	897	10.65
1053.2986	3241.6163	897.35	11.45
1053.3994	3242.5251	892.6	8.65
1053.5002	3243.4332	894.7	10.35
1053.6009	3244.3408	896.5	12.1
1053.7016	3245.2477	892.65	8.4
1053.8022	3246.154	895.1	11.45
1053.9028	3247.0598	895.5	11.35
1054.0034	3247.9649	894.95	12.4
1054.1039	3248.8694	893.2	11.3
1054.2043	3249.7733	893.1	8.55
1054.3047	3250.6766	893.2	10.15
1054.4051	3251.5793	894.3	9.4
1054.5054	3252.4814	893.5	9.2
1054.6056	3253.3829	895.65	11.9
1054.7058	3254.2838	894.7	10.25
1054.806	3255.1841	891	8.85
1054.9061	3256.0838	895	12.9
1055.0061	3256.9829	891.85	9.15
1055.1062	3257.8814	894.9	8.7
1055.2061	3258.7792	894.85	7.4
1055.306	3259.6765	893.15	8.65
1055.4059	3260.5731	894.45	11.15
1055.5057	3261.4692	894.15	9.55
1055.6055	3262.3647	893.95	9.8
1055.7052	3263.2595	891.95	6.15
1055.8049	3264.1538	892.65	8.75
1055.9045	3265.0474	894.15	9.75
1056.0041	3265.9404	891.1	9.25
1056.1036	3266.8329	890.7	8.25
1056.2031	3267.7247	902.15	7.5
1056.3025	3268.616	891.65	8.3
1056.4019	3269.5066	893.1	9.9
1056.5013	3270.3966	893.55	7.95
1056.6005	3271.286	889.45	6.5
