Software Version:	3.9.2.0
Unit SN:	10000200
Spectrometer SN:	6960
Date:	3/26/2024 1:22:01 PM
Data Line Index:	25
Spectral Points:	2048
Integration time (ms):	125
Averages:	20
Delay (ms):	30000
Sequence Number:	1
Processing:	dark subtract
Laser Power (mW):	300
Laser Current (mA):	820
Laser Diode Temp (C):	25.1
Laser Case Temp (C):	26.6
System Temp (C):	26.6
Spectrometer Temp (C):	24.4
CCD Temp (C):	0
Secondary Temp (C):	20.004
Heatsink Temp (C):	22.038
CCDPCB Temp (C):	36.229
SecondaryPCB Temp (C):	33.861

Wavelength	RamanShift	Raw Counts	Dark Subtracted
787.061	30.1047	450.55	40.3
787.2016	32.3739	450.65	40.85
787.3422	34.6426	454.9	42
787.4828	36.9109	461.95	47.6
787.6235	39.1787	469.85	54
787.7642	41.4461	476.6	55.65
787.9049	43.7131	483.75	59.95
788.0456	45.9796	493	66.6
788.1863	48.2456	496.55	66.8
788.3271	50.5112	507.45	71.3
788.4679	52.7764	511.45	73.8
788.6087	55.0411	520.45	79.9
788.7496	57.3054	529.35	83.75
788.8904	59.5692	540.7	91.6
789.0313	61.8326	552.05	99.7
789.1722	64.0955	560.75	106.65
789.3132	66.3579	573.6	112.75
789.4541	68.6199	584.55	121.3
789.5951	70.8815	610.3	144.9
789.7361	73.1426	660.55	191.35
789.8771	75.4032	780.45	307.45
790.0181	77.6634	1075.4	596.2
790.1592	79.9231	1786.95	1303.5
790.3003	82.1824	3277.75	2791.55
790.4414	84.4412	6007.3	5514.65
790.5825	86.6995	9816.65	9318.2
790.7237	88.9574	13748.95	13243.35
790.8648	91.2148	16711.4	16201.4
791.006	93.4717	18379.3	17867.1
791.1472	95.7282	19073.75	18557.8
791.2885	97.9842	19419.6	18901.55
791.4297	100.2398	19512.85	18990.6
791.571	102.4949	19516.15	18991.4
791.7123	104.7495	19460.55	18933.2
791.8536	107.0036	19427.7	18897.6
791.9949	109.2573	19371.25	18843.05
792.1363	111.5105	19334.7	18804.15
792.2777	113.7632	19271.8	18740.35
792.4191	116.0154	19276.75	18732.3
792.5605	118.2672	19329.35	18792.85
792.7019	120.5185	19279.2	18741.3
792.8434	122.7693	19312	18770.45
792.9849	125.0197	19313.1	18770.35
793.1264	127.2696	19293.2	18747.85
793.2679	129.519	19362.25	18813.85
793.4094	131.7679	19338.55	18786.3
793.551	134.0163	19335.1	18778.85
793.6926	136.2642	19357.15	18797.1
793.8342	138.5117	19346.95	18778.8
793.9758	140.7587	19295.95	18730.9
794.1175	143.0052	19248.95	18680.25
794.2591	145.2512	19235.9	18667
794.4008	147.4967	19183.7	18614.2
794.5425	149.7417	19168.15	18596.7
794.6842	151.9863	19117.65	18543.25
794.826	154.2304	19101.9	18524.4
794.9677	156.4739	19027.3	18443.4
795.1095	158.717	19028.85	18446.65
795.2513	160.9596	19040.75	18451.15
795.3931	163.2017	18968.65	18378.15
795.535	165.4433	18959.85	18369.1
795.6768	167.6844	18885.25	18290.2
795.8187	169.925	18863	18264.75
795.9606	172.1651	18773.5	18173.25
796.1025	174.4047	18768.3	18163.15
796.2445	176.6439	18721.65	18115.55
796.3864	178.8825	18701.5	18091.5
796.5284	181.1206	18696.3	18081.95
796.6704	183.3582	18659.15	18041.7
796.8124	185.5954	18642.55	18023.8
796.9544	187.832	18637.1	18013.5
797.0965	190.0681	18662.95	18039.9
797.2386	192.3037	18653.1	18024
797.3806	194.5388	18647.35	18017.1
797.5228	196.7734	18650.8	18017.75
797.6649	199.0075	18679.4	18039.9
797.807	201.2411	18770.35	18130.7
797.9492	203.4742	18760.7	18121.05
798.0914	205.7068	18781.95	18141.45
798.2336	207.9389	18778.95	18135.8
798.3758	210.1704	18836.15	18191.35
798.518	212.4015	18761.65	18112.1
798.6603	214.632	18784.05	18134.95
798.8025	216.862	18758.65	18118.15
798.9448	219.0915	18780.95	18147.8
799.0871	221.3205	18744.75	18114.9
799.2294	223.549	18773.65	18145.6
799.3718	225.777	18768.35	18140.3
799.5141	228.0044	18764.75	18134.6
799.6565	230.2314	18815.05	18185.85
799.7989	232.4578	18784.25	18153.85
799.9413	234.6837	18740.1	18102.5
800.0837	236.909	18770.3	18130.25
800.2262	239.1339	18772.2	18108.7
800.3687	241.3582	18727.15	18077.55
800.5111	243.582	18703.95	18024.9
800.6536	245.8053	18728.35	18062.55
800.7961	248.0281	18699.7	18038.2
800.9387	250.2503	18671.45	18004.25
801.0812	252.472	18666.6	17995.2
801.2238	254.6932	18700.65	18022.35
801.3664	256.9139	18664.3	17986.7
801.509	259.134	18666.15	17985.05
801.6516	261.3536	18639.85	17961.9
801.7942	263.5727	18661.85	17981.75
801.9369	265.7912	18625.95	17945.2
802.0795	268.0092	18662.45	17982.45
802.2222	270.2267	18628.6	17944
802.3649	272.4436	18622.45	17939.45
802.5076	274.6601	18623.95	17932.45
802.6504	276.8759	18582.05	17895.1
802.7931	279.0913	18606.95	17915.35
802.9359	281.3061	18609.7	17919.1
803.0787	283.5204	18621.75	17929
803.2215	285.7341	18625.55	17930.15
803.3643	287.9473	18644.6	17937.5
803.5071	290.16	18590	17884.75
803.6499	292.3721	18543.25	17844.55
803.7928	294.5837	18532.95	17832
803.9357	296.7947	18502.5	17802.7
804.0786	299.0052	18464.05	17763.9
804.2215	301.2152	18393.95	17692.6
804.3644	303.4246	18384.5	17684.8
804.5074	305.6334	18344.9	17647.1
804.6503	307.8418	18321	17616.85
804.7933	310.0495	18283.15	17578.75
804.9363	312.2568	18219.75	17516.5
805.0793	314.4635	18143.15	17435.3
805.2223	316.6696	18101.9	17394.7
805.3653	318.8752	17975.4	17259.55
805.5084	321.0802	17942.15	17233.1
805.6514	323.2847	17964.4	17252.75
805.7945	325.4887	17912.4	17199.85
805.9376	327.692	17862.05	17146.2
806.0807	329.8949	17912.05	17197.5
806.2238	332.0972	17900.65	17183.85
806.367	334.2989	17884.8	17163.65
806.5101	336.5001	17833.1	17112.8
806.6533	338.7007	17801.4	17081.75
806.7965	340.9008	17805.1	17082.8
806.9397	343.1003	17765	17038.7
807.0829	345.2992	17740.55	17015.75
807.2261	347.4976	17680.8	16953.4
807.3693	349.6955	17660.65	16929.25
807.5126	351.8927	17652.8	16922.75
807.6559	354.0895	17616.15	16872.75
807.7991	356.2856	17622.1	16888.35
807.9424	358.4812	17603.05	16869.35
808.0857	360.6763	17582.9	16848.2
808.2291	362.8707	17522.2	16787.85
808.3724	365.0646	17545.25	16806.15
808.5158	367.258	17490.1	16752.6
808.6591	369.4508	17434.6	16691.05
808.8025	371.643	17473.85	16730
808.9459	373.8346	17410	16662.95
809.0893	376.0257	17407.3	16657.1
809.2327	378.2162	17363.75	16615.05
809.3762	380.4062	17364.85	16613.75
809.5196	382.5956	17291.25	16539.9
809.6631	384.7844	17275.4	16521.75
809.8066	386.9726	17169.05	16413.3
809.9501	389.1603	17152.5	16398
810.0936	391.3474	17153.15	16369.7
810.2371	393.5339	17096.05	16342.3
810.3806	395.7199	17018.7	16269.15
810.5241	397.9052	17014.25	16267.25
810.6677	400.09	17022.75	16278.25
810.8113	402.2743	17005.5	16258.25
810.9548	404.4579	16933.1	16186.25
811.0984	406.641	16987.4	16239.45
811.2421	408.8235	16979.45	16230.6
811.3857	411.0054	17017.4	16266.3
811.5293	413.1868	17101.5	16347.6
811.673	415.3675	17121.35	16366
811.8166	417.5477	17128.9	16370.2
811.9603	419.7273	17058	16297.6
812.104	421.9064	16931.65	16164.5
812.2477	424.0848	16884.3	16120.25
812.3914	426.2627	16787.45	16022.6
812.5351	428.4399	16716.8	15950.7
812.6788	430.6166	16665.75	15897.8
812.8226	432.7928	16622.2	15850.15
812.9663	434.9683	16531.75	15760.8
813.1101	437.1432	16506.75	15732.7
813.2539	439.3176	16426.2	15653.55
813.3977	441.4914	16374.5	15600.35
813.5415	443.6645	16361.5	15585.2
813.6853	445.8371	16289.7	15512.7
813.8291	448.0091	16244.85	15470.55
813.973	450.1806	16167.05	15390.05
814.1168	452.3514	16125.55	15347
814.2607	454.5216	16103.95	15319.25
814.4046	456.6913	16027.45	15248.05
814.5485	458.8603	16031.85	15252
814.6924	461.0288	16045.9	15266.6
814.8363	463.1967	15970.4	15189.65
814.9802	465.3639	15977.6	15195.75
815.1241	467.5306	15926.5	15143.75
815.2681	469.6967	15892.85	15109.8
815.412	471.8622	15821.05	15037.4
815.556	474.0271	15839.15	15056.45
815.7	476.1914	15820.8	15032.55
815.844	478.3551	15819.55	15034.05
815.988	480.5182	15847.75	15062.4
816.132	482.6807	15808.5	15020.75
816.276	484.8426	15832.65	15048.15
816.4201	487.0039	15890.05	15104.4
816.5641	489.1647	15881.85	15092.9
816.7082	491.3248	15904.05	15115.25
816.8522	493.4843	15881.3	15093.85
816.9963	495.6432	15882	15093.5
817.1404	497.8015	15812.6	15021.8
817.2845	499.9592	15815.75	15027.4
817.4286	502.1163	15757	14964.1
817.5727	504.2728	15715.05	14920.9
817.7168	506.4287	15730.8	14941.7
817.861	508.5839	15654.9	14861.5
818.0051	510.7386	15629.1	14835.5
818.1493	512.8927	15627.55	14825.55
818.2935	515.0461	15592.05	14796.1
818.4377	517.199	15616.3	14822.6
818.5818	519.3512	15600.45	14805.05
818.726	521.5029	15611.7	14812.4
818.8703	523.6539	15622.35	14823.8
819.0145	525.8043	15645.8	14847.15
819.1587	527.9541	15581.2	14780.5
819.303	530.1033	15527.4	14725.2
819.4472	532.2519	15536.35	14738.4
819.5915	534.3999	15476.55	14675.35
819.7357	536.5472	15462.85	14663.65
819.88	538.694	15491.5	14688.3
820.0243	540.8401	15486.45	14681.35
820.1686	542.9856	15523.55	14717.5
820.3129	545.1305	15482.4	14676.15
820.4572	547.2748	15492.55	14686.4
820.6016	549.4185	15453.6	14644.4
820.7459	551.5615	15436.8	14629.25
820.8902	553.704	15429.9	14620.65
821.0346	555.8458	15399.2	14590.55
821.1789	557.987	15387.15	14579.7
821.3233	560.1276	15385.05	14576
821.4677	562.2675	15402	14592.65
821.6121	564.4069	15435.7	14627.45
821.7565	566.5456	15439.95	14631.25
821.9009	568.6837	15416.85	14608.75
822.0453	570.8212	15365.65	14557.35
822.1897	572.958	15279.4	14468.35
822.3342	575.0942	15257.2	14448.85
822.4786	577.2299	15168.6	14360.1
822.6231	579.3648	15146.3	14337.45
822.7675	581.4992	15051.1	14243.45
822.912	583.6329	14998.5	14188.15
823.0565	585.766	15008.95	14198.8
823.201	587.8985	14971.1	14161.3
823.3454	590.0304	14978.5	14153.6
823.4899	592.1616	14942.1	14127.65
823.6345	594.2922	14895.4	14081.1
823.779	596.4222	14826.45	14010.45
823.9235	598.5515	14788.25	13970.7
824.068	600.6802	14720.3	13905.1
824.2126	602.8083	14658.6	13840.55
824.3571	604.9358	14676.9	13858.2
824.5017	607.0626	14645.75	13829
824.6462	609.1888	14648.4	13829.95
824.7908	611.3144	14622.55	13801.05
824.9354	613.4393	14589.3	13771.4
825.08	615.5636	14612.55	13794.9
825.2246	617.6873	14611.95	13794.2
825.3692	619.8103	14617.9	13795.9
825.5138	621.9327	14577.75	13754.25
825.6584	624.0544	14554.05	13733.35
825.803	626.1756	14558.4	13736.55
825.9477	628.2961	14480.4	13658.65
826.0923	630.4159	14433.4	13609.75
826.237	632.5351	14442.2	13620
826.3816	634.6537	14434.75	13612
826.5263	636.7716	14423.2	13596.75
826.6709	638.8889	14396.5	13572.3
826.8156	641.0056	14431.4	13605.2
826.9603	643.1216	14374.1	13548.25
827.105	645.237	14445.8	13617.7
827.2497	647.3518	14355.8	13529
827.3944	649.4659	14361.75	13535.3
827.5391	651.5793	14327.95	13502.55
827.6838	653.6922	14303.05	13477
827.8285	655.8043	14273.6	13448.45
827.9733	657.9159	14254.25	13425.65
828.118	660.0268	14226.95	13395.05
828.2627	662.137	14203.4	13374.95
828.4075	664.2466	14167.05	13333.05
828.5522	666.3556	14155.15	13326.35
828.697	668.4639	14152	13317.45
828.8418	670.5716	14112.7	13282.7
828.9865	672.6786	14146.05	13316
829.1313	674.785	14088.85	13255.3
829.2761	676.8907	14045.25	13212.1
829.4209	678.9958	14044.4	13212.9
829.5657	681.1002	14022.65	13188.8
829.7105	683.204	14000.05	13164.9
829.8553	685.3072	13963.35	13127.35
830.0001	687.4097	13915	13082.3
830.1449	689.5115	13946.15	13111.5
830.2898	691.6127	13946.85	13114.55
830.4346	693.7132	13877.35	13042.25
830.5794	695.8131	13889.2	13029.65
830.7243	697.9123	13880.9	13043.3
830.8691	700.0109	13858.5	13021.6
831.014	702.1089	13839.15	13004.25
831.1588	704.2061	13829.35	12994.85
831.3037	706.3028	13835.1	12997.5
831.4486	708.3987	13810.35	12972.6
831.5935	710.4941	13806.65	12967.95
831.7383	712.5887	13817	12978.45
831.8832	714.6827	13784.25	12943.05
832.0281	716.7761	13779.6	12941.25
832.173	718.8688	13771.4	12931.8
832.3179	720.9608	13751.15	12909.85
832.4628	723.0522	13745.85	12901.35
832.6077	725.1429	13715.75	12876.55
832.7527	727.233	13730.95	12892.3
832.8976	729.3224	13756.95	12914.4
833.0425	731.4112	13750.35	12907.25
833.1874	733.4993	13705.15	12860.4
833.3324	735.5867	13620.15	12779.05
833.4773	737.6735	13601.65	12759.35
833.6222	739.7596	13549.85	12705.35
833.7672	741.845	13508.45	12664.75
833.9122	743.9298	13486	12639.8
834.0571	746.014	13480	12637.2
834.2021	748.0974	13486.45	12640
834.347	750.1802	13434.5	12589.5
834.492	752.2624	13393.4	12548.3
834.637	754.3439	13332.55	12485.5
834.782	756.4247	13290.45	12435.65
834.9269	758.5048	13247.55	12404.9
835.0719	760.5843	13235.5	12388.55
835.2169	762.6631	13213.6	12366.6
835.3619	764.7413	13194.9	12351.55
835.5069	766.8188	13197.35	12348.15
835.6519	768.8956	13183.4	12333.2
835.7969	770.9718	13242.9	12393.75
835.9419	773.0473	13189.65	12342.55
836.0869	775.1221	13131.75	12283.6
836.232	777.1962	13083.4	12237.1
836.377	779.2697	13106.75	12256.8
836.522	781.3426	13074.45	12206.8
836.667	783.4147	13078.55	12228.45
836.8121	785.4862	13057.15	12207.75
836.9571	787.557	12994.5	12145.5
837.1021	789.6271	12953.9	12103.75
837.2472	791.6966	12860.15	12009.35
837.3922	793.7654	12751.65	11901.55
837.5373	795.8335	12730.45	11880.55
837.6823	797.901	12686.5	11837.4
837.8274	799.9678	12666.55	11813.8
837.9724	802.0339	12606.9	11755.8
838.1175	804.0993	12610.6	11750.15
838.2626	806.1641	12523.2	11670.7
838.4076	808.2282	12491.45	11640.05
838.5527	810.2916	12494.95	11642.75
838.6978	812.3544	12481.5	11630.45
838.8428	814.4164	12433.05	11582.4
838.9879	816.4778	12428.5	11578.6
839.133	818.5385	12393.85	11539.85
839.2781	820.5986	12408.25	11553.6
839.4232	822.658	12388.5	11533.85
839.5682	824.7166	12375.4	11521.35
839.7133	826.7747	12441.45	11588.85
839.8584	828.832	12451.2	11598.95
840.0035	830.8886	12409.2	11553.35
840.1486	832.9446	12405.1	11549.45
840.2937	834.9999	12367.7	11514.65
840.4388	837.0545	12290.65	11434.7
840.5839	839.1085	12265.95	11410.45
840.729	841.1618	12220.25	11363.5
840.8741	843.2143	12141.2	11284.75
841.0192	845.2662	12097.7	11243.3
841.1643	847.3175	12080.55	11226.2
841.3095	849.368	12034.9	11178.75
841.4546	851.4179	12014.35	11158.4
841.5997	853.467	11950.1	11093.65
841.7448	855.5155	11935.65	11080.5
841.8899	857.5633	11915.5	11060.95
842.0351	859.6105	11845.5	10991.2
842.1802	861.6569	11831.5	10975.05
842.3253	863.7027	11808.35	10950.5
842.4704	865.7478	11801.45	10943.9
842.6156	867.7922	11734.2	10875.95
842.7607	869.8359	11718.7	10860.5
842.9058	871.8789	11685.15	10825.2
843.0509	873.9212	11698.45	10809
843.1961	875.9629	11643.7	10784.95
843.3412	878.0039	11665.75	10805.2
843.4863	880.0441	11604.1	10744.9
843.6315	882.0837	11621.2	10760.75
843.7766	884.1226	11607.7	10747.55
843.9218	886.1609	11592.8	10735.45
844.0669	888.1984	11578.8	10721
844.212	890.2352	11589.6	10731.75
844.3572	892.2714	11576.95	10714.05
844.5023	894.3069	11534.5	10673.55
844.6475	896.3416	11459	10597.85
844.7926	898.3757	11441.9	10579.8
844.9377	900.4091	11409.55	10548.15
845.0829	902.4418	11411.35	10546.1
845.228	904.4739	11341.75	10478.9
845.3732	906.5052	11302.8	10442.2
845.5183	908.5358	11272.75	10413.4
845.6635	910.5658	11251	10389.1
845.8086	912.595	11241.2	10379.75
845.9538	914.6236	11182.8	10320.95
846.0989	916.6515	11139.5	10279.3
846.2441	918.6786	11068.1	10203.8
846.3892	920.7051	11045.25	10181.7
846.5344	922.7309	11040	10177.95
846.6795	924.756	10998.15	10134.7
846.8246	926.7804	10990.35	10125.4
846.9698	928.8041	10870.55	10006.5
847.1149	930.8272	10884.5	10023.45
847.2601	932.8495	10819.8	9955.45
847.4052	934.8711	10844.15	9979.45
847.5504	936.892	10784.7	9920.45
847.6955	938.9123	10745.1	9880.05
847.8407	940.9318	10706	9841.3
847.9858	942.9506	10692.2	9826.7
848.131	944.9688	10647.05	9783.15
848.2761	946.9862	10619.25	9754.3
848.4213	949.003	10544.15	9679.85
848.5664	951.019	10508.1	9644.1
848.7115	953.0344	10462.7	9596.9
848.8567	955.0491	10418	9552.85
849.0018	957.063	10414.4	9548.35
849.147	959.0763	10421.55	9549.45
849.2921	961.0888	10353.15	9485.35
849.4373	963.1007	10370.9	9505.05
849.5824	965.1119	10333.6	9469.75
849.7275	967.1223	10309.1	9444.4
849.8727	969.1321	10270.65	9406.5
850.0178	971.1412	10245.2	9379.05
850.1629	973.1495	10207.65	9342.15
850.3081	975.1572	10217.25	9317.45
850.4532	977.1641	10160.45	9295.8
850.5983	979.1704	10121	9253.4
850.7435	981.1759	10086	9216.85
850.8886	983.1808	10063.3	9194.3
851.0337	985.1849	10028.85	9152.6
851.1788	987.1884	10015.25	9147.75
851.324	989.1911	9975.2	9106.15
851.4691	991.1932	9955.4	9087.1
851.6142	993.1945	9903.15	9036
851.7593	995.1951	9836.4	8968.3
851.9045	997.1951	9832.55	8957.95
852.0496	999.1943	9769.65	8900.65
852.1947	1001.1928	9729.95	8860.95
852.3398	1003.1906	9663.3	8796.35
852.4849	1005.1877	9669.85	8802.35
852.63	1007.1841	9635.75	8768.1
852.7751	1009.1798	9598.9	8730.8
852.9202	1011.1748	9557.95	8689.95
853.0653	1013.1691	9520.3	8650.6
853.2104	1015.1627	9459.2	8591.5
853.3555	1017.1556	9377.2	8508.8
853.5006	1019.1477	9337.45	8469.55
853.6457	1021.1392	9260.8	8392.15
853.7908	1023.1299	9223.85	8354.8
853.9359	1025.12	9203.9	8333.55
854.081	1027.1093	9171.15	8304.65
854.2261	1029.0979	9112.65	8246.8
854.3712	1031.0859	9086.15	8217.9
854.5163	1033.0731	9045.8	8174.6
854.6613	1035.0596	9019.5	8150.55
854.8064	1037.0454	8946.7	8077.05
854.9515	1039.0304	8946.5	8074.45
855.0965	1041.0148	8879.15	8010.7
855.2416	1042.9985	8819.85	7949.9
855.3867	1044.9814	8810.5	7943.05
855.5317	1046.9636	8760.15	7888.3
855.6768	1048.9452	8703.4	7836.35
855.8219	1050.926	8695.3	7827.05
855.9669	1052.9061	8673.6	7803.9
856.112	1054.8855	8666.6	7795
856.257	1056.8642	8639.75	7768.3
856.4021	1058.8421	8613.1	7739.25
856.5471	1060.8194	8573.45	7702.5
856.6921	1062.7959	8521.55	7650.6
856.8372	1064.7717	8512.15	7641
856.9822	1066.7469	8493.7	7621.55
857.1272	1068.7213	8469.7	7593.75
857.2723	1070.695	8441.05	7569.8
857.4173	1072.6679	8400.2	7528.8
857.5623	1074.6402	8387.1	7514.15
857.7073	1076.6117	8384.9	7509.1
857.8523	1078.5826	8333.15	7459.1
857.9973	1080.5527	8321.2	7448.3
858.1423	1082.5221	8268.15	7397.5
858.2873	1084.4908	8225.2	7351.95
858.4323	1086.4587	8203.6	7329.75
858.5773	1088.426	8154.8	7280.15
858.7223	1090.3925	8134	7257.55
858.8673	1092.3584	8097.05	7224.2
859.0123	1094.3235	8070.2	7200.7
859.1573	1096.2879	8044.05	7171.55
859.3022	1098.2515	8007.9	7135.5
859.4472	1100.2145	8030.1	7157.6
859.5922	1102.1767	7992.5	7117.95
859.7371	1104.1382	7974.6	7100.35
859.8821	1106.099	7978.3	7103.6
860.027	1108.0591	7975.05	7099.7
860.172	1110.0185	7956.3	7082.25
860.3169	1111.9771	7972.05	7098.85
860.4619	1113.9351	7941.25	7068
860.6068	1115.8923	7905.2	7029.6
860.7517	1117.8488	7893.6	7018.1
860.8967	1119.8045	7837.15	6963.95
861.0416	1121.7596	7789.35	6915.55
861.1865	1123.7139	7703.15	6827.75
861.3314	1125.6675	7648.25	6775.05
861.4763	1127.6204	7666.1	6793.7
861.6212	1129.5726	7618.85	6742.15
861.7661	1131.524	7591.45	6718.4
861.911	1133.4748	7557.8	6683.75
862.0559	1135.4248	7516.05	6642
862.2008	1137.3741	7478.75	6606.2
862.3457	1139.3226	7435.15	6556.8
862.4905	1141.2705	7400.45	6523.6
862.6354	1143.2176	7358.15	6476.95
862.7803	1145.164	7370.8	6494.85
862.9251	1147.1097	7320.8	6445.3
863.07	1149.0546	7302.5	6426.25
863.2148	1150.9989	7272.6	6397.9
863.3597	1152.9424	7248.25	6373.35
863.5045	1154.8852	7196.45	6322.05
863.6493	1156.8272	7190	6315.15
863.7942	1158.7686	7180.6	6298.5
863.939	1160.7092	7148.4	6274.1
864.0838	1162.6491	7098.75	6221.3
864.2286	1164.5883	7084.45	6210.25
864.3734	1166.5267	7065.75	6188
864.5182	1168.4644	7083.7	6209.1
864.663	1170.4014	7083.3	6204.15
864.8078	1172.3377	7090.75	6217.4
864.9526	1174.2732	7085.05	6211
865.0974	1176.2081	7102.05	6225.15
865.2421	1178.1421	7139.05	6257.6
865.3869	1180.0755	7197.95	6322.2
865.5317	1182.0082	7192.2	6316.2
865.6764	1183.9401	7141.2	6263.55
865.8212	1185.8713	7097.35	6222.35
865.9659	1187.8017	7030.1	6153.8
866.1106	1189.7315	6967.05	6095.7
866.2554	1191.6605	6888.05	6013.2
866.4001	1193.5888	6811.3	5935.1
866.5448	1195.5163	6768.1	5893.2
866.6895	1197.4432	6742.25	5864.7
866.8342	1199.3693	6704.1	5828.85
866.9789	1201.2947	6667	5787.35
867.1236	1203.2193	6623.6	5747.3
867.2683	1205.1432	6605.2	5726.55
867.413	1207.0664	6573.6	5698.3
867.5576	1208.9889	6541.25	5660.3
867.7023	1210.9106	6506.25	5630.25
867.847	1212.8316	6480.15	5604.55
867.9916	1214.7519	6475.1	5588.45
868.1363	1216.6715	6443.15	5567.7
868.2809	1218.5903	6428.5	5553.75
868.4255	1220.5084	6422.35	5545.75
868.5701	1222.4257	6432.9	5556.2
868.7148	1224.3424	6394.65	5517.8
868.8594	1226.2583	6383.1	5500.05
869.004	1228.1735	6372.95	5495.3
869.1486	1230.0879	6351.5	5474.7
869.2932	1232.0016	6355.8	5478.8
869.4377	1233.9146	6354	5473.4
869.5823	1235.8269	6321.85	5443.75
869.7269	1237.7384	6330.85	5454
869.8715	1239.6492	6277.3	5402
870.016	1241.5592	6281.75	5403.5
870.1606	1243.4686	6262.6	5385.8
870.3051	1245.3772	6278.7	5401.9
870.4496	1247.285	6266.25	5388.25
870.5941	1249.1922	6294	5414.7
870.7387	1251.0986	6313.65	5435.5
870.8832	1253.0042	6305.2	5427.05
871.0277	1254.9092	6345.1	5468.2
871.1722	1256.8134	6323.25	5446
871.3167	1258.7169	6384.1	5504.45
871.4611	1260.6196	6360.3	5484.45
871.6056	1262.5216	6367.55	5488.4
871.7501	1264.4229	6321.05	5444.2
871.8945	1266.3234	6322.95	5445.65
872.039	1268.2232	6309.1	5432.85
872.1834	1270.1223	6273.15	5393.3
872.3278	1272.0207	6243.2	5363.95
872.4723	1273.9183	6219.7	5335.2
872.6167	1275.8151	6204.75	5327.7
872.7611	1277.7113	6200.25	5322.9
872.9055	1279.6067	6210.4	5333.15
873.0499	1281.5014	6248.1	5367.55
873.1943	1283.3953	6298.75	5416.8
873.3386	1285.2885	6388.85	5508.95
873.483	1287.181	6426.5	5548.4
873.6274	1289.0727	6486.85	5607.65
873.7717	1290.9637	6480.9	5603.6
873.9161	1292.854	6442.65	5565.8
874.0604	1294.7435	6396.6	5517.7
874.2047	1296.6323	6347.5	5468.2
874.349	1298.5204	6277.75	5394
874.4933	1300.4077	6246.15	5366.65
874.6376	1302.2943	6190.9	5312.45
874.7819	1304.1802	6141.65	5264.25
874.9262	1306.0653	6110.85	5231.2
875.0705	1307.9497	6063.45	5186.05
875.2147	1309.8333	6037.45	5158.35
875.359	1311.7162	5989.6	5110.1
875.5032	1313.5984	5948.75	5065
875.6475	1315.4798	5928.5	5035
875.7917	1317.3605	5911.65	5024.8
875.9359	1319.2405	5900.3	5020.1
876.0801	1321.1197	5879.25	4998.75
876.2243	1322.9982	5829.85	4945.3
876.3685	1324.876	5787.55	4909.7
876.5127	1326.753	5733.3	4853.7
876.6569	1328.6293	5686	4804.95
876.801	1330.5048	5650.1	4768.95
876.9452	1332.3796	5575.15	4696.35
877.0893	1334.2537	5578.9	4675.9
877.2335	1336.127	5537.1	4658.3
877.3776	1337.9996	5491.95	4611.5
877.5217	1339.8714	5471.1	4592.8
877.6658	1341.7426	5485.2	4560.55
877.8099	1343.6129	5449.2	4569
877.954	1345.4826	5410.7	4529.8
878.0981	1347.3515	5408.6	4525.65
878.2422	1349.2196	5398.45	4519.25
878.3862	1351.087	5390.55	4510.2
878.5303	1352.9537	5380.35	4498.35
878.6743	1354.8197	5359.1	4481.65
878.8184	1356.6849	5369.45	4489.3
878.9624	1358.5493	5360.75	4482.4
879.1064	1360.4131	5358.5	4479.9
879.2504	1362.276	5359.3	4481.55
879.3944	1364.1383	5357.1	4478.75
879.5384	1365.9998	5342	4455.95
879.6823	1367.8606	5327.45	4447.5
879.8263	1369.7206	5311.05	4429.95
879.9702	1371.5799	5286.2	4401.8
880.1142	1373.4384	5252.85	4372.7
880.2581	1375.2962	5220.8	4338.85
880.402	1377.1533	5170.75	4291.9
880.5459	1379.0096	5124.85	4243.65
880.6898	1380.8652	5077.45	4199.1
880.8337	1382.7201	5051.5	4171.35
880.9776	1384.5742	5009.4	4129.6
881.1215	1386.4275	4981.95	4100.25
881.2653	1388.2802	4965	4085.9
881.4092	1390.132	4926.85	4046.6
881.553	1391.9832	4923.6	4042.95
881.6968	1393.8336	4876.65	3994.5
881.8406	1395.6832	4855.65	3973.75
881.9844	1397.5322	4851.95	3970
882.1282	1399.3803	4823.75	3939.5
882.272	1401.2278	4795.85	3916.6
882.4158	1403.0745	4784.25	3904.75
882.5595	1404.9204	4760.75	3882.6
882.7033	1406.7656	4737.25	3855.3
882.847	1408.6101	4726.05	3845.35
882.9908	1410.4538	4701.85	3822
883.1345	1412.2968	4694.35	3813.3
883.2782	1414.139	4683.5	3802.25
883.4219	1415.9805	4668.1	3786.55
883.5656	1417.8213	4675.85	3773.55
883.7092	1419.6613	4655.8	3776.7
883.8529	1421.5006	4638.1	3753.85
883.9965	1423.3391	4664.25	3782.3
884.1402	1425.1769	4677.15	3795
884.2838	1427.0139	4692.7	3809.5
884.4274	1428.8502	4727.25	3847.05
884.571	1430.6858	4757.75	3874.85
884.7146	1432.5206	4762.6	3881.15
884.8582	1434.3547	4752	3870.95
885.0018	1436.188	4755.3	3875.95
885.1453	1438.0206	4720.15	3839.75
885.2889	1439.8524	4700.7	3819.25
885.4324	1441.6835	4694.95	3813.3
885.5759	1443.5139	4696.15	3811.15
885.7194	1445.3435	4651.7	3770.65
885.8629	1447.1724	4646.15	3764.9
886.0064	1449.0005	4632.75	3752.2
886.1499	1450.8279	4612.7	3730.45
886.2933	1452.6545	4615.2	3734.25
886.4368	1454.4804	4606.1	3724.15
886.5802	1456.3056	4582.9	3694.5
886.7237	1458.13	4580.5	3699.8
886.8671	1459.9536	4557.8	3676.4
887.0105	1461.7766	4514.75	3636.45
887.1539	1463.5987	4491.4	3607.25
887.2972	1465.4202	4460.2	3577.6
887.4406	1467.2409	4418.3	3537.65
887.584	1469.0608	4386.85	3504.85
887.7273	1470.88	4367.35	3486.5
887.8706	1472.6984	4319.5	3436.8
888.0139	1474.5161	4284.5	3400.1
888.1572	1476.3331	4275.7	3393.4
888.3005	1478.1493	4261.5	3377.85
888.4438	1479.9648	4248.15	3370.75
888.5871	1481.7795	4239.3	3356.05
888.7303	1483.5935	4224.75	3343.7
888.8736	1485.4067	4202.95	3322.4
889.0168	1487.2192	4209.8	3329.6
889.16	1489.031	4198.85	3315.05
889.3032	1490.842	4175	3294.8
889.4464	1492.6522	4164.4	3283.8
889.5896	1494.4618	4147.8	3263.8
889.7327	1496.2705	4143.6	3261.25
889.8759	1498.0785	4120.7	3239.35
890.019	1499.8858	4101.7	3217.9
890.1622	1501.6924	4099.05	3218.3
890.3053	1503.4981	4086.5	3205.35
890.4484	1505.3032	4064.5	3182.7
890.5914	1507.1075	4048	3165.9
890.7345	1508.911	4030.5	3150.15
890.8776	1510.7138	4020.2	3138.25
891.0206	1512.5159	4007.75	3127.05
891.1637	1514.3172	3995.35	3115.65
891.3067	1516.1178	3973.05	3092.4
891.4497	1517.9176	3963.75	3077.6
891.5927	1519.7166	3936.95	3055.7
891.7357	1521.515	3933.5	3046.75
891.8786	1523.3126	3912.75	3030.95
892.0216	1525.1094	3893.9	3013.8
892.1645	1526.9055	3881.35	2999.85
892.3074	1528.7008	3853.15	2971.7
892.4503	1530.4954	3834.85	2952.9
892.5932	1532.2893	3837.25	2955.85
892.7361	1534.0824	3816.7	2931.45
892.879	1535.8747	3809.6	2925.25
893.0218	1537.6663	3776.05	2893.55
893.1647	1539.4572	3769.7	2887.6
893.3075	1541.2473	3770.15	2886.9
893.4503	1543.0367	3754.2	2875.35
893.5931	1544.8253	3717.65	2832.85
893.7359	1546.6132	3725.95	2841.05
893.8787	1548.4003	3718.1	2825.85
894.0214	1550.1867	3716.35	2825.05
894.1642	1551.9723	3699	2814.45
894.3069	1553.7572	3688.85	2806.35
894.4496	1555.5414	3681.45	2801.1
894.5923	1557.3247	3678.8	2797.25
894.735	1559.1074	3698.2	2817.7
894.8777	1560.8893	3685.75	2806.1
895.0204	1562.6705	3699.2	2817.6
895.163	1564.4509	3697.05	2816.25
895.3056	1566.2305	3683.4	2804.15
895.4482	1568.0094	3695.8	2815.9
895.5908	1569.7876	3685.7	2805.4
895.7334	1571.565	3665.55	2783
895.876	1573.3417	3656.1	2774
896.0186	1575.1176	3654.95	2774
896.1611	1576.8928	3638.8	2754.8
896.3036	1578.6672	3629.55	2749.35
896.4461	1580.4409	3631.85	2752.4
896.5886	1582.2138	3627.15	2744.05
896.7311	1583.986	3644.55	2764.55
896.8736	1585.7575	3644.35	2765.55
897.0161	1587.5282	3640.45	2761.75
897.1585	1589.2981	3642.3	2761.6
897.3009	1591.0673	3639.3	2759.65
897.4433	1592.8358	3643.45	2762.35
897.5857	1594.6035	3633.15	2749.75
897.7281	1596.3704	3605.05	2723.25
897.8705	1598.1366	3600.65	2718.3
898.0128	1599.9021	3574.65	2694.05
898.1551	1601.6668	3562.5	2680.7
898.2975	1603.4308	3544.85	2661.6
898.4398	1605.194	3546.9	2661.65
898.5821	1606.9564	3544.05	2663.85
898.7243	1608.7182	3566.35	2681.35
898.8666	1610.4791	3597.1	2717.3
899.0088	1612.2394	3619.45	2738.1
899.1511	1613.9988	3657.25	2774.7
899.2933	1615.7576	3691.75	2810.45
899.4355	1617.5156	3701.45	2813.8
899.5776	1619.2728	3685.5	2805.65
899.7198	1621.0293	3643.3	2763.75
899.862	1622.785	3589.7	2709.25
900.0041	1624.54	3519.4	2638.65
900.1462	1626.2942	3453.95	2571.3
900.2883	1628.0477	3410.05	2526.2
900.4304	1629.8005	3353.7	2467.75
900.5725	1631.5525	3293.2	2411.7
900.7145	1633.3037	3259.55	2379.05
900.8566	1635.0542	3221.4	2340.35
900.9986	1636.804	3210.05	2329.25
901.1406	1638.553	3224.65	2285.6
901.2826	1640.3013	3156.7	2275.6
901.4245	1642.0488	3143.55	2262.7
901.5665	1643.7955	3124	2242.95
901.7085	1645.5416	3109.9	2229.85
901.8504	1647.2868	3087.05	2207.7
901.9923	1649.0313	3080.3	2199.95
902.1342	1650.7751	3074.85	2192.7
902.2761	1652.5181	3061.65	2180.8
902.4179	1654.2604	3064.7	2185.2
902.5598	1656.0019	3055.25	2174.85
902.7016	1657.7427	3047.75	2166.6
902.8434	1659.4828	3052.5	2171.85
902.9852	1661.222	3073.7	2189.95
903.127	1662.9606	3077.65	2198.45
903.2687	1664.6984	3067.2	2186.35
903.4105	1666.4354	3053	2175
903.5522	1668.1717	3020.95	2139.95
903.6939	1669.9072	2981.1	2100.5
903.8356	1671.642	2953.15	2068.95
903.9773	1673.3761	2924.35	2043.55
904.119	1675.1094	2879.7	1998.8
904.2606	1676.8419	2867.45	1988.4
904.4022	1678.5737	2852.95	1972.25
904.5439	1680.3048	2824.85	1943.5
904.6855	1682.0351	2801.15	1921.65
904.827	1683.7646	2790.95	1905.1
904.9686	1685.4934	2780.4	1900.15
905.1101	1687.2215	2771.8	1889.15
905.2517	1688.9488	2762.55	1881.2
905.3932	1690.6754	2739.15	1860.75
905.5347	1692.4012	2729.3	1848.05
905.6761	1694.1263	2720.8	1840.75
905.8176	1695.8506	2716.05	1835.35
905.9591	1697.5742	2697.7	1816.85
906.1005	1699.297	2688.95	1808.65
906.2419	1701.0191	2666.05	1784.4
906.3833	1702.7404	2668.4	1789.35
906.5246	1704.461	2667	1783.3
906.666	1706.1808	2634.05	1751
906.8073	1707.8999	2639.8	1757.55
906.9487	1709.6182	2620.35	1738.45
907.09	1711.3358	2627.1	1746.8
907.2313	1713.0527	2629.3	1750.05
907.3725	1714.7688	2617.75	1731.6
907.5138	1716.4841	2602.05	1721.35
907.655	1718.1987	2593.05	1707.55
907.7962	1719.9126	2576.3	1697.35
907.9374	1721.6257	2581	1695
908.0786	1723.338	2569.55	1687.1
908.2198	1725.0496	2564	1682.3
908.3609	1726.7605	2564.55	1681.15
908.502	1728.4706	2565.5	1683.35
908.6431	1730.18	2564.6	1679.95
908.7842	1731.8886	2554.6	1674.65
908.9253	1733.5964	2543.8	1656
909.0664	1735.3036	2544.2	1659.2
909.2074	1737.0099	2528.75	1648.5
909.3484	1738.7156	2517.05	1635.9
909.4894	1740.4204	2528.7	1646.35
909.6304	1742.1246	2527.45	1645.25
909.7714	1743.8279	2507.95	1626.9
909.9123	1745.5306	2512	1629.75
910.0532	1747.2325	2491.7	1611.1
910.1941	1748.9336	2494.1	1612.4
910.335	1750.634	2485.85	1604.6
910.4759	1752.3336	2491.2	1609.7
910.6168	1754.0325	2479.75	1597.65
910.7576	1755.7307	2495.5	1614.9
910.8984	1757.4281	2471.1	1589.85
911.0392	1759.1247	2488.45	1598.05
911.18	1760.8206	2481.2	1595.85
911.3208	1762.5158	2486.6	1602.2
911.4615	1764.2102	2463	1583.45
911.6022	1765.9039	2453.2	1573
911.7429	1767.5968	2451.3	1569.9
911.8836	1769.289	2457.8	1576.15
912.0243	1770.9804	2455.4	1573.35
912.1649	1772.6711	2440.75	1562.15
912.3056	1774.361	2439.45	1556.5
912.4462	1776.0502	2438.95	1557.85
912.5868	1777.7386	2430.85	1544.95
912.7274	1779.4263	2423.6	1540.9
912.8679	1781.1132	2421.4	1539.4
913.0084	1782.7994	2414	1532.05
913.149	1784.4849	2414.95	1532.7
913.2895	1786.1696	2421	1532.15
913.4299	1787.8535	2405.7	1525.75
913.5704	1789.5367	2396	1514.5
913.7108	1791.2192	2389.75	1506.85
913.8513	1792.9009	2406.15	1499.1
913.9917	1794.5818	2384.2	1502.8
914.132	1796.2621	2380.55	1500.65
914.2724	1797.9415	2366.2	1484
914.4128	1799.6202	2368.1	1487.35
914.5531	1801.2982	2371.05	1488.9
914.6934	1802.9755	2356.65	1475.8
914.8337	1804.6519	2360.15	1479.6
914.9739	1806.3277	2358.4	1477.7
915.1142	1808.0027	2341.35	1460.75
915.2544	1809.6769	2338.5	1457.15
915.3946	1811.3504	2338.1	1457.5
915.5348	1813.0231	2334.85	1453.55
915.675	1814.6951	2325.5	1445.05
915.8151	1816.3664	2317.45	1435.4
915.9553	1818.0369	2317.25	1436.75
916.0954	1819.7067	2306.8	1425.35
916.2355	1821.3757	2297.8	1413.3
916.3755	1823.044	2294	1411.8
916.5156	1824.7115	2299.35	1417.7
916.6556	1826.3783	2288.9	1407.45
916.7956	1828.0443	2283.5	1404.35
916.9356	1829.7096	2296.3	1412.75
917.0756	1831.3741	2285.95	1401.75
917.2155	1833.0379	2281.75	1401.5
917.3555	1834.701	2274.3	1391
917.4954	1836.3633	2256.05	1373.65
917.6353	1838.0248	2257.35	1372.5
917.7751	1839.6856	2260.05	1377.1
917.915	1841.3457	2254.85	1375.15
918.0548	1843.005	2244.4	1362
918.1946	1844.6636	2257.4	1378.6
918.3344	1846.3214	2246.45	1364.1
918.4742	1847.9785	2240	1360.65
918.6139	1849.6349	2238.8	1357.75
918.7537	1851.2904	2243.65	1352.2
918.8934	1852.9453	2219.9	1336.6
919.0331	1854.5994	2224.9	1342.75
919.1727	1856.2528	2221.7	1332.6
919.3124	1857.9054	2221.6	1339.15
919.452	1859.5572	2215.5	1335.85
919.5916	1861.2083	2213.8	1331.8
919.7312	1862.8587	2211.4	1330.55
919.8708	1864.5084	2195.55	1313.05
920.0103	1866.1572	2199.35	1321.15
920.1498	1867.8054	2189.15	1307.65
920.2893	1869.4528	2191.15	1308.9
920.4288	1871.0994	2190.55	1307.35
920.5683	1872.7453	2171.65	1290.25
920.7077	1874.3905	2187.2	1299.45
920.8471	1876.0349	2171.85	1291.15
920.9865	1877.6786	2170.95	1286.85
921.1259	1879.3215	2170	1288.05
921.2653	1880.9637	2161.95	1280.6
921.4046	1882.6051	2157.2	1275.15
921.5439	1884.2458	2164.4	1280.8
921.6832	1885.8858	2144.5	1262.7
921.8225	1887.525	2141.25	1258.75
921.9617	1889.1634	2134.95	1255.15
922.101	1890.8011	2124.95	1244.75
922.2402	1892.4381	2122.65	1241.7
922.3794	1894.0743	2126	1245.1
922.5185	1895.7098	2124.05	1242.8
922.6577	1897.3446	2122.35	1241.1
922.7968	1898.9786	2129.15	1244.7
922.9359	1900.6118	2109.1	1229.5
923.075	1902.2443	2103.1	1220.25
923.214	1903.8761	2100.5	1219.9
923.3531	1905.5071	2099	1216.5
923.4921	1907.1374	2090.6	1208.4
923.6311	1908.7669	2079.65	1199.25
923.77	1910.3957	2078.35	1194.8
923.909	1912.0237	2080.8	1199.7
924.0479	1913.651	2073.65	1189.8
924.1868	1915.2776	2066.3	1184.5
924.3257	1916.9034	2067.65	1186.55
924.4646	1918.5285	2059.5	1178.55
924.6034	1920.1528	2063.7	1182.05
924.7422	1921.7764	2046.45	1163.45
924.881	1923.3992	2052.35	1171.75
925.0198	1925.0213	2042.4	1159.15
925.1586	1926.6427	2033.75	1152.25
925.2973	1928.2633	2096.5	1150.3
925.436	1929.8832	2043.95	1161.4
925.5747	1931.5023	2019	1137.25
925.7134	1933.1207	2030	1148.6
925.852	1934.7383	2024.25	1142.95
925.9906	1936.3552	2020.65	1141.1
926.1292	1937.9714	2011.3	1129.15
926.2678	1939.5868	2009.9	1127.35
926.4064	1941.2015	2010.2	1129.05
926.5449	1942.8154	1999.65	1117.1
926.6834	1944.4286	1996.25	1115.95
926.8219	1946.041	2008.6	1104.1
926.9604	1947.6528	1994.3	1106.65
927.0988	1949.2637	1985.15	1103.55
927.2372	1950.8739	1987.3	1103.4
927.3756	1952.4834	1977.05	1095.2
927.514	1954.0921	1973	1091.1
927.6523	1955.7001	1980.2	1094.25
927.7907	1957.3074	1967.55	1087.65
927.929	1958.9139	1963.1	1082.8
928.0673	1960.5197	1960.85	1079.85
928.2055	1962.1247	1955.2	1073.05
928.3438	1963.729	1939.4	1059
928.482	1965.3325	1964.65	1061.15
928.6202	1966.9353	1952.25	1072.5
928.7584	1968.5374	1937.6	1055.45
928.8965	1970.1387	1931.1	1049.45
929.0346	1971.7393	1939.55	1058.7
929.1727	1973.3392	1940.35	1058.2
929.3108	1974.9383	1928.35	1047.2
929.4489	1976.5366	1925.65	1044.85
929.5869	1978.1342	1922.25	1038.6
929.7249	1979.7311	1920.6	1037.75
929.8629	1981.3273	1908.5	1026.8
930.0009	1982.9227	1912.05	1028.25
930.1388	1984.5173	1907.75	1027.95
930.2767	1986.1112	1905.4	1025.3
930.4146	1987.7044	1891.35	1011.15
930.5525	1989.2968	1905.7	1022.15
930.6904	1990.8885	1907.8	1023
930.8282	1992.4795	1897.45	1014.3
930.966	1994.0697	1890.35	1009.7
931.1038	1995.6592	1899.9	1018.4
931.2415	1997.2479	1892.45	1010.1
931.3793	1998.8359	1888.15	1005.85
931.517	2000.4232	1877.95	997.2
931.6547	2002.0097	1883.8	1004.15
931.7923	2003.5955	1868.3	987.4
931.93	2005.1805	1881.2	997.25
932.0676	2006.7648	1860.65	979.65
932.2052	2008.3484	1879.9	997.4
932.3427	2009.9312	1864.55	982.55
932.4803	2011.5133	1858.95	976.7
932.6178	2013.0946	1870.15	989.6
932.7553	2014.6752	1851.4	970.75
932.8928	2016.2551	1861.8	980.65
933.0302	2017.8342	1862.9	983.75
933.1676	2019.4126	1853.75	973.8
933.305	2020.9902	1847.8	968.05
933.4424	2022.5672	1849.3	965.85
933.5798	2024.1433	1852.45	966
933.7171	2025.7188	1844	966.4
933.8544	2027.2935	1841.2	957.6
933.9917	2028.8674	1831.95	951.8
934.129	2030.4406	1834.8	953.9
934.2662	2032.0131	1829.2	946.7
934.4034	2033.5849	1833.75	950.45
934.5406	2035.1559	1827.7	946.65
934.6778	2036.7261	1831.35	947.65
934.8149	2038.2957	1816.35	935.95
934.952	2039.8645	1818.45	937.6
935.0891	2041.4325	1825.55	943.25
935.2262	2042.9998	1817.35	937
935.3632	2044.5664	1817.1	935
935.5002	2046.1323	1817.3	936.3
935.6372	2047.6974	1810.6	929.1
935.7742	2049.2617	1810.65	929.8
935.9111	2050.8254	1813.7	927.4
936.048	2052.3883	1809.1	927.35
936.1849	2053.9504	1800.85	918.6
936.3218	2055.5118	1791.15	909.05
936.4586	2057.0725	1803.15	918.5
936.5955	2058.6325	1797.95	917.1
936.7323	2060.1917	1793.2	911.6
936.869	2061.7502	1793.2	909.75
937.0058	2063.3079	1790.5	909.4
937.1425	2064.8649	1793.65	909.65
937.2792	2066.4212	1792.35	910.8
937.4159	2067.9767	1780.95	900.05
937.5525	2069.5315	1780.9	898.75
937.6891	2071.0856	1777.1	894.6
937.8257	2072.6389	1775.45	893.1
937.9623	2074.1915	1770.6	891.4
938.0989	2075.7433	1768.45	884.8
938.2354	2077.2945	1771.05	893.1
938.3719	2078.8448	1758.8	876.25
938.5084	2080.3945	1766.45	884.8
938.6448	2081.9434	1765.9	883.75
938.7812	2083.4916	1760.55	878.8
938.9176	2085.039	1752.4	870
939.054	2086.5857	1758.2	875.05
939.1903	2088.1317	1755.4	873.7
939.3267	2089.677	1766.1	884.6
939.463	2091.2215	1746.5	865.35
939.5992	2092.7652	1754.6	871.75
939.7355	2094.3083	1744.15	862.1
939.8717	2095.8506	1744.75	864.9
940.0079	2097.3921	1752.8	871.95
940.1441	2098.933	1747.25	866.45
940.2802	2100.4731	1739.9	859.6
940.4163	2102.0124	1751.7	865.05
940.5524	2103.5511	1740.2	860.85
940.6885	2105.089	1739.95	858.35
940.8245	2106.6261	1736.15	855.6
940.9606	2108.1626	1734.9	852.4
941.0965	2109.6983	1759.85	850.85
941.2325	2111.2332	1735.25	850.6
941.3684	2112.7675	1734	853.25
941.5044	2114.301	1724.95	842.6
941.6403	2115.8337	1729.9	847.4
941.7761	2117.3657	1718.2	838
941.912	2118.897	1720.8	838.3
942.0478	2120.4276	1723.45	837.85
942.1835	2121.9575	1713.25	831.7
942.3193	2123.4866	1737.25	841
942.455	2125.0149	1720.55	837.65
942.5907	2126.5426	1707.85	826
942.7264	2128.0695	1712.8	826.85
942.8621	2129.5956	1716.1	836.15
942.9977	2131.1211	1709.35	822.55
943.1333	2132.6458	1698.75	818.1
943.2689	2134.1698	1700.4	819.7
943.4044	2135.693	1696.85	813.45
943.54	2137.2155	1706.6	823.2
943.6755	2138.7373	1709.2	825.75
943.8109	2140.2584	1690.8	811.3
943.9464	2141.7787	1700.85	814.65
944.0818	2143.2983	1691.6	811.5
944.2172	2144.8171	1695.95	814.9
944.3526	2146.3353	1682.85	800.55
944.4879	2147.8527	1686.05	804.55
944.6232	2149.3693	1678.8	795.85
944.7585	2150.8853	1688.55	807.9
944.8938	2152.4005	1674.45	793.25
945.029	2153.9149	1675.75	794.7
945.1642	2155.4287	1778.6	788.25
945.2994	2156.9417	1679.9	796.3
945.4346	2158.454	1679.4	796.1
945.5697	2159.9655	1663.55	782.5
945.7048	2161.4764	1669.5	788
945.8399	2162.9865	1658.65	774.65
945.9749	2164.4958	1657.55	775.3
946.1099	2166.0045	1672.9	787.7
946.2449	2167.5124	1666.1	785.2
946.3799	2169.0195	1656.1	775.5
946.5148	2170.526	1654	772.6
946.6498	2172.0317	1662.95	781.1
946.7846	2173.5367	1659.55	776.8
946.9195	2175.0409	1645.85	763.2
947.0543	2176.5445	1655.95	775.95
947.1891	2178.0473	1640.4	756.7
947.3239	2179.5494	1646.95	761.4
947.4587	2181.0507	1642.6	760.1
947.5934	2182.5513	1642.2	760.25
947.7281	2184.0512	1636.65	754.45
947.8628	2185.5504	1636.35	755.95
947.9974	2187.0488	1634.2	753.95
948.132	2188.5465	1628.7	746.05
948.2666	2190.0435	1626.9	745.1
948.4012	2191.5397	1624.6	744.45
948.5357	2193.0353	1621.95	740.6
948.6702	2194.5301	1619.95	736.7
948.8047	2196.0241	1620.55	739.7
948.9392	2197.5175	1620.85	738.3
949.0736	2199.0101	1615	730.35
949.208	2200.502	1604.9	724.05
949.3424	2201.9931	1613.65	732.55
949.4767	2203.4835	1597.25	715.2
949.611	2204.9733	1615.65	718.2
949.7453	2206.4622	1600.55	720.2
949.8796	2207.9505	1594.15	710.9
950.0138	2209.438	1589.35	708.85
950.148	2210.9248	1590.2	707.65
950.2822	2212.4109	1586.35	705.5
950.4164	2213.8962	1592.35	706.35
950.5505	2215.3809	1581.9	698.3
950.6846	2216.8648	1585.4	702.1
950.8186	2218.3479	1588.55	703.5
950.9527	2219.8304	1583.4	698.65
951.0867	2221.3121	1570.7	687
951.2207	2222.7931	1579.05	696.1
951.3546	2224.2733	1579.45	696.85
951.4886	2225.7529	1569.7	685.6
951.6225	2227.2317	1562.7	678.3
951.7563	2228.7098	1564.55	682.05
951.8902	2230.1872	1568.45	686.7
952.024	2231.6638	1572.25	693.1
952.1578	2233.1397	1565.45	678.6
952.2916	2234.6149	1555.3	676.5
952.4253	2236.0894	1556.85	674.5
952.559	2237.5632	1556	672.75
952.6927	2239.0362	1546.85	664.35
952.8263	2240.5085	1541.95	660.25
952.9599	2241.9801	1546.15	666.3
953.0935	2243.4509	1545.75	664.75
953.2271	2244.921	1536.05	653.95
953.3606	2246.3904	1540.95	657.15
953.4941	2247.8591	1533.05	651.15
953.6276	2249.3271	1536.1	655.1
953.7611	2250.7943	1534.9	651.8
953.8945	2252.2608	1534.6	654.05
954.0279	2253.7266	1525.05	645.95
954.1612	2255.1917	1529.25	647.35
954.2946	2256.656	1522.9	641.45
954.4279	2258.1197	1516.65	635.4
954.5612	2259.5826	1521.75	637.65
954.6944	2261.0447	1521.6	639.2
954.8276	2262.5062	1518.8	634.3
954.9608	2263.9669	1517.35	632.5
955.094	2265.4269	1508.4	628
955.2271	2266.8862	1510.8	628.15
955.3602	2268.3448	1507.2	625.55
955.4933	2269.8026	1507.05	624.6
955.6264	2271.2598	1508.55	626.9
955.7594	2272.7162	1497.8	615.85
955.8924	2274.1719	1503.6	622.8
956.0253	2275.6268	1506.45	622.05
956.1583	2277.0811	1491.55	609.1
956.2912	2278.5346	1491.55	611.75
956.4241	2279.9874	1497.1	617.95
956.5569	2281.4395	1494.15	613.9
956.6897	2282.8908	1497.05	610.25
956.8225	2284.3414	1498.55	616.1
956.9553	2285.7914	1486.1	605.7
957.088	2287.2406	1485.55	602.1
957.2207	2288.689	1476.45	594.7
957.3534	2290.1368	1476.7	594.4
957.486	2291.5838	1474.5	589.65
957.6186	2293.0302	1473.35	589.4
957.7512	2294.4758	1472.8	591.5
957.8838	2295.9206	1464.4	580.75
958.0163	2297.3648	1463.7	582.4
958.1488	2298.8082	1476.65	595
958.2813	2300.251	1469.05	587.05
958.4137	2301.693	1458.85	574.3
958.5461	2303.1343	1461.65	577.85
958.6785	2304.5748	1457.95	576.15
958.8108	2306.0147	1461.35	578.2
958.9432	2307.4538	1453.15	569
959.0754	2308.8922	1451.2	570.2
959.2077	2310.3299	1453.75	571
959.3399	2311.7669	1451.9	571.75
959.4721	2313.2031	1448.55	566.6
959.6043	2314.6387	1446.05	564.9
959.7365	2316.0735	1445.25	563.05
959.8686	2317.5076	1448.3	566.4
960.0006	2318.941	1443.55	560.55
960.1327	2320.3737	1444.35	560.85
960.2647	2321.8056	1439.9	555.95
960.3967	2323.2369	1437.8	554.8
960.5287	2324.6674	1433.15	551.2
960.6606	2326.0972	1435.25	552.8
960.7925	2327.5263	1436.7	554.25
960.9244	2328.9547	1430.45	549.75
961.0562	2330.3823	1427.65	543.1
961.1881	2331.8092	1432.25	547.05
961.3198	2333.2355	1421.55	540.55
961.4516	2334.661	1414.25	531.45
961.5833	2336.0858	1419.05	536.3
961.715	2337.5098	1405.5	523.25
961.8467	2338.9332	1410.45	526.1
961.9783	2340.3558	1413.1	528.7
962.1099	2341.7778	1402.2	520.65
962.2415	2343.199	1408.35	522.75
962.373	2344.6195	1397.25	513.8
962.5045	2346.0393	1389.9	509.3
962.636	2347.4583	1402.15	519.35
962.7675	2348.8767	1400.4	518.75
962.8989	2350.2943	1391.5	509.7
963.0303	2351.7113	1390.7	508.6
963.1617	2353.1275	1381.5	499.8
963.293	2354.543	1409.4	504.05
963.4243	2355.9578	1380.25	499.2
963.5556	2357.3718	1380.25	498.3
963.6868	2358.7852	1370.7	486.65
963.818	2360.1978	1368.6	485.75
963.9492	2361.6098	1369.9	488.4
964.0803	2363.021	1362.4	476.35
964.2114	2364.4315	1363.55	479
964.3425	2365.8413	1355	467.05
964.4736	2367.2504	1344.55	464.4
964.6046	2368.6587	1361.8	481.15
964.7356	2370.0664	1346.1	463.8
964.8666	2371.4733	1343.65	460.65
964.9975	2372.8795	1339.6	457.25
965.1284	2374.285	1337.15	453.15
965.2593	2375.6899	1332.1	452.9
965.3901	2377.0939	1327.85	444.55
965.5209	2378.4973	1327.45	447.85
965.6517	2379.9	1323.5	441.3
965.7825	2381.3019	1322.95	440.45
965.9132	2382.7032	1318.95	439.35
966.0439	2384.1037	1311.5	430.65
966.1745	2385.5035	1314.95	432.2
966.3051	2386.9027	1310.8	431.25
966.4357	2388.3011	1304	420.2
966.5663	2389.6987	1302.55	420.5
966.6968	2391.0957	1303.6	421.3
966.8273	2392.492	1297.9	416.35
966.9578	2393.8876	1292.65	410.1
967.0882	2395.2824	1288.5	406.15
967.2186	2396.6765	1285.05	403.25
967.349	2398.07	1289.5	406.45
967.4793	2399.4627	1287.7	404.9
967.6097	2400.8547	1284.8	402.9
967.7399	2402.246	1289.95	403.1
967.8702	2403.6366	1279.9	398
968.0004	2405.0265	1272.7	390.55
968.1306	2406.4156	1280.85	394.2
968.2607	2407.8041	1282.2	397.15
968.3909	2409.1918	1272.5	387.45
968.521	2410.5789	1269.25	386.4
968.651	2411.9652	1264.4	380.05
968.781	2413.3508	1260.95	378.25
968.911	2414.7358	1270.95	388.6
969.041	2416.12	1268.65	387.3
969.1709	2417.5035	1261.15	380.5
969.3008	2418.8863	1257.1	372.85
969.4307	2420.2684	1256.8	375
969.5606	2421.6497	1261.25	379.1
969.6904	2423.0304	1252.95	372.1
969.8201	2424.4104	1254.8	373.8
969.9499	2425.7896	1251.55	366.65
970.0796	2427.1682	1255.85	374.15
970.2093	2428.546	1250.65	368.15
970.3389	2429.9232	1259.85	375.95
970.4685	2431.2996	1251.25	369.9
970.5981	2432.6753	1248.3	366.2
970.7277	2434.0503	1251	368.5
970.8572	2435.4246	1247.6	363.65
970.9867	2436.7982	1248.5	363.5
971.1161	2438.1711	1243.35	361.35
971.2456	2439.5433	1248.5	364.5
971.375	2440.9148	1249.5	361.95
971.5043	2442.2856	1239.2	356.95
971.6336	2443.6557	1240.8	358.05
971.7629	2445.025	1241	358.6
971.8922	2446.3937	1237.6	355.8
972.0214	2447.7617	1237.9	356.25
972.1506	2449.1289	1235.3	351.7
972.2798	2450.4955	1232.55	347.3
972.4089	2451.8613	1228.9	345.7
972.538	2453.2265	1235	352.35
972.6671	2454.5909	1232.45	348.75
972.7961	2455.9546	1228.9	346.35
972.9251	2457.3177	1231.3	348.35
973.0541	2458.68	1232.7	347.8
973.1831	2460.0416	1231.4	348.4
973.312	2461.4025	1230.85	346.95
973.4408	2462.7627	1237.65	344
973.5697	2464.1222	1227.55	347.5
973.6985	2465.4811	1223.05	340.75
973.8273	2466.8392	1226.55	344.95
973.956	2468.1966	1220	335.2
974.0847	2469.5533	1232.65	347
974.2134	2470.9093	1222.9	339.85
974.3421	2472.2645	1223.55	341.05
974.4707	2473.6191	1228.65	346.65
974.5993	2474.973	1210.3	327.25
974.7278	2476.3262	1218.2	336.6
974.8563	2477.6787	1219.75	337.2
974.9848	2479.0305	1212.1	328.8
975.1132	2480.3816	1219.35	336.2
975.2417	2481.7319	1207.9	326.6
975.37	2483.0816	1209.9	325.9
975.4984	2484.4306	1206.3	324.3
975.6267	2485.7789	1204.55	322.75
975.755	2487.1264	1211.65	329.15
975.8833	2488.4733	1205.4	323.15
976.0115	2489.8195	1227.55	329.6
976.1397	2491.165	1208.8	323.25
976.2678	2492.5097	1203.85	320
976.3959	2493.8538	1198.3	318.25
976.524	2495.1972	1202.5	319.65
976.6521	2496.5398	1201.95	319.6
976.7801	2497.8818	1199.9	315
976.9081	2499.2231	1196.25	314.1
977.036	2500.5637	1198	313.35
977.164	2501.9035	1194.75	312.4
977.2918	2503.2427	1200.2	313.15
977.4197	2504.5812	1194.95	314.1
977.5475	2505.919	1191.75	307.25
977.6753	2507.256	1188.35	306.3
977.8031	2508.5924	1187.65	303.9
977.9308	2509.9281	1199.3	310.6
978.0585	2511.2631	1187.8	305.1
978.1861	2512.5974	1184.85	304.65
978.3137	2513.9309	1185.6	302.5
978.4413	2515.2638	1207.1	297.25
978.5689	2516.596	1179.45	297.05
978.6964	2517.9275	1177.3	293.15
978.8239	2519.2583	1181.1	297.5
978.9513	2520.5884	1180.35	297.5
979.0788	2521.9178	1177	294.55
979.2062	2523.2465	1173.7	292.9
979.3335	2524.5745	1172.65	291.25
979.4608	2525.9018	1174.2	291.25
979.5881	2527.2284	1174.05	293.6
979.7154	2528.5543	1174.05	292.7
979.8426	2529.8796	1169.25	287.45
979.9698	2531.2041	1173.65	290.7
980.0969	2532.5279	1167.95	287.65
980.224	2533.851	1166.35	284.25
980.3511	2535.1735	1165.65	284.3
980.4781	2536.4952	1165.35	283.6
980.6052	2537.8163	1164.25	281.3
980.7321	2539.1366	1164.8	284.55
980.8591	2540.4562	1162.85	280
980.986	2541.7752	1164.95	283.3
981.1129	2543.0935	1163.6	281.25
981.2397	2544.411	1161.3	276.35
981.3665	2545.7279	1156.85	275.65
981.4933	2547.0441	1155.9	273.65
981.62	2548.3596	1160.3	274.75
981.7467	2549.6744	1160.2	279.05
981.8734	2550.9885	1160.8	275.6
982.0001	2552.3019	1158.7	275.3
982.1267	2553.6146	1153	271.2
982.2532	2554.9266	1160.05	278.5
982.3798	2556.2379	1153.2	271.6
982.5063	2557.5485	1152.85	273.1
982.6327	2558.8585	1157.1	268
982.7592	2560.1677	1157.25	272.1
982.8856	2561.4762	1151.75	270.05
983.0119	2562.7841	1152.3	266.65
983.1383	2564.0913	1144.45	263.95
983.2646	2565.3977	1144.35	261.6
983.3908	2566.7035	1150.4	265.75
983.517	2568.0086	1148.4	264.1
983.6432	2569.313	1144.1	260
983.7694	2570.6167	1148.7	264.2
983.8955	2571.9197	1144.65	262.55
984.0216	2573.222	1145.15	261.35
984.1476	2574.5236	1145.95	262.9
984.2737	2575.8246	1146.8	263.8
984.3996	2577.1248	1143.95	259.55
984.5256	2578.4244	1135.4	253.65
984.6515	2579.7232	1141.9	259.6
984.7774	2581.0214	1170.7	258.15
984.9032	2582.3189	1135.85	254.6
985.029	2583.6157	1145.8	247.45
985.1548	2584.9118	1135.85	253.7
985.2806	2586.2072	1129.3	246.9
985.4063	2587.5019	1134.25	252.6
985.5319	2588.7959	1132.7	251.25
985.6576	2590.0893	1130.15	247.65
985.7832	2591.3819	1127.1	245.15
985.9087	2592.6739	1128.35	247.25
986.0343	2593.9652	1127.75	245.15
986.1597	2595.2557	1125.2	244.7
986.2852	2596.5456	1126.55	241.2
986.4106	2597.8348	1121.5	238.95
986.536	2599.1234	1119.4	236.4
986.6614	2600.4112	1123.35	239.9
986.7867	2601.6983	1125.5	242.1
986.912	2602.9848	1121.4	238.35
987.0372	2604.2705	1122.6	233.35
987.1624	2605.5556	1114.15	233.1
987.2876	2606.84	1117.15	236.05
987.4128	2608.1237	1115.05	231.9
987.5379	2609.4067	1112.45	228.95
987.6629	2610.689	1123.3	231.1
987.788	2611.9707	1110.4	226.5
987.913	2613.2516	1113.9	227.75
988.0379	2614.5319	1109	226.25
988.1629	2615.8115	1104.05	221.15
988.2878	2617.0903	1109.55	226.1
988.4126	2618.3685	1104.9	221.65
988.5375	2619.6461	1099.55	217.6
988.6622	2620.9229	1100.3	217.4
988.787	2622.199	1106.1	223.55
988.9117	2623.4745	1104.9	222.5
989.0364	2624.7493	1102.05	219.6
989.161	2626.0234	1100.8	219.5
989.2857	2627.2968	1098	215.95
989.4102	2628.5695	1096.5	211.15
989.5348	2629.8415	1097.25	216.3
989.6593	2631.1128	1097.7	213.45
989.7837	2632.3835	1093.25	211.9
989.9082	2633.6535	1094.15	214
990.0326	2634.9228	1090.5	209.6
990.1569	2636.1914	1095.9	213.65
990.2812	2637.4593	1095.1	211.45
990.4055	2638.7265	1091.1	207.5
990.5298	2639.9931	1084	201.2
990.654	2641.259	1087	202.7
990.7782	2642.5242	1089.35	206.65
990.9023	2643.7887	1085.9	203.5
991.0264	2645.0525	1085.7	203.6
991.1505	2646.3156	1104.1	206.4
991.2745	2647.5781	1087.25	207.75
991.3985	2648.8398	1083.65	202.55
991.5225	2650.1009	1105.75	197.25
991.6464	2651.3613	1085.5	204.4
991.7703	2652.6211	1085.2	202.95
991.8942	2653.8801	1075.5	195.15
992.018	2655.1385	1084.9	201.55
992.1418	2656.3961	1080.5	199.5
992.2655	2657.6531	1081.45	200.3
992.3892	2658.9094	1083.8	200.2
992.5129	2660.1651	1081.15	199.9
992.6366	2661.42	1080.5	197.8
992.7602	2662.6743	1077.75	194
992.8837	2663.9279	1075.25	196.35
993.0073	2665.1808	1079.9	196.2
993.1307	2666.433	1070.35	187.9
993.2542	2667.6846	1071.55	190.35
993.3776	2668.9354	1075.35	190.5
993.501	2670.1856	1077.85	194.3
993.6244	2671.4351	1071.45	190.6
993.7477	2672.6839	1073.9	190.55
993.8709	2673.9321	1072.25	191.1
993.9942	2675.1795	1067.35	184.4
994.1174	2676.4263	1072	192.4
994.2405	2677.6724	1072.9	191.5
994.3637	2678.9179	1068.1	186.1
994.4868	2680.1626	1067.8	187.15
994.6098	2681.4067	1069.55	187.25
994.7328	2682.6501	1068.7	186.2
994.8558	2683.8928	1064.85	181.75
994.9788	2685.1348	1068.4	187.5
995.1017	2686.3761	1062.2	180.5
995.2245	2687.6168	1067.55	184.45
995.3474	2688.8568	1064.7	183
995.4702	2690.0961	1061.2	179
995.5929	2691.3348	1058.9	176.75
995.7156	2692.5727	1064.1	181.5
995.8383	2693.81	1059.7	176.45
995.961	2695.0466	1059.65	179.15
996.0836	2696.2826	1063.05	180.15
996.2062	2697.5178	1065.7	181.25
996.3287	2698.7524	1058.4	177
996.4512	2699.9863	1060.5	176.2
996.5737	2701.2195	1056.65	176.2
996.6961	2702.452	1062.9	178
996.8185	2703.6839	1059.35	175.85
996.9408	2704.9151	1057.1	176.3
997.0631	2706.1456	1055.1	171.9
997.1854	2707.3755	1056.15	174.25
997.3077	2708.6046	1061.5	177.4
997.4299	2709.8331	1058.35	176.6
997.552	2711.0609	1053.55	171.15
997.6742	2712.2881	1056.3	174.5
997.7963	2713.5145	1057.35	173.25
997.9183	2714.7403	1052.7	170.25
998.0403	2715.9654	1054.1	168.75
998.1623	2717.1899	1071.05	173.3
998.2842	2718.4136	1056.25	174.45
998.4062	2719.6367	1051.25	169.35
998.528	2720.8591	1061	172.3
998.6498	2722.0809	1056.5	174.4
998.7716	2723.3019	1057.55	173.05
998.8934	2724.5223	1052.25	170.55
999.0151	2725.7421	1052.9	168.95
999.1368	2726.9611	1052.45	168.3
999.2584	2728.1795	1056.05	168.35
999.38	2729.3972	1051.8	170.15
999.5016	2730.6142	1057.25	169.15
999.6231	2731.8306	1048.8	166.5
999.7446	2733.0462	1048.45	164.4
999.8661	2734.2612	1047.2	158.85
999.9875	2735.4756	1044.4	162.9
1000.1089	2736.6892	1045	161.25
1000.2302	2737.9022	1038.55	156.35
1000.3515	2739.1145	1039.35	157.9
1000.4728	2740.3262	1049.45	160.8
1000.594	2741.5372	1035.8	153.5
1000.7152	2742.7475	1033.65	151.5
1000.8363	2743.9571	1039.5	156.15
1000.9575	2745.1661	1040.7	154.55
1001.0785	2746.3744	1039.35	155.35
1001.1996	2747.582	1035.65	155.6
1001.3206	2748.7889	1038.2	154.45
1001.4415	2749.9952	1032.25	151.15
1001.5625	2751.2008	1030.05	147.15
1001.6833	2752.4057	1031.35	146.15
1001.8042	2753.61	1029	146.6
1001.925	2754.8136	1034.1	149
1002.0458	2756.0165	1026.55	146.3
1002.1665	2757.2188	1024.55	142.55
1002.2872	2758.4204	1025.7	143.5
1002.4078	2759.6213	1028.3	144.85
1002.5285	2760.8215	1030.45	146.25
1002.649	2762.0211	1027.65	145.1
1002.7696	2763.22	1026.65	140.55
1002.8901	2764.4182	1026.8	143.65
1003.0106	2765.6158	1023.95	141.75
1003.131	2766.8127	1019.4	137.55
1003.2514	2768.009	1022.1	139.05
1003.3717	2769.2045	1020.1	137.25
1003.492	2770.3994	1024.35	140.9
1003.6123	2771.5936	1023.25	140.25
1003.7325	2772.7872	1014.3	135.1
1003.8527	2773.9801	1020	134.15
1003.9729	2775.1723	1032	132.3
1004.093	2776.3639	1017.25	137.6
1004.2131	2777.5548	1019.65	136.1
1004.3331	2778.745	1017.35	135.95
1004.4531	2779.9346	1017.35	136
1004.5731	2781.1235	1016.6	132.95
1004.693	2782.3117	1014.65	133.35
1004.8129	2783.4992	1014.6	132.8
1004.9328	2784.6861	1013	132.1
1005.0526	2785.8723	1016.15	133.1
1005.1723	2787.0579	1016.95	133.6
1005.2921	2788.2428	1013.7	131.6
1005.4118	2789.427	1016.05	135.3
1005.5314	2790.6106	1015.1	133.7
1005.651	2791.7935	1013.65	130.05
1005.7706	2792.9757	1009.8	128.35
1005.8902	2794.1573	1016.2	133.15
1006.0097	2795.3382	1013.55	130.9
1006.1291	2796.5184	1010.4	130.65
1006.2485	2797.698	1013.25	129.35
1006.3679	2798.8769	1013.85	132.1
1006.4873	2800.0551	1013.3	131.85
1006.6066	2801.2327	1011.35	127.35
1006.7258	2802.4096	1008.55	128.95
1006.8451	2803.5859	1005.8	122.2
1006.9642	2804.7615	1008.9	124.8
1007.0834	2805.9364	1010.15	129.7
1007.2025	2807.1106	1017.75	135.95
1007.3216	2808.2842	1009.95	128.05
1007.4406	2809.4572	1012	130.95
1007.5596	2810.6294	1010	128.25
1007.6785	2811.801	1012.1	130.3
1007.7975	2812.972	1014.6	132.25
1007.9163	2814.1423	1012.25	129.45
1008.0352	2815.3119	1018.8	136.15
1008.154	2816.4808	1017.8	136.75
1008.2727	2817.6491	1021.6	140
1008.3914	2818.8167	1023.45	141.6
1008.5101	2819.9837	1033.3	149.55
1008.6288	2821.15	1026.55	144.75
1008.7474	2822.3157	1032.3	150.85
1008.8659	2823.4807	1032.45	149.9
1008.9844	2824.645	1039.4	155.55
1009.1029	2825.8086	1042	160.85
1009.2214	2826.9716	1042.75	160.8
1009.3398	2828.134	1049.75	169.25
1009.4581	2829.2957	1053.85	170.5
1009.5764	2830.4567	1056.25	176.5
1009.6947	2831.617	1054.4	173.95
1009.813	2832.7767	1058.05	178.35
1009.9312	2833.9358	1054.95	172.1
1010.0493	2835.0941	1060.25	177.45
1010.1675	2836.2519	1056.7	173.55
1010.2855	2837.4089	1054.3	172.65
1010.4036	2838.5653	1050.85	169.85
1010.5216	2839.7211	1044.45	162.25
1010.6396	2840.8761	1053	169.05
1010.7575	2842.0306	1046.1	165.8
1010.8754	2843.1843	1044.8	161.75
1010.9932	2844.3374	1045.25	163.7
1011.111	2845.4899	1049.45	165.65
1011.2288	2846.6417	1052.7	173.2
1011.3465	2847.7928	1053.75	172.7
1011.4642	2848.9433	1057.3	174.9
1011.5818	2850.0931	1058.25	175.25
1011.6995	2851.2422	1062.9	180.15
1011.817	2852.3907	1062.1	179.6
1011.9345	2853.5385	1063.75	179.3
1012.052	2854.6857	1072.05	182.2
1012.1695	2855.8323	1061.75	181.3
1012.2869	2856.9781	1065.3	183.85
1012.4042	2858.1233	1063.8	184.3
1012.5216	2859.2679	1070.8	188.55
1012.6389	2860.4118	1074.15	191.45
1012.7561	2861.555	1075.45	188.25
1012.8733	2862.6976	1081.75	197.3
1012.9905	2863.8395	1075.45	195
1013.1076	2864.9808	1077.7	196.7
1013.2247	2866.1214	1073.9	191.6
1013.3417	2867.2614	1074.15	192.65
1013.4587	2868.4007	1080.4	195.8
1013.5757	2869.5393	1083.5	199.15
1013.6926	2870.6773	1083.05	199.5
1013.8095	2871.8146	1086.7	201.85
1013.9263	2872.9513	1081.8	196.95
1014.0431	2874.0874	1080.55	200.65
1014.1599	2875.2227	1081.2	199.05
1014.2766	2876.3574	1074.75	193.1
1014.3933	2877.4915	1079.1	198.3
1014.51	2878.6249	1079.5	199.35
1014.6266	2879.7577	1085.3	203.3
1014.7431	2880.8898	1091.3	199.6
1014.8596	2882.0212	1082.35	203.15
1014.9761	2883.152	1079.25	196.35
1015.0925	2884.2821	1081.95	199.7
1015.2089	2885.4116	1084.3	203.2
1015.3253	2886.5405	1080.05	199.15
1015.4416	2887.6686	1088.35	203.35
1015.5579	2888.7962	1083.75	203.25
1015.6741	2889.923	1081.4	201.85
1015.7903	2891.0493	1086.25	204.8
1015.9065	2892.1748	1080	197.25
1016.0226	2893.2997	1083.95	202.05
1016.1387	2894.424	1082.35	202.2
1016.2547	2895.5476	1082.7	202.7
1016.3707	2896.6706	1081.25	200.3
1016.4866	2897.7929	1081.25	198.45
1016.6025	2898.9145	1077.35	197.45
1016.7184	2900.0355	1086	203.1
1016.8342	2901.1559	1084.5	202.3
1016.95	2902.2756	1084.25	202.25
1017.0658	2903.3946	1084.35	203.4
1017.1815	2904.513	1087.3	202.75
1017.2971	2905.6308	1087.35	205.55
1017.4127	2906.7479	1085.35	201.85
1017.5283	2907.8643	1087.95	205.65
1017.6439	2908.9801	1081.9	199.5
1017.7594	2910.0953	1082.2	201.95
1017.8748	2911.2098	1090.45	206.6
1017.9902	2912.3236	1088.8	199.55
1018.1056	2913.4368	1087.65	204.3
1018.2209	2914.5494	1077.6	196.05
1018.3362	2915.6613	1084.95	197.45
1018.4515	2916.7725	1078.15	195.3
1018.5667	2917.8831	1076.25	193.8
1018.6819	2918.9931	1077.7	193.9
1018.797	2920.1024	1075.1	191.95
1018.9121	2921.211	1068.45	187.2
1019.0271	2922.319	1067.7	184.4
1019.1421	2923.4264	1063.45	183.3
1019.2571	2924.5331	1060.75	181.15
1019.372	2925.6391	1068.1	186.7
1019.4869	2926.7445	1067.1	186.5
1019.6017	2927.8493	1067.2	184.15
1019.7165	2928.9534	1067.1	184.35
1019.8313	2930.0569	1070.5	185.95
1019.946	2931.1597	1068.55	185.9
1020.0606	2932.2619	1069.55	189.25
1020.1753	2933.3634	1066.9	185.6
1020.2899	2934.4643	1073.85	183.05
1020.4044	2935.5645	1074.65	186.4
1020.5189	2936.6641	1073.3	188.8
1020.6334	2937.763	1064.3	183.5
1020.7478	2938.8613	1062.65	179.55
1020.8622	2939.959	1065.5	177.3
1020.9765	2941.056	1058.55	179.85
1021.0908	2942.1523	1056.75	175.15
1021.2051	2943.248	1051.7	169.05
1021.3193	2944.3431	1043.35	162.25
1021.4334	2945.4375	1041.95	159.4
1021.5476	2946.5313	1034	153
1021.6617	2947.6244	1029.15	147.95
1021.7757	2948.7169	1021.3	139.6
1021.8897	2949.8087	1024.15	141.1
1022.0037	2950.8999	1014.1	133.05
1022.1176	2951.9904	1010.55	130.05
1022.2315	2953.0803	1008.65	125.25
1022.3453	2954.1696	1004.3	122.6
1022.4591	2955.2582	1002.65	120.8
1022.5728	2956.3462	998.7	116.95
1022.6865	2957.4335	1000.4	118.7
1022.8002	2958.5202	999.7	115.4
1022.9138	2959.6062	994.5	114
1023.0274	2960.6916	997.75	116.1
1023.141	2961.7764	993.25	110.05
1023.2545	2962.8605	993.2	111.5
1023.3679	2963.9439	993.8	115.05
1023.4813	2965.0267	996.9	113.3
1023.5947	2966.1089	1013.8	110.05
1023.708	2967.1905	992.9	112.85
1023.8213	2968.2714	992.35	110.35
1023.9346	2969.3516	991.7	110
1024.0478	2970.4312	1000.7	112.7
1024.1609	2971.5102	991.7	112.5
1024.274	2972.5885	989.75	108.65
1024.3871	2973.6662	991.8	106.4
1024.5002	2974.7432	988.8	106.55
1024.6132	2975.8196	989.45	107.6
1024.7261	2976.8954	989.4	108.3
1024.839	2977.9705	992.95	111.35
1024.9519	2979.045	991	109.25
1025.0647	2980.1188	992.25	113.8
1025.1775	2981.192	988.7	109.4
1025.2902	2982.2645	986.05	103.4
1025.4029	2983.3364	985.35	103.8
1025.5156	2984.4077	984.15	101.15
1025.6282	2985.4783	985.85	100.05
1025.7407	2986.5483	978.2	99.2
1025.8532	2987.6177	978.1	99
1025.9657	2988.6864	975.7	92.7
1026.0782	2989.7545	974.8	91.6
1026.1906	2990.8219	972.3	92.75
1026.3029	2991.8887	971.55	86.95
1026.4152	2992.9548	971.1	88.75
1026.5275	2994.0204	965.65	84.75
1026.6397	2995.0852	961.1	80.7
1026.7519	2996.1495	963.8	82.95
1026.864	2997.2131	961.3	80.55
1026.9761	2998.276	957.4	76.65
1027.0882	2999.3383	960.05	75.5
1027.2002	3000.4	955.25	72.15
1027.3122	3001.4611	953.5	71.65
1027.4241	3002.5215	951.4	67.35
1027.536	3003.5812	952.95	70.95
1027.6478	3004.6404	952.75	71.85
1027.7596	3005.6989	951.75	68.05
1027.8714	3006.7567	948.85	67.4
1027.9831	3007.8139	970.75	67.6
1028.0947	3008.8705	948.7	67.5
1028.2064	3009.9264	965.7	67.75
1028.3179	3010.9818	947.2	66.75
1028.4295	3012.0364	944.1	61.15
1028.541	3013.0905	943.9	62.05
1028.6524	3014.1439	946.2	63.95
1028.7638	3015.1966	944.3	62.75
1028.8752	3016.2487	945.1	61.55
1028.9865	3017.3002	947.65	62.15
1029.0978	3018.3511	943.7	63.6
1029.209	3019.4013	945.45	65.05
1029.3202	3020.4509	942.3	59.55
1029.4314	3021.4998	944.45	62.95
1029.5425	3022.5481	942.25	60.1
1029.6535	3023.5958	941	61.65
1029.7645	3024.6428	941.55	59.95
1029.8755	3025.6892	937.9	56.1
1029.9864	3026.735	941.4	59.4
1030.0973	3027.7802	941.5	58.9
1030.2082	3028.8247	941.05	59.15
1030.319	3029.8685	939.1	57.65
1030.4297	3030.9118	943.75	63.35
1030.5404	3031.9544	940.55	59.3
1030.6511	3032.9963	940.5	60.05
1030.7617	3034.0376	939.8	58.65
1030.8723	3035.0783	942.95	59.65
1030.9829	3036.1184	940.15	57.2
1031.0934	3037.1578	938.9	59
1031.2038	3038.1966	938.45	55
1031.3142	3039.2348	939.3	59.85
1031.4246	3040.2723	948.65	59.6
1031.5349	3041.3092	937.75	57.6
1031.6452	3042.3455	936	54.1
1031.7554	3043.3811	938.9	55.4
1031.8656	3044.4161	940.3	57.9
1031.9758	3045.4505	935.95	53.85
1032.0859	3046.4842	938.5	56.8
1032.1959	3047.5173	936	56.2
1032.3059	3048.5498	938.4	56.75
1032.4159	3049.5816	937.2	55.55
1032.5258	3050.6128	938.05	55.3
1032.6357	3051.6434	936.9	55.2
1032.7455	3052.6734	939.15	55.3
1032.8553	3053.7027	938.7	56.35
1032.9651	3054.7314	939.85	58
1033.0748	3055.7594	935.05	55.75
1033.1845	3056.7868	938.55	54.55
1033.2941	3057.8136	934.25	52.85
1033.4037	3058.8398	933.8	51.7
1033.5132	3059.8653	934	50.8
1033.6227	3060.8902	933.5	53.3
1033.7321	3061.9145	937.7	54.95
1033.8415	3062.9381	935.7	53.7
1033.9509	3063.9612	954.1	56.55
1034.0602	3064.9835	933.9	51.3
1034.1694	3066.0053	935.15	52.1
1034.2787	3067.0264	933.05	52.55
1034.3878	3068.0469	936.9	53.5
1034.497	3069.0668	933.95	49.15
1034.6061	3070.086	931.8	51.5
1034.7151	3071.1046	935.95	51.55
1034.8241	3072.1226	934.35	51.8
1034.9331	3073.1399	931.15	49.4
1035.042	3074.1567	931.85	49.4
1035.1508	3075.1727	935.6	52
1035.2597	3076.1882	930.4	50.15
1035.3684	3077.203	930.55	51.15
1035.4772	3078.2173	931.45	48.45
1035.5859	3079.2308	933.9	49.35
1035.6945	3080.2438	929.75	47.9
1035.8031	3081.2561	930	48.5
1035.9117	3082.2678	926.95	44.2
1036.0202	3083.2789	927.55	46.3
1036.1286	3084.2893	928.8	48.55
1036.2371	3085.2991	928.9	46.3
1036.3454	3086.3083	930.3	43.55
1036.4538	3087.3169	927.8	45.15
1036.562	3088.3248	925.85	42.25
1036.6703	3089.3321	927.8	42.85
1036.7785	3090.3388	923.45	42.9
1036.8866	3091.3449	925.6	46.05
1036.9948	3092.3503	927.55	44.35
1037.1028	3093.3551	922.95	41.05
1037.2108	3094.3593	924.1	44.4
1037.3188	3095.3629	924.15	43.4
1037.4267	3096.3658	924.2	41.7
1037.5346	3097.3681	923.25	41.65
1037.6425	3098.3698	926.9	43.9
1037.7503	3099.3708	927.65	41.2
1037.858	3100.3713	921.5	42
1037.9657	3101.3711	922.35	41
1038.0734	3102.3702	1052.8	37.3
1038.181	3103.3688	922.4	38.25
1038.2886	3104.3667	918.75	40.25
1038.3961	3105.364	922.1	42.15
1038.5036	3106.3607	922.45	39.7
1038.611	3107.3568	922.15	40.45
1038.7184	3108.3522	919.7	40
1038.8257	3109.347	921.55	39.25
1038.933	3110.3412	922.85	38.9
1039.0403	3111.3348	918.75	37.2
1039.1475	3112.3277	920.3	39.3
1039.2547	3113.32	915.3	33.85
1039.3618	3114.3117	920.9	39
1039.4689	3115.3028	917.15	35.05
1039.5759	3116.2932	920.35	37.35
1039.6829	3117.2831	924.65	38.95
1039.7898	3118.2723	918.6	37.4
1039.8967	3119.2608	915.65	33.2
1040.0035	3120.2488	919	37.8
1040.1103	3121.2361	918.3	35.65
1040.2171	3122.2229	916.4	33.35
1040.3238	3123.209	917.9	35.4
1040.4305	3124.1944	916.9	35.95
1040.5371	3125.1793	919	38.55
1040.6437	3126.1635	914.6	35.1
1040.7502	3127.1471	914.95	33.4
1040.8567	3128.1301	911.95	29.45
1040.9631	3129.1125	912.45	31.2
1041.0695	3130.0942	915.35	32.7
1041.1759	3131.0753	922.15	33.2
1041.2822	3132.0558	916.45	33
1041.3884	3133.0357	914.85	32.8
1041.4946	3134.015	915.8	34.05
1041.6008	3134.9936	917.45	35.55
1041.7069	3135.9716	934	30.45
1041.813	3136.949	915.7	34.6
1041.919	3137.9258	931.4	31.05
1042.025	3138.902	916.8	31.3
1042.1309	3139.8775	913.2	33.05
1042.2368	3140.8524	914.2	32.85
1042.3427	3141.8267	914.95	32.45
1042.4485	3142.8004	915.1	32.5
1042.5542	3143.7735	916.9	28.5
1042.6599	3144.7459	916.95	34.65
1042.7656	3145.7178	915	34.05
1042.8712	3146.689	911.05	31.4
1042.9768	3147.6596	910.3	28.25
1043.0823	3148.6295	912.3	30.75
1043.1878	3149.5989	912.5	31.95
1043.2932	3150.5676	910.5	30.65
1043.3986	3151.5357	911.2	30.45
1043.5039	3152.5032	911.65	31.55
1043.6092	3153.4701	911.75	27.3
1043.7145	3154.4364	914.6	33.15
1043.8197	3155.402	908.2	28.5
1043.9248	3156.367	912.05	31
1044.03	3157.3315	935.5	30.3
1044.135	3158.2952	909.9	28.65
1044.24	3159.2584	910.15	28.6
1044.345	3160.221	911.5	28.6
1044.4499	3161.1829	909.45	27.2
1044.5548	3162.1442	910.65	28.7
1044.6596	3163.105	908.9	29.1
1044.7644	3164.065	907.55	27.55
1044.8692	3165.0245	911.9	29.3
1044.9739	3165.9834	906.7	27.1
1045.0785	3166.9416	906.65	24.4
1045.1831	3167.8993	908.35	26.9
1045.2877	3168.8563	906.65	23.55
1045.3922	3169.8127	908.55	27.4
1045.4966	3170.7684	910.15	27.85
1045.6011	3171.7236	909.4	27.1
1045.7054	3172.6782	907.05	26.25
1045.8098	3173.6321	910.1	29.35
1045.914	3174.5854	913.8	28.9
1046.0183	3175.5381	906.4	23.85
1046.1224	3176.4902	905.1	24.15
1046.2266	3177.4417	907.45	29.35
1046.3307	3178.3926	905.65	24.3
1046.4347	3179.3428	906.05	27.65
1046.5387	3180.2924	907.9	25.65
1046.6427	3181.2415	906.95	24.65
1046.7466	3182.1899	908.5	24.9
1046.8504	3183.1377	906.3	26.05
1046.9542	3184.0848	909.8	25.55
1047.058	3185.0314	904.55	22.25
1047.1617	3185.9773	906.6	23.9
1047.2654	3186.9227	905.9	21.75
1047.369	3187.8674	904.75	23.8
1047.4726	3188.8115	908.15	23
1047.5761	3189.755	905.6	25.65
1047.6796	3190.6979	905.95	24.15
1047.783	3191.6402	903.3	24
1047.8864	3192.5818	904.25	22.4
1047.9898	3193.5229	910.3	22.1
1048.0931	3194.4633	904.7	22.2
1048.1963	3195.4031	906.95	25.2
1048.2995	3196.3423	904.2	22.9
1048.4027	3197.2809	906	22.6
1048.5058	3198.2189	906	22.5
1048.6089	3199.1563	912.2	26.2
1048.7119	3200.0931	904.4	24.05
1048.8148	3201.0292	901.4	20.25
1048.9178	3201.9648	905.7	21.5
1049.0206	3202.8997	906.8	24.8
1049.1235	3203.834	903.8	21.4
1049.2262	3204.7677	902.9	23.55
1049.329	3205.7008	905.4	23.1
1049.4317	3206.6333	902.8	22.25
1049.5343	3207.5652	905.55	24.6
1049.6369	3208.4964	903.6	21.7
1049.7394	3209.4271	905.25	25.45
1049.8419	3210.3571	904.05	25.25
1049.9444	3211.2865	903.4	20.55
1050.0468	3212.2154	902.65	20.35
1050.1491	3213.1436	903.5	19.75
1050.2514	3214.0712	911	23.55
1050.3537	3214.9982	903.85	20.95
1050.4559	3215.9246	903.3	20.25
1050.5581	3216.8503	901.45	21.1
1050.6602	3217.7755	902.2	20.95
1050.7623	3218.7001	904.75	24.55
1050.8643	3219.624	901.9	19.4
1050.9663	3220.5473	902.55	22.9
1051.0682	3221.4701	903.8	21.05
1051.1701	3222.3922	903.85	20.2
1051.2719	3223.3137	901.55	19.9
1051.3737	3224.2346	902.45	22.15
1051.4754	3225.1549	901.9	19.65
1051.5771	3226.0746	902.15	21.75
1051.6788	3226.9937	902.6	19.85
1051.7804	3227.9121	902.8	23.45
1051.8819	3228.83	901.2	20.2
1051.9834	3229.7473	900.4	20.1
1052.0849	3230.6639	899.65	16.25
1052.1863	3231.5799	899.45	18.2
1052.2876	3232.4954	902.4	21.05
1052.3889	3233.4102	899.75	19
1052.4902	3234.3244	901.3	20.7
1052.5914	3235.238	900.95	19.6
1052.6926	3236.151	925.1	19.05
1052.7937	3237.0634	897.2	17.9
1052.8948	3237.9752	899.9	17.75
1052.9958	3238.8864	900.2	19.75
1053.0968	3239.797	899.95	18.1
1053.1977	3240.7069	900.55	18.25
1053.2986	3241.6163	903.65	20.05
1053.3994	3242.5251	899.45	18.9
1053.5002	3243.4332	899	18.3
1053.6009	3244.3408	900.5	18.7
1053.7016	3245.2477	899	20.2
1053.8022	3246.154	902.5	19.9
1053.9028	3247.0598	900.8	17
1054.0034	3247.9649	898.3	16.45
1054.1039	3248.8694	900.1	17.65
1054.2043	3249.7733	900.15	17.5
1054.3047	3250.6766	897.4	16.1
1054.4051	3251.5793	899.35	16.6
1054.5054	3252.4814	898.9	18.15
1054.6056	3253.3829	896.5	14.85
1054.7058	3254.2838	897.2	15.35
1054.806	3255.1841	896.1	16.1
1054.9061	3256.0838	896.35	14.25
1055.0061	3256.9829	898.15	15.6
1055.1062	3257.8814	899.8	16.65
1055.2061	3258.7792	899.15	15.1
1055.306	3259.6765	898.05	15.75
1055.4059	3260.5731	897.2	16
1055.5057	3261.4692	897.95	18.3
1055.6055	3262.3647	896.7	15.1
1055.7052	3263.2595	895.85	15.05
1055.8049	3264.1538	895.8	15
1055.9045	3265.0474	897.9	15.8
1056.0041	3265.9404	895.75	16.65
1056.1036	3266.8329	896	15.3
1056.2031	3267.7247	905.6	14.6
1056.3025	3268.616	895.8	16.75
1056.4019	3269.5066	894.8	11.65
1056.5013	3270.3966	897.55	14.15
1056.6005	3271.286	890.55	8.95
