Software Version:	3.9.2.0
Unit SN:	10000200
Spectrometer SN:	6960
Date:	3/26/2024 1:41:52 PM
Data Line Index:	25
Spectral Points:	2048
Integration time (ms):	125
Averages:	20
Delay (ms):	30000
Sequence Number:	1
Processing:	dark subtract
Laser Power (mW):	305
Laser Current (mA):	820
Laser Diode Temp (C):	25
Laser Case Temp (C):	27.2
System Temp (C):	27.1
Spectrometer Temp (C):	24.9
CCD Temp (C):	0.008
Secondary Temp (C):	20.013
Heatsink Temp (C):	22.635
CCDPCB Temp (C):	36.607
SecondaryPCB Temp (C):	34.373

Wavelength	RamanShift	Raw Counts	Dark Subtracted
787.061	30.1047	589.25	176.25
787.2016	32.3739	600.05	190.15
787.3422	34.6426	612.95	200.8
787.4828	36.9109	622.35	208.05
787.6235	39.1787	642.85	225.4
787.7642	41.4461	666.6	246.8
787.9049	43.7131	687.4	261.8
788.0456	45.9796	699.4	271.6
788.1863	48.2456	728.65	296
788.3271	50.5112	745.5	308.8
788.4679	52.7764	764.4	327.25
788.6087	55.0411	787.75	345.15
788.7496	57.3054	812.55	364.2
788.8904	59.5692	842.45	394.75
789.0313	61.8326	867.35	413.6
789.1722	64.0955	907	449.65
789.3132	66.3579	931.7	470.15
789.4541	68.6199	985.25	520.4
789.5951	70.8815	1061.65	594.85
789.7361	73.1426	1228.3	756.6
789.8771	75.4032	1665.35	1189.3
790.0181	77.6634	2738.15	2255
790.1592	79.9231	5377.75	4885.05
790.3003	82.1824	11389.4	10878.7
790.4414	84.4412	23565.75	23023.4
790.5825	86.6995	44369.4	43784.05
790.7237	88.9574	56300.75	55671.7
790.8648	91.2148	60822.7	60171
791.006	93.4717	61911.65	61236.45
791.1472	95.7282	62379.2	61697.1
791.2885	97.9842	62543.2	61858.6
791.4297	100.2398	62491.85	61801.55
791.571	102.4949	62406.15	61710.7
791.7123	104.7495	62290.7	61595.3
791.8536	107.0036	62058.3	61363.95
791.9949	109.2573	62184.15	61489.8
792.1363	111.5105	61886.25	61187.8
792.2777	113.7632	61837.65	61134.45
792.4191	116.0154	61890.45	61178.95
792.5605	118.2672	62047.95	61337.65
792.7019	120.5185	61985.75	61276.95
792.8434	122.7693	61983.2	61276.1
792.9849	125.0197	61644.6	60927
793.1264	127.2696	62165.4	61455.95
793.2679	129.519	61977	61257
793.4094	131.7679	62224.85	61508.25
793.551	134.0163	61625.35	60901.8
793.6926	136.2642	61822.85	61093.95
793.8342	138.5117	62088.6	61351.35
793.9758	140.7587	61919.65	61185.9
794.1175	143.0052	61831.45	61093.2
794.2591	145.2512	61488.95	60754.2
794.4008	147.4967	61824.9	61092.5
794.5425	149.7417	61719.4	60979.8
794.6842	151.9863	61667.05	60925.25
794.826	154.2304	61436.8	60688.6
794.9677	156.4739	61540.95	60791.95
795.1095	158.717	61820.1	61066.45
795.2513	160.9596	61578.05	60821.85
795.3931	163.2017	61258.5	60501.75
795.535	165.4433	61526.85	60767.35
795.6768	167.6844	61305.35	60544.45
795.8187	169.925	61390.95	60631.9
795.9606	172.1651	61130.3	60366.1
796.1025	174.4047	61242.55	60476.05
796.2445	176.6439	61147.9	60378.35
796.3864	178.8825	60996.3	60226.6
796.5284	181.1206	61296.65	60519.8
796.6704	183.3582	61167.7	60385.5
796.8124	185.5954	61047.65	60265.6
796.9544	187.832	61058.9	60273.95
797.0965	190.0681	60861.25	60075.7
797.2386	192.3037	61209.85	60423.05
797.3806	194.5388	61563.55	60765.8
797.5228	196.7734	60700.05	59901.3
797.6649	199.0075	61528.8	60726.25
797.807	201.2411	61216.95	60414.15
797.9492	203.4742	61669.25	60867.6
798.0914	205.7068	61571.35	60761.9
798.2336	207.9389	61552.05	60745.85
798.3758	210.1704	61559.1	60754.6
798.518	212.4015	61887.55	61080
798.6603	214.632	61502.45	60690.6
798.8025	216.862	61976.1	61173
798.9448	219.0915	61678.1	60879.6
799.0871	221.3205	61660.2	60870.5
799.2294	223.549	62042.45	61250.6
799.3718	225.777	61985.3	61195.75
799.5141	228.0044	62170.7	61377.85
799.6565	230.2314	62081.85	61299.65
799.7989	232.4578	62096.65	61314.25
799.9413	234.6837	62156.9	61357.55
800.0837	236.909	62487.95	61690.85
800.2262	239.1339	61946	61123.75
800.3687	241.3582	62239.9	61426.25
800.5111	243.582	62219.95	61380.45
800.6536	245.8053	62168.85	61342.4
800.7961	248.0281	62204.55	61381.45
800.9387	250.2503	62291.8	61463
801.0812	252.472	62066.4	61228.8
801.2238	254.6932	62253.7	61420
801.3664	256.9139	62148.15	61311.75
801.509	259.134	62444.9	61605.05
801.6516	261.3536	62175.55	61337.9
801.7942	263.5727	62381.45	61539.55
801.9369	265.7912	62310.55	61472.7
802.0795	268.0092	62377.15	61540.2
802.2222	270.2267	62399.3	61559.4
802.3649	272.4436	62278.05	61439.6
802.5076	274.6601	62402.35	61551.3
802.6504	276.8759	62451.9	61612.15
802.7931	279.0913	62385.7	61540.2
802.9359	281.3061	62397.1	61551.45
803.0787	283.5204	62376.2	61523.25
803.2215	285.7341	62379.05	61525.1
803.3643	287.9473	62475.7	61612.7
803.5071	290.16	62416	61558.1
803.6499	292.3721	62466.3	61612.1
803.7928	294.5837	62397.15	61541.2
803.9357	296.7947	62345.9	61489.35
804.0786	299.0052	62492.25	61635.75
804.2215	301.2152	62436.85	61578.05
804.3644	303.4246	62467.8	61620.1
804.5074	305.6334	62440.9	61592.85
804.6503	307.8418	62276.6	61418.35
804.7933	310.0495	62189.2	61331.55
804.9363	312.2568	62147.45	61290.2
805.0793	314.4635	62080.2	61222.3
805.2223	316.6696	62196.75	61334.15
805.3653	318.8752	62221.8	61351.65
805.5084	321.0802	61761.85	60896.35
805.6514	323.2847	62031.4	61167.15
805.7945	325.4887	61977.2	61112
805.9376	327.692	61878.6	61010.7
806.0807	329.8949	61988.8	61125.35
806.2238	332.0972	61852.05	60982.1
806.367	334.2989	61889.9	61022.5
806.5101	336.5001	61993.2	61119.75
806.6533	338.7007	61545.55	60675.1
806.7965	340.9008	61803.35	60928.3
806.9397	343.1003	61815.85	60937.2
807.0829	345.2992	61913.05	61042.15
807.2261	347.4976	61670.4	60791.05
807.3693	349.6955	61765.6	60886.2
807.5126	351.8927	61538.5	60655.95
807.6559	354.0895	61716.6	60821.45
807.7991	356.2856	61751.4	60870
807.9424	358.4812	61885.8	61004.45
808.0857	360.6763	61503.15	60619.8
808.2291	362.8707	61905.75	61023.3
808.3724	365.0646	61621.45	60739.5
808.5158	367.258	61640.35	60754.25
808.6591	369.4508	61369.15	60476.4
808.8025	371.643	61837.3	60940.45
808.9459	373.8346	61599.75	60705
809.0893	376.0257	61684.55	60788.05
809.2327	378.2162	61572.25	60679.95
809.3762	380.4062	61221.95	60321.45
809.5196	382.5956	61525.55	60624.95
809.6631	384.7844	61458.45	60562.75
809.8066	386.9726	61581.25	60685.55
809.9501	389.1603	61500.9	60605.25
810.0936	391.3474	61250.4	60307.75
810.2371	393.5339	61440.05	60537.95
810.3806	395.7199	61039.85	60148.75
810.5241	397.9052	61156.3	60263.2
810.6677	400.09	61237.9	60347.6
810.8113	402.2743	61523.05	60633.5
810.9548	404.4579	61164.8	60279.7
811.0984	406.641	61249.55	60361.9
811.2421	408.8235	61370.85	60485.2
811.3857	411.0054	61478.05	60587.9
811.5293	413.1868	61619.85	60724.1
811.673	415.3675	61436.25	60538.95
811.8166	417.5477	61472.25	60573.15
811.9603	419.7273	61463.55	60569.15
812.104	421.9064	61423.45	60518.9
812.2477	424.0848	61393.6	60499.35
812.3914	426.2627	61604.1	60700.45
812.5351	428.4399	61205.15	60302.9
812.6788	430.6166	60811.2	59902.1
812.8226	432.7928	61121.4	60215.15
812.9663	434.9683	60778.8	59877.75
813.1101	437.1432	60693	59790.15
813.2539	439.3176	60914.05	60015.75
813.3977	441.4914	60482.1	59585.95
813.5415	443.6645	60574.2	59671.55
813.6853	445.8371	60608.9	59702.8
813.8291	448.0091	60435	59530.05
813.973	450.1806	60301.75	59400.1
814.1168	452.3514	60351.75	59452.65
814.2607	454.5216	60143.1	59237.45
814.4046	456.6913	60363.8	59456.75
814.5485	458.8603	60405.45	59505.05
814.6924	461.0288	60100.3	59202.4
814.8363	463.1967	60345.6	59450.75
814.9802	465.3639	60348.05	59447.25
815.1241	467.5306	59881.65	58980.55
815.2681	469.6967	60183.75	59279.5
815.412	471.8622	60331.65	59433.2
815.556	474.0271	60103.9	59199.1
815.7	476.1914	60207.1	59296.5
815.844	478.3551	60221.6	59313.15
815.988	480.5182	60530.5	59626.1
816.132	482.6807	60121.9	59221.9
816.276	484.8426	60179.8	59286.7
816.4201	487.0039	60583.95	59687.8
816.5641	489.1647	60645.2	59740.2
816.7082	491.3248	60273.6	59370.7
816.8522	493.4843	60716.45	59816
816.9963	495.6432	60699.9	59799
817.1404	497.8015	60250.3	59335.45
817.2845	499.9592	60459.5	59542
817.4286	502.1163	60423	59509.65
817.5727	504.2728	60344.25	59436.5
817.7168	506.4287	60254.5	59357.25
817.861	508.5839	59965	59063.9
818.0051	510.7386	60089.2	59188.9
818.1493	512.8927	60084	59164.8
818.2935	515.0461	60003.5	59089.45
818.4377	517.199	60222.25	59308.85
818.5818	519.3512	60020.45	59105.55
818.726	521.5029	60063.05	59143.3
818.8703	523.6539	60128.35	59217.35
819.0145	525.8043	59871.85	58961.85
819.1587	527.9541	60129.2	59213.65
819.303	530.1033	60032.6	59118
819.4472	532.2519	59895.7	58984.65
819.5915	534.3999	60092.75	59178.8
819.7357	536.5472	60239.05	59322.55
819.88	538.694	59885.35	58977.25
820.0243	540.8401	60164.3	59249.45
820.1686	542.9856	60195.55	59273.4
820.3129	545.1305	60368.2	59436.85
820.4572	547.2748	60079.5	59147.1
820.6016	549.4185	60046.05	59115.4
820.7459	551.5615	60215.9	59285.9
820.8902	553.704	60088.65	59164.25
821.0346	555.8458	59904.5	58980.95
821.1789	557.987	60020.15	59097.25
821.3233	560.1276	60175.8	59251.15
821.4677	562.2675	60112.65	59186.6
821.6121	564.4069	60221	59289.6
821.7565	566.5456	60401.45	59473.15
821.9009	568.6837	60110.9	59187.65
822.0453	570.8212	60157.1	59231.85
822.1897	572.958	59691.35	58765.4
822.3342	575.0942	59908.45	58987.5
822.4786	577.2299	59608.35	58693.25
822.6231	579.3648	59510.15	58603.35
822.7675	581.4992	59433.45	58534.65
822.912	583.6329	59450.35	58551.9
823.0565	585.766	59484.85	58583.1
823.201	587.8985	59593.65	58685.05
823.3454	590.0304	59214.7	58276.3
823.4899	592.1616	59461.55	58537.3
823.6345	594.2922	59276.55	58354
823.779	596.4222	59078.2	58151.35
823.9235	598.5515	59099.9	58170.2
824.068	600.6802	59164	58233.35
824.2126	602.8083	58868.15	57939.45
824.3571	604.9358	58829.3	57902.45
824.5017	607.0626	59037.25	58106.4
824.6462	609.1888	58721.45	57786.05
824.7908	611.3144	58904.85	57969.15
824.9354	613.4393	58810.4	57870.7
825.08	615.5636	58647.25	57711.65
825.2246	617.6873	58831.3	57896.2
825.3692	619.8103	58543.75	57608.85
825.5138	621.9327	58747.15	57814.05
825.6584	624.0544	58766.75	57840.5
825.803	626.1756	58576.3	57647.95
825.9477	628.2961	58524.7	57592.25
826.0923	630.4159	58363.9	57430.5
826.237	632.5351	58301	57366.2
826.3816	634.6537	58686.4	57748.9
826.5263	636.7716	58187.4	57246.85
826.6709	638.8889	58330.45	57388.95
826.8156	641.0056	58310.5	57368.6
826.9603	643.1216	58382.95	57437.25
827.105	645.237	58483.45	57544.2
827.2497	647.3518	58159.4	57233.4
827.3944	649.4659	58243.5	57316.6
827.5391	651.5793	58236.35	57308
827.6838	653.6922	58327.55	57395.95
827.8285	655.8043	57875.15	56942.05
827.9733	657.9159	58391.2	57458.45
828.118	660.0268	57445.25	56512.5
828.2627	662.137	57956.1	57020.7
828.4075	664.2466	58048.45	57105.85
828.5522	666.3556	57856.45	56918.75
828.697	668.4639	57978.8	57042
828.8418	670.5716	57757.9	56828.35
828.9865	672.6786	57944.35	57009.25
829.1313	674.785	57552.95	56615.05
829.2761	676.8907	57632.25	56697.9
829.4209	678.9958	57704.4	56774.95
829.5657	681.1002	57778.3	56845.35
829.7105	683.204	57451.6	56508.65
829.8553	685.3072	57300.5	56358.75
830.0001	687.4097	57404.95	56464.55
830.1449	689.5115	57282.6	56341.55
830.2898	691.6127	57551.35	56614.8
830.4346	693.7132	57225.45	56290.4
830.5794	695.8131	57288.45	56337.95
830.7243	697.9123	57387.75	56441.65
830.8691	700.0109	57441.6	56495.6
831.014	702.1089	57007.65	56065.5
831.1588	704.2061	57146.95	56205.8
831.3037	706.3028	57178.2	56233.95
831.4486	708.3987	57249.35	56304.95
831.5935	710.4941	57039.35	56097.85
831.7383	712.5887	57307.25	56365.65
831.8832	714.6827	57151.65	56208
832.0281	716.7761	57364.75	56429.6
832.173	718.8688	57510	56572.95
832.3179	720.9608	57246.75	56296.35
832.4628	723.0522	57334.4	56381.95
832.6077	725.1429	57083.35	56134.3
832.7527	727.233	57684.8	56741.05
832.8976	729.3224	56749.9	55802.95
833.0425	731.4112	56958.3	56013.65
833.1874	733.4993	56910.7	55966
833.3324	735.5867	56834.3	55890.45
833.4773	737.6735	56594.05	55648.75
833.6222	739.7596	56303.8	55354.95
833.7672	741.845	56277.15	55334.05
833.9122	743.9298	56486.6	55538.8
834.0571	746.014	56175.3	55231
834.2021	748.0974	56000.75	55052.7
834.347	750.1802	56357.6	55407.9
834.492	752.2624	55832.9	54886.75
834.637	754.3439	55853.8	54900.55
834.782	756.4247	55990.55	55035.1
834.9269	758.5048	55813.55	54865.55
835.0719	760.5843	55958.5	55007.85
835.2169	762.6631	56106.7	55158.55
835.3619	764.7413	56189.45	55242.1
835.5069	766.8188	56459.25	55506.8
835.6519	768.8956	56710.7	55761.6
835.7969	770.9718	56781.4	55830.85
835.9419	773.0473	56608.65	55659.6
836.0869	775.1221	56264.1	55316.6
836.232	777.1962	56132.8	55182.55
836.377	779.2697	55786.2	54833.2
836.522	781.3426	56009.65	55051.25
836.667	783.4147	56078.95	55129.25
836.8121	785.4862	55988.85	55040.25
836.9571	787.557	55718.1	54763.25
837.1021	789.6271	55790.35	54839.9
837.2472	791.6966	55357.75	54404.8
837.3922	793.7654	54778.8	53828.6
837.5373	795.8335	54614.8	53666.05
837.6823	797.901	54519.95	53568.1
837.8274	799.9678	54265.7	53315.9
837.9724	802.0339	54192.65	53238.3
838.1175	804.0993	54123.45	53159.45
838.2626	806.1641	53976.4	53021.3
838.4076	808.2282	53838.55	52889.65
838.5527	810.2916	53751.45	52796.15
838.6978	812.3544	53914.05	52966.3
838.8428	814.4164	53438.85	52491.6
838.9879	816.4778	53554.35	52598.2
839.133	818.5385	53565.3	52611.25
839.2781	820.5986	53569.15	52615.35
839.4232	822.658	53679.05	52720.65
839.5682	824.7166	53821.15	52869.05
839.7133	826.7747	53714.2	52761.4
839.8584	828.832	54018.1	53065.3
840.0035	830.8886	54305.7	53348.65
840.1486	832.9446	54327	53370
840.2937	834.9999	53634.05	52681.25
840.4388	837.0545	53789.7	52830.75
840.5839	839.1085	53796.4	52837.65
840.729	841.1618	53548.05	52592.5
840.8741	843.2143	53002.9	52051.15
841.0192	845.2662	52883.2	51931.15
841.1643	847.3175	52986.75	52033.5
841.3095	849.368	52508.9	51556.1
841.4546	851.4179	52742.35	51786.75
841.5997	853.467	52351.35	51399.4
841.7448	855.5155	52425.65	51469.8
841.8899	857.5633	52142.85	51190.3
842.0351	859.6105	51940.95	50985.15
842.1802	861.6569	52011.45	51056.1
842.3253	863.7027	51631.1	50673.55
842.4704	865.7478	51742	50784.55
842.6156	867.7922	51573.8	50619.3
842.7607	869.8359	51758.15	50799.85
842.9058	871.8789	51384.5	50428.5
843.0509	873.9212	51630.5	50643.65
843.1961	875.9629	51511.75	50554.15
843.3412	878.0039	51571.6	50618.2
843.4863	880.0441	51466.85	50514.15
843.6315	882.0837	51470.55	50513.9
843.7766	884.1226	51470.45	50513.5
843.9218	886.1609	51424.35	50472.05
844.0669	888.1984	51254.95	50301.1
844.212	890.2352	51600.75	50645.4
844.3572	892.2714	51193.75	50234.7
844.5023	894.3069	51255.95	50296.9
844.6475	896.3416	51039.75	50082.6
844.7926	898.3757	50920.9	49963.65
844.9377	900.4091	50413.95	49454.75
845.0829	902.4418	50914.8	49951.2
845.228	904.4739	50522.35	49560.4
845.3732	906.5052	50620.75	49662.3
845.5183	908.5358	50407.05	49449
845.6635	910.5658	50117.6	49159.15
845.8086	912.595	49975.7	49014.2
845.9538	914.6236	49402.4	48441.35
846.0989	916.6515	50010.25	49049.75
846.2441	918.6786	49167.85	48209.3
846.3892	920.7051	49364.05	48403.55
846.5344	922.7309	49207.2	48248.8
846.6795	924.756	49289.65	48328.65
846.8246	926.7804	49049.95	48089.05
846.9698	928.8041	48577.95	47616.9
847.1149	930.8272	48893.95	47936.6
847.2601	932.8495	48719.9	47761.7
847.4052	934.8711	48404.3	47443.35
847.5504	936.892	48177.9	47220.75
847.6955	938.9123	48255.9	47297.15
847.8407	940.9318	48005	47051.3
847.9858	942.9506	47872.5	46915.45
848.131	944.9688	47814.15	46859.15
848.2761	946.9862	47292.2	46335.75
848.4213	949.003	47311.95	46352.25
848.5664	951.019	46879.1	45922.25
848.7115	953.0344	46867.35	45909.55
848.8567	955.0491	46801.4	45844.3
849.0018	957.063	46918.4	45961.15
849.147	959.0763	46980.1	46015.45
849.2921	961.0888	46708.3	45750.65
849.4373	963.1007	46849.2	45891.05
849.5824	965.1119	46817	45870
849.7275	967.1223	46544.35	45602.55
849.8727	969.1321	46678.2	45737.05
850.0178	971.1412	46360.45	45409.45
850.1629	973.1495	46187.85	45235.5
850.3081	975.1572	46179.35	45198
850.4532	977.1641	46141.25	45185.7
850.5983	979.1704	45942.95	44983.3
850.7435	981.1759	45865.9	44907.2
850.8886	983.1808	45778.8	44818.55
851.0337	985.1849	45681.2	44715
851.1788	987.1884	45675.55	44718.3
851.324	989.1911	45802.7	44847.15
851.4691	991.1932	45481.8	44525.4
851.6142	993.1945	45412.25	44458.25
851.7593	995.1951	45331.7	44371.5
851.9045	997.1951	45123.6	44163.8
852.0496	999.1943	44948.35	43988.35
852.1947	1001.1928	44761.25	43803.05
852.3398	1003.1906	44747.9	43791.3
852.4849	1005.1877	44609.1	43651.75
852.63	1007.1841	44468.9	43512.75
852.7751	1009.1798	44400.7	43447.05
852.9202	1011.1748	44135.75	43182.8
853.0653	1013.1691	43973.75	43018.6
853.2104	1015.1627	43520	42561.15
853.3555	1017.1556	43205.45	42251.95
853.5006	1019.1477	43115.1	42161.95
853.6457	1021.1392	42724.5	41777.3
853.7908	1023.1299	42512.9	41571.3
853.9359	1025.12	42449.45	41509.4
854.081	1027.1093	42242.9	41310.7
854.2261	1029.0979	42239.5	41310.6
854.3712	1031.0859	42159.65	41226.05
854.5163	1033.0731	42008.35	41065.75
854.6613	1035.0596	41848.9	40902.8
854.8064	1037.0454	41615.2	40664.75
854.9515	1039.0304	41511.75	40562.8
855.0965	1041.0148	41150.45	40199.3
855.2416	1042.9985	40984.2	40030.85
855.3867	1044.9814	40966.05	40015.95
855.5317	1046.9636	40707.95	39756.35
855.6768	1048.9452	40588.75	39639.35
855.8219	1050.926	40560.85	39610.4
855.9669	1052.9061	40492	39542.7
856.112	1054.8855	40394.45	39438.65
856.257	1056.8642	40330.8	39377.2
856.4021	1058.8421	40342.8	39383.95
856.5471	1060.8194	40228.75	39272.6
856.6921	1062.7959	40129.55	39178
856.8372	1064.7717	40114.05	39161.75
856.9822	1066.7469	40013.2	39062.35
857.1272	1068.7213	39988.95	39032.7
857.2723	1070.695	39971.45	39018.1
857.4173	1072.6679	39783.25	38830.45
857.5623	1074.6402	39751.9	38796.4
857.7073	1076.6117	39722.45	38762.7
857.8523	1078.5826	39574.4	38617.8
857.9973	1080.5527	39344.45	38389.65
858.1423	1082.5221	39215.15	38259.05
858.2873	1084.4908	39148.95	38196.7
858.4323	1086.4587	39046.05	38093.8
858.5773	1088.426	39031.75	38075.85
858.7223	1090.3925	38882.3	37922.75
858.8673	1092.3584	38871.85	37919.85
859.0123	1094.3235	38644.65	37695.5
859.1573	1096.2879	38629.15	37677.8
859.3022	1098.2515	38626.4	37674.15
859.4472	1100.2145	38681	37727.55
859.5922	1102.1767	38620.35	37666.05
859.7371	1104.1382	38738.75	37788.05
859.8821	1106.099	38876	37924.7
860.027	1108.0591	38842.15	37889.85
860.172	1110.0185	38892.7	37937.6
860.3169	1111.9771	38912.35	37960
860.4619	1113.9351	38668.05	37715.65
860.6068	1115.8923	38465.05	37513.35
860.7517	1117.8488	38190.6	37232.8
860.8967	1119.8045	37864.5	36913.05
861.0416	1121.7596	37731.4	36781.1
861.1865	1123.7139	37479.05	36527.7
861.3314	1125.6675	37401.9	36454.1
861.4763	1127.6204	37478.6	36526.85
861.6212	1129.5726	37270.45	36317.55
861.7661	1131.524	37166.1	36216.2
861.911	1133.4748	37088.4	36131.95
862.0559	1135.4248	36852.7	35900.6
862.2008	1137.3741	36688.15	35739.85
862.3457	1139.3226	36519.2	35568.15
862.4905	1141.2705	36472.15	35521
862.6354	1143.2176	36148.65	35191.2
862.7803	1145.164	36104.9	35149.4
862.9251	1147.1097	35975.8	35023.15
863.07	1149.0546	35874.75	34922.4
863.2148	1150.9989	35819.7	34869.7
863.3597	1152.9424	35668.3	34716.9
863.5045	1154.8852	35530.65	34582.15
863.6493	1156.8272	35456.65	34506.45
863.7942	1158.7686	35402.45	34442.3
863.939	1160.7092	35235.9	34283.7
864.0838	1162.6491	35163.55	34210.8
864.2286	1164.5883	35194.65	34240.1
864.3734	1166.5267	35198.5	34248.05
864.5182	1168.4644	35280	34327.55
864.663	1170.4014	35285.25	34335.35
864.8078	1172.3377	35461.5	34514.65
864.9526	1174.2732	35617.3	34670.35
865.0974	1176.2081	35890.5	34941.05
865.2421	1178.1421	36102	35148.95
865.3869	1180.0755	36435.65	35486.45
865.5317	1182.0082	36490.7	35545.25
865.6764	1183.9401	36601.7	35654.3
865.8212	1185.8713	36448.05	35503.3
865.9659	1187.8017	36106.3	35172.1
866.1106	1189.7315	35795.35	34863.35
866.2554	1191.6605	35332.9	34405
866.4001	1193.5888	35021.1	34086
866.5448	1195.5163	34833.85	33896.55
866.6895	1197.4432	34628.25	33682.55
866.8342	1199.3693	34533.7	33587.35
866.9789	1201.2947	34354.95	33406.7
867.1236	1203.2193	34193.35	33247.55
867.2683	1205.1432	34155.3	33208.45
867.413	1207.0664	34075.35	33126.85
867.5576	1208.9889	33953.55	33002.3
867.7023	1210.9106	33850.65	32899.55
867.847	1212.8316	33713.35	32767.3
867.9916	1214.7519	33707.55	32750.2
868.1363	1216.6715	33645.45	32700
868.2809	1218.5903	33652.75	32707.15
868.4255	1220.5084	33608.1	32662.85
868.5701	1222.4257	33683.3	32739.05
868.7148	1224.3424	33461.2	32520.6
868.8594	1226.2583	33499.35	32549.7
869.004	1228.1735	33522.1	32577.75
869.1486	1230.0879	33483.05	32535.1
869.2932	1232.0016	33564.4	32618
869.4377	1233.9146	33519.75	32568.9
869.5823	1235.8269	33446.5	32497.2
869.7269	1237.7384	33380.8	32436.2
869.8715	1239.6492	33124.8	32179.85
870.016	1241.5592	33037.6	32092
870.1606	1243.4686	32926.45	31982.95
870.3051	1245.3772	32983.05	32039.5
870.4496	1247.285	33020.35	32075.15
870.5941	1249.1922	33011.65	32063.15
870.7387	1251.0986	33096.6	32154.35
870.8832	1253.0042	32993.35	32048.8
871.0277	1254.9092	33010.75	32071.55
871.1722	1256.8134	33017.65	32078.65
871.3167	1258.7169	33048.05	32100.7
871.4611	1260.6196	33092.25	32146.5
871.6056	1262.5216	33204.7	32259.45
871.7501	1264.4229	33276.05	32331.5
871.8945	1266.3234	33436	32493.95
872.039	1268.2232	33477.55	32529.25
872.1834	1270.1223	33453.5	32506.7
872.3278	1272.0207	33378.35	32436.8
872.4723	1273.9183	33336.6	32386.1
872.6167	1275.8151	33239.15	32294.1
872.7611	1277.7113	33119.65	32178
872.9055	1279.6067	33041.55	32101.3
873.0499	1281.5014	33045.7	32101.1
873.1943	1283.3953	33275.75	32328.9
873.3386	1285.2885	33516.95	32571.45
873.483	1287.181	33828.8	32886.55
873.6274	1289.0727	34159.9	33218.05
873.7717	1290.9637	34311.7	33370.05
873.9161	1292.854	34394.6	33452.3
874.0604	1294.7435	34347.95	33408.45
874.2047	1296.6323	34262.5	33320.65
874.349	1298.5204	34138.2	33192.8
874.4933	1300.4077	33979.15	33032.95
874.6376	1302.2943	33803.7	32861.9
874.7819	1304.1802	33609.55	32667.75
874.9262	1306.0653	33228.05	32285.05
875.0705	1307.9497	32837.1	31896.8
875.2147	1309.8333	32584.05	31644.25
875.359	1311.7162	32306.3	31363.8
875.5032	1313.5984	32153.75	31207.6
875.6475	1315.4798	31948.15	30989.35
875.7917	1317.3605	31897.6	30938.1
875.9359	1319.2405	31820.8	30874.2
876.0801	1321.1197	31597.7	30650.75
876.2243	1322.9982	31296.2	30349.6
876.3685	1324.876	31151.3	30210.75
876.5127	1326.753	30862.9	29920.75
876.6569	1328.6293	30726.6	29786.25
876.801	1330.5048	30617.25	29672.95
876.9452	1332.3796	30416.25	29474.75
877.0893	1334.2537	30290.7	29323.35
877.2335	1336.127	30213.75	29270
877.3776	1337.9996	30130.3	29189.7
877.5217	1339.8714	30065.05	29124.7
877.6658	1341.7426	30016.05	29027.35
877.8099	1343.6129	29944.7	28999.75
877.954	1345.4826	29880.8	28937.45
878.0981	1347.3515	29926.45	28981.8
878.2422	1349.2196	29846.35	28902.3
878.3862	1351.087	29804.45	28860.2
878.5303	1352.9537	29789.95	28843.1
878.6743	1354.8197	29889.4	28946.1
878.8184	1356.6849	29937.5	28994.1
878.9624	1358.5493	29958.05	29018.8
879.1064	1360.4131	30062.45	29122.05
879.2504	1362.276	30071.8	29127.55
879.3944	1364.1383	29992.2	29050.95
879.5384	1365.9998	29817.8	28871.35
879.6823	1367.8606	29507.05	28566.2
879.8263	1369.7206	29130.95	28185.8
879.9702	1371.5799	28816.95	27872.85
880.1142	1373.4384	28564.7	27619.3
880.2581	1375.2962	28329.75	27385.35
880.402	1377.1533	27988.6	27050.45
880.5459	1379.0096	27613.5	26677.8
880.6898	1380.8652	27330.05	26392.05
880.8337	1382.7201	27052.95	26114.45
880.9776	1384.5742	26739.95	25798.85
881.1215	1386.4275	26531.85	25588.65
881.2653	1388.2802	26349.7	25410.95
881.4092	1390.132	26206	25266
881.553	1391.9832	26131.4	25189.05
881.6968	1393.8336	25893.5	24949.7
881.8406	1395.6832	25814.25	24870.55
881.9844	1397.5322	25690.1	24749.6
882.1282	1399.3803	25576.5	24629.9
882.272	1401.2278	25453.7	24514.25
882.4158	1403.0745	25425.7	24487.7
882.5595	1404.9204	25262.95	24324
882.7033	1406.7656	25272.7	24332.05
882.847	1408.6101	25227.2	24284
882.9908	1410.4538	25078.55	24136.5
883.1345	1412.2968	25045.15	24105.15
883.2782	1414.139	25023.8	24083.8
883.4219	1415.9805	25029.5	24089.85
883.5656	1417.8213	25009.4	24050.1
883.7092	1419.6613	25009.8	24073
883.8529	1421.5006	25103.55	24164
883.9965	1423.3391	25190.75	24254.1
884.1402	1425.1769	25315.35	24379.65
884.2838	1427.0139	25629.15	24691.6
884.4274	1428.8502	25984.4	25046.8
884.571	1430.6858	26417.05	25478.1
884.7146	1432.5206	26584.8	25645.95
884.8582	1434.3547	26767.75	25830.85
885.0018	1436.188	26759.9	25820.3
885.1453	1438.0206	26683.9	25745.35
885.2889	1439.8524	26449.25	25510.95
885.4324	1441.6835	26320.4	25381.5
885.5759	1443.5139	26182.05	25241.25
885.7194	1445.3435	26052.1	25115.7
885.8629	1447.1724	26006.1	25070.45
886.0064	1449.0005	25945.35	25010.6
886.1499	1450.8279	25866.95	24929.15
886.2933	1452.6545	25790.3	24855.1
886.4368	1454.4804	25814.45	24880.95
886.5802	1456.3056	25776.4	24835.35
886.7237	1458.13	25666	24730.15
886.8671	1459.9536	25546.1	24607.85
887.0105	1461.7766	25275.55	24340.7
887.1539	1463.5987	24974.85	24037.4
887.2972	1465.4202	24680.65	23743
887.4406	1467.2409	24319.15	23382
887.584	1469.0608	24107.55	23170.3
887.7273	1470.88	23872.05	22934.7
887.8706	1472.6984	23651.75	22716.6
888.0139	1474.5161	23376.15	22438.3
888.1572	1476.3331	23219.9	22285.55
888.3005	1478.1493	23107.1	22172.75
888.4438	1479.9648	23054.15	22116
888.5871	1481.7795	22967.9	22032.65
888.7303	1483.5935	22856.15	21921.2
888.8736	1485.4067	22812.1	21873.95
889.0168	1487.2192	22753.55	21816.05
889.16	1489.031	22698.6	21761.2
889.3032	1490.842	22594.4	21658.6
889.4464	1492.6522	22563	21630.1
889.5896	1494.4618	22469.9	21534.6
889.7327	1496.2705	22399.2	21462.55
889.8759	1498.0785	22328.9	21392
890.019	1499.8858	22275.4	21341
890.1622	1501.6924	22179.15	21245.05
890.3053	1503.4981	22150.6	21215.3
890.4484	1505.3032	22057.95	21124.95
890.5914	1507.1075	21972.75	21037.25
890.7345	1508.911	21944.4	21009
890.8776	1510.7138	21867.5	20932.95
891.0206	1512.5159	21803.7	20869.3
891.1637	1514.3172	21671.1	20742.05
891.3067	1516.1178	21601.2	20671.05
891.4497	1517.9176	21579.3	20643
891.5927	1519.7166	21468.75	20535.35
891.7357	1521.515	21404.25	20469.25
891.8786	1523.3126	21379.65	20443.85
892.0216	1525.1094	21266.9	20333.1
892.1645	1526.9055	21180.6	20251.5
892.3074	1528.7008	21112.75	20182.5
892.4503	1530.4954	20994.35	20056
892.5932	1532.2893	20959.9	20030.75
892.7361	1534.0824	20859.25	19926.95
892.879	1535.8747	20850.3	19923.7
893.0218	1537.6663	20751.65	19825.6
893.1647	1539.4572	20695.3	19766.45
893.3075	1541.2473	20682.5	19751.65
893.4503	1543.0367	20626.55	19697.65
893.5931	1544.8253	20542.15	19609.05
893.7359	1546.6132	20532.65	19600.75
893.8787	1548.4003	20457.65	19518.8
894.0214	1550.1867	20477.5	19540.15
894.1642	1551.9723	20478.25	19548.3
894.3069	1553.7572	20517.4	19593.3
894.4496	1555.5414	20533.5	19608
894.5923	1557.3247	20575.5	19651.9
894.735	1559.1074	20623.25	19701.4
894.8777	1560.8893	20696.85	19774.75
895.0204	1562.6705	20724.65	19800.35
895.163	1564.4509	20805.15	19883.2
895.3056	1566.2305	20785.25	19869.5
895.4482	1568.0094	20855.8	19937.05
895.5908	1569.7876	20842.85	19922.15
895.7334	1571.565	20770.05	19847.25
895.876	1573.3417	20738.55	19816.4
896.0186	1575.1176	20697.9	19777.3
896.1611	1576.8928	20654.1	19736.3
896.3036	1578.6672	20582.05	19669
896.4461	1580.4409	20505.3	19592.55
896.5886	1582.2138	20473.85	19556.8
896.7311	1583.986	20445.5	19526
896.8736	1585.7575	20448.1	19528.65
897.0161	1587.5282	20428.7	19514.3
897.1585	1589.2981	20469.35	19556.9
897.3009	1591.0673	20411.8	19498.95
897.4433	1592.8358	20475.1	19562.75
897.5857	1594.6035	20517.1	19598.15
897.7281	1596.3704	20477.05	19558.25
897.8705	1598.1366	20506.85	19589.65
898.0128	1599.9021	20519.7	19604.15
898.1551	1601.6668	20544.95	19626.9
898.2975	1603.4308	20570.75	19651.7
898.4398	1605.194	20671.6	19749.95
898.5821	1606.9564	20748.95	19839.35
898.7243	1608.7182	20894.05	19986.4
898.8666	1610.4791	21063.8	20160.6
899.0088	1612.2394	21225.9	20325.55
899.1511	1613.9988	21432.7	20528.75
899.2933	1615.7576	21608.5	20699.5
899.4355	1617.5156	21716.15	20794.7
899.5776	1619.2728	21856.15	20937.55
899.7198	1621.0293	21772.35	20856.85
899.862	1622.785	21615.4	20703.45
900.0041	1624.54	21341.25	20430.15
900.1462	1626.2942	21073.6	20165.75
900.2883	1628.0477	20716.8	19804.85
900.4304	1629.8005	20439.65	19525.85
900.5725	1631.5525	20155.95	19246.45
900.7145	1633.3037	19905.9	18997.4
900.8566	1635.0542	19733.7	18825.65
900.9986	1636.804	19506.8	18596.2
901.1406	1638.553	19457.65	18501.5
901.2826	1640.3013	19305.55	18395.65
901.4245	1642.0488	19225.85	18313.65
901.5665	1643.7955	19257	18350
901.7085	1645.5416	19233.6	18328.25
901.8504	1647.2868	19294.4	18385.8
901.9923	1649.0313	19298.55	18388.1
902.1342	1650.7751	19399.9	18486.85
902.2761	1652.5181	19490.9	18582.7
902.4179	1654.2604	19530	18623.3
902.5598	1656.0019	19669.8	18760.9
902.7016	1657.7427	19857.3	18946.75
902.8434	1659.4828	20037.3	19127.5
902.9852	1661.222	20137.55	19225.65
903.127	1662.9606	20078.6	19169.15
903.2687	1664.6984	19915.85	19001.7
903.4105	1666.4354	19574.2	18658.85
903.5522	1668.1717	19101.25	18186.15
903.6939	1669.9072	18634.4	17716.35
903.8356	1671.642	18247.2	17329.45
903.9773	1673.3761	17921.5	17010.15
904.119	1675.1094	17623.75	16712.45
904.2606	1676.8419	17409.25	16497.15
904.4022	1678.5737	17175.85	16266.9
904.5439	1680.3048	17018.7	16103.55
904.6855	1682.0351	16865.35	15951.7
904.827	1683.7646	16713.2	15796.95
904.9686	1685.4934	16638.55	15725.65
905.1101	1687.2215	16515.45	15603.15
905.2517	1688.9488	16388.3	15479.15
905.3932	1690.6754	16319.5	15408.3
905.5347	1692.4012	16278.35	15368.15
905.6761	1694.1263	16169.6	15258.2
905.8176	1695.8506	16131.55	15222.1
905.9591	1697.5742	16077.2	15167.9
906.1005	1699.297	15985.95	15080.1
906.2419	1701.0191	15881.05	14975.65
906.3833	1702.7404	15813.45	14910.05
906.5246	1704.461	15701.65	14791.5
906.666	1706.1808	15697.5	14789.35
906.8073	1707.8999	15632.55	14726.55
906.9487	1709.6182	15576.4	14674.55
907.09	1711.3358	15549.8	14648.6
907.2313	1713.0527	15444.05	14544.25
907.3725	1714.7688	15396.65	14489
907.5138	1716.4841	15314.35	14407.55
907.655	1718.1987	15281.95	14369.75
907.7962	1719.9126	15260.9	14355.75
907.9374	1721.6257	15164.15	14260.95
908.0786	1723.338	15137.85	14233.95
908.2198	1725.0496	15080.3	14176.8
908.3609	1726.7605	15043.6	14138.55
908.502	1728.4706	14964.95	14059.15
908.6431	1730.18	14918.35	14016.5
908.7842	1731.8886	14888.8	13987.8
908.9253	1733.5964	14882.95	13960.15
909.0664	1735.3036	14826.1	13921.1
909.2074	1737.0099	14772.7	13869.35
909.3484	1738.7156	14725.15	13824.05
909.4894	1740.4204	14662.25	13757.25
909.6304	1742.1246	14635.95	13732.6
909.7714	1743.8279	14576.4	13673.5
909.9123	1745.5306	14589.8	13689.75
910.0532	1747.2325	14509.4	13606.35
910.1941	1748.9336	14446.8	13544.3
910.335	1750.634	14395.55	13489.1
910.4759	1752.3336	14350.15	13446.9
910.6168	1754.0325	14355.95	13456.55
910.7576	1755.7307	14309.2	13409.6
910.8984	1757.4281	14323.4	13421.25
911.0392	1759.1247	14260.8	13344.1
911.18	1760.8206	14247.5	13336.85
911.3208	1762.5158	14235.95	13327.05
911.4615	1764.2102	14155.35	13252.15
911.6022	1765.9039	14114.4	13211.6
911.7429	1767.5968	14087.05	13187.05
911.8836	1769.289	14010.05	13110.3
912.0243	1770.9804	14006.65	13106.65
912.1649	1772.6711	13996.75	13088.9
912.3056	1774.361	13958.5	13052.4
912.4462	1776.0502	13931.15	13025.55
912.5868	1777.7386	13935.25	13030.7
912.7274	1779.4263	13837.75	12934.6
912.8679	1781.1132	13835.8	12937.7
913.0084	1782.7994	13770.35	12871.25
913.149	1784.4849	13757.3	12858.05
913.2895	1786.1696	13711.9	12808.35
913.4299	1787.8535	13682.7	12782.45
913.5704	1789.5367	13642.55	12746
913.7108	1791.2192	13619.8	12723.4
913.8513	1792.9009	13590.7	12660.85
913.9917	1794.5818	13548.8	12643.75
914.132	1796.2621	13528.5	12626.7
914.2724	1797.9415	13465.65	12562.4
914.4128	1799.6202	13435.7	12535.65
914.5531	1801.2982	13429	12525.65
914.6934	1802.9755	13404.9	12502.15
914.8337	1804.6519	13370.75	12468.75
914.9739	1806.3277	13295.8	12395.75
915.1142	1808.0027	13270.55	12374.2
915.2544	1809.6769	13266.15	12370
915.3946	1811.3504	13197	12301.2
915.5348	1813.0231	13187.75	12290.85
915.675	1814.6951	13175.65	12276.05
915.8151	1816.3664	13165.6	12264.75
915.9553	1818.0369	13121.55	12219.45
916.0954	1819.7067	13102.35	12200.75
916.2355	1821.3757	13049.85	12147.7
916.3755	1823.044	13018.4	12114.35
916.5156	1824.7115	13016.5	12113.9
916.6556	1826.3783	12975.6	12076.7
916.7956	1828.0443	12908.7	12010.45
916.9356	1829.7096	12886.9	11984.85
917.0756	1831.3741	12889.35	11986.2
917.2155	1833.0379	12844.85	11946.35
917.3555	1834.701	12840.55	11942.2
917.4954	1836.3633	12795	11899.9
917.6353	1838.0248	12763.85	11864.05
917.7751	1839.6856	12755.2	11855.7
917.915	1841.3457	12727.7	11826.5
918.0548	1843.005	12729.75	11829.4
918.1946	1844.6636	12650.5	11750.45
918.3344	1846.3214	12627.95	11726.9
918.4742	1847.9785	12637.95	11739.4
918.6139	1849.6349	12592.9	11690.65
918.7537	1851.2904	12608.25	11695.35
918.8934	1852.9453	12556.1	11653
919.0331	1854.5994	12509.8	11604.25
919.1727	1856.2528	12512.45	11605.05
919.3124	1857.9054	12471	11569.9
919.452	1859.5572	12464.75	11565.7
919.5916	1861.2083	12435.3	11532.8
919.7312	1862.8587	12414.95	11512.35
919.8708	1864.5084	12405.3	11498.95
920.0103	1866.1572	12372.85	11468.6
920.1498	1867.8054	12322.15	11420.05
920.2893	1869.4528	12289.8	11383.2
920.4288	1871.0994	12233.3	11331.1
920.5683	1872.7453	12219.55	11315.2
920.7077	1874.3905	12238.7	11329.55
920.8471	1876.0349	12190.2	11288
920.9865	1877.6786	12181.85	11278.75
921.1259	1879.3215	12175.25	11274.35
921.2653	1880.9637	12124.7	11221.15
921.4046	1882.6051	12111.2	11209.55
921.5439	1884.2458	12060.95	11160.5
921.6832	1885.8858	12008.45	11108.65
921.8225	1887.525	12015.7	11115.35
921.9617	1889.1634	11953.1	11050.75
922.101	1890.8011	11936.15	11032.6
922.2402	1892.4381	11895.1	10992
922.3794	1894.0743	11906.75	11006.1
922.5185	1895.7098	11838.15	10938.15
922.6577	1897.3446	11819	10917.45
922.7968	1898.9786	11762.85	10856.1
922.9359	1900.6118	11760.4	10860.35
923.075	1902.2443	11725.2	10824.15
923.214	1903.8761	11703.1	10804.75
923.3531	1905.5071	11651.8	10751.85
923.4921	1907.1374	11619.1	10717.45
923.6311	1908.7669	11596.05	10696.9
923.77	1910.3957	11572.9	10674.1
923.909	1912.0237	11521.05	10621.3
924.0479	1913.651	11502.7	10602.2
924.1868	1915.2776	11450.8	10553.1
924.3257	1916.9034	11399.6	10501.5
924.4646	1918.5285	11365.8	10468.65
924.6034	1920.1528	11332.85	10432.75
924.7422	1921.7764	11344.3	10445.05
924.881	1923.3992	11263.95	10362.9
925.0198	1925.0213	11210.65	10311.15
925.1586	1926.6427	11173.65	10274.4
925.2973	1928.2633	11223.25	10246.55
925.436	1929.8832	11116.3	10212.6
925.5747	1931.5023	11059.25	10159.15
925.7134	1933.1207	11039.85	10140.6
925.852	1934.7383	11033.35	10133.05
925.9906	1936.3552	11002.05	10104.05
926.1292	1937.9714	10960.85	10064.3
926.2678	1939.5868	10901.55	10000.5
926.4064	1941.2015	10871.6	9968.4
926.5449	1942.8154	10827	9923.65
926.6834	1944.4286	10811.15	9909.3
926.8219	1946.041	10756.45	9832.6
926.9604	1947.6528	10703.45	9798.95
927.0988	1949.2637	10695.65	9797.55
927.2372	1950.8739	10660.1	9760.6
927.3756	1952.4834	10640.7	9741.55
927.514	1954.0921	10617.55	9719.15
927.6523	1955.7001	10582.3	9679.05
927.7907	1957.3074	10549.35	9654.2
927.929	1958.9139	10488.5	9595.85
928.0673	1960.5197	10499.05	9600.85
928.2055	1962.1247	10427.15	9531.8
928.3438	1963.729	10392.65	9496.75
928.482	1965.3325	10375.25	9457.1
928.6202	1966.9353	10321.7	9429.6
928.7584	1968.5374	10297.55	9402.2
928.8965	1970.1387	10256.7	9361.8
929.0346	1971.7393	10225.65	9330.7
929.1727	1973.3392	10192.9	9297.5
929.3108	1974.9383	10137.3	9243.3
929.4489	1976.5366	10108.25	9215.65
929.5869	1978.1342	10101.7	9207.8
929.7249	1979.7311	10072.8	9179.3
929.8629	1981.3273	10030.3	9136.55
930.0009	1982.9227	10046.5	9153.95
930.1388	1984.5173	10017.1	9126.4
930.2767	1986.1112	9951.75	9060.1
930.4146	1987.7044	9946	9054.25
930.5525	1989.2968	9912.15	9019.8
930.6904	1990.8885	9875.4	8979.45
930.8282	1992.4795	9886.35	8992.15
930.966	1994.0697	9811.6	8921.4
931.1038	1995.6592	9788.3	8894.45
931.2415	1997.2479	9762.05	8869.6
931.3793	1998.8359	9742.95	8851.1
931.517	2000.4232	9704.05	8816.55
931.6547	2002.0097	9675.6	8788.85
931.7923	2003.5955	9629.65	8740.95
931.93	2005.1805	9635	8744.5
932.0676	2006.7648	9607.85	8720.25
932.2052	2008.3484	9578.3	8688.5
932.3427	2009.9312	9571.05	8679.7
932.4803	2011.5133	9533.7	8648
932.6178	2013.0946	9527.85	8641.8
932.7553	2014.6752	9478.85	8591.7
932.8928	2016.2551	9480.25	8590.05
933.0302	2017.8342	9438.95	8551.05
933.1676	2019.4126	9406.5	8518.45
933.305	2020.9902	9356.35	8470.1
933.4424	2022.5672	9344.4	8457.9
933.5798	2024.1433	9321.15	8427.7
933.7171	2025.7188	9265.95	8381.85
933.8544	2027.2935	9257.65	8371.5
933.9917	2028.8674	9231.15	8345.1
934.129	2030.4406	9225.75	8341.05
934.2662	2032.0131	9167.25	8284.1
934.4034	2033.5849	9170.1	8282.8
934.5406	2035.1559	9128.55	8244.6
934.6778	2036.7261	9125.95	8238.5
934.8149	2038.2957	9129.7	8239.65
934.952	2039.8645	9079.9	8190.25
935.0891	2041.4325	9076.4	8183.85
935.2262	2042.9998	9045.45	8156.95
935.3632	2044.5664	9022.05	8134.4
935.5002	2046.1323	8970.45	8084.9
935.6372	2047.6974	8973.3	8088.25
935.7742	2049.2617	8956.1	8070.4
935.9111	2050.8254	8958.6	8047.5
936.048	2052.3883	8933.4	8042.2
936.1849	2053.9504	8877.6	7986.15
936.3218	2055.5118	8838.5	7947.3
936.4586	2057.0725	8826.5	7934.6
936.5955	2058.6325	8795.8	7909.25
936.7323	2060.1917	8753.35	7866.6
936.869	2061.7502	8735.1	7847.75
937.0058	2063.3079	8727.3	7844.1
937.1425	2064.8649	8702.75	7814.25
937.2792	2066.4212	8698.25	7809.05
937.4159	2067.9767	8687.25	7799.65
937.5525	2069.5315	8644.05	7756.1
937.6891	2071.0856	8604.25	7717.8
937.8257	2072.6389	8553.7	7666.6
937.9623	2074.1915	8532.1	7646.65
938.0989	2075.7433	8501.5	7614.9
938.2354	2077.2945	8486.1	7597.35
938.3719	2078.8448	8459.75	7569.45
938.5084	2080.3945	8409.9	7519.8
938.6448	2081.9434	8426.8	7539.15
938.7812	2083.4916	8394	7504.1
938.9176	2085.039	8363.7	7468.75
939.054	2086.5857	8345.4	7449.15
939.1903	2088.1317	8347.3	7453.35
939.3267	2089.677	8314.85	7419.7
939.463	2091.2215	8310.9	7417.15
939.5992	2092.7652	8298.45	7402.65
939.7355	2094.3083	8247	7352.8
939.8717	2095.8506	8230.5	7338.5
940.0079	2097.3921	8210.55	7320.05
940.1441	2098.933	8196.75	7305.8
940.2802	2100.4731	8176.6	7286.4
940.4163	2102.0124	8187.3	7288.15
940.5524	2103.5511	8170.45	7277.7
940.6885	2105.089	8138.75	7247
940.8245	2106.6261	8114.35	7224.3
940.9606	2108.1626	8102.75	7211.15
941.0965	2109.6983	8115.85	7197.6
941.2325	2111.2332	8063.05	7170.85
941.3684	2112.7675	8059.8	7168.85
941.5044	2114.301	8043.1	7148.95
941.6403	2115.8337	7998.35	7105.3
941.7761	2117.3657	7981.2	7087.9
941.912	2118.897	7957.55	7062.05
942.0478	2120.4276	7950.85	7051.55
942.1835	2121.9575	7896.35	7002.15
942.3193	2123.4866	7917.05	7022.1
942.455	2125.0149	7892.2	6997.4
942.5907	2126.5426	7854.25	6964.65
942.7264	2128.0695	7857.9	6968.85
942.8621	2129.5956	7817.45	6930.05
942.9977	2131.1211	7796	6903.75
943.1333	2132.6458	7794.6	6903.45
943.2689	2134.1698	7773.85	6880.25
943.4044	2135.693	7753.35	6855.9
943.54	2137.2155	7751.7	6856.65
943.6755	2138.7373	7715.45	6824.25
943.8109	2140.2584	7683.2	6793.65
943.9464	2141.7787	7680.8	6788.95
944.0818	2143.2983	7624.95	6739.4
944.2172	2144.8171	7582.35	6696.85
944.3526	2146.3353	7603.15	6713.7
944.4879	2147.8527	7556.8	6667.2
944.6232	2149.3693	7544.9	6651.8
944.7585	2150.8853	7537.25	6643.75
944.8938	2152.4005	7477.7	6582.95
945.029	2153.9149	7485.1	6591.55
945.1642	2155.4287	7563.85	6570.4
945.2994	2156.9417	7478.55	6585.3
945.4346	2158.454	7431.35	6538.8
945.5697	2159.9655	7423.7	6535.4
945.7048	2161.4764	7394.15	6506.2
945.8399	2162.9865	7367.5	6478.4
945.9749	2164.4958	7338.1	6448.1
946.1099	2166.0045	7332.55	6440.5
946.2449	2167.5124	7314.1	6423.8
946.3799	2169.0195	7290.25	6397.25
946.5148	2170.526	7316.7	6427.1
946.6498	2172.0317	7263.35	6372.55
946.7846	2173.5367	7248.8	6359.35
946.9195	2175.0409	7233.45	6344.65
947.0543	2176.5445	7234.45	6342.35
947.1891	2178.0473	7208.35	6314.6
947.3239	2179.5494	7165.45	6270.5
947.4587	2181.0507	7159.55	6267.1
947.5934	2182.5513	7153.75	6264.05
947.7281	2184.0512	7124.6	6234.2
947.8628	2185.5504	7114.35	6224.25
947.9974	2187.0488	7081.6	6195.05
948.132	2188.5465	7055.65	6169.5
948.2666	2190.0435	7028.2	6136.35
948.4012	2191.5397	7004.25	6112.5
948.5357	2193.0353	6998.35	6104.25
948.6702	2194.5301	6948.1	6054.1
948.8047	2196.0241	6945.1	6049.3
948.9392	2197.5175	6924.6	6029.8
949.0736	2199.0101	6914.65	6014.8
949.208	2200.502	6852.3	5961
949.3424	2201.9931	6835.55	5946.55
949.4767	2203.4835	6804.55	5916.2
949.611	2204.9733	6813.85	5907.1
949.7453	2206.4622	6771.65	5880.85
949.8796	2207.9505	6786.85	5896.4
950.0138	2209.438	6714.3	5828.4
950.148	2210.9248	6697.55	5808.6
950.2822	2212.4109	6692.85	5804.75
950.4164	2213.8962	6683.6	5787.9
950.5505	2215.3809	6684.45	5790.45
950.6846	2216.8648	6675.95	5779.05
950.8186	2218.3479	6654.05	5752.1
950.9527	2219.8304	6624.25	5724.65
951.0867	2221.3121	6621.15	5724.65
951.2207	2222.7931	6570.4	5676.05
951.3546	2224.2733	6541.55	5647.7
951.4886	2225.7529	6538.1	5644.4
951.6225	2227.2317	6504.4	5610.25
951.7563	2228.7098	6498.75	5609.6
951.8902	2230.1872	6471.95	5583.45
952.024	2231.6638	6447.45	5557.65
952.1578	2233.1397	6437.15	5545.05
952.2916	2234.6149	6407.8	5520.4
952.4253	2236.0894	6404.3	5511.8
952.559	2237.5632	6375.85	5483.95
952.6927	2239.0362	6368.45	5477.85
952.8263	2240.5085	6352.2	5461.75
952.9599	2241.9801	6331.55	5440.35
953.0935	2243.4509	6306.1	5412.95
953.2271	2244.921	6286.05	5391.6
953.3606	2246.3904	6255.6	5358.9
953.4941	2247.8591	6247.85	5354.8
953.6276	2249.3271	6216.8	5325.05
953.7611	2250.7943	6214.35	5320.4
953.8945	2252.2608	6189.1	5295.1
954.0279	2253.7266	6179.3	5285.7
954.1612	2255.1917	6158.25	5266.05
954.2946	2256.656	6117.25	5226.55
954.4279	2258.1197	6127.7	5237.95
954.5612	2259.5826	6118.95	5227
954.6944	2261.0447	6108.25	5216.35
954.8276	2262.5062	6076.4	5180.15
954.9608	2263.9669	6062.3	5166.8
955.094	2265.4269	6050.05	5155.55
955.2271	2266.8862	6040.25	5148.15
955.3602	2268.3448	6017.25	5126
955.4933	2269.8026	6006.05	5116.8
955.6264	2271.2598	5995.85	5105.15
955.7594	2272.7162	5994.35	5103.4
955.8924	2274.1719	5988.4	5094.6
956.0253	2275.6268	5943.7	5052.8
956.1583	2277.0811	5946.2	5050.85
956.2912	2278.5346	5929.35	5039.6
956.4241	2279.9874	5918.2	5027.8
956.5569	2281.4395	5903.65	5014.3
956.6897	2282.8908	5877.05	4981.25
956.8225	2284.3414	5883.65	4990.6
956.9553	2285.7914	5875.75	4983.85
957.088	2287.2406	5838	4943.75
957.2207	2288.689	5827.1	4933.25
957.3534	2290.1368	5822.5	4923
957.486	2291.5838	5784.1	4885.3
957.6186	2293.0302	5786.9	4888.85
957.7512	2294.4758	5749.6	4855.5
957.8838	2295.9206	5728.6	4833.5
958.0163	2297.3648	5711.55	4821.7
958.1488	2298.8082	5696.8	4804.15
958.2813	2300.251	5686.9	4793.75
958.4137	2301.693	5677.65	4779.45
958.5461	2303.1343	5693.55	4797.9
958.6785	2304.5748	5651.25	4758.25
958.8108	2306.0147	5641.1	4751.05
958.9432	2307.4538	5621.75	4729.25
959.0754	2308.8922	5595.05	4707.85
959.2077	2310.3299	5573.35	4684.7
959.3399	2311.7669	5568.85	4680.05
959.4721	2313.2031	5559.2	4665.95
959.6043	2314.6387	5539.95	4646.55
959.7365	2316.0735	5534.1	4639.65
959.8686	2317.5076	5512.05	4620.9
960.0006	2318.941	5505.15	4610.05
960.1327	2320.3737	5492.65	4597.1
960.2647	2321.8056	5456.15	4561.5
960.3967	2323.2369	5451.6	4558.25
960.5287	2324.6674	5443.7	4551
960.6606	2326.0972	5436.3	4541.2
960.7925	2327.5263	5409.4	4517
960.9244	2328.9547	5394.6	4503.95
961.0562	2330.3823	5381.4	4485.45
961.1881	2331.8092	5382	4482.6
961.3198	2333.2355	5354.4	4457.7
961.4516	2334.661	5332.35	4435.8
961.5833	2336.0858	5310.75	4415
961.715	2337.5098	5304.95	4412.15
961.8467	2338.9332	5303.6	4408.35
961.9783	2340.3558	5287.1	4391.05
962.1099	2341.7778	5277.3	4385.6
962.2415	2343.199	5263.5	4369.8
962.373	2344.6195	5227.65	4336.9
962.5045	2346.0393	5239.5	4348.5
962.636	2347.4583	5232	4338.95
962.7675	2348.8767	5221.25	4327.15
962.8989	2350.2943	5212	4313.95
963.0303	2351.7113	5192.75	4294.3
963.1617	2353.1275	5195.65	4298.65
963.293	2354.543	5192.2	4269.85
963.4243	2355.9578	5147.45	4251.15
963.5556	2357.3718	5117.75	4225.7
963.6868	2358.7852	5111.8	4218.35
963.818	2360.1978	5112.5	4220.7
963.9492	2361.6098	5089.05	4195.35
964.0803	2363.021	5083.15	4185.85
964.2114	2364.4315	5065.5	4170.3
964.3425	2365.8413	5043.1	4147.25
964.4736	2367.2504	5021.4	4129.5
964.6046	2368.6587	4997.85	4106.7
964.7356	2370.0664	4981.45	4091.15
964.8666	2371.4733	4983.7	4091.35
964.9975	2372.8795	4971.25	4076.65
965.1284	2374.285	4944.05	4048.9
965.2593	2375.6899	4937.7	4044.55
965.3901	2377.0939	4896.55	4003.25
965.5209	2378.4973	4886.95	3995.75
965.6517	2379.9	4877.45	3984.15
965.7825	2381.3019	4862.1	3971.1
965.9132	2382.7032	4850	3959
966.0439	2384.1037	4857.8	3966.45
966.1745	2385.5035	4820.4	3931.85
966.3051	2386.9027	4800.9	3908.95
966.4357	2388.3011	4795.4	3902.25
966.5663	2389.6987	4791.8	3897.65
966.6968	2391.0957	4751.8	3859
966.8273	2392.492	4754.85	3865.15
966.9578	2393.8876	4747.2	3855.95
967.0882	2395.2824	4736.35	3842.65
967.2186	2396.6765	4706.35	3812.85
967.349	2398.07	4700.05	3805.65
967.4793	2399.4627	4684.1	3787.05
967.6097	2400.8547	4683.8	3786.65
967.7399	2402.246	4663.4	3761.75
967.8702	2403.6366	4655	3761.6
968.0004	2405.0265	4631.4	3739.45
968.1306	2406.4156	4617.25	3720.85
968.2607	2407.8041	4615.55	3720.35
968.3909	2409.1918	4586.25	3689.1
968.521	2410.5789	4565.5	3670.8
968.651	2411.9652	4551.75	3654.5
968.781	2413.3508	4533.5	3637
968.911	2414.7358	4521.2	3625.4
969.041	2416.12	4519.1	3625.85
969.1709	2417.5035	4514.3	3623.3
969.3008	2418.8863	4492.9	3595.8
969.4307	2420.2684	4486.95	3591.65
969.5606	2421.6497	4471.1	3577.2
969.6904	2423.0304	4425.85	3532.2
969.8201	2424.4104	4427.65	3531.45
969.9499	2425.7896	4435.75	3538.4
970.0796	2427.1682	4416.75	3524.55
970.2093	2428.546	4410.4	3515.4
970.3389	2429.9232	4394.15	3499.65
970.4685	2431.2996	4360.95	3466.9
970.5981	2432.6753	4369.65	3474.75
970.7277	2434.0503	4353.6	3457.85
970.8572	2435.4246	4336.55	3442.1
970.9867	2436.7982	4336.05	3438.45
971.1161	2438.1711	4319.05	3424.9
971.2456	2439.5433	4321.6	3427
971.375	2440.9148	4302.25	3403.4
971.5043	2442.2856	4281	3387.65
971.6336	2443.6557	4261.1	3365.45
971.7629	2445.025	4254.35	3359.15
971.8922	2446.3937	4253.05	3358.5
972.0214	2447.7617	4227.1	3331.85
972.1506	2449.1289	4235	3341.3
972.2798	2450.4955	4228.7	3332
972.4089	2451.8613	4206.15	3314
972.538	2453.2265	4196.4	3303.65
972.6671	2454.5909	4187.65	3291.1
972.7961	2455.9546	4175.4	3280.35
972.9251	2457.3177	4162.85	3268
973.0541	2458.68	4147.85	3253.7
973.1831	2460.0416	4144.8	3250.6
973.312	2461.4025	4133.25	3237.7
973.4408	2462.7627	4143.15	3239.2
973.5697	2464.1222	4121.65	3232.55
973.6985	2465.4811	4100.7	3208.7
973.8273	2466.8392	4096.45	3202.9
973.956	2468.1966	4087.15	3192.2
974.0847	2469.5533	4083.05	3186.25
974.2134	2470.9093	4074.7	3180.7
974.3421	2472.2645	4071.55	3178.6
974.4707	2473.6191	4056.15	3165.35
974.5993	2474.973	4029.7	3136.95
974.7278	2476.3262	4019.2	3122.95
974.8563	2477.6787	3998	3105.5
974.9848	2479.0305	3998.3	3105.5
975.1132	2480.3816	3983	3090.15
975.2417	2481.7319	3978.45	3087.2
975.37	2483.0816	3962.7	3069.05
975.4984	2484.4306	3951	3058.2
975.6267	2485.7789	3925.3	3034.6
975.755	2487.1264	3920.95	3028.55
975.8833	2488.4733	3902.4	3011.1
976.0115	2489.8195	3901.05	2990.95
976.1397	2491.165	3890.6	2993.1
976.2678	2492.5097	3875.25	2980.7
976.3959	2493.8538	3871.75	2981.5
976.524	2495.1972	3849.2	2956.05
976.6521	2496.5398	3832.1	2937.65
976.7801	2497.8818	3826.1	2931.1
976.9081	2499.2231	3836	2941.6
977.036	2500.5637	3811.45	2915.15
977.164	2501.9035	3808.5	2913.5
977.2918	2503.2427	3793.5	2895.55
977.4197	2504.5812	3787.7	2893.45
977.5475	2505.919	3776.05	2881.3
977.6753	2507.256	3773.7	2881.2
977.8031	2508.5924	3743.4	2850.2
977.9308	2509.9281	3735.45	2837.2
978.0585	2511.2631	3737.45	2843.05
978.1861	2512.5974	3720.5	2828.3
978.3137	2513.9309	3717.9	2825.3
978.4413	2515.2638	3723.45	2802.9
978.5689	2516.596	3700.75	2808.8
978.6964	2517.9275	3681.45	2787.25
978.8239	2519.2583	3677.75	2782.15
978.9513	2520.5884	3660.95	2766.65
979.0788	2521.9178	3640.15	2746.8
979.2062	2523.2465	3634.05	2743
979.3335	2524.5745	3643.6	2751.55
979.4608	2525.9018	3633	2740.5
979.5881	2527.2284	3609.2	2717.2
979.7154	2528.5543	3612.3	2720
979.8426	2529.8796	3593.2	2697.8
979.9698	2531.2041	3601.25	2709.1
980.0969	2532.5279	3580.2	2689.6
980.224	2533.851	3582.45	2690.05
980.3511	2535.1735	3560.35	2665.65
980.4781	2536.4952	3567.9	2672.75
980.6052	2537.8163	3561	2667.45
980.7321	2539.1366	3541.85	2647.8
980.8591	2540.4562	3536.95	2641.05
980.986	2541.7752	3537.65	2643.8
981.1129	2543.0935	3537.85	2643.45
981.2397	2544.411	3521.75	2626
981.3665	2545.7279	3505	2610.2
981.4933	2547.0441	3518.1	2623.85
981.62	2548.3596	3505.8	2609.7
981.7467	2549.6744	3512	2617.45
981.8734	2550.9885	3481.5	2583
982.0001	2552.3019	3475.2	2583.1
982.1267	2553.6146	3476.8	2582.25
982.2532	2554.9266	3472.7	2579.3
982.3798	2556.2379	3466.9	2573.25
982.5063	2557.5485	3456.4	2563.25
982.6327	2558.8585	3455.7	2554.05
982.7592	2560.1677	3436	2537.95
982.8856	2561.4762	3439.9	2546.9
983.0119	2562.7841	3430.7	2534.5
983.1383	2564.0913	3416.15	2524.55
983.2646	2565.3977	3414	2520.7
983.3908	2566.7035	3411.05	2516.55
983.517	2568.0086	3389.9	2495.1
983.6432	2569.313	3387.3	2490.65
983.7694	2570.6167	3382.85	2486.4
983.8955	2571.9197	3378.1	2483.8
984.0216	2573.222	3372.6	2474.65
984.1476	2574.5236	3363.9	2470.15
984.2737	2575.8246	3354.4	2458.7
984.3996	2577.1248	3363.2	2466.45
984.5256	2578.4244	3357.9	2464.5
984.6515	2579.7232	3351.35	2459
984.7774	2581.0214	3372.8	2449.65
984.9032	2582.3189	3328.15	2434.85
985.029	2583.6157	3340.25	2440.05
985.1548	2584.9118	3322	2428.15
985.2806	2586.2072	3320.65	2426.4
985.4063	2587.5019	3313.25	2419.85
985.5319	2588.7959	3300.3	2407.85
985.6576	2590.0893	3300.05	2403.05
985.7832	2591.3819	3296.95	2403.45
985.9087	2592.6739	3301.35	2409.75
986.0343	2593.9652	3286.3	2392.15
986.1597	2595.2557	3265.95	2371.8
986.2852	2596.5456	3257.65	2361.4
986.4106	2597.8348	3251.45	2357.95
986.536	2599.1234	3250	2356.6
986.6614	2600.4112	3242.6	2348.05
986.7867	2601.6983	3234.5	2336.55
986.912	2602.9848	3219.4	2326.65
987.0372	2604.2705	3208.35	2307.35
987.1624	2605.5556	3217.3	2323
987.2876	2606.84	3201.6	2306.9
987.4128	2608.1237	3191	2296.7
987.5379	2609.4067	3175.7	2282.85
987.6629	2610.689	3171.75	2271.2
987.788	2611.9707	3165.55	2266.35
987.913	2613.2516	3159.2	2262.25
988.0379	2614.5319	3143.4	2250.05
988.1629	2615.8115	3134.75	2242.05
988.2878	2617.0903	3116.05	2222.7
988.4126	2618.3685	3115	2219.2
988.5375	2619.6461	3098.35	2206.25
988.6622	2620.9229	3101.05	2206.8
988.787	2622.199	3100.6	2208.4
988.9117	2623.4745	3098.9	2205.65
989.0364	2624.7493	3078.25	2187.6
989.161	2626.0234	3074.65	2181.45
989.2857	2627.2968	3048.2	2155.15
989.4102	2628.5695	3051.35	2158.8
989.5348	2629.8415	3048.4	2155.25
989.6593	2631.1128	3036.65	2141.35
989.7837	2632.3835	3026.85	2133.6
989.9082	2633.6535	3010.9	2118.9
990.0326	2634.9228	3003.6	2110.15
990.1569	2636.1914	3002.9	2110.95
990.2812	2637.4593	3002.4	2106.15
990.4055	2638.7265	2981.9	2086.95
990.5298	2639.9931	2987.05	2093.9
990.654	2641.259	2978.7	2083.8
990.7782	2642.5242	2977.55	2083.75
990.9023	2643.7887	2964.05	2069.45
991.0264	2645.0525	2956.95	2064.95
991.1505	2646.3156	2946.6	2040.85
991.2745	2647.5781	2934.5	2042.15
991.3985	2648.8398	2934.7	2044.05
991.5225	2650.1009	2948.75	2030.6
991.6464	2651.3613	2916.1	2023.95
991.7703	2652.6211	2913.9	2021.6
991.8942	2653.8801	2904.25	2010.65
992.018	2655.1385	2899.3	2003.45
992.1418	2656.3961	2886.7	1993.7
992.2655	2657.6531	2887.3	1994.95
992.3892	2658.9094	2872.85	1979.95
992.5129	2660.1651	2879.6	1988.9
992.6366	2661.42	2870.3	1978.25
992.7602	2662.6743	2873.3	1981.55
992.8837	2663.9279	2861.5	1970.55
993.0073	2665.1808	2854.6	1961.4
993.1307	2666.433	2862.3	1968.75
993.2542	2667.6846	2855.8	1963.45
993.3776	2668.9354	2854.65	1959.55
993.501	2670.1856	2843.9	1950.9
993.6244	2671.4351	2854.3	1962
993.7477	2672.6839	2843.5	1950.55
993.8709	2673.9321	2841.2	1950.05
993.9942	2675.1795	2845.7	1952.65
994.1174	2676.4263	2833.7	1941.35
994.2405	2677.6724	2816.95	1926.15
994.3637	2678.9179	2812.85	1919.3
994.4868	2680.1626	2805.25	1916.05
994.6098	2681.4067	2800.6	1907.95
994.7328	2682.6501	2797	1904.1
994.8558	2683.8928	2796.35	1906.35
994.9788	2685.1348	2780.4	1888.95
995.1017	2686.3761	2770.45	1880.1
995.2245	2687.6168	2768.7	1875.9
995.3474	2688.8568	2764.55	1873.4
995.4702	2690.0961	2755.1	1864.7
995.5929	2691.3348	2738.9	1845
995.7156	2692.5727	2739.25	1849.15
995.8383	2693.81	2726.25	1834.15
995.961	2695.0466	2717.4	1828
996.0836	2696.2826	2719.65	1827.65
996.2062	2697.5178	2725.75	1831.5
996.3287	2698.7524	2699.25	1808.3
996.4512	2699.9863	2709.75	1814.95
996.5737	2701.2195	2696.9	1807.7
996.6961	2702.452	2693.05	1800.15
996.8185	2703.6839	2700.45	1806.35
996.9408	2704.9151	2692.7	1803.8
997.0631	2706.1456	2683.95	1792
997.1854	2707.3755	2697.6	1804.8
997.3077	2708.6046	2692.7	1798.7
997.4299	2709.8331	2683.3	1792.2
997.552	2711.0609	2679.3	1786.95
997.6742	2712.2881	2686.15	1795.9
997.7963	2713.5145	2679.65	1784.8
997.9183	2714.7403	2690.3	1798.75
998.0403	2715.9654	2690.45	1798.85
998.1623	2717.1899	2694.45	1790.1
998.2842	2718.4136	2693.65	1803.25
998.4062	2719.6367	2688.8	1797.5
998.528	2720.8591	2694.05	1796.9
998.6498	2722.0809	2685	1793.05
998.7716	2723.3019	2692.6	1798.75
998.8934	2724.5223	2694	1801.65
999.0151	2725.7421	2706.6	1813.9
999.1368	2726.9611	2681.55	1787.6
999.2584	2728.1795	2687.4	1792.55
999.38	2729.3972	2673.5	1782.25
999.5016	2730.6142	2655.9	1758.3
999.6231	2731.8306	2641.3	1748.4
999.7446	2733.0462	2638.95	1745.25
999.8661	2734.2612	2618.25	1722.1
999.9875	2735.4756	2593.8	1701.65
1000.1089	2736.6892	2574.65	1684.95
1000.2302	2737.9022	2559	1670.05
1000.3515	2739.1145	2548.1	1658.5
1000.4728	2740.3262	2545.15	1647.45
1000.594	2741.5372	2523.15	1632.05
1000.7152	2742.7475	2511.55	1621.2
1000.8363	2743.9571	2495.05	1603.75
1000.9575	2745.1661	2498.55	1604.9
1001.0785	2746.3744	2476.4	1586.85
1001.1996	2747.582	2467	1577.55
1001.3206	2748.7889	2456.05	1564.25
1001.4415	2749.9952	2450.8	1560.3
1001.5625	2751.2008	2447.35	1557.4
1001.6833	2752.4057	2443.1	1550.95
1001.8042	2753.61	2421.75	1530.9
1001.925	2754.8136	2410.35	1515.7
1002.0458	2756.0165	2412.7	1521.75
1002.1665	2757.2188	2393.4	1506.45
1002.2872	2758.4204	2384.3	1494.65
1002.4078	2759.6213	2389.2	1497.2
1002.5285	2760.8215	2389.85	1494.65
1002.649	2762.0211	2398.3	1508.7
1002.7696	2763.22	2379.15	1487.45
1002.8901	2764.4182	2380.7	1490.3
1003.0106	2765.6158	2367.2	1477.25
1003.131	2766.8127	2363.35	1472.55
1003.2514	2768.009	2351.45	1462.3
1003.3717	2769.2045	2352.55	1460.35
1003.492	2770.3994	2353.6	1461.9
1003.6123	2771.5936	2333.65	1441.95
1003.7325	2772.7872	2319.65	1431.8
1003.8527	2773.9801	2329.8	1439.25
1003.9729	2775.1723	2335.2	1426.8
1004.093	2776.3639	2316.65	1425.6
1004.2131	2777.5548	2303.8	1412.5
1004.3331	2778.745	2298.25	1409
1004.4531	2779.9346	2301.95	1414
1004.5731	2781.1235	2298.45	1408.05
1004.693	2782.3117	2288.05	1399.35
1004.8129	2783.4992	2301.3	1412.9
1004.9328	2784.6861	2292.5	1405.7
1005.0526	2785.8723	2282.1	1392.35
1005.1723	2787.0579	2275.15	1384.7
1005.2921	2788.2428	2282.5	1392.55
1005.4118	2789.427	2285.55	1396.65
1005.5314	2790.6106	2284.7	1396.15
1005.651	2791.7935	2278.45	1388.85
1005.7706	2792.9757	2275.75	1387.35
1005.8902	2794.1573	2283.95	1394.5
1006.0097	2795.3382	2290.1	1401.45
1006.1291	2796.5184	2281.5	1392.15
1006.2485	2797.698	2300.1	1410.05
1006.3679	2798.8769	2299.7	1413.3
1006.4873	2800.0551	2316	1425.45
1006.6066	2801.2327	2317.3	1426
1006.7258	2802.4096	2309.8	1422.8
1006.8451	2803.5859	2323.2	1433.9
1006.9642	2804.7615	2337.8	1447.65
1007.0834	2805.9364	2341.45	1453.55
1007.2025	2807.1106	2356.7	1468.05
1007.3216	2808.2842	2368.65	1477.9
1007.4406	2809.4572	2376.85	1488.6
1007.5596	2810.6294	2410.95	1520
1007.6785	2811.801	2431.1	1543.2
1007.7975	2812.972	2451.85	1563.8
1007.9163	2814.1423	2476.9	1587.5
1008.0352	2815.3119	2513.15	1623.85
1008.154	2816.4808	2540.1	1652.2
1008.2727	2817.6491	2567.6	1678.9
1008.3914	2818.8167	2611.05	1723.65
1008.5101	2819.9837	2654.1	1762.8
1008.6288	2821.15	2685.35	1797
1008.7474	2822.3157	2725.3	1837.5
1008.8659	2823.4807	2767	1877.95
1008.9844	2824.645	2810.3	1920.7
1009.1029	2825.8086	2841.85	1953.15
1009.2214	2826.9716	2889	2000.85
1009.3398	2828.134	2911.2	2022.55
1009.4581	2829.2957	2962.85	2075.25
1009.5764	2830.4567	2977.05	2089.4
1009.6947	2831.617	2993.25	2104.6
1009.813	2832.7767	3020.25	2133.2
1009.9312	2833.9358	3010.7	2124.8
1010.0493	2835.0941	2994.95	2105.2
1010.1675	2836.2519	2983.65	2097.2
1010.2855	2837.4089	2967.85	2078.65
1010.4036	2838.5653	2942.85	2055.55
1010.5216	2839.7211	2949.1	2062.25
1010.6396	2840.8761	2944.6	2054.85
1010.7575	2842.0306	2937.65	2050.9
1010.8754	2843.1843	2941.35	2051.25
1010.9932	2844.3374	2965.95	2078.3
1011.111	2845.4899	3001.4	2112.75
1011.2288	2846.6417	3033.65	2144.75
1011.3465	2847.7928	3085.65	2197.7
1011.4642	2848.9433	3140.1	2252.3
1011.5818	2850.0931	3175.65	2286.9
1011.6995	2851.2422	3221.6	2330.9
1011.817	2852.3907	3263.8	2374.1
1011.9345	2853.5385	3313.75	2425.2
1012.052	2854.6857	3359.9	2464.05
1012.1695	2855.8323	3372.25	2486.75
1012.2869	2856.9781	3420.05	2531.95
1012.4042	2858.1233	3432.5	2545.35
1012.5216	2859.2679	3482.7	2596.75
1012.6389	2860.4118	3517.35	2630.4
1012.7561	2861.555	3550.55	2658
1012.8733	2862.6976	3580.75	2690.75
1012.9905	2863.8395	3601.05	2714.9
1013.1076	2864.9808	3615.65	2728
1013.2247	2866.1214	3639.55	2754.05
1013.3417	2867.2614	3640.65	2754.65
1013.4587	2868.4007	3652.75	2765.45
1013.5757	2869.5393	3658.3	2769.9
1013.6926	2870.6773	3678.95	2786.6
1013.8095	2871.8146	3673.75	2781.95
1013.9263	2872.9513	3687.95	2797.55
1014.0431	2874.0874	3665.8	2778.5
1014.1599	2875.2227	3653.2	2765.8
1014.2766	2876.3574	3638.1	2750.05
1014.3933	2877.4915	3617.6	2731.2
1014.51	2878.6249	3580.15	2693.9
1014.6266	2879.7577	3563.55	2676.2
1014.7431	2880.8898	3547.95	2650.75
1014.8596	2882.0212	3533.15	2644.15
1014.9761	2883.152	3525.15	2635.7
1015.0925	2884.2821	3508.3	2624.4
1015.2089	2885.4116	3512.35	2625.35
1015.3253	2886.5405	3495.2	2608.05
1015.4416	2887.6686	3507.35	2616.7
1015.5579	2888.7962	3501.45	2618.05
1015.6741	2889.923	3513.85	2627.65
1015.7903	2891.0493	3495.8	2611.3
1015.9065	2892.1748	3503	2614.7
1016.0226	2893.2997	3524.8	2638.1
1016.1387	2894.424	3512.55	2626.9
1016.2547	2895.5476	3519.25	2632.8
1016.3707	2896.6706	3531.65	2644.7
1016.4866	2897.7929	3560.8	2672.6
1016.6025	2898.9145	3569.8	2682.8
1016.7184	2900.0355	3594.75	2708.45
1016.8342	2901.1559	3608.45	2722.8
1016.95	2902.2756	3622	2735.15
1017.0658	2903.3946	3655.05	2769.65
1017.1815	2904.513	3656.55	2769.45
1017.2971	2905.6308	3680.45	2794.5
1017.4127	2906.7479	3703.8	2815.05
1017.5283	2907.8643	3719.95	2834
1017.6439	2908.9801	3715.9	2829.85
1017.7594	2910.0953	3706.75	2820.15
1017.8748	2911.2098	3716.75	2824.75
1017.9902	2912.3236	3722.4	2828.6
1018.1056	2913.4368	3711.1	2820.35
1018.2209	2914.5494	3686.55	2802.2
1018.3362	2915.6613	3658.2	2767.55
1018.4515	2916.7725	3637.6	2748.75
1018.5667	2917.8831	3618.9	2732.75
1018.6819	2918.9931	3596.5	2706.45
1018.797	2920.1024	3559.2	2671.75
1018.9121	2921.211	3545.1	2659.1
1019.0271	2922.319	3529.05	2642.95
1019.1421	2923.4264	3507	2620.25
1019.2571	2924.5331	3500.45	2616.5
1019.372	2925.6391	3490.9	2603.9
1019.4869	2926.7445	3489.45	2604.55
1019.6017	2927.8493	3479.1	2591.1
1019.7165	2928.9534	3475.35	2588.9
1019.8313	2930.0569	3474.45	2583.95
1019.946	2931.1597	3460.85	2572.45
1020.0606	2932.2619	3469.35	2581.1
1020.1753	2933.3634	3478.3	2593.65
1020.2899	2934.4643	3500.8	2607.65
1020.4044	2935.5645	3466.2	2572.85
1020.5189	2936.6641	3459.35	2569.15
1020.6334	2937.763	3428.8	2543.5
1020.7478	2938.8613	3386.55	2500.25
1020.8622	2939.959	3345.35	2452.95
1020.9765	2941.056	3309.55	2424.05
1021.0908	2942.1523	3251	2363.3
1021.2051	2943.248	3184.9	2297.95
1021.3193	2944.3431	3122.9	2237.4
1021.4334	2945.4375	3051.8	2164.95
1021.5476	2946.5313	2966.75	2082.8
1021.6617	2947.6244	2881.15	1995.3
1021.7757	2948.7169	2826.6	1939.75
1021.8897	2949.8087	2734.25	1848.5
1022.0037	2950.8999	2670.05	1784.85
1022.1176	2951.9904	2611.9	1727.35
1022.2315	2953.0803	2537.3	1649.85
1022.3453	2954.1696	2491.55	1606.6
1022.4591	2955.2582	2443.3	1558.45
1022.5728	2956.3462	2399.95	1514.2
1022.6865	2957.4335	2379.75	1491.15
1022.8002	2958.5202	2358	1469.75
1022.9138	2959.6062	2328.15	1442.65
1023.0274	2960.6916	2303.7	1416.05
1023.141	2961.7764	2288.85	1402.95
1023.2545	2962.8605	2266.35	1378.65
1023.3679	2963.9439	2252.5	1366.95
1023.4813	2965.0267	2250.65	1365.15
1023.5947	2966.1089	2258.6	1350.6
1023.708	2967.1905	2230.5	1345.1
1023.8213	2968.2714	2230.8	1346.75
1023.9346	2969.3516	2228	1342.65
1024.0478	2970.4312	2228.45	1336.05
1024.1609	2971.5102	2224.55	1337.7
1024.274	2972.5885	2212.5	1327.45
1024.3871	2973.6662	2214.45	1322.15
1024.5002	2974.7432	2221.4	1338.35
1024.6132	2975.8196	2216.05	1332.4
1024.7261	2976.8954	2214.8	1330.25
1024.839	2977.9705	2202.75	1317.75
1024.9519	2979.045	2187.75	1304
1025.0647	2980.1188	2173.5	1289
1025.1775	2981.192	2160.5	1275.7
1025.2902	2982.2645	2163.1	1275.95
1025.4029	2983.3364	2124.4	1238.8
1025.5156	2984.4077	2111.7	1228
1025.6282	2985.4783	2091.65	1202.15
1025.7407	2986.5483	2050.1	1164.65
1025.8532	2987.6177	2032.3	1147.35
1025.9657	2988.6864	2013.6	1128.35
1026.0782	2989.7545	1980.95	1094.6
1026.1906	2990.8219	1948.35	1064.65
1026.3029	2991.8887	1926.8	1040.8
1026.4152	2992.9548	1907.7	1022.75
1026.5275	2994.0204	1867.65	981.4
1026.6397	2995.0852	1844	960.05
1026.7519	2996.1495	1819.15	931.9
1026.864	2997.2131	1805.35	920.7
1026.9761	2998.276	1777.45	892.8
1027.0882	2999.3383	1773.9	886.95
1027.2002	3000.4	1746.8	860.7
1027.3122	3001.4611	1734.35	849.65
1027.4241	3002.5215	1712.4	827.35
1027.536	3003.5812	1697.25	814.1
1027.6478	3004.6404	1684.5	799.9
1027.7596	3005.6989	1681.8	795
1027.8714	3006.7567	1674.15	787.95
1027.9831	3007.8139	1689.25	783.65
1028.0947	3008.8705	1651.2	765.4
1028.2064	3009.9264	1656.65	755.9
1028.3179	3010.9818	1636.6	750.7
1028.4295	3012.0364	1633	746.7
1028.541	3013.0905	1620.35	737.4
1028.6524	3014.1439	1620.35	735.35
1028.7638	3015.1966	1622.5	737.65
1028.8752	3016.2487	1614.1	728.75
1028.9865	3017.3002	1611.3	722.45
1029.0978	3018.3511	1598.35	714.95
1029.209	3019.4013	1595.35	711
1029.3202	3020.4509	1592.5	709
1029.4314	3021.4998	1597.4	710.65
1029.5425	3022.5481	1586.35	701
1029.6535	3023.5958	1593.35	707.3
1029.7645	3024.6428	1584.6	697.8
1029.8755	3025.6892	1574.95	690.7
1029.9864	3026.735	1579.7	695.7
1030.0973	3027.7802	1584.05	698.9
1030.2082	3028.8247	1571.45	686.95
1030.319	3029.8685	1576.95	691.5
1030.4297	3030.9118	1576.7	691.15
1030.5404	3031.9544	1572	687.5
1030.6511	3032.9963	1581.1	696.8
1030.7617	3034.0376	1571.7	687.55
1030.8723	3035.0783	1571.15	684.2
1030.9829	3036.1184	1582.5	695.6
1031.0934	3037.1578	1575.45	690.9
1031.2038	3038.1966	1582.35	693.75
1031.3142	3039.2348	1566.75	681.95
1031.4246	3040.2723	1582	688.55
1031.5349	3041.3092	1567.05	683.8
1031.6452	3042.3455	1576.15	692.25
1031.7554	3043.3811	1566.7	681.15
1031.8656	3044.4161	1561.95	677.25
1031.9758	3045.4505	1558	672.95
1032.0859	3046.4842	1558.05	674
1032.1959	3047.5173	1546.6	662.35
1032.3059	3048.5498	1555.9	670.95
1032.4159	3049.5816	1546	660.25
1032.5258	3050.6128	1546.5	662.55
1032.6357	3051.6434	1541.85	654.6
1032.7455	3052.6734	1533.35	650.05
1032.8553	3053.7027	1530.8	646.75
1032.9651	3054.7314	1525.1	642.9
1033.0748	3055.7594	1514.7	632.45
1033.1845	3056.7868	1518.7	631.85
1033.2941	3057.8136	1510.55	626.6
1033.4037	3058.8398	1505.7	621.4
1033.5132	3059.8653	1502.5	617.4
1033.6227	3060.8902	1502.35	618.85
1033.7321	3061.9145	1502.2	616.6
1033.8415	3062.9381	1499.9	615.25
1033.9509	3063.9612	1507.45	607.25
1034.0602	3064.9835	1492.9	609.5
1034.1694	3066.0053	1485.1	598.3
1034.2787	3067.0264	1480.7	597.85
1034.3878	3068.0469	1473.35	588.35
1034.497	3069.0668	1473.5	587.1
1034.6061	3070.086	1464.45	579.7
1034.7151	3071.1046	1455.15	571.4
1034.8241	3072.1226	1452.55	568.15
1034.9331	3073.1399	1445	562.1
1035.042	3074.1567	1437.7	554.4
1035.1508	3075.1727	1433.05	545.55
1035.2597	3076.1882	1424.7	540.6
1035.3684	3077.203	1416.6	531.55
1035.4772	3078.2173	1414.5	528.25
1035.5859	3079.2308	1410.5	523.9
1035.6945	3080.2438	1407.25	520.65
1035.8031	3081.2561	1391.6	506.6
1035.9117	3082.2678	1386.5	502.35
1036.0202	3083.2789	1379.35	495.4
1036.1286	3084.2893	1369.4	485.55
1036.2371	3085.2991	1368.15	483.8
1036.3454	3086.3083	1370.2	482.35
1036.4538	3087.3169	1358.25	472
1036.562	3088.3248	1355.65	469.5
1036.6703	3089.3321	1353.65	467.2
1036.7785	3090.3388	1351.85	469.6
1036.8866	3091.3449	1342.4	460.3
1036.9948	3092.3503	1336.45	451.65
1037.1028	3093.3551	1334.6	453.9
1037.2108	3094.3593	1329.05	444.75
1037.3188	3095.3629	1323.9	438.9
1037.4267	3096.3658	1324.05	441.3
1037.5346	3097.3681	1310.5	425.75
1037.6425	3098.3698	1323.5	437.75
1037.7503	3099.3708	1317	425.5
1037.858	3100.3713	1305.35	421.6
1037.9657	3101.3711	1305.1	421.65
1038.0734	3102.3702	1438.35	413.75
1038.181	3103.3688	1299.2	413.15
1038.2886	3104.3667	1295.15	411.95
1038.3961	3105.364	1296	412.85
1038.5036	3106.3607	1282.55	398.2
1038.611	3107.3568	1281.7	397.7
1038.7184	3108.3522	1283.85	400.6
1038.8257	3109.347	1275.3	390.15
1038.933	3110.3412	1286.45	399.35
1039.0403	3111.3348	1278.45	394.5
1039.1475	3112.3277	1267.4	385.15
1039.2547	3113.32	1265.8	384.45
1039.3618	3114.3117	1264.9	380.15
1039.4689	3115.3028	1262.2	378.45
1039.5759	3116.2932	1260.35	375.4
1039.6829	3117.2831	1262.55	372.6
1039.7898	3118.2723	1251.5	366
1039.8967	3119.2608	1252.3	367.85
1040.0035	3120.2488	1250.35	366.45
1040.1103	3121.2361	1240.65	357.3
1040.2171	3122.2229	1244.15	361.6
1040.3238	3123.209	1249.25	364.1
1040.4305	3124.1944	1240.1	357.1
1040.5371	3125.1793	1240.45	354.55
1040.6437	3126.1635	1236.9	354.1
1040.7502	3127.1471	1233.95	351.2
1040.8567	3128.1301	1232.1	351.5
1040.9631	3129.1125	1230.7	344.45
1041.0695	3130.0942	1227.1	343.7
1041.1759	3131.0753	1236.35	343.95
1041.2822	3132.0558	1229.35	342.65
1041.3884	3133.0357	1219.15	332.55
1041.4946	3134.015	1219.85	333
1041.6008	3134.9936	1221.2	335.5
1041.7069	3135.9716	1236.7	330.05
1041.813	3136.949	1216.1	332.25
1041.919	3137.9258	1233.8	331.5
1042.025	3138.902	1219.4	330.75
1042.1309	3139.8775	1209.65	327.5
1042.2368	3140.8524	1202.4	318.1
1042.3427	3141.8267	1200.95	314.8
1042.4485	3142.8004	1212.3	327.95
1042.5542	3143.7735	1213.95	324.2
1042.6599	3144.7459	1201.3	318.05
1042.7656	3145.7178	1200.7	315.3
1042.8712	3146.689	1198.8	317.3
1042.9768	3147.6596	1195.7	311.2
1043.0823	3148.6295	1193.25	310.35
1043.1878	3149.5989	1198.05	314
1043.2932	3150.5676	1188.1	303.7
1043.3986	3151.5357	1185.25	302.2
1043.5039	3152.5032	1184.75	302
1043.6092	3153.4701	1183.9	300.1
1043.7145	3154.4364	1187.95	301.9
1043.8197	3155.402	1178.1	295.5
1043.9248	3156.367	1182.4	297.75
1044.03	3157.3315	1214.8	296.75
1044.135	3158.2952	1174.55	289.8
1044.24	3159.2584	1170.7	287.5
1044.345	3160.221	1175.65	292.85
1044.4499	3161.1829	1172.35	289.8
1044.5548	3162.1442	1162.05	279.95
1044.6596	3163.105	1171.3	291.4
1044.7644	3164.065	1166.95	284.3
1044.8692	3165.0245	1168.75	281.05
1044.9739	3165.9834	1154.15	273.1
1045.0785	3166.9416	1163.05	278.35
1045.1831	3167.8993	1161.6	277.75
1045.2877	3168.8563	1160.75	275.55
1045.3922	3169.8127	1149.85	268
1045.4966	3170.7684	1153.7	270.75
1045.6011	3171.7236	1153.55	271.25
1045.7054	3172.6782	1151.3	268.95
1045.8098	3173.6321	1149.45	264.8
1045.914	3174.5854	1155.95	268.95
1046.0183	3175.5381	1149.65	267.85
1046.1224	3176.4902	1143.5	261.75
1046.2266	3177.4417	1140.5	257.15
1046.3307	3178.3926	1138.95	255.25
1046.4347	3179.3428	1137.1	253.4
1046.5387	3180.2924	1140.85	260.95
1046.6427	3181.2415	1136.45	253.3
1046.7466	3182.1899	1136.05	250.05
1046.8504	3183.1377	1130.35	248.75
1046.9542	3184.0848	1137.65	249
1047.058	3185.0314	1130.75	248.9
1047.1617	3185.9773	1131.65	248.35
1047.2654	3186.9227	1133.4	248.9
1047.369	3187.8674	1127.3	245.2
1047.4726	3188.8115	1130.25	243.7
1047.5761	3189.755	1126.35	242.75
1047.6796	3190.6979	1119.35	238.75
1047.783	3191.6402	1120.95	237.55
1047.8864	3192.5818	1118.5	236.45
1047.9898	3193.5229	1126.8	237.5
1048.0931	3194.4633	1119.75	237.6
1048.1963	3195.4031	1117.7	233.7
1048.2995	3196.3423	1112.45	228.95
1048.4027	3197.2809	1116.55	233.8
1048.5058	3198.2189	1114	231.25
1048.6089	3199.1563	1120.25	229.95
1048.7119	3200.0931	1107.2	224.4
1048.8148	3201.0292	1110.05	228.55
1048.9178	3201.9648	1112.25	230.15
1049.0206	3202.8997	1111.3	225.8
1049.1235	3203.834	1109.75	226.35
1049.2262	3204.7677	1101.75	219.8
1049.329	3205.7008	1105.95	222.05
1049.4317	3206.6333	1100.6	220.15
1049.5343	3207.5652	1101.2	216.2
1049.6369	3208.4964	1102.8	219.25
1049.7394	3209.4271	1099.75	218.35
1049.8419	3210.3571	1099.05	216.3
1049.9444	3211.2865	1099	213.3
1050.0468	3212.2154	1094.55	211.8
1050.1491	3213.1436	1098.85	211.95
1050.2514	3214.0712	1095.75	206.95
1050.3537	3214.9982	1092.2	208.95
1050.4559	3215.9246	1087.45	204.95
1050.5581	3216.8503	1088.75	207.45
1050.6602	3217.7755	1089.45	206.9
1050.7623	3218.7001	1084.2	202.8
1050.8643	3219.624	1090.6	208.55
1050.9663	3220.5473	1083.75	202.75
1051.0682	3221.4701	1085.3	200.7
1051.1701	3222.3922	1084.55	199.1
1051.2719	3223.3137	1085.95	202.7
1051.3737	3224.2346	1081.4	197.05
1051.4754	3225.1549	1079.35	199.35
1051.5771	3226.0746	1078	195.15
1051.6788	3226.9937	1077.75	196.4
1051.7804	3227.9121	1071.95	189.55
1051.8819	3228.83	1072.45	188.5
1051.9834	3229.7473	1077.95	194.6
1052.0849	3230.6639	1076.55	194.05
1052.1863	3231.5799	1068.85	187.6
1052.2876	3232.4954	1070.6	188.8
1052.3889	3233.4102	1071.7	187.75
1052.4902	3234.3244	1066.8	182.95
1052.5914	3235.238	1068.55	186.65
1052.6926	3236.151	1093.4	185.4
1052.7937	3237.0634	1063.75	184.3
1052.8948	3237.9752	1062.5	181
1052.9958	3238.8864	1063.55	181.6
1053.0968	3239.797	1062.25	180.35
1053.1977	3240.7069	1057.1	172.55
1053.2986	3241.6163	1058.65	174.2
1053.3994	3242.5251	1051.25	171.15
1053.5002	3243.4332	1059.8	177.25
1053.6009	3244.3408	1057.3	174.7
1053.7016	3245.2477	1053.95	170.65
1053.8022	3246.154	1055.8	170.75
1053.9028	3247.0598	1052.85	172.9
1054.0034	3247.9649	1052.55	168.2
1054.1039	3248.8694	1049.2	168.2
1054.2043	3249.7733	1046.95	164.3
1054.3047	3250.6766	1049.4	167
1054.4051	3251.5793	1051.35	169.55
1054.5054	3252.4814	1044.45	161.65
1054.6056	3253.3829	1045	163.2
1054.7058	3254.2838	1044.15	161.95
1054.806	3255.1841	1047.3	164.6
1054.9061	3256.0838	1042.05	159.6
1055.0061	3256.9829	1041.05	159.55
1055.1062	3257.8814	1040.4	158.35
1055.2061	3258.7792	1040.5	154.6
1055.306	3259.6765	1041.2	157.6
1055.4059	3260.5731	1033.75	152.4
1055.5057	3261.4692	1033.85	148.7
1055.6055	3262.3647	1031.85	150.1
1055.7052	3263.2595	1029.55	144.75
1055.8049	3264.1538	1027.8	147.55
1055.9045	3265.0474	1024.3	141.65
1056.0041	3265.9404	1020.55	136.5
1056.1036	3266.8329	1022.15	141.15
1056.2031	3267.7247	1023.5	130.9
1056.3025	3268.616	1017.05	133.35
1056.4019	3269.5066	1010.7	130.5
1056.5013	3270.3966	1008.5	124.75
1056.6005	3271.286	1000.8	120.5
