Software Version:	3.9.2.0
Unit SN:	10000200
Spectrometer SN:	6960
Date:	3/26/2024 12:58:57 PM
Data Line Index:	25
Spectral Points:	2048
Integration time (ms):	125
Averages:	20
Delay (ms):	30000
Sequence Number:	1
Processing:	dark subtract
Laser Power (mW):	300
Laser Current (mA):	817
Laser Diode Temp (C):	25.1
Laser Case Temp (C):	25.4
System Temp (C):	25.4
Spectrometer Temp (C):	23.2
CCD Temp (C):	0.019
Secondary Temp (C):	20.026
Heatsink Temp (C):	21.392
CCDPCB Temp (C):	35.451
SecondaryPCB Temp (C):	28.537

Wavelength	RamanShift	Raw Counts	Dark Subtracted
787.061	30.1047	423.6	11.95
787.2016	32.3739	423.85	15.35
787.3422	34.6426	424.35	13.95
787.4828	36.9109	428.05	17.1
787.6235	39.1787	432.75	16.95
787.7642	41.4461	438	17.4
787.9049	43.7131	441.9	18.15
788.0456	45.9796	445.6	18.75
788.1863	48.2456	451.65	20.15
788.3271	50.5112	457.05	20.6
788.4679	52.7764	459.4	23
788.6087	55.0411	464.8	23.15
788.7496	57.3054	469.6	25.05
788.8904	59.5692	472.1	26.5
789.0313	61.8326	479.25	28
789.1722	64.0955	485.3	28.95
789.3132	66.3579	494.55	32.5
789.4541	68.6199	499.4	34.75
789.5951	70.8815	507.35	40
789.7361	73.1426	533.9	66.05
789.8771	75.4032	577.95	104.05
790.0181	77.6634	680.35	202.1
790.1592	79.9231	924.25	441.6
790.3003	82.1824	1441.1	954.2
790.4414	84.4412	2310.85	1818.6
790.5825	86.6995	3460.2	2961.7
790.7237	88.9574	4595.95	4092.3
790.8648	91.2148	5432.75	4926.2
791.006	93.4717	5875.4	5362.55
791.1472	95.7282	6011.95	5497
791.2885	97.9842	6087.15	5570.05
791.4297	100.2398	6054.9	5536.65
791.571	102.4949	6028.4	5504.05
791.7123	104.7495	6014.05	5485.2
791.8536	107.0036	5972.2	5444.15
791.9949	109.2573	5920.1	5395.5
792.1363	111.5105	5872.55	5344.05
792.2777	113.7632	5809.65	5277
792.4191	116.0154	5731.15	5189.2
792.5605	118.2672	5700.85	5165.25
792.7019	120.5185	5607.1	5070.65
792.8434	122.7693	5544.6	5008.1
792.9849	125.0197	5480.3	4938.05
793.1264	127.2696	5405.3	4862.8
793.2679	129.519	5401.4	4854.3
793.4094	131.7679	5363.7	4814.8
793.551	134.0163	5344.45	4792.3
793.6926	136.2642	5323.15	4764.45
793.8342	138.5117	5322.5	4752.1
793.9758	140.7587	5302.15	4739
794.1175	143.0052	5287.05	4722.7
794.2591	145.2512	5247.1	4682.25
794.4008	147.4967	5203.2	4637.15
794.5425	149.7417	5150.95	4582.6
794.6842	151.9863	5113.95	4543.55
794.826	154.2304	5101.55	4524
794.9677	156.4739	5078.45	4499.25
795.1095	158.717	5092.45	4511.7
795.2513	160.9596	5110.2	4523.5
795.3931	163.2017	5113.7	4526.35
795.535	165.4433	5127.35	4536.85
795.6768	167.6844	5120.45	4531.45
795.8187	169.925	5122.7	4528.05
795.9606	172.1651	5045.5	4447.25
796.1025	174.4047	5009.2	4405.9
796.2445	176.6439	4986.2	4381.9
796.3864	178.8825	4954.95	4347.65
796.5284	181.1206	4937.3	4327.8
796.6704	183.3582	4925.8	4312.65
796.8124	185.5954	4916.8	4300.6
796.9544	187.832	4907.15	4287.7
797.0965	190.0681	4932.5	4311.15
797.2386	192.3037	4912.15	4287.75
797.3806	194.5388	4923.85	4295.55
797.5228	196.7734	4919	4289.65
797.6649	199.0075	4952.05	4315.9
797.807	201.2411	4983.6	4346.85
797.9492	203.4742	4967.2	4330.35
798.0914	205.7068	4992.8	4356
798.2336	207.9389	5001.7	4361.85
798.3758	210.1704	5026.1	4383.6
798.518	212.4015	5035.1	4390.7
798.6603	214.632	5029.55	4386.05
798.8025	216.862	5023.6	4385.65
798.9448	219.0915	5025.65	4395.65
799.0871	221.3205	5038	4409.05
799.2294	223.549	5041.35	4417.3
799.3718	225.777	5022.35	4397.45
799.5141	228.0044	5030.55	4400.95
799.6565	230.2314	5017.55	4392.65
799.7989	232.4578	4992.2	4364.35
799.9413	234.6837	5015.65	4379.75
800.0837	236.909	4998.75	4361.15
800.2262	239.1339	5000.25	4336.9
800.3687	241.3582	4987.45	4340.6
800.5111	243.582	4995.8	4316.4
800.6536	245.8053	4969.85	4305.8
800.7961	248.0281	4978.7	4317.35
800.9387	250.2503	5011.15	4345.4
801.0812	252.472	5007.35	4338.55
801.2238	254.6932	4983.6	4310.45
801.3664	256.9139	4988.1	4310.8
801.509	259.134	5005.45	4325.25
801.6516	261.3536	4985	4309.6
801.7942	263.5727	5040.1	4360.55
801.9369	265.7912	5057.05	4377.7
802.0795	268.0092	5108.3	4428.75
802.2222	270.2267	5159.85	4478.9
802.3649	272.4436	5175.1	4492.8
802.5076	274.6601	5199.3	4508.75
802.6504	276.8759	5204.3	4519.65
802.7931	279.0913	5219.95	4530.2
802.9359	281.3061	5223.95	4535.45
803.0787	283.5204	5272.15	4582.15
803.2215	285.7341	5291.5	4598.05
803.3643	287.9473	5332.65	4628.5
803.5071	290.16	5334.25	4632.4
803.6499	292.3721	5275.85	4579.7
803.7928	294.5837	5239.55	4543.45
803.9357	296.7947	5201.95	4504.8
804.0786	299.0052	5202.35	4505.35
804.2215	301.2152	5156.5	4457.65
804.3644	303.4246	5154.5	4458.85
804.5074	305.6334	5140.25	4443.45
804.6503	307.8418	5132.55	4430.9
804.7933	310.0495	5124.55	4422.85
804.9363	312.2568	5096.35	4396.8
805.0793	314.4635	5048.4	4345.85
805.2223	316.6696	5007.75	4302.5
805.3653	318.8752	4967.75	4253.5
805.5084	321.0802	4932.6	4227.75
805.6514	323.2847	4927.9	4217.95
805.7945	325.4887	4911.9	4201.8
805.9376	327.692	4908	4198.2
806.0807	329.8949	4973.15	4260.95
806.2238	332.0972	4981.6	4267.3
806.367	334.2989	5033	4314.4
806.5101	336.5001	5038.35	4319.15
806.6533	338.7007	5036.45	4320.25
806.7965	340.9008	4998.65	4278.5
806.9397	343.1003	4929.8	4208
807.0829	345.2992	4900.85	4177.25
807.2261	347.4976	4858.1	4132.35
807.3693	349.6955	4811.7	4083.65
807.5126	351.8927	4808	4078.85
807.6559	354.0895	4788.7	4048.4
807.7991	356.2856	4784.8	4053.25
807.9424	358.4812	4762.85	4031.3
808.0857	360.6763	4780.55	4049.05
808.2291	362.8707	4746.2	4014.15
808.3724	365.0646	4753.85	4016.75
808.5158	367.258	4761.9	4024.15
808.6591	369.4508	4771.85	4030.4
808.8025	371.643	4779	4035.95
808.9459	373.8346	4794.65	4048.55
809.0893	376.0257	4846.2	4097
809.2327	378.2162	4887.5	4137.65
809.3762	380.4062	4892.95	4142.55
809.5196	382.5956	4869.9	4121
809.6631	384.7844	4825.65	4076.5
809.8066	386.9726	4761.55	4009.8
809.9501	389.1603	4733.65	3980.2
810.0936	391.3474	4738.35	3944.8
810.2371	393.5339	4721.25	3969.4
810.3806	395.7199	4694.45	3948.35
810.5241	397.9052	4705.95	3960.85
810.6677	400.09	4731.6	3986.75
810.8113	402.2743	4783.6	4040.05
810.9548	404.4579	4800	4056.85
811.0984	406.641	4838.35	4093.3
811.2421	408.8235	4884.85	4139.2
811.3857	411.0054	4930.9	4183.7
811.5293	413.1868	5045.8	4295.5
811.673	415.3675	5141.75	4389.55
811.8166	417.5477	5204.2	4449.95
811.9603	419.7273	5131.8	4374.65
812.104	421.9064	4977.05	4214.3
812.2477	424.0848	4878.15	4116
812.3914	426.2627	4820.95	4057.6
812.5351	428.4399	4764.5	4002.55
812.6788	430.6166	4708.9	3941.3
812.8226	432.7928	4670.65	3900
812.9663	434.9683	4610.55	3840.85
813.1101	437.1432	4606.35	3835.25
813.2539	439.3176	4576.7	3804.9
813.3977	441.4914	4534.15	3760.65
813.5415	443.6645	4557.35	3783.2
813.6853	445.8371	4547.3	3772.5
813.8291	448.0091	4540.05	3766.65
813.973	450.1806	4548.7	3776.05
814.1168	452.3514	4503.2	3725.9
814.2607	454.5216	4523.85	3738.45
814.4046	456.6913	4484.5	3703.45
814.5485	458.8603	4502.95	3725.1
814.6924	461.0288	4507.15	3729.5
814.8363	463.1967	4496.5	3717.15
814.9802	465.3639	4495.1	3716.4
815.1241	467.5306	4501.2	3719.7
815.2681	469.6967	4469.9	3688.1
815.412	471.8622	4471.3	3691.8
815.556	474.0271	4485.4	3701.55
815.7	476.1914	4455.7	3667.95
815.844	478.3551	4456.6	3674.15
815.988	480.5182	4470.55	3686.85
816.132	482.6807	4478.4	3692.6
816.276	484.8426	4491.9	3709.75
816.4201	487.0039	4523.7	3739.75
816.5641	489.1647	4577.4	3790.05
816.7082	491.3248	4586.55	3798.55
816.8522	493.4843	4609.8	3823.2
816.9963	495.6432	4614.2	3828
817.1404	497.8015	4573.2	3782.45
817.2845	499.9592	4560	3770.45
817.4286	502.1163	4509.75	3718.85
817.5727	504.2728	4469.45	3679.9
817.7168	506.4287	4455.65	3664.8
817.861	508.5839	4436.45	3644.65
818.0051	510.7386	4424.4	3634.15
818.1493	512.8927	4432.5	3632.5
818.2935	515.0461	4439.4	3643.9
818.4377	517.199	4449.95	3654.85
818.5818	519.3512	4468.6	3675.05
818.726	521.5029	4528.1	3728.4
818.8703	523.6539	4565.55	3768.05
819.0145	525.8043	4604.65	3807.4
819.1587	527.9541	4556.55	3757.05
819.303	530.1033	4513.1	3713.85
819.4472	532.2519	4467.65	3667.6
819.5915	534.3999	4435.7	3634.85
819.7357	536.5472	4414.9	3615.4
819.88	538.694	4421.7	3621.1
820.0243	540.8401	4440.65	3636.85
820.1686	542.9856	4459.9	3656.15
820.3129	545.1305	4468.9	3664
820.4572	547.2748	4475.75	3670.3
820.6016	549.4185	4500.7	3693.15
820.7459	551.5615	4484.1	3677.95
820.8902	553.704	4510.7	3702.25
821.0346	555.8458	4517.55	3712.45
821.1789	557.987	4520.25	3713.8
821.3233	560.1276	4551.55	3742.6
821.4677	562.2675	4599.4	3793.95
821.6121	564.4069	4656.5	3849.5
821.7565	566.5456	4687.3	3879.75
821.9009	568.6837	4711.85	3905.85
822.0453	570.8212	4642.8	3836.5
822.1897	572.958	4555.95	3744.35
822.3342	575.0942	4516	3709.2
822.4786	577.2299	4484.95	3675.8
822.6231	579.3648	4445.65	3636.9
822.7675	581.4992	4391.2	3581.75
822.912	583.6329	4389.85	3583.1
823.0565	585.766	4413.05	3604.95
823.201	587.8985	4446.6	3636.95
823.3454	590.0304	4476.7	3652.85
823.4899	592.1616	4506.7	3692.15
823.6345	594.2922	4516.5	3703.6
823.779	596.4222	4479.6	3666.2
823.9235	598.5515	4441.9	3626
824.068	600.6802	4383.9	3569.45
824.2126	602.8083	4329.9	3513.25
824.3571	604.9358	4313.85	3496.3
824.5017	607.0626	4298.75	3480.9
824.6462	609.1888	4311.45	3492.55
824.7908	611.3144	4332.3	3510.85
824.9354	613.4393	4343.15	3524.75
825.08	615.5636	4380.95	3561.35
825.2246	617.6873	4435.05	3616.65
825.3692	619.8103	4479.5	3659.9
825.5138	621.9327	4486.55	3662.85
825.6584	624.0544	4470.55	3650
825.803	626.1756	4406.95	3588
825.9477	628.2961	4360.85	3539.9
826.0923	630.4159	4333.8	3512.25
826.237	632.5351	4340.35	3516.45
826.3816	634.6537	4318.05	3495.9
826.5263	636.7716	4304.2	3478.15
826.6709	638.8889	4305.4	3481.9
826.8156	641.0056	4313.15	3490.8
826.9603	643.1216	4321.2	3496.05
827.105	645.237	4347.05	3520.45
827.2497	647.3518	4314.1	3486.65
827.3944	649.4659	4303.1	3478.45
827.5391	651.5793	4283.95	3458.55
827.6838	653.6922	4253.8	3427.35
827.8285	655.8043	4247.1	3420.2
827.9733	657.9159	4259.15	3432.05
828.118	660.0268	4215.95	3385.75
828.2627	662.137	4222.85	3395.05
828.4075	664.2466	4230.6	3400.1
828.5522	666.3556	4229.15	3398.8
828.697	668.4639	4216.45	3383.65
828.8418	670.5716	4196.4	3368.35
828.9865	672.6786	4201.3	3373
829.1313	674.785	4183.25	3352.35
829.2761	676.8907	4172.65	3340.45
829.4209	678.9958	4183.8	3353.2
829.5657	681.1002	4175.6	3343.05
829.7105	683.204	4183.05	3347
829.8553	685.3072	4166.45	3333.55
830.0001	687.4097	4169.65	3338
830.1449	689.5115	4173.4	3338.15
830.2898	691.6127	4169.2	3336.7
830.4346	693.7132	4152.05	3319.85
830.5794	695.8131	4168.55	3318.1
830.7243	697.9123	4160.45	3322.8
830.8691	700.0109	4158.15	3319.75
831.014	702.1089	4157.5	3321.35
831.1588	704.2061	4165.6	3329.8
831.3037	706.3028	4188.15	3349.7
831.4486	708.3987	4215.55	3379.1
831.5935	710.4941	4223.65	3385.8
831.7383	712.5887	4234.55	3396.05
831.8832	714.6827	4233.3	3391.95
832.0281	716.7761	4224.9	3388.65
832.173	718.8688	4200.9	3361.8
832.3179	720.9608	4199.25	3358
832.4628	723.0522	4202.95	3361.1
832.6077	725.1429	4207.3	3367.6
832.7527	727.233	4243.2	3405.6
832.8976	729.3224	4298.6	3458.6
833.0425	731.4112	4349.6	3508.45
833.1874	733.4993	4377.5	3535.2
833.3324	735.5867	4354.9	3509.75
833.4773	737.6735	4277.85	3432.8
833.6222	739.7596	4227.15	3384.05
833.7672	741.845	4205	3362.55
833.9122	743.9298	4196.55	3352.85
834.0571	746.014	4206.85	3366.05
834.2021	748.0974	4231	3387
834.347	750.1802	4217.3	3372.85
834.492	752.2624	4191.1	3346.65
834.637	754.3439	4176.7	3330.35
834.782	756.4247	4162.2	3307.3
834.9269	758.5048	4134.75	3291.55
835.0719	760.5843	4130.7	3284.15
835.2169	762.6631	4148.45	3301.1
835.3619	764.7413	4173.8	3328.2
835.5069	766.8188	4237.45	3390.4
835.6519	768.8956	4290.8	3442.75
835.7969	770.9718	4341	3493.7
835.9419	773.0473	4332.9	3486.75
836.0869	775.1221	4302.95	3454.75
836.232	777.1962	4273.15	3426.6
836.377	779.2697	4312.8	3464.45
836.522	781.3426	4406.2	3540.75
836.667	783.4147	4470.9	3622.1
836.8121	785.4862	4470.95	3624
836.9571	787.557	4395.85	3547.1
837.1021	789.6271	4299.8	3451.1
837.2472	791.6966	4192.15	3343.2
837.3922	793.7654	4079.05	3229.2
837.5373	795.8335	4027.85	3177.05
837.6823	797.901	3988.8	3139.7
837.8274	799.9678	3978.15	3127
837.9724	802.0339	3961.1	3111.75
838.1175	804.0993	3967.25	3106.95
838.2626	806.1641	3963.15	3109.3
838.4076	808.2282	3951	3100.65
838.5527	810.2916	3939.5	3084.25
838.6978	812.3544	3912.45	3063.8
838.8428	814.4164	3895.3	3044.35
838.9879	816.4778	3888.5	3036.95
839.133	818.5385	3908.7	3054.85
839.2781	820.5986	3927.55	3076.65
839.4232	822.658	3973.65	3118.35
839.5682	824.7166	4009.1	3158
839.7133	826.7747	4082.65	3229.5
839.8584	828.832	4144.15	3293.05
840.0035	830.8886	4187.7	3332.4
840.1486	832.9446	4209	3356.85
840.2937	834.9999	4179.25	3327.45
840.4388	837.0545	4136.25	3278.55
840.5839	839.1085	4066.95	3211.45
840.729	841.1618	3996.95	3141.25
840.8741	843.2143	3925.75	3074.15
841.0192	845.2662	3897.75	3043.6
841.1643	847.3175	3884.25	3031.45
841.3095	849.368	3860.05	3005
841.4546	851.4179	3854.05	2998.3
841.5997	853.467	3835.3	2980.1
841.7448	855.5155	3841.35	2985.25
841.8899	857.5633	3842.25	2987.8
842.0351	859.6105	3837.75	2982.35
842.1802	861.6569	3831.1	2976.7
842.3253	863.7027	3809.05	2952.8
842.4704	865.7478	3779.75	2923.7
842.6156	867.7922	3763.2	2906.05
842.7607	869.8359	3755.7	2898.65
842.9058	871.8789	3751.1	2891.3
843.0509	873.9212	3777.75	2889.05
843.1961	875.9629	3749.65	2894.5
843.3412	878.0039	3754.45	2896.9
843.4863	880.0441	3770.15	2913.6
843.6315	882.0837	3781.7	2921.95
843.7766	884.1226	3784.6	2924.9
843.9218	886.1609	3805.2	2947
844.0669	888.1984	3850.35	2992.4
844.212	890.2352	3883.25	3026
844.3572	892.2714	3903.45	3042.5
844.5023	894.3069	3885.8	3027
844.6475	896.3416	3821.7	2963.8
844.7926	898.3757	3786.2	2926.9
844.9377	900.4091	3758.35	2899.9
845.0829	902.4418	3755.95	2892.6
845.228	904.4739	3770.1	2907.8
845.3732	906.5052	3770.05	2908.6
845.5183	908.5358	3776.7	2915.9
845.6635	910.5658	3761	2898.65
845.8086	912.595	3725.2	2865.3
845.9538	914.6236	3701	2839.85
846.0989	916.6515	3662.05	2801.65
846.2441	918.6786	3638.1	2774.65
846.3892	920.7051	3631.4	2766.55
846.5344	922.7309	3624.65	2761.8
846.6795	924.756	3618.45	2756.2
846.8246	926.7804	3616.15	2750.35
846.9698	928.8041	3602.35	2737.2
847.1149	930.8272	3626.95	2766.2
847.2601	932.8495	3624.45	2762.3
847.4052	934.8711	3631.65	2768.05
847.5504	936.892	3596.6	2736.15
847.6955	938.9123	3609.9	2745.1
847.8407	940.9318	3630.5	2768.15
847.9858	942.9506	3651.65	2786.45
848.131	944.9688	3642.6	2778.2
848.2761	946.9862	3628.4	2764.35
848.4213	949.003	3586.05	2722.85
848.5664	951.019	3557	2693.4
848.7115	953.0344	3553.1	2690.55
848.8567	955.0491	3514.3	2649.45
849.0018	957.063	3495.1	2630.7
849.147	959.0763	3503.75	2633.7
849.2921	961.0888	3492.45	2626.85
849.4373	963.1007	3492.8	2628.35
849.5824	965.1119	3480.45	2616.6
849.7275	967.1223	3472.6	2608.15
849.8727	969.1321	3457.85	2592.5
850.0178	971.1412	3450.3	2586.1
850.1629	973.1495	3435.65	2569.5
850.3081	975.1572	3465.35	2551.15
850.4532	977.1641	3444.2	2577.65
850.5983	979.1704	3425.55	2559.2
850.7435	981.1759	3422.7	2553.05
850.8886	983.1808	3414	2546.7
851.0337	985.1849	3400.25	2520.35
851.1788	987.1884	3386.05	2515.5
851.324	989.1911	3376.35	2506.3
851.4691	991.1932	3396.8	2528.85
851.6142	993.1945	3383.1	2517.2
851.7593	995.1951	3371.45	2503.45
851.9045	997.1951	3371.9	2497.25
852.0496	999.1943	3353.4	2486.15
852.1947	1001.1928	3344.75	2475.15
852.3398	1003.1906	3340.25	2471.85
852.4849	1005.1877	3349.05	2479.15
852.63	1007.1841	3374.45	2506.6
852.7751	1009.1798	3371.35	2502.8
852.9202	1011.1748	3352.05	2485.05
853.0653	1013.1691	3339.7	2471.95
853.2104	1015.1627	3299.25	2431.75
853.3555	1017.1556	3264.8	2394.8
853.5006	1019.1477	3243.95	2375.3
853.6457	1021.1392	3213.8	2347.85
853.7908	1023.1299	3212	2343.05
853.9359	1025.12	3195.3	2325.2
854.081	1027.1093	3192.7	2325.95
854.2261	1029.0979	3199.05	2333.1
854.3712	1031.0859	3209.65	2342.9
854.5163	1033.0731	3214.85	2345.3
854.6613	1035.0596	3210.1	2339.85
854.8064	1037.0454	3192.2	2322.2
854.9515	1039.0304	3188.3	2319.1
855.0965	1041.0148	3160.75	2291.9
855.2416	1042.9985	3133	2260.9
855.3867	1044.9814	3108.4	2238.7
855.5317	1046.9636	3098.55	2226
855.6768	1048.9452	3098.1	2229.2
855.8219	1050.926	3098.55	2229.6
855.9669	1052.9061	3122.65	2253.15
856.112	1054.8855	3105.85	2236.5
856.257	1056.8642	3116.7	2247.05
856.4021	1058.8421	3105.75	2230.1
856.5471	1060.8194	3104.35	2231.45
856.6921	1062.7959	3100	2228.8
856.8372	1064.7717	3085.6	2212.15
856.9822	1066.7469	3069.55	2196
857.1272	1068.7213	3070.1	2196.25
857.2723	1070.695	3080.2	2210.55
857.4173	1072.6679	3089.7	2216.95
857.5623	1074.6402	3105	2232.8
857.7073	1076.6117	3128.3	2250.75
857.8523	1078.5826	3108.3	2236.5
857.9973	1080.5527	3069.65	2195.7
858.1423	1082.5221	3036.8	2165
858.2873	1084.4908	2992.65	2121.1
858.4323	1086.4587	2980	2108.8
858.5773	1088.426	2971.05	2097.95
858.7223	1090.3925	2972.5	2096.25
858.8673	1092.3584	2965.1	2094.75
859.0123	1094.3235	2957.35	2086.45
859.1573	1096.2879	2960.6	2087.75
859.3022	1098.2515	2979.45	2105.2
859.4472	1100.2145	3000.4	2129.3
859.5922	1102.1767	3009.8	2134.2
859.7371	1104.1382	3049	2177.8
859.8821	1106.099	3084.9	2208.5
860.027	1108.0591	3125.5	2250.95
860.172	1110.0185	3160	2284.55
860.3169	1111.9771	3165.65	2292.65
860.4619	1113.9351	3214.25	2340.15
860.6068	1115.8923	3262.1	2389.1
860.7517	1117.8488	3305.75	2430.05
860.8967	1119.8045	3276.7	2403.35
861.0416	1121.7596	3189	2314.2
861.1865	1123.7139	3085.25	2211.7
861.3314	1125.6675	3026.25	2152.65
861.4763	1127.6204	3015.55	2141.35
861.6212	1129.5726	3014.2	2137.6
861.7661	1131.524	3018.3	2144.8
861.911	1133.4748	3006.25	2130
862.0559	1135.4248	2952.3	2075.35
862.2008	1137.3741	2896.4	2021.1
862.3457	1139.3226	2856.65	1979.4
862.4905	1141.2705	2867.75	1991.45
862.6354	1143.2176	2861.65	1981.05
862.7803	1145.164	2859.3	1982.85
862.9251	1147.1097	2877.95	2005.15
863.07	1149.0546	2860.55	1986.15
863.2148	1150.9989	2821.65	1944.9
863.3597	1152.9424	2807.4	1931.4
863.5045	1154.8852	2775.35	1899.7
863.6493	1156.8272	2776.05	1901
863.7942	1158.7686	2778.9	1895.55
863.939	1160.7092	2754.75	1879.4
864.0838	1162.6491	2757.45	1881.45
864.2286	1164.5883	2757.3	1881.4
864.3734	1166.5267	2762.9	1886.7
864.5182	1168.4644	2786	1909.2
864.663	1170.4014	2809.45	1926.15
864.8078	1172.3377	2836.25	1962.9
864.9526	1174.2732	2867.9	1992.15
865.0974	1176.2081	2921.3	2044.9
865.2421	1178.1421	3022.15	2141.05
865.3869	1180.0755	3136.1	2260.3
865.5317	1182.0082	3228.15	2351.45
865.6764	1183.9401	3235.8	2358.75
865.8212	1185.8713	3148.9	2271.5
865.9659	1187.8017	3030.55	2156.2
866.1106	1189.7315	2943.6	2068.3
866.2554	1191.6605	2847.25	1972.1
866.4001	1193.5888	2789.9	1912.9
866.5448	1195.5163	2765.8	1889.4
866.6895	1197.4432	2719.4	1841.1
866.8342	1199.3693	2704.8	1829.75
866.9789	1201.2947	2686.1	1800.8
867.1236	1203.2193	2664.55	1787.75
867.2683	1205.1432	2659.55	1781.7
867.413	1207.0664	2654.9	1777.4
867.5576	1208.9889	2650.25	1768.5
867.7023	1210.9106	2638.8	1760.45
867.847	1212.8316	2638.45	1761.2
867.9916	1214.7519	2658.1	1771.75
868.1363	1216.6715	2645.75	1768.95
868.2809	1218.5903	2648.25	1773.55
868.4255	1220.5084	2653.35	1775.6
868.5701	1222.4257	2667.9	1791.5
868.7148	1224.3424	2675.15	1799.35
868.8594	1226.2583	2696.65	1812.85
869.004	1228.1735	2698.5	1819.85
869.1486	1230.0879	2719.25	1839.75
869.2932	1232.0016	2748.9	1871.2
869.4377	1233.9146	2782.15	1903.4
869.5823	1235.8269	2786.2	1907.3
869.7269	1237.7384	2794.2	1915.35
869.8715	1239.6492	2779.55	1901.95
870.016	1241.5592	2786.95	1907
870.1606	1243.4686	2800	1923.3
870.3051	1245.3772	2861.75	1984
870.4496	1247.285	2929.35	2052.05
870.5941	1249.1922	2995	2115.85
870.7387	1251.0986	3059.65	2183.85
870.8832	1253.0042	3120.95	2240.45
871.0277	1254.9092	3188.7	2310.85
871.1722	1256.8134	3262.55	2385.55
871.3167	1258.7169	3351.5	2471.2
871.4611	1260.6196	3431.2	2553.4
871.6056	1262.5216	3465.4	2584.35
871.7501	1264.4229	3484.3	2606.15
871.8945	1266.3234	3450.15	2571.15
872.039	1268.2232	3416.85	2537.65
872.1834	1270.1223	3334.25	2454.25
872.3278	1272.0207	3281.45	2401.65
872.4723	1273.9183	3272.1	2386.55
872.6167	1275.8151	3257	2377.75
872.7611	1277.7113	3274.9	2395.7
872.9055	1279.6067	3336.85	2457.95
873.0499	1281.5014	3458.45	2576.2
873.1943	1283.3953	3630.95	2749.75
873.3386	1285.2885	3807.45	2928.05
873.483	1287.181	3974.2	3093.8
873.6274	1289.0727	4060.25	3182.4
873.7717	1290.9637	4006.55	3128.3
873.9161	1292.854	3906.5	3024.8
874.0604	1294.7435	3765.85	2884.85
874.2047	1296.6323	3625.55	2745.25
874.349	1298.5204	3525.45	2641.5
874.4933	1300.4077	3426.35	2546.25
874.6376	1302.2943	3379.7	2497.7
874.7819	1304.1802	3337.65	2458.35
874.9262	1306.0653	3306.05	2423.6
875.0705	1307.9497	3259.55	2379.65
875.2147	1309.8333	3238.35	2358.85
875.359	1311.7162	3234.1	2354.5
875.5032	1313.5984	3198.5	2314.45
875.6475	1315.4798	3205.4	2305.35
875.7917	1317.3605	3186.1	2296.8
875.9359	1319.2405	3210	2327.55
876.0801	1321.1197	3190.35	2306.65
876.2243	1322.9982	3192	2307.5
876.3685	1324.876	3145.1	2264.8
876.5127	1326.753	3069.5	2189.15
876.6569	1328.6293	2981.3	2097.85
876.801	1330.5048	2890.9	2008.9
876.9452	1332.3796	2803.05	1923.65
877.0893	1334.2537	2769.35	1866.9
877.2335	1336.127	2692.1	1811.9
877.3776	1337.9996	2664.9	1783.5
877.5217	1339.8714	2631.6	1748.3
877.6658	1341.7426	2645.2	1718.7
877.8099	1343.6129	2600.35	1718.9
877.954	1345.4826	2565.85	1685.15
878.0981	1347.3515	2554	1670.7
878.2422	1349.2196	2538.6	1656.9
878.3862	1351.087	2529.3	1648.3
878.5303	1352.9537	2524.4	1642.65
878.6743	1354.8197	2527.55	1645.4
878.8184	1356.6849	2534.25	1653.6
878.9624	1358.5493	2536.7	1654.35
879.1064	1360.4131	2555.1	1674.9
879.2504	1362.276	2585.25	1705.15
879.3944	1364.1383	2616.45	1737.05
879.5384	1365.9998	2638.95	1752.55
879.6823	1367.8606	2624.2	1742.35
879.8263	1369.7206	2614.5	1732.5
879.9702	1371.5799	2600.05	1716.55
880.1142	1373.4384	2609.55	1727.35
880.2581	1375.2962	2581.45	1697.45
880.402	1377.1533	2534.3	1652.35
880.5459	1379.0096	2485.75	1604.55
880.6898	1380.8652	2466.25	1585.45
880.8337	1382.7201	2422.95	1542
880.9776	1384.5742	2401.3	1520.65
881.1215	1386.4275	2376.75	1493.05
881.2653	1388.2802	2360	1481.05
881.4092	1390.132	2345.7	1463.95
881.553	1391.9832	2329.7	1446.45
881.6968	1393.8336	2316.9	1433.9
881.8406	1395.6832	2313.25	1429.35
881.9844	1397.5322	2302.9	1419.3
882.1282	1399.3803	2299.5	1413.15
882.272	1401.2278	2290.1	1407.7
882.4158	1403.0745	2273.2	1391.75
882.5595	1404.9204	2251.5	1369.25
882.7033	1406.7656	2250.8	1368.85
882.847	1408.6101	2245.2	1361.55
882.9908	1410.4538	2234.45	1351.15
883.1345	1412.2968	2235.2	1350.4
883.2782	1414.139	2242.15	1359.85
883.4219	1415.9805	2232.35	1350.5
883.5656	1417.8213	2248.85	1346.2
883.7092	1419.6613	2248	1365.8
883.8529	1421.5006	2269.6	1385.1
883.9965	1423.3391	2301.8	1417.6
884.1402	1425.1769	2338.85	1457.3
884.2838	1427.0139	2397.6	1514.55
884.4274	1428.8502	2478.75	1595.1
884.571	1430.6858	2541.5	1658.9
884.7146	1432.5206	2556.05	1672.65
884.8582	1434.3547	2566.15	1682.6
885.0018	1436.188	2539.5	1656.7
885.1453	1438.0206	2517.75	1636.65
885.2889	1439.8524	2503	1620.5
885.4324	1441.6835	2510.35	1627.1
885.5759	1443.5139	2499.5	1612.35
885.7194	1445.3435	2505.05	1621.75
885.8629	1447.1724	2506.55	1622.85
886.0064	1449.0005	2509.65	1626.7
886.1499	1450.8279	2493.3	1609.9
886.2933	1452.6545	2491.55	1609.1
886.4368	1454.4804	2490.25	1608.7
886.5802	1456.3056	2488.95	1598.15
886.7237	1458.13	2463.55	1580.6
886.8671	1459.9536	2443.15	1559.15
887.0105	1461.7766	2405.3	1523.5
887.1539	1463.5987	2371.7	1487.55
887.2972	1465.4202	2348.9	1464.85
887.4406	1467.2409	2299.85	1415.7
887.584	1469.0608	2273.75	1389.25
887.7273	1470.88	2244.9	1362.35
887.8706	1472.6984	2209.95	1328
888.0139	1474.5161	2197.25	1309.5
888.1572	1476.3331	2166.15	1283.8
888.3005	1478.1493	2168.35	1283.75
888.4438	1479.9648	2160.15	1278.85
888.5871	1481.7795	2152.45	1266.2
888.7303	1483.5935	2149.9	1267.05
888.8736	1485.4067	2153.35	1268.3
889.0168	1487.2192	2157.85	1273.95
889.16	1489.031	2155.75	1270.2
889.3032	1490.842	2157.9	1272.95
889.4464	1492.6522	2151.2	1269.1
889.5896	1494.4618	2153.75	1271.25
889.7327	1496.2705	2146.15	1261.15
889.8759	1498.0785	2148.5	1263.95
890.019	1499.8858	2131.9	1247.9
890.1622	1501.6924	2130.1	1247.25
890.3053	1503.4981	2117	1234.7
890.4484	1505.3032	2107.95	1222.55
890.5914	1507.1075	2103.1	1219.2
890.7345	1508.911	2104.25	1218.95
890.8776	1510.7138	2100.15	1216.05
891.0206	1512.5159	2077.95	1192.45
891.1637	1514.3172	2072	1190.95
891.3067	1516.1178	2065.75	1184.7
891.4497	1517.9176	2065.25	1178.55
891.5927	1519.7166	2060.8	1177.25
891.7357	1521.515	2059.8	1170.65
891.8786	1523.3126	2038.3	1153.65
892.0216	1525.1094	2031.6	1144.15
892.1645	1526.9055	2035.8	1154.6
892.3074	1528.7008	2013.75	1129.55
892.4503	1530.4954	2014.85	1127
892.5932	1532.2893	2005.05	1121
892.7361	1534.0824	2003.4	1115.85
892.879	1535.8747	1994.85	1111.75
893.0218	1537.6663	1995	1110.8
893.1647	1539.4572	1991.5	1104.7
893.3075	1541.2473	1986.9	1101.15
893.4503	1543.0367	1985.1	1101.65
893.5931	1544.8253	1991.9	1105.05
893.7359	1546.6132	1999.85	1113.3
893.8787	1548.4003	1992.95	1100.55
894.0214	1550.1867	2000.85	1106.95
894.1642	1551.9723	2003.1	1113.2
894.3069	1553.7572	1995.95	1111.8
894.4496	1555.5414	2008.45	1124
894.5923	1557.3247	2040.15	1155.6
894.735	1559.1074	2062.1	1178.95
894.8777	1560.8893	2092.1	1211.15
895.0204	1562.6705	2129.7	1243.1
895.163	1564.4509	2157.4	1274.8
895.3056	1566.2305	2163.05	1278.55
895.4482	1568.0094	2175.25	1292.1
895.5908	1569.7876	2174.05	1290.45
895.7334	1571.565	2166.95	1283.4
895.876	1573.3417	2163.35	1279.25
896.0186	1575.1176	2165.9	1281.55
896.1611	1576.8928	2173.1	1289.15
896.3036	1578.6672	2195.3	1313.9
896.4461	1580.4409	2216.7	1333.65
896.5886	1582.2138	2261.1	1375.6
896.7311	1583.986	2290.85	1406.05
896.8736	1585.7575	2328	1446.1
897.0161	1587.5282	2355.45	1470.55
897.1585	1589.2981	2388.4	1504.75
897.3009	1591.0673	2398.35	1513.25
897.4433	1592.8358	2412.65	1529.75
897.5857	1594.6035	2405.3	1518.5
897.7281	1596.3704	2393.7	1509.7
897.8705	1598.1366	2368.75	1486.3
898.0128	1599.9021	2334.2	1450.3
898.1551	1601.6668	2307.85	1421.3
898.2975	1603.4308	2281.7	1395.8
898.4398	1605.194	2282.25	1393.45
898.5821	1606.9564	2280.85	1396.85
898.7243	1608.7182	2333.35	1446.35
898.8666	1610.4791	2396.65	1513.05
899.0088	1612.2394	2492.65	1609.4
899.1511	1613.9988	2593.55	1709.6
899.2933	1615.7576	2710.7	1827.25
899.4355	1617.5156	2764.1	1873.15
899.5776	1619.2728	2749.85	1864.6
899.7198	1621.0293	2675.45	1792.95
899.862	1622.785	2566.6	1680.7
900.0041	1624.54	2440.3	1555.9
900.1462	1626.2942	2331.3	1445.2
900.2883	1628.0477	2219.75	1333.5
900.4304	1629.8005	2128.9	1241.45
900.5725	1631.5525	2057.85	1175.5
900.7145	1633.3037	2004.1	1120.6
900.8566	1635.0542	1957.25	1072.95
900.9986	1636.804	1921.25	1036.85
901.1406	1638.553	1946.55	1010.95
901.2826	1640.3013	1874.4	989.35
901.4245	1642.0488	1853.8	969.55
901.5665	1643.7955	1841.3	959.9
901.7085	1645.5416	1818.7	933.25
901.8504	1647.2868	1805.05	921.1
901.9923	1649.0313	1802.55	917.55
902.1342	1650.7751	1790.75	904.9
902.2761	1652.5181	1787.65	904.25
902.4179	1654.2604	1793.2	908.05
902.5598	1656.0019	1788.95	906.8
902.7016	1657.7427	1795.1	910.55
902.8434	1659.4828	1812.25	929.5
902.9852	1661.222	1829.05	943.35
903.127	1662.9606	1864	983.05
903.2687	1664.6984	1890.85	1004.9
903.4105	1666.4354	1919.25	1034.9
903.5522	1668.1717	1909.25	1024.1
903.6939	1669.9072	1873.7	988.55
903.8356	1671.642	1836.1	950.05
903.9773	1673.3761	1787.75	904.2
904.119	1675.1094	1753.65	870.55
904.2606	1676.8419	1736.05	852.65
904.4022	1678.5737	1716.45	831.9
904.5439	1680.3048	1697.8	811.95
904.6855	1682.0351	1675.45	790.95
904.827	1683.7646	1681.95	795.4
904.9686	1685.4934	1676.8	793.1
905.1101	1687.2215	1663.6	777.9
905.2517	1688.9488	1668.1	784.15
905.3932	1690.6754	1651.65	767.6
905.5347	1692.4012	1651.45	766.8
905.6761	1694.1263	1642.65	761
905.8176	1695.8506	1641.7	757.5
905.9591	1697.5742	1634.6	752.4
906.1005	1699.297	1627.7	744.05
906.2419	1701.0191	1630.4	745.7
906.3833	1702.7404	1623.5	741
906.5246	1704.461	1619.85	733.8
906.666	1706.1808	1611.55	727.95
906.8073	1707.8999	1609.6	724.4
906.9487	1709.6182	1611.5	727.35
907.09	1711.3358	1606.15	721.9
907.2313	1713.0527	1603.15	721.15
907.3725	1714.7688	1601.95	710.85
907.5138	1716.4841	1597.15	710.95
907.655	1718.1987	1591.45	701.8
907.7962	1719.9126	1588	705.85
907.9374	1721.6257	1592	705.15
908.0786	1723.338	1589.55	705
908.2198	1725.0496	1585.9	701.3
908.3609	1726.7605	1586.85	703
908.502	1728.4706	1583.9	698.6
908.6431	1730.18	1582.2	694.3
908.7842	1731.8886	1579.5	693.3
908.9253	1733.5964	1577	684.35
909.0664	1735.3036	1570.75	683.9
909.2074	1737.0099	1572.95	690.1
909.3484	1738.7156	1573.95	693.05
909.4894	1740.4204	1571.45	684.5
909.6304	1742.1246	1569.25	682.8
909.7714	1743.8279	1561.85	678.15
909.9123	1745.5306	1562.35	676
910.0532	1747.2325	1563.55	680.75
910.1941	1748.9336	1556.15	670.05
910.335	1750.634	1559.8	674.35
910.4759	1752.3336	1557.9	673.55
910.6168	1754.0325	1543.5	659.85
910.7576	1755.7307	1548.45	663.6
910.8984	1757.4281	1552.85	669.4
911.0392	1759.1247	1556.3	660.7
911.18	1760.8206	1548.6	659.9
911.3208	1762.5158	1553.35	664.2
911.4615	1764.2102	1540.6	656
911.6022	1765.9039	1541.85	658.3
911.7429	1767.5968	1536.5	652.8
911.8836	1769.289	1534.1	648.45
912.0243	1770.9804	1534.35	648.45
912.1649	1772.6711	1533.95	648.9
912.3056	1774.361	1537.75	651.1
912.4462	1776.0502	1529.85	645.8
912.5868	1777.7386	1529.75	640.6
912.7274	1779.4263	1533.25	648.5
912.8679	1781.1132	1529.85	646.1
913.0084	1782.7994	1526.4	641.35
913.149	1784.4849	1519.8	635.4
913.2895	1786.1696	1527.95	636.5
913.4299	1787.8535	1518.4	633.15
913.5704	1789.5367	1514.7	630.1
913.7108	1791.2192	1520.7	637.3
913.8513	1792.9009	1547.75	635.5
913.9917	1794.5818	1518.15	631
914.132	1796.2621	1511.6	627.15
914.2724	1797.9415	1507.6	623.8
914.4128	1799.6202	1509.75	625.65
914.5531	1801.2982	1505.9	620.6
914.6934	1802.9755	1501.25	615.8
914.8337	1804.6519	1505.25	620.55
914.9739	1806.3277	1500.9	618.8
915.1142	1808.0027	1492.4	608.9
915.2544	1809.6769	1496.65	610.35
915.3946	1811.3504	1488.25	603.05
915.5348	1813.0231	1490.5	606.75
915.675	1814.6951	1492.4	608.3
915.8151	1816.3664	1492.25	606.05
915.9553	1818.0369	1488.1	603.7
916.0954	1819.7067	1480.95	596.6
916.2355	1821.3757	1482.45	596.05
916.3755	1823.044	1487.75	603.6
916.5156	1824.7115	1484.1	599.95
916.6556	1826.3783	1476.75	593.4
916.7956	1828.0443	1483.15	600.95
916.9356	1829.7096	1476.65	590.2
917.0756	1831.3741	1476.6	587.45
917.2155	1833.0379	1468.55	582.1
917.3555	1834.701	1478.15	591.6
917.4954	1836.3633	1473.5	588.3
917.6353	1838.0248	1469.55	582.7
917.7751	1839.6856	1471.8	589.05
917.915	1841.3457	1466.75	585.3
918.0548	1843.005	1467.6	584.3
918.1946	1844.6636	1469	586.3
918.3344	1846.3214	1473.65	589.65
918.4742	1847.9785	1465.8	582.75
918.6139	1849.6349	1465.05	578.65
918.7537	1851.2904	1473.8	581.15
918.8934	1852.9453	1457.15	574.2
919.0331	1854.5994	1459.35	572.65
919.1727	1856.2528	1456.8	566.7
919.3124	1857.9054	1457.15	571.7
919.452	1859.5572	1453.15	569.95
919.5916	1861.2083	1446	558.8
919.7312	1862.8587	1454.9	569.85
919.8708	1864.5084	1447.45	562.95
920.0103	1866.1572	1455.55	572.55
920.1498	1867.8054	1447.15	562.15
920.2893	1869.4528	1446.2	561.95
920.4288	1871.0994	1438.45	554.85
920.5683	1872.7453	1444.85	559.55
920.7077	1874.3905	1442.15	548.95
920.8471	1876.0349	1440.9	554.25
920.9865	1877.6786	1448.25	561.9
921.1259	1879.3215	1443.45	559.85
921.2653	1880.9637	1439.25	554.25
921.4046	1882.6051	1439.3	555.55
921.5439	1884.2458	1433.3	546.4
921.6832	1885.8858	1440	555.35
921.8225	1887.525	1430.65	546.65
921.9617	1889.1634	1424.15	542.5
922.101	1890.8011	1428.2	544.35
922.2402	1892.4381	1425	539.05
922.3794	1894.0743	1427.25	543.6
922.5185	1895.7098	1413.8	528.55
922.6577	1897.3446	1420.4	534.2
922.7968	1898.9786	1428.1	538.35
922.9359	1900.6118	1419.2	535.95
923.075	1902.2443	1421.8	537.65
923.214	1903.8761	1420.3	535.35
923.3531	1905.5071	1422.1	536.15
923.4921	1907.1374	1412.7	526.8
923.6311	1908.7669	1408.7	523.75
923.77	1910.3957	1408.8	524.8
923.909	1912.0237	1403.35	517.2
924.0479	1913.651	1409.5	523
924.1868	1915.2776	1414.55	531.65
924.3257	1916.9034	1408.05	524.45
924.4646	1918.5285	1400.2	515.9
924.6034	1920.1528	1400.75	515.45
924.7422	1921.7764	1407.5	523.6
924.881	1923.3992	1394.8	511.15
925.0198	1925.0213	1394.25	509.55
925.1586	1926.6427	1392.3	507.75
925.2973	1928.2633	1461.55	508.1
925.436	1929.8832	1391.45	505.45
925.5747	1931.5023	1389.15	506.35
925.7134	1933.1207	1386.7	503.6
925.852	1934.7383	1387.45	500.25
925.9906	1936.3552	1384.3	499.65
926.1292	1937.9714	1381.8	495.2
926.2678	1939.5868	1376.6	491.15
926.4064	1941.2015	1376.9	489.8
926.5449	1942.8154	1374.25	489.05
926.6834	1944.4286	1374.4	490
926.8219	1946.041	1394.95	487.55
926.9604	1947.6528	1369.8	480.55
927.0988	1949.2637	1372.5	487.6
927.2372	1950.8739	1367.4	482.95
927.3756	1952.4834	1370.3	485.7
927.514	1954.0921	1370.95	484.1
927.6523	1955.7001	1366.65	477.95
927.7907	1957.3074	1362.45	478.5
927.929	1958.9139	1361.75	477.65
928.0673	1960.5197	1363.55	480
928.2055	1962.1247	1358.55	476
928.3438	1963.729	1354.3	468.2
928.482	1965.3325	1389.4	481.15
928.6202	1966.9353	1358.05	473.15
928.7584	1968.5374	1354.95	469.65
928.8965	1970.1387	1350.3	463.6
929.0346	1971.7393	1350.5	466.55
929.1727	1973.3392	1351.6	467.1
929.3108	1974.9383	1347.45	462.1
929.4489	1976.5366	1341.25	457.55
929.5869	1978.1342	1348.9	463.05
929.7249	1979.7311	1344.25	459.05
929.8629	1981.3273	1336.2	450.4
930.0009	1982.9227	1344.95	460.45
930.1388	1984.5173	1335.5	451.1
930.2767	1986.1112	1335.7	450.45
930.4146	1987.7044	1333.25	448.6
930.5525	1989.2968	1339.95	454.1
930.6904	1990.8885	1341.75	452.6
930.8282	1992.4795	1338.05	451.7
930.966	1994.0697	1333.75	450.25
931.1038	1995.6592	1332	445.6
931.2415	1997.2479	1322.55	438.25
931.3793	1998.8359	1328.3	443.7
931.517	2000.4232	1323.15	439.6
931.6547	2002.0097	1320.85	438.2
931.7923	2003.5955	1328.2	442.65
931.93	2005.1805	1329.3	444.45
932.0676	2006.7648	1327.55	443.95
932.2052	2008.3484	1324.5	437.75
932.3427	2009.9312	1327	441.05
932.4803	2011.5133	1313.95	432.1
932.6178	2013.0946	1315.75	430.95
932.7553	2014.6752	1318.8	435.2
932.8928	2016.2551	1315.15	429
933.0302	2017.8342	1311.1	427
933.1676	2019.4126	1315.85	432.55
933.305	2020.9902	1314.15	431.3
933.4424	2022.5672	1314.15	429.85
933.5798	2024.1433	1318.35	428.55
933.7171	2025.7188	1311.3	428.75
933.8544	2027.2935	1307.7	422.7
933.9917	2028.8674	1307.8	424.15
934.129	2030.4406	1306.2	422.95
934.2662	2032.0131	1305.35	422.75
934.4034	2033.5849	1306.85	418.7
934.5406	2035.1559	1305.45	421.8
934.6778	2036.7261	1300.9	416.75
934.8149	2038.2957	1300.85	416.35
934.952	2039.8645	1303.75	418.95
935.0891	2041.4325	1305	417.35
935.2262	2042.9998	1299.05	415.85
935.3632	2044.5664	1296.85	411.75
935.5002	2046.1323	1300.55	415.25
935.6372	2047.6974	1301	418.15
935.7742	2049.2617	1300.3	418.05
935.9111	2050.8254	1312.65	407.9
936.048	2052.3883	1295.45	410.6
936.1849	2053.9504	1299.85	413.75
936.3218	2055.5118	1299.55	416.35
936.4586	2057.0725	1293.55	405.9
936.5955	2058.6325	1290.05	406.15
936.7323	2060.1917	1288.9	404.65
936.869	2061.7502	1289.3	402.75
937.0058	2063.3079	1284.25	400.35
937.1425	2064.8649	1296.95	408.95
937.2792	2066.4212	1289.95	405.15
937.4159	2067.9767	1280.35	396.9
937.5525	2069.5315	1276.55	392.95
937.6891	2071.0856	1270.35	386.9
937.8257	2072.6389	1283.6	398.45
937.9623	2074.1915	1277.75	396.65
938.0989	2075.7433	1281.9	396.35
938.2354	2077.2945	1274.75	393.55
938.3719	2078.8448	1277.1	393.1
938.5084	2080.3945	1276.2	392.4
938.6448	2081.9434	1276.7	390.7
938.7812	2083.4916	1271.15	386.55
938.9176	2085.039	1272.1	386.4
939.054	2086.5857	1277.55	392.6
939.1903	2088.1317	1269.3	385.15
939.3267	2089.677	1278.8	393.55
939.463	2091.2215	1272.85	388.85
939.5992	2092.7652	1270.05	383.9
939.7355	2094.3083	1268.85	384.8
939.8717	2095.8506	1268.25	386.15
940.0079	2097.3921	1262.15	379.2
940.1441	2098.933	1272.7	389.55
940.2802	2100.4731	1262.65	379.25
940.4163	2102.0124	1285.55	382.35
940.5524	2103.5511	1266.25	383.55
940.6885	2105.089	1259	374.85
940.8245	2106.6261	1262.65	377.15
940.9606	2108.1626	1260.85	376.95
941.0965	2109.6983	1292	380.1
941.2325	2111.2332	1265.45	380.15
941.3684	2112.7675	1260.75	375.6
941.5044	2114.301	1261.45	375.8
941.6403	2115.8337	1263.6	380.55
941.7761	2117.3657	1257.15	371.85
941.912	2118.897	1260.35	374.95
942.0478	2120.4276	1269.05	379.55
942.1835	2121.9575	1265.4	379.75
942.3193	2123.4866	1268.6	368.9
942.455	2125.0149	1263.45	375.2
942.5907	2126.5426	1247.45	364
942.7264	2128.0695	1258.7	370.65
942.8621	2129.5956	1249.8	366.7
942.9977	2131.1211	1256.45	368.75
943.1333	2132.6458	1249.2	364.95
943.2689	2134.1698	1253.3	370.9
943.4044	2135.693	1252.65	367.95
943.54	2137.2155	1253.2	366.3
943.6755	2138.7373	1249.8	365.85
943.8109	2140.2584	1246.4	361.2
943.9464	2141.7787	1254.75	366.4
944.0818	2143.2983	1241.1	357.2
944.2172	2144.8171	1240.6	358.9
944.3526	2146.3353	1246.65	359.25
944.4879	2147.8527	1230.4	346.75
944.6232	2149.3693	1244.7	361.45
944.7585	2150.8853	1240.9	354.75
944.8938	2152.4005	1241.75	357.5
945.029	2153.9149	1242.25	358.85
945.1642	2155.4287	1339.25	352.5
945.2994	2156.9417	1242.75	355.65
945.4346	2158.454	1239.6	353.4
945.5697	2159.9655	1231.45	345.3
945.7048	2161.4764	1232.75	348.9
945.8399	2162.9865	1239.2	353.4
945.9749	2164.4958	1237.6	351.75
946.1099	2166.0045	1235.8	349.1
946.2449	2167.5124	1230.6	346.15
946.3799	2169.0195	1234.95	350.45
946.5148	2170.526	1227.7	342.25
946.6498	2172.0317	1229.8	344.35
946.7846	2173.5367	1232.55	348.3
946.9195	2175.0409	1227.7	343.95
947.0543	2176.5445	1231.95	348.45
947.1891	2178.0473	1223	337.8
947.3239	2179.5494	1229.9	341.35
947.4587	2181.0507	1230.35	346.95
947.5934	2182.5513	1226.6	341.75
947.7281	2184.0512	1221.5	338.45
947.8628	2185.5504	1225.05	342.55
947.9974	2187.0488	1221.45	337
948.132	2188.5465	1217.05	332.7
948.2666	2190.0435	1217.85	332.2
948.4012	2191.5397	1216.5	333.65
948.5357	2193.0353	1217.4	331.7
948.6702	2194.5301	1215.4	330.65
948.8047	2196.0241	1220.7	336.3
948.9392	2197.5175	1219.3	335.3
949.0736	2199.0101	1212.4	324
949.208	2200.502	1211.4	330.35
949.3424	2201.9931	1204.75	320
949.4767	2203.4835	1211.05	326.5
949.611	2204.9733	1223.45	320.4
949.7453	2206.4622	1208.15	324.75
949.8796	2207.9505	1208.05	321.6
950.0138	2209.438	1202.25	319.45
950.148	2210.9248	1209.6	323.9
950.2822	2212.4109	1205.55	321.85
950.4164	2213.8962	1203.15	316.2
950.5505	2215.3809	1203.95	318.25
950.6846	2216.8648	1199.55	316.35
950.8186	2218.3479	1207.1	319.2
950.9527	2219.8304	1201.4	314.75
951.0867	2221.3121	1199.25	312.8
951.2207	2222.7931	1194.9	312.5
951.3546	2224.2733	1191.35	305.85
951.4886	2225.7529	1187.45	301.85
951.6225	2227.2317	1195.5	308.25
951.7563	2228.7098	1190	304.85
951.8902	2230.1872	1195.2	310.85
952.024	2231.6638	1197.9	314.4
952.1578	2233.1397	1192.1	302.55
952.2916	2234.6149	1189.9	303.7
952.4253	2236.0894	1193	308.65
952.559	2237.5632	1190.1	305.1
952.6927	2239.0362	1184.85	300.5
952.8263	2240.5085	1181.95	300.5
952.9599	2241.9801	1185.35	299.8
953.0935	2243.4509	1186.45	303.9
953.2271	2244.921	1183.85	299.95
953.3606	2246.3904	1181	295.1
953.4941	2247.8591	1175.4	291.4
953.6276	2249.3271	1182	299
953.7611	2250.7943	1180	295.5
953.8945	2252.2608	1179.45	296.05
954.0279	2253.7266	1169.55	287.7
954.1612	2255.1917	1177.65	294.8
954.2946	2256.656	1173.4	289.65
954.4279	2258.1197	1168.6	286.1
954.5612	2259.5826	1175.1	290.7
954.6944	2261.0447	1177.65	291.05
954.8276	2262.5062	1168.4	281.6
954.9608	2263.9669	1174.9	289.25
955.094	2265.4269	1171.5	289.15
955.2271	2266.8862	1167.4	282.7
955.3602	2268.3448	1172.85	287.75
955.4933	2269.8026	1172	288.6
955.6264	2271.2598	1168.25	283.85
955.7594	2272.7162	1163.4	278.85
955.8924	2274.1719	1164.75	280
956.0253	2275.6268	1168.25	283.95
956.1583	2277.0811	1166.45	282.3
956.2912	2278.5346	1159.7	276.95
956.4241	2279.9874	1161.1	275.9
956.5569	2281.4395	1161.85	280.6
956.6897	2282.8908	1170.4	280.65
956.8225	2284.3414	1162.6	275.95
956.9553	2285.7914	1162.7	280.4
957.088	2287.2406	1162.55	276.45
957.2207	2288.689	1161.5	275.6
957.3534	2290.1368	1160.9	275.05
957.486	2291.5838	1159.9	273.85
957.6186	2293.0302	1157.4	273.15
957.7512	2294.4758	1157.35	273.6
957.8838	2295.9206	1157.4	268.95
958.0163	2297.3648	1152.6	268.75
958.1488	2298.8082	1157.6	272
958.2813	2300.251	1153.75	271.65
958.4137	2301.693	1150.55	265
958.5461	2303.1343	1157.8	273.4
958.6785	2304.5748	1147.1	263.6
958.8108	2306.0147	1151.15	266.55
958.9432	2307.4538	1152.55	266.1
959.0754	2308.8922	1142.4	259.3
959.2077	2310.3299	1149.5	265.55
959.3399	2311.7669	1145.75	263.05
959.4721	2313.2031	1144.65	259.6
959.6043	2314.6387	1146.45	262.3
959.7365	2316.0735	1146	260.5
959.8686	2317.5076	1139.65	254.65
960.0006	2318.941	1146	262.45
960.1327	2320.3737	1147.3	263.4
960.2647	2321.8056	1145.95	259.9
960.3967	2323.2369	1139.45	253.7
960.5287	2324.6674	1147.15	259.9
960.6606	2326.0972	1146.9	261.6
960.7925	2327.5263	1145.15	260.7
960.9244	2328.9547	1145	259.55
961.0562	2330.3823	1147.35	263.2
961.1881	2331.8092	1142.75	253.5
961.3198	2333.2355	1135.5	251.45
961.4516	2334.661	1139.4	254.65
961.5833	2336.0858	1133.9	247.4
961.715	2337.5098	1134.8	249.7
961.8467	2338.9332	1132.15	245.35
961.9783	2340.3558	1137.3	250.45
962.1099	2341.7778	1130.4	244
962.2415	2343.199	1132.6	244.5
962.373	2344.6195	1126.2	243.25
962.5045	2346.0393	1134.1	249.2
962.636	2347.4583	1129.35	244.4
962.7675	2348.8767	1127.6	243.3
962.8989	2350.2943	1130.8	246.6
963.0303	2351.7113	1127.6	242.55
963.1617	2353.1275	1127.95	242.4
963.293	2354.543	1148.95	241.4
963.4243	2355.9578	1122.6	236.4
963.5556	2357.3718	1125.1	240.2
963.6868	2358.7852	1122.2	233.05
963.818	2360.1978	1127.05	241
963.9492	2361.6098	1122.4	238.65
964.0803	2363.021	1125.3	237.65
964.2114	2364.4315	1117.65	231.6
964.3425	2365.8413	1120.05	234.05
964.4736	2367.2504	1121.1	236.85
964.6046	2368.6587	1117	231.5
964.7356	2370.0664	1117.7	233.15
964.8666	2371.4733	1118.75	233.85
964.9975	2372.8795	1119.65	235.65
965.1284	2374.285	1118.45	233.35
965.2593	2375.6899	1114.55	228.05
965.3901	2377.0939	1113.5	229.4
965.5209	2378.4973	1115.9	232.65
965.6517	2379.9	1113.65	229.25
965.7825	2381.3019	1110.75	225.2
965.9132	2382.7032	1113.3	230.5
966.0439	2384.1037	1109.55	226.15
966.1745	2385.5035	1110.75	225.5
966.3051	2386.9027	1113.45	229.7
966.4357	2388.3011	1115.2	226.15
966.5663	2389.6987	1106	220.05
966.6968	2391.0957	1109.3	223.3
966.8273	2392.492	1108.7	225.55
966.9578	2393.8876	1108.55	224.25
967.0882	2395.2824	1103.45	219.8
967.2186	2396.6765	1101.1	218
967.349	2398.07	1104	220.45
967.4793	2399.4627	1103.15	216.55
967.6097	2400.8547	1099.55	215.15
967.7399	2402.246	1105.5	216.55
967.8702	2403.6366	1099.75	213.7
968.0004	2405.0265	1099.1	214.1
968.1306	2406.4156	1102.9	211.5
968.2607	2407.8041	1101.1	212.45
968.3909	2409.1918	1093.7	207.2
968.521	2410.5789	1095.85	210.6
968.651	2411.9652	1098.25	212.45
968.781	2413.3508	1091.35	206.7
968.911	2414.7358	1091.7	207.5
969.041	2416.12	1091.5	209.2
969.1709	2417.5035	1092.4	206.5
969.3008	2418.8863	1096.45	210.5
969.4307	2420.2684	1093.4	208.55
969.5606	2421.6497	1087.95	202.45
969.6904	2423.0304	1092.45	206.5
969.8201	2424.4104	1090.2	205.4
969.9499	2425.7896	1090.95	204
970.0796	2427.1682	1084.35	199.3
970.2093	2428.546	1086.15	201.5
970.3389	2429.9232	1086.75	200
970.4685	2431.2996	1082.5	199.5
970.5981	2432.6753	1086.45	202.05
970.7277	2434.0503	1085.8	199.7
970.8572	2435.4246	1080.8	196.3
970.9867	2436.7982	1082.25	196
971.1161	2438.1711	1084	200.2
971.2456	2439.5433	1083.5	197.75
971.375	2440.9148	1088.6	198.8
971.5043	2442.2856	1082.55	195.55
971.6336	2443.6557	1084.65	198.25
971.7629	2445.025	1077.85	193.45
971.8922	2446.3937	1075.7	190.5
972.0214	2447.7617	1078.35	191.6
972.1506	2449.1289	1078.2	193.1
972.2798	2450.4955	1083.4	195.25
972.4089	2451.8613	1074	190.65
972.538	2453.2265	1078.3	195.95
972.6671	2454.5909	1073.9	188.7
972.7961	2455.9546	1072.05	186.4
972.9251	2457.3177	1077.2	194.3
973.0541	2458.68	1079.6	193.45
973.1831	2460.0416	1075.2	190.15
973.312	2461.4025	1073.6	187.65
973.4408	2462.7627	1088.35	192.7
973.5697	2464.1222	1075.4	191.35
973.6985	2465.4811	1069.85	184
973.8273	2466.8392	1072.15	187.9
973.956	2468.1966	1073.8	184.8
974.0847	2469.5533	1072.65	186.65
974.2134	2470.9093	1067.35	181.55
974.3421	2472.2645	1072.75	188.3
974.4707	2473.6191	1066.1	180.7
974.5993	2474.973	1069.8	183.75
974.7278	2476.3262	1072.75	185
974.8563	2477.6787	1066.45	183.6
974.9848	2479.0305	1066.45	181.3
975.1132	2480.3816	1066.9	180.6
975.2417	2481.7319	1069.25	184.95
975.37	2483.0816	1067.6	180.45
975.4984	2484.4306	1064.35	179.45
975.6267	2485.7789	1061.2	177.1
975.755	2487.1264	1065.85	177.75
975.8833	2488.4733	1062.25	180.05
976.0115	2489.8195	1068.3	175.9
976.1397	2491.165	1065.55	177.6
976.2678	2492.5097	1065.55	178.25
976.3959	2493.8538	1057.95	173.85
976.524	2495.1972	1058.85	172.25
976.6521	2496.5398	1060.25	175.1
976.7801	2497.8818	1061.45	175.25
976.9081	2499.2231	1060.45	174.75
977.036	2500.5637	1062.1	178.1
977.164	2501.9035	1055.5	168.25
977.2918	2503.2427	1058.85	171.25
977.4197	2504.5812	1053.6	169.25
977.5475	2505.919	1057.8	170.3
977.6753	2507.256	1053.85	168.25
977.8031	2508.5924	1055.4	170.8
977.9308	2509.9281	1060	169.2
978.0585	2511.2631	1054.85	170.95
978.1861	2512.5974	1050.9	166.6
978.3137	2513.9309	1052.35	167.3
978.4413	2515.2638	1075.95	167
978.5689	2516.596	1044.75	158.75
978.6964	2517.9275	1047.25	160.85
978.8239	2519.2583	1050.45	163.9
978.9513	2520.5884	1049.05	162.35
979.0788	2521.9178	1046.9	162.3
979.2062	2523.2465	1046.15	161.8
979.3335	2524.5745	1047.45	163.65
979.4608	2525.9018	1041.2	154.9
979.5881	2527.2284	1047.1	164.2
979.7154	2528.5543	1043.75	159.55
979.8426	2529.8796	1044.55	159.75
979.9698	2531.2041	1047.75	163.9
980.0969	2532.5279	1049.05	163.85
980.224	2533.851	1042.65	158.95
980.3511	2535.1735	1040.55	155.85
980.4781	2536.4952	1046.05	162.75
980.6052	2537.8163	1044.25	159.1
980.7321	2539.1366	1040.1	155.95
980.8591	2540.4562	1044.25	157.3
980.986	2541.7752	1041.8	156.05
981.1129	2543.0935	1043.95	157.45
981.2397	2544.411	1041.4	155.6
981.3665	2545.7279	1038.8	152.85
981.4933	2547.0441	1038.95	155.4
981.62	2548.3596	1043.25	153.85
981.7467	2549.6744	1038.95	153.95
981.8734	2550.9885	1046.4	152.8
982.0001	2552.3019	1040.1	155.65
982.1267	2553.6146	1033.45	150.15
982.2532	2554.9266	1039.8	154.1
982.3798	2556.2379	1038.9	152.05
982.5063	2557.5485	1036.65	153.8
982.6327	2558.8585	1042.85	150.85
982.7592	2560.1677	1042.85	153.05
982.8856	2561.4762	1038.95	154.6
983.0119	2562.7841	1036.75	149.9
983.1383	2564.0913	1036.5	153.5
983.2646	2565.3977	1035.9	152.55
983.3908	2566.7035	1029.6	145
983.517	2568.0086	1035.5	149.55
983.6432	2569.313	1034.55	148.65
983.7694	2570.6167	1036.9	149.5
983.8955	2571.9197	1035.05	149.85
984.0216	2573.222	1033.85	146.15
984.1476	2574.5236	1034.3	149.7
984.2737	2575.8246	1032	143.05
984.3996	2577.1248	1034.35	147.55
984.5256	2578.4244	1028.35	144.75
984.6515	2579.7232	1028.4	142.45
984.7774	2581.0214	1057.85	142.5
984.9032	2582.3189	1030.8	148.1
985.029	2583.6157	1032.95	142.15
985.1548	2584.9118	1028.2	143.45
985.2806	2586.2072	1028.75	145.35
985.4063	2587.5019	1029.95	146.95
985.5319	2588.7959	1026.25	140.9
985.6576	2590.0893	1029.65	143.55
985.7832	2591.3819	1029.15	144.8
985.9087	2592.6739	1024.65	141.55
986.0343	2593.9652	1030.9	144.25
986.1597	2595.2557	1028.6	145.05
986.2852	2596.5456	1030.95	144.5
986.4106	2597.8348	1027.3	145.5
986.536	2599.1234	1027.3	142.5
986.6614	2600.4112	1025.2	142.4
986.7867	2601.6983	1030.85	141.65
986.912	2602.9848	1021.45	134.5
987.0372	2604.2705	1033.5	141.35
987.1624	2605.5556	1026.5	140.7
987.2876	2606.84	1022.25	136.5
987.4128	2608.1237	1027.5	140.75
987.5379	2609.4067	1025.25	138.65
987.6629	2610.689	1029.6	137.05
987.788	2611.9707	1023.45	133.95
987.913	2613.2516	1023.75	134.65
988.0379	2614.5319	1019.3	134.5
988.1629	2615.8115	1022.7	138.2
988.2878	2617.0903	1020.65	134.6
988.4126	2618.3685	1022.35	136.25
988.5375	2619.6461	1020.65	134.8
988.6622	2620.9229	1013.95	129
988.787	2622.199	1020.95	136.05
988.9117	2623.4745	1017.7	130.5
989.0364	2624.7493	1018	133.9
989.161	2626.0234	1013.75	128
989.2857	2627.2968	1015.75	132.45
989.4102	2628.5695	1014.6	128.4
989.5348	2629.8415	1014.35	129.25
989.6593	2631.1128	1014.65	128.55
989.7837	2632.3835	1013.5	128.35
989.9082	2633.6535	1013.9	129.1
990.0326	2634.9228	1012.5	128.4
990.1569	2636.1914	1010.75	127.6
990.2812	2637.4593	1013.15	123.35
990.4055	2638.7265	1016.9	130.9
990.5298	2639.9931	1010	126.35
990.654	2641.259	1010.75	125
990.7782	2642.5242	1012.2	127.6
990.9023	2643.7887	1009.55	124.9
991.0264	2645.0525	1011.5	125.6
991.1505	2646.3156	1025.25	126.15
991.2745	2647.5781	1010.2	125
991.3985	2648.8398	1006.8	122.75
991.5225	2650.1009	1015.5	123.95
991.6464	2651.3613	1003.95	119.75
991.7703	2652.6211	1007.25	122.9
991.8942	2653.8801	999.85	115.45
992.018	2655.1385	1010.35	124.15
992.1418	2656.3961	1001.5	118.05
992.2655	2657.6531	1003.4	119.85
992.3892	2658.9094	1003.25	118.2
992.5129	2660.1651	1006.2	122.45
992.6366	2661.42	1004.65	119.3
992.7602	2662.6743	1006.1	119.7
992.8837	2663.9279	1001.2	116.8
993.0073	2665.1808	1001.6	114.9
993.1307	2666.433	1003.1	116.45
993.2542	2667.6846	1000.8	116.85
993.3776	2668.9354	1006.9	118.85
993.501	2670.1856	1001.45	115.85
993.6244	2671.4351	1005.55	121.05
993.7477	2672.6839	1007.5	122.6
993.8709	2673.9321	1001.85	116.5
993.9942	2675.1795	1004.15	119.5
994.1174	2676.4263	1002.55	117.85
994.2405	2677.6724	1003.8	120.1
994.3637	2678.9179	1003.8	118.15
994.4868	2680.1626	1003.85	122.1
994.6098	2681.4067	1005.75	119.35
994.7328	2682.6501	1000.45	117.15
994.8558	2683.8928	1001.05	115.25
994.9788	2685.1348	996.1	113
995.1017	2686.3761	997.7	112.25
995.2245	2687.6168	999.15	114.4
995.3474	2688.8568	996	110.6
995.4702	2690.0961	995.7	113.35
995.5929	2691.3348	999.45	113.7
995.7156	2692.5727	996.3	111.8
995.8383	2693.81	995.95	114.8
995.961	2695.0466	992.85	110.25
996.0836	2696.2826	996.65	110.1
996.2062	2697.5178	993.8	104.1
996.3287	2698.7524	993.9	107.95
996.4512	2699.9863	993.9	107.9
996.5737	2701.2195	993.95	109.2
996.6961	2702.452	997.2	111.75
996.8185	2703.6839	994.15	108.3
996.9408	2704.9151	993.8	109.55
997.0631	2706.1456	993.85	106.85
997.1854	2707.3755	995.45	111.75
997.3077	2708.6046	998.65	110.7
997.4299	2709.8331	996.05	113.3
997.552	2711.0609	995.85	112.75
997.6742	2712.2881	995.8	111.95
997.7963	2713.5145	998.2	111.2
997.9183	2714.7403	996.15	112.95
998.0403	2715.9654	997.1	111.8
998.1623	2717.1899	1009.9	110.6
998.2842	2718.4136	996.2	113.15
998.4062	2719.6367	997.2	111.05
998.528	2720.8591	1001.85	111.55
998.6498	2722.0809	1000.3	115.65
998.7716	2723.3019	1002	113.7
998.8934	2724.5223	1003	116.75
999.0151	2725.7421	1001.15	116.6
999.1368	2726.9611	998.6	110.95
999.2584	2728.1795	999.75	110.15
999.38	2729.3972	991.85	107.85
999.5016	2730.6142	1006.7	108.45
999.6231	2731.8306	993.05	106.9
999.7446	2733.0462	990.35	103.3
999.8661	2734.2612	992.65	102.55
999.9875	2735.4756	990.55	105.05
1000.1089	2736.6892	985.25	100.6
1000.2302	2737.9022	983.35	100.25
1000.3515	2739.1145	984.15	99.4
1000.4728	2740.3262	996	103.6
1000.594	2741.5372	985.4	100.15
1000.7152	2742.7475	981.4	97.4
1000.8363	2743.9571	984.15	98.25
1000.9575	2745.1661	984.7	95.35
1001.0785	2746.3744	982.35	95.55
1001.1996	2747.582	978.35	94
1001.3206	2748.7889	980.65	92.45
1001.4415	2749.9952	976.4	93.25
1001.5625	2751.2008	978.15	94.7
1001.6833	2752.4057	984.2	97.05
1001.8042	2753.61	978.05	94.85
1001.925	2754.8136	975.85	88.15
1002.0458	2756.0165	976.4	91.25
1002.1665	2757.2188	974.95	92.1
1002.2872	2758.4204	974.95	89.6
1002.4078	2759.6213	976.2	90.7
1002.5285	2760.8215	978.65	90.15
1002.649	2762.0211	977.65	91
1002.7696	2763.22	978.75	92.25
1002.8901	2764.4182	975.5	89.95
1003.0106	2765.6158	975	90.85
1003.131	2766.8127	975.25	90.45
1003.2514	2768.009	973.5	91.25
1003.3717	2769.2045	971.95	85.45
1003.492	2770.3994	978	93.9
1003.6123	2771.5936	974.05	88.6
1003.7325	2772.7872	969.4	87.85
1003.8527	2773.9801	967.05	79.95
1003.9729	2775.1723	987.1	85.45
1004.093	2776.3639	967.45	82.25
1004.2131	2777.5548	970.35	84.85
1004.3331	2778.745	972	85.4
1004.4531	2779.9346	971	86.65
1004.5731	2781.1235	970.65	84.5
1004.693	2782.3117	966.95	83.5
1004.8129	2783.4992	967.7	83.75
1004.9328	2784.6861	971.35	87.6
1005.0526	2785.8723	969.75	83.5
1005.1723	2787.0579	965.5	77.9
1005.2921	2788.2428	969.45	85.95
1005.4118	2789.427	968.9	86.15
1005.5314	2790.6106	968.95	86.55
1005.651	2791.7935	969.6	83.3
1005.7706	2792.9757	963.5	82.4
1005.8902	2794.1573	970.45	84.7
1006.0097	2795.3382	967.15	81.65
1006.1291	2796.5184	964.3	81.1
1006.2485	2797.698	971.2	83.45
1006.3679	2798.8769	966.1	80.6
1006.4873	2800.0551	967.05	82.5
1006.6066	2801.2327	969.35	81.7
1006.7258	2802.4096	969.4	86.7
1006.8451	2803.5859	967.5	82.75
1006.9642	2804.7615	969.3	83.95
1007.0834	2805.9364	966.65	83.95
1007.2025	2807.1106	969.5	85.4
1007.3216	2808.2842	970.7	84.55
1007.4406	2809.4572	970.05	84.8
1007.5596	2810.6294	971.55	83.7
1007.6785	2811.801	966.45	82.35
1007.7975	2812.972	967.9	83.9
1007.9163	2814.1423	970.65	86.35
1008.0352	2815.3119	979.8	94.2
1008.154	2816.4808	979.05	96.15
1008.2727	2817.6491	983.4	96.8
1008.3914	2818.8167	979.05	95.4
1008.5101	2819.9837	990.8	100.7
1008.6288	2821.15	991.35	107.55
1008.7474	2822.3157	996.4	113
1008.8659	2823.4807	1002.3	117.35
1008.9844	2824.645	1011.85	126.05
1009.1029	2825.8086	1020	137.15
1009.2214	2826.9716	1026.45	142.9
1009.3398	2828.134	1030.1	145.4
1009.4581	2829.2957	1036.9	154.15
1009.5764	2830.4567	1045.05	161.4
1009.6947	2831.617	1048.55	162.6
1009.813	2832.7767	1048.65	164.85
1009.9312	2833.9358	1050.1	167.9
1010.0493	2835.0941	1055.15	169.5
1010.1675	2836.2519	1044.6	161.25
1010.2855	2837.4089	1042.7	155.65
1010.4036	2838.5653	1040.95	158.25
1010.5216	2839.7211	1033.2	149.8
1010.6396	2840.8761	1042.4	154.95
1010.7575	2842.0306	1033.4	152.35
1010.8754	2843.1843	1028.4	143.2
1010.9932	2844.3374	1036.9	153.05
1011.111	2845.4899	1034.1	150
1011.2288	2846.6417	1036.6	152.8
1011.3465	2847.7928	1040.65	157.85
1011.4642	2848.9433	1038.3	154.1
1011.5818	2850.0931	1039.55	154.45
1011.6995	2851.2422	1038.65	152.45
1011.817	2852.3907	1041.45	156.15
1011.9345	2853.5385	1044.6	157.25
1012.052	2854.6857	1049.6	155.85
1012.1695	2855.8323	1043.65	160.3
1012.2869	2856.9781	1043.55	159.35
1012.4042	2858.1233	1045.1	159.9
1012.5216	2859.2679	1050.85	167.55
1012.6389	2860.4118	1056.35	171.5
1012.7561	2861.555	1063.15	175.1
1012.8733	2862.6976	1061.4	175.2
1012.9905	2863.8395	1062.75	178.3
1013.1076	2864.9808	1060.5	175.95
1013.2247	2866.1214	1063.55	179.9
1013.3417	2867.2614	1069.75	186.7
1013.4587	2868.4007	1074.1	189.1
1013.5757	2869.5393	1073.8	187.05
1013.6926	2870.6773	1073.35	184.55
1013.8095	2871.8146	1075.95	187.55
1013.9263	2872.9513	1082.2	195.6
1014.0431	2874.0874	1078.05	192.6
1014.1599	2875.2227	1080.05	195.75
1014.2766	2876.3574	1081.25	197.05
1014.3933	2877.4915	1079.9	196.65
1014.51	2878.6249	1085.3	203.2
1014.6266	2879.7577	1089.5	202.55
1014.7431	2880.8898	1102.65	208.35
1014.8596	2882.0212	1094.35	209.35
1014.9761	2883.152	1094.3	209.4
1015.0925	2884.2821	1094.1	211.35
1015.2089	2885.4116	1097.05	214.2
1015.3253	2886.5405	1100	216.15
1015.4416	2887.6686	1102.55	214.3
1015.5579	2888.7962	1104.65	222.65
1015.6741	2889.923	1097.55	215.1
1015.7903	2891.0493	1097.35	213.95
1015.9065	2892.1748	1100.45	217.45
1016.0226	2893.2997	1098.95	212.75
1016.1387	2894.424	1099.25	215.1
1016.2547	2895.5476	1097.95	213.15
1016.3707	2896.6706	1095.95	212.55
1016.4866	2897.7929	1103.95	217.25
1016.6025	2898.9145	1096.25	211.45
1016.7184	2900.0355	1094.9	209.5
1016.8342	2901.1559	1099.05	213.55
1016.95	2902.2756	1098.05	209.75
1017.0658	2903.3946	1099.1	216.1
1017.1815	2904.513	1099.2	214.5
1017.2971	2905.6308	1088.6	203.15
1017.4127	2906.7479	1091.25	205.35
1017.5283	2907.8643	1092.85	208.3
1017.6439	2908.9801	1092.15	208.1
1017.7594	2910.0953	1087.75	202.1
1017.8748	2911.2098	1094.75	206.65
1017.9902	2912.3236	1098.35	208.35
1018.1056	2913.4368	1092.45	205.85
1018.2209	2914.5494	1089.4	204.5
1018.3362	2915.6613	1088.9	198.15
1018.4515	2916.7725	1087.15	201.3
1018.5667	2917.8831	1084.4	197.95
1018.6819	2918.9931	1083.4	193.85
1018.797	2920.1024	1077.65	191.15
1018.9121	2921.211	1077.6	195.1
1019.0271	2922.319	1071.35	186.85
1019.1421	2923.4264	1075.95	192.4
1019.2571	2924.5331	1069.6	187.2
1019.372	2925.6391	1070.05	185.95
1019.4869	2926.7445	1071.15	187.9
1019.6017	2927.8493	1064.6	180.7
1019.7165	2928.9534	1070.55	183.75
1019.8313	2930.0569	1072	184.8
1019.946	2931.1597	1073.75	187.85
1020.0606	2932.2619	1069.9	186.6
1020.1753	2933.3634	1075.15	190.45
1020.2899	2934.4643	1081.9	192.3
1020.4044	2935.5645	1082.6	192.15
1020.5189	2936.6641	1080.3	192.7
1020.6334	2937.763	1076.3	193.05
1020.7478	2938.8613	1076.8	192.8
1020.8622	2939.959	1083.9	194.85
1020.9765	2941.056	1070.35	187.35
1021.0908	2942.1523	1072.4	186.7
1021.2051	2943.248	1060.65	177.35
1021.3193	2944.3431	1055.45	170.9
1021.4334	2945.4375	1044.05	159.05
1021.5476	2946.5313	1039.05	155.9
1021.6617	2947.6244	1033.05	150.65
1021.7757	2948.7169	1028.35	143.1
1021.8897	2949.8087	1022.7	139.3
1022.0037	2950.8999	1015.4	128.95
1022.1176	2951.9904	1002.8	118.5
1022.2315	2953.0803	1005.2	119.15
1022.3453	2954.1696	997.15	111.6
1022.4591	2955.2582	998.5	117.1
1022.5728	2956.3462	993.35	107.25
1022.6865	2957.4335	992.75	108.7
1022.8002	2958.5202	996.5	108.85
1022.9138	2959.6062	990.5	108.05
1023.0274	2960.6916	992.65	107.6
1023.141	2961.7764	993.1	109.75
1023.2545	2962.8605	993.55	109.3
1023.3679	2963.9439	992.15	108.75
1023.4813	2965.0267	989.15	102.6
1023.5947	2966.1089	1013.6	106.6
1023.708	2967.1905	990.15	103.75
1023.8213	2968.2714	985.5	100.85
1023.9346	2969.3516	987.25	103.1
1024.0478	2970.4312	989.3	96.75
1024.1609	2971.5102	984.65	99.9
1024.274	2972.5885	983.55	99.8
1024.3871	2973.6662	990	102.25
1024.5002	2974.7432	985.9	103.15
1024.6132	2975.8196	985.2	100.9
1024.7261	2976.8954	986.2	104.95
1024.839	2977.9705	983.95	99.05
1024.9519	2979.045	982.85	99.15
1025.0647	2980.1188	985.6	101.85
1025.1775	2981.192	984.5	99.4
1025.2902	2982.2645	984.05	99.1
1025.4029	2983.3364	980.9	98.5
1025.5156	2984.4077	977.05	91.2
1025.6282	2985.4783	982.15	93.65
1025.7407	2986.5483	971.75	87.45
1025.8532	2987.6177	970.35	88.2
1025.9657	2988.6864	970.45	85.05
1026.0782	2989.7545	966.05	80.75
1026.1906	2990.8219	965.05	80.5
1026.3029	2991.8887	964.65	77.55
1026.4152	2992.9548	962.5	78.7
1026.5275	2994.0204	954.9	70.75
1026.6397	2995.0852	954	71.55
1026.7519	2996.1495	956.5	74.4
1026.864	2997.2131	951.8	68.3
1026.9761	2998.276	949.25	64.45
1027.0882	2999.3383	948.3	63.65
1027.2002	3000.4	945.2	60
1027.3122	3001.4611	942.7	59.55
1027.4241	3002.5215	940.25	56.35
1027.536	3003.5812	938.8	55.6
1027.6478	3004.6404	937.05	52.2
1027.7596	3005.6989	936.25	50.55
1027.8714	3006.7567	936.2	52.75
1027.9831	3007.8139	958.05	51.5
1028.0947	3008.8705	937.45	53.15
1028.2064	3009.9264	937.75	52.15
1028.3179	3010.9818	938.15	52.55
1028.4295	3012.0364	930.85	45.9
1028.541	3013.0905	931.75	47.05
1028.6524	3014.1439	932.85	47.3
1028.7638	3015.1966	926.8	42.3
1028.8752	3016.2487	932.85	47.7
1028.9865	3017.3002	934.25	47.15
1029.0978	3018.3511	929.6	45.75
1029.209	3019.4013	928.3	44.65
1029.3202	3020.4509	927.1	44
1029.4314	3021.4998	929.75	44.45
1029.5425	3022.5481	929.85	47.75
1029.6535	3023.5958	929.15	43.95
1029.7645	3024.6428	929.15	43
1029.8755	3025.6892	926.95	44.4
1029.9864	3026.735	925.95	40.65
1030.0973	3027.7802	928.35	43.05
1030.2082	3028.8247	924.7	39.3
1030.319	3029.8685	925.55	40.95
1030.4297	3030.9118	928.35	45.25
1030.5404	3031.9544	925.1	42.1
1030.6511	3032.9963	927.75	45.4
1030.7617	3034.0376	929.05	45.4
1030.8723	3035.0783	925.45	37.55
1030.9829	3036.1184	927.7	43.25
1031.0934	3037.1578	925.1	42.4
1031.2038	3038.1966	927.95	42.05
1031.3142	3039.2348	926.5	43.3
1031.4246	3040.2723	933.85	39.75
1031.5349	3041.3092	925.65	41.1
1031.6452	3042.3455	928.45	43.15
1031.7554	3043.3811	926.2	41.4
1031.8656	3044.4161	929.6	45.05
1031.9758	3045.4505	928.1	45.9
1032.0859	3046.4842	927	41.7
1032.1959	3047.5173	924.55	41.65
1032.3059	3048.5498	926.05	41
1032.4159	3049.5816	927.75	42.6
1032.5258	3050.6128	925.9	41.35
1032.6357	3051.6434	925.5	41.3
1032.7455	3052.6734	926.65	41.95
1032.8553	3053.7027	924.9	41.45
1032.9651	3054.7314	924.9	40.9
1033.0748	3055.7594	926.2	46.1
1033.1845	3056.7868	926.1	41.25
1033.2941	3057.8136	926.65	43.15
1033.4037	3058.8398	925.55	42.15
1033.5132	3059.8653	926.25	42.5
1033.6227	3060.8902	925.35	41.7
1033.7321	3061.9145	927.35	42.75
1033.8415	3062.9381	927.95	44.4
1033.9509	3063.9612	943.95	46.1
1034.0602	3064.9835	930.05	46.15
1034.1694	3066.0053	928.7	44.5
1034.2787	3067.0264	926.75	42.35
1034.3878	3068.0469	931.85	44.2
1034.497	3069.0668	930.45	44.55
1034.6061	3070.086	925.15	43.35
1034.7151	3071.1046	928.05	40.7
1034.8241	3072.1226	927.05	41.8
1034.9331	3073.1399	923.95	39.45
1035.042	3074.1567	924.35	40.3
1035.1508	3075.1727	926.45	41.6
1035.2597	3076.1882	925.8	42.55
1035.3684	3077.203	923.95	40.6
1035.4772	3078.2173	925.65	41.95
1035.5859	3079.2308	925.3	38.6
1035.6945	3080.2438	925.45	39.35
1035.8031	3081.2561	919.9	36.05
1035.9117	3082.2678	918.85	36.6
1036.0202	3083.2789	919.5	35.7
1036.1286	3084.2893	919.8	35.2
1036.2371	3085.2991	919.6	35.35
1036.3454	3086.3083	921.75	32
1036.4538	3087.3169	918.4	31.95
1036.562	3088.3248	919.9	34.5
1036.6703	3089.3321	918	32.25
1036.7785	3090.3388	915.9	33.05
1036.8866	3091.3449	915.95	32.75
1036.9948	3092.3503	919.35	34.45
1037.1028	3093.3551	913.8	30.85
1037.2108	3094.3593	915.05	30.4
1037.3188	3095.3629	914.35	31.7
1037.4267	3096.3658	915.7	30.15
1037.5346	3097.3681	913.95	30.85
1037.6425	3098.3698	916.9	32.9
1037.7503	3099.3708	922.2	32
1037.858	3100.3713	913.2	30.8
1037.9657	3101.3711	914	29.6
1038.0734	3102.3702	1051.25	30.1
1038.181	3103.3688	916.85	32.8
1038.2886	3104.3667	913.6	30.7
1038.3961	3105.364	912.4	27.8
1038.5036	3106.3607	916.8	31.65
1038.611	3107.3568	914.5	30.4
1038.7184	3108.3522	912.8	31.2
1038.8257	3109.347	914.05	28.8
1038.933	3110.3412	916.8	28.3
1039.0403	3111.3348	912.35	27.95
1039.1475	3112.3277	910	24.85
1039.2547	3113.32	912	31.5
1039.3618	3114.3117	914.65	28.95
1039.4689	3115.3028	910.8	26.55
1039.5759	3116.2932	914.45	29.75
1039.6829	3117.2831	915.7	26.65
1039.7898	3118.2723	908.2	25.55
1039.8967	3119.2608	908.65	24.1
1040.0035	3120.2488	910.5	26.05
1040.1103	3121.2361	908.7	22.8
1040.2171	3122.2229	906.8	21.9
1040.3238	3123.209	910.35	27.25
1040.4305	3124.1944	908.8	23.85
1040.5371	3125.1793	908.05	22.5
1040.6437	3126.1635	906.5	21.45
1040.7502	3127.1471	905.45	20.45
1040.8567	3128.1301	906.45	24.65
1040.9631	3129.1125	908.45	22.75
1041.0695	3130.0942	910.15	24.75
1041.1759	3131.0753	915.6	22.85
1041.2822	3132.0558	913.75	27
1041.3884	3133.0357	909.6	26.5
1041.4946	3134.015	907.15	21.55
1041.6008	3134.9936	908.3	22.85
1041.7069	3135.9716	925.05	19.95
1041.813	3136.949	907.65	23.05
1041.919	3137.9258	926.7	24.75
1042.025	3138.902	913.1	22.65
1042.1309	3139.8775	905.6	21.7
1042.2368	3140.8524	907.05	24.6
1042.3427	3141.8267	907.7	23.3
1042.4485	3142.8004	907.5	23.4
1042.5542	3143.7735	911.7	21.5
1042.6599	3144.7459	907.65	21.1
1042.7656	3145.7178	907.15	23.1
1042.8712	3146.689	902.85	19.5
1042.9768	3147.6596	907.15	21.5
1043.0823	3148.6295	906.1	22.9
1043.1878	3149.5989	904.7	19.65
1043.2932	3150.5676	903.3	21.1
1043.3986	3151.5357	903.45	20
1043.5039	3152.5032	904.7	20.4
1043.6092	3153.4701	903.65	18
1043.7145	3154.4364	909.2	22.55
1043.8197	3155.402	901.7	19.85
1043.9248	3156.367	905.25	18.15
1044.03	3157.3315	938.5	18.8
1044.135	3158.2952	904.25	18.05
1044.24	3159.2584	904.15	19.85
1044.345	3160.221	902.3	17.5
1044.4499	3161.1829	903.35	20.3
1044.5548	3162.1442	903.2	21.5
1044.6596	3163.105	902.2	16.8
1044.7644	3164.065	903.55	19.1
1044.8692	3165.0245	904.5	16.75
1044.9739	3165.9834	902.5	20.6
1045.0785	3166.9416	903.95	22.1
1045.1831	3167.8993	904.75	19.5
1045.2877	3168.8563	905.9	21.3
1045.3922	3169.8127	901.8	19.05
1045.4966	3170.7684	902.45	17.55
1045.6011	3171.7236	904.85	19.45
1045.7054	3172.6782	902.2	18.45
1045.8098	3173.6321	903.25	16.35
1045.914	3174.5854	907.3	18.4
1046.0183	3175.5381	900.55	15.45
1046.1224	3176.4902	900.95	16
1046.2266	3177.4417	901.25	17.55
1046.3307	3178.3926	900.7	16.05
1046.4347	3179.3428	900	16.35
1046.5387	3180.2924	900.15	15.1
1046.6427	3181.2415	900.65	15.85
1046.7466	3182.1899	902	16.15
1046.8504	3183.1377	902.3	17.2
1046.9542	3184.0848	904.9	17.05
1047.058	3185.0314	901.75	16.6
1047.1617	3185.9773	902.6	19.65
1047.2654	3186.9227	902.4	19
1047.369	3187.8674	899.55	15.35
1047.4726	3188.8115	904.3	17.45
1047.5761	3189.755	900.4	18.25
1047.6796	3190.6979	899.8	13.3
1047.783	3191.6402	897.5	15
1047.8864	3192.5818	899.25	14.15
1047.9898	3193.5229	905.25	14.45
1048.0931	3194.4633	899.65	15.05
1048.1963	3195.4031	899.25	14.35
1048.2995	3196.3423	902.05	20.55
1048.4027	3197.2809	901.15	16.95
1048.5058	3198.2189	902.15	18.95
1048.6089	3199.1563	916.1	15.05
1048.7119	3200.0931	897.9	13.9
1048.8148	3201.0292	898.45	17.85
1048.9178	3201.9648	900	14.65
1049.0206	3202.8997	901.55	13.2
1049.1235	3203.834	899.7	16.05
1049.2262	3204.7677	900.8	16.55
1049.329	3205.7008	902.05	13.4
1049.4317	3206.6333	895.9	11.95
1049.5343	3207.5652	898.65	12.45
1049.6369	3208.4964	898.95	15.05
1049.7394	3209.4271	896.9	13.85
1049.8419	3210.3571	898.95	14.75
1049.9444	3211.2865	896.7	12.35
1050.0468	3212.2154	901.95	18.5
1050.1491	3213.1436	903.35	16.75
1050.2514	3214.0712	904	14.5
1050.3537	3214.9982	897	12.65
1050.4559	3215.9246	898.15	13.55
1050.5581	3216.8503	895.65	13.4
1050.6602	3217.7755	896.45	12.25
1050.7623	3218.7001	896.6	14.45
1050.8643	3219.624	899.25	15.05
1050.9663	3220.5473	897.65	13.05
1051.0682	3221.4701	900.4	16.15
1051.1701	3222.3922	899	12.75
1051.2719	3223.3137	897	11.85
1051.3737	3224.2346	898.05	13.75
1051.4754	3225.1549	897.6	15.05
1051.5771	3226.0746	896.1	12.55
1051.6788	3226.9937	899.5	16.75
1051.7804	3227.9121	896.3	14.3
1051.8819	3228.83	897.2	12.95
1051.9834	3229.7473	897.55	14.75
1052.0849	3230.6639	899.1	13.8
1052.1863	3231.5799	897	12.2
1052.2876	3232.4954	898.3	13.05
1052.3889	3233.4102	897.8	14.55
1052.4902	3234.3244	897.8	12.85
1052.5914	3235.238	894.75	11.3
1052.6926	3236.151	911.45	13.65
1052.7937	3237.0634	897.2	14.25
1052.8948	3237.9752	897.2	11.85
1052.9958	3238.8864	897.55	12.65
1053.0968	3239.797	895.85	13.8
1053.1977	3240.7069	898.2	15.05
1053.2986	3241.6163	900.2	16.8
1053.3994	3242.5251	894.1	10.35
1053.5002	3243.4332	895.6	11.95
1053.6009	3244.3408	895.15	9.75
1053.7016	3245.2477	895.1	11.45
1053.8022	3246.154	895.5	8.9
1053.9028	3247.0598	897.3	12.6
1054.0034	3247.9649	896.7	13.4
1054.1039	3248.8694	895.7	9.5
1054.2043	3249.7733	895.35	11.65
1054.3047	3250.6766	893.4	7.75
1054.4051	3251.5793	897.15	10.4
1054.5054	3252.4814	894.8	12.6
1054.6056	3253.3829	896.25	13.2
1054.7058	3254.2838	894.2	9.25
1054.806	3255.1841	895.9	12
1054.9061	3256.0838	894.7	9.55
1055.0061	3256.9829	894.45	12.55
1055.1062	3257.8814	896	8.55
1055.2061	3258.7792	897.3	11.45
1055.306	3259.6765	895.6	12.2
1055.4059	3260.5731	893.25	10.05
1055.5057	3261.4692	894.55	9.95
1055.6055	3262.3647	894.6	9.25
1055.7052	3263.2595	892.3	8.4
1055.8049	3264.1538	895.15	11.35
1055.9045	3265.0474	895.5	10.2
1056.0041	3265.9404	894.5	10.9
1056.1036	3266.8329	892.1	9.4
1056.2031	3267.7247	904.15	11.5
1056.3025	3268.616	891.55	11
1056.4019	3269.5066	891.3	6.65
1056.5013	3270.3966	894.05	8.8
1056.6005	3271.286	893	8.85
