Software Version:	3.9.2.0
Unit SN:	10000200
Spectrometer SN:	6960
Date:	3/26/2024 2:47:31 PM
Data Line Index:	25
Spectral Points:	2048
Integration time (ms):	125
Averages:	20
Delay (ms):	30000
Sequence Number:	1
Processing:	dark subtract
Laser Power (mW):	305
Laser Current (mA):	820
Laser Diode Temp (C):	25
Laser Case Temp (C):	27.9
System Temp (C):	28
Spectrometer Temp (C):	25.9
CCD Temp (C):	0.007
Secondary Temp (C):	20.01
Heatsink Temp (C):	23.441
CCDPCB Temp (C):	37.53
SecondaryPCB Temp (C):	34.851

Wavelength	RamanShift	Raw Counts	Dark Subtracted
787.061	30.1047	616.7	207.7
787.2016	32.3739	631.85	225.15
787.3422	34.6426	646.35	239.9
787.4828	36.9109	662.5	253.2
787.6235	39.1787	684.7	271.15
787.7642	41.4461	706.2	287.25
787.9049	43.7131	728.75	305.7
788.0456	45.9796	746.75	320.05
788.1863	48.2456	776.3	345.4
788.3271	50.5112	797.2	361.9
788.4679	52.7764	822.7	384.75
788.6087	55.0411	857.8	416.8
788.7496	57.3054	882.35	435.75
788.8904	59.5692	913.15	462.95
789.0313	61.8326	945.55	493.1
789.1722	64.0955	984.85	528.85
789.3132	66.3579	1033.2	571.5
789.4541	68.6199	1083	619.6
789.5951	70.8815	1169.15	698
789.7361	73.1426	1362.8	890.25
789.8771	75.4032	1836.45	1359.75
790.0181	77.6634	3028.2	2544.5
790.1592	79.9231	5988.5	5496.45
790.3003	82.1824	12809.55	12296.7
790.4414	84.4412	27488.15	26941.95
790.5825	86.6995	53731.85	53142.95
790.7237	88.9574	64756.25	64122.3
790.8648	91.2148	65535	64872.1
791.006	93.4717	65535	64854.8
791.1472	95.7282	65535	64841.1
791.2885	97.9842	65535	64835.75
791.4297	100.2398	65535	64834.8
791.571	102.4949	65535	64827.55
791.7123	104.7495	65535	64834.25
791.8536	107.0036	65535	64827.55
791.9949	109.2573	65535	64832.6
792.1363	111.5105	65535	64825.8
792.2777	113.7632	65535	64825.45
792.4191	116.0154	65535	64813.1
792.5605	118.2672	65535	64818.15
792.7019	120.5185	65535	64817.95
792.8434	122.7693	65535	64816.6
792.9849	125.0197	65535	64816.3
793.1264	127.2696	65535	64814.75
793.2679	129.519	65535	64808.75
793.4094	131.7679	65535	64801.2
793.551	134.0163	65535	64797.75
793.6926	136.2642	65535	64795.4
793.8342	138.5117	65535	64788.15
793.9758	140.7587	65535	64790.3
794.1175	143.0052	65535	64784.85
794.2591	145.2512	65535	64788.25
794.4008	147.4967	65535	64789
794.5425	149.7417	65535	64785.2
794.6842	151.9863	65535	64781
794.826	154.2304	65535	64773.75
794.9677	156.4739	65535	64773.7
795.1095	158.717	65535	64773.65
795.2513	160.9596	65535	64772.35
795.3931	163.2017	65535	64768.75
795.535	165.4433	65535	64766.05
795.6768	167.6844	65535	64766.1
795.8187	169.925	65535	64767.55
795.9606	172.1651	65534.85	64766.45
796.1025	174.4047	65535	64762.2
796.2445	176.6439	65534.65	64760.85
796.3864	178.8825	65526.35	64750.15
796.5284	181.1206	65535	64746.7
796.6704	183.3582	65535	64741.8
796.8124	185.5954	65535	64745.8
796.9544	187.832	65533.35	64737.75
797.0965	190.0681	65523.55	64727.8
797.2386	192.3037	65535	64733.65
797.3806	194.5388	65535	64732.15
797.5228	196.7734	65518.2	64708.5
797.6649	199.0075	65535	64721.85
797.807	201.2411	65535	64723.25
797.9492	203.4742	65535	64724.15
798.0914	205.7068	65535	64718.75
798.2336	207.9389	65535	64717.55
798.3758	210.1704	65535	64713.95
798.518	212.4015	65535	64717.25
798.6603	214.632	65535	64718.85
798.8025	216.862	65535	64731.6
798.9448	219.0915	65535	64734.25
799.0871	221.3205	65535	64733
799.2294	223.549	65535	64734.55
799.3718	225.777	65535	64738.55
799.5141	228.0044	65535	64736.55
799.6565	230.2314	65535	64738.65
799.7989	232.4578	65535	64738.25
799.9413	234.6837	65535	64734.25
800.0837	236.909	65535	64725
800.2262	239.1339	65535	64697.75
800.3687	241.3582	65535	64713.65
800.5111	243.582	65535	64681.55
800.6536	245.8053	65535	64698.75
800.7961	248.0281	65535	64706.3
800.9387	250.2503	65535	64700.15
801.0812	252.472	65535	64694
801.2238	254.6932	65535	64696.65
801.3664	256.9139	65535	64695.6
801.509	259.134	65535	64688.75
801.6516	261.3536	65535	64687.3
801.7942	263.5727	65535	64686.65
801.9369	265.7912	65535	64689.9
802.0795	268.0092	65535	64687.05
802.2222	270.2267	65535	64690.8
802.3649	272.4436	65535	64689.35
802.5076	274.6601	65535	64680.85
802.6504	276.8759	65535	64685.15
802.7931	279.0913	65535	64685.85
802.9359	281.3061	65535	64684.55
803.0787	283.5204	65535	64680.35
803.2215	285.7341	65535	64674.9
803.3643	287.9473	65535	64661.9
803.5071	290.16	65535	64667.45
803.6499	292.3721	65535	64672.5
803.7928	294.5837	65535	64673.9
803.9357	296.7947	65535	64674.85
804.0786	299.0052	65535	64673.4
804.2215	301.2152	65535	64673.15
804.3644	303.4246	65535	64678
804.5074	305.6334	65535	64680.3
804.6503	307.8418	65535	64674.65
804.7933	310.0495	65535	64671.3
804.9363	312.2568	65535	64671.15
805.0793	314.4635	65535	64665.1
805.2223	316.6696	65535	64670.4
805.3653	318.8752	65535	64660.05
805.5084	321.0802	65535	64664.05
805.6514	323.2847	65535	64668.05
805.7945	325.4887	65535	64665.75
805.9376	327.692	65535	64664.25
806.0807	329.8949	65535	64662.9
806.2238	332.0972	65535	64661.5
806.367	334.2989	65535	64655.75
806.5101	336.5001	65535	64652.05
806.6533	338.7007	65535	64661.85
806.7965	340.9008	65535	64656.05
806.9397	343.1003	65535	64654.3
807.0829	345.2992	65535	64653.5
807.2261	347.4976	65535	64659.85
807.3693	349.6955	65535	64648.8
807.5126	351.8927	65535	64646.3
807.6559	354.0895	65535	64639.25
807.7991	356.2856	65535	64648.3
807.9424	358.4812	65535	64645.55
808.0857	360.6763	65535	64644.45
808.2291	362.8707	65535	64644.7
808.3724	365.0646	65535	64645.4
808.5158	367.258	65535	64646.3
808.6591	369.4508	65535	64638.4
808.8025	371.643	65535	64635.95
808.9459	373.8346	65535	64636.5
809.0893	376.0257	65535	64637.85
809.2327	378.2162	65535	64633.7
809.3762	380.4062	65535	64630.65
809.5196	382.5956	65535	64628.4
809.6631	384.7844	65535	64637
809.8066	386.9726	65535	64633.3
809.9501	389.1603	65535	64635.9
810.0936	391.3474	65535	64595.7
810.2371	393.5339	65535	64633.5
810.3806	395.7199	65535	64638.95
810.5241	397.9052	65535	64647.05
810.6677	400.09	65535	64641.6
810.8113	402.2743	65535	64644.8
810.9548	404.4579	65535	64643.95
811.0984	406.641	65535	64643.1
811.2421	408.8235	65535	64644.75
811.3857	411.0054	65535	64641.75
811.5293	413.1868	65535	64636.75
811.673	415.3675	65535	64637.5
811.8166	417.5477	65535	64637.65
811.9603	419.7273	65535	64635.85
812.104	421.9064	65535	64630.6
812.2477	424.0848	65535	64632.8
812.3914	426.2627	65535	64628.8
812.5351	428.4399	65535	64630.85
812.6788	430.6166	65534.2	64622.85
812.8226	432.7928	65535	64619.6
812.9663	434.9683	65534.9	64626.55
813.1101	437.1432	65530.2	64623.95
813.2539	439.3176	65535	64632.6
813.3977	441.4914	65524.85	64626.7
813.5415	443.6645	65527.05	64628.3
813.6853	445.8371	65528.55	64622
813.8291	448.0091	65522.4	64617.2
813.973	450.1806	65514.95	64611.2
814.1168	452.3514	65521.6	64616.25
814.2607	454.5216	65491.75	64579.65
814.4046	456.6913	65520.2	64613.85
814.5485	458.8603	65523.1	64617.95
814.6924	461.0288	65481.8	64577.4
814.8363	463.1967	65523.6	64626.85
814.9802	465.3639	65519.75	64615.05
815.1241	467.5306	65457.7	64551.75
815.2681	469.6967	65518.45	64616.55
815.412	471.8622	65529.35	64629
815.556	474.0271	65517.8	64609.75
815.7	476.1914	65524.45	64618.05
815.844	478.3551	65522.05	64611.2
815.988	480.5182	65535	64628.9
816.132	482.6807	65499.45	64599.9
816.276	484.8426	65518.9	64625.1
816.4201	487.0039	65535	64635.45
816.5641	489.1647	65535	64634.35
816.7082	491.3248	65521.9	64615
816.8522	493.4843	65535	64631.35
816.9963	495.6432	65535	64629.1
817.1404	497.8015	65523.9	64609.55
817.2845	499.9592	65535	64616.35
817.4286	502.1163	65533.3	64616.5
817.5727	504.2728	65530.95	64621.15
817.7168	506.4287	65523.2	64621.95
817.861	508.5839	65510.95	64610.9
818.0051	510.7386	65520.35	64614.1
818.1493	512.8927	65516.75	64598.95
818.2935	515.0461	65507.8	64596.75
818.4377	517.199	65520.75	64605.3
818.5818	519.3512	65472.35	64552.8
818.726	521.5029	65479.1	64562
818.8703	523.6539	65480.8	64568.6
819.0145	525.8043	65435.6	64517.95
819.1587	527.9541	65483.7	64565.55
819.303	530.1033	65487.6	64570.85
819.4472	532.2519	65467.6	64550.55
819.5915	534.3999	65520.9	64605.45
819.7357	536.5472	65527.7	64610.45
819.88	538.694	65498.75	64587.6
820.0243	540.8401	65526.9	64612.45
820.1686	542.9856	65534.15	64606.9
820.3129	545.1305	65535	64605.7
820.4572	547.2748	65523.55	64589.35
820.6016	549.4185	65516.85	64582
820.7459	551.5615	65527.3	64593.55
820.8902	553.704	65521	64592.3
821.0346	555.8458	65500.25	64579.05
821.1789	557.987	65509.75	64584.15
821.3233	560.1276	65516.95	64589.05
821.4677	562.2675	65485.9	64559.9
821.6121	564.4069	65486.45	64559.6
821.7565	566.5456	65502.45	64577.65
821.9009	568.6837	65434.5	64513.3
822.0453	570.8212	65442.2	64521.5
822.1897	572.958	65376.5	64452.2
822.3342	575.0942	65445.1	64526.5
822.4786	577.2299	65405.3	64487.5
822.6231	579.3648	65398.1	64492.45
822.7675	581.4992	65401.1	64501.5
822.912	583.6329	65403.3	64504.65
823.0565	585.766	65408.15	64505.9
823.201	587.8985	65436.6	64526.35
823.3454	590.0304	65374	64448.8
823.4899	592.1616	65427.7	64505.5
823.6345	594.2922	65389.6	64461.9
823.779	596.4222	65351.35	64422.9
823.9235	598.5515	65364.5	64435.9
824.068	600.6802	65392.5	64461.75
824.2126	602.8083	65327	64405.85
824.3571	604.9358	65315.5	64390.55
824.5017	607.0626	65353.65	64422.65
824.6462	609.1888	65273.85	64339.9
824.7908	611.3144	65313.2	64379.95
824.9354	613.4393	65274.95	64342.7
825.08	615.5636	65206.5	64273
825.2246	617.6873	65251.6	64319.15
825.3692	619.8103	65140.8	64208.05
825.5138	621.9327	65266.3	64335.05
825.6584	624.0544	65278.7	64354.25
825.803	626.1756	65238.9	64315.95
825.9477	628.2961	65222.55	64292.3
826.0923	630.4159	65162.15	64230.95
826.237	632.5351	65117.35	64184.3
826.3816	634.6537	65268.65	64333.25
826.5263	636.7716	65102.75	64166.35
826.6709	638.8889	65171.6	64235.6
826.8156	641.0056	65158.15	64220.75
826.9603	643.1216	65179.1	64240.4
827.105	645.237	65201.55	64266.8
827.2497	647.3518	65075.05	64140.65
827.3944	649.4659	65132.15	64205.45
827.5391	651.5793	65168.05	64243.85
827.6838	653.6922	65197.5	64267.7
827.8285	655.8043	64946.85	64015.9
827.9733	657.9159	65200.3	64273.85
828.118	660.0268	64672.95	63739.35
828.2627	662.137	65056.5	64122.3
828.4075	664.2466	65081.65	64140.45
828.5522	666.3556	64938.05	64002.9
828.697	668.4639	65049.25	64118.65
828.8418	670.5716	64866.65	63942.85
828.9865	672.6786	65023	64091.9
829.1313	674.785	64845.1	63906.05
829.2761	676.8907	64880.55	63945.35
829.4209	678.9958	65007.6	64075.5
829.5657	681.1002	65013.25	64079.25
829.7105	683.204	64804.05	63859.1
829.8553	685.3072	64681.35	63744.7
830.0001	687.4097	64755.55	63818.1
830.1449	689.5115	64617.4	63678.9
830.2898	691.6127	64836.25	63899.7
830.4346	693.7132	64608.45	63671.85
830.5794	695.8131	64614.8	63657.6
830.7243	697.9123	64658.9	63714.5
830.8691	700.0109	64647.3	63705.5
831.014	702.1089	64368	63428.8
831.1588	704.2061	64441.8	63501.25
831.3037	706.3028	64469.8	63528.75
831.4486	708.3987	64523.9	63583.4
831.5935	710.4941	64439.85	63502.2
831.7383	712.5887	64659.4	63726.35
831.8832	714.6827	64553.4	63607.95
832.0281	716.7761	64773.6	63838.15
832.173	718.8688	64869.45	63929.7
832.3179	720.9608	64666.8	63720.25
832.4628	723.0522	64677.65	63731.2
832.6077	725.1429	64466.25	63521.25
832.7527	727.233	64842.25	63905.8
832.8976	729.3224	63912.5	62973.35
833.0425	731.4112	64213.05	63270.25
833.1874	733.4993	64208.65	63269.2
833.3324	735.5867	64167.45	63226
833.4773	737.6735	63898.6	62955.2
833.6222	739.7596	63659.1	62714.3
833.7672	741.845	63651.7	62711.1
833.9122	743.9298	64032.35	63090.5
834.0571	746.014	63629.45	62690.7
834.2021	748.0974	63312.85	62364.55
834.347	750.1802	63915.25	62971.1
834.492	752.2624	63194.6	62251.45
834.637	754.3439	63301.85	62356.55
834.782	756.4247	63475.85	62520.65
834.9269	758.5048	63135.5	62189.1
835.0719	760.5843	63328.05	62382.7
835.2169	762.6631	63503.2	62561.6
835.3619	764.7413	63396.55	62452.8
835.5069	766.8188	63627.45	62680.3
835.6519	768.8956	63974.05	63028.4
835.7969	770.9718	63972.6	63025.1
835.9419	773.0473	63765.15	62818.7
836.0869	775.1221	63173.75	62228.3
836.232	777.1962	63067.35	62121.3
836.377	779.2697	62468.9	61518.95
836.522	781.3426	62895.15	61939.65
836.667	783.4147	63134.6	62186.9
836.8121	785.4862	63132.1	62188.25
836.9571	787.557	62628.6	61680.55
837.1021	789.6271	63008	62056.6
837.2472	791.6966	62368.25	61423.65
837.3922	793.7654	61565.5	60621.4
837.5373	795.8335	61511.35	60568.2
837.6823	797.901	61615.6	60671.15
837.8274	799.9678	61231.7	60283.1
837.9724	802.0339	61168.85	60221.7
838.1175	804.0993	61249.4	60291.75
838.2626	806.1641	60979.2	60030.9
838.4076	808.2282	60837.15	59890.45
838.5527	810.2916	60583.45	59634.65
838.6978	812.3544	60894.35	59954.8
838.8428	814.4164	60114.2	59169.35
838.9879	816.4778	60194.85	59246.85
839.133	818.5385	60140.9	59191.65
839.2781	820.5986	60108.55	59160.65
839.4232	822.658	60192.35	59245.35
839.5682	824.7166	60173.65	59224.7
839.7133	826.7747	59603.95	58657.55
839.8584	828.832	59910	58964.75
840.0035	830.8886	60210.15	59258.8
840.1486	832.9446	60216	59265.95
840.2937	834.9999	59319.5	58370.05
840.4388	837.0545	59835.35	58884.05
840.5839	839.1085	60102.35	59152.7
840.729	841.1618	59921.4	58971.5
840.8741	843.2143	59247.95	58302.35
841.0192	845.2662	59228.4	58280
841.1643	847.3175	59410.15	58465.15
841.3095	849.368	58534.05	57585.05
841.4546	851.4179	59003.45	58057.4
841.5997	853.467	58419.15	57467.5
841.7448	855.5155	58559.75	57610.55
841.8899	857.5633	58040.05	57090.55
842.0351	859.6105	57639.45	56689.6
842.1802	861.6569	57842.85	56892.5
842.3253	863.7027	57127.35	56175.3
842.4704	865.7478	57351.25	56400.55
842.6156	867.7922	57205.65	56257.7
842.7607	869.8359	57578.75	56629.45
842.9058	871.8789	56881.85	55928.3
843.0509	873.9212	57364	56382.4
843.1961	875.9629	57419.5	56466.65
843.3412	878.0039	57402.5	56452.95
843.4863	880.0441	57191.6	56243.2
843.6315	882.0837	57074.4	56126.15
843.7766	884.1226	57000.05	56049.35
843.9218	886.1609	56768.7	55820.8
844.0669	888.1984	56308.1	55356.45
844.212	890.2352	56664.7	55716.8
844.3572	892.2714	55933.85	54978.6
844.5023	894.3069	56164.4	55215.45
844.6475	896.3416	55800.05	54849.35
844.7926	898.3757	55663.2	54712.05
844.9377	900.4091	55075.55	54127.5
845.0829	902.4418	55704.75	54748.7
845.228	904.4739	55164.5	54205.25
845.3732	906.5052	55254.2	54304.8
845.5183	908.5358	54842.45	53890.55
845.6635	910.5658	54501.1	53544.6
845.8086	912.595	54340.45	53388.05
845.9538	914.6236	53756.75	52806.25
846.0989	916.6515	54427.75	53479.3
846.2441	918.6786	53502.85	52549.65
846.3892	920.7051	53717.05	52764.4
846.5344	922.7309	53712.45	52761.4
846.6795	924.756	53743.15	52791.85
846.8246	926.7804	53492.2	52537.95
846.9698	928.8041	52919.4	51963.7
847.1149	930.8272	53188.5	52236
847.2601	932.8495	53050.6	52098.85
847.4052	934.8711	52589.35	51634.7
847.5504	936.892	52235.5	51280.2
847.6955	938.9123	52037.8	51082.3
847.8407	940.9318	51649.4	50693.5
847.9858	942.9506	51398.55	50447.7
848.131	944.9688	51294.6	50344.5
848.2761	946.9862	50794.55	49844.1
848.4213	949.003	50745.65	49791.7
848.5664	951.019	50329.6	49377
848.7115	953.0344	50431.8	49481.75
848.8567	955.0491	50303.55	49350.8
849.0018	957.063	50401.85	49451.4
849.147	959.0763	50510.9	49554.65
849.2921	961.0888	50226.45	49270.7
849.4373	963.1007	50360.1	49411.05
849.5824	965.1119	50252.1	49310.7
849.7275	967.1223	50087.6	49152.1
849.8727	969.1321	50145.05	49205.4
850.0178	971.1412	49894.8	48953.05
850.1629	973.1495	49714.05	48766
850.3081	975.1572	49756.3	48772.8
850.4532	977.1641	49637.4	48687.9
850.5983	979.1704	49504.3	48552.9
850.7435	981.1759	49344.35	48393.75
850.8886	983.1808	49248.15	48291.5
851.0337	985.1849	49214.8	48254.8
851.1788	987.1884	49257.55	48307.95
851.324	989.1911	49460.7	48513.2
851.4691	991.1932	49249.85	48301.8
851.6142	993.1945	49235.35	48288.3
851.7593	995.1951	49056.4	48108.35
851.9045	997.1951	48819.35	47865
852.0496	999.1943	48610.6	47663.15
852.1947	1001.1928	48325.3	47376.55
852.3398	1003.1906	48169.8	47218.1
852.4849	1005.1877	48049.05	47097.1
852.63	1007.1841	47760.8	46812.8
852.7751	1009.1798	47475.05	46526.45
852.9202	1011.1748	47114.7	46165.95
853.0653	1013.1691	46823.25	45871.75
853.2104	1015.1627	46343.7	45397.7
853.3555	1017.1556	45916.35	44966.85
853.5006	1019.1477	45777.9	44830.45
853.6457	1021.1392	45441.1	44499.5
853.7908	1023.1299	45172.8	44233
853.9359	1025.12	45037.85	44104.7
854.081	1027.1093	44902.65	43976.75
854.2261	1029.0979	44825.95	43900.2
854.3712	1031.0859	44664.35	43732.9
854.5163	1033.0731	44520.9	43584.4
854.6613	1035.0596	44351.75	43411.75
854.8064	1037.0454	43958.8	43014.55
854.9515	1039.0304	43714.3	42770.7
855.0965	1041.0148	43447.7	42501.1
855.2416	1042.9985	43198.1	42251.65
855.3867	1044.9814	43130.3	42185.1
855.5317	1046.9636	42899.85	41951.9
855.6768	1048.9452	42602.25	41656.55
855.8219	1050.926	42610.25	41667.7
855.9669	1052.9061	42414.45	41469.2
856.112	1054.8855	42244.6	41298.25
856.257	1056.8642	42262.35	41315.5
856.4021	1058.8421	42219.25	41270.2
856.5471	1060.8194	42065.1	41120.2
856.6921	1062.7959	41972.7	41024.15
856.8372	1064.7717	41819.75	40868.85
856.9822	1066.7469	41725.25	40778.9
857.1272	1068.7213	41579.65	40632.4
857.2723	1070.695	41491.85	40544.55
857.4173	1072.6679	41137.9	40195.55
857.5623	1074.6402	41051.5	40103.55
857.7073	1076.6117	40993.65	40042.05
857.8523	1078.5826	40918.9	39972.25
857.9973	1080.5527	40874.45	39927.9
858.1423	1082.5221	40907.5	39964.5
858.2873	1084.4908	40996	40051.15
858.4323	1086.4587	41096.05	40148
858.5773	1088.426	41145.35	40195.9
858.7223	1090.3925	41006.15	40051.9
858.8673	1092.3584	40868.9	39922.95
859.0123	1094.3235	40472.95	39527
859.1573	1096.2879	40240.5	39294.45
859.3022	1098.2515	40084.4	39143.15
859.4472	1100.2145	40063	39117.95
859.5922	1102.1767	39963.55	39017.55
859.7371	1104.1382	39960.4	39019.05
859.8821	1106.099	40111.35	39165.4
860.027	1108.0591	40119.4	39172.85
860.172	1110.0185	40137.7	39190
860.3169	1111.9771	40067.3	39122.65
860.4619	1113.9351	39695.95	38754.4
860.6068	1115.8923	39247.2	38301.9
860.7517	1117.8488	38731.65	37782.25
860.8967	1119.8045	38328.7	37384
861.0416	1121.7596	38099.25	37154.05
861.1865	1123.7139	37864.7	36922.7
861.3314	1125.6675	37795.6	36855.5
861.4763	1127.6204	37862.95	36915.6
861.6212	1129.5726	37763.5	36821.25
861.7661	1131.524	37720.65	36772.55
861.911	1133.4748	37709.25	36763.05
862.0559	1135.4248	37540.7	36593.3
862.2008	1137.3741	37566.85	36625.3
862.3457	1139.3226	37418.8	36472.35
862.4905	1141.2705	37337.4	36392.05
862.6354	1143.2176	37045.05	36093.15
862.7803	1145.164	37004.3	36060.45
862.9251	1147.1097	36949.95	36006.15
863.07	1149.0546	36886.05	35941.1
863.2148	1150.9989	36739.8	35796.35
863.3597	1152.9424	36559.05	35614.85
863.5045	1154.8852	36268.9	35323.4
863.6493	1156.8272	36059	35118.45
863.7942	1158.7686	35960	35008.05
863.939	1160.7092	35726.6	34782.85
864.0838	1162.6491	35517.9	34573.45
864.2286	1164.5883	35556.5	34614.55
864.3734	1166.5267	35467.9	34526
864.5182	1168.4644	35582.2	34639.8
864.663	1170.4014	35688.45	34744.5
864.8078	1172.3377	35904.5	34966.2
864.9526	1174.2732	36033.05	35090.45
865.0974	1176.2081	36187.55	35243.1
865.2421	1178.1421	36247.1	35301.35
865.3869	1180.0755	36295.85	35354.4
865.5317	1182.0082	36085.3	35142.35
865.6764	1183.9401	35991.6	35050.15
865.8212	1185.8713	35715.45	34776.6
865.9659	1187.8017	35373.25	34442.35
866.1106	1189.7315	35041.4	34114.6
866.2554	1191.6605	34621.9	33697.2
866.4001	1193.5888	34311.05	33378.6
866.5448	1195.5163	34113.05	33178.4
866.6895	1197.4432	33935.7	32993.9
866.8342	1199.3693	33793.6	32853.95
866.9789	1201.2947	33585	32636.3
867.1236	1203.2193	33395.7	32453.2
867.2683	1205.1432	33382.85	32440.6
867.413	1207.0664	33376.45	32437.05
867.5576	1208.9889	33337.75	32393.9
867.7023	1210.9106	33251.8	32312.65
867.847	1212.8316	33200.55	32264.95
867.9916	1214.7519	33244.25	32297.65
868.1363	1216.6715	33136	32198.85
868.2809	1218.5903	33004.65	32066.85
868.4255	1220.5084	32840.75	31900.35
868.5701	1222.4257	32790.85	31849.8
868.7148	1224.3424	32579.8	31643.85
868.8594	1226.2583	32522.55	31582.5
869.004	1228.1735	32517.85	31580.25
869.1486	1230.0879	32508.55	31571.25
869.2932	1232.0016	32578.6	31642.5
869.4377	1233.9146	32532.45	31590.65
869.5823	1235.8269	32314.2	31374.6
869.7269	1237.7384	32131.35	31191.3
869.8715	1239.6492	31788.05	30850.4
870.016	1241.5592	31684.15	30743.8
870.1606	1243.4686	31490.35	30551.55
870.3051	1245.3772	31301.2	30359.65
870.4496	1247.285	31167.8	30228.2
870.5941	1249.1922	30995.65	30056.65
870.7387	1251.0986	30943.15	30005.85
870.8832	1253.0042	30781.4	29843.7
871.0277	1254.9092	30783.6	29846.15
871.1722	1256.8134	30801.3	29864.65
871.3167	1258.7169	30967.15	30031.65
871.4611	1260.6196	30994.55	30057
871.6056	1262.5216	31138.2	30200.65
871.7501	1264.4229	31169.35	30233.05
871.8945	1266.3234	31259.9	30324.55
872.039	1268.2232	31222.05	30285.2
872.1834	1270.1223	31135.55	30196.65
872.3278	1272.0207	31038.55	30102.05
872.4723	1273.9183	30931.1	29988.25
872.6167	1275.8151	30756.6	29820
872.7611	1277.7113	30650.55	29713.9
872.9055	1279.6067	30352.65	29420.85
873.0499	1281.5014	30146.25	29207.85
873.1943	1283.3953	29937.05	28996.3
873.3386	1285.2885	29744.65	28811.6
873.483	1287.181	29571.85	28634.95
873.6274	1289.0727	29565.45	28633.05
873.7717	1290.9637	29519.65	28581.9
873.9161	1292.854	29597.9	28661.1
874.0604	1294.7435	29660.45	28724.4
874.2047	1296.6323	29834.85	28901.25
874.349	1298.5204	30071.15	29131.65
874.4933	1300.4077	30207.25	29269.25
874.6376	1302.2943	30393.25	29457.7
874.7819	1304.1802	30469	29535.6
874.9262	1306.0653	30276.75	29340.25
875.0705	1307.9497	30117.2	29185.15
875.2147	1309.8333	30001.6	29066.65
875.359	1311.7162	29924.8	28989.3
875.5032	1313.5984	29975.8	29036.65
875.6475	1315.4798	30054.15	29100.6
875.7917	1317.3605	30136.9	29183.5
875.9359	1319.2405	30277.55	29341.8
876.0801	1321.1197	30236	29297
876.2243	1322.9982	30174.8	29237.25
876.3685	1324.876	30152.85	29216.4
876.5127	1326.753	30019.3	29083.8
876.6569	1328.6293	30015.1	29079
876.801	1330.5048	30016.75	29079.8
876.9452	1332.3796	29877.35	28939.7
877.0893	1334.2537	29809.45	28850.65
877.2335	1336.127	29750.75	28817.25
877.3776	1337.9996	29621.05	28685.6
877.5217	1339.8714	29519.55	28585.1
877.6658	1341.7426	29373.15	28391.55
877.8099	1343.6129	29296.3	28361.75
877.954	1345.4826	29126.9	28192.45
878.0981	1347.3515	29056.25	28114.75
878.2422	1349.2196	28912.1	27972.85
878.3862	1351.087	28890.55	27954.9
878.5303	1352.9537	28879.8	27942.65
878.6743	1354.8197	28964.1	28027.25
878.8184	1356.6849	29146.75	28212.65
878.9624	1358.5493	29157.7	28224.5
879.1064	1360.4131	29084.05	28148.7
879.2504	1362.276	28938	28002.5
879.3944	1364.1383	28693.8	27760.45
879.5384	1365.9998	28374.5	27437.05
879.6823	1367.8606	27982.6	27046.75
879.8263	1369.7206	27722.9	26788.9
879.9702	1371.5799	27460.1	26522.25
880.1142	1373.4384	27263.05	26331.4
880.2581	1375.2962	27140.35	26199.9
880.402	1377.1533	26837.15	25901
880.5459	1379.0096	26385.8	25454.6
880.6898	1380.8652	26041.4	25112.25
880.8337	1382.7201	25814.4	24884.45
880.9776	1384.5742	25497.85	24564.7
881.1215	1386.4275	25246.45	24309.15
881.2653	1388.2802	25082	24150.4
881.4092	1390.132	24929.15	23993.35
881.553	1391.9832	24836.15	23902
881.6968	1393.8336	24602.05	23667.5
881.8406	1395.6832	24516.7	23581.25
881.9844	1397.5322	24388.25	23454.75
882.1282	1399.3803	24322.15	23385.4
882.272	1401.2278	24197.15	23264
882.4158	1403.0745	24089.65	23157.55
882.5595	1404.9204	23979.9	23050.8
882.7033	1406.7656	23955.9	23020.75
882.847	1408.6101	23885.55	22954.45
882.9908	1410.4538	23818.9	22885.3
883.1345	1412.2968	23809.05	22874.4
883.2782	1414.139	23744.7	22809.85
883.4219	1415.9805	23798.05	22866.65
883.5656	1417.8213	23784.05	22832.35
883.7092	1419.6613	23835	22905
883.8529	1421.5006	23998.75	23065.8
883.9965	1423.3391	24204.05	23273.3
884.1402	1425.1769	24463.2	23529.75
884.2838	1427.0139	24977.3	24046.95
884.4274	1428.8502	25491.4	24562
884.571	1430.6858	26039.4	25106.95
884.7146	1432.5206	26434.95	25506.2
884.8582	1434.3547	26647.7	25717.8
885.0018	1436.188	26682.35	25749.1
885.1453	1438.0206	26573.1	25640.4
885.2889	1439.8524	26354.45	25425.4
885.4324	1441.6835	26251	25320.2
885.5759	1443.5139	26081.9	25147.5
885.7194	1445.3435	25926.15	24998.1
885.8629	1447.1724	25849.5	24921
886.0064	1449.0005	25739.4	24809.65
886.1499	1450.8279	25534.25	24604.6
886.2933	1452.6545	25486.3	24559.35
886.4368	1454.4804	25510.55	24581.95
886.5802	1456.3056	25461.15	24526.9
886.7237	1458.13	25335.35	24406.5
886.8671	1459.9536	25127.2	24196.95
887.0105	1461.7766	24705.95	23772.6
887.1539	1463.5987	24198.85	23267.45
887.2972	1465.4202	23718.75	22786.85
887.4406	1467.2409	23300.35	22371
887.584	1469.0608	23028.6	22099.15
887.7273	1470.88	22740.7	21812.4
887.8706	1472.6984	22445.95	21520.5
888.0139	1474.5161	22179.6	21247.75
888.1572	1476.3331	21963.4	21034.75
888.3005	1478.1493	21832.4	20903.1
888.4438	1479.9648	21734.85	20805.45
888.5871	1481.7795	21584.9	20657.95
888.7303	1483.5935	21513.65	20586.55
888.8736	1485.4067	21382.8	20453.4
889.0168	1487.2192	21320.25	20391
889.16	1489.031	21242.65	20313.1
889.3032	1490.842	21165.5	20234.65
889.4464	1492.6522	21110.75	20182.75
889.5896	1494.4618	21019.9	20089.25
889.7327	1496.2705	20944.7	20018.1
889.8759	1498.0785	20902.45	19973.45
890.019	1499.8858	20847.05	19916.45
890.1622	1501.6924	20769.4	19841.65
890.3053	1503.4981	20725.05	19795.75
890.4484	1505.3032	20696	19768.55
890.5914	1507.1075	20637.6	19709.65
890.7345	1508.911	20559.7	19635.05
890.8776	1510.7138	20471.8	19546.3
891.0206	1512.5159	20365.45	19438.8
891.1637	1514.3172	20287.9	19358.45
891.3067	1516.1178	20185.95	19261
891.4497	1517.9176	20161.65	19232
891.5927	1519.7166	20051.8	19129
891.7357	1521.515	19995.95	19064.25
891.8786	1523.3126	19923.3	18995.15
892.0216	1525.1094	19841.95	18915.2
892.1645	1526.9055	19778.45	18852.15
892.3074	1528.7008	19679.25	18758.25
892.4503	1530.4954	19617.7	18690.95
892.5932	1532.2893	19589.3	18666.85
892.7361	1534.0824	19428.25	18502.5
892.879	1535.8747	19432.75	18509.6
893.0218	1537.6663	19350.95	18430.15
893.1647	1539.4572	19262.35	18339.65
893.3075	1541.2473	19246.35	18320.35
893.4503	1543.0367	19187.05	18266.4
893.5931	1544.8253	19112.5	18188.45
893.7359	1546.6132	19082.1	18157.25
893.8787	1548.4003	18987.4	18054.2
894.0214	1550.1867	18987.3	18058.45
894.1642	1551.9723	18939.95	18015.5
894.3069	1553.7572	18895.7	17973.85
894.4496	1555.5414	18894.2	17974.75
894.5923	1557.3247	18863.5	17948.95
894.735	1559.1074	18823.55	17907.65
894.8777	1560.8893	18828.5	17913.4
895.0204	1562.6705	18818.45	17900.7
895.163	1564.4509	18892.05	17978.25
895.3056	1566.2305	18896.55	17986.15
895.4482	1568.0094	18972.35	18060.4
895.5908	1569.7876	19042.05	18124.85
895.7334	1571.565	19066.1	18148.7
895.876	1573.3417	19073	18157.2
896.0186	1575.1176	19052.6	18136.15
896.1611	1576.8928	18979.7	18066.35
896.3036	1578.6672	18869.85	17962.4
896.4461	1580.4409	18722.95	17815.8
896.5886	1582.2138	18506	17595.6
896.7311	1583.986	18318.9	17405.5
896.8736	1585.7575	18247.9	17335
897.0161	1587.5282	18091.25	17182.4
897.1585	1589.2981	18020.5	17114.55
897.3009	1591.0673	17907.9	17000.95
897.4433	1592.8358	17886.1	16976.3
897.5857	1594.6035	17827.25	16913.95
897.7281	1596.3704	17727.35	16813.7
897.8705	1598.1366	17657.7	16745.1
898.0128	1599.9021	17687.75	16778.1
898.1551	1601.6668	17621.05	16709
898.2975	1603.4308	17626.25	16713.75
898.4398	1605.194	17693.05	16777.95
898.5821	1606.9564	17714.7	16810
898.7243	1608.7182	17769	16866.45
898.8666	1610.4791	17827.95	16926.85
899.0088	1612.2394	17935	17036.75
899.1511	1613.9988	18079.05	17180
899.2933	1615.7576	18251.65	17348.7
899.4355	1617.5156	18500.1	17583.1
899.5776	1619.2728	18760.05	17847.15
899.7198	1621.0293	18893	17984.45
899.862	1622.785	18910.9	18005.45
900.0041	1624.54	18796.8	17890.8
900.1462	1626.2942	18651.75	17749.2
900.2883	1628.0477	18294.45	17387.2
900.4304	1629.8005	18012.2	17104.65
900.5725	1631.5525	17706.6	16803.15
900.7145	1633.3037	17473.9	16569.8
900.8566	1635.0542	17231.4	16328.6
900.9986	1636.804	17126.85	16224.25
901.1406	1638.553	17021.2	16044.45
901.2826	1640.3013	16843.05	15937.8
901.4245	1642.0488	16756.3	15849.35
901.5665	1643.7955	16693.75	15789.3
901.7085	1645.5416	16672.1	15771.65
901.8504	1647.2868	16692.6	15790.8
901.9923	1649.0313	16708.9	15803.85
902.1342	1650.7751	16812.3	15907.4
902.2761	1652.5181	16936.35	16033.65
902.4179	1654.2604	17138.3	16235.3
902.5598	1656.0019	17382.8	16482
902.7016	1657.7427	17717.75	16813.2
902.8434	1659.4828	18092.8	17185.65
902.9852	1661.222	18331.25	17425.2
903.127	1662.9606	18322.15	17417.15
903.2687	1664.6984	18179.5	17272.25
903.4105	1666.4354	17834.9	16927.05
903.5522	1668.1717	17348.3	16439.1
903.6939	1669.9072	16837.4	15927.1
903.8356	1671.642	16458.1	15548.75
903.9773	1673.3761	16139.6	15231.9
904.119	1675.1094	15885	14981
904.2606	1676.8419	15636.55	14734.35
904.4022	1678.5737	15476.3	14570.25
904.5439	1680.3048	15373.2	14467.25
904.6855	1682.0351	15233.15	14326.7
904.827	1683.7646	15095.2	14185.8
904.9686	1685.4934	15030.05	14122.95
905.1101	1687.2215	14927.45	14022.65
905.2517	1688.9488	14818.55	13917.1
905.3932	1690.6754	14714.7	13811.9
905.5347	1692.4012	14737.7	13832.6
905.6761	1694.1263	14671.1	13767.45
905.8176	1695.8506	14603.6	13699.35
905.9591	1697.5742	14537.8	13634.8
906.1005	1699.297	14492.2	13593.55
906.2419	1701.0191	14390.3	13492.9
906.3833	1702.7404	14334.1	13435.85
906.5246	1704.461	14247.75	13344
906.666	1706.1808	14205.2	13300.85
906.8073	1707.8999	14156.2	13252.9
906.9487	1709.6182	14077.35	13178.85
907.09	1711.3358	14013.1	13115.95
907.2313	1713.0527	13998.8	13103.1
907.3725	1714.7688	13961.4	13059.1
907.5138	1716.4841	13878.45	12976.05
907.655	1718.1987	13894.05	12987.35
907.7962	1719.9126	13819.95	12920.75
907.9374	1721.6257	13759.1	12860.7
908.0786	1723.338	13735.3	12843.2
908.2198	1725.0496	13614.55	12719.15
908.3609	1726.7605	13585.05	12686
908.502	1728.4706	13536.45	12638.25
908.6431	1730.18	13469.05	12570.8
908.7842	1731.8886	13424.8	12530.95
908.9253	1733.5964	13436.15	12518
909.0664	1735.3036	13387.7	12486.9
909.2074	1737.0099	13359.75	12463.65
909.3484	1738.7156	13309.9	12414.3
909.4894	1740.4204	13263.35	12366.3
909.6304	1742.1246	13236.7	12338.4
909.7714	1743.8279	13196.25	12297.95
909.9123	1745.5306	13183.25	12288.5
910.0532	1747.2325	13120.55	12225.4
910.1941	1748.9336	13068.25	12173.9
910.335	1750.634	13005.7	12107.25
910.4759	1752.3336	13006.45	12108.1
910.6168	1754.0325	12954.3	12062.8
910.7576	1755.7307	12926.5	12033.65
910.8984	1757.4281	12925.25	12030.1
911.0392	1759.1247	12906	11999.85
911.18	1760.8206	12870	11967.4
911.3208	1762.5158	12856.85	11956.65
911.4615	1764.2102	12797.35	11899.8
911.6022	1765.9039	12724.45	11829.4
911.7429	1767.5968	12720.3	11827.9
911.8836	1769.289	12671.6	11778.85
912.0243	1770.9804	12654.2	11757.8
912.1649	1772.6711	12595.85	11697.15
912.3056	1774.361	12554.6	11656.8
912.4462	1776.0502	12571.25	11671.95
912.5868	1777.7386	12516.9	11620.1
912.7274	1779.4263	12479.5	11586.3
912.8679	1781.1132	12469.65	11577.7
913.0084	1782.7994	12416.2	11524.9
913.149	1784.4849	12391.55	11500.85
913.2895	1786.1696	12340.05	11438.55
913.4299	1787.8535	12314.2	11422.15
913.5704	1789.5367	12265.65	11374.45
913.7108	1791.2192	12269.55	11375.35
913.8513	1792.9009	12223.95	11304.4
913.9917	1794.5818	12180.1	11283.55
914.132	1796.2621	12154.15	11259.55
914.2724	1797.9415	12124.15	11228.3
914.4128	1799.6202	12107.1	11210.8
914.5531	1801.2982	12058.4	11163.3
914.6934	1802.9755	12037.4	11140.95
914.8337	1804.6519	12019.55	11125.05
914.9739	1806.3277	11980.45	11088.35
915.1142	1808.0027	11933.25	11042
915.2544	1809.6769	11930.3	11039.9
915.3946	1811.3504	11888.05	10994.2
915.5348	1813.0231	11862.55	10970.35
915.675	1814.6951	11851.7	10959.1
915.8151	1816.3664	11825.5	10929.35
915.9553	1818.0369	11784.15	10892.2
916.0954	1819.7067	11754.05	10860.75
916.2355	1821.3757	11746.05	10849.15
916.3755	1823.044	11728.7	10833.75
916.5156	1824.7115	11651.6	10757.65
916.6556	1826.3783	11610.25	10718.25
916.7956	1828.0443	11568.7	10676.3
916.9356	1829.7096	11544.1	10649.2
917.0756	1831.3741	11534.75	10637.1
917.2155	1833.0379	11540.55	10648.15
917.3555	1834.701	11474.25	10581.2
917.4954	1836.3633	11439	10546.6
917.6353	1838.0248	11444.85	10552.4
917.7751	1839.6856	11420.85	10527.15
917.915	1841.3457	11426.6	10531.25
918.0548	1843.005	11387.4	10493.65
918.1946	1844.6636	11341.6	10447.4
918.3344	1846.3214	11281.65	10388.45
918.4742	1847.9785	11307.6	10410.3
918.6139	1849.6349	11274.9	10378.35
918.7537	1851.2904	11261.65	10357.05
918.8934	1852.9453	11212.4	10316
919.0331	1854.5994	11168.65	10269.75
919.1727	1856.2528	11196.15	10296.7
919.3124	1857.9054	11158.4	10262.3
919.452	1859.5572	11142.55	10249.3
919.5916	1861.2083	11122.1	10225.5
919.7312	1862.8587	11136.45	10244.05
919.8708	1864.5084	11069.45	10173.6
920.0103	1866.1572	11011.3	10115.8
920.1498	1867.8054	10989.55	10094.25
920.2893	1869.4528	10959.1	10062.65
920.4288	1871.0994	10940.85	10046.4
920.5683	1872.7453	10928.1	10032.3
920.7077	1874.3905	10944.3	10034.1
920.8471	1876.0349	10868.05	9973.05
920.9865	1877.6786	10832.1	9936.25
921.1259	1879.3215	10823.6	9927.9
921.2653	1880.9637	10808.05	9912.7
921.4046	1882.6051	10788.75	9895.3
921.5439	1884.2458	10758.9	9863.75
921.6832	1885.8858	10716	9823.35
921.8225	1887.525	10686.95	9792.15
921.9617	1889.1634	10643.2	9747.6
922.101	1890.8011	10624	9727.1
922.2402	1892.4381	10593.2	9697.75
922.3794	1894.0743	10580.8	9689.2
922.5185	1895.7098	10560.2	9664.35
922.6577	1897.3446	10530.25	9634.85
922.7968	1898.9786	10499.4	9602.3
922.9359	1900.6118	10493.75	9602.75
923.075	1902.2443	10419.2	9522.25
923.214	1903.8761	10408.6	9515.05
923.3531	1905.5071	10351.8	9458.2
923.4921	1907.1374	10306.85	9414.45
923.6311	1908.7669	10304.05	9409.6
923.77	1910.3957	10294.45	9401.35
923.909	1912.0237	10214.3	9322.35
924.0479	1913.651	10212.6	9321.45
924.1868	1915.2776	10200.2	9307.9
924.3257	1916.9034	10171.6	9281.65
924.4646	1918.5285	10096.7	9207.9
924.6034	1920.1528	10070.2	9176.65
924.7422	1921.7764	10043.5	9151.35
924.881	1923.3992	10008.85	9113.95
925.0198	1925.0213	9948.85	9057
925.1586	1926.6427	9907.9	9016.6
925.2973	1928.2633	9965.25	9000.55
925.436	1929.8832	9872.65	8977.45
925.5747	1931.5023	9826.85	8935.15
925.7134	1933.1207	9799.85	8906.9
925.852	1934.7383	9786.3	8894.65
925.9906	1936.3552	9761.7	8870.7
926.1292	1937.9714	9723.75	8831.7
926.2678	1939.5868	9678.95	8785
926.4064	1941.2015	9643.8	8749.55
926.5449	1942.8154	9620.35	8726.5
926.6834	1944.4286	9579.35	8683.55
926.8219	1946.041	9549.45	8635.65
926.9604	1947.6528	9479	8582.55
927.0988	1949.2637	9455.25	8566.2
927.2372	1950.8739	9417.45	8526.75
927.3756	1952.4834	9423.05	8531.35
927.514	1954.0921	9374.7	8483.95
927.6523	1955.7001	9335.85	8439.75
927.7907	1957.3074	9324.35	8433.8
927.929	1958.9139	9280.95	8392.2
928.0673	1960.5197	9291.35	8403.2
928.2055	1962.1247	9226.2	8336.6
928.3438	1963.729	9175.5	8288
928.482	1965.3325	9158.25	8244.8
928.6202	1966.9353	9145.85	8258.35
928.7584	1968.5374	9099.8	8209.1
928.8965	1970.1387	9073.3	8183.4
929.0346	1971.7393	9040.2	8150.65
929.1727	1973.3392	9021.15	8130.95
929.3108	1974.9383	9006.55	8119.25
929.4489	1976.5366	8932.8	8048.3
929.5869	1978.1342	8942.05	8053.75
929.7249	1979.7311	8910.3	8021.1
929.8629	1981.3273	8882.3	7994.5
930.0009	1982.9227	8863.6	7975.8
930.1388	1984.5173	8804.8	7919.4
930.2767	1986.1112	8768.5	7882.2
930.4146	1987.7044	8752.55	7868.15
930.5525	1989.2968	8741.55	7854.65
930.6904	1990.8885	8717.65	7828.5
930.8282	1992.4795	8687.95	7801.15
930.966	1994.0697	8658.6	7773.3
931.1038	1995.6592	8654.75	7769.5
931.2415	1997.2479	8615	7728.4
931.3793	1998.8359	8613.3	7726.3
931.517	2000.4232	8542.6	7657.8
931.6547	2002.0097	8546.65	7665.6
931.7923	2003.5955	8508.95	7627.4
931.93	2005.1805	8494.15	7609.8
932.0676	2006.7648	8457.8	7572.75
932.2052	2008.3484	8440.05	7555.4
932.3427	2009.9312	8453.7	7568.7
932.4803	2011.5133	8397.4	7514.95
932.6178	2013.0946	8372.25	7488.35
932.7553	2014.6752	8341.35	7456.75
932.8928	2016.2551	8333.5	7448.25
933.0302	2017.8342	8293.8	7410.55
933.1676	2019.4126	8267.6	7383.55
933.305	2020.9902	8239.75	7358.15
933.4424	2022.5672	8227.8	7343.45
933.5798	2024.1433	8194.25	7306.9
933.7171	2025.7188	8152.3	7270.75
933.8544	2027.2935	8153.9	7268.25
933.9917	2028.8674	8135.25	7253.75
934.129	2030.4406	8105.3	7224.85
934.2662	2032.0131	8071.55	7191.65
934.4034	2033.5849	8045.05	7157.6
934.5406	2035.1559	8022.6	7140.4
934.6778	2036.7261	8019	7134
934.8149	2038.2957	8013.8	7129.8
934.952	2039.8645	8002.15	7116.75
935.0891	2041.4325	7969.35	7081.1
935.2262	2042.9998	7937.7	7055.55
935.3632	2044.5664	7915.1	7030.1
935.5002	2046.1323	7911.7	7031.45
935.6372	2047.6974	7873.3	6989.45
935.7742	2049.2617	7848.05	6967
935.9111	2050.8254	7842.5	6952.85
936.048	2052.3883	7835.15	6949.3
936.1849	2053.9504	7805.1	6922.15
936.3218	2055.5118	7771.7	6888.05
936.4586	2057.0725	7755.35	6867.05
936.5955	2058.6325	7728.4	6844.8
936.7323	2060.1917	7711.6	6827.15
936.869	2061.7502	7707.55	6823.25
937.0058	2063.3079	7672.45	6792.5
937.1425	2064.8649	7627.45	6742
937.2792	2066.4212	7607.15	6721.75
937.4159	2067.9767	7589.75	6707.25
937.5525	2069.5315	7564.5	6680.4
937.6891	2071.0856	7548.55	6664.65
937.8257	2072.6389	7514	6632.9
937.9623	2074.1915	7478.8	6597.85
938.0989	2075.7433	7440.35	6555.3
938.2354	2077.2945	7433.45	6551.95
938.3719	2078.8448	7417.05	6532.2
938.5084	2080.3945	7406.35	6523.15
938.6448	2081.9434	7392.85	6507.75
938.7812	2083.4916	7347.25	6461.45
938.9176	2085.039	7353.7	6465.35
939.054	2086.5857	7330.25	6439.3
939.1903	2088.1317	7321.3	6430.15
939.3267	2089.677	7290.2	6399
939.463	2091.2215	7251.6	6362.75
939.5992	2092.7652	7226.25	6335.05
939.7355	2094.3083	7223.55	6335.1
939.8717	2095.8506	7224.35	6339.4
940.0079	2097.3921	7203.65	6317.5
940.1441	2098.933	7185.85	6300.95
940.2802	2100.4731	7180.1	6294.55
940.4163	2102.0124	7138.8	6245
940.5524	2103.5511	7146.9	6260.1
940.6885	2105.089	7128.8	6241.25
940.8245	2106.6261	7099.1	6211.8
940.9606	2108.1626	7087.8	6202.15
941.0965	2109.6983	7076.2	6161.8
941.2325	2111.2332	7051.5	6163.3
941.3684	2112.7675	7029.05	6141.35
941.5044	2114.301	7020.8	6130.7
941.6403	2115.8337	7009.9	6122.75
941.7761	2117.3657	6978.75	6091.05
941.912	2118.897	6963.55	6075.05
942.0478	2120.4276	6939.8	6047.25
942.1835	2121.9575	6920.15	6031.9
942.3193	2123.4866	6926.55	6026.3
942.455	2125.0149	6893.7	6002.85
942.5907	2126.5426	6843.65	5958.75
942.7264	2128.0695	6830.75	5943.45
942.8621	2129.5956	6817	5935.25
942.9977	2131.1211	6833.25	5944.45
943.1333	2132.6458	6817.85	5934.2
943.2689	2134.1698	6783.45	5893.6
943.4044	2135.693	6774.2	5881.8
943.54	2137.2155	6767.6	5876.15
943.6755	2138.7373	6739.7	5852.5
943.8109	2140.2584	6711.4	5827.8
943.9464	2141.7787	6678.4	5787.55
944.0818	2143.2983	6643.8	5762.55
944.2172	2144.8171	6612.6	5731.45
944.3526	2146.3353	6624.55	5738.55
944.4879	2147.8527	6606.75	5720.6
944.6232	2149.3693	6589.65	5700.1
944.7585	2150.8853	6572	5683.9
944.8938	2152.4005	6537.3	5649.7
945.029	2153.9149	6565.65	5676.3
945.1642	2155.4287	6618.15	5621.2
945.2994	2156.9417	6542.25	5652.65
945.4346	2158.454	6498.2	5608.85
945.5697	2159.9655	6472.55	5590.55
945.7048	2161.4764	6471.95	5587
945.8399	2162.9865	6433.3	5548.15
945.9749	2164.4958	6438.75	5551.85
946.1099	2166.0045	6420.75	5531.9
946.2449	2167.5124	6411.85	5524.5
946.3799	2169.0195	6387.2	5502.05
946.5148	2170.526	6366.05	5478.9
946.6498	2172.0317	6350.25	5463.65
946.7846	2173.5367	6341.3	5452.95
946.9195	2175.0409	6319	5432.8
947.0543	2176.5445	6310.35	5425.45
947.1891	2178.0473	6270.3	5382.7
947.3239	2179.5494	6248.05	5355.65
947.4587	2181.0507	6257.95	5371.15
947.5934	2182.5513	6214.95	5327.55
947.7281	2184.0512	6215.85	5327.2
947.8628	2185.5504	6177.85	5291.45
947.9974	2187.0488	6154.65	5269.45
948.132	2188.5465	6120.65	5236.9
948.2666	2190.0435	6113.15	5225.75
948.4012	2191.5397	6093.25	5204.2
948.5357	2193.0353	6076.95	5190.8
948.6702	2194.5301	6073.1	5184.65
948.8047	2196.0241	6049.5	5159.65
948.9392	2197.5175	6049.95	5159.75
949.0736	2199.0101	6023.05	5127.9
949.208	2200.502	5986.65	5099.65
949.3424	2201.9931	5974.9	5088.85
949.4767	2203.4835	5958.6	5073.85
949.611	2204.9733	5931.15	5039.55
949.7453	2206.4622	5910.8	5026.45
949.8796	2207.9505	5913.15	5027.45
950.0138	2209.438	5855	4972.95
950.148	2210.9248	5844.8	4959.6
950.2822	2212.4109	5834	4946.4
950.4164	2213.8962	5838.15	4946.75
950.5505	2215.3809	5826	4933.35
950.6846	2216.8648	5808.85	4917.5
950.8186	2218.3479	5804.2	4909.65
950.9527	2219.8304	5757	4862.45
951.0867	2221.3121	5740.25	4845.65
951.2207	2222.7931	5723.9	4834.3
951.3546	2224.2733	5711.7	4822.65
951.4886	2225.7529	5672.1	4783.85
951.6225	2227.2317	5641.05	4752.65
951.7563	2228.7098	5663.5	4778.75
951.8902	2230.1872	5654.75	4770.2
952.024	2231.6638	5641	4756
952.1578	2233.1397	5601.85	4714.15
952.2916	2234.6149	5599.05	4714.1
952.4253	2236.0894	5575.8	4690.2
952.559	2237.5632	5556	4669.35
952.6927	2239.0362	5544.8	4659.5
952.8263	2240.5085	5532.25	4644.5
952.9599	2241.9801	5516	4628.75
953.0935	2243.4509	5501.5	4613.05
953.2271	2244.921	5481.4	4592.95
953.3606	2246.3904	5458.45	4565.9
953.4941	2247.8591	5451.9	4564.4
953.6276	2249.3271	5434.75	4546.2
953.7611	2250.7943	5422.65	4529.65
953.8945	2252.2608	5407.5	4517.6
954.0279	2253.7266	5387.9	4500.2
954.1612	2255.1917	5364.2	4477.4
954.2946	2256.656	5350.05	4462.9
954.4279	2258.1197	5332.15	4446.85
954.5612	2259.5826	5315.05	4429.15
954.6944	2261.0447	5305.4	4414.95
954.8276	2262.5062	5281.85	4391.95
954.9608	2263.9669	5274.9	4383.85
955.094	2265.4269	5257.55	4369.15
955.2271	2266.8862	5269.7	4382.6
955.3602	2268.3448	5257.25	4371.45
955.4933	2269.8026	5224.65	4338.95
955.6264	2271.2598	5222.2	4336.25
955.7594	2272.7162	5206.2	4321.15
955.8924	2274.1719	5185.2	4296.75
956.0253	2275.6268	5183.45	4294.25
956.1583	2277.0811	5186	4296.25
956.2912	2278.5346	5163.65	4277.65
956.4241	2279.9874	5146.4	4259.9
956.5569	2281.4395	5138.15	4253.7
956.6897	2282.8908	5121.25	4231.7
956.8225	2284.3414	5106.75	4215.75
956.9553	2285.7914	5083.65	4197.2
957.088	2287.2406	5068.35	4178.05
957.2207	2288.689	5066.65	4177.15
957.3534	2290.1368	5062.95	4168.95
957.486	2291.5838	5035.55	4141.25
957.6186	2293.0302	5055.15	4162.1
957.7512	2294.4758	5013.6	4122.85
957.8838	2295.9206	5003.7	4112.2
958.0163	2297.3648	4983.8	4095.2
958.1488	2298.8082	4968.35	4082.45
958.2813	2300.251	4974.65	4086.6
958.4137	2301.693	4948.6	4056.8
958.5461	2303.1343	4942.25	4050.5
958.6785	2304.5748	4915.8	4026.05
958.8108	2306.0147	4890.8	4004.8
958.9432	2307.4538	4887.25	3999.1
959.0754	2308.8922	4883.35	4000.05
959.2077	2310.3299	4872.4	3988.95
959.3399	2311.7669	4848.1	3961.6
959.4721	2313.2031	4837.1	3949.3
959.6043	2314.6387	4826.45	3936.8
959.7365	2316.0735	4797.45	3909.1
959.8686	2317.5076	4790.5	3903.2
960.0006	2318.941	4789.5	3899.55
960.1327	2320.3737	4762.55	3871.6
960.2647	2321.8056	4757.45	3863.8
960.3967	2323.2369	4739.3	3850.05
960.5287	2324.6674	4726.55	3837
960.6606	2326.0972	4718.6	3828.4
960.7925	2327.5263	4706.45	3820.35
960.9244	2328.9547	4695.1	3805.7
961.0562	2330.3823	4688.4	3797.1
961.1881	2331.8092	4696.45	3802.35
961.3198	2333.2355	4656.5	3765.2
961.4516	2334.661	4659	3768.15
961.5833	2336.0858	4655	3764
961.715	2337.5098	4633.85	3745.1
961.8467	2338.9332	4635.55	3746.95
961.9783	2340.3558	4616.95	3727.1
962.1099	2341.7778	4588.55	3700.5
962.2415	2343.199	4556.55	3666.95
962.373	2344.6195	4552.7	3668
962.5045	2346.0393	4554.3	3670.1
962.636	2347.4583	4540	3651.3
962.7675	2348.8767	4518.5	3627.95
962.8989	2350.2943	4512.95	3620.95
963.0303	2351.7113	4509.9	3617.4
963.1617	2353.1275	4494.4	3602.5
963.293	2354.543	4512.5	3598.65
963.4243	2355.9578	4487.3	3596.15
963.5556	2357.3718	4461.05	3572.9
963.6868	2358.7852	4439.1	3551.05
963.818	2360.1978	4428.7	3542.45
963.9492	2361.6098	4424.35	3535.85
964.0803	2363.021	4429.7	3538.45
964.2114	2364.4315	4389.65	3500.4
964.3425	2365.8413	4374.65	3482.2
964.4736	2367.2504	4362.25	3476.75
964.6046	2368.6587	4362.25	3476.4
964.7356	2370.0664	4352.2	3465.15
964.8666	2371.4733	4322.15	3433.5
964.9975	2372.8795	4315.7	3427.15
965.1284	2374.285	4297.4	3407.85
965.2593	2375.6899	4285.8	3399.45
965.3901	2377.0939	4256.95	3372.4
965.5209	2378.4973	4243.25	3355.95
965.6517	2379.9	4233.15	3347
965.7825	2381.3019	4221.85	3335.95
965.9132	2382.7032	4210.85	3327.3
966.0439	2384.1037	4204.4	3321.95
966.1745	2385.5035	4176.65	3291.6
966.3051	2386.9027	4176.9	3292.35
966.4357	2388.3011	4172.4	3284.1
966.5663	2389.6987	4161.15	3274.55
966.6968	2391.0957	4126.9	3242.25
966.8273	2392.492	4129.55	3242.4
966.9578	2393.8876	4101.65	3215.55
967.0882	2395.2824	4099.85	3213.25
967.2186	2396.6765	4085.05	3201.5
967.349	2398.07	4061.6	3173.2
967.4793	2399.4627	4057.9	3168.05
967.6097	2400.8547	4065.1	3176.9
967.7399	2402.246	4047.75	3154.2
967.8702	2403.6366	4015.25	3126.3
968.0004	2405.0265	4012	3128.75
968.1306	2406.4156	3994.4	3105
968.2607	2407.8041	3979.4	3088
968.3909	2409.1918	3985.85	3098.4
968.521	2410.5789	3964.3	3076.6
968.651	2411.9652	3941.35	3051.65
968.781	2413.3508	3935.2	3046.5
968.911	2414.7358	3914.05	3026.4
969.041	2416.12	3907.6	3022
969.1709	2417.5035	3903.8	3016.75
969.3008	2418.8863	3901.85	3015.45
969.4307	2420.2684	3895.45	3008.85
969.5606	2421.6497	3873.1	2986.7
969.6904	2423.0304	3846.25	2960.9
969.8201	2424.4104	3848.2	2959.6
969.9499	2425.7896	3826.45	2936.2
970.0796	2427.1682	3819.3	2933.55
970.2093	2428.546	3809.4	2921.8
970.3389	2429.9232	3812.1	2924.05
970.4685	2431.2996	3805.35	2920.6
970.5981	2432.6753	3795.25	2906.35
970.7277	2434.0503	3781.95	2893.2
970.8572	2435.4246	3756.4	2870.35
970.9867	2436.7982	3768.35	2876.3
971.1161	2438.1711	3747.3	2859.9
971.2456	2439.5433	3761.75	2872.65
971.375	2440.9148	3730.55	2838
971.5043	2442.2856	3699.75	2810.65
971.6336	2443.6557	3708.2	2819.8
971.7629	2445.025	3690.3	2803.35
971.8922	2446.3937	3696.05	2807.35
972.0214	2447.7617	3666.8	2779.55
972.1506	2449.1289	3668.55	2780.75
972.2798	2450.4955	3661.65	2771.15
972.4089	2451.8613	3656.9	2770.55
972.538	2453.2265	3647.3	2760.35
972.6671	2454.5909	3647.3	2758.9
972.7961	2455.9546	3634.8	2747.95
972.9251	2457.3177	3619.7	2733.3
973.0541	2458.68	3606.25	2716.75
973.1831	2460.0416	3605.1	2715.1
973.312	2461.4025	3603.1	2716.35
973.4408	2462.7627	3601.95	2704.85
973.5697	2464.1222	3580.1	2695.9
973.6985	2465.4811	3566.35	2680.8
973.8273	2466.8392	3567.1	2677.45
973.956	2468.1966	3563.25	2673.5
974.0847	2469.5533	3576.95	2688.4
974.2134	2470.9093	3549.05	2663.2
974.3421	2472.2645	3538.5	2650.55
974.4707	2473.6191	3524.55	2639.25
974.5993	2474.973	3514.4	2626.55
974.7278	2476.3262	3517.85	2627.95
974.8563	2477.6787	3496.4	2609
974.9848	2479.0305	3478.35	2592.7
975.1132	2480.3816	3485.1	2596.65
975.2417	2481.7319	3473.65	2588.3
975.37	2483.0816	3460.75	2572.2
975.4984	2484.4306	3443.45	2556.4
975.6267	2485.7789	3420.1	2534.05
975.755	2487.1264	3428	2540.05
975.8833	2488.4733	3423.5	2537
976.0115	2489.8195	3402.05	2509.2
976.1397	2491.165	3398.9	2508.95
976.2678	2492.5097	3388.25	2500.25
976.3959	2493.8538	3368.55	2481.5
976.524	2495.1972	3349.65	2463.3
976.6521	2496.5398	3335.05	2447.15
976.7801	2497.8818	3348	2457.7
976.9081	2499.2231	3335.1	2446.85
977.036	2500.5637	3330.7	2439.9
977.164	2501.9035	3310.05	2419.35
977.2918	2503.2427	3310.9	2419.65
977.4197	2504.5812	3310.85	2425.1
977.5475	2505.919	3300.65	2409.9
977.6753	2507.256	3288.25	2401.55
977.8031	2508.5924	3270.75	2381.35
977.9308	2509.9281	3271.7	2380.85
978.0585	2511.2631	3251.05	2363.3
978.1861	2512.5974	3247.1	2362.2
978.3137	2513.9309	3244.8	2357.3
978.4413	2515.2638	3263.2	2353.55
978.5689	2516.596	3235.35	2347.2
978.6964	2517.9275	3220.3	2331.05
978.8239	2519.2583	3216.45	2328.45
978.9513	2520.5884	3194.35	2305.8
979.0788	2521.9178	3186.65	2299.55
979.2062	2523.2465	3187.25	2301.45
979.3335	2524.5745	3175.4	2292.25
979.4608	2525.9018	3162.95	2277.6
979.5881	2527.2284	3155.85	2268.8
979.7154	2528.5543	3163.5	2277.85
979.8426	2529.8796	3146.9	2258.95
979.9698	2531.2041	3131.95	2242.8
980.0969	2532.5279	3132.5	2247.6
980.224	2533.851	3127.75	2241.85
980.3511	2535.1735	3121.05	2233.35
980.4781	2536.4952	3119.1	2231.45
980.6052	2537.8163	3106.1	2217.65
980.7321	2539.1366	3099.55	2213.1
980.8591	2540.4562	3095.8	2203.65
980.986	2541.7752	3091.75	2204.9
981.1129	2543.0935	3082.8	2196.05
981.2397	2544.411	3082.9	2193.65
981.3665	2545.7279	3076.9	2186.9
981.4933	2547.0441	3069.15	2180.85
981.62	2548.3596	3068.05	2175.35
981.7467	2549.6744	3058.3	2170.6
981.8734	2550.9885	3046.8	2150.05
982.0001	2552.3019	3032.9	2146.05
982.1267	2553.6146	3039.5	2150.55
982.2532	2554.9266	3031.8	2141.25
982.3798	2556.2379	3026.8	2138.45
982.5063	2557.5485	3016.6	2130.9
982.6327	2558.8585	3019.8	2126.75
982.7592	2560.1677	3014.5	2123.25
982.8856	2561.4762	3007.2	2117.05
983.0119	2562.7841	2997.4	2106.15
983.1383	2564.0913	2986.45	2099.15
983.2646	2565.3977	2981.65	2094.25
983.3908	2566.7035	2966.1	2076.7
983.517	2568.0086	2967.6	2077.7
983.6432	2569.313	2970.45	2082.05
983.7694	2570.6167	2956.4	2065.35
983.8955	2571.9197	2958.6	2072.3
984.0216	2573.222	2958.15	2065.75
984.1476	2574.5236	2950.65	2062.9
984.2737	2575.8246	2951.55	2060.85
984.3996	2577.1248	2947.2	2056.2
984.5256	2578.4244	2935.2	2046.65
984.6515	2579.7232	2937	2048.9
984.7774	2581.0214	2945.9	2028.15
984.9032	2582.3189	2938.45	2050.8
985.029	2583.6157	2917.55	2023.75
985.1548	2584.9118	2918.95	2030.25
985.2806	2586.2072	2916	2025.85
985.4063	2587.5019	2910.15	2021.3
985.5319	2588.7959	2906.35	2019.4
985.6576	2590.0893	2895.5	2002.05
985.7832	2591.3819	2898.15	2009.9
985.9087	2592.6739	2871.8	1985.15
986.0343	2593.9652	2887.1	1998.25
986.1597	2595.2557	2881.4	1993.05
986.2852	2596.5456	2865.2	1974.2
986.4106	2597.8348	2864.15	1977.05
986.536	2599.1234	2849.7	1961
986.6614	2600.4112	2854.8	1966.45
986.7867	2601.6983	2865.15	1975.35
986.912	2602.9848	2849.3	1959.4
987.0372	2604.2705	2836.65	1941.75
987.1624	2605.5556	2844.95	1956.35
987.2876	2606.84	2830.45	1942.65
987.4128	2608.1237	2823.75	1934.9
987.5379	2609.4067	2813.5	1924.4
987.6629	2610.689	2802.05	1905.8
987.788	2611.9707	2798.05	1906.7
987.913	2613.2516	2798.75	1904.5
988.0379	2614.5319	2774.45	1886.8
988.1629	2615.8115	2786.7	1897.2
988.2878	2617.0903	2782.1	1892.75
988.4126	2618.3685	2760.85	1872.75
988.5375	2619.6461	2751.6	1864.15
988.6622	2620.9229	2735.85	1850.15
988.787	2622.199	2754.65	1864.55
988.9117	2623.4745	2741	1851.5
989.0364	2624.7493	2730	1840.65
989.161	2626.0234	2724.5	1835.25
989.2857	2627.2968	2724.65	1837.85
989.4102	2628.5695	2718.45	1829
989.5348	2629.8415	2697.4	1809.45
989.6593	2631.1128	2688.5	1800.35
989.7837	2632.3835	2691.15	1803.75
989.9082	2633.6535	2686.4	1798.95
990.0326	2634.9228	2675.95	1789.4
990.1569	2636.1914	2678	1790.4
990.2812	2637.4593	2685.25	1796
990.4055	2638.7265	2665.25	1776.4
990.5298	2639.9931	2662.5	1773.75
990.654	2641.259	2647.8	1757.7
990.7782	2642.5242	2645.1	1756.2
990.9023	2643.7887	2645.15	1759
991.0264	2645.0525	2631.95	1744.75
991.1505	2646.3156	2634.35	1731.15
991.2745	2647.5781	2609.85	1721.35
991.3985	2648.8398	2621.8	1733.4
991.5225	2650.1009	2621.15	1710.7
991.6464	2651.3613	2612.8	1724.85
991.7703	2652.6211	2602.35	1714.95
991.8942	2653.8801	2588.7	1703.75
992.018	2655.1385	2585.45	1694.15
992.1418	2656.3961	2576.2	1689.15
992.2655	2657.6531	2580	1694.95
992.3892	2658.9094	2582.95	1694.05
992.5129	2660.1651	2573.6	1689.1
992.6366	2661.42	2567.85	1680.3
992.7602	2662.6743	2575.7	1686.7
992.8837	2663.9279	2568	1683.6
993.0073	2665.1808	2563.45	1675.65
993.1307	2666.433	2560.5	1671.95
993.2542	2667.6846	2562.5	1675.75
993.3776	2668.9354	2555.65	1665.15
993.501	2670.1856	2542.15	1653.6
993.6244	2671.4351	2539.4	1652.5
993.7477	2672.6839	2560.8	1672.5
993.8709	2673.9321	2548.7	1661
993.9942	2675.1795	2547.3	1660.6
994.1174	2676.4263	2547.4	1660.15
994.2405	2677.6724	2541.05	1654.55
994.3637	2678.9179	2532.1	1646.1
994.4868	2680.1626	2537.95	1651
994.6098	2681.4067	2541.5	1653.95
994.7328	2682.6501	2525.6	1638.2
994.8558	2683.8928	2525	1639
994.9788	2685.1348	2520.9	1632.85
995.1017	2686.3761	2500.55	1614.05
995.2245	2687.6168	2499.15	1612
995.3474	2688.8568	2483.3	1595.65
995.4702	2690.0961	2485.3	1597.9
995.5929	2691.3348	2478.8	1591.4
995.7156	2692.5727	2471.7	1585.2
995.8383	2693.81	2462.45	1575.9
995.961	2695.0466	2449.25	1565.8
996.0836	2696.2826	2450.4	1563.55
996.2062	2697.5178	2457.45	1567.25
996.3287	2698.7524	2441.35	1554.4
996.4512	2699.9863	2448.25	1559.35
996.5737	2701.2195	2434.8	1548.65
996.6961	2702.452	2441.75	1554.45
996.8185	2703.6839	2449.8	1563.05
996.9408	2704.9151	2434.35	1550.4
997.0631	2706.1456	2431.4	1544.4
997.1854	2707.3755	2445.7	1557.2
997.3077	2708.6046	2447.15	1557.45
997.4299	2709.8331	2436.7	1549.9
997.552	2711.0609	2443.05	1558.45
997.6742	2712.2881	2446.55	1559.5
997.7963	2713.5145	2460.2	1571.5
997.9183	2714.7403	2458.2	1571.7
998.0403	2715.9654	2459.15	1572.75
998.1623	2717.1899	2489.3	1587.2
998.2842	2718.4136	2481.1	1597.15
998.4062	2719.6367	2487.75	1601.5
998.528	2720.8591	2502.6	1609.15
998.6498	2722.0809	2500.85	1613.45
998.7716	2723.3019	2506.05	1617.3
998.8934	2724.5223	2518.1	1630.6
999.0151	2725.7421	2513.2	1624.9
999.1368	2726.9611	2499.2	1609.95
999.2584	2728.1795	2513.45	1620.65
999.38	2729.3972	2492.05	1605.15
999.5016	2730.6142	2485.65	1585
999.6231	2731.8306	2462.5	1576.45
999.7446	2733.0462	2446.3	1558.15
999.8661	2734.2612	2423.05	1532.3
999.9875	2735.4756	2409.55	1519.8
1000.1089	2736.6892	2379.4	1491.3
1000.2302	2737.9022	2361.9	1480.3
1000.3515	2739.1145	2341.5	1452.75
1000.4728	2740.3262	2340.5	1448.75
1000.594	2741.5372	2308.9	1424.2
1000.7152	2742.7475	2290.3	1404.3
1000.8363	2743.9571	2298.8	1410.85
1000.9575	2745.1661	2281.15	1390.4
1001.0785	2746.3744	2249.85	1363.75
1001.1996	2747.582	2241.65	1356.3
1001.3206	2748.7889	2233.9	1346.4
1001.4415	2749.9952	2234.95	1350.3
1001.5625	2751.2008	2211.2	1323.6
1001.6833	2752.4057	2221.85	1334
1001.8042	2753.61	2195.65	1307.95
1001.925	2754.8136	2200.15	1311.3
1002.0458	2756.0165	2198.55	1312.85
1002.1665	2757.2188	2190.85	1308.5
1002.2872	2758.4204	2186.7	1300.8
1002.4078	2759.6213	2188.5	1300.85
1002.5285	2760.8215	2179.95	1288.65
1002.649	2762.0211	2177.25	1289.55
1002.7696	2763.22	2162.95	1272.7
1002.8901	2764.4182	2167.4	1278.3
1003.0106	2765.6158	2149.9	1263.65
1003.131	2766.8127	2158.6	1272.55
1003.2514	2768.009	2144.4	1259.7
1003.3717	2769.2045	2140.05	1254.85
1003.492	2770.3994	2153.6	1265.2
1003.6123	2771.5936	2128.05	1243.05
1003.7325	2772.7872	2128.05	1242.2
1003.8527	2773.9801	2114.15	1227.15
1003.9729	2775.1723	2125.25	1223.7
1004.093	2776.3639	2109.9	1223.7
1004.2131	2777.5548	2111.25	1224.9
1004.3331	2778.745	2102.9	1215.8
1004.4531	2779.9346	2103.2	1220.5
1004.5731	2781.1235	2108.8	1221.7
1004.693	2782.3117	2110.5	1225.65
1004.8129	2783.4992	2114.65	1227.75
1004.9328	2784.6861	2104	1219.2
1005.0526	2785.8723	2113.8	1228.25
1005.1723	2787.0579	2125.3	1240.35
1005.2921	2788.2428	2113.25	1229.1
1005.4118	2789.427	2122.7	1238.35
1005.5314	2790.6106	2135.8	1249.8
1005.651	2791.7935	2141.2	1257.4
1005.7706	2792.9757	2152.75	1268.55
1005.8902	2794.1573	2159.6	1273.4
1006.0097	2795.3382	2159.95	1276.5
1006.1291	2796.5184	2176.4	1294.7
1006.2485	2797.698	2200.2	1313.55
1006.3679	2798.8769	2206.35	1323.3
1006.4873	2800.0551	2229.35	1346.2
1006.6066	2801.2327	2231.25	1342.4
1006.7258	2802.4096	2243.3	1359.2
1006.8451	2803.5859	2268.7	1382.35
1006.9642	2804.7615	2291.45	1407.9
1007.0834	2805.9364	2315.95	1433.8
1007.2025	2807.1106	2334.35	1450.4
1007.3216	2808.2842	2365.3	1479.6
1007.4406	2809.4572	2398	1513.85
1007.5596	2810.6294	2431.35	1548.05
1007.6785	2811.801	2465.05	1579.45
1007.7975	2812.972	2510.5	1625.55
1007.9163	2814.1423	2557.05	1670.3
1008.0352	2815.3119	2600.7	1714.5
1008.154	2816.4808	2649.45	1764.95
1008.2727	2817.6491	2690.9	1806.6
1008.3914	2818.8167	2739.95	1856.6
1008.5101	2819.9837	2789.3	1899.75
1008.6288	2821.15	2832.1	1946.75
1008.7474	2822.3157	2863.35	1978.05
1008.8659	2823.4807	2911.25	2026.3
1008.9844	2824.645	2946	2059.05
1009.1029	2825.8086	2994.5	2108.95
1009.2214	2826.9716	3032.05	2149
1009.3398	2828.134	3061.15	2176.85
1009.4581	2829.2957	3115.3	2230.5
1009.5764	2830.4567	3125.4	2239.75
1009.6947	2831.617	3148.7	2265.15
1009.813	2832.7767	3142.95	2259.2
1009.9312	2833.9358	3146.05	2264.1
1010.0493	2835.0941	3142.25	2255
1010.1675	2836.2519	3122.3	2238.2
1010.2855	2837.4089	3112.05	2229.2
1010.4036	2838.5653	3111.2	2227.8
1010.5216	2839.7211	3117.25	2234.3
1010.6396	2840.8761	3116.3	2229.95
1010.7575	2842.0306	3134.85	2250.75
1010.8754	2843.1843	3172.25	2288.1
1010.9932	2844.3374	3212.4	2327.6
1011.111	2845.4899	3284.75	2401.45
1011.2288	2846.6417	3362.5	2477.7
1011.3465	2847.7928	3436	2553.7
1011.4642	2848.9433	3513.6	2629.9
1011.5818	2850.0931	3591.75	2705.45
1011.6995	2851.2422	3670.5	2785.1
1011.817	2852.3907	3750.9	2866.8
1011.9345	2853.5385	3807.95	2920.85
1012.052	2854.6857	3870.6	2976.9
1012.1695	2855.8323	3907.15	3025.9
1012.2869	2856.9781	3968.2	3083.25
1012.4042	2858.1233	4020.75	3136.2
1012.5216	2859.2679	4031.4	3147.6
1012.6389	2860.4118	4092.9	3210.15
1012.7561	2861.555	4143.3	3255.8
1012.8733	2862.6976	4161.2	3278.4
1012.9905	2863.8395	4190.15	3306.3
1013.1076	2864.9808	4217.5	3335
1013.2247	2866.1214	4225.75	3345.6
1013.3417	2867.2614	4242	3356.2
1013.4587	2868.4007	4248.15	3362.15
1013.5757	2869.5393	4263.8	3378.4
1013.6926	2870.6773	4278.7	3392.9
1013.8095	2871.8146	4273.95	3389.05
1013.9263	2872.9513	4276.6	3390.5
1014.0431	2874.0874	4276.8	3393.4
1014.1599	2875.2227	4266.55	3382.25
1014.2766	2876.3574	4234.7	3351.05
1014.3933	2877.4915	4222.5	3340.3
1014.51	2878.6249	4191.4	3307.75
1014.6266	2879.7577	4185.95	3300.5
1014.7431	2880.8898	4164.9	3269.65
1014.8596	2882.0212	4113.05	3230.2
1014.9761	2883.152	4105.15	3221.6
1015.0925	2884.2821	4108.8	3225.1
1015.2089	2885.4116	4074.1	3191.6
1015.3253	2886.5405	4088.55	3206.55
1015.4416	2887.6686	4086.4	3201.45
1015.5579	2888.7962	4091.65	3209
1015.6741	2889.923	4096.3	3213.8
1015.7903	2891.0493	4096.4	3214.25
1015.9065	2892.1748	4115.4	3232.3
1016.0226	2893.2997	4113.95	3227.75
1016.1387	2894.424	4135.8	3254.25
1016.2547	2895.5476	4148.5	3262.05
1016.3707	2896.6706	4157.35	3277.05
1016.4866	2897.7929	4214.4	3332.1
1016.6025	2898.9145	4224.55	3339.95
1016.7184	2900.0355	4256.4	3373.1
1016.8342	2901.1559	4301.25	3416.6
1016.95	2902.2756	4309.85	3428.3
1017.0658	2903.3946	4343.95	3461.9
1017.1815	2904.513	4358.25	3470.1
1017.2971	2905.6308	4380.5	3499.5
1017.4127	2906.7479	4423.05	3537.85
1017.5283	2907.8643	4454.1	3570
1017.6439	2908.9801	4451.45	3569.7
1017.7594	2910.0953	4473.35	3590.15
1017.8748	2911.2098	4451.65	3566.65
1017.9902	2912.3236	4466.7	3576
1018.1056	2913.4368	4444.45	3558.25
1018.2209	2914.5494	4420.05	3536.95
1018.3362	2915.6613	4389.05	3497.5
1018.4515	2916.7725	4355.35	3471.65
1018.5667	2917.8831	4313.1	3429.5
1018.6819	2918.9931	4286.3	3401.2
1018.797	2920.1024	4261.25	3380.25
1018.9121	2921.211	4240.85	3358
1019.0271	2922.319	4214.35	3333.95
1019.1421	2923.4264	4185.4	3303.2
1019.2571	2924.5331	4174.2	3292.15
1019.372	2925.6391	4145.4	3263.15
1019.4869	2926.7445	4152.1	3270.95
1019.6017	2927.8493	4139	3255.2
1019.7165	2928.9534	4142.35	3262.55
1019.8313	2930.0569	4123.55	3237.95
1019.946	2931.1597	4112.3	3227.15
1020.0606	2932.2619	4111.15	3228.2
1020.1753	2933.3634	4095.45	3211.75
1020.2899	2934.4643	4094.1	3205.8
1020.4044	2935.5645	4069.75	3179.65
1020.5189	2936.6641	4020.85	3134.7
1020.6334	2937.763	3976	3094.5
1020.7478	2938.8613	3939.65	3056.45
1020.8622	2939.959	3865.75	2978.65
1020.9765	2941.056	3797.35	2913.5
1021.0908	2942.1523	3709.05	2825.6
1021.2051	2943.248	3632.4	2749.35
1021.3193	2944.3431	3532.55	2650.8
1021.4334	2945.4375	3418.55	2536.85
1021.5476	2946.5313	3314.1	2431.9
1021.6617	2947.6244	3210.4	2328.15
1021.7757	2948.7169	3092.55	2209.6
1021.8897	2949.8087	3002.8	2120.9
1022.0037	2950.8999	2909.3	2026.7
1022.1176	2951.9904	2816.35	1934.15
1022.2315	2953.0803	2744.9	1862.8
1022.3453	2954.1696	2675.7	1793.8
1022.4591	2955.2582	2630.25	1749.4
1022.5728	2956.3462	2589.9	1709.1
1022.6865	2957.4335	2533.35	1649.6
1022.8002	2958.5202	2494.55	1610.75
1022.9138	2959.6062	2469.7	1587.15
1023.0274	2960.6916	2449.75	1569.5
1023.141	2961.7764	2419.35	1538.15
1023.2545	2962.8605	2401	1517.05
1023.3679	2963.9439	2376.9	1495.85
1023.4813	2965.0267	2382.85	1499.75
1023.5947	2966.1089	2397.05	1491.05
1023.708	2967.1905	2365.4	1484.6
1023.8213	2968.2714	2353.95	1474.85
1023.9346	2969.3516	2355.55	1470.55
1024.0478	2970.4312	2364.8	1475.4
1024.1609	2971.5102	2350	1468.5
1024.274	2972.5885	2348.45	1466.05
1024.3871	2973.6662	2360.75	1474.3
1024.5002	2974.7432	2342.5	1460.65
1024.6132	2975.8196	2341.4	1460.1
1024.7261	2976.8954	2332	1450.65
1024.839	2977.9705	2304.95	1424.65
1024.9519	2979.045	2295.7	1415.2
1025.0647	2980.1188	2271.65	1392.1
1025.1775	2981.192	2249.15	1369.15
1025.2902	2982.2645	2232.95	1351.6
1025.4029	2983.3364	2213.6	1330.75
1025.5156	2984.4077	2177.5	1295
1025.6282	2985.4783	2146.45	1260.15
1025.7407	2986.5483	2108.4	1228.15
1025.8532	2987.6177	2078.7	1197.75
1025.9657	2988.6864	2042.15	1161.15
1026.0782	2989.7545	2015.15	1132.95
1026.1906	2990.8219	1977.25	1097
1026.3029	2991.8887	1936.45	1053.25
1026.4152	2992.9548	1907.7	1025.15
1026.5275	2994.0204	1878.75	997.45
1026.6397	2995.0852	1840.45	959.35
1026.7519	2996.1495	1830.7	947.6
1026.864	2997.2131	1790.7	908.1
1026.9761	2998.276	1775.4	892.7
1027.0882	2999.3383	1754	871.7
1027.2002	3000.4	1734.65	852.45
1027.3122	3001.4611	1715.9	834.85
1027.4241	3002.5215	1693	814.4
1027.536	3003.5812	1686.2	805.7
1027.6478	3004.6404	1661.8	778.4
1027.7596	3005.6989	1665.5	784.5
1027.8714	3006.7567	1655.15	773.65
1027.9831	3007.8139	1659.7	763.9
1028.0947	3008.8705	1634.2	755.35
1028.2064	3009.9264	1641.1	744.3
1028.3179	3010.9818	1620.2	739.65
1028.4295	3012.0364	1613	730.65
1028.541	3013.0905	1619.05	736.8
1028.6524	3014.1439	1609.2	727.95
1028.7638	3015.1966	1603.75	724.9
1028.8752	3016.2487	1614.6	733.7
1028.9865	3017.3002	1610.7	721.95
1029.0978	3018.3511	1606.05	725.8
1029.209	3019.4013	1598.7	718.3
1029.3202	3020.4509	1604.45	723.6
1029.4314	3021.4998	1612.85	732.45
1029.5425	3022.5481	1598.2	716.7
1029.6535	3023.5958	1601.6	719.75
1029.7645	3024.6428	1606.6	725.6
1029.8755	3025.6892	1596.9	714.9
1029.9864	3026.735	1602	720.75
1030.0973	3027.7802	1610.7	728.05
1030.2082	3028.8247	1609.1	728.85
1030.319	3029.8685	1609.2	726.3
1030.4297	3030.9118	1615.4	734.45
1030.5404	3031.9544	1621.85	742.75
1030.6511	3032.9963	1615.35	734.85
1030.7617	3034.0376	1618.75	738.25
1030.8723	3035.0783	1632.45	748.45
1030.9829	3036.1184	1631.45	748.9
1031.0934	3037.1578	1621.5	741.4
1031.2038	3038.1966	1629.1	745.8
1031.3142	3039.2348	1637.35	758.5
1031.4246	3040.2723	1640.1	750.75
1031.5349	3041.3092	1626.65	744.2
1031.6452	3042.3455	1623.95	745.2
1031.7554	3043.3811	1621.3	740.1
1031.8656	3044.4161	1619.9	737.55
1031.9758	3045.4505	1608.15	728.05
1032.0859	3046.4842	1591.65	707.45
1032.1959	3047.5173	1594.35	715.1
1032.3059	3048.5498	1591.2	711.8
1032.4159	3049.5816	1580.35	699
1032.5258	3050.6128	1569.7	686.75
1032.6357	3051.6434	1567.8	685.3
1032.7455	3052.6734	1559.15	680.3
1032.8553	3053.7027	1550.15	667.85
1032.9651	3054.7314	1538.8	657.5
1033.0748	3055.7594	1537.1	657.3
1033.1845	3056.7868	1531.85	649.9
1033.2941	3057.8136	1520.15	640.2
1033.4037	3058.8398	1512.2	633.1
1033.5132	3059.8653	1519.85	638.8
1033.6227	3060.8902	1505.9	624.8
1033.7321	3061.9145	1495.8	614.05
1033.8415	3062.9381	1490.6	610.05
1033.9509	3063.9612	1502.55	607.05
1034.0602	3064.9835	1477.55	596.25
1034.1694	3066.0053	1472.95	590.45
1034.2787	3067.0264	1461.5	580.15
1034.3878	3068.0469	1459.5	576.6
1034.497	3069.0668	1443.35	561.4
1034.6061	3070.086	1431.25	550.45
1034.7151	3071.1046	1430.1	547.05
1034.8241	3072.1226	1429.4	547.55
1034.9331	3073.1399	1407.6	528.3
1035.042	3074.1567	1394.05	512.55
1035.1508	3075.1727	1387.65	505.3
1035.2597	3076.1882	1377.7	497.85
1035.3684	3077.203	1366.8	483.75
1035.4772	3078.2173	1357.65	474.65
1035.5859	3079.2308	1351.2	467.85
1035.6945	3080.2438	1346.3	462.7
1035.8031	3081.2561	1338.75	457.85
1035.9117	3082.2678	1321.85	438.25
1036.0202	3083.2789	1316.95	436.9
1036.1286	3084.2893	1306.75	425.95
1036.2371	3085.2991	1304.45	423.5
1036.3454	3086.3083	1300.4	416.65
1036.4538	3087.3169	1290.45	410.3
1036.562	3088.3248	1287.05	405.35
1036.6703	3089.3321	1274.6	392.35
1036.7785	3090.3388	1269.8	391.3
1036.8866	3091.3449	1270.95	390.65
1036.9948	3092.3503	1267.95	385.25
1037.1028	3093.3551	1259.3	378.75
1037.2108	3094.3593	1251.6	371.2
1037.3188	3095.3629	1256	375.75
1037.4267	3096.3658	1250.15	366.85
1037.5346	3097.3681	1244.65	364.9
1037.6425	3098.3698	1239.2	357.8
1037.7503	3099.3708	1240.7	354.2
1037.858	3100.3713	1239	361.15
1037.9657	3101.3711	1228.65	349.45
1038.0734	3102.3702	1359.15	344
1038.181	3103.3688	1221.4	340.5
1038.2886	3104.3667	1220.7	341.35
1038.3961	3105.364	1225.55	347.6
1038.5036	3106.3607	1216.05	335.2
1038.611	3107.3568	1215.05	331.75
1038.7184	3108.3522	1206.8	328.85
1038.8257	3109.347	1208.25	328.1
1038.933	3110.3412	1209.8	324.35
1039.0403	3111.3348	1197.85	317.95
1039.1475	3112.3277	1198	317.95
1039.2547	3113.32	1198.2	320.1
1039.3618	3114.3117	1199.85	319.15
1039.4689	3115.3028	1196.9	316.3
1039.5759	3116.2932	1198.3	316
1039.6829	3117.2831	1199.55	315.1
1039.7898	3118.2723	1189.95	310.45
1039.8967	3119.2608	1187.05	307.85
1040.0035	3120.2488	1183.6	303.1
1040.1103	3121.2361	1188.65	309.1
1040.2171	3122.2229	1179.95	302.3
1040.3238	3123.209	1178.35	297.4
1040.4305	3124.1944	1180.15	301.55
1040.5371	3125.1793	1178.8	297.4
1040.6437	3126.1635	1173	294.35
1040.7502	3127.1471	1171.4	290.6
1040.8567	3128.1301	1161.35	282.1
1040.9631	3129.1125	1166.25	288.75
1041.0695	3130.0942	1167.8	288.2
1041.1759	3131.0753	1174.5	285.8
1041.2822	3132.0558	1164.8	283.05
1041.3884	3133.0357	1159.3	279.9
1041.4946	3134.015	1158.8	277.85
1041.6008	3134.9936	1165.15	283.25
1041.7069	3135.9716	1171	269
1041.813	3136.949	1154.5	275.45
1041.919	3137.9258	1169.95	271.35
1042.025	3138.902	1154.3	269.15
1042.1309	3139.8775	1148.5	271.25
1042.2368	3140.8524	1148	267.55
1042.3427	3141.8267	1144.95	264.4
1042.4485	3142.8004	1145.45	264.8
1042.5542	3143.7735	1147.75	261.1
1042.6599	3144.7459	1142.4	259.55
1042.7656	3145.7178	1138.25	259.8
1042.8712	3146.689	1135.75	257.8
1042.9768	3147.6596	1134	252.05
1043.0823	3148.6295	1131.1	251.8
1043.1878	3149.5989	1129	248.8
1043.2932	3150.5676	1134.35	255.7
1043.3986	3151.5357	1124.05	245.45
1043.5039	3152.5032	1124.5	247.15
1043.6092	3153.4701	1122.6	243.15
1043.7145	3154.4364	1123.75	240.5
1043.8197	3155.402	1120.5	240.9
1043.9248	3156.367	1121.55	242.2
1044.03	3157.3315	1142.7	234.65
1044.135	3158.2952	1117.2	236.25
1044.24	3159.2584	1108.2	229.5
1044.345	3160.221	1112.15	231.05
1044.4499	3161.1829	1106.1	227.2
1044.5548	3162.1442	1108.3	229.3
1044.6596	3163.105	1109.4	229
1044.7644	3164.065	1103.8	224.6
1044.8692	3165.0245	1108.95	227.05
1044.9739	3165.9834	1107	228.1
1045.0785	3166.9416	1103.1	223.3
1045.1831	3167.8993	1100.45	219.6
1045.2877	3168.8563	1102.5	222.95
1045.3922	3169.8127	1099.65	220.05
1045.4966	3170.7684	1099.75	220.95
1045.6011	3171.7236	1102	221.85
1045.7054	3172.6782	1095.9	215.75
1045.8098	3173.6321	1097.45	218.6
1045.914	3174.5854	1097.8	215.15
1046.0183	3175.5381	1093.3	213.8
1046.1224	3176.4902	1088	208
1046.2266	3177.4417	1094.25	215.45
1046.3307	3178.3926	1087.7	209.85
1046.4347	3179.3428	1088.1	209.1
1046.5387	3180.2924	1086.85	208.2
1046.6427	3181.2415	1086.8	205.65
1046.7466	3182.1899	1084.2	204.25
1046.8504	3183.1377	1080.55	202.35
1046.9542	3184.0848	1080.05	197
1047.058	3185.0314	1078.75	199.8
1047.1617	3185.9773	1075.85	196
1047.2654	3186.9227	1077.5	197.15
1047.369	3187.8674	1079.4	200.8
1047.4726	3188.8115	1076.95	192.85
1047.5761	3189.755	1077.7	196.85
1047.6796	3190.6979	1075.35	196.15
1047.783	3191.6402	1074.15	195.9
1047.8864	3192.5818	1072.45	193.8
1047.9898	3193.5229	1085.15	192.5
1048.0931	3194.4633	1075.1	195.4
1048.1963	3195.4031	1069.8	191
1048.2995	3196.3423	1071.65	194.25
1048.4027	3197.2809	1068.85	190.75
1048.5058	3198.2189	1063.7	183.4
1048.6089	3199.1563	1070.7	185.35
1048.7119	3200.0931	1062.75	184.85
1048.8148	3201.0292	1065.85	185.35
1048.9178	3201.9648	1062.2	183.95
1049.0206	3202.8997	1060.55	177
1049.1235	3203.834	1054.5	176.65
1049.2262	3204.7677	1056.6	177.7
1049.329	3205.7008	1065.2	184.85
1049.4317	3206.6333	1058.05	179.35
1049.5343	3207.5652	1056.75	175.2
1049.6369	3208.4964	1053.8	177.1
1049.7394	3209.4271	1055.15	177.75
1049.8419	3210.3571	1053.85	177.3
1049.9444	3211.2865	1054.25	175.85
1050.0468	3212.2154	1053.05	175.6
1050.1491	3213.1436	1054.1	173.2
1050.2514	3214.0712	1061.55	176.05
1050.3537	3214.9982	1049.05	169.65
1050.4559	3215.9246	1047.6	167.35
1050.5581	3216.8503	1046.55	167.3
1050.6602	3217.7755	1043.95	163.75
1050.7623	3218.7001	1045.85	167.45
1050.8643	3219.624	1046.05	168.25
1050.9663	3220.5473	1045.15	167.7
1051.0682	3221.4701	1046.65	163.7
1051.1701	3222.3922	1045.75	165.15
1051.2719	3223.3137	1041.05	163.05
1051.3737	3224.2346	1041.5	163.95
1051.4754	3225.1549	1036.7	157.4
1051.5771	3226.0746	1040.55	160.5
1051.6788	3226.9937	1039.4	159.15
1051.7804	3227.9121	1033.3	154.95
1051.8819	3228.83	1037.35	159
1051.9834	3229.7473	1039.55	161.2
1052.0849	3230.6639	1031.9	153.3
1052.1863	3231.5799	1032.35	153.25
1052.2876	3232.4954	1031.5	151.85
1052.3889	3233.4102	1031	153.2
1052.4902	3234.3244	1032.85	151.45
1052.5914	3235.238	1026.5	148.5
1052.6926	3236.151	1053.55	147.85
1052.7937	3237.0634	1026.7	148.65
1052.8948	3237.9752	1027.9	149.65
1052.9958	3238.8864	1030.8	151.15
1053.0968	3239.797	1025.55	147.3
1053.1977	3240.7069	1026.8	147.9
1053.2986	3241.6163	1030.05	149.75
1053.3994	3242.5251	1025.15	145.9
1053.5002	3243.4332	1021.8	144.05
1053.6009	3244.3408	1018.75	139.75
1053.7016	3245.2477	1022.5	145.25
1053.8022	3246.154	1022.1	141.45
1053.9028	3247.0598	1021.3	142.6
1054.0034	3247.9649	1015.75	135.1
1054.1039	3248.8694	1013	132.75
1054.2043	3249.7733	1013.95	134.5
1054.3047	3250.6766	1014.15	136.3
1054.4051	3251.5793	1014.7	135.15
1054.5054	3252.4814	1010.6	132
1054.6056	3253.3829	1013.6	136.3
1054.7058	3254.2838	1009	131.5
1054.806	3255.1841	1013.7	136.85
1054.9061	3256.0838	1005.95	125.85
1055.0061	3256.9829	1004.35	125.8
1055.1062	3257.8814	1008.65	127.55
1055.2061	3258.7792	1007.85	127.1
1055.306	3259.6765	1003	122.7
1055.4059	3260.5731	999.6	121.75
1055.5057	3261.4692	1004.65	126.6
1055.6055	3262.3647	999.05	120.15
1055.7052	3263.2595	996.7	116
1055.8049	3264.1538	994.2	114.05
1055.9045	3265.0474	993	114.45
1056.0041	3265.9404	993.2	116.65
1056.1036	3266.8329	988.2	110.7
1056.2031	3267.7247	995.05	106.05
1056.3025	3268.616	985.05	107.8
1056.4019	3269.5066	983.6	105.25
1056.5013	3270.3966	981.5	99.7
1056.6005	3271.286	978.95	102
