Software Version:	3.9.2.0
Unit SN:	10000200
Spectrometer SN:	6960
Date:	3/26/2024 12:54:09 PM
Data Line Index:	25
Spectral Points:	2048
Integration time (ms):	125
Averages:	20
Delay (ms):	30000
Sequence Number:	1
Processing:	dark subtract
Laser Power (mW):	290
Laser Current (mA):	803
Laser Diode Temp (C):	25.1
Laser Case Temp (C):	24.7
System Temp (C):	24.7
Spectrometer Temp (C):	22.9
CCD Temp (C):	0.022
Secondary Temp (C):	20.01
Heatsink Temp (C):	21.268
CCDPCB Temp (C):	34.517
SecondaryPCB Temp (C):	28.381

Wavelength	RamanShift	Raw Counts	Dark Subtracted
787.061	30.1047	448.6	33.8
787.2016	32.3739	450.05	36.8
787.3422	34.6426	451.55	36.45
787.4828	36.9109	456.15	39.1
787.6235	39.1787	463.55	43.35
787.7642	41.4461	470	44.55
787.9049	43.7131	477.75	48.5
788.0456	45.9796	484.35	52.75
788.1863	48.2456	489.75	52.95
788.3271	50.5112	498.95	59.15
788.4679	52.7764	503.3	61.7
788.6087	55.0411	513.5	68.55
788.7496	57.3054	521.05	74.05
788.8904	59.5692	524.35	72.65
789.0313	61.8326	534.5	78.75
789.1722	64.0955	545.3	85.9
789.3132	66.3579	557.5	92.6
789.4541	68.6199	567.5	100.5
789.5951	70.8815	589.95	121.1
789.7361	73.1426	634.05	162.35
789.8771	75.4032	747.05	270.5
790.0181	77.6634	1017.4	536.9
790.1592	79.9231	1672.2	1186.95
790.3003	82.1824	3036.15	2547.4
790.4414	84.4412	5426.4	4934.45
790.5825	86.6995	8733.45	8235.2
790.7237	88.9574	11986.1	11485.5
790.8648	91.2148	14409.1	13907.65
791.006	93.4717	15682.45	15177.75
791.1472	95.7282	16231.85	15724.7
791.2885	97.9842	16434.3	15926.05
791.4297	100.2398	16480.05	15967.85
791.571	102.4949	16439.15	15923.7
791.7123	104.7495	16388.1	15865.65
791.8536	107.0036	16296.5	15773.95
791.9949	109.2573	16222.85	15702.45
792.1363	111.5105	16160.95	15638.95
792.2777	113.7632	16055.65	15529.9
792.4191	116.0154	15944.8	15409.9
792.5605	118.2672	15886.5	15359.05
792.7019	120.5185	15781.6	15252.35
792.8434	122.7693	15654.25	15122.3
792.9849	125.0197	15579.3	15043.95
793.1264	127.2696	15508.55	14971.2
793.2679	129.519	15465.3	14924.85
793.4094	131.7679	15423.5	14881.25
793.551	134.0163	15418	14871.15
793.6926	136.2642	15387.55	14835.25
793.8342	138.5117	15379.4	14824.75
793.9758	140.7587	15309.6	14755.25
794.1175	143.0052	15315.65	14759.25
794.2591	145.2512	15238	14681.95
794.4008	147.4967	15134.45	14576.55
794.5425	149.7417	15070.15	14506.2
794.6842	151.9863	15012.45	14447.3
794.826	154.2304	14950.5	14382.45
794.9677	156.4739	14870.75	14299.55
795.1095	158.717	14913.8	14341.25
795.2513	160.9596	14864.85	14287.6
795.3931	163.2017	14891.85	14313.35
795.535	165.4433	14925.15	14343.45
795.6768	167.6844	14912.25	14326.9
795.8187	169.925	14868.3	14281.8
795.9606	172.1651	14734.8	14141.55
796.1025	174.4047	14701.05	14106.35
796.2445	176.6439	14599.75	14002.85
796.3864	178.8825	14529.6	13929.9
796.5284	181.1206	14525.7	13924.6
796.6704	183.3582	14483.6	13875.15
796.8124	185.5954	14478.1	13872.15
796.9544	187.832	14453.1	13841.45
797.0965	190.0681	14473.35	13859.85
797.2386	192.3037	14467.25	13849.45
797.3806	194.5388	14446.2	13825.8
797.5228	196.7734	14449.15	13828.2
797.6649	199.0075	14486.4	13860.7
797.807	201.2411	14549.5	13920.65
797.9492	203.4742	14570.6	13938.7
798.0914	205.7068	14610.95	13979.8
798.2336	207.9389	14624.35	13990.95
798.3758	210.1704	14684.25	14049.8
798.518	212.4015	14656.4	14020.05
798.6603	214.632	14632.35	13996.35
798.8025	216.862	14627.3	13997.2
798.9448	219.0915	14582.8	13958.9
799.0871	221.3205	14615.95	13994.2
799.2294	223.549	14633.3	14014.95
799.3718	225.777	14660.45	14045
799.5141	228.0044	14606.5	13985.1
799.6565	230.2314	14651	14033.05
799.7989	232.4578	14606.5	13986.75
799.9413	234.6837	14602.4	13975.1
800.0837	236.909	14635	14008.3
800.2262	239.1339	14589.15	13936.8
800.3687	241.3582	14579.25	13942.5
800.5111	243.582	14531.45	13861.85
800.6536	245.8053	14541.55	13883.55
800.7961	248.0281	14528.25	13876.8
800.9387	250.2503	14527.2	13870.95
801.0812	252.472	14541.15	13881
801.2238	254.6932	14556.2	13891.25
801.3664	256.9139	14535.15	13869.05
801.509	259.134	14517.9	13844.95
801.6516	261.3536	14534.2	13863.5
801.7942	263.5727	14600.1	13928.9
801.9369	265.7912	14599.45	13929.05
802.0795	268.0092	14673.8	14003.4
802.2222	270.2267	14738.8	14064.6
802.3649	272.4436	14794.25	14120.9
802.5076	274.6601	14808.05	14124.9
802.6504	276.8759	14821.75	14144.4
802.7931	279.0913	14861.05	14178.85
802.9359	281.3061	14861.9	14179.35
803.0787	283.5204	14897.1	14214.75
803.2215	285.7341	14957.15	14269.3
803.3643	287.9473	14995.4	14294.95
803.5071	290.16	14981.3	14286.85
803.6499	292.3721	14921.5	14231.85
803.7928	294.5837	14862.45	14173.45
803.9357	296.7947	14739.9	14051.1
804.0786	299.0052	14728.7	14039
804.2215	301.2152	14663.65	13969.95
804.3644	303.4246	14684.45	13993.95
804.5074	305.6334	14644	13952.6
804.6503	307.8418	14631.9	13936.5
804.7933	310.0495	14635.5	13939.1
804.9363	312.2568	14542.95	13847.45
805.0793	314.4635	14434.3	13737.25
805.2223	316.6696	14362.95	13665
805.3653	318.8752	14253.95	13545.25
805.5084	321.0802	14180.55	13481
805.6514	323.2847	14197.1	13495.6
805.7945	325.4887	14159.1	13457.4
805.9376	327.692	14180.6	13475.6
806.0807	329.8949	14206.25	13502.15
806.2238	332.0972	14273.35	13566.9
806.367	334.2989	14363.45	13653.55
806.5101	336.5001	14367.55	13657.35
806.6533	338.7007	14335.85	13625.35
806.7965	340.9008	14265.7	13553.2
806.9397	343.1003	14202.05	13485.3
807.0829	345.2992	14130.85	13413.3
807.2261	347.4976	14028.65	13310.1
807.3693	349.6955	13998.85	13277.9
807.5126	351.8927	13974.25	13250.6
807.6559	354.0895	13922.05	13189.15
807.7991	356.2856	13911.7	13186.75
807.9424	358.4812	13872.15	13148.3
808.0857	360.6763	13884	13157.45
808.2291	362.8707	13827.75	13099.55
808.3724	365.0646	13843.85	13113.8
808.5158	367.258	13847.85	13115.75
808.6591	369.4508	13840.45	13106.25
808.8025	371.643	13899.35	13166.05
808.9459	373.8346	13875.25	13137.4
809.0893	376.0257	13928.4	13188.3
809.2327	378.2162	13946.95	13207.25
809.3762	380.4062	14013.35	13269.1
809.5196	382.5956	13927	13182.05
809.6631	384.7844	13877.6	13131.15
809.8066	386.9726	13779.45	13030.5
809.9501	389.1603	13730.75	12982.45
810.0936	391.3474	13706.95	12916
810.2371	393.5339	13661.8	12914.4
810.3806	395.7199	13612.95	12870.45
810.5241	397.9052	13636.65	12896.25
810.6677	400.09	13667.6	12928.15
810.8113	402.2743	13697.35	12957.7
810.9548	404.4579	13767.95	13028.6
811.0984	406.641	13805.8	13066.25
811.2421	408.8235	13892.8	13152.1
811.3857	411.0054	13936.25	13195.4
811.5293	413.1868	14062.5	13319.7
811.673	415.3675	14135.95	13388.85
811.8166	417.5477	14180.75	13434.8
811.9603	419.7273	14089.2	13338.1
812.104	421.9064	13918.6	13158.3
812.2477	424.0848	13826.05	13071.2
812.3914	426.2627	13687.45	12929.9
812.5351	428.4399	13600.05	12842.9
812.6788	430.6166	13482.6	12718.45
812.8226	432.7928	13421.45	12655
812.9663	434.9683	13337.15	12572.05
813.1101	437.1432	13308.75	12540.2
813.2539	439.3176	13222.35	12456.35
813.3977	441.4914	13176.7	12408.55
813.5415	443.6645	13200.35	12430.5
813.6853	445.8371	13151.35	12381.75
813.8291	448.0091	13116.05	12345.25
813.973	450.1806	13081.55	12308.4
814.1168	452.3514	13037.5	12263.2
814.2607	454.5216	13053.85	12273.6
814.4046	456.6913	12989.3	12214.1
814.5485	458.8603	13023.55	12248.5
814.6924	461.0288	13027	12250.4
814.8363	463.1967	13001.8	12224.45
814.9802	465.3639	13011.1	12233.8
815.1241	467.5306	12983.9	12204.25
815.2681	469.6967	12928.55	12150.25
815.412	471.8622	12912.1	12132.35
815.556	474.0271	12916.6	12138.3
815.7	476.1914	12930.7	12149.7
815.844	478.3551	12898.65	12118.65
815.988	480.5182	12907	12123.95
816.132	482.6807	12941.9	12158.5
816.276	484.8426	12950.75	12167.65
816.4201	487.0039	13027.2	12243.05
816.5641	489.1647	13085.45	12301.2
816.7082	491.3248	13169.1	12385.8
816.8522	493.4843	13168.75	12385.2
816.9963	495.6432	13161.7	12376.3
817.1404	497.8015	13082.5	12293.45
817.2845	499.9592	13057.75	12272.35
817.4286	502.1163	12997.4	12208.75
817.5727	504.2728	12924.4	12135.45
817.7168	506.4287	12909	12121.4
817.861	508.5839	12862.4	12072.75
818.0051	510.7386	12821.25	12032.25
818.1493	512.8927	12854.25	12061.7
818.2935	515.0461	12836.2	12044.85
818.4377	517.199	12865.85	12074.9
818.5818	519.3512	12897.7	12107.1
818.726	521.5029	12991.7	12194.25
818.8703	523.6539	13061.3	12267.8
819.0145	525.8043	13111.1	12317.7
819.1587	527.9541	13023.45	12224.95
819.303	530.1033	12929.2	12133.45
819.4472	532.2519	12838.85	12043.15
819.5915	534.3999	12814.7	12015.4
819.7357	536.5472	12820.35	12021.2
819.88	538.694	12797	11995.6
820.0243	540.8401	12826.05	12025.3
820.1686	542.9856	12856.95	12057.45
820.3129	545.1305	12836.65	12033.25
820.4572	547.2748	12887.2	12084.7
820.6016	549.4185	12879.7	12073.7
820.7459	551.5615	12882.9	12078.4
820.8902	553.704	12901.5	12094.6
821.0346	555.8458	12887.75	12082.9
821.1789	557.987	12922.2	12115.65
821.3233	560.1276	12987.85	12181.75
821.4677	562.2675	13090.75	12286.55
821.6121	564.4069	13130.9	12327
821.7565	566.5456	13210	12405.2
821.9009	568.6837	13202.5	12396.15
822.0453	570.8212	13022.65	12215.6
822.1897	572.958	12897.15	12089.2
822.3342	575.0942	12798.55	11993.05
822.4786	577.2299	12753.45	11943.3
822.6231	579.3648	12688.95	11881
822.7675	581.4992	12595.95	11786.35
822.912	583.6329	12597.1	11789.05
823.0565	585.766	12614.95	11805.4
823.201	587.8985	12640.2	11831.9
823.3454	590.0304	12740.85	11920.1
823.4899	592.1616	12730.7	11916.6
823.6345	594.2922	12726.6	11913.15
823.779	596.4222	12700.2	11886.65
823.9235	598.5515	12608.35	11793.65
824.068	600.6802	12501.35	11686.4
824.2126	602.8083	12412.2	11597.65
824.3571	604.9358	12366.9	11548.2
824.5017	607.0626	12325.25	11508.15
824.6462	609.1888	12341.6	11523.25
824.7908	611.3144	12349.85	11530.55
824.9354	613.4393	12395.05	11577.85
825.08	615.5636	12445.4	11626.5
825.2246	617.6873	12537.5	11721.1
825.3692	619.8103	12587.55	11766.75
825.5138	621.9327	12595.45	11772.05
825.6584	624.0544	12569	11748.75
825.803	626.1756	12488.75	11667.3
825.9477	628.2961	12398.25	11578
826.0923	630.4159	12325.25	11504.55
826.237	632.5351	12328.75	11507.9
826.3816	634.6537	12299.35	11478.8
826.5263	636.7716	12287.05	11461.9
826.6709	638.8889	12299.5	11473.1
826.8156	641.0056	12317.95	11491.5
826.9603	643.1216	12337.75	11512.75
827.105	645.237	12366.4	11539.1
827.2497	647.3518	12337.75	11511.55
827.3944	649.4659	12282.95	11454.9
827.5391	651.5793	12193.75	11367.8
827.6838	653.6922	12195	11369.5
827.8285	655.8043	12171.7	11343.1
827.9733	657.9159	12117.35	11287.85
828.118	660.0268	12089.8	11259.25
828.2627	662.137	12067.75	11237.95
828.4075	664.2466	12098.4	11267.15
828.5522	666.3556	12104.4	11277.05
828.697	668.4639	12046.35	11212.6
828.8418	670.5716	12053.65	11222.75
828.9865	672.6786	12048.4	11216.5
829.1313	674.785	11977.1	11144.15
829.2761	676.8907	11945.55	11113.1
829.4209	678.9958	11979.95	11147.7
829.5657	681.1002	11921.1	11088.85
829.7105	683.204	11957.3	11121.1
829.8553	685.3072	11916.5	11081.65
830.0001	687.4097	11912.6	11080.2
830.1449	689.5115	11916.7	11078.75
830.2898	691.6127	11932.5	11096.25
830.4346	693.7132	11882.2	11044.45
830.5794	695.8131	11908.1	11056.05
830.7243	697.9123	11887.1	11050.35
830.8691	700.0109	11872.5	11033.7
831.014	702.1089	11867.15	11030.85
831.1588	704.2061	11869.15	11030.8
831.3037	706.3028	11915.45	11075.45
831.4486	708.3987	11931.8	11092.75
831.5935	710.4941	11951.95	11113.45
831.7383	712.5887	11994.85	11156
831.8832	714.6827	11953.4	11110.65
832.0281	716.7761	11942	11101.7
832.173	718.8688	11911.8	11069.8
832.3179	720.9608	11903.25	11062.6
832.4628	723.0522	11896.15	11052.65
832.6077	725.1429	11893.65	11053.45
832.7527	727.233	11934.75	11091.95
832.8976	729.3224	12028.65	11187.7
833.0425	731.4112	12082.25	11240.3
833.1874	733.4993	12111.7	11267.5
833.3324	735.5867	12038.75	11194.5
833.4773	737.6735	11931.45	11084.15
833.6222	739.7596	11818.6	10972.45
833.7672	741.845	11737.55	10890.35
833.9122	743.9298	11704.3	10856.65
834.0571	746.014	11718.75	10873.2
834.2021	748.0974	11718.45	10870.9
834.347	750.1802	11711.05	10863.25
834.492	752.2624	11660.25	10812.9
834.637	754.3439	11601.2	10752.9
834.782	756.4247	11600.5	10743.75
834.9269	758.5048	11536.1	10688.5
835.0719	760.5843	11534.45	10687
835.2169	762.6631	11530.05	10681.1
835.3619	764.7413	11582.5	10735.1
835.5069	766.8188	11705.05	10855.75
835.6519	768.8956	11758.75	10905.6
835.7969	770.9718	11862.45	11011.4
835.9419	773.0473	11797.05	10949.5
836.0869	775.1221	11767.35	10917.8
836.232	777.1962	11681.25	10831.95
836.377	779.2697	11762.4	10908.75
836.522	781.3426	11882.7	11013.5
836.667	783.4147	11974.7	11122.15
836.8121	785.4862	11996.7	11144.95
836.9571	787.557	11844.7	10992.95
837.1021	789.6271	11657	10804.7
837.2472	791.6966	11464.35	10612.55
837.3922	793.7654	11261.5	10409.8
837.5373	795.8335	11201.65	10349.5
837.6823	797.901	11122.35	10269.75
837.8274	799.9678	11092.2	10237.3
837.9724	802.0339	11051.85	10198.65
838.1175	804.0993	11071.45	10208.9
838.2626	806.1641	11018.4	10163.05
838.4076	808.2282	11004.1	10151.15
838.5527	810.2916	10961.15	10102.85
838.6978	812.3544	10922.15	10068.85
838.8428	814.4164	10863.75	10010.85
838.9879	816.4778	10882.1	10026.1
839.133	818.5385	10879.4	10024.45
839.2781	820.5986	10923.5	10067.95
839.4232	822.658	10974.6	10116.45
839.5682	824.7166	11027.35	10171.95
839.7133	826.7747	11154.2	10299.8
839.8584	828.832	11249.05	10394.25
840.0035	830.8886	11267.8	10410.25
840.1486	832.9446	11352.95	10494.1
840.2937	834.9999	11316.3	10463.1
840.4388	837.0545	11184.15	10323.5
840.5839	839.1085	11078.4	10219.1
840.729	841.1618	10948.1	10086.35
840.8741	843.2143	10819.3	9961.2
841.0192	845.2662	10735.15	9877.05
841.1643	847.3175	10682.1	9824.1
841.3095	849.368	10651.85	9794.75
841.4546	851.4179	10659.75	9800.95
841.5997	853.467	10618.9	9759.7
841.7448	855.5155	10611.9	9753.45
841.8899	857.5633	10588.15	9727.8
842.0351	859.6105	10531.95	9672.9
842.1802	861.6569	10521.25	9662.6
842.3253	863.7027	10497.9	9637.25
842.4704	865.7478	10436.7	9577.25
842.6156	867.7922	10433.75	9572.95
842.7607	869.8359	10398.15	9536.45
842.9058	871.8789	10371.6	9511.85
843.0509	873.9212	10378.05	9484.95
843.1961	875.9629	10306.6	9445.75
843.3412	878.0039	10344	9480.65
843.4863	880.0441	10344.25	9484.35
843.6315	882.0837	10349.3	9486.4
843.7766	884.1226	10362.05	9498.1
843.9218	886.1609	10402.6	9540.8
844.0669	888.1984	10444.55	9583.9
844.212	890.2352	10516.05	9654.95
844.3572	892.2714	10546.2	9679.8
844.5023	894.3069	10512.5	9647.25
844.6475	896.3416	10380.2	9517.15
844.7926	898.3757	10306.6	9443.85
844.9377	900.4091	10252.85	9389.45
845.0829	902.4418	10228.45	9361.95
845.228	904.4739	10215.05	9350.25
845.3732	906.5052	10245.2	9379.05
845.5183	908.5358	10217.45	9352.6
845.6635	910.5658	10190.3	9323.05
845.8086	912.595	10132.65	9266.7
845.9538	914.6236	10030.3	9164.4
846.0989	916.6515	9995.35	9131.6
846.2441	918.6786	9947.05	9079.95
846.3892	920.7051	9900	9034
846.5344	922.7309	9915.5	9051.35
846.6795	924.756	9890.65	9024.8
846.8246	926.7804	9873.65	9005.7
846.9698	928.8041	9785.5	8914.4
847.1149	930.8272	9823.15	8956.1
847.2601	932.8495	9812.2	8944.2
847.4052	934.8711	9823.05	8954.15
847.5504	936.892	9773.1	8906.2
847.6955	938.9123	9761.2	8891.65
847.8407	940.9318	9808.35	8940
847.9858	942.9506	9808.75	8941.75
848.131	944.9688	9762.2	8893.85
848.2761	946.9862	9707.25	8839.35
848.4213	949.003	9613.75	8745
848.5664	951.019	9572	8702.75
848.7115	953.0344	9535.4	8666.8
848.8567	955.0491	9475.8	8605.05
849.0018	957.063	9467.5	8598.2
849.147	959.0763	9442.15	8565.3
849.2921	961.0888	9417.15	8545.85
849.4373	963.1007	9406.7	8535.95
849.5824	965.1119	9386.45	8518.15
849.7275	967.1223	9352.55	8481.85
849.8727	969.1321	9319.35	8449.95
850.0178	971.1412	9282.8	8413
850.1629	973.1495	9231.1	8361.3
850.3081	975.1572	9259.25	8341.7
850.4532	977.1641	9214.6	8343.9
850.5983	979.1704	9191.5	8320.1
850.7435	981.1759	9181.3	8305.3
850.8886	983.1808	9125.35	8253.55
851.0337	985.1849	9106.05	8224.6
851.1788	987.1884	9059.8	8187.6
851.324	989.1911	9073.1	8197.95
851.4691	991.1932	9060.4	8187.2
851.6142	993.1945	9036.95	8165.85
851.7593	995.1951	8993.25	8120.2
851.9045	997.1951	8976.85	8096.4
852.0496	999.1943	8927.7	8054.5
852.1947	1001.1928	8895	8023.3
852.3398	1003.1906	8891.7	8019.65
852.4849	1005.1877	8895.95	8021.8
852.63	1007.1841	8907.2	8035.65
852.7751	1009.1798	8887.65	8016.3
852.9202	1011.1748	8870.2	7997.6
853.0653	1013.1691	8800.6	7924.3
853.2104	1015.1627	8723.85	7847.8
853.3555	1017.1556	8614	7740.8
853.5006	1019.1477	8604.2	7728.35
853.6457	1021.1392	8510.75	7637.75
853.7908	1023.1299	8453.4	7578.45
853.9359	1025.12	8437.75	7561.1
854.081	1027.1093	8430.1	7556.4
854.2261	1029.0979	8403.85	7533.1
854.3712	1031.0859	8408.2	7534.1
854.5163	1033.0731	8408.9	7532.85
854.6613	1035.0596	8402.95	7527.5
854.8064	1037.0454	8335.95	7459.15
854.9515	1039.0304	8333.8	7458.35
855.0965	1041.0148	8259.9	7385.25
855.2416	1042.9985	8189.6	7313.2
855.3867	1044.9814	8158.65	7284.3
855.5317	1046.9636	8123.55	7246
855.6768	1048.9452	8111	7234.55
855.8219	1050.926	8106.8	7231.65
855.9669	1052.9061	8111.3	7234.45
856.112	1054.8855	8111.75	7235.65
856.257	1056.8642	8091.25	7215.25
856.4021	1058.8421	8073.35	7192.4
856.5471	1060.8194	8042.5	7165.95
856.6921	1062.7959	8007.1	7130.45
856.8372	1064.7717	7990.6	7112.9
856.9822	1066.7469	7957.05	7080.6
857.1272	1068.7213	7958.8	7079.55
857.2723	1070.695	7956.2	7080.45
857.4173	1072.6679	7943.55	7064.75
857.5623	1074.6402	7977.55	7099.45
857.7073	1076.6117	7975.9	7094.35
857.8523	1078.5826	7965.8	7088.2
857.9973	1080.5527	7889.6	7008.7
858.1423	1082.5221	7796.1	6919.95
858.2873	1084.4908	7741.75	6862.7
858.4323	1086.4587	7702.05	6822.3
858.5773	1088.426	7669	6787.9
858.7223	1090.3925	7629.35	6745.2
858.8673	1092.3584	7615.75	6738.3
859.0123	1094.3235	7602.55	6727.3
859.1573	1096.2879	7609.55	6732.55
859.3022	1098.2515	7625.9	6746.7
859.4472	1100.2145	7642.65	6764.6
859.5922	1102.1767	7672.95	6793.25
859.7371	1104.1382	7690.4	6810.55
859.8821	1106.099	7775.4	6892.35
860.027	1108.0591	7824.1	6945
860.172	1110.0185	7867.8	6985.6
860.3169	1111.9771	7918.7	7038.85
860.4619	1113.9351	7926.9	7046.05
860.6068	1115.8923	8003.15	7122.85
860.7517	1117.8488	8076.25	7196.2
860.8967	1119.8045	8005.9	7128.7
861.0416	1121.7596	7884.5	7005.8
861.1865	1123.7139	7679.4	6801.8
861.3314	1125.6675	7569.95	6689.2
861.4763	1127.6204	7521	6639.45
861.6212	1129.5726	7544.7	6661.3
861.7661	1131.524	7553.45	6673.45
861.911	1133.4748	7491.2	6610.45
862.0559	1135.4248	7380.5	6498
862.2008	1137.3741	7284.05	6403
862.3457	1139.3226	7215.8	6334.25
862.4905	1141.2705	7190.5	6308.6
862.6354	1143.2176	7174.2	6287.3
862.7803	1145.164	7168.6	6285.75
862.9251	1147.1097	7176.15	6295.5
863.07	1149.0546	7172.25	6288.65
863.2148	1150.9989	7100.15	6219.75
863.3597	1152.9424	7043.55	6161.15
863.5045	1154.8852	7011.7	6128.75
863.6493	1156.8272	6990.5	6111.3
863.7942	1158.7686	6990.8	6101.45
863.939	1160.7092	6952.45	6068.65
864.0838	1162.6491	6939.75	6053.75
864.2286	1164.5883	6954.6	6073.65
864.3734	1166.5267	6948.05	6065.25
864.5182	1168.4644	6967.7	6085.3
864.663	1170.4014	6999.95	6111.75
864.8078	1172.3377	7039.95	6159.4
864.9526	1174.2732	7097.2	6215.1
865.0974	1176.2081	7176.65	6294.2
865.2421	1178.1421	7338.9	6454.85
865.3869	1180.0755	7538.25	6656.7
865.5317	1182.0082	7658.15	6776.3
865.6764	1183.9401	7675.1	6792.85
865.8212	1185.8713	7550.2	6668.35
865.9659	1187.8017	7345.85	6464
866.1106	1189.7315	7151.55	6267.9
866.2554	1191.6605	7005.7	6094.1
866.4001	1193.5888	6892.9	6008.5
866.5448	1195.5163	6831.8	5949.8
866.6895	1197.4432	6776.85	5892.85
866.8342	1199.3693	6717.9	5833.6
866.9789	1201.2947	6672.05	5781.85
867.1236	1203.2193	6639.7	5755
867.2683	1205.1432	6618.8	5734.9
867.413	1207.0664	6576.15	5692.65
867.5576	1208.9889	6566.9	5680.3
867.7023	1210.9106	6530.3	5647.75
867.847	1212.8316	6507.5	5624.85
867.9916	1214.7519	6526.3	5633.6
868.1363	1216.6715	6514.6	5632.6
868.2809	1218.5903	6517.6	5633.3
868.4255	1220.5084	6492.65	5608.95
868.5701	1222.4257	6546.95	5662.5
868.7148	1224.3424	6519.3	5635.85
868.8594	1226.2583	6546.75	5658.45
869.004	1228.1735	6568.7	5683.9
869.1486	1230.0879	6578.45	5695
869.2932	1232.0016	6628.65	5745.35
869.4377	1233.9146	6650.05	5764.9
869.5823	1235.8269	6654.25	5770.7
869.7269	1237.7384	6665.6	5779.15
869.8715	1239.6492	6611.65	5729.15
870.016	1241.5592	6651.25	5764.2
870.1606	1243.4686	6685.75	5799.9
870.3051	1245.3772	6761.9	5877.55
870.4496	1247.285	6852.7	5967.4
870.5941	1249.1922	6945.6	6059.85
870.7387	1251.0986	7044.65	6159.35
870.8832	1253.0042	7109.95	6226.2
871.0277	1254.9092	7208	6323.45
871.1722	1256.8134	7333.85	6451.35
871.3167	1258.7169	7548.4	6661.2
871.4611	1260.6196	7616.25	6731.3
871.6056	1262.5216	7745.7	6858.05
871.7501	1264.4229	7724.35	6839.75
871.8945	1266.3234	7679.2	6792.15
872.039	1268.2232	7591.2	6703.85
872.1834	1270.1223	7475.35	6589.4
872.3278	1272.0207	7395.6	6508.1
872.4723	1273.9183	7336.95	6446
872.6167	1275.8151	7320.15	6435.65
872.7611	1277.7113	7360.5	6473.5
872.9055	1279.6067	7441.6	6556.3
873.0499	1281.5014	7608.4	6720.2
873.1943	1283.3953	7882.5	6994.35
873.3386	1285.2885	8220.4	7335.65
873.483	1287.181	8493.15	7606
873.6274	1289.0727	8648.85	7763.65
873.7717	1290.9637	8602.7	7715.9
873.9161	1292.854	8391.8	7505.35
874.0604	1294.7435	8145.7	7256.1
874.2047	1296.6323	7897.4	7008.95
874.349	1298.5204	7707.9	6818.35
874.4933	1300.4077	7533.2	6646.55
874.6376	1302.2943	7420.1	6531.5
874.7819	1304.1802	7352.9	6467.6
874.9262	1306.0653	7267.55	6377.8
875.0705	1307.9497	7227.95	6340.1
875.2147	1309.8333	7184.05	6295.45
875.359	1311.7162	7124.35	6240.2
875.5032	1313.5984	7124.05	6232.8
875.6475	1315.4798	7073.5	6173.15
875.7917	1317.3605	7058.05	6163.2
875.9359	1319.2405	7094.9	6205.95
876.0801	1321.1197	7102.95	6213.85
876.2243	1322.9982	7074.6	6182.85
876.3685	1324.876	7013.3	6125.85
876.5127	1326.753	6881.8	5995.15
876.6569	1328.6293	6732.25	5842.4
876.801	1330.5048	6588.3	5698.4
876.9452	1332.3796	6442.9	5557.5
877.0893	1334.2537	6333.8	5423.2
877.2335	1336.127	6205.1	5317.35
877.3776	1337.9996	6149.3	5262.6
877.5217	1339.8714	6093	5205.8
877.6658	1341.7426	6076.75	5147.15
877.8099	1343.6129	6001.8	5114.35
877.954	1345.4826	5959.45	5071.1
878.0981	1347.3515	5940.65	5050.9
878.2422	1349.2196	5906.7	5017
878.3862	1351.087	5897.35	5008.75
878.5303	1352.9537	5872.25	4983.75
878.6743	1354.8197	5872.25	4984.05
878.8184	1356.6849	5864.4	4977.65
878.9624	1358.5493	5859.35	4972.05
879.1064	1360.4131	5890.4	5002.8
879.2504	1362.276	5940.05	5052
879.3944	1364.1383	5986.75	5099.4
879.5384	1365.9998	6017.05	5124.65
879.6823	1367.8606	5999.5	5112.35
879.8263	1369.7206	5967.35	5080.15
879.9702	1371.5799	5980.45	5092.55
880.1142	1373.4384	5944.5	5054.15
880.2581	1375.2962	5921.35	5031.65
880.402	1377.1533	5822.9	4934
880.5459	1379.0096	5740.1	4850.8
880.6898	1380.8652	5652.6	4760.75
880.8337	1382.7201	5604.5	4714.85
880.9776	1384.5742	5558.9	4669.95
881.1215	1386.4275	5493.4	4601.2
881.2653	1388.2802	5454.35	4564.95
881.4092	1390.132	5424.6	4536.8
881.553	1391.9832	5411.8	4522.3
881.6968	1393.8336	5371.35	4483.25
881.8406	1395.6832	5330.55	4441.4
881.9844	1397.5322	5317.45	4430.45
882.1282	1399.3803	5294.1	4400.5
882.272	1401.2278	5269.45	4378.25
882.4158	1403.0745	5245.3	4356.1
882.5595	1404.9204	5214	4325.5
882.7033	1406.7656	5206.05	4316.9
882.847	1408.6101	5179.65	4289.6
882.9908	1410.4538	5159.65	4271.95
883.1345	1412.2968	5152.1	4263.45
883.2782	1414.139	5126.55	4238.75
883.4219	1415.9805	5150.45	4262.05
883.5656	1417.8213	5144.05	4233.1
883.7092	1419.6613	5130.2	4239.75
883.8529	1421.5006	5195.65	4304.45
883.9965	1423.3391	5223.1	4334.2
884.1402	1425.1769	5280.75	4389.7
884.2838	1427.0139	5365.55	4474.8
884.4274	1428.8502	5503.7	4613.8
884.571	1430.6858	5607.6	4718.4
884.7146	1432.5206	5647.85	4759.5
884.8582	1434.3547	5643.6	4754.15
885.0018	1436.188	5612.85	4725.65
885.1453	1438.0206	5582.15	4691.35
885.2889	1439.8524	5545.75	4654.6
885.4324	1441.6835	5544.25	4654.6
885.5759	1443.5139	5514.7	4621.85
885.7194	1445.3435	5522.65	4631
885.8629	1447.1724	5545.35	4655
886.0064	1449.0005	5516.85	4626.9
886.1499	1450.8279	5496.15	4604.45
886.2933	1452.6545	5465.8	4577.1
886.4368	1454.4804	5468.25	4579.4
886.5802	1456.3056	5439.8	4543.4
886.7237	1458.13	5409.85	4520.6
886.8671	1459.9536	5381.1	4490.95
887.0105	1461.7766	5327.45	4437.8
887.1539	1463.5987	5261.3	4371.5
887.2972	1465.4202	5193.95	4305.2
887.4406	1467.2409	5122.05	4232.25
887.584	1469.0608	5073.3	4185.3
887.7273	1470.88	5020.15	4128.45
887.8706	1472.6984	4982	4094.4
888.0139	1474.5161	4920.2	4027.35
888.1572	1476.3331	4886.85	3998.45
888.3005	1478.1493	4859.5	3969.2
888.4438	1479.9648	4855.05	3966.8
888.5871	1481.7795	4838.45	3947.3
888.7303	1483.5935	4857.95	3968.1
888.8736	1485.4067	4811	3919.4
889.0168	1487.2192	4812.65	3921.6
889.16	1489.031	4850.65	3957.1
889.3032	1490.842	4811.05	3920.2
889.4464	1492.6522	4821.95	3932.45
889.5896	1494.4618	4798.35	3907.5
889.7327	1496.2705	4789.05	3899.7
889.8759	1498.0785	4795.8	3905.1
890.019	1499.8858	4757.65	3866.2
890.1622	1501.6924	4764.95	3875.05
890.3053	1503.4981	4734.3	3843.95
890.4484	1505.3032	4740.1	3849.55
890.5914	1507.1075	4712.45	3820.3
890.7345	1508.911	4681.95	3791.3
890.8776	1510.7138	4672.35	3782.45
891.0206	1512.5159	4648.05	3757.25
891.1637	1514.3172	4632.55	3742
891.3067	1516.1178	4618.35	3730.8
891.4497	1517.9176	4598.75	3705.9
891.5927	1519.7166	4578.7	3690
891.7357	1521.515	4564.85	3666.5
891.8786	1523.3126	4554.9	3662.85
892.0216	1525.1094	4534.2	3641.3
892.1645	1526.9055	4515.5	3626.1
892.3074	1528.7008	4501.35	3611.7
892.4503	1530.4954	4475.55	3579
892.5932	1532.2893	4486.95	3596.65
892.7361	1534.0824	4466	3570.55
892.879	1535.8747	4449.55	3559.1
893.0218	1537.6663	4438.55	3546.25
893.1647	1539.4572	4423.25	3530.2
893.3075	1541.2473	4412.1	3520
893.4503	1543.0367	4391.2	3501.35
893.5931	1544.8253	4406.1	3512.55
893.7359	1546.6132	4383.35	3490.5
893.8787	1548.4003	4373.4	3473.25
894.0214	1550.1867	4378.8	3479.55
894.1642	1551.9723	4374.95	3478.2
894.3069	1553.7572	4388.75	3495.9
894.4496	1555.5414	4432.9	3542
894.5923	1557.3247	4422.7	3531.95
894.735	1559.1074	4474.65	3585.35
894.8777	1560.8893	4527.9	3637.2
895.0204	1562.6705	4581.95	3688.95
895.163	1564.4509	4612.9	3720.35
895.3056	1566.2305	4627.95	3738.2
895.4482	1568.0094	4654	3764.85
895.5908	1569.7876	4655.65	3764.7
895.7334	1571.565	4629.7	3739.45
895.876	1573.3417	4636.05	3744.75
896.0186	1575.1176	4616.95	3726.1
896.1611	1576.8928	4642.8	3749.7
896.3036	1578.6672	4654	3762.7
896.4461	1580.4409	4693.35	3805.1
896.5886	1582.2138	4754.75	3861.55
896.7311	1583.986	4795.7	3903.3
896.8736	1585.7575	4868.45	3977
897.0161	1587.5282	4926.4	4036
897.1585	1589.2981	4979.5	4090.65
897.3009	1591.0673	4979.45	4088.35
897.4433	1592.8358	4994	4103.7
897.5857	1594.6035	4987.5	4094.85
897.7281	1596.3704	4946.1	4052.95
897.8705	1598.1366	4922.65	4032.25
898.0128	1599.9021	4872.2	3981.25
898.1551	1601.6668	4803.9	3910.6
898.2975	1603.4308	4750.85	3858.3
898.4398	1605.194	4710.25	3812.1
898.5821	1606.9564	4731.15	3839.95
898.7243	1608.7182	4806.4	3909.8
898.8666	1610.4791	4912.65	4021.35
899.0088	1612.2394	5061.2	4170.1
899.1511	1613.9988	5226.5	4335.65
899.2933	1615.7576	5413.55	4522.5
899.4355	1617.5156	5512.15	4616.8
899.5776	1619.2728	5507.8	4616.35
899.7198	1621.0293	5392.65	4503.15
899.862	1622.785	5196.7	4302.05
900.0041	1624.54	4986.05	4095.3
900.1462	1626.2942	4775.3	3882.45
900.2883	1628.0477	4595.2	3699.5
900.4304	1629.8005	4430.25	3534.7
900.5725	1631.5525	4292.05	3400.6
900.7145	1633.3037	4196	3301.05
900.8566	1635.0542	4125.35	3232.1
900.9986	1636.804	4061.9	3168.75
901.1406	1638.553	4058.55	3118.6
901.2826	1640.3013	3968.3	3076.6
901.4245	1642.0488	3912.95	3020.95
901.5665	1643.7955	3884.35	2993.35
901.7085	1645.5416	3858.95	2968.25
901.8504	1647.2868	3841.4	2950.6
901.9923	1649.0313	3813.15	2921.65
902.1342	1650.7751	3795.05	2898.95
902.2761	1652.5181	3798.4	2908.15
902.4179	1654.2604	3769.2	2876.3
902.5598	1656.0019	3764.85	2874.1
902.7016	1657.7427	3765.25	2873.4
902.8434	1659.4828	3804.95	2913.1
902.9852	1661.222	3841.85	2949.3
903.127	1662.9606	3868.55	2977.2
903.2687	1664.6984	3941.75	3049.65
903.4105	1666.4354	3972.05	3078.3
903.5522	1668.1717	3954.2	3061.75
903.6939	1669.9072	3908.7	3017.95
903.8356	1671.642	3825.35	2931.35
903.9773	1673.3761	3750.1	2859.75
904.119	1675.1094	3683.7	2791.25
904.2606	1676.8419	3632.6	2740.05
904.4022	1678.5737	3596.65	2704.1
904.5439	1680.3048	3563.35	2670
904.6855	1682.0351	3527.4	2634.5
904.827	1683.7646	3529.65	2634.3
904.9686	1685.4934	3504.3	2611.75
905.1101	1687.2215	3481.6	2588.65
905.2517	1688.9488	3474.25	2581.1
905.3932	1690.6754	3449.8	2558.65
905.5347	1692.4012	3455.55	2564.2
905.6761	1694.1263	3445.5	2553.5
905.8176	1695.8506	3419.05	2524.8
905.9591	1697.5742	3418.85	2526.85
906.1005	1699.297	3392.85	2499
906.2419	1701.0191	3396.55	2504.9
906.3833	1702.7404	3386.95	2496.55
906.5246	1704.461	3351.25	2458.75
906.666	1706.1808	3357.5	2466.05
906.8073	1707.8999	3339.55	2446.45
906.9487	1709.6182	3320.1	2428.75
907.09	1711.3358	3321.35	2430.65
907.2313	1713.0527	3309.5	2419.75
907.3725	1714.7688	3313.85	2416.4
907.5138	1716.4841	3299.25	2404.9
907.655	1718.1987	3297.5	2400
907.7962	1719.9126	3277.5	2385.15
907.9374	1721.6257	3266.7	2371.6
908.0786	1723.338	3264.6	2370.65
908.2198	1725.0496	3248.25	2353.5
908.3609	1726.7605	3238.35	2345.6
908.502	1728.4706	3235.35	2340
908.6431	1730.18	3223.65	2329.05
908.7842	1731.8886	3220.8	2328.3
908.9253	1733.5964	3215.85	2316.7
909.0664	1735.3036	3222.5	2328.2
909.2074	1737.0099	3207.15	2312.85
909.3484	1738.7156	3200.45	2310.1
909.4894	1740.4204	3183.9	2288.15
909.6304	1742.1246	3185.55	2290.8
909.7714	1743.8279	3180.65	2288.2
909.9123	1745.5306	3174.45	2279.9
910.0532	1747.2325	3161.85	2268.4
910.1941	1748.9336	3158.9	2268
910.335	1750.634	3153.85	2258.65
910.4759	1752.3336	3140.8	2249.35
910.6168	1754.0325	3132.6	2241.7
910.7576	1755.7307	3126	2233.5
910.8984	1757.4281	3133	2241.8
911.0392	1759.1247	3129.5	2228.35
911.18	1760.8206	3122.3	2222.8
911.3208	1762.5158	3124.3	2227.65
911.4615	1764.2102	3110.2	2218.65
911.6022	1765.9039	3098.15	2206.85
911.7429	1767.5968	3103.25	2211.2
911.8836	1769.289	3086.55	2195.25
912.0243	1770.9804	3081.05	2187.1
912.1649	1772.6711	3087.15	2195.6
912.3056	1774.361	3072.85	2178.9
912.4462	1776.0502	3069.05	2176.55
912.5868	1777.7386	3071.05	2175.65
912.7274	1779.4263	3056.95	2163.3
912.8679	1781.1132	3064.95	2172.25
913.0084	1782.7994	3041.55	2147.3
913.149	1784.4849	3025.75	2133.9
913.2895	1786.1696	3053.1	2154.85
913.4299	1787.8535	3037	2145.4
913.5704	1789.5367	3015.65	2123.3
913.7108	1791.2192	3019	2126.25
913.8513	1792.9009	3020.85	2113.55
913.9917	1794.5818	3014.3	2120.05
914.132	1796.2621	2996.85	2106.35
914.2724	1797.9415	2989.45	2097.7
914.4128	1799.6202	2982.85	2091.2
914.5531	1801.2982	2967.65	2076.05
914.6934	1802.9755	2980.6	2088.2
914.8337	1804.6519	2952.35	2058.4
914.9739	1806.3277	2954.1	2059.25
915.1142	1808.0027	2939.65	2045.9
915.2544	1809.6769	2959.6	2065.15
915.3946	1811.3504	2946.1	2052.15
915.5348	1813.0231	2950.6	2055.35
915.675	1814.6951	2934.55	2040.65
915.8151	1816.3664	2931.35	2036.4
915.9553	1818.0369	2936.55	2042.6
916.0954	1819.7067	2912.3	2019.5
916.2355	1821.3757	2909.4	2014.3
916.3755	1823.044	2908.3	2015.8
916.5156	1824.7115	2926.55	2033.5
916.6556	1826.3783	2894.65	2004
916.7956	1828.0443	2892.85	2000.85
916.9356	1829.7096	2883.55	1989.5
917.0756	1831.3741	2885.25	1990.05
917.2155	1833.0379	2873.65	1980.35
917.3555	1834.701	2864.75	1970.8
917.4954	1836.3633	2875.95	1981.2
917.6353	1838.0248	2871.8	1977.75
917.7751	1839.6856	2869.7	1976.1
917.915	1841.3457	2850.85	1960.95
918.0548	1843.005	2844.65	1953.5
918.1946	1844.6636	2836.5	1944.75
918.3344	1846.3214	2844.3	1951.8
918.4742	1847.9785	2846.6	1953.6
918.6139	1849.6349	2828.85	1935.2
918.7537	1851.2904	2821.45	1919.95
918.8934	1852.9453	2818.1	1924.15
919.0331	1854.5994	2810.05	1914.8
919.1727	1856.2528	2819.3	1920.85
919.3124	1857.9054	2804.4	1910.65
919.452	1859.5572	2802.05	1910.5
919.5916	1861.2083	2798.9	1905.55
919.7312	1862.8587	2791.85	1900.1
919.8708	1864.5084	2793.1	1898.5
920.0103	1866.1572	2789.45	1897.4
920.1498	1867.8054	2776.65	1881.85
920.2893	1869.4528	2777.6	1885.65
920.4288	1871.0994	2769.65	1877.05
920.5683	1872.7453	2763.85	1871.15
920.7077	1874.3905	2776.35	1878
920.8471	1876.0349	2772.3	1877.55
920.9865	1877.6786	2752.65	1860.05
921.1259	1879.3215	2742.15	1850.45
921.2653	1880.9637	2753.5	1861.65
921.4046	1882.6051	2743.6	1851
921.5439	1884.2458	2740.35	1844
921.6832	1885.8858	2731.3	1838.9
921.8225	1887.525	2724.4	1829.15
921.9617	1889.1634	2723.35	1830.6
922.101	1890.8011	2710.9	1816
922.2402	1892.4381	2699.8	1806.25
922.3794	1894.0743	2706.5	1815.9
922.5185	1895.7098	2702.1	1810.65
922.6577	1897.3446	2703.8	1810.85
922.7968	1898.9786	2699.15	1801.45
922.9359	1900.6118	2696.3	1803.9
923.075	1902.2443	2676.05	1782.95
923.214	1903.8761	2671.15	1777.7
923.3531	1905.5071	2667.55	1773.4
923.4921	1907.1374	2652.3	1758.65
923.6311	1908.7669	2665	1771.5
923.77	1910.3957	2657.5	1766.1
923.909	1912.0237	2640.2	1747.8
924.0479	1913.651	2643.4	1750.8
924.1868	1915.2776	2645.55	1753.65
924.3257	1916.9034	2634.5	1741.9
924.4646	1918.5285	2615.8	1724.05
924.6034	1920.1528	2605.9	1711.75
924.7422	1921.7764	2611.85	1719.9
924.881	1923.3992	2592.55	1702.45
925.0198	1925.0213	2591.7	1697.25
925.1586	1926.6427	2588.95	1697.95
925.2973	1928.2633	2685.9	1669.5
925.436	1929.8832	2599.2	1704.4
925.5747	1931.5023	2581.05	1685.85
925.7134	1933.1207	2563.05	1669.85
925.852	1934.7383	2561.75	1668.45
925.9906	1936.3552	2547	1653.3
926.1292	1937.9714	2556.95	1663.25
926.2678	1939.5868	2540.65	1645.75
926.4064	1941.2015	2539.9	1647
926.5449	1942.8154	2532.8	1638.15
926.6834	1944.4286	2517.7	1622.55
926.8219	1946.041	2532.55	1613.65
926.9604	1947.6528	2513.35	1617.55
927.0988	1949.2637	2509.15	1617.45
927.2372	1950.8739	2498.85	1605.55
927.3756	1952.4834	2496.8	1604.55
927.514	1954.0921	2490.2	1596.05
927.6523	1955.7001	2493.7	1596.65
927.7907	1957.3074	2479.75	1586.1
927.929	1958.9139	2486.3	1593.5
928.0673	1960.5197	2481.55	1586.55
928.2055	1962.1247	2455.3	1562.6
928.3438	1963.729	2462.5	1570.05
928.482	1965.3325	2467.25	1551.7
928.6202	1966.9353	2447.3	1555.45
928.7584	1968.5374	2439.25	1546.15
928.8965	1970.1387	2440.4	1547.65
929.0346	1971.7393	2430.7	1536.5
929.1727	1973.3392	2428.65	1535.45
929.3108	1974.9383	2419.55	1525.9
929.4489	1976.5366	2409.05	1515.1
929.5869	1978.1342	2415.6	1519.4
929.7249	1979.7311	2410.45	1515.95
929.8629	1981.3273	2406.8	1512.85
930.0009	1982.9227	2402.3	1508.95
930.1388	1984.5173	2390.7	1497.6
930.2767	1986.1112	2384.6	1491.95
930.4146	1987.7044	2388.2	1496.55
930.5525	1989.2968	2372.25	1477.55
930.6904	1990.8885	2374.9	1479.1
930.8282	1992.4795	2375.45	1479.4
930.966	1994.0697	2371.25	1478.35
931.1038	1995.6592	2369.95	1475.95
931.2415	1997.2479	2366.45	1472.5
931.3793	1998.8359	2352.1	1459.7
931.517	2000.4232	2347	1454.95
931.6547	2002.0097	2334.6	1443.05
931.7923	2003.5955	2333.5	1440
931.93	2005.1805	2341.45	1446.65
932.0676	2006.7648	2334.3	1440.1
932.2052	2008.3484	2328.8	1434.1
932.3427	2009.9312	2332.75	1435.7
932.4803	2011.5133	2316.85	1425.05
932.6178	2013.0946	2317.6	1425.9
932.7553	2014.6752	2312.35	1421.75
932.8928	2016.2551	2304.35	1412.05
933.0302	2017.8342	2303.3	1410.85
933.1676	2019.4126	2301.25	1408.35
933.305	2020.9902	2292.05	1399.85
933.4424	2022.5672	2290.65	1395.35
933.5798	2024.1433	2286.75	1388.95
933.7171	2025.7188	2281.15	1388.05
933.8544	2027.2935	2272.7	1377.45
933.9917	2028.8674	2282.2	1388.2
934.129	2030.4406	2270.6	1378.65
934.2662	2032.0131	2271.2	1379.85
934.4034	2033.5849	2255.4	1359.6
934.5406	2035.1559	2258.5	1364.9
934.6778	2036.7261	2260.75	1368.9
934.8149	2038.2957	2246	1353.85
934.952	2039.8645	2254.15	1361.65
935.0891	2041.4325	2248.3	1353.2
935.2262	2042.9998	2250.25	1357.8
935.3632	2044.5664	2250.8	1357
935.5002	2046.1323	2230.8	1338.05
935.6372	2047.6974	2237.95	1343.8
935.7742	2049.2617	2222.35	1331.35
935.9111	2050.8254	2246.2	1333.35
936.048	2052.3883	2223.95	1330.15
936.1849	2053.9504	2220.6	1326.95
936.3218	2055.5118	2212.9	1318.6
936.4586	2057.0725	2211.6	1314.05
936.5955	2058.6325	2206.1	1310.5
936.7323	2060.1917	2203.6	1312.5
936.869	2061.7502	2211.95	1316.4
937.0058	2063.3079	2196.45	1304.95
937.1425	2064.8649	2200.3	1304.2
937.2792	2066.4212	2197.35	1301.5
937.4159	2067.9767	2191.25	1296.2
937.5525	2069.5315	2174.15	1281.7
937.6891	2071.0856	2175.85	1284.15
937.8257	2072.6389	2165.65	1272.55
937.9623	2074.1915	2164.35	1272.85
938.0989	2075.7433	2171.15	1276.45
938.2354	2077.2945	2151.55	1259.1
938.3719	2078.8448	2157.45	1265
938.5084	2080.3945	2155.15	1263.3
938.6448	2081.9434	2149.8	1255.95
938.7812	2083.4916	2148.15	1254.75
938.9176	2085.039	2142.15	1248.5
939.054	2086.5857	2132.9	1237.4
939.1903	2088.1317	2140.05	1248.35
939.3267	2089.677	2129.85	1235.35
939.463	2091.2215	2133.1	1240.85
939.5992	2092.7652	2123.2	1225.65
939.7355	2094.3083	2118.8	1226.85
939.8717	2095.8506	2114.75	1223
940.0079	2097.3921	2113.55	1221.1
940.1441	2098.933	2113.65	1222.2
940.2802	2100.4731	2112.05	1220.65
940.4163	2102.0124	2128.05	1218.7
940.5524	2103.5511	2118.35	1224.85
940.6885	2105.089	2114.85	1221.5
940.8245	2106.6261	2104.1	1211.2
940.9606	2108.1626	2108.1	1214.9
941.0965	2109.6983	2124.4	1202.35
941.2325	2111.2332	2100.25	1205.65
941.3684	2112.7675	2092.4	1200.65
941.5044	2114.301	2089.85	1195.8
941.6403	2115.8337	2089.2	1195.4
941.7761	2117.3657	2093.9	1202
941.912	2118.897	2082.65	1188.65
942.0478	2120.4276	2093.5	1193.35
942.1835	2121.9575	2074.65	1179.75
942.3193	2123.4866	2086.85	1179.35
942.455	2125.0149	2070.6	1174.6
942.5907	2126.5426	2065.55	1172.4
942.7264	2128.0695	2070.2	1174.25
942.8621	2129.5956	2055.6	1162.95
942.9977	2131.1211	2052.4	1156.6
943.1333	2132.6458	2049.3	1156.6
943.2689	2134.1698	2048.65	1155.4
943.4044	2135.693	2036.45	1140.4
943.54	2137.2155	2050	1153.5
943.6755	2138.7373	2045.75	1151.95
943.8109	2140.2584	2038.35	1146.15
943.9464	2141.7787	2034.8	1136.8
944.0818	2143.2983	2027.5	1136.55
944.2172	2144.8171	2008.85	1117.95
944.3526	2146.3353	2025.45	1133.1
944.4879	2147.8527	2013.35	1119.5
944.6232	2149.3693	2023.3	1129.6
944.7585	2150.8853	2008.9	1115.45
944.8938	2152.4005	1997.45	1103.95
945.029	2153.9149	2001.55	1108.35
945.1642	2155.4287	2102.8	1102.95
945.2994	2156.9417	2009.8	1114.6
945.4346	2158.454	2000.45	1107.25
945.5697	2159.9655	2000.1	1108.35
945.7048	2161.4764	1985.75	1094
945.8399	2162.9865	1983.3	1092.35
945.9749	2164.4958	1979.4	1086.35
946.1099	2166.0045	1980.1	1084.3
946.2449	2167.5124	1978.8	1085.7
946.3799	2169.0195	1980.25	1085.85
946.5148	2170.526	1976.45	1082.4
946.6498	2172.0317	1966.45	1072.65
946.7846	2173.5367	1972	1078.2
946.9195	2175.0409	1956.7	1063.05
947.0543	2176.5445	1962.05	1069.85
947.1891	2178.0473	1962.1	1069.75
947.3239	2179.5494	1958.35	1063.35
947.4587	2181.0507	1950.75	1057.15
947.5934	2182.5513	1948.5	1055.15
947.7281	2184.0512	1943.45	1050.4
947.8628	2185.5504	1953	1060.95
947.9974	2187.0488	1938.1	1045.75
948.132	2188.5465	1937.8	1045.8
948.2666	2190.0435	1932.1	1039.55
948.4012	2191.5397	1931.9	1038.8
948.5357	2193.0353	1916.4	1024.3
948.6702	2194.5301	1915.45	1019.9
948.8047	2196.0241	1910.55	1017.65
948.9392	2197.5175	1911.05	1018.45
949.0736	2199.0101	1917.35	1020.15
949.208	2200.502	1904.55	1011.85
949.3424	2201.9931	1903.9	1012.2
949.4767	2203.4835	1899.65	1004.6
949.611	2204.9733	1911.5	1001
949.7453	2206.4622	1899.05	1007.55
949.8796	2207.9505	1886.2	989.7
950.0138	2209.438	1894.75	1002.05
950.148	2210.9248	1878.7	985.35
950.2822	2212.4109	1884.1	991.25
950.4164	2213.8962	1882.8	986.95
950.5505	2215.3809	1872.95	979.3
950.6846	2216.8648	1870.85	976.65
950.8186	2218.3479	1871.75	973.7
950.9527	2219.8304	1863.5	967.25
951.0867	2221.3121	1863.8	968.2
951.2207	2222.7931	1853.35	959.15
951.3546	2224.2733	1847.5	954.6
951.4886	2225.7529	1844.35	951.2
951.6225	2227.2317	1846.8	952.25
951.7563	2228.7098	1847.5	955.05
951.8902	2230.1872	1849.5	956.55
952.024	2231.6638	1844.55	952.7
952.1578	2233.1397	1841.1	941.2
952.2916	2234.6149	1832.45	939.15
952.4253	2236.0894	1827.1	934.05
952.559	2237.5632	1827.55	933.3
952.6927	2239.0362	1815.5	922.5
952.8263	2240.5085	1813.1	920.7
952.9599	2241.9801	1818.6	926.45
953.0935	2243.4509	1818.65	927.8
953.2271	2244.921	1812.5	920.8
953.3606	2246.3904	1802.8	907.85
953.4941	2247.8591	1793.85	900.9
953.6276	2249.3271	1804.75	911.95
953.7611	2250.7943	1799.3	906.15
953.8945	2252.2608	1792.75	899.4
954.0279	2253.7266	1788.3	896.2
954.1612	2255.1917	1785.7	892.6
954.2946	2256.656	1783.4	891.1
954.4279	2258.1197	1779.15	885.05
954.5612	2259.5826	1789.5	894.55
954.6944	2261.0447	1781.5	886.65
954.8276	2262.5062	1775.85	880.8
954.9608	2263.9669	1773.15	878.2
955.094	2265.4269	1766.3	874.9
955.2271	2266.8862	1772.05	879.9
955.3602	2268.3448	1764.55	872.25
955.4933	2269.8026	1763.95	869.25
955.6264	2271.2598	1753.9	859.6
955.7594	2272.7162	1760.4	868.7
955.8924	2274.1719	1754.95	861.1
956.0253	2275.6268	1751.85	859.95
956.1583	2277.0811	1754.9	862.5
956.2912	2278.5346	1744.75	851.7
956.4241	2279.9874	1754.35	862.5
956.5569	2281.4395	1757	864.7
956.6897	2282.8908	1739.75	842.05
956.8225	2284.3414	1744.85	851.6
956.9553	2285.7914	1748	854.85
957.088	2287.2406	1737.95	842.6
957.2207	2288.689	1727.45	835.25
957.3534	2290.1368	1732.55	839.5
957.486	2291.5838	1732.25	838.05
957.6186	2293.0302	1724.2	829.6
957.7512	2294.4758	1725.35	833
957.8838	2295.9206	1723.3	828.05
958.0163	2297.3648	1720	826.6
958.1488	2298.8082	1708.85	815.05
958.2813	2300.251	1709.1	815.2
958.4137	2301.693	1703.4	807.55
958.5461	2303.1343	1704.45	811.3
958.6785	2304.5748	1706.6	812.75
958.8108	2306.0147	1702.35	809.25
958.9432	2307.4538	1699.55	804.65
959.0754	2308.8922	1697.8	806.2
959.2077	2310.3299	1688.7	795.9
959.3399	2311.7669	1684.35	792.35
959.4721	2313.2031	1689.45	795.05
959.6043	2314.6387	1690.9	796.65
959.7365	2316.0735	1685.55	792.8
959.8686	2317.5076	1678.2	785.05
960.0006	2318.941	1677.8	785.75
960.1327	2320.3737	1687.1	793.45
960.2647	2321.8056	1682.55	787.85
960.3967	2323.2369	1667.1	774.8
960.5287	2324.6674	1670.35	775.4
960.6606	2326.0972	1671.15	775.65
960.7925	2327.5263	1663.4	770.55
960.9244	2328.9547	1667.95	775.65
961.0562	2330.3823	1669.6	775.65
961.1881	2331.8092	1671.5	775.2
961.3198	2333.2355	1653.95	760.25
961.4516	2334.661	1652.35	760.45
961.5833	2336.0858	1651.35	754.45
961.715	2337.5098	1648.6	756.25
961.8467	2338.9332	1646.8	753.45
961.9783	2340.3558	1649.55	752.85
962.1099	2341.7778	1641	749.3
962.2415	2343.199	1644.85	749.55
962.373	2344.6195	1649.2	756.9
962.5045	2346.0393	1638.1	744.9
962.636	2347.4583	1632.4	737.5
962.7675	2348.8767	1623.4	728.35
962.8989	2350.2943	1623.6	728.75
963.0303	2351.7113	1638.7	746.75
963.1617	2353.1275	1632.5	739.2
963.293	2354.543	1643.95	726.95
963.4243	2355.9578	1616.35	724.1
963.5556	2357.3718	1613.35	720.05
963.6868	2358.7852	1615.55	719.85
963.818	2360.1978	1613.55	719.1
963.9492	2361.6098	1609.65	715.8
964.0803	2363.021	1610.4	713.85
964.2114	2364.4315	1602.45	708.95
964.3425	2365.8413	1600.4	706.1
964.4736	2367.2504	1598.8	705.25
964.6046	2368.6587	1597.6	703.95
964.7356	2370.0664	1598.65	704.75
964.8666	2371.4733	1597.35	704.95
964.9975	2372.8795	1595.1	700.9
965.1284	2374.285	1592.45	699.9
965.2593	2375.6899	1582.75	692
965.3901	2377.0939	1573.6	682.2
965.5209	2378.4973	1588.2	695.45
965.6517	2379.9	1584.4	691.5
965.7825	2381.3019	1571.4	677.7
965.9132	2382.7032	1570.95	679.45
966.0439	2384.1037	1567.65	675.15
966.1745	2385.5035	1578.2	685.1
966.3051	2386.9027	1570.25	677
966.4357	2388.3011	1575.8	678.85
966.5663	2389.6987	1571.85	678.5
966.6968	2391.0957	1552.8	660.8
966.8273	2392.492	1556.55	665.55
966.9578	2393.8876	1554.55	659.4
967.0882	2395.2824	1555.6	661.15
967.2186	2396.6765	1552.45	660.25
967.349	2398.07	1542.45	649.55
967.4793	2399.4627	1538.05	643.5
967.6097	2400.8547	1547.25	655.2
967.7399	2402.246	1547.15	648.05
967.8702	2403.6366	1531.1	635.15
968.0004	2405.0265	1532	637.65
968.1306	2406.4156	1537.05	638
968.2607	2407.8041	1527.85	631.9
968.3909	2409.1918	1526.95	630.65
968.521	2410.5789	1525.85	632.85
968.651	2411.9652	1530.15	635.3
968.781	2413.3508	1520.85	626.8
968.911	2414.7358	1526.35	632.05
969.041	2416.12	1510.05	615.9
969.1709	2417.5035	1507.3	614.75
969.3008	2418.8863	1509.05	614.6
969.4307	2420.2684	1513	620.4
969.5606	2421.6497	1501.55	609.1
969.6904	2423.0304	1500.95	607.75
969.8201	2424.4104	1500.3	605.85
969.9499	2425.7896	1500.95	605.5
970.0796	2427.1682	1486.2	593.75
970.2093	2428.546	1494.25	600.35
970.3389	2429.9232	1493.95	598.35
970.4685	2431.2996	1492.35	600.35
970.5981	2432.6753	1497.75	604.35
970.7277	2434.0503	1486.1	589.95
970.8572	2435.4246	1483.05	589.9
970.9867	2436.7982	1487.75	592.25
971.1161	2438.1711	1478.6	587.05
971.2456	2439.5433	1476.5	582.5
971.375	2440.9148	1480.7	582.8
971.5043	2442.2856	1469.7	576.65
971.6336	2443.6557	1488.95	593.45
971.7629	2445.025	1470.6	577.05
971.8922	2446.3937	1473.55	579.9
972.0214	2447.7617	1464.65	570.45
972.1506	2449.1289	1467.85	573.8
972.2798	2450.4955	1462.55	565.75
972.4089	2451.8613	1457.5	563.3
972.538	2453.2265	1462.65	568.2
972.6671	2454.5909	1465.45	571.5
972.7961	2455.9546	1461.95	568.7
972.9251	2457.3177	1452.35	560.15
973.0541	2458.68	1456.8	561.35
973.1831	2460.0416	1457.05	562.6
973.312	2461.4025	1456.35	562.2
973.4408	2462.7627	1466.45	561.5
973.5697	2464.1222	1446.9	552.75
973.6985	2465.4811	1453.5	560.55
973.8273	2466.8392	1446.45	551.95
973.956	2468.1966	1450.2	554.8
974.0847	2469.5533	1441.9	546.65
974.2134	2470.9093	1441.75	547.55
974.3421	2472.2645	1436.2	540.2
974.4707	2473.6191	1433.25	539.9
974.5993	2474.973	1436.05	543
974.7278	2476.3262	1434.05	539.5
974.8563	2477.6787	1431.05	537.85
974.9848	2479.0305	1429.95	538.2
975.1132	2480.3816	1430.9	535.45
975.2417	2481.7319	1425.5	530.15
975.37	2483.0816	1415.25	519.8
975.4984	2484.4306	1423.75	531.1
975.6267	2485.7789	1418.55	524.2
975.755	2487.1264	1422.2	529
975.8833	2488.4733	1410.05	517.9
976.0115	2489.8195	1424.6	524.3
976.1397	2491.165	1415.6	518.95
976.2678	2492.5097	1416.3	521.05
976.3959	2493.8538	1404.35	508.95
976.524	2495.1972	1405.5	510.35
976.6521	2496.5398	1402.4	507.9
976.7801	2497.8818	1402.75	504.85
976.9081	2499.2231	1401.95	509.85
977.036	2500.5637	1397.65	503.1
977.164	2501.9035	1398.4	505.05
977.2918	2503.2427	1398.85	502.1
977.4197	2504.5812	1398.1	504.8
977.5475	2505.919	1392.1	497.85
977.6753	2507.256	1394.7	500.4
977.8031	2508.5924	1391.35	497.8
977.9308	2509.9281	1389.45	489.85
978.0585	2511.2631	1386.05	492.3
978.1861	2512.5974	1382.4	490.7
978.3137	2513.9309	1374.55	482
978.4413	2515.2638	1395.65	479.55
978.5689	2516.596	1373.8	480.05
978.6964	2517.9275	1372.05	477.6
978.8239	2519.2583	1372.6	477.15
978.9513	2520.5884	1376.5	481.05
979.0788	2521.9178	1369.9	474.55
979.2062	2523.2465	1364.25	470.95
979.3335	2524.5745	1370.35	476.75
979.4608	2525.9018	1363.3	470.15
979.5881	2527.2284	1357	465.1
979.7154	2528.5543	1362.05	469.25
979.8426	2529.8796	1362.5	467.85
979.9698	2531.2041	1360.85	467.4
980.0969	2532.5279	1363.35	473.4
980.224	2533.851	1361.6	469.2
980.3511	2535.1735	1352.85	459.4
980.4781	2536.4952	1355.1	462.05
980.6052	2537.8163	1356.85	464.35
980.7321	2539.1366	1348.15	454.3
980.8591	2540.4562	1356.4	462.9
980.986	2541.7752	1342.8	449.05
981.1129	2543.0935	1344.85	450.85
981.2397	2544.411	1348.15	453.05
981.3665	2545.7279	1341.6	447.85
981.4933	2547.0441	1347.35	453.4
981.62	2548.3596	1345.85	449.85
981.7467	2549.6744	1338.85	445.25
981.8734	2550.9885	1342.2	442.3
982.0001	2552.3019	1336.5	444.75
982.1267	2553.6146	1338.65	445
982.2532	2554.9266	1337.1	441.95
982.3798	2556.2379	1340.95	446.85
982.5063	2557.5485	1329.65	437.35
982.6327	2558.8585	1333.65	432
982.7592	2560.1677	1341.8	444.3
982.8856	2561.4762	1321.6	428.4
983.0119	2562.7841	1332.25	436.7
983.1383	2564.0913	1320.25	428.25
983.2646	2565.3977	1325.9	431.8
983.3908	2566.7035	1326	433.15
983.517	2568.0086	1330.7	436.3
983.6432	2569.313	1325.65	431.2
983.7694	2570.6167	1328.8	431.7
983.8955	2571.9197	1319.4	424.5
984.0216	2573.222	1326.5	430.75
984.1476	2574.5236	1321.3	426.55
984.2737	2575.8246	1319.2	421.5
984.3996	2577.1248	1322.45	426.4
984.5256	2578.4244	1312.9	420.7
984.6515	2579.7232	1312.7	420.35
984.7774	2581.0214	1340.65	419.75
984.9032	2582.3189	1311.45	418.55
985.029	2583.6157	1324.9	417.15
985.1548	2584.9118	1314.4	419.3
985.2806	2586.2072	1316.85	424.5
985.4063	2587.5019	1310.1	416.85
985.5319	2588.7959	1313.3	419.15
985.6576	2590.0893	1310.45	414.65
985.7832	2591.3819	1303.1	409.5
985.9087	2592.6739	1303.35	413.6
986.0343	2593.9652	1301.15	407.1
986.1597	2595.2557	1302.4	409.2
986.2852	2596.5456	1305.45	411.45
986.4106	2597.8348	1300.55	406.95
986.536	2599.1234	1295.45	402.6
986.6614	2600.4112	1296.5	403.05
986.7867	2601.6983	1304.55	408.15
986.912	2602.9848	1299.15	406.05
987.0372	2604.2705	1304.2	405.7
987.1624	2605.5556	1296.85	403.35
987.2876	2606.84	1298.6	406.5
987.4128	2608.1237	1289	395.9
987.5379	2609.4067	1287.55	393.2
987.6629	2610.689	1296.4	394.15
987.788	2611.9707	1290.45	394.1
987.913	2613.2516	1289.8	391.85
988.0379	2614.5319	1280.7	387.45
988.1629	2615.8115	1276.95	383.5
988.2878	2617.0903	1279.55	382.8
988.4126	2618.3685	1279.45	386.4
988.5375	2619.6461	1273.05	379.75
988.6622	2620.9229	1273.1	380.25
988.787	2622.199	1269.75	374.85
988.9117	2623.4745	1272.9	378.85
989.0364	2624.7493	1264.95	372
989.161	2626.0234	1271.55	378.45
989.2857	2627.2968	1266.75	372.5
989.4102	2628.5695	1266.45	371.9
989.5348	2629.8415	1259.95	365.15
989.6593	2631.1128	1262.3	366.4
989.7837	2632.3835	1260.35	367.7
989.9082	2633.6535	1257.75	366.8
990.0326	2634.9228	1256.5	364.35
990.1569	2636.1914	1251.15	358.75
990.2812	2637.4593	1260.5	362.15
990.4055	2638.7265	1257.7	363.5
990.5298	2639.9931	1254.2	361.7
990.654	2641.259	1251.1	358.35
990.7782	2642.5242	1251.9	358.7
990.9023	2643.7887	1243.8	349.6
991.0264	2645.0525	1253.45	359.55
991.1505	2646.3156	1257.25	348.5
991.2745	2647.5781	1246.45	352
991.3985	2648.8398	1242.1	350.25
991.5225	2650.1009	1247.4	348.75
991.6464	2651.3613	1249	357.45
991.7703	2652.6211	1244.45	351.7
991.8942	2653.8801	1239.95	346
992.018	2655.1385	1238.5	341.1
992.1418	2656.3961	1235.4	343.05
992.2655	2657.6531	1231.75	338.55
992.3892	2658.9094	1234	339.1
992.5129	2660.1651	1226.1	335.75
992.6366	2661.42	1228.9	334.45
992.7602	2662.6743	1233.65	339
992.8837	2663.9279	1230.15	337.1
993.0073	2665.1808	1233.6	339.05
993.1307	2666.433	1229.9	335.25
993.2542	2667.6846	1225.6	331.9
993.3776	2668.9354	1230.1	333.85
993.501	2670.1856	1233	338.35
993.6244	2671.4351	1227.75	333.85
993.7477	2672.6839	1225.1	331.3
993.8709	2673.9321	1224.15	330.8
993.9942	2675.1795	1223.35	329.7
994.1174	2676.4263	1229	336.2
994.2405	2677.6724	1227.9	336.05
994.3637	2678.9179	1223.55	330.2
994.4868	2680.1626	1220.85	328.25
994.6098	2681.4067	1223.15	329.65
994.7328	2682.6501	1218.35	324.3
994.8558	2683.8928	1218.75	327.35
994.9788	2685.1348	1214.15	321.75
995.1017	2686.3761	1209.35	314.45
995.2245	2687.6168	1213.25	320
995.3474	2688.8568	1208.55	314.7
995.4702	2690.0961	1208.65	316
995.5929	2691.3348	1205.95	312.1
995.7156	2692.5727	1203.1	310.4
995.8383	2693.81	1206.9	313.55
995.961	2695.0466	1199.65	307.2
996.0836	2696.2826	1207.5	311.8
996.2062	2697.5178	1203.95	308
996.3287	2698.7524	1197.8	304.3
996.4512	2699.9863	1203.95	308.3
996.5737	2701.2195	1200.95	308.4
996.6961	2702.452	1196.85	303.15
996.8185	2703.6839	1200.65	305.7
996.9408	2704.9151	1198.05	303.8
997.0631	2706.1456	1199.25	307.05
997.1854	2707.3755	1195.4	301.95
997.3077	2708.6046	1201.2	305.75
997.4299	2709.8331	1195.15	300.7
997.552	2711.0609	1195.95	300.15
997.6742	2712.2881	1198.9	304.1
997.7963	2713.5145	1200.7	302.9
997.9183	2714.7403	1192.85	300.1
998.0403	2715.9654	1194.4	298.85
998.1623	2717.1899	1209.9	301.55
998.2842	2718.4136	1196.75	303.95
998.4062	2719.6367	1199.8	306.4
998.528	2720.8591	1205.5	304.65
998.6498	2722.0809	1200.65	306.15
998.7716	2723.3019	1204.25	307.25
998.8934	2724.5223	1203.25	309.35
999.0151	2725.7421	1192.75	297.9
999.1368	2726.9611	1194.55	297.65
999.2584	2728.1795	1199.95	301.85
999.38	2729.3972	1189.9	296.35
999.5016	2730.6142	1197.2	291.4
999.6231	2731.8306	1184.05	289.65
999.7446	2733.0462	1177.85	281.85
999.8661	2734.2612	1183.7	284.5
999.9875	2735.4756	1174.7	280.7
1000.1089	2736.6892	1172.25	279.05
1000.2302	2737.9022	1172.05	279
1000.3515	2739.1145	1168.35	275.2
1000.4728	2740.3262	1175.85	274.85
1000.594	2741.5372	1167.1	273.8
1000.7152	2742.7475	1168.1	272.4
1000.8363	2743.9571	1163.95	267.55
1000.9575	2745.1661	1167	268.3
1001.0785	2746.3744	1164.95	269.45
1001.1996	2747.582	1162.45	267.45
1001.3206	2748.7889	1156.75	261.55
1001.4415	2749.9952	1151.3	260.6
1001.5625	2751.2008	1152.2	257.25
1001.6833	2752.4057	1152.1	258.15
1001.8042	2753.61	1149.85	256.1
1001.925	2754.8136	1148.55	251.95
1002.0458	2756.0165	1141.5	247.8
1002.1665	2757.2188	1148.9	256.25
1002.2872	2758.4204	1144.3	250.85
1002.4078	2759.6213	1145.7	249.55
1002.5285	2760.8215	1148.15	251.15
1002.649	2762.0211	1143.55	247.5
1002.7696	2763.22	1143.3	247.25
1002.8901	2764.4182	1141.9	246.2
1003.0106	2765.6158	1139.5	247.35
1003.131	2766.8127	1140.15	247.2
1003.2514	2768.009	1140.4	248.45
1003.3717	2769.2045	1139.85	245.8
1003.492	2770.3994	1136.35	238.85
1003.6123	2771.5936	1134.55	239.75
1003.7325	2772.7872	1132.55	238.85
1003.8527	2773.9801	1132.35	235.1
1003.9729	2775.1723	1146.2	236.05
1004.093	2776.3639	1131.3	239.1
1004.2131	2777.5548	1126.75	232.6
1004.3331	2778.745	1126.6	232.3
1004.4531	2779.9346	1128.4	237.8
1004.5731	2781.1235	1125.55	231.65
1004.693	2782.3117	1124.75	230.3
1004.8129	2783.4992	1121.4	228.4
1004.9328	2784.6861	1130.15	236.2
1005.0526	2785.8723	1129.6	235.3
1005.1723	2787.0579	1124.2	230.85
1005.2921	2788.2428	1127.75	234.05
1005.4118	2789.427	1125.1	231.45
1005.5314	2790.6106	1127.85	235.4
1005.651	2791.7935	1120.15	225.25
1005.7706	2792.9757	1118.45	225.9
1005.8902	2794.1573	1118.75	222.4
1006.0097	2795.3382	1120.35	226.65
1006.1291	2796.5184	1116.4	224.8
1006.2485	2797.698	1124.15	229.6
1006.3679	2798.8769	1120.4	229.4
1006.4873	2800.0551	1121.65	228.3
1006.6066	2801.2327	1114.5	218.3
1006.7258	2802.4096	1112.9	220.6
1006.8451	2803.5859	1113.9	218.1
1006.9642	2804.7615	1119.8	224.8
1007.0834	2805.9364	1119.65	227.75
1007.2025	2807.1106	1117	224.75
1007.3216	2808.2842	1118	223.7
1007.4406	2809.4572	1121.3	228.35
1007.5596	2810.6294	1128.8	233.7
1007.6785	2811.801	1120.5	227.9
1007.7975	2812.972	1121.3	229.2
1007.9163	2814.1423	1129.95	237.05
1008.0352	2815.3119	1127.65	234.6
1008.154	2816.4808	1132.75	239.95
1008.2727	2817.6491	1136.85	243
1008.3914	2818.8167	1138.75	246.05
1008.5101	2819.9837	1149.9	252
1008.6288	2821.15	1151.4	257.15
1008.7474	2822.3157	1164.65	270.95
1008.8659	2823.4807	1172.65	280.45
1008.9844	2824.645	1187.1	291.6
1009.1029	2825.8086	1200.2	308.1
1009.2214	2826.9716	1210	315.4
1009.3398	2828.134	1227.35	333.25
1009.4581	2829.2957	1235.25	343.2
1009.5764	2830.4567	1238.9	347.05
1009.6947	2831.617	1251.9	357.65
1009.813	2832.7767	1255.7	362.85
1009.9312	2833.9358	1249.1	357.1
1010.0493	2835.0941	1254.35	358.65
1010.1675	2836.2519	1242.25	349.4
1010.2855	2837.4089	1240.2	345.15
1010.4036	2838.5653	1231.95	340.65
1010.5216	2839.7211	1220.25	329.85
1010.6396	2840.8761	1228.15	334.7
1010.7575	2842.0306	1222.7	333.2
1010.8754	2843.1843	1226.1	333.25
1010.9932	2844.3374	1219.05	325.9
1011.111	2845.4899	1226.05	332.8
1011.2288	2846.6417	1227.85	335.05
1011.3465	2847.7928	1229.3	334.85
1011.4642	2848.9433	1229.25	336.2
1011.5818	2850.0931	1231.6	338.8
1011.6995	2851.2422	1233.75	339.8
1011.817	2852.3907	1232.65	339.05
1011.9345	2853.5385	1237.35	343.55
1012.052	2854.6857	1241.45	339.35
1012.1695	2855.8323	1233.35	341.4
1012.2869	2856.9781	1243.8	350.5
1012.4042	2858.1233	1248.2	355.05
1012.5216	2859.2679	1251.7	358.45
1012.6389	2860.4118	1252.4	360.7
1012.7561	2861.555	1257.5	359.6
1012.8733	2862.6976	1267.45	372.7
1012.9905	2863.8395	1272.2	378.55
1013.1076	2864.9808	1268.8	375.65
1013.2247	2866.1214	1270	378.6
1013.3417	2867.2614	1276.15	381.75
1013.4587	2868.4007	1278.6	382.1
1013.5757	2869.5393	1280.4	385.65
1013.6926	2870.6773	1289.05	393.75
1013.8095	2871.8146	1291.55	395.2
1013.9263	2872.9513	1292.55	399.05
1014.0431	2874.0874	1293.85	401.9
1014.1599	2875.2227	1296.45	402.45
1014.2766	2876.3574	1297.5	406.1
1014.3933	2877.4915	1298.05	404.75
1014.51	2878.6249	1306.3	413.05
1014.6266	2879.7577	1309.1	413.4
1014.7431	2880.8898	1326.3	420.2
1014.8596	2882.0212	1315.8	423.35
1014.9761	2883.152	1316.05	421.3
1015.0925	2884.2821	1323.25	431.65
1015.2089	2885.4116	1326.25	434.3
1015.3253	2886.5405	1324.8	433.05
1015.4416	2887.6686	1338.6	442
1015.5579	2888.7962	1330.4	438.3
1015.6741	2889.923	1329.55	439
1015.7903	2891.0493	1328.2	436
1015.9065	2892.1748	1330	435.95
1016.0226	2893.2997	1327	432.35
1016.1387	2894.424	1327.9	436.05
1016.2547	2895.5476	1325.8	432.15
1016.3707	2896.6706	1322.1	429.85
1016.4866	2897.7929	1329.55	434.7
1016.6025	2898.9145	1327.9	435.4
1016.7184	2900.0355	1325.2	430.4
1016.8342	2901.1559	1327.2	432.65
1016.95	2902.2756	1321.15	423.2
1017.0658	2903.3946	1314.1	420.9
1017.1815	2904.513	1315.4	418.6
1017.2971	2905.6308	1308.15	415.1
1017.4127	2906.7479	1306.9	414
1017.5283	2907.8643	1303.9	410.8
1017.6439	2908.9801	1314	420.6
1017.7594	2910.0953	1300.8	406.85
1017.8748	2911.2098	1309.9	412.1
1017.9902	2912.3236	1311.05	409.9
1018.1056	2913.4368	1302.8	406.9
1018.2209	2914.5494	1304.9	412.7
1018.3362	2915.6613	1307.95	408.9
1018.4515	2916.7725	1292.15	396
1018.5667	2917.8831	1293.85	398.7
1018.6819	2918.9931	1287.5	391.85
1018.797	2920.1024	1274.4	380
1018.9121	2921.211	1269.3	376.75
1019.0271	2922.319	1269.95	375.25
1019.1421	2923.4264	1256.7	361.8
1019.2571	2924.5331	1262.6	369.45
1019.372	2925.6391	1258.95	365.15
1019.4869	2926.7445	1258.7	366.7
1019.6017	2927.8493	1259.45	366.6
1019.7165	2928.9534	1263.15	369.6
1019.8313	2930.0569	1271.2	374.9
1019.946	2931.1597	1267.75	371.8
1020.0606	2932.2619	1269.3	376.8
1020.1753	2933.3634	1266.55	373.7
1020.2899	2934.4643	1282.85	381.65
1020.4044	2935.5645	1282.85	382.8
1020.5189	2936.6641	1278.85	382.75
1020.6334	2937.763	1280.35	386.6
1020.7478	2938.8613	1283.1	391.45
1020.8622	2939.959	1279.4	381.3
1020.9765	2941.056	1266.05	373.7
1021.0908	2942.1523	1260.65	366.65
1021.2051	2943.248	1241.65	346.85
1021.3193	2944.3431	1233.7	341.95
1021.4334	2945.4375	1214.6	320.75
1021.5476	2946.5313	1209.85	317.15
1021.6617	2947.6244	1194.6	301.55
1021.7757	2948.7169	1181.85	287.9
1021.8897	2949.8087	1176	283.4
1022.0037	2950.8999	1159	265.2
1022.1176	2951.9904	1150.2	259
1022.2315	2953.0803	1146.95	252.6
1022.3453	2954.1696	1138.2	245.9
1022.4591	2955.2582	1131.8	238.8
1022.5728	2956.3462	1123.95	229.8
1022.6865	2957.4335	1129.15	234.7
1022.8002	2958.5202	1122.05	226.05
1022.9138	2959.6062	1122.4	227.25
1023.0274	2960.6916	1116.15	223.65
1023.141	2961.7764	1118	223.6
1023.2545	2962.8605	1122.6	228.45
1023.3679	2963.9439	1117.8	224.25
1023.4813	2965.0267	1122.55	226.5
1023.5947	2966.1089	1135.85	217.25
1023.708	2967.1905	1110.45	217.05
1023.8213	2968.2714	1113.4	221.2
1023.9346	2969.3516	1109.95	217.25
1024.0478	2970.4312	1117.7	216.05
1024.1609	2971.5102	1107.35	213.4
1024.274	2972.5885	1105.15	212.1
1024.3871	2973.6662	1114.7	216.75
1024.5002	2974.7432	1106.8	213.45
1024.6132	2975.8196	1108.6	214.05
1024.7261	2976.8954	1108.65	216.25
1024.839	2977.9705	1107.3	216.3
1024.9519	2979.045	1107.05	214.1
1025.0647	2980.1188	1104.4	212.1
1025.1775	2981.192	1105.75	213.15
1025.2902	2982.2645	1105.8	210.8
1025.4029	2983.3364	1101.5	207.1
1025.5156	2984.4077	1093.6	199.4
1025.6282	2985.4783	1096.35	196.3
1025.7407	2986.5483	1081.5	188.6
1025.8532	2987.6177	1081.45	190.05
1025.9657	2988.6864	1081.4	188.9
1026.0782	2989.7545	1077.6	182
1026.1906	2990.8219	1070.65	176.35
1026.3029	2991.8887	1072	177.05
1026.4152	2992.9548	1064.85	171.55
1026.5275	2994.0204	1057.05	164.95
1026.6397	2995.0852	1054.45	162.5
1026.7519	2996.1495	1051.1	155.65
1026.864	2997.2131	1043.45	149.8
1026.9761	2998.276	1038.55	145.45
1027.0882	2999.3383	1037.35	143.05
1027.2002	3000.4	1030.3	135
1027.3122	3001.4611	1031.75	138.7
1027.4241	3002.5215	1025.55	132
1027.536	3003.5812	1022.05	129.35
1027.6478	3004.6404	1016.85	125.55
1027.7596	3005.6989	1021.7	125.15
1027.8714	3006.7567	1016.75	123.1
1027.9831	3007.8139	1035.2	121.35
1028.0947	3008.8705	1015.35	123.15
1028.2064	3009.9264	1011.55	116.4
1028.3179	3010.9818	1017.3	123.6
1028.4295	3012.0364	1009.15	114.95
1028.541	3013.0905	1002.5	107.1
1028.6524	3014.1439	1010.95	118
1028.7638	3015.1966	1005.9	113.8
1028.8752	3016.2487	1003.5	109.2
1028.9865	3017.3002	1008.5	110.85
1029.0978	3018.3511	1001.9	108.6
1029.209	3019.4013	1003	108.7
1029.3202	3020.4509	1002.05	111.1
1029.4314	3021.4998	1001.6	108.2
1029.5425	3022.5481	1002.55	112.05
1029.6535	3023.5958	1003.1	108.45
1029.7645	3024.6428	1001.05	106.1
1029.8755	3025.6892	1001.75	108.65
1029.9864	3026.735	996.55	101.85
1030.0973	3027.7802	1002.3	108.65
1030.2082	3028.8247	993.7	100.65
1030.319	3029.8685	998.95	107.45
1030.4297	3030.9118	1001	106.65
1030.5404	3031.9544	992.6	100.15
1030.6511	3032.9963	994.65	99.95
1030.7617	3034.0376	996.5	101.6
1030.8723	3035.0783	996.95	102.15
1030.9829	3036.1184	996	103.6
1031.0934	3037.1578	995.15	103
1031.2038	3038.1966	1000.15	106.25
1031.3142	3039.2348	995.15	102
1031.4246	3040.2723	1005.75	103.8
1031.5349	3041.3092	993.85	100.2
1031.6452	3042.3455	996.45	103.75
1031.7554	3043.3811	992.1	97.55
1031.8656	3044.4161	998.25	104.9
1031.9758	3045.4505	993.15	102.05
1032.0859	3046.4842	994.3	100.2
1032.1959	3047.5173	995.3	103.25
1032.3059	3048.5498	994.3	99.9
1032.4159	3049.5816	994.55	102.3
1032.5258	3050.6128	995.65	99.2
1032.6357	3051.6434	994.85	100.55
1032.7455	3052.6734	993.15	97.85
1032.8553	3053.7027	992.25	97.35
1032.9651	3054.7314	992.7	100.9
1033.0748	3055.7594	992.4	99.45
1033.1845	3056.7868	997.6	102.3
1033.2941	3057.8136	993.1	101.8
1033.4037	3058.8398	992.75	99.1
1033.5132	3059.8653	992.4	101
1033.6227	3060.8902	995.25	102.75
1033.7321	3061.9145	995	102.3
1033.8415	3062.9381	995.25	101.6
1033.9509	3063.9612	1012.7	105.4
1034.0602	3064.9835	995.05	101.15
1034.1694	3066.0053	997.4	101.8
1034.2787	3067.0264	992.05	99.6
1034.3878	3068.0469	996.75	104.2
1034.497	3069.0668	994.25	98.4
1034.6061	3070.086	989.75	98.15
1034.7151	3071.1046	992	97.1
1034.8241	3072.1226	994.05	100.85
1034.9331	3073.1399	987.9	95.8
1035.042	3074.1567	991.75	98.4
1035.1508	3075.1727	990.1	94.95
1035.2597	3076.1882	987.5	94.25
1035.3684	3077.203	988.95	96.35
1035.4772	3078.2173	984.95	91.65
1035.5859	3079.2308	985.65	90.5
1035.6945	3080.2438	987.4	89.9
1035.8031	3081.2561	981.5	87.05
1035.9117	3082.2678	975.75	82.05
1036.0202	3083.2789	979.4	87.1
1036.1286	3084.2893	977.6	84.45
1036.2371	3085.2991	979.7	85.65
1036.3454	3086.3083	982.8	87.1
1036.4538	3087.3169	978.55	82.9
1036.562	3088.3248	978.4	82.8
1036.6703	3089.3321	974.75	79.65
1036.7785	3090.3388	972.1	79.75
1036.8866	3091.3449	970.05	76.8
1036.9948	3092.3503	976.2	80.2
1037.1028	3093.3551	967.95	76.75
1037.2108	3094.3593	970.65	77.85
1037.3188	3095.3629	969.2	75.75
1037.4267	3096.3658	971.15	75.65
1037.5346	3097.3681	971.9	78.05
1037.6425	3098.3698	970.4	76.25
1037.7503	3099.3708	975.15	75.55
1037.858	3100.3713	966.25	75.65
1037.9657	3101.3711	967.15	74.95
1038.0734	3102.3702	1105.95	78.2
1038.181	3103.3688	967.7	72.95
1038.2886	3104.3667	965.85	72.25
1038.3961	3105.364	962.2	70.5
1038.5036	3106.3607	967.1	73.35
1038.611	3107.3568	965.65	69.4
1038.7184	3108.3522	964.75	73.3
1038.8257	3109.347	962.45	67.7
1038.933	3110.3412	967.9	70.55
1039.0403	3111.3348	961.25	68.05
1039.1475	3112.3277	961.25	67.85
1039.2547	3113.32	958.7	66.45
1039.3618	3114.3117	960.3	68.05
1039.4689	3115.3028	958.65	64.85
1039.5759	3116.2932	961.25	67
1039.6829	3117.2831	960.05	60.95
1039.7898	3118.2723	958	65.3
1039.8967	3119.2608	955.65	62.5
1040.0035	3120.2488	957.8	63.85
1040.1103	3121.2361	957.4	63.35
1040.2171	3122.2229	956.85	66.9
1040.3238	3123.209	954.85	62.05
1040.4305	3124.1944	954.95	61.75
1040.5371	3125.1793	957.35	61.45
1040.6437	3126.1635	954.4	61.8
1040.7502	3127.1471	955.8	63.9
1040.8567	3128.1301	953.35	60.3
1040.9631	3129.1125	950.4	57.7
1041.0695	3130.0942	953.45	60.55
1041.1759	3131.0753	957.65	55.2
1041.2822	3132.0558	953.5	54.85
1041.3884	3133.0357	953.6	60.75
1041.4946	3134.015	950.1	56
1041.6008	3134.9936	952.4	57.25
1041.7069	3135.9716	969.9	56
1041.813	3136.949	949.8	55.95
1041.919	3137.9258	965.3	53.9
1042.025	3138.902	952.15	54.65
1042.1309	3139.8775	948.8	55.5
1042.2368	3140.8524	949.3	55.55
1042.3427	3141.8267	949.25	54.1
1042.4485	3142.8004	947.7	54.4
1042.5542	3143.7735	954.5	55.25
1042.6599	3144.7459	949.3	53.35
1042.7656	3145.7178	947.95	55.8
1042.8712	3146.689	947.05	54.55
1042.9768	3147.6596	947.85	53.25
1043.0823	3148.6295	944.3	51.55
1043.1878	3149.5989	946.85	53.4
1043.2932	3150.5676	944.75	52.85
1043.3986	3151.5357	941.15	48.85
1043.5039	3152.5032	944	50.35
1043.6092	3153.4701	944.25	51.35
1043.7145	3154.4364	945.95	49.3
1043.8197	3155.402	941.55	49.95
1043.9248	3156.367	944.6	51
1044.03	3157.3315	979.55	50.85
1044.135	3158.2952	941.5	48.5
1044.24	3159.2584	941.75	48.75
1044.345	3160.221	940.85	47.85
1044.4499	3161.1829	943.1	48.85
1044.5548	3162.1442	940.5	47.8
1044.6596	3163.105	940.15	47.1
1044.7644	3164.065	940.3	45.9
1044.8692	3165.0245	941.45	46.4
1044.9739	3165.9834	939.35	47.8
1045.0785	3166.9416	937.6	46.2
1045.1831	3167.8993	939.2	46.2
1045.2877	3168.8563	938.15	43.45
1045.3922	3169.8127	938.35	44.3
1045.4966	3170.7684	938.8	45.85
1045.6011	3171.7236	938.75	43.7
1045.7054	3172.6782	938.3	44.75
1045.8098	3173.6321	940.15	45.2
1045.914	3174.5854	941.95	44.55
1046.0183	3175.5381	936.45	44.05
1046.1224	3176.4902	940.2	48.8
1046.2266	3177.4417	935.95	44.4
1046.3307	3178.3926	937.5	46.2
1046.4347	3179.3428	934.15	42.3
1046.5387	3180.2924	937.1	44.15
1046.6427	3181.2415	938.15	45.25
1046.7466	3182.1899	937.85	41.1
1046.8504	3183.1377	933.7	39
1046.9542	3184.0848	936.05	40
1047.058	3185.0314	933.05	39.2
1047.1617	3185.9773	936.1	42.5
1047.2654	3186.9227	936.95	41.25
1047.369	3187.8674	935.95	42.1
1047.4726	3188.8115	936.5	39.2
1047.5761	3189.755	936.3	43.65
1047.6796	3190.6979	931.7	37.5
1047.783	3191.6402	933.9	40.9
1047.8864	3192.5818	932.5	39.2
1047.9898	3193.5229	939.05	39.9
1048.0931	3194.4633	931.25	37.55
1048.1963	3195.4031	931.4	37.15
1048.2995	3196.3423	933.1	41
1048.4027	3197.2809	929.3	36.3
1048.5058	3198.2189	932.7	40.1
1048.6089	3199.1563	949.9	39
1048.7119	3200.0931	931	37.35
1048.8148	3201.0292	929.45	37.25
1048.9178	3201.9648	931.2	38.4
1049.0206	3202.8997	934.4	39.25
1049.1235	3203.834	930.35	37.7
1049.2262	3204.7677	932.55	40.35
1049.329	3205.7008	929.2	34.75
1049.4317	3206.6333	927.65	34.95
1049.5343	3207.5652	930.6	36.1
1049.6369	3208.4964	931.7	38.05
1049.7394	3209.4271	930.65	36.65
1049.8419	3210.3571	928.45	36.5
1049.9444	3211.2865	930	36.35
1050.0468	3212.2154	928.95	33.1
1050.1491	3213.1436	932.35	37
1050.2514	3214.0712	935.8	35.4
1050.3537	3214.9982	927.9	36.25
1050.4559	3215.9246	927.35	33.6
1050.5581	3216.8503	928.8	36
1050.6602	3217.7755	926.25	33.45
1050.7623	3218.7001	925.3	30.35
1050.8643	3219.624	926.05	33.4
1050.9663	3220.5473	926.95	33.75
1051.0682	3221.4701	929	33.55
1051.1701	3222.3922	929	33.6
1051.2719	3223.3137	927.15	34.25
1051.3737	3224.2346	926.35	32.65
1051.4754	3225.1549	925.1	32.1
1051.5771	3226.0746	927.35	34.7
1051.6788	3226.9937	925.4	32.3
1051.7804	3227.9121	925.9	33.25
1051.8819	3228.83	924.45	29.65
1051.9834	3229.7473	925.4	31.9
1052.0849	3230.6639	923.15	30
1052.1863	3231.5799	923.65	30.95
1052.2876	3232.4954	925.05	30.65
1052.3889	3233.4102	924.55	33.75
1052.4902	3234.3244	924.4	30.6
1052.5914	3235.238	921.1	26.35
1052.6926	3236.151	940.4	31.35
1052.7937	3237.0634	923.65	31.4
1052.8948	3237.9752	924.6	33.55
1052.9958	3238.8864	926.5	33.15
1053.0968	3239.797	922.8	31.85
1053.1977	3240.7069	923.95	30.7
1053.2986	3241.6163	924.7	29.8
1053.3994	3242.5251	920.5	26.45
1053.5002	3243.4332	919.6	28.15
1053.6009	3244.3408	921.55	26.25
1053.7016	3245.2477	922.55	28.05
1053.8022	3246.154	920.9	26.95
1053.9028	3247.0598	920.95	26.25
1054.0034	3247.9649	918.8	25.3
1054.1039	3248.8694	919.25	26.65
1054.2043	3249.7733	922.95	30.65
1054.3047	3250.6766	921.2	27.2
1054.4051	3251.5793	923.4	29.45
1054.5054	3252.4814	918.85	24
1054.6056	3253.3829	918.5	25.5
1054.7058	3254.2838	920.65	29.7
1054.806	3255.1841	918.85	27.65
1054.9061	3256.0838	920.35	26.45
1055.0061	3256.9829	917.55	23.95
1055.1062	3257.8814	920.45	25.35
1055.2061	3258.7792	920.85	24.7
1055.306	3259.6765	920.9	25.05
1055.4059	3260.5731	919.3	26.55
1055.5057	3261.4692	919.45	25.4
1055.6055	3262.3647	917.95	23.4
1055.7052	3263.2595	918.85	24.85
1055.8049	3264.1538	914.7	21.95
1055.9045	3265.0474	913.15	19.05
1056.0041	3265.9404	915.75	23.35
1056.1036	3266.8329	915.35	22.7
1056.2031	3267.7247	926.6	24.1
1056.3025	3268.616	915.45	23.3
1056.4019	3269.5066	915.25	20.95
1056.5013	3270.3966	914.5	20.85
1056.6005	3271.286	909.75	18.05
