Software Version:	3.9.2.0
Unit SN:	10000200
Spectrometer SN:	6960
Date:	3/26/2024 2:34:07 PM
Data Line Index:	25
Spectral Points:	2048
Integration time (ms):	125
Averages:	20
Delay (ms):	30000
Sequence Number:	1
Processing:	dark subtract
Laser Power (mW):	300
Laser Current (mA):	820
Laser Diode Temp (C):	25
Laser Case Temp (C):	27.8
System Temp (C):	27.9
Spectrometer Temp (C):	25.8
CCD Temp (C):	0.007
Secondary Temp (C):	20.01
Heatsink Temp (C):	23.329
CCDPCB Temp (C):	37.263
SecondaryPCB Temp (C):	34.662

Wavelength	RamanShift	Raw Counts	Dark Subtracted
787.061	30.1047	651.25	241.6
787.2016	32.3739	662.65	253.6
787.3422	34.6426	680.85	270.7
787.4828	36.9109	698.25	286
787.6235	39.1787	715.45	300.2
787.7642	41.4461	745.05	325.8
787.9049	43.7131	770.55	345.65
788.0456	45.9796	797.8	370.45
788.1863	48.2456	821.75	390.15
788.3271	50.5112	846.55	409.15
788.4679	52.7764	873.8	438.5
788.6087	55.0411	905.3	464.3
788.7496	57.3054	936.9	490.8
788.8904	59.5692	979.9	530.5
789.0313	61.8326	1014.5	560.85
789.1722	64.0955	1058.55	601.85
789.3132	66.3579	1098.6	636.8
789.4541	68.6199	1161.95	698.6
789.5951	70.8815	1269.8	802.3
789.7361	73.1426	1464.6	991.5
789.8771	75.4032	2005.25	1527.75
790.0181	77.6634	3320.85	2835.6
790.1592	79.9231	6602.75	6111.35
790.3003	82.1824	14204.5	13694.1
790.4414	84.4412	32448.75	31906.55
790.5825	86.6995	60448.45	59859.8
790.7237	88.9574	65535	64904.8
790.8648	91.2148	65535	64873.95
791.006	93.4717	65535	64851.6
791.1472	95.7282	65535	64845.85
791.2885	97.9842	65535	64835.25
791.4297	100.2398	65535	64836.45
791.571	102.4949	65535	64831.1
791.7123	104.7495	65535	64833.6
791.8536	107.0036	65535	64831.8
791.9949	109.2573	65535	64831.45
792.1363	111.5105	65535	64829.55
792.2777	113.7632	65535	64827
792.4191	116.0154	65535	64814.65
792.5605	118.2672	65535	64816.55
792.7019	120.5185	65535	64815.15
792.8434	122.7693	65535	64817.25
792.9849	125.0197	65535	64818.6
793.1264	127.2696	65535	64815.9
793.2679	129.519	65535	64809.45
793.4094	131.7679	65535	64811
793.551	134.0163	65535	64798.55
793.6926	136.2642	65535	64797.5
793.8342	138.5117	65535	64796.4
793.9758	140.7587	65535	64791.4
794.1175	143.0052	65535	64788.9
794.2591	145.2512	65535	64791.75
794.4008	147.4967	65535	64794.35
794.5425	149.7417	65535	64786.65
794.6842	151.9863	65535	64789
794.826	154.2304	65535	64777.05
794.9677	156.4739	65535	64780.85
795.1095	158.717	65535	64775.3
795.2513	160.9596	65535	64769.55
795.3931	163.2017	65535	64769.85
795.535	165.4433	65535	64769.7
795.6768	167.6844	65535	64773.45
795.8187	169.925	65535	64766.4
795.9606	172.1651	65535	64767.1
796.1025	174.4047	65535	64763.75
796.2445	176.6439	65535	64760.75
796.3864	178.8825	65535	64755.45
796.5284	181.1206	65535	64752.7
796.6704	183.3582	65535	64747.75
796.8124	185.5954	65535	64746.25
796.9544	187.832	65535	64738.7
797.0965	190.0681	65535	64740
797.2386	192.3037	65535	64736.7
797.3806	194.5388	65535	64731.85
797.5228	196.7734	65535	64729.7
797.6649	199.0075	65535	64721.3
797.807	201.2411	65535	64724.55
797.9492	203.4742	65535	64726.4
798.0914	205.7068	65535	64723
798.2336	207.9389	65535	64725.95
798.3758	210.1704	65535	64718.45
798.518	212.4015	65535	64714.3
798.6603	214.632	65535	64722.95
798.8025	216.862	65535	64730.6
798.9448	219.0915	65535	64737.3
799.0871	221.3205	65535	64737.65
799.2294	223.549	65535	64741.3
799.3718	225.777	65535	64743.25
799.5141	228.0044	65535	64734.9
799.6565	230.2314	65535	64743.75
799.7989	232.4578	65535	64737.7
799.9413	234.6837	65535	64732.35
800.0837	236.909	65535	64728.85
800.2262	239.1339	65535	64701.6
800.3687	241.3582	65535	64716.9
800.5111	243.582	65535	64684.05
800.6536	245.8053	65535	64705.75
800.7961	248.0281	65535	64703.6
800.9387	250.2503	65535	64701.3
801.0812	252.472	65535	64697.15
801.2238	254.6932	65535	64696.8
801.3664	256.9139	65535	64697.35
801.509	259.134	65535	64690.25
801.6516	261.3536	65535	64691.4
801.7942	263.5727	65535	64689.95
801.9369	265.7912	65535	64689.95
802.0795	268.0092	65535	64690.8
802.2222	270.2267	65535	64692.6
802.3649	272.4436	65535	64687.9
802.5076	274.6601	65535	64680.95
802.6504	276.8759	65535	64691.85
802.7931	279.0913	65535	64685.55
802.9359	281.3061	65535	64684
803.0787	283.5204	65535	64676.05
803.2215	285.7341	65535	64677.55
803.3643	287.9473	65535	64666.2
803.5071	290.16	65535	64669.05
803.6499	292.3721	65535	64677.95
803.7928	294.5837	65535	64675.75
803.9357	296.7947	65535	64677.35
804.0786	299.0052	65535	64680.95
804.2215	301.2152	65535	64674.7
804.3644	303.4246	65535	64677.75
804.5074	305.6334	65535	64684.9
804.6503	307.8418	65535	64676.85
804.7933	310.0495	65535	64668.05
804.9363	312.2568	65535	64672.5
805.0793	314.4635	65535	64673.6
805.2223	316.6696	65535	64671.3
805.3653	318.8752	65535	64662.85
805.5084	321.0802	65535	64666.65
805.6514	323.2847	65535	64667.05
805.7945	325.4887	65535	64670.15
805.9376	327.692	65535	64668.15
806.0807	329.8949	65535	64665.8
806.2238	332.0972	65535	64665.2
806.367	334.2989	65535	64659.7
806.5101	336.5001	65535	64659.75
806.6533	338.7007	65535	64656.85
806.7965	340.9008	65535	64659.2
806.9397	343.1003	65535	64655.45
807.0829	345.2992	65535	64654.4
807.2261	347.4976	65535	64658.6
807.3693	349.6955	65535	64650.95
807.5126	351.8927	65535	64653.75
807.6559	354.0895	65535	64638.35
807.7991	356.2856	65535	64646.85
807.9424	358.4812	65535	64647.35
808.0857	360.6763	65535	64645.55
808.2291	362.8707	65535	64647.2
808.3724	365.0646	65535	64648.1
808.5158	367.258	65535	64646.85
808.6591	369.4508	65535	64642.9
808.8025	371.643	65535	64638.95
808.9459	373.8346	65535	64638.25
809.0893	376.0257	65535	64633.9
809.2327	378.2162	65535	64637.4
809.3762	380.4062	65535	64634.8
809.5196	382.5956	65535	64632
809.6631	384.7844	65535	64637.2
809.8066	386.9726	65535	64636.65
809.9501	389.1603	65535	64634.35
810.0936	391.3474	65535	64592.3
810.2371	393.5339	65535	64630.45
810.3806	395.7199	65535	64642.45
810.5241	397.9052	65535	64642.45
810.6677	400.09	65535	64641.95
810.8113	402.2743	65535	64642.5
810.9548	404.4579	65535	64646.85
811.0984	406.641	65535	64643.15
811.2421	408.8235	65535	64646.6
811.3857	411.0054	65535	64640.1
811.5293	413.1868	65535	64638.95
811.673	415.3675	65535	64640.4
811.8166	417.5477	65535	64635.45
811.9603	419.7273	65535	64637.7
812.104	421.9064	65535	64630.5
812.2477	424.0848	65535	64636.8
812.3914	426.2627	65535	64630.7
812.5351	428.4399	65535	64630.25
812.6788	430.6166	65535	64629.2
812.8226	432.7928	65535	64626.2
812.9663	434.9683	65535	64631.15
813.1101	437.1432	65535	64629.8
813.2539	439.3176	65535	64635.65
813.3977	441.4914	65535	64631.95
813.5415	443.6645	65535	64630.45
813.6853	445.8371	65535	64626.15
813.8291	448.0091	65535	64628.3
813.973	450.1806	65535	64631.7
814.1168	452.3514	65535	64632.65
814.2607	454.5216	65535	64623.05
814.4046	456.6913	65535	64627.95
814.5485	458.8603	65535	64634.65
814.6924	461.0288	65535	64635.05
814.8363	463.1967	65535	64638.7
814.9802	465.3639	65535	64632.05
815.1241	467.5306	65535	64631.7
815.2681	469.6967	65535	64632.55
815.412	471.8622	65535	64630.4
815.556	474.0271	65535	64632
815.7	476.1914	65535	64625.05
815.844	478.3551	65535	64625.25
815.988	480.5182	65535	64628.1
816.132	482.6807	65535	64631.4
816.276	484.8426	65535	64641.6
816.4201	487.0039	65535	64634.8
816.5641	489.1647	65535	64627.1
816.7082	491.3248	65535	64628.45
816.8522	493.4843	65535	64632.95
816.9963	495.6432	65535	64629.95
817.1404	497.8015	65535	64624
817.2845	499.9592	65535	64614.9
817.4286	502.1163	65535	64620.4
817.5727	504.2728	65535	64625.85
817.7168	506.4287	65535	64636.05
817.861	508.5839	65535	64632.1
818.0051	510.7386	65535	64630
818.1493	512.8927	65535	64617.35
818.2935	515.0461	65535	64620.1
818.4377	517.199	65535	64621.05
818.5818	519.3512	65535	64621.7
818.726	521.5029	65535	64616.85
818.8703	523.6539	65535	64618.9
819.0145	525.8043	65535	64620.05
819.1587	527.9541	65535	64616.15
819.303	530.1033	65535	64617.15
819.4472	532.2519	65535	64621.35
819.5915	534.3999	65535	64615.75
819.7357	536.5472	65535	64621.45
819.88	538.694	65535	64620.25
820.0243	540.8401	65535	64617.7
820.1686	542.9856	65535	64611.3
820.3129	545.1305	65535	64604.9
820.4572	547.2748	65535	64605.05
820.6016	549.4185	65535	64603.2
820.7459	551.5615	65535	64610.8
820.8902	553.704	65535	64609.35
821.0346	555.8458	65535	64612.15
821.1789	557.987	65535	64608.1
821.3233	560.1276	65535	64607.65
821.4677	562.2675	65535	64607.05
821.6121	564.4069	65535	64610.9
821.7565	566.5456	65535	64610.65
821.9009	568.6837	65535	64613.1
822.0453	570.8212	65535	64611.45
822.1897	572.958	65535	64608.3
822.3342	575.0942	65535	64615.85
822.4786	577.2299	65535	64617.15
822.6231	579.3648	65535	64626.9
822.7675	581.4992	65535	64634.75
822.912	583.6329	65535	64637.6
823.0565	585.766	65535	64632.2
823.201	587.8985	65535	64627.05
823.3454	590.0304	65535	64594.05
823.4899	592.1616	65535	64609.8
823.6345	594.2922	65535	64610.95
823.779	596.4222	65535	64608.45
823.9235	598.5515	65535	64602.9
824.068	600.6802	65535	64607.4
824.2126	602.8083	65535	64607.35
824.3571	604.9358	65535	64609.15
824.5017	607.0626	65535	64606.2
824.6462	609.1888	65535	64598.7
824.7908	611.3144	65535	64600.9
824.9354	613.4393	65535	64600.75
825.08	615.5636	65535	64607.1
825.2246	617.6873	65535	64603
825.3692	619.8103	65535	64601.4
825.5138	621.9327	65535	64603
825.6584	624.0544	65535	64609.1
825.803	626.1756	65535	64610.8
825.9477	628.2961	65535	64605.3
826.0923	630.4159	65535	64603
826.237	632.5351	65535	64600.25
826.3816	634.6537	65535	64602.95
826.5263	636.7716	65535	64599.65
826.6709	638.8889	65535	64593.65
826.8156	641.0056	65535	64592.85
826.9603	643.1216	65535	64597.9
827.105	645.237	65535	64601.8
827.2497	647.3518	65535	64605.15
827.3944	649.4659	65535	64610.85
827.5391	651.5793	65535	64607.65
827.6838	653.6922	65535	64606.4
827.8285	655.8043	65535	64605.85
827.9733	657.9159	65535	64602.8
828.118	660.0268	65535	64603.65
828.2627	662.137	65535	64601.75
828.4075	664.2466	65535	64599.7
828.5522	666.3556	65535	64597.55
828.697	668.4639	65535	64599.25
828.8418	670.5716	65535	64607.65
828.9865	672.6786	65535	64602.5
829.1313	674.785	65535	64599.35
829.2761	676.8907	65535	64601.95
829.4209	678.9958	65535	64606
829.5657	681.1002	65535	64600.25
829.7105	683.204	65535	64595.6
829.8553	685.3072	65535	64594.1
830.0001	687.4097	65535	64597.75
830.1449	689.5115	65535	64598.65
830.2898	691.6127	65535	64603.55
830.4346	693.7132	65535	64605.65
830.5794	695.8131	65535	64578.15
830.7243	697.9123	65535	64594.7
830.8691	700.0109	65535	64592.6
831.014	702.1089	65535	64594.6
831.1588	704.2061	65535	64599.9
831.3037	706.3028	65535	64593.5
831.4486	708.3987	65535	64596.3
831.5935	710.4941	65535	64599.8
831.7383	712.5887	65535	64599.1
831.8832	714.6827	65535	64597.7
832.0281	716.7761	65535	64601.7
832.173	718.8688	65535	64599.15
832.3179	720.9608	65535	64588.05
832.4628	723.0522	65535	64587.65
832.6077	725.1429	65535	64594
832.7527	727.233	65535	64593.85
832.8976	729.3224	65535	64593.3
833.0425	731.4112	65535	64594.05
833.1874	733.4993	65535	64591.9
833.3324	735.5867	65535	64594.6
833.4773	737.6735	65535	64591.6
833.6222	739.7596	65535	64592.25
833.7672	741.845	65535	64596.9
833.9122	743.9298	65535	64594.5
834.0571	746.014	65535	64591.45
834.2021	748.0974	65535	64585.5
834.347	750.1802	65535	64584.6
834.492	752.2624	65535	64587.35
834.637	754.3439	65535	64591.15
834.782	756.4247	65535	64582.05
834.9269	758.5048	65535	64591.05
835.0719	760.5843	65535	64591.85
835.2169	762.6631	65535	64592.4
835.3619	764.7413	65535	64592.25
835.5069	766.8188	65535	64588.9
835.6519	768.8956	65535	64585.2
835.7969	770.9718	65535	64591.9
835.9419	773.0473	65535	64589.4
836.0869	775.1221	65535	64592.3
836.232	777.1962	65535	64591.75
836.377	779.2697	65535	64588.15
836.522	781.3426	65535	64570
836.667	783.4147	65535	64590.1
836.8121	785.4862	65535	64588.4
836.9571	787.557	65535	64587.7
837.1021	789.6271	65535	64588.7
837.2472	791.6966	65535	64591.2
837.3922	793.7654	65513.25	64567.7
837.5373	795.8335	65524.65	64579.7
837.6823	797.901	65530.9	64584.85
837.8274	799.9678	65514.55	64566.2
837.9724	802.0339	65494.8	64545.95
838.1175	804.0993	65503.95	64545
838.2626	806.1641	65485	64537.15
838.4076	808.2282	65468.2	64522.25
838.5527	810.2916	65438.8	64491.6
838.6978	812.3544	65500.8	64557.35
838.8428	814.4164	65350.4	64408.75
838.9879	816.4778	65355.6	64406.05
839.133	818.5385	65395	64447.1
839.2781	820.5986	65377.55	64430.45
839.4232	822.658	65383.5	64433.3
839.5682	824.7166	65398.55	64450.05
839.7133	826.7747	65203	64252.35
839.8584	828.832	65266.6	64318.6
840.0035	830.8886	65387.95	64436.95
840.1486	832.9446	65414.3	64467.05
840.2937	834.9999	65074.55	64128.85
840.4388	837.0545	65236.25	64285.65
840.5839	839.1085	65380.65	64432.5
840.729	841.1618	65290	64339.95
840.8741	843.2143	65052.75	64103.45
841.0192	845.2662	65045.95	64100.75
841.1643	847.3175	65151	64204.3
841.3095	849.368	64784.05	63837.55
841.4546	851.4179	65095.55	64150.55
841.5997	853.467	64859.15	63911.5
841.7448	855.5155	64943.85	63998.15
841.8899	857.5633	64695.45	63746.8
842.0351	859.6105	64557.25	63605.15
842.1802	861.6569	64716	63766.75
842.3253	863.7027	64375.85	63425.65
842.4704	865.7478	64525.5	63572.25
842.6156	867.7922	64445.75	63498
842.7607	869.8359	64628.75	63678.6
842.9058	871.8789	64237.4	63284.65
843.0509	873.9212	64492.85	63513.5
843.1961	875.9629	64570.95	63622.95
843.3412	878.0039	64493.05	63542.8
843.4863	880.0441	64387	63440.6
843.6315	882.0837	64363.65	63415.15
843.7766	884.1226	64321.95	63372.1
843.9218	886.1609	64218.95	63271.65
844.0669	888.1984	63946.6	62998.5
844.212	890.2352	64240.4	63291.5
844.3572	892.2714	63797.4	62840.9
844.5023	894.3069	63991.15	63043.25
844.6475	896.3416	63694.5	62749.3
844.7926	898.3757	63634.3	62682.6
844.9377	900.4091	62854	61904.9
845.0829	902.4418	63846.9	62887.55
845.228	904.4739	63311.95	62358.45
845.3732	906.5052	63386.25	62434.65
845.5183	908.5358	63018.95	62066.5
845.6635	910.5658	62747.45	61794.9
845.8086	912.595	62725.35	61772.1
845.9538	914.6236	61884.35	60931.5
846.0989	916.6515	63090.95	62138.65
846.2441	918.6786	61826.2	60875.75
846.3892	920.7051	62154.15	61201.65
846.5344	922.7309	61987.3	61033.65
846.6795	924.756	62220.1	61270.1
846.8246	926.7804	61812.6	60859.85
846.9698	928.8041	60977.2	60023.9
847.1149	930.8272	61565.1	60613.85
847.2601	932.8495	61573.7	60619.55
847.4052	934.8711	60890.75	59940.9
847.5504	936.892	60443.65	59494.45
847.6955	938.9123	60556.8	59604.1
847.8407	940.9318	60014.8	59064.05
847.9858	942.9506	59885.7	58935.15
848.131	944.9688	59935.75	58988.85
848.2761	946.9862	58887.3	57935.3
848.4213	949.003	59275.95	58324.85
848.5664	951.019	58444.2	57491.85
848.7115	953.0344	58642.3	57691.35
848.8567	955.0491	58524.85	57574.75
849.0018	957.063	58737.75	57784.35
849.147	959.0763	58819.35	57860.35
849.2921	961.0888	58242.9	57290.75
849.4373	963.1007	58687.05	57737.25
849.5824	965.1119	58624.8	57682.9
849.7275	967.1223	58151.2	57217.2
849.8727	969.1321	58682.25	57745.5
850.0178	971.1412	57942.9	57001.55
850.1629	973.1495	57655.5	56704.75
850.3081	975.1572	57896.45	56912.05
850.4532	977.1641	57660.1	56708
850.5983	979.1704	57432.8	56482.35
850.7435	981.1759	57489.8	56536.9
850.8886	983.1808	57091.2	56137.4
851.0337	985.1849	57135.55	56173.15
851.1788	987.1884	57262.55	56314.85
851.324	989.1911	57735.35	56784.3
851.4691	991.1932	56757.9	55807.45
851.6142	993.1945	56978.75	56030.3
851.7593	995.1951	57107.6	56159.3
851.9045	997.1951	56544.9	55590.35
852.0496	999.1943	56256.35	55309.75
852.1947	1001.1928	55997.4	55047.7
852.3398	1003.1906	55991.05	55040.35
852.4849	1005.1877	55492.75	54540.7
852.63	1007.1841	55114.65	54169.2
852.7751	1009.1798	55003.75	54054.55
852.9202	1011.1748	54729.3	53779.4
853.0653	1013.1691	54473	53524.8
853.2104	1015.1627	53508.6	52560.6
853.3555	1017.1556	53329	52381.5
853.5006	1019.1477	53340.1	52392.75
853.6457	1021.1392	52743.5	51801.8
853.7908	1023.1299	52306.5	51363.3
853.9359	1025.12	52417.75	51483.95
854.081	1027.1093	52077.8	51150.5
854.2261	1029.0979	52094.9	51172.6
854.3712	1031.0859	51880.8	50952.1
854.5163	1033.0731	51456.45	50518.05
854.6613	1035.0596	51389.7	50449.45
854.8064	1037.0454	51059.65	50118.85
854.9515	1039.0304	50715.85	49768.65
855.0965	1041.0148	50317.35	49370.8
855.2416	1042.9985	50132.9	49188.15
855.3867	1044.9814	50100.05	49155.8
855.5317	1046.9636	49695.2	48748.05
855.6768	1048.9452	49565.15	48620.35
855.8219	1050.926	49441.35	48499.15
855.9669	1052.9061	49262.25	48316.6
856.112	1054.8855	49145.8	48198.8
856.257	1056.8642	48937.55	47989.65
856.4021	1058.8421	48907	47958.4
856.5471	1060.8194	48820.85	47873.1
856.6921	1062.7959	48635	47683.8
856.8372	1064.7717	48559.6	47612.95
856.9822	1066.7469	48425	47478.25
857.1272	1068.7213	48223.25	47273.85
857.2723	1070.695	48083.6	47137.2
857.4173	1072.6679	47742.55	46795.7
857.5623	1074.6402	47620.45	46672.45
857.7073	1076.6117	47466.75	46514.4
857.8523	1078.5826	47440.7	46494.4
857.9973	1080.5527	47296.9	46348.7
858.1423	1082.5221	47224.45	46275.35
858.2873	1084.4908	47414.55	46469.25
858.4323	1086.4587	47492.6	46545.65
858.5773	1088.426	47548.85	46604.35
858.7223	1090.3925	47376	46427.85
858.8673	1092.3584	47188.5	46242.1
859.0123	1094.3235	46714.8	45772.25
859.1573	1096.2879	46501.6	45552.95
859.3022	1098.2515	46355.95	45411
859.4472	1100.2145	46302.25	45358.6
859.5922	1102.1767	46175.7	45230.75
859.7371	1104.1382	46132.6	45191.2
859.8821	1106.099	46199.45	45251.3
860.027	1108.0591	46246.25	45301.9
860.172	1110.0185	46247.75	45303.5
860.3169	1111.9771	46179.65	45233.55
860.4619	1113.9351	45721.4	44776.75
860.6068	1115.8923	45252.9	44309.15
860.7517	1117.8488	44736.25	43790.65
860.8967	1119.8045	44247.1	43302.9
861.0416	1121.7596	44067.6	43127.1
861.1865	1123.7139	43796.35	42851.65
861.3314	1125.6675	43739.95	42796.3
861.4763	1127.6204	43755.95	42813.4
861.6212	1129.5726	43568.5	42625
861.7661	1131.524	43526.4	42583.45
861.911	1133.4748	43578.7	42635.9
862.0559	1135.4248	43374.4	42431.8
862.2008	1137.3741	43321.05	42379.25
862.3457	1139.3226	43233.65	42289.2
862.4905	1141.2705	43106.2	42164.15
862.6354	1143.2176	42792.1	41843.45
862.7803	1145.164	42739.4	41792.65
862.9251	1147.1097	42688.3	41742.95
863.07	1149.0546	42594.35	41650
863.2148	1150.9989	42433.2	41489.35
863.3597	1152.9424	42239.6	41297.05
863.5045	1154.8852	41909.55	40963.5
863.6493	1156.8272	41677.9	40733.7
863.7942	1158.7686	41521.2	40569.5
863.939	1160.7092	41299.2	40355.9
864.0838	1162.6491	41070.9	40126.4
864.2286	1164.5883	41126.15	40184.9
864.3734	1166.5267	41077.9	40134
864.5182	1168.4644	41167.35	40225.15
864.663	1170.4014	41225	40277.2
864.8078	1172.3377	41422.4	40485.25
864.9526	1174.2732	41490.1	40551.25
865.0974	1176.2081	41605.55	40661.8
865.2421	1178.1421	41687.05	40741.85
865.3869	1180.0755	41706.05	40766.2
865.5317	1182.0082	41454.85	40514.75
865.6764	1183.9401	41341.4	40401.1
865.8212	1185.8713	41017.6	40080.1
865.9659	1187.8017	40675.65	39742.55
866.1106	1189.7315	40329.15	39405.35
866.2554	1191.6605	39828.45	38904.8
866.4001	1193.5888	39531.25	38603.3
866.5448	1195.5163	39366.8	38432.55
866.6895	1197.4432	39117.75	38177.65
866.8342	1199.3693	38932.8	37996.4
866.9789	1201.2947	38667.4	37720.8
867.1236	1203.2193	38495.25	37554.8
867.2683	1205.1432	38500.3	37562.85
867.413	1207.0664	38427.15	37488.45
867.5576	1208.9889	38316.1	37372.65
867.7023	1210.9106	38280.3	37341.65
867.847	1212.8316	38185.2	37245.75
867.9916	1214.7519	38261.65	37313.5
868.1363	1216.6715	38065.05	37124.15
868.2809	1218.5903	37996.6	37056
868.4255	1220.5084	37815.1	36873.05
868.5701	1222.4257	37760.35	36817.25
868.7148	1224.3424	37440.45	36507.35
868.8594	1226.2583	37370.55	36427.6
869.004	1228.1735	37387.1	36447.9
869.1486	1230.0879	37305.6	36366.65
869.2932	1232.0016	37380.7	36440.6
869.4377	1233.9146	37265	36327.05
869.5823	1235.8269	37088.1	36149.25
869.7269	1237.7384	36891.55	35952
869.8715	1239.6492	36534.75	35595.75
870.016	1241.5592	36366.4	35427.35
870.1606	1243.4686	36104	35166.2
870.3051	1245.3772	35969.9	35030.45
870.4496	1247.285	35772.1	34834.45
870.5941	1249.1922	35630.85	34692.65
870.7387	1251.0986	35554.8	34618
870.8832	1253.0042	35387.75	34451.1
871.0277	1254.9092	35358.35	34422.35
871.1722	1256.8134	35387.85	34453.55
871.3167	1258.7169	35484.4	34544.95
871.4611	1260.6196	35514.25	34577.65
871.6056	1262.5216	35646.6	34708.3
871.7501	1264.4229	35640.8	34705.85
871.8945	1266.3234	35716.5	34780.25
872.039	1268.2232	35677.55	34737.55
872.1834	1270.1223	35576.6	34638
872.3278	1272.0207	35506.95	34572
872.4723	1273.9183	35309.8	34362.75
872.6167	1275.8151	35107.15	34169.55
872.7611	1277.7113	34993.65	34060.5
872.9055	1279.6067	34724.2	33787.5
873.0499	1281.5014	34441.05	33500.35
873.1943	1283.3953	34204.45	33265.75
873.3386	1285.2885	34068.8	33130.6
873.483	1287.181	33895.45	32956.05
873.6274	1289.0727	33893.6	32957.85
873.7717	1290.9637	33825.35	32890.55
873.9161	1292.854	33895.3	32958.45
874.0604	1294.7435	33937.05	33002.15
874.2047	1296.6323	34082.3	33144.95
874.349	1298.5204	34223.85	33284.65
874.4933	1300.4077	34452.55	33516.5
874.6376	1302.2943	34569.8	33634.5
874.7819	1304.1802	34626.4	33691.85
874.9262	1306.0653	34455.65	33518.6
875.0705	1307.9497	34297.95	33363.2
875.2147	1309.8333	34144	33208.9
875.359	1311.7162	34132.75	33196.6
875.5032	1313.5984	34140.9	33203.2
875.6475	1315.4798	34158.65	33204
875.7917	1317.3605	34277.9	33324.45
875.9359	1319.2405	34394.8	33455.3
876.0801	1321.1197	34356.45	33415.8
876.2243	1322.9982	34204.75	33264
876.3685	1324.876	34171.5	33237.95
876.5127	1326.753	34041.7	33103.4
876.6569	1328.6293	34041.9	33105
876.801	1330.5048	34086.25	33149.4
876.9452	1332.3796	33935.4	32997.4
877.0893	1334.2537	33904.45	32943.6
877.2335	1336.127	33697	32758.55
877.3776	1337.9996	33589.3	32654.8
877.5217	1339.8714	33515.2	32576.75
877.6658	1341.7426	33357.3	32375.75
877.8099	1343.6129	33216.65	32283.15
877.954	1345.4826	33048.2	32113.25
878.0981	1347.3515	32997	32057.4
878.2422	1349.2196	32840.2	31903.3
878.3862	1351.087	32767.2	31832.5
878.5303	1352.9537	32785.3	31845.25
878.6743	1354.8197	32864.15	31927.75
878.8184	1356.6849	32944.55	32009.35
878.9624	1358.5493	32899.75	31966.35
879.1064	1360.4131	32886.8	31950.1
879.2504	1362.276	32736.85	31803.55
879.3944	1364.1383	32435.35	31502.65
879.5384	1365.9998	32148.9	31206.6
879.6823	1367.8606	31761.2	30824.05
879.8263	1369.7206	31467.8	30530.25
879.9702	1371.5799	31216.7	30279.2
880.1142	1373.4384	31008.6	30073.1
880.2581	1375.2962	30836.05	29901.3
880.402	1377.1533	30491.95	29559.3
880.5459	1379.0096	30032.35	29103.45
880.6898	1380.8652	29734.55	28807.05
880.8337	1382.7201	29450.55	28520.9
880.9776	1384.5742	29135	28199.9
881.1215	1386.4275	28898.8	27965.95
881.2653	1388.2802	28684.05	27749.25
881.4092	1390.132	28474.65	27540.4
881.553	1391.9832	28402.15	27464.2
881.6968	1393.8336	28199.8	27265.65
881.8406	1395.6832	28044.75	27111.65
881.9844	1397.5322	27943.1	27011.7
882.1282	1399.3803	27853.15	26917.95
882.272	1401.2278	27660.55	26727.9
882.4158	1403.0745	27577.6	26644.7
882.5595	1404.9204	27460	26524.6
882.7033	1406.7656	27421.95	26491.2
882.847	1408.6101	27291.05	26357.65
882.9908	1410.4538	27225.8	26294.15
883.1345	1412.2968	27177.9	26244.55
883.2782	1414.139	27090.3	26159.9
883.4219	1415.9805	27148.2	26219.05
883.5656	1417.8213	27097.7	26147.55
883.7092	1419.6613	27154	26224.3
883.8529	1421.5006	27306.5	26374.45
883.9965	1423.3391	27513.1	26582.25
884.1402	1425.1769	27758.6	26827.65
884.2838	1427.0139	28211.8	27281.3
884.4274	1428.8502	28783.45	27852.1
884.571	1430.6858	29301.3	28369.85
884.7146	1432.5206	29678.9	28747.65
884.8582	1434.3547	29879.9	28947.3
885.0018	1436.188	29849.05	28918.15
885.1453	1438.0206	29777.2	28844.8
885.2889	1439.8524	29507	28576.95
885.4324	1441.6835	29380.7	28446.35
885.5759	1443.5139	29205.5	28270.15
885.7194	1445.3435	29086.4	28156.45
885.8629	1447.1724	28967.8	28037.15
886.0064	1449.0005	28855.15	27925.95
886.1499	1450.8279	28714.2	27783.1
886.2933	1452.6545	28589.9	27659.9
886.4368	1454.4804	28643.7	27715.1
886.5802	1456.3056	28527.55	27591.35
886.7237	1458.13	28356.15	27426.3
886.8671	1459.9536	28194.05	27267.4
887.0105	1461.7766	27723.35	26794.25
887.1539	1463.5987	27249.4	26317.75
887.2972	1465.4202	26755.7	25824.95
887.4406	1467.2409	26332.6	25401.7
887.584	1469.0608	26065.4	25137.45
887.7273	1470.88	25768.05	24840.15
887.8706	1472.6984	25455.45	24526.25
888.0139	1474.5161	25176.9	24247.6
888.1572	1476.3331	24988	24058.9
888.3005	1478.1493	24870.65	23940.1
888.4438	1479.9648	24698.05	23767.35
888.5871	1481.7795	24556	23628.75
888.7303	1483.5935	24466.4	23540.95
888.8736	1485.4067	24369.5	23441.8
889.0168	1487.2192	24261.65	23330.75
889.16	1489.031	24204.25	23273.35
889.3032	1490.842	24118.15	23189.55
889.4464	1492.6522	24056.15	23126.3
889.5896	1494.4618	23928.25	22998.35
889.7327	1496.2705	23858.85	22930.2
889.8759	1498.0785	23810.1	22878.7
890.019	1499.8858	23760.75	22833.05
890.1622	1501.6924	23657.9	22732.1
890.3053	1503.4981	23632.3	22704.5
890.4484	1505.3032	23536.3	22608.7
890.5914	1507.1075	23418.15	22492.75
890.7345	1508.911	23368.6	22441.2
890.8776	1510.7138	23334.7	22406.55
891.0206	1512.5159	23224.1	22297.6
891.1637	1514.3172	23116	22191.55
891.3067	1516.1178	22973.1	22048
891.4497	1517.9176	22937.2	22006.45
891.5927	1519.7166	22806.2	21882.8
891.7357	1521.515	22759.9	21827.95
891.8786	1523.3126	22671.2	21746.55
892.0216	1525.1094	22619.2	21690.4
892.1645	1526.9055	22515	21589.1
892.3074	1528.7008	22441	21517.8
892.4503	1530.4954	22321.55	21390.8
892.5932	1532.2893	22278.8	21360.2
892.7361	1534.0824	22155.7	21232
892.879	1535.8747	22146.6	21224.85
893.0218	1537.6663	22028.1	21106.65
893.1647	1539.4572	21979.7	21056.85
893.3075	1541.2473	21918.7	20995.4
893.4503	1543.0367	21836.2	20916.8
893.5931	1544.8253	21762.15	20835.1
893.7359	1546.6132	21691.95	20764.1
893.8787	1548.4003	21607.85	20676.8
894.0214	1550.1867	21570.25	20640.7
894.1642	1551.9723	21591.2	20667.25
894.3069	1553.7572	21537.1	20617.4
894.4496	1555.5414	21446.65	20530.5
894.5923	1557.3247	21371.35	20452.05
894.735	1559.1074	21380	20466.95
894.8777	1560.8893	21397.55	20483.05
895.0204	1562.6705	21397.45	20481.8
895.163	1564.4509	21376.1	20459.7
895.3056	1566.2305	21376.75	20463.35
895.4482	1568.0094	21518.65	20606.2
895.5908	1569.7876	21530.05	20616.95
895.7334	1571.565	21541.9	20625.3
895.876	1573.3417	21571.25	20654.2
896.0186	1575.1176	21549.05	20634.95
896.1611	1576.8928	21506.4	20594.1
896.3036	1578.6672	21323.65	20416.55
896.4461	1580.4409	21166.1	20259.15
896.5886	1582.2138	20973.6	20060.95
896.7311	1583.986	20806.8	19894.05
896.8736	1585.7575	20672.2	19759.7
897.0161	1587.5282	20535.35	19626.7
897.1585	1589.2981	20440.65	19530.5
897.3009	1591.0673	20279.1	19370
897.4433	1592.8358	20228.8	19320.7
897.5857	1594.6035	20143.25	19233.25
897.7281	1596.3704	20074.1	19158.35
897.8705	1598.1366	20076.65	19164.65
898.0128	1599.9021	20031.55	19121
898.1551	1601.6668	19990.6	19079.2
898.2975	1603.4308	19971	19058.85
898.4398	1605.194	20018	19103.8
898.5821	1606.9564	20028.9	19123.75
898.7243	1608.7182	20084.7	19178.85
898.8666	1610.4791	20189.9	19288
899.0088	1612.2394	20241.15	19343.05
899.1511	1613.9988	20356	19452.85
899.2933	1615.7576	20542.65	19636.45
899.4355	1617.5156	20761.2	19845.45
899.5776	1619.2728	20956.65	20044
899.7198	1621.0293	21145.45	20232.75
899.862	1622.785	21148.5	20239
900.0041	1624.54	21011.45	20107.1
900.1462	1626.2942	20820.4	19913.25
900.2883	1628.0477	20513.85	19603.75
900.4304	1629.8005	20233.05	19324.45
900.5725	1631.5525	19925.75	19021.15
900.7145	1633.3037	19666.8	18763.9
900.8566	1635.0542	19439.55	18536.1
900.9986	1636.804	19242.85	18336.5
901.1406	1638.553	19183.7	18231.45
901.2826	1640.3013	19053.65	18149.45
901.4245	1642.0488	18915.1	18007.2
901.5665	1643.7955	18892.1	17989.1
901.7085	1645.5416	18839.55	17937.1
901.8504	1647.2868	18844.5	17939.65
901.9923	1649.0313	18827.65	17920.3
902.1342	1650.7751	18956.15	18047.1
902.2761	1652.5181	19095.15	18192.75
902.4179	1654.2604	19256.45	18356.5
902.5598	1656.0019	19531.45	18628.15
902.7016	1657.7427	19872.65	18969.15
902.8434	1659.4828	20179.6	19273.7
902.9852	1661.222	20388.55	19481.9
903.127	1662.9606	20457.5	19551.95
903.2687	1664.6984	20269.4	19361
903.4105	1666.4354	19935.1	19027.25
903.5522	1668.1717	19427.4	18517.1
903.6939	1669.9072	18887.7	17976.5
903.8356	1671.642	18503.35	17592.4
903.9773	1673.3761	18204.65	17295.25
904.119	1675.1094	17929.25	17023.5
904.2606	1676.8419	17703.45	16797.85
904.4022	1678.5737	17496.05	16589.2
904.5439	1680.3048	17346.75	16441.65
904.6855	1682.0351	17203.1	16296.1
904.827	1683.7646	17052.8	16144.45
904.9686	1685.4934	16942.4	16036.5
905.1101	1687.2215	16873.5	15968
905.2517	1688.9488	16818.85	15915.25
905.3932	1690.6754	16709.15	15805.05
905.5347	1692.4012	16681.75	15776.95
905.6761	1694.1263	16606.65	15700.25
905.8176	1695.8506	16541.7	15636.85
905.9591	1697.5742	16501.75	15599
906.1005	1699.297	16417.85	15517.8
906.2419	1701.0191	16321.4	15421.45
906.3833	1702.7404	16251.65	15351.85
906.5246	1704.461	16112.8	15208
906.666	1706.1808	16077.85	15174.65
906.8073	1707.8999	16021.65	15119.9
906.9487	1709.6182	15968.15	15068.65
907.09	1711.3358	15932	15038.1
907.2313	1713.0527	15847.55	14953.8
907.3725	1714.7688	15794.9	14891.65
907.5138	1716.4841	15714.4	14813.2
907.655	1718.1987	15743.75	14836.8
907.7962	1719.9126	15634.85	14737.55
907.9374	1721.6257	15584.05	14684.45
908.0786	1723.338	15567.95	14671.15
908.2198	1725.0496	15441.55	14543
908.3609	1726.7605	15394.8	14493.65
908.502	1728.4706	15332.55	14434.4
908.6431	1730.18	15249.25	14351.7
908.7842	1731.8886	15228.1	14330.65
908.9253	1733.5964	15189.9	14272.85
909.0664	1735.3036	15133.25	14233.6
909.2074	1737.0099	15139.45	14242.85
909.3484	1738.7156	15068.15	14172.05
909.4894	1740.4204	15003.6	14102.2
909.6304	1742.1246	14972	14072.7
909.7714	1743.8279	14930.6	14031.35
909.9123	1745.5306	14895.6	14000
910.0532	1747.2325	14827.45	13933.2
910.1941	1748.9336	14806.3	13910.6
910.335	1750.634	14738.2	13838.55
910.4759	1752.3336	14718.75	13821.85
910.6168	1754.0325	14676.5	13783.95
910.7576	1755.7307	14657.45	13761.3
910.8984	1757.4281	14641.6	13744.2
911.0392	1759.1247	14585.7	13678.95
911.18	1760.8206	14560.4	13655.3
911.3208	1762.5158	14530.7	13627
911.4615	1764.2102	14468.45	13570.35
911.6022	1765.9039	14386.35	13488.6
911.7429	1767.5968	14375.6	13481.45
911.8836	1769.289	14321.7	13426.65
912.0243	1770.9804	14286.4	13388.5
912.1649	1772.6711	14298.2	13397.1
912.3056	1774.361	14227.25	13327.8
912.4462	1776.0502	14202.3	13303.3
912.5868	1777.7386	14157.5	13255.55
912.7274	1779.4263	14112.55	13215.1
912.8679	1781.1132	14102.75	13208.3
913.0084	1782.7994	14040.5	13146.2
913.149	1784.4849	14005.25	13111.95
913.2895	1786.1696	13956.55	13056
913.4299	1787.8535	13925.6	13032.5
913.5704	1789.5367	13903	13013.1
913.7108	1791.2192	13869.25	12975.4
913.8513	1792.9009	13848.4	12926.5
913.9917	1794.5818	13778.65	12878.3
914.132	1796.2621	13722.45	12825.05
914.2724	1797.9415	13713.6	12818
914.4128	1799.6202	13659.1	12761.15
914.5531	1801.2982	13640.75	12744.9
914.6934	1802.9755	13600.2	12702.1
914.8337	1804.6519	13586.1	12687.3
914.9739	1806.3277	13534.85	12642.25
915.1142	1808.0027	13465.1	12572.7
915.2544	1809.6769	13457.15	12566.5
915.3946	1811.3504	13415.85	12522.45
915.5348	1813.0231	13373.1	12482.1
915.675	1814.6951	13364.25	12471.3
915.8151	1816.3664	13363	12467.2
915.9553	1818.0369	13308.3	12412.3
916.0954	1819.7067	13260.95	12366.05
916.2355	1821.3757	13223.2	12325.45
916.3755	1823.044	13221.85	12326.6
916.5156	1824.7115	13202.45	12308.75
916.6556	1826.3783	13109.2	12214.7
916.7956	1828.0443	13065.45	12172.1
916.9356	1829.7096	13053.3	12155.75
917.0756	1831.3741	13022.9	12126.9
917.2155	1833.0379	12992.5	12098.9
917.3555	1834.701	12981.3	12088.5
917.4954	1836.3633	12920.7	12027
917.6353	1838.0248	12930.35	12034.6
917.7751	1839.6856	12884.55	11989.9
917.915	1841.3457	12869.4	11973.95
918.0548	1843.005	12822.25	11926
918.1946	1844.6636	12815	11921.9
918.3344	1846.3214	12767.65	11871.8
918.4742	1847.9785	12759.55	11868.05
918.6139	1849.6349	12721.2	11822.65
918.7537	1851.2904	12697.95	11792.65
918.8934	1852.9453	12639.95	11743
919.0331	1854.5994	12593.6	11694.15
919.1727	1856.2528	12611.95	11711.5
919.3124	1857.9054	12568.6	11672.3
919.452	1859.5572	12562.35	11668.7
919.5916	1861.2083	12505	11610.5
919.7312	1862.8587	12506.15	11610.6
919.8708	1864.5084	12492.6	11596.05
920.0103	1866.1572	12422.35	11527.5
920.1498	1867.8054	12382.6	11484.6
920.2893	1869.4528	12363.7	11466.3
920.4288	1871.0994	12307.45	11409.6
920.5683	1872.7453	12335.8	11439.7
920.7077	1874.3905	12291.6	11376.25
920.8471	1876.0349	12242	11346.9
920.9865	1877.6786	12218.45	11322
921.1259	1879.3215	12215.4	11321.4
921.2653	1880.9637	12178.6	11283.1
921.4046	1882.6051	12133.3	11240.1
921.5439	1884.2458	12113.9	11216.6
921.6832	1885.8858	12062.05	11166.75
921.8225	1887.525	12051.5	11154.95
921.9617	1889.1634	11985.15	11087
922.101	1890.8011	11966.75	11072.25
922.2402	1892.4381	11927.4	11033.45
922.3794	1894.0743	11912.8	11017.65
922.5185	1895.7098	11889.6	10993.9
922.6577	1897.3446	11854.7	10957.75
922.7968	1898.9786	11816.45	10920.05
922.9359	1900.6118	11782.9	10889.2
923.075	1902.2443	11712.45	10815.3
923.214	1903.8761	11713.8	10821.6
923.3531	1905.5071	11635.1	10740.6
923.4921	1907.1374	11603.2	10710.85
923.6311	1908.7669	11607.8	10714.7
923.77	1910.3957	11554.8	10661.9
923.909	1912.0237	11501.8	10608.9
924.0479	1913.651	11469.3	10576
924.1868	1915.2776	11440.3	10549.2
924.3257	1916.9034	11383.45	10490.6
924.4646	1918.5285	11344.65	10451.95
924.6034	1920.1528	11289.45	10394.8
924.7422	1921.7764	11299.7	10404.2
924.881	1923.3992	11247.7	10353.15
925.0198	1925.0213	11207.4	10312.4
925.1586	1926.6427	11163.55	10271.3
925.2973	1928.2633	11166.7	10204.75
925.436	1929.8832	11088.3	10193.85
925.5747	1931.5023	11030.6	10137.05
925.7134	1933.1207	11047.85	10152.75
925.852	1934.7383	10989.75	10095.45
925.9906	1936.3552	10962.4	10072.4
926.1292	1937.9714	10912.75	10020.25
926.2678	1939.5868	10873.75	9978.05
926.4064	1941.2015	10813.65	9919.15
926.5449	1942.8154	10782.35	9886.95
926.6834	1944.4286	10738.25	9844.75
926.8219	1946.041	10729.3	9815.2
926.9604	1947.6528	10687.95	9787.3
927.0988	1949.2637	10617.15	9722.75
927.2372	1950.8739	10610.6	9717.2
927.3756	1952.4834	10594.85	9703.35
927.514	1954.0921	10585.95	9691.45
927.6523	1955.7001	10542.65	9644.1
927.7907	1957.3074	10451.55	9561.95
927.929	1958.9139	10450.1	9560.05
928.0673	1960.5197	10415.15	9524.85
928.2055	1962.1247	10376.6	9486.65
928.3438	1963.729	10293.8	9405.4
928.482	1965.3325	10295.95	9381.25
928.6202	1966.9353	10224.25	9333.45
928.7584	1968.5374	10212.75	9321.55
928.8965	1970.1387	10198.1	9308.15
929.0346	1971.7393	10160.75	9269.9
929.1727	1973.3392	10123.8	9232
929.3108	1974.9383	10075	9185.05
929.4489	1976.5366	10038.1	9149.4
929.5869	1978.1342	10005.25	9116.4
929.7249	1979.7311	9985.25	9095.75
929.8629	1981.3273	9973.6	9085.45
930.0009	1982.9227	9932.65	9044.95
930.1388	1984.5173	9883.15	8995.95
930.2767	1986.1112	9835.05	8947.85
930.4146	1987.7044	9837.05	8950.65
930.5525	1989.2968	9808.8	8919.65
930.6904	1990.8885	9795.45	8901.2
930.8282	1992.4795	9773.15	8883.95
930.966	1994.0697	9733	8844.5
931.1038	1995.6592	9694.1	8806.45
931.2415	1997.2479	9675.6	8788.65
931.3793	1998.8359	9639.25	8751.3
931.517	2000.4232	9594.8	8710.8
931.6547	2002.0097	9576.9	8692.3
931.7923	2003.5955	9524.55	8640.05
931.93	2005.1805	9525.4	8639.75
932.0676	2006.7648	9493.2	8608.05
932.2052	2008.3484	9470.35	8584.9
932.3427	2009.9312	9470.1	8583.05
932.4803	2011.5133	9405.8	8523.15
932.6178	2013.0946	9391.75	8507.65
932.7553	2014.6752	9376.35	8493.7
932.8928	2016.2551	9355.15	8466.7
933.0302	2017.8342	9304.05	8418.7
933.1676	2019.4126	9267.3	8383.05
933.305	2020.9902	9232.95	8349.95
933.4424	2022.5672	9214.05	8327.2
933.5798	2024.1433	9179.5	8293.2
933.7171	2025.7188	9152.95	8270.4
933.8544	2027.2935	9149.2	8264.65
933.9917	2028.8674	9107	8223.7
934.129	2030.4406	9063.35	8180.85
934.2662	2032.0131	9025.5	8143.45
934.4034	2033.5849	9002.35	8110.25
934.5406	2035.1559	8981.45	8098.45
934.6778	2036.7261	8979.55	8094.8
934.8149	2038.2957	8963.55	8076.8
934.952	2039.8645	8974.1	8086.9
935.0891	2041.4325	8926.05	8038.3
935.2262	2042.9998	8908.3	8025.25
935.3632	2044.5664	8865.5	7978.2
935.5002	2046.1323	8828.2	7945.5
935.6372	2047.6974	8816.1	7933.75
935.7742	2049.2617	8789.65	7907.65
935.9111	2050.8254	8766.05	7878
936.048	2052.3883	8757.25	7871.15
936.1849	2053.9504	8717.75	7832.55
936.3218	2055.5118	8690.2	7801.55
936.4586	2057.0725	8637.2	7746.95
936.5955	2058.6325	8648.35	7761.4
936.7323	2060.1917	8614.9	7732.4
936.869	2061.7502	8605.85	7719.15
937.0058	2063.3079	8576.65	7693.8
937.1425	2064.8649	8539.75	7654.8
937.2792	2066.4212	8533.85	7648.15
937.4159	2067.9767	8497.35	7614.25
937.5525	2069.5315	8457.3	7572.65
937.6891	2071.0856	8426.25	7541.55
937.8257	2072.6389	8387.8	7500.3
937.9623	2074.1915	8367.55	7484.25
938.0989	2075.7433	8316.85	7430.85
938.2354	2077.2945	8288.95	7406.55
938.3719	2078.8448	8271.4	7385.3
938.5084	2080.3945	8241	7354.85
938.6448	2081.9434	8242.7	7356.85
938.7812	2083.4916	8220.8	7333.1
938.9176	2085.039	8206	7313.7
939.054	2086.5857	8177.05	7284.45
939.1903	2088.1317	8144	7253.15
939.3267	2089.677	8116.95	7223.35
939.463	2091.2215	8101.8	7210.15
939.5992	2092.7652	8062.95	7168.8
939.7355	2094.3083	8054.8	7165.15
939.8717	2095.8506	8055.65	7167.9
940.0079	2097.3921	8038.65	7149.95
940.1441	2098.933	8023.05	7134.95
940.2802	2100.4731	7985.85	7099.15
940.4163	2102.0124	7988.5	7091.2
940.5524	2103.5511	7955.65	7066.75
940.6885	2105.089	7951.6	7060.25
940.8245	2106.6261	7931.05	7044.75
940.9606	2108.1626	7895.2	7006.9
941.0965	2109.6983	7904.9	6991
941.2325	2111.2332	7869.1	6979.75
941.3684	2112.7675	7854.65	6964.05
941.5044	2114.301	7799.6	6908.75
941.6403	2115.8337	7813.8	6926.15
941.7761	2117.3657	7805.25	6917.2
941.912	2118.897	7782.25	6893.05
942.0478	2120.4276	7730.3	6835.45
942.1835	2121.9575	7699.85	6809.2
942.3193	2123.4866	7716.2	6809.35
942.455	2125.0149	7677.15	6785.65
942.5907	2126.5426	7653.25	6766.55
942.7264	2128.0695	7642.9	6753.8
942.8621	2129.5956	7599.65	6717.05
942.9977	2131.1211	7613.85	6725.85
943.1333	2132.6458	7583.8	6695.7
943.2689	2134.1698	7563.7	6673.2
943.4044	2135.693	7555.35	6661.35
943.54	2137.2155	7522.3	6627.6
943.6755	2138.7373	7500.2	6611.5
943.8109	2140.2584	7484.3	6599.5
943.9464	2141.7787	7463.25	6573.8
944.0818	2143.2983	7405.9	6524.4
944.2172	2144.8171	7397.55	6514.85
944.3526	2146.3353	7396.1	6511
944.4879	2147.8527	7341.9	6456.35
944.6232	2149.3693	7332.1	6443.25
944.7585	2150.8853	7320.5	6430.3
944.8938	2152.4005	7305.65	6415.3
945.029	2153.9149	7284.8	6393.9
945.1642	2155.4287	7343.15	6343.05
945.2994	2156.9417	7251.05	6361.05
945.4346	2158.454	7229.15	6340
945.5697	2159.9655	7183.2	6298.3
945.7048	2161.4764	7178.95	6296.25
945.8399	2162.9865	7184.9	6298.45
945.9749	2164.4958	7143.1	6257
946.1099	2166.0045	7116.15	6228
946.2449	2167.5124	7111.95	6222.9
946.3799	2169.0195	7085.4	6197.45
946.5148	2170.526	7077	6187.35
946.6498	2172.0317	7058.5	6168.75
946.7846	2173.5367	7049	6161.2
946.9195	2175.0409	7020.25	6134.45
947.0543	2176.5445	7004.15	6117.6
947.1891	2178.0473	6980.55	6091.25
947.3239	2179.5494	6949.7	6055.95
947.4587	2181.0507	6922.3	6033.7
947.5934	2182.5513	6931.75	6042.1
947.7281	2184.0512	6895.95	6009.3
947.8628	2185.5504	6880.9	5994.55
947.9974	2187.0488	6837.35	5951.05
948.132	2188.5465	6834.1	5947.05
948.2666	2190.0435	6794.05	5907.5
948.4012	2191.5397	6770.7	5883.25
948.5357	2193.0353	6759	5870.05
948.6702	2194.5301	6729.45	5838.65
948.8047	2196.0241	6709.2	5816.35
948.9392	2197.5175	6697.6	5803.8
949.0736	2199.0101	6670.5	5775.8
949.208	2200.502	6666	5777.8
949.3424	2201.9931	6624.6	5738.1
949.4767	2203.4835	6610.85	5724.45
949.611	2204.9733	6601.15	5709.7
949.7453	2206.4622	6566.8	5681.65
949.8796	2207.9505	6545.3	5657.2
950.0138	2209.438	6517.3	5633.15
950.148	2210.9248	6486.55	5597.35
950.2822	2212.4109	6491.95	5605.35
950.4164	2213.8962	6476.75	5584.55
950.5505	2215.3809	6470.5	5578.4
950.6846	2216.8648	6447.35	5555.15
950.8186	2218.3479	6416.5	5519.55
950.9527	2219.8304	6388.85	5493.95
951.0867	2221.3121	6380.8	5486.55
951.2207	2222.7931	6340.55	5449.95
951.3546	2224.2733	6294.35	5403.15
951.4886	2225.7529	6301.65	5412.3
951.6225	2227.2317	6281.2	5391.1
951.7563	2228.7098	6280.75	5394.9
951.8902	2230.1872	6246.1	5360.6
952.024	2231.6638	6235.75	5350.25
952.1578	2233.1397	6211.15	5320.8
952.2916	2234.6149	6190.5	5304.85
952.4253	2236.0894	6159.05	5272.65
952.559	2237.5632	6153.4	5262.85
952.6927	2239.0362	6136.7	5249
952.8263	2240.5085	6113.1	5225.45
952.9599	2241.9801	6103.55	5214.45
953.0935	2243.4509	6083.55	5196.65
953.2271	2244.921	6059.85	5169.6
953.3606	2246.3904	6026.15	5132.25
953.4941	2247.8591	6016.6	5125.9
953.6276	2249.3271	6025.6	5135.1
953.7611	2250.7943	5962.05	5070.95
953.8945	2252.2608	5964.85	5074.35
954.0279	2253.7266	5938.55	5046.55
954.1612	2255.1917	5924.65	5035.65
954.2946	2256.656	5907.5	5020.25
954.4279	2258.1197	5878	4991
954.5612	2259.5826	5875.8	4987
954.6944	2261.0447	5874.75	4984.4
954.8276	2262.5062	5846.45	4954.2
954.9608	2263.9669	5814.15	4921.7
955.094	2265.4269	5837.7	4947.15
955.2271	2266.8862	5801.3	4913.5
955.3602	2268.3448	5796.9	4907
955.4933	2269.8026	5779.5	4892.8
955.6264	2271.2598	5773.55	4886.8
955.7594	2272.7162	5750.65	4864.3
955.8924	2274.1719	5737.15	4847.4
956.0253	2275.6268	5722.5	4830.95
956.1583	2277.0811	5708.85	4817.25
956.2912	2278.5346	5692.25	4805.45
956.4241	2279.9874	5690.15	4804
956.5569	2281.4395	5682.75	4797.9
956.6897	2282.8908	5650.6	4757.9
956.8225	2284.3414	5656.25	4766.95
956.9553	2285.7914	5625.6	4738.95
957.088	2287.2406	5622.85	4730.65
957.2207	2288.689	5598.85	4709.65
957.3534	2290.1368	5586.55	4693
957.486	2291.5838	5577.55	4681.85
957.6186	2293.0302	5552.8	4658.7
957.7512	2294.4758	5524.1	4634.1
957.8838	2295.9206	5503.9	4611.6
958.0163	2297.3648	5497.35	4609.95
958.1488	2298.8082	5492	4603.6
958.2813	2300.251	5472.6	4583.8
958.4137	2301.693	5465.3	4570.95
958.5461	2303.1343	5463.55	4572.85
958.6785	2304.5748	5425.85	4537
958.8108	2306.0147	5405.6	4518.65
958.9432	2307.4538	5388.8	4499.95
959.0754	2308.8922	5378	4491.5
959.2077	2310.3299	5365.5	4479.65
959.3399	2311.7669	5345.25	4458.7
959.4721	2313.2031	5327	4437.95
959.6043	2314.6387	5310.35	4421.5
959.7365	2316.0735	5283.2	4394.45
959.8686	2317.5076	5279	4389.85
960.0006	2318.941	5263.6	4374.05
960.1327	2320.3737	5262.05	4369.75
960.2647	2321.8056	5251.7	4357.65
960.3967	2323.2369	5217.4	4325.3
960.5287	2324.6674	5212.35	4323.4
960.6606	2326.0972	5183.8	4293.3
960.7925	2327.5263	5174.9	4286.95
960.9244	2328.9547	5193.5	4304.45
961.0562	2330.3823	5167.35	4275.05
961.1881	2331.8092	5158.4	4263.9
961.3198	2333.2355	5133.4	4242
961.4516	2334.661	5127	4233.45
961.5833	2336.0858	5106.7	4213.85
961.715	2337.5098	5107.35	4215.45
961.8467	2338.9332	5068.1	4177.2
961.9783	2340.3558	5064.7	4171.25
962.1099	2341.7778	5049.5	4161.7
962.2415	2343.199	5037.65	4149.05
962.373	2344.6195	5018.2	4130.05
962.5045	2346.0393	5010.25	4121.35
962.636	2347.4583	4999.15	4109.05
962.7675	2348.8767	4977.5	4085.45
962.8989	2350.2943	4967.85	4076.1
963.0303	2351.7113	4977.55	4085
963.1617	2353.1275	4937.65	4044.75
963.293	2354.543	4946.15	4046.15
963.4243	2355.9578	4934	4044.3
963.5556	2357.3718	4894.25	4007
963.6868	2358.7852	4883.95	3995.75
963.818	2360.1978	4869.6	3979.4
963.9492	2361.6098	4848.65	3961
964.0803	2363.021	4845.15	3949.95
964.2114	2364.4315	4829.35	3940.85
964.3425	2365.8413	4807.25	3911.95
964.4736	2367.2504	4795.65	3906.55
964.6046	2368.6587	4780.15	3894
964.7356	2370.0664	4772.45	3883.2
964.8666	2371.4733	4728.4	3840.3
964.9975	2372.8795	4721.2	3833.65
965.1284	2374.285	4703.2	3814.6
965.2593	2375.6899	4697.45	3808.75
965.3901	2377.0939	4672.55	3781.9
965.5209	2378.4973	4663.5	3776.6
965.6517	2379.9	4655.6	3767.65
965.7825	2381.3019	4615.6	3728.6
965.9132	2382.7032	4620.15	3733.7
966.0439	2384.1037	4607.4	3722.65
966.1745	2385.5035	4591.85	3705.4
966.3051	2386.9027	4576.8	3693.55
966.4357	2388.3011	4572.15	3683.2
966.5663	2389.6987	4561	3672.1
966.6968	2391.0957	4542	3653.95
966.8273	2392.492	4518.95	3631.55
966.9578	2393.8876	4495.45	3609.1
967.0882	2395.2824	4481.05	3594.2
967.2186	2396.6765	4457.55	3570.9
967.349	2398.07	4437.6	3550.9
967.4793	2399.4627	4445.85	3555.05
967.6097	2400.8547	4429.4	3540.95
967.7399	2402.246	4444.8	3550.15
967.8702	2403.6366	4404.65	3517.95
968.0004	2405.0265	4397.3	3511.45
968.1306	2406.4156	4376.3	3485.15
968.2607	2407.8041	4360.15	3468.35
968.3909	2409.1918	4341.5	3449.8
968.521	2410.5789	4324.35	3436.15
968.651	2411.9652	4314.75	3424.2
968.781	2413.3508	4305.1	3415.25
968.911	2414.7358	4291.25	3404.55
969.041	2416.12	4267.55	3379.45
969.1709	2417.5035	4277.3	3389.2
969.3008	2418.8863	4260.1	3371.6
969.4307	2420.2684	4255.1	3366.25
969.5606	2421.6497	4239.55	3351.9
969.6904	2423.0304	4191.6	3304.35
969.8201	2424.4104	4203.75	3314.35
969.9499	2425.7896	4181.15	3290.75
970.0796	2427.1682	4184.4	3295.4
970.2093	2428.546	4163.85	3276.05
970.3389	2429.9232	4168.75	3280.7
970.4685	2431.2996	4145.05	3254.35
970.5981	2432.6753	4140.7	3251.9
970.7277	2434.0503	4140.9	3253.45
970.8572	2435.4246	4102.1	3214.05
970.9867	2436.7982	4098.2	3207.6
971.1161	2438.1711	4082.9	3193.5
971.2456	2439.5433	4065.7	3175.25
971.375	2440.9148	4061.55	3169.95
971.5043	2442.2856	4042.65	3154.1
971.6336	2443.6557	4042.75	3153.05
971.7629	2445.025	4031.85	3143.15
971.8922	2446.3937	4025.95	3136.75
972.0214	2447.7617	4004.4	3115.45
972.1506	2449.1289	4007.3	3118.35
972.2798	2450.4955	3987.9	3095.6
972.4089	2451.8613	3980.6	3091.8
972.538	2453.2265	3979.05	3091.4
972.6671	2454.5909	3967.8	3078.65
972.7961	2455.9546	3959.95	3075.8
972.9251	2457.3177	3930.1	3041.7
973.0541	2458.68	3941.15	3050.95
973.1831	2460.0416	3942	3054.2
973.312	2461.4025	3928.7	3039.8
973.4408	2462.7627	3911.05	3012
973.5697	2464.1222	3905.75	3019.65
973.6985	2465.4811	3890.8	3003.65
973.8273	2466.8392	3869.9	2981.95
973.956	2468.1966	3880.9	2989.85
974.0847	2469.5533	3864.25	2973.65
974.2134	2470.9093	3857.2	2965.85
974.3421	2472.2645	3847.75	2956.7
974.4707	2473.6191	3847.15	2958.8
974.5993	2474.973	3841.85	2953.85
974.7278	2476.3262	3819.25	2929.75
974.8563	2477.6787	3812.05	2924.7
974.9848	2479.0305	3770.5	2881.6
975.1132	2480.3816	3774.05	2884.3
975.2417	2481.7319	3770.5	2881.15
975.37	2483.0816	3754.1	2862.9
975.4984	2484.4306	3742.75	2855.05
975.6267	2485.7789	3735.1	2850.45
975.755	2487.1264	3714.95	2825.75
975.8833	2488.4733	3723.75	2835.7
976.0115	2489.8195	3726.2	2821
976.1397	2491.165	3687.75	2798.5
976.2678	2492.5097	3685.25	2796
976.3959	2493.8538	3667	2780.5
976.524	2495.1972	3652.25	2764.7
976.6521	2496.5398	3623.65	2733.85
976.7801	2497.8818	3638.6	2749.15
976.9081	2499.2231	3618.95	2728.8
977.036	2500.5637	3612.3	2723.4
977.164	2501.9035	3611.15	2720.15
977.2918	2503.2427	3598.8	2705.1
977.4197	2504.5812	3580.35	2692.1
977.5475	2505.919	3572.65	2684.1
977.6753	2507.256	3561.35	2673.35
977.8031	2508.5924	3551.05	2664.35
977.9308	2509.9281	3551.45	2658.1
978.0585	2511.2631	3541.55	2655.4
978.1861	2512.5974	3525.7	2635.75
978.3137	2513.9309	3517.2	2628.55
978.4413	2515.2638	3529.55	2612.05
978.5689	2516.596	3519.3	2630.05
978.6964	2517.9275	3483.4	2593.95
978.8239	2519.2583	3480.25	2589.75
978.9513	2520.5884	3455.45	2565.45
979.0788	2521.9178	3459.2	2571.45
979.2062	2523.2465	3446.6	2560
979.3335	2524.5745	3441.9	2554.95
979.4608	2525.9018	3426.35	2536.7
979.5881	2527.2284	3415.05	2527.35
979.7154	2528.5543	3401.85	2515.2
979.8426	2529.8796	3398.85	2510.15
979.9698	2531.2041	3401.8	2514.1
980.0969	2532.5279	3400.8	2513.1
980.224	2533.851	3388.7	2501.4
980.3511	2535.1735	3382.15	2492.9
980.4781	2536.4952	3366.05	2475.5
980.6052	2537.8163	3356.65	2466.4
980.7321	2539.1366	3350.8	2462.35
980.8591	2540.4562	3360.5	2469.75
980.986	2541.7752	3353.85	2463.1
981.1129	2543.0935	3357.3	2466.9
981.2397	2544.411	3323.4	2433.55
981.3665	2545.7279	3316.6	2427.75
981.4933	2547.0441	3328.7	2439.2
981.62	2548.3596	3318.85	2426.9
981.7467	2549.6744	3315.85	2425.7
981.8734	2550.9885	3284.4	2392.4
982.0001	2552.3019	3284.75	2395.4
982.1267	2553.6146	3276.2	2387.5
982.2532	2554.9266	3266.7	2378.3
982.3798	2556.2379	3267.1	2377.1
982.5063	2557.5485	3253.2	2366.55
982.6327	2558.8585	3260.35	2364.7
982.7592	2560.1677	3231.45	2337.85
982.8856	2561.4762	3230.05	2340.5
983.0119	2562.7841	3239.55	2347.2
983.1383	2564.0913	3224.2	2336
983.2646	2565.3977	3229.6	2342.1
983.3908	2566.7035	3216.2	2324.35
983.517	2568.0086	3212.7	2322.35
983.6432	2569.313	3206.2	2313.85
983.7694	2570.6167	3196.15	2304.25
983.8955	2571.9197	3180.95	2291.95
984.0216	2573.222	3192	2300.7
984.1476	2574.5236	3187.9	2299.4
984.2737	2575.8246	3168.6	2275.65
984.3996	2577.1248	3161.75	2269.7
984.5256	2578.4244	3169.45	2280.35
984.6515	2579.7232	3159.95	2269.4
984.7774	2581.0214	3175.95	2254.9
984.9032	2582.3189	3150.8	2264.6
985.029	2583.6157	3143.85	2251.1
985.1548	2584.9118	3141.05	2252.4
985.2806	2586.2072	3142	2254.5
985.4063	2587.5019	3143.35	2253.15
985.5319	2588.7959	3131	2241.45
985.6576	2590.0893	3137.95	2246.1
985.7832	2591.3819	3131.5	2243.5
985.9087	2592.6739	3105.6	2216.5
986.0343	2593.9652	3119.75	2227.85
986.1597	2595.2557	3102.75	2214.45
986.2852	2596.5456	3090.15	2200.25
986.4106	2597.8348	3077.9	2190.15
986.536	2599.1234	3074.5	2184.75
986.6614	2600.4112	3074.35	2186.45
986.7867	2601.6983	3074.05	2182.25
986.912	2602.9848	3055	2164.85
987.0372	2604.2705	3053.45	2156.55
987.1624	2605.5556	3051.9	2164.1
987.2876	2606.84	3038.75	2149.7
987.4128	2608.1237	3029	2138.1
987.5379	2609.4067	3020	2131
987.6629	2610.689	3015.55	2118.25
987.788	2611.9707	3002.75	2109.7
987.913	2613.2516	3007.8	2115.4
988.0379	2614.5319	2994.75	2103.35
988.1629	2615.8115	2971.55	2082.7
988.2878	2617.0903	2972.55	2084.1
988.4126	2618.3685	2977.75	2086.85
988.5375	2619.6461	2956.9	2067.35
988.6622	2620.9229	2946	2057.4
988.787	2622.199	2942.35	2053.05
988.9117	2623.4745	2956.35	2068.45
989.0364	2624.7493	2932.8	2044.6
989.161	2626.0234	2927.5	2037.75
989.2857	2627.2968	2916.15	2029.95
989.4102	2628.5695	2906.3	2015.35
989.5348	2629.8415	2906.4	2018.35
989.6593	2631.1128	2898.1	2008.35
989.7837	2632.3835	2881.55	1992.7
989.9082	2633.6535	2874.25	1985.45
990.0326	2634.9228	2874.85	1987
990.1569	2636.1914	2869.8	1981.85
990.2812	2637.4593	2865.65	1976.6
990.4055	2638.7265	2848.15	1956.75
990.5298	2639.9931	2844.3	1954.8
990.654	2641.259	2837	1946.35
990.7782	2642.5242	2840.4	1951
990.9023	2643.7887	2827.3	1937.7
991.0264	2645.0525	2825.8	1937.6
991.1505	2646.3156	2809.05	1916.6
991.2745	2647.5781	2807.4	1918.4
991.3985	2648.8398	2790.55	1902.7
991.5225	2650.1009	2800.65	1904.15
991.6464	2651.3613	2785.2	1894.8
991.7703	2652.6211	2774.05	1887
991.8942	2653.8801	2774.95	1887
992.018	2655.1385	2780.15	1889.7
992.1418	2656.3961	2766.35	1878.5
992.2655	2657.6531	2761.5	1871.65
992.3892	2658.9094	2761.2	1871.7
992.5129	2660.1651	2754.4	1866.2
992.6366	2661.42	2758.9	1870.25
992.7602	2662.6743	2749.25	1858.35
992.8837	2663.9279	2743.4	1855.9
993.0073	2665.1808	2733.55	1845.6
993.1307	2666.433	2736.6	1848.5
993.2542	2667.6846	2729.6	1840.9
993.3776	2668.9354	2731	1839.95
993.501	2670.1856	2728.35	1840.45
993.6244	2671.4351	2719.7	1829.15
993.7477	2672.6839	2719.4	1829.3
993.8709	2673.9321	2727.05	1840.95
993.9942	2675.1795	2713.3	1826.4
994.1174	2676.4263	2706.9	1818.8
994.2405	2677.6724	2706.25	1818.45
994.3637	2678.9179	2695.85	1806.85
994.4868	2680.1626	2696.75	1809.95
994.6098	2681.4067	2697.6	1808.45
994.7328	2682.6501	2686.35	1799.95
994.8558	2683.8928	2682.3	1794.8
994.9788	2685.1348	2678.8	1791.95
995.1017	2686.3761	2670.05	1781.6
995.2245	2687.6168	2654.05	1764.3
995.3474	2688.8568	2652	1764.25
995.4702	2690.0961	2642.75	1755.75
995.5929	2691.3348	2645.3	1756.1
995.7156	2692.5727	2624.6	1735.9
995.8383	2693.81	2630.9	1741.95
995.961	2695.0466	2608.05	1722
996.0836	2696.2826	2611.95	1722.2
996.2062	2697.5178	2613.75	1724.15
996.3287	2698.7524	2608.1	1718.45
996.4512	2699.9863	2613.55	1722.65
996.5737	2701.2195	2593	1707.85
996.6961	2702.452	2595.45	1706.45
996.8185	2703.6839	2602.55	1712.8
996.9408	2704.9151	2595.7	1709.6
997.0631	2706.1456	2587	1699.7
997.1854	2707.3755	2578.25	1691.35
997.3077	2708.6046	2585.95	1695.9
997.4299	2709.8331	2590.7	1702.15
997.552	2711.0609	2600.75	1713.35
997.6742	2712.2881	2604.65	1718.05
997.7963	2713.5145	2609.9	1721.35
997.9183	2714.7403	2605.95	1719.15
998.0403	2715.9654	2617.75	1729.7
998.1623	2717.1899	2641.5	1737.7
998.2842	2718.4136	2650.1	1761.9
998.4062	2719.6367	2636.55	1747.6
998.528	2720.8591	2644.4	1750.5
998.6498	2722.0809	2648.75	1760.4
998.7716	2723.3019	2656	1766.4
998.8934	2724.5223	2666.35	1778.6
999.0151	2725.7421	2655.25	1766.25
999.1368	2726.9611	2653.75	1763.8
999.2584	2728.1795	2645.65	1752.85
999.38	2729.3972	2628.35	1742
999.5016	2730.6142	2622.8	1727
999.6231	2731.8306	2606.2	1716.85
999.7446	2733.0462	2590.4	1701.05
999.8661	2734.2612	2565.6	1673.95
999.9875	2735.4756	2543.25	1653.75
1000.1089	2736.6892	2514.1	1626.55
1000.2302	2737.9022	2492.5	1606.4
1000.3515	2739.1145	2483.1	1595.3
1000.4728	2740.3262	2472.8	1580.05
1000.594	2741.5372	2447.85	1561.3
1000.7152	2742.7475	2422.5	1536.4
1000.8363	2743.9571	2410.6	1521
1000.9575	2745.1661	2409.65	1518.3
1001.0785	2746.3744	2390.3	1502.4
1001.1996	2747.582	2371	1483.4
1001.3206	2748.7889	2377.8	1488.75
1001.4415	2749.9952	2362.25	1476.05
1001.5625	2751.2008	2351.65	1462.8
1001.6833	2752.4057	2352.4	1463.8
1001.8042	2753.61	2335.2	1445.25
1001.925	2754.8136	2340.1	1451.95
1002.0458	2756.0165	2324.8	1438.45
1002.1665	2757.2188	2319.15	1435.15
1002.2872	2758.4204	2321.55	1435.85
1002.4078	2759.6213	2316.85	1426.65
1002.5285	2760.8215	2314.75	1424.25
1002.649	2762.0211	2306.35	1418.4
1002.7696	2763.22	2295.05	1406.9
1002.8901	2764.4182	2297.35	1409.25
1003.0106	2765.6158	2279.1	1392
1003.131	2766.8127	2274.85	1386.85
1003.2514	2768.009	2273.35	1385.55
1003.3717	2769.2045	2274.4	1386.65
1003.492	2770.3994	2271.25	1386.1
1003.6123	2771.5936	2265.1	1377.4
1003.7325	2772.7872	2251.85	1367.8
1003.8527	2773.9801	2236.1	1346.95
1003.9729	2775.1723	2251.25	1348.3
1004.093	2776.3639	2238.3	1352.7
1004.2131	2777.5548	2236	1345.65
1004.3331	2778.745	2219.75	1329.5
1004.4531	2779.9346	2216.75	1330.15
1004.5731	2781.1235	2226.8	1339
1004.693	2782.3117	2226.15	1343.55
1004.8129	2783.4992	2216.7	1332.3
1004.9328	2784.6861	2216.8	1331.2
1005.0526	2785.8723	2227.5	1342.2
1005.1723	2787.0579	2226.45	1338.25
1005.2921	2788.2428	2236.55	1350.8
1005.4118	2789.427	2239.35	1353.8
1005.5314	2790.6106	2240.4	1356.05
1005.651	2791.7935	2253.75	1366.8
1005.7706	2792.9757	2260.45	1375.65
1005.8902	2794.1573	2267.3	1379.25
1006.0097	2795.3382	2276.65	1389.95
1006.1291	2796.5184	2287.25	1403.65
1006.2485	2797.698	2307.3	1421.45
1006.3679	2798.8769	2317.9	1430.25
1006.4873	2800.0551	2333.25	1446.35
1006.6066	2801.2327	2339.85	1452.45
1006.7258	2802.4096	2361.5	1476.25
1006.8451	2803.5859	2379.4	1493.65
1006.9642	2804.7615	2393.85	1506.7
1007.0834	2805.9364	2417.65	1533.25
1007.2025	2807.1106	2439.6	1553.9
1007.3216	2808.2842	2463.35	1576.6
1007.4406	2809.4572	2495.45	1611.65
1007.5596	2810.6294	2530.15	1642.9
1007.6785	2811.801	2581.35	1695.8
1007.7975	2812.972	2614.1	1729.65
1007.9163	2814.1423	2664.75	1778.75
1008.0352	2815.3119	2706.45	1820.95
1008.154	2816.4808	2734.8	1851.8
1008.2727	2817.6491	2791	1907.1
1008.3914	2818.8167	2840.7	1957.4
1008.5101	2819.9837	2898.35	2008.1
1008.6288	2821.15	2929.3	2044.6
1008.7474	2822.3157	2970.75	2087.35
1008.8659	2823.4807	3009.3	2123.5
1008.9844	2824.645	3058	2171.75
1009.1029	2825.8086	3096.7	2212.65
1009.2214	2826.9716	3125.8	2241.4
1009.3398	2828.134	3179.45	2296.35
1009.4581	2829.2957	3208.25	2324.15
1009.5764	2830.4567	3211.95	2330
1009.6947	2831.617	3245.45	2359.1
1009.813	2832.7767	3252.7	2370.7
1009.9312	2833.9358	3260.7	2377.85
1010.0493	2835.0941	3253.7	2367.5
1010.1675	2836.2519	3241.95	2358.65
1010.2855	2837.4089	3200.7	2315.5
1010.4036	2838.5653	3216.25	2332.1
1010.5216	2839.7211	3208.95	2328.05
1010.6396	2840.8761	3214.05	2327
1010.7575	2842.0306	3244.1	2361.2
1010.8754	2843.1843	3282	2395.75
1010.9932	2844.3374	3325.8	2441.2
1011.111	2845.4899	3380.4	2494.15
1011.2288	2846.6417	3466.6	2580.2
1011.3465	2847.7928	3539.35	2655.9
1011.4642	2848.9433	3607.1	2722.6
1011.5818	2850.0931	3678.1	2792.8
1011.6995	2851.2422	3778.8	2890.6
1011.817	2852.3907	3829.85	2943.05
1011.9345	2853.5385	3923.25	3037.5
1012.052	2854.6857	3960.35	3067.25
1012.1695	2855.8323	4011.05	3128.35
1012.2869	2856.9781	4036.05	3151.7
1012.4042	2858.1233	4097.75	3212.95
1012.5216	2859.2679	4137.9	3254.65
1012.6389	2860.4118	4192.1	3308.65
1012.7561	2861.555	4242.9	3352.4
1012.8733	2862.6976	4266.3	3379.6
1012.9905	2863.8395	4293.95	3408.75
1013.1076	2864.9808	4294.3	3410.4
1013.2247	2866.1214	4299.05	3415
1013.3417	2867.2614	4335.95	3451.15
1013.4587	2868.4007	4344.1	3457.55
1013.5757	2869.5393	4334.6	3448.65
1013.6926	2870.6773	4366.75	3480.35
1013.8095	2871.8146	4371	3482.5
1013.9263	2872.9513	4372.85	3485.5
1014.0431	2874.0874	4364.85	3482.2
1014.1599	2875.2227	4345.35	3461.95
1014.2766	2876.3574	4323.45	3441.15
1014.3933	2877.4915	4298.25	3413.3
1014.51	2878.6249	4270.15	3385.8
1014.6266	2879.7577	4242.35	3357.2
1014.7431	2880.8898	4223	3327.35
1014.8596	2882.0212	4210.85	3328.65
1014.9761	2883.152	4190.15	3305.6
1015.0925	2884.2821	4185.7	3303.65
1015.2089	2885.4116	4175.3	3291.85
1015.3253	2886.5405	4156	3271.5
1015.4416	2887.6686	4179.25	3291.05
1015.5579	2888.7962	4169.5	3287.35
1015.6741	2889.923	4181.35	3298.1
1015.7903	2891.0493	4190.6	3308.2
1015.9065	2892.1748	4203.4	3318
1016.0226	2893.2997	4205.55	3320.35
1016.1387	2894.424	4219.95	3337.4
1016.2547	2895.5476	4225.4	3340.05
1016.3707	2896.6706	4247.65	3364.25
1016.4866	2897.7929	4268.4	3383.15
1016.6025	2898.9145	4309	3425.45
1016.7184	2900.0355	4340.15	3455.75
1016.8342	2901.1559	4374.45	3489.9
1016.95	2902.2756	4393.9	3510.4
1017.0658	2903.3946	4433.1	3551
1017.1815	2904.513	4454.95	3568.8
1017.2971	2905.6308	4483.95	3599.8
1017.4127	2906.7479	4488.2	3603.45
1017.5283	2907.8643	4521.05	3635.9
1017.6439	2908.9801	4528.05	3644.5
1017.7594	2910.0953	4529.95	3646.25
1017.8748	2911.2098	4522.9	3636.75
1017.9902	2912.3236	4515.85	3624.5
1018.1056	2913.4368	4498.95	3611.2
1018.2209	2914.5494	4480.9	3596.95
1018.3362	2915.6613	4451.25	3562.35
1018.4515	2916.7725	4422.4	3534.9
1018.5667	2917.8831	4400.1	3515
1018.6819	2918.9931	4358	3470.9
1018.797	2920.1024	4329.9	3446.6
1018.9121	2921.211	4315.7	3434.65
1019.0271	2922.319	4288.9	3403.45
1019.1421	2923.4264	4268.45	3383.95
1019.2571	2924.5331	4262.9	3381
1019.372	2925.6391	4232	3346.75
1019.4869	2926.7445	4234.65	3352.2
1019.6017	2927.8493	4211.6	3330.25
1019.7165	2928.9534	4204.9	3322
1019.8313	2930.0569	4187.05	3300.5
1019.946	2931.1597	4195.75	3312.9
1020.0606	2932.2619	4187.45	3302.8
1020.1753	2933.3634	4157	3274.05
1020.2899	2934.4643	4153.95	3263.1
1020.4044	2935.5645	4145.65	3258.05
1020.5189	2936.6641	4098.9	3210.15
1020.6334	2937.763	4057.85	3173.5
1020.7478	2938.8613	3999.05	3117.4
1020.8622	2939.959	3944.55	3055.85
1020.9765	2941.056	3864.55	2984.1
1021.0908	2942.1523	3766.95	2882.55
1021.2051	2943.248	3675.85	2793.85
1021.3193	2944.3431	3574.25	2692.1
1021.4334	2945.4375	3475.1	2590.8
1021.5476	2946.5313	3373.2	2491.75
1021.6617	2947.6244	3253.3	2370.4
1021.7757	2948.7169	3163.95	2280.9
1021.8897	2949.8087	3063.45	2181.85
1022.0037	2950.8999	2970.95	2088.05
1022.1176	2951.9904	2888.45	2005.1
1022.2315	2953.0803	2803.05	1920.75
1022.3453	2954.1696	2738.95	1856.1
1022.4591	2955.2582	2686.3	1805.2
1022.5728	2956.3462	2633.6	1748.8
1022.6865	2957.4335	2590.1	1706.45
1022.8002	2958.5202	2545.15	1659.9
1022.9138	2959.6062	2531.5	1648.55
1023.0274	2960.6916	2501.6	1618.05
1023.141	2961.7764	2489.9	1606.6
1023.2545	2962.8605	2462	1577.95
1023.3679	2963.9439	2445.55	1564.25
1023.4813	2965.0267	2437.6	1552.85
1023.5947	2966.1089	2446.05	1538.9
1023.708	2967.1905	2424.45	1542
1023.8213	2968.2714	2415.4	1534.15
1023.9346	2969.3516	2411.05	1529.4
1024.0478	2970.4312	2409.15	1518.4
1024.1609	2971.5102	2417.95	1537.05
1024.274	2972.5885	2405.45	1522.2
1024.3871	2973.6662	2410.65	1522.2
1024.5002	2974.7432	2390.5	1506.45
1024.6132	2975.8196	2385.95	1500.55
1024.7261	2976.8954	2384.75	1502.1
1024.839	2977.9705	2373.45	1493
1024.9519	2979.045	2344.95	1463.6
1025.0647	2980.1188	2325.75	1443.7
1025.1775	2981.192	2308.35	1426.7
1025.2902	2982.2645	2291.05	1409.6
1025.4029	2983.3364	2264.15	1381.9
1025.5156	2984.4077	2226.65	1343.1
1025.6282	2985.4783	2201.5	1313.8
1025.7407	2986.5483	2171.4	1290.1
1025.8532	2987.6177	2136.25	1253.4
1025.9657	2988.6864	2095.3	1212.45
1026.0782	2989.7545	2058.85	1176.55
1026.1906	2990.8219	2030.5	1148.55
1026.3029	2991.8887	1991.1	1105.4
1026.4152	2992.9548	1950.2	1065.1
1026.5275	2994.0204	1920.6	1040.35
1026.6397	2995.0852	1891.05	1010.2
1026.7519	2996.1495	1878.4	996.1
1026.864	2997.2131	1833.2	951
1026.9761	2998.276	1814.9	931.05
1027.0882	2999.3383	1800.7	918.6
1027.2002	3000.4	1785.55	901.85
1027.3122	3001.4611	1759.9	877.2
1027.4241	3002.5215	1746.2	862.35
1027.536	3003.5812	1728.45	846.45
1027.6478	3004.6404	1727.95	845.95
1027.7596	3005.6989	1716.35	831.3
1027.8714	3006.7567	1706.85	823.6
1027.9831	3007.8139	1708.45	806.5
1028.0947	3008.8705	1676.75	794.5
1028.2064	3009.9264	1687.5	789.15
1028.3179	3010.9818	1675.45	792.35
1028.4295	3012.0364	1671.15	788
1028.541	3013.0905	1662	780.2
1028.6524	3014.1439	1654.6	771.15
1028.7638	3015.1966	1647.65	764.95
1028.8752	3016.2487	1659.85	779.6
1028.9865	3017.3002	1655.95	766.4
1029.0978	3018.3511	1646.05	765.1
1029.209	3019.4013	1653.5	770.7
1029.3202	3020.4509	1651.45	770.55
1029.4314	3021.4998	1655.45	773
1029.5425	3022.5481	1645.1	763.95
1029.6535	3023.5958	1654.95	771.6
1029.7645	3024.6428	1644.25	761.05
1029.8755	3025.6892	1649.25	768.45
1029.9864	3026.735	1647	764.1
1030.0973	3027.7802	1658.3	776.3
1030.2082	3028.8247	1652.85	770.6
1030.319	3029.8685	1654.2	770.25
1030.4297	3030.9118	1655.25	772.55
1030.5404	3031.9544	1659.95	777.4
1030.6511	3032.9963	1661.65	781
1030.7617	3034.0376	1672.25	790.3
1030.8723	3035.0783	1669.8	784.6
1030.9829	3036.1184	1677.55	794.85
1031.0934	3037.1578	1674	793.65
1031.2038	3038.1966	1675.65	791.45
1031.3142	3039.2348	1672.8	791.2
1031.4246	3040.2723	1673.25	782.75
1031.5349	3041.3092	1675.85	795.5
1031.6452	3042.3455	1672.25	789.4
1031.7554	3043.3811	1657.6	775.95
1031.8656	3044.4161	1659.35	778.55
1031.9758	3045.4505	1647.1	765.85
1032.0859	3046.4842	1644.85	762.3
1032.1959	3047.5173	1627.3	747.6
1032.3059	3048.5498	1617.55	734.9
1032.4159	3049.5816	1618.2	734.4
1032.5258	3050.6128	1614	730.55
1032.6357	3051.6434	1605.5	721.4
1032.7455	3052.6734	1594.3	711.45
1032.8553	3053.7027	1593.8	711.35
1032.9651	3054.7314	1577.85	696.85
1033.0748	3055.7594	1569.45	688.1
1033.1845	3056.7868	1571	689.35
1033.2941	3057.8136	1564.45	683.45
1033.4037	3058.8398	1551.35	670.65
1033.5132	3059.8653	1543.65	661.9
1033.6227	3060.8902	1540.2	657.4
1033.7321	3061.9145	1534.1	652.8
1033.8415	3062.9381	1524.05	641.05
1033.9509	3063.9612	1534.95	636.85
1034.0602	3064.9835	1523.3	642.3
1034.1694	3066.0053	1510.05	625.65
1034.2787	3067.0264	1501.3	620.3
1034.3878	3068.0469	1489.65	607.3
1034.497	3069.0668	1489.3	603.3
1034.6061	3070.086	1478.6	597.9
1034.7151	3071.1046	1463.4	575.65
1034.8241	3072.1226	1460.1	578.7
1034.9331	3073.1399	1438.6	559.8
1035.042	3074.1567	1438.05	555.5
1035.1508	3075.1727	1421.3	539.4
1035.2597	3076.1882	1416.9	535.35
1035.3684	3077.203	1410.3	529.75
1035.4772	3078.2173	1396.85	514.3
1035.5859	3079.2308	1390.35	502.7
1035.6945	3080.2438	1382	497.25
1035.8031	3081.2561	1369.95	486.7
1035.9117	3082.2678	1357.45	476.1
1036.0202	3083.2789	1345.5	466
1036.1286	3084.2893	1344.2	462.55
1036.2371	3085.2991	1340.25	461.3
1036.3454	3086.3083	1331.1	447.3
1036.4538	3087.3169	1330	447.65
1036.562	3088.3248	1324.35	442.5
1036.6703	3089.3321	1322.3	439
1036.7785	3090.3388	1304.75	423.6
1036.8866	3091.3449	1295.7	413.1
1036.9948	3092.3503	1303.4	418.25
1037.1028	3093.3551	1288.75	409.35
1037.2108	3094.3593	1291	408.75
1037.3188	3095.3629	1283.9	404.1
1037.4267	3096.3658	1284.95	402.3
1037.5346	3097.3681	1279.25	397.95
1037.6425	3098.3698	1276	392.95
1037.7503	3099.3708	1277.05	388.7
1037.858	3100.3713	1267.4	386.6
1037.9657	3101.3711	1267.1	384.6
1038.0734	3102.3702	1394.65	381.3
1038.181	3103.3688	1262.2	379.55
1038.2886	3104.3667	1251.3	370.6
1038.3961	3105.364	1251.95	371.95
1038.5036	3106.3607	1247.5	365.3
1038.611	3107.3568	1244.75	361.5
1038.7184	3108.3522	1241.9	360.9
1038.8257	3109.347	1242	359.75
1038.933	3110.3412	1248.75	366
1039.0403	3111.3348	1241.05	359.15
1039.1475	3112.3277	1232.35	350
1039.2547	3113.32	1229.95	349.4
1039.3618	3114.3117	1225.85	343.8
1039.4689	3115.3028	1222.9	342.7
1039.5759	3116.2932	1224.7	341.45
1039.6829	3117.2831	1221.7	335.95
1039.7898	3118.2723	1219.9	337.25
1039.8967	3119.2608	1212.6	328.85
1040.0035	3120.2488	1218.05	337.4
1040.1103	3121.2361	1213.5	332.05
1040.2171	3122.2229	1211.25	330.15
1040.3238	3123.209	1213.9	333.35
1040.4305	3124.1944	1204.1	322.35
1040.5371	3125.1793	1205.4	322
1040.6437	3126.1635	1201.85	323.35
1040.7502	3127.1471	1201.4	320.65
1040.8567	3128.1301	1197.05	318.7
1040.9631	3129.1125	1191.35	310.35
1041.0695	3130.0942	1195.4	315.45
1041.1759	3131.0753	1192.4	301.9
1041.2822	3132.0558	1190.6	307.1
1041.3884	3133.0357	1183.2	302.3
1041.4946	3134.015	1182.65	301.85
1041.6008	3134.9936	1188.85	304.9
1041.7069	3135.9716	1199.3	297.3
1041.813	3136.949	1182.5	301.65
1041.919	3137.9258	1194.15	293.8
1042.025	3138.902	1184.4	298
1042.1309	3139.8775	1179.8	298.6
1042.2368	3140.8524	1177.35	297.05
1042.3427	3141.8267	1169.5	286.45
1042.4485	3142.8004	1166.15	286.05
1042.5542	3143.7735	1174.05	287.35
1042.6599	3144.7459	1169	287.6
1042.7656	3145.7178	1170	288.25
1042.8712	3146.689	1162.25	283.25
1042.9768	3147.6596	1165.45	282.85
1043.0823	3148.6295	1161.6	281.35
1043.1878	3149.5989	1158.15	277.2
1043.2932	3150.5676	1159.45	279.75
1043.3986	3151.5357	1153	274.05
1043.5039	3152.5032	1150.9	271.4
1043.6092	3153.4701	1147.25	267.45
1043.7145	3154.4364	1143.7	259.5
1043.8197	3155.402	1145.45	267.5
1043.9248	3156.367	1143.45	260.75
1044.03	3157.3315	1170.3	265.15
1044.135	3158.2952	1144.5	261.6
1044.24	3159.2584	1140.15	261.4
1044.345	3160.221	1135.25	253.75
1044.4499	3161.1829	1137.8	256.25
1044.5548	3162.1442	1136.5	256.85
1044.6596	3163.105	1127.7	247.65
1044.7644	3164.065	1130.9	249.75
1044.8692	3165.0245	1133.95	249.6
1044.9739	3165.9834	1121.35	243.95
1045.0785	3166.9416	1126.95	245.95
1045.1831	3167.8993	1124	243.1
1045.2877	3168.8563	1120.05	238.65
1045.3922	3169.8127	1119.8	240.75
1045.4966	3170.7684	1117.7	237.3
1045.6011	3171.7236	1122.7	238.55
1045.7054	3172.6782	1116.7	238.55
1045.8098	3173.6321	1115.4	233.7
1045.914	3174.5854	1113.4	229.75
1046.0183	3175.5381	1112.25	230.8
1046.1224	3176.4902	1110.9	231.15
1046.2266	3177.4417	1109.8	228.75
1046.3307	3178.3926	1107.05	225.4
1046.4347	3179.3428	1109	229.25
1046.5387	3180.2924	1104.9	226.8
1046.6427	3181.2415	1109.75	228.7
1046.7466	3182.1899	1105.55	225.9
1046.8504	3183.1377	1102.6	222.85
1046.9542	3184.0848	1107.45	223.05
1047.058	3185.0314	1097.7	217.85
1047.1617	3185.9773	1099.5	216.25
1047.2654	3186.9227	1102	220.4
1047.369	3187.8674	1092.45	212.8
1047.4726	3188.8115	1100	216.5
1047.5761	3189.755	1097.5	217.2
1047.6796	3190.6979	1094.95	216.1
1047.783	3191.6402	1087.45	207.85
1047.8864	3192.5818	1091.2	211.3
1047.9898	3193.5229	1099.45	213.35
1048.0931	3194.4633	1093.1	211.7
1048.1963	3195.4031	1089.85	209.2
1048.2995	3196.3423	1087.1	207.65
1048.4027	3197.2809	1081.6	197.35
1048.5058	3198.2189	1081.8	200.55
1048.6089	3199.1563	1090.95	204.65
1048.7119	3200.0931	1082.65	202.35
1048.8148	3201.0292	1082.35	204
1048.9178	3201.9648	1080.2	199.85
1049.0206	3202.8997	1084.5	200.85
1049.1235	3203.834	1076.65	197.85
1049.2262	3204.7677	1078.05	198.85
1049.329	3205.7008	1076.25	195.25
1049.4317	3206.6333	1077	196.15
1049.5343	3207.5652	1080.6	200.05
1049.6369	3208.4964	1076.25	194.55
1049.7394	3209.4271	1072.45	194.05
1049.8419	3210.3571	1073.05	193.6
1049.9444	3211.2865	1070.75	190
1050.0468	3212.2154	1071.25	191.35
1050.1491	3213.1436	1071.35	188.25
1050.2514	3214.0712	1078.55	191.6
1050.3537	3214.9982	1070.4	189.5
1050.4559	3215.9246	1068.2	186.6
1050.5581	3216.8503	1066.6	187.7
1050.6602	3217.7755	1067.35	186.05
1050.7623	3218.7001	1060	180.6
1050.8643	3219.624	1062.2	179.9
1050.9663	3220.5473	1058.05	175.8
1051.0682	3221.4701	1060.35	177.95
1051.1701	3222.3922	1064.45	182.75
1051.2719	3223.3137	1058.6	178.15
1051.3737	3224.2346	1058.55	178.65
1051.4754	3225.1549	1055.4	175.25
1051.5771	3226.0746	1057.7	176.85
1051.6788	3226.9937	1052.35	172.6
1051.7804	3227.9121	1056	174.95
1051.8819	3228.83	1051.4	172.4
1051.9834	3229.7473	1054.15	173.4
1052.0849	3230.6639	1052.85	172.9
1052.1863	3231.5799	1047.6	167.4
1052.2876	3232.4954	1051.3	170.35
1052.3889	3233.4102	1048.85	169.2
1052.4902	3234.3244	1047.45	165.9
1052.5914	3235.238	1041.1	161.4
1052.6926	3236.151	1066.7	161.35
1052.7937	3237.0634	1045.65	166.7
1052.8948	3237.9752	1039.1	158.5
1052.9958	3238.8864	1044.8	164
1053.0968	3239.797	1040	161.15
1053.1977	3240.7069	1038.9	159.8
1053.2986	3241.6163	1041.35	161.15
1053.3994	3242.5251	1038.05	159.25
1053.5002	3243.4332	1035.1	157.95
1053.6009	3244.3408	1036.25	157.3
1053.7016	3245.2477	1031.5	153.3
1053.8022	3246.154	1036.5	155.35
1053.9028	3247.0598	1032.7	151.5
1054.0034	3247.9649	1035.3	154.5
1054.1039	3248.8694	1028.4	147.7
1054.2043	3249.7733	1028.35	148.8
1054.3047	3250.6766	1030.4	150.4
1054.4051	3251.5793	1032.9	150.8
1054.5054	3252.4814	1029.3	149.65
1054.6056	3253.3829	1026.2	148.25
1054.7058	3254.2838	1023.1	142.9
1054.806	3255.1841	1024.4	145.75
1054.9061	3256.0838	1024.45	146.85
1055.0061	3256.9829	1018.7	139.05
1055.1062	3257.8814	1021.2	139.6
1055.2061	3258.7792	1021.5	138.5
1055.306	3259.6765	1017.5	136.9
1055.4059	3260.5731	1014.2	133.9
1055.5057	3261.4692	1017.3	136.3
1055.6055	3262.3647	1012.05	133.95
1055.7052	3263.2595	1005.85	125
1055.8049	3264.1538	1010.5	131.45
1055.9045	3265.0474	1008.4	127.75
1056.0041	3265.9404	1005.75	128.4
1056.1036	3266.8329	999.15	119.05
1056.2031	3267.7247	1011.5	121.55
1056.3025	3268.616	999.35	120.25
1056.4019	3269.5066	996.65	117.7
1056.5013	3270.3966	991	107.7
1056.6005	3271.286	988.25	110.7
