Software Version:	3.9.2.0
Unit SN:	10000200
Spectrometer SN:	6960
Date:	3/26/2024 1:26:00 PM
Data Line Index:	25
Spectral Points:	2048
Integration time (ms):	125
Averages:	20
Delay (ms):	30000
Sequence Number:	1
Processing:	dark subtract
Laser Power (mW):	305
Laser Current (mA):	821
Laser Diode Temp (C):	25.1
Laser Case Temp (C):	26.7
System Temp (C):	26.7
Spectrometer Temp (C):	24.5
CCD Temp (C):	0.004
Secondary Temp (C):	20.006
Heatsink Temp (C):	22.313
CCDPCB Temp (C):	36.307
SecondaryPCB Temp (C):	33.561

Wavelength	RamanShift	Raw Counts	Dark Subtracted
787.061	30.1047	474.1	61.2
787.2016	32.3739	476.65	69.25
787.3422	34.6426	483.4	73.4
787.4828	36.9109	487.2	74
787.6235	39.1787	499.75	82.35
787.7642	41.4461	506.5	82.7
787.9049	43.7131	512.5	86.55
788.0456	45.9796	523.45	94.45
788.1863	48.2456	535.15	103.05
788.3271	50.5112	543.1	108.3
788.4679	52.7764	550.15	111.85
788.6087	55.0411	562.55	122.55
788.7496	57.3054	578.3	132.65
788.8904	59.5692	586.95	139.55
789.0313	61.8326	600.85	149.7
789.1722	64.0955	613.15	157.55
789.3132	66.3579	632.2	170
789.4541	68.6199	647.3	181.9
789.5951	70.8815	683.95	217
789.7361	73.1426	759.85	289
789.8771	75.4032	931.55	456.65
790.0181	77.6634	1358.85	878.25
790.1592	79.9231	2389.2	1903.4
790.3003	82.1824	4630.15	4132.5
790.4414	84.4412	8748.8	8235.95
790.5825	86.6995	14519.7	13981.05
790.7237	88.9574	20391.45	19836.1
790.8648	91.2148	24710.35	24141.1
791.006	93.4717	27039.45	26459.4
791.1472	95.7282	27999.85	27415.8
791.2885	97.9842	28465.4	27876.95
791.4297	100.2398	28487.3	27895.4
791.571	102.4949	28475.55	27880.3
791.7123	104.7495	28305.05	27708.15
791.8536	107.0036	28142.3	27541.3
791.9949	109.2573	28051.25	27453.35
792.1363	111.5105	27932.5	27333.35
792.2777	113.7632	27839.55	27236.6
792.4191	116.0154	27800.2	27187.9
792.5605	118.2672	27817.05	27210.75
792.7019	120.5185	27801.2	27195.35
792.8434	122.7693	27818.85	27210.1
792.9849	125.0197	27813.75	27204.75
793.1264	127.2696	27781.85	27166.95
793.2679	129.519	27879.25	27261.75
793.4094	131.7679	27898.6	27276.75
793.551	134.0163	27898.95	27268.85
793.6926	136.2642	27810.75	27179.05
793.8342	138.5117	27770.25	27131.45
793.9758	140.7587	27722.25	27088.2
794.1175	143.0052	27700.1	27064.2
794.2591	145.2512	27571.8	26936.75
794.4008	147.4967	27505.65	26870.05
794.5425	149.7417	27452.35	26813.45
794.6842	151.9863	27433.15	26792.7
794.826	154.2304	27405.2	26758.05
794.9677	156.4739	27254.9	26601.65
795.1095	158.717	27297.95	26645.9
795.2513	160.9596	27264.95	26605.45
795.3931	163.2017	27193.75	26535.95
795.535	165.4433	27137.5	26474.4
795.6768	167.6844	27039.2	26374.55
795.8187	169.925	27015.65	26353.3
795.9606	172.1651	26835	26167.35
796.1025	174.4047	26829.65	26156.05
796.2445	176.6439	26766.65	26093.15
796.3864	178.8825	26750.45	26073.5
796.5284	181.1206	26720.2	26039.65
796.6704	183.3582	26672.15	25986.45
796.8124	185.5954	26602.15	25915.5
796.9544	187.832	26607.25	25918.65
797.0965	190.0681	26683.85	25988.9
797.2386	192.3037	26713.65	26014.65
797.3806	194.5388	26671.95	25973.7
797.5228	196.7734	26705.2	26001.4
797.6649	199.0075	26761.05	26056
797.807	201.2411	26877.7	26169.45
797.9492	203.4742	26863.65	26155.15
798.0914	205.7068	26953.5	26244.7
798.2336	207.9389	26983.75	26274.7
798.3758	210.1704	27033.55	26320.15
798.518	212.4015	26963.6	26246.6
798.6603	214.632	27039.1	26325.45
798.8025	216.862	27062.6	26358.9
798.9448	219.0915	27033.7	26337.3
799.0871	221.3205	27037.25	26339.15
799.2294	223.549	27110.95	26413
799.3718	225.777	27127.9	26432.45
799.5141	228.0044	27132.8	26434.1
799.6565	230.2314	27223.1	26527
799.7989	232.4578	27226.6	26533.85
799.9413	234.6837	27213.3	26509.7
800.0837	236.909	27277.15	26572.35
800.2262	239.1339	27252.55	26522.05
800.3687	241.3582	27276.65	26561.7
800.5111	243.582	27195.35	26450.1
800.6536	245.8053	27215.05	26482.15
800.7961	248.0281	27194.1	26462
800.9387	250.2503	27165.25	26433.3
801.0812	252.472	27190.65	26450.8
801.2238	254.6932	27205.4	26467.55
801.3664	256.9139	27152.2	26410
801.509	259.134	27201.9	26460.05
801.6516	261.3536	27207.75	26464.2
801.7942	263.5727	27275.1	26525.5
801.9369	265.7912	27272.5	26528
802.0795	268.0092	27326.25	26577.75
802.2222	270.2267	27346	26595.3
802.3649	272.4436	27365	26616.1
802.5076	274.6601	27345.95	26589.8
802.6504	276.8759	27309.95	26558.1
802.7931	279.0913	27309.4	26553.4
802.9359	281.3061	27245.65	26489.9
803.0787	283.5204	27321.25	26561.9
803.2215	285.7341	27298.25	26538.45
803.3643	287.9473	27327.25	26551.05
803.5071	290.16	27345.65	26578.1
803.6499	292.3721	27257.8	26496.15
803.7928	294.5837	27295.8	26532.5
803.9357	296.7947	27284.8	26523.3
804.0786	299.0052	27264.45	26496.85
804.2215	301.2152	27216.95	26445.65
804.3644	303.4246	27248.85	26485.8
804.5074	305.6334	27147.85	26381.2
804.6503	307.8418	27084.5	26317.8
804.7933	310.0495	26996.75	26228.1
804.9363	312.2568	26902	26134.7
805.0793	314.4635	26749.4	25982.5
805.2223	316.6696	26681.4	25907.35
805.3653	318.8752	26580.7	25799.2
805.5084	321.0802	26471.8	25697.35
805.6514	323.2847	26466.25	25691.6
805.7945	325.4887	26436.65	25658.7
805.9376	327.692	26414.4	25634.45
806.0807	329.8949	26481.25	25700.75
806.2238	332.0972	26430.45	25650.6
806.367	334.2989	26401.2	25615.95
806.5101	336.5001	26316.15	25530.7
806.6533	338.7007	26304.25	25520.85
806.7965	340.9008	26291.55	25504.7
806.9397	343.1003	26195.05	25408.7
807.0829	345.2992	26170.85	25381.15
807.2261	347.4976	26123.15	25332.95
807.3693	349.6955	26092.7	25297.35
807.5126	351.8927	26160.4	25363.75
807.6559	354.0895	26064.85	25257.05
807.7991	356.2856	26040.45	25242.45
807.9424	358.4812	25989.95	25193.8
808.0857	360.6763	26039.6	25242.45
808.2291	362.8707	25957.4	25163.8
808.3724	365.0646	26002.4	25201.8
808.5158	367.258	25934.3	25129.75
808.6591	369.4508	25840.15	25033.6
808.8025	371.643	25914.4	25106.45
808.9459	373.8346	25819.9	25013.6
809.0893	376.0257	25800.55	24990.25
809.2327	378.2162	25771.7	24962.2
809.3762	380.4062	25764.3	24951.3
809.5196	382.5956	25637.75	24821.1
809.6631	384.7844	25649.8	24839.35
809.8066	386.9726	25574.65	24762.7
809.9501	389.1603	25499.35	24687.55
810.0936	391.3474	25487.25	24644.9
810.2371	393.5339	25435.75	24621.65
810.3806	395.7199	25365.25	24555.95
810.5241	397.9052	25367.5	24562.55
810.6677	400.09	25340.2	24535.75
810.8113	402.2743	25388.8	24581.75
810.9548	404.4579	25320.9	24516.7
811.0984	406.641	25368.85	24561.05
811.2421	408.8235	25412.6	24605.65
811.3857	411.0054	25423.05	24611.7
811.5293	413.1868	25539.65	24727.35
811.673	415.3675	25499.15	24683.45
811.8166	417.5477	25497	24682.35
811.9603	419.7273	25443.85	24628.5
812.104	421.9064	25335	24510.3
812.2477	424.0848	25270.45	24449.85
812.3914	426.2627	25161.35	24338.3
812.5351	428.4399	25134.2	24310.9
812.6788	430.6166	25041.85	24211.7
812.8226	432.7928	24933.25	24100.55
812.9663	434.9683	24798.15	23968.45
813.1101	437.1432	24728.75	23900.9
813.2539	439.3176	24607.95	23782.3
813.3977	441.4914	24519.3	23688.9
813.5415	443.6645	24501.25	23672.5
813.6853	445.8371	24413.3	23580.35
813.8291	448.0091	24291	23458.25
813.973	450.1806	24267.15	23436.75
814.1168	452.3514	24173.35	23341.6
814.2607	454.5216	24163.5	23322.25
814.4046	456.6913	24030.1	23193.15
814.5485	458.8603	24021.95	23188.65
814.6924	461.0288	24108.35	23277.5
814.8363	463.1967	24043.25	23214.05
814.9802	465.3639	24070.5	23237.6
815.1241	467.5306	23946.2	23114.45
815.2681	469.6967	23954.95	23122
815.412	471.8622	23877.2	23046.65
815.556	474.0271	23884.15	23049.35
815.7	476.1914	23860.5	23021.9
815.844	478.3551	23852.75	23016.1
815.988	480.5182	23909.75	23072.75
816.132	482.6807	23934.25	23100.45
816.276	484.8426	23904.45	23071.45
816.4201	487.0039	24061.1	23228.4
816.5641	489.1647	24057.85	23220.2
816.7082	491.3248	24094.8	23256.95
816.8522	493.4843	24075.25	23236.65
816.9963	495.6432	24073.6	23233.6
817.1404	497.8015	23978.3	23134.85
817.2845	499.9592	23960.15	23115.8
817.4286	502.1163	23896.3	23051.5
817.5727	504.2728	23803.55	22959.75
817.7168	506.4287	23795.35	22957.35
817.861	508.5839	23682.45	22842.6
818.0051	510.7386	23642.1	22800.95
818.1493	512.8927	23662.7	22812.3
818.2935	515.0461	23599.05	22752.35
818.4377	517.199	23590.8	22747.35
818.5818	519.3512	23626.85	22779.5
818.726	521.5029	23659.1	22807.95
818.8703	523.6539	23690.2	22843.45
819.0145	525.8043	23707.55	22858.8
819.1587	527.9541	23647.2	22796.75
819.303	530.1033	23563.35	22715.6
819.4472	532.2519	23547.15	22696
819.5915	534.3999	23474.65	22620.35
819.7357	536.5472	23462.95	22613.3
819.88	538.694	23473.35	22625.65
820.0243	540.8401	23519.4	22667.4
820.1686	542.9856	23578.65	22721.35
820.3129	545.1305	23558.55	22696.9
820.4572	547.2748	23569.95	22708.95
820.6016	549.4185	23522.4	22658.45
820.7459	551.5615	23448.7	22588.2
820.8902	553.704	23424.65	22563.6
821.0346	555.8458	23377.55	22516.85
821.1789	557.987	23414.75	22557.3
821.3233	560.1276	23411.2	22553.4
821.4677	562.2675	23518.7	22660.55
821.6121	564.4069	23558.1	22700.35
821.7565	566.5456	23609	22754.25
821.9009	568.6837	23621.2	22761.7
822.0453	570.8212	23488.6	22630.65
822.1897	572.958	23314.95	22453.15
822.3342	575.0942	23169.7	22312.95
822.4786	577.2299	23039.1	22183.6
822.6231	579.3648	22929.2	22079.25
822.7675	581.4992	22814.15	21966.7
822.912	583.6329	22806.8	21959.45
823.0565	585.766	22802.7	21953.5
823.201	587.8985	22787.2	21933.95
823.3454	590.0304	22748.4	21879.3
823.4899	592.1616	22705	21843.2
823.6345	594.2922	22639.45	21776.25
823.779	596.4222	22573.15	21710.55
823.9235	598.5515	22533.75	21665.8
824.068	600.6802	22476.85	21610.9
824.2126	602.8083	22289.1	21426.15
824.3571	604.9358	22328.85	21461.35
824.5017	607.0626	22223.2	21354
824.6462	609.1888	22240.05	21371.55
824.7908	611.3144	22254.9	21382.35
824.9354	613.4393	22219.85	21352.15
825.08	615.5636	22232.7	21363.25
825.2246	617.6873	22216.4	21347.15
825.3692	619.8103	22250.15	21378.35
825.5138	621.9327	22121.7	21247.5
825.6584	624.0544	22100.45	21234.65
825.803	626.1756	22079.2	21212
825.9477	628.2961	21993.9	21123.15
826.0923	630.4159	21947.15	21075.95
826.237	632.5351	21958.25	21084
826.3816	634.6537	21910.95	21037.55
826.5263	636.7716	21911.25	21035.45
826.6709	638.8889	21910.15	21035.35
826.8156	641.0056	21930.65	21056.3
826.9603	643.1216	21867.05	20992.15
827.105	645.237	21892.65	21017.05
827.2497	647.3518	21844.65	20970.75
827.3944	649.4659	21802.9	20935.3
827.5391	651.5793	21759.8	20887.9
827.6838	653.6922	21701.9	20831.55
827.8285	655.8043	21686.9	20812.45
827.9733	657.9159	21687.15	20815.1
828.118	660.0268	21600.95	20726.25
828.2627	662.137	21538.45	20660.55
828.4075	664.2466	21516.45	20637.95
828.5522	666.3556	21547.35	20670.75
828.697	668.4639	21459	20579.15
828.8418	670.5716	21465.45	20593.2
828.9865	672.6786	21464.3	20587.4
829.1313	674.785	21392.65	20513.7
829.2761	676.8907	21324.75	20447.85
829.4209	678.9958	21325.35	20449.5
829.5657	681.1002	21256.05	20378.8
829.7105	683.204	21213.05	20330.15
829.8553	685.3072	21168.1	20287.75
830.0001	687.4097	21140.55	20262.75
830.1449	689.5115	21144.8	20261.45
830.2898	691.6127	21166.4	20283.05
830.4346	693.7132	21099.6	20222.65
830.5794	695.8131	21111.35	20209
830.7243	697.9123	21090.8	20207.65
830.8691	700.0109	21051.9	20168.75
831.014	702.1089	21049.75	20169.85
831.1588	704.2061	21022.8	20142.9
831.3037	706.3028	21015.65	20129.35
831.4486	708.3987	20983.2	20097.4
831.5935	710.4941	20958.25	20077.6
831.7383	712.5887	20910.95	20028.1
831.8832	714.6827	20966.95	20080.45
832.0281	716.7761	20913.7	20032.75
832.173	718.8688	20935.05	20052.3
832.3179	720.9608	20913	20027.55
832.4628	723.0522	20953.6	20060.95
832.6077	725.1429	20918.65	20029.8
832.7527	727.233	20912.85	20023.5
832.8976	729.3224	20938.5	20055.65
833.0425	731.4112	20820.65	19934.05
833.1874	733.4993	20774.6	19886.55
833.3324	735.5867	20709.85	19823.15
833.4773	737.6735	20627.35	19737
833.6222	739.7596	20543	19656.95
833.7672	741.845	20488.35	19601.15
833.9122	743.9298	20435.55	19544.35
834.0571	746.014	20438.8	19550.25
834.2021	748.0974	20383.45	19492.1
834.347	750.1802	20342.2	19449.75
834.492	752.2624	20272.8	19378.3
834.637	754.3439	20214.6	19319.7
834.782	756.4247	20149.35	19250.3
834.9269	758.5048	20141.15	19248.1
835.0719	760.5843	20129	19235.1
835.2169	762.6631	20095.35	19203.5
835.3619	764.7413	20147.95	19258.8
835.5069	766.8188	20287.45	19393.65
835.6519	768.8956	20271.3	19380.5
835.7969	770.9718	20348.45	19455.35
835.9419	773.0473	20257.8	19366.9
836.0869	775.1221	20187.05	19294.25
836.232	777.1962	20068.75	19177.55
836.377	779.2697	20048.75	19153.5
836.522	781.3426	20030.9	19116.7
836.667	783.4147	20022.6	19129.45
836.8121	785.4862	20014.85	19121.25
836.9571	787.557	19922.2	19028
837.1021	789.6271	19795.45	18900
837.2472	791.6966	19654.2	18759.9
837.3922	793.7654	19488.4	18592.1
837.5373	795.8335	19410.75	18514.5
837.6823	797.901	19275.45	18382.95
837.8274	799.9678	19247.8	18349.55
837.9724	802.0339	19215.1	18319.9
838.1175	804.0993	19156	18248.25
838.2626	806.1641	19086.2	18188.15
838.4076	808.2282	19023.8	18128.65
838.5527	810.2916	18983.3	18084.25
838.6978	812.3544	18965	18071.05
838.8428	814.4164	18873.75	17980.7
838.9879	816.4778	18895.15	17996.35
839.133	818.5385	18853.4	17956.95
839.2781	820.5986	18875.3	17979.05
839.4232	822.658	18872.7	17973.2
839.5682	824.7166	18840.85	17942.85
839.7133	826.7747	18924.65	18028.25
839.8584	828.832	18976.4	18077.6
840.0035	830.8886	18989.7	18090.35
840.1486	832.9446	19004.1	18103.85
840.2937	834.9999	18912	18016.6
840.4388	837.0545	18844.85	17944.25
840.5839	839.1085	18791.2	17891.45
840.729	841.1618	18679.1	17777.8
840.8741	843.2143	18606.35	17706.7
841.0192	845.2662	18504.6	17606.85
841.1643	847.3175	18466.2	17571.25
841.3095	849.368	18367.65	17472.15
841.4546	851.4179	18334.45	17437.45
841.5997	853.467	18239.55	17339.15
841.7448	855.5155	18227.3	17327.6
841.8899	857.5633	18150.9	17251.7
842.0351	859.6105	18064.65	17165.2
842.1802	861.6569	18032	17134.25
842.3253	863.7027	18017.6	17114.35
842.4704	865.7478	17964.65	17063.35
842.6156	867.7922	17914.3	17011.7
842.7607	869.8359	17864.1	16962.35
842.9058	871.8789	17881	16979.65
843.0509	873.9212	17887.8	16957.7
843.1961	875.9629	17783.5	16881.5
843.3412	878.0039	17788.1	16884.75
843.4863	880.0441	17801.35	16899.1
843.6315	882.0837	17767.05	16866.8
843.7766	884.1226	17740.05	16839.95
843.9218	886.1609	17741.1	16841
844.0669	888.1984	17727.8	16829.75
844.212	890.2352	17759.75	16858.9
844.3572	892.2714	17722.8	16819.5
844.5023	894.3069	17669.5	16766.35
844.6475	896.3416	17583.65	16682.4
844.7926	898.3757	17548.4	16644.7
844.9377	900.4091	17501.85	16599.15
845.0829	902.4418	17460.15	16553.4
845.228	904.4739	17359.05	16456.4
845.3732	906.5052	17348.15	16443.35
845.5183	908.5358	17305.1	16402.9
845.6635	910.5658	17242.1	16334.75
845.8086	912.595	17184.6	16280.55
845.9538	914.6236	17105.1	16201.25
846.0989	916.6515	17038.7	16135.1
846.2441	918.6786	16992.85	16088.25
846.3892	920.7051	16920.45	16015.4
846.5344	922.7309	16915.65	16013.25
846.6795	924.756	16843.9	15939.4
846.8246	926.7804	16855.9	15947
846.9698	928.8041	16714.9	15809.4
847.1149	930.8272	16752.25	15847.75
847.2601	932.8495	16657	15752.35
847.4052	934.8711	16632.3	15723.25
847.5504	936.892	16557.2	15652.9
847.6955	938.9123	16501.7	15596.35
847.8407	940.9318	16464.55	15558.4
847.9858	942.9506	16397.9	15492.35
848.131	944.9688	16364.05	15459.35
848.2761	946.9862	16303.8	15396.55
848.4213	949.003	16190.85	15286.2
848.5664	951.019	16127.2	15221.25
848.7115	953.0344	16102.15	15198.15
848.8567	955.0491	16026.05	15120.4
849.0018	957.063	16037.95	15131.85
849.147	959.0763	16062.1	15150.2
849.2921	961.0888	15967.65	15059.35
849.4373	963.1007	15970.7	15066.45
849.5824	965.1119	15931.95	15030.65
849.7275	967.1223	15923.7	15023.45
849.8727	969.1321	15854.9	14952
850.0178	971.1412	15832.65	14930.45
850.1629	973.1495	15765.95	14861.05
850.3081	975.1572	15727.95	14803.2
850.4532	977.1641	15689.85	14782.1
850.5983	979.1704	15647	14740
850.7435	981.1759	15564.6	14653.9
850.8886	983.1808	15591.3	14683.5
851.0337	985.1849	15544.2	14623.5
851.1788	987.1884	15477.75	14568.55
851.324	989.1911	15471.75	14565
851.4691	991.1932	15451.5	14544.45
851.6142	993.1945	15355.7	14446.8
851.7593	995.1951	15291.7	14385.1
851.9045	997.1951	15265.45	14350.55
852.0496	999.1943	15199.7	14294.75
852.1947	1001.1928	15142.4	14233
852.3398	1003.1906	15043.25	14135.95
852.4849	1005.1877	15059.8	14152.4
852.63	1007.1841	15024.05	14116.55
852.7751	1009.1798	14968.95	14062.85
852.9202	1011.1748	14869.45	13965.05
853.0653	1013.1691	14814.3	13908.5
853.2104	1015.1627	14713.15	13805.55
853.3555	1017.1556	14604.25	13698.2
853.5006	1019.1477	14524.5	13619.45
853.6457	1021.1392	14457.1	13554.35
853.7908	1023.1299	14376	13473.55
853.9359	1025.12	14316.5	13417.85
854.081	1027.1093	14240.2	13346.6
854.2261	1029.0979	14243.95	13350.6
854.3712	1031.0859	14180.5	13283.55
854.5163	1033.0731	14172.45	13270.3
854.6613	1035.0596	14094.7	13191.8
854.8064	1037.0454	14000.45	13094.65
854.9515	1039.0304	13959.55	13050.95
855.0965	1041.0148	13876.6	12969.3
855.2416	1042.9985	13815.4	12907.2
855.3867	1044.9814	13792.55	12889.4
855.5317	1046.9636	13702.2	12793.4
855.6768	1048.9452	13648.25	12744.5
855.8219	1050.926	13635.4	12733
855.9669	1052.9061	13591.95	12687.1
856.112	1054.8855	13569.55	12664.45
856.257	1056.8642	13553.05	12648.7
856.4021	1058.8421	13523.25	12612.05
856.5471	1060.8194	13483.3	12576.25
856.6921	1062.7959	13444.15	12539.35
856.8372	1064.7717	13419.35	12511.8
856.9822	1066.7469	13397.45	12490.4
857.1272	1068.7213	13393.65	12482.5
857.2723	1070.695	13354.55	12449
857.4173	1072.6679	13315.25	12409.1
857.5623	1074.6402	13291.55	12385.55
857.7073	1076.6117	13291.4	12377.5
857.8523	1078.5826	13231.5	12322.55
857.9973	1080.5527	13134.5	12224.9
858.1423	1082.5221	13085.45	12175.4
858.2873	1084.4908	13016.8	12109.8
858.4323	1086.4587	12995.4	12084.55
858.5773	1088.426	12971.85	12063.6
858.7223	1090.3925	12898.6	11987.8
858.8673	1092.3584	12908.15	11999.65
859.0123	1094.3235	12842.1	11936.35
859.1573	1096.2879	12836.55	11930
859.3022	1098.2515	12804.3	11896.4
859.4472	1100.2145	12804.95	11899.35
859.5922	1102.1767	12802.5	11892.65
859.7371	1104.1382	12810.75	11903.15
859.8821	1106.099	12836.85	11927.05
860.027	1108.0591	12825.35	11917.65
860.172	1110.0185	12807.35	11898.85
860.3169	1111.9771	12831.65	11924.75
860.4619	1113.9351	12756	11849.15
860.6068	1115.8923	12711.8	11801.4
860.7517	1117.8488	12629.15	11721.5
860.8967	1119.8045	12540.45	11632.9
861.0416	1121.7596	12513.05	11604.6
861.1865	1123.7139	12398.7	11493.6
861.3314	1125.6675	12356.75	11452.2
861.4763	1127.6204	12368.4	11462.8
861.6212	1129.5726	12310.65	11400.8
861.7661	1131.524	12282.8	11375.35
861.911	1133.4748	12253.15	11347.3
862.0559	1135.4248	12153.25	11243.15
862.2008	1137.3741	12097.75	11190.15
862.3457	1139.3226	12031.05	11121.5
862.4905	1141.2705	12004.5	11098.15
862.6354	1143.2176	11936.65	11020.4
862.7803	1145.164	11906.8	10996.9
862.9251	1147.1097	11852.25	10943.75
863.07	1149.0546	11839.75	10930.6
863.2148	1150.9989	11787.15	10879.35
863.3597	1152.9424	11753.2	10843.2
863.5045	1154.8852	11679.3	10769.6
863.6493	1156.8272	11659.85	10750.55
863.7942	1158.7686	11651.25	10738
863.939	1160.7092	11636.35	10729.4
864.0838	1162.6491	11568.65	10659.4
864.2286	1164.5883	11578.8	10671.9
864.3734	1166.5267	11530.35	10621.6
864.5182	1168.4644	11585.1	10676
864.663	1170.4014	11591.05	10678.8
864.8078	1172.3377	11597.4	10692.7
864.9526	1174.2732	11642.2	10738.3
865.0974	1176.2081	11702.55	10795.95
865.2421	1178.1421	11747.5	10837.75
865.3869	1180.0755	11829.1	10923.7
865.5317	1182.0082	11858.7	10953.6
865.6764	1183.9401	11890.15	10985.1
865.8212	1185.8713	11828.35	10923.4
865.9659	1187.8017	11715.55	10814.45
866.1106	1189.7315	11609.3	10710.85
866.2554	1191.6605	11432.15	10534.85
866.4001	1193.5888	11356.65	10455.3
866.5448	1195.5163	11299.2	10397.2
866.6895	1197.4432	11235.7	10328.3
866.8342	1199.3693	11179.15	10274.85
866.9789	1201.2947	11101.7	10190.7
867.1236	1203.2193	11076.85	10169.9
867.2683	1205.1432	11048.2	10140.55
867.413	1207.0664	11015.2	10111.6
867.5576	1208.9889	10958.7	10047.75
867.7023	1210.9106	10942	10035.7
867.847	1212.8316	10874.75	9971.4
867.9916	1214.7519	10876.35	9960.55
868.1363	1216.6715	10820.8	9916.25
868.2809	1218.5903	10845.3	9939.05
868.4255	1220.5084	10814.4	9908.65
868.5701	1222.4257	10799.85	9893.6
868.7148	1224.3424	10768.15	9860.15
868.8594	1226.2583	10793.05	9885.3
869.004	1228.1735	10777.25	9871.9
869.1486	1230.0879	10756.55	9850.05
869.2932	1232.0016	10775.3	9869.3
869.4377	1233.9146	10773.05	9863.85
869.5823	1235.8269	10750.7	9845.25
869.7269	1237.7384	10748.4	9843.65
869.8715	1239.6492	10663.5	9758.1
870.016	1241.5592	10671.2	9764.35
870.1606	1243.4686	10636.25	9731
870.3051	1245.3772	10665.8	9757.9
870.4496	1247.285	10661.6	9755.3
870.5941	1249.1922	10698.85	9793.75
870.7387	1251.0986	10701.45	9795.9
870.8832	1253.0042	10710.4	9804.8
871.0277	1254.9092	10722.25	9817.55
871.1722	1256.8134	10719.45	9815.85
871.3167	1258.7169	10757.85	9851.9
871.4611	1260.6196	10731.3	9826
871.6056	1262.5216	10786.95	9881.9
871.7501	1264.4229	10761.3	9860.3
871.8945	1266.3234	10801.75	9897.8
872.039	1268.2232	10773.2	9864.9
872.1834	1270.1223	10756.2	9848.45
872.3278	1272.0207	10747.3	9842.15
872.4723	1273.9183	10704.4	9794
872.6167	1275.8151	10655.65	9747.85
872.7611	1277.7113	10632.75	9726.65
872.9055	1279.6067	10645	9739.55
873.0499	1281.5014	10711.35	9804.95
873.1943	1283.3953	10763.85	9854.65
873.3386	1285.2885	10890.85	9984.85
873.483	1287.181	10999.75	10093.3
873.6274	1289.0727	11106.2	10203.85
873.7717	1290.9637	11151.95	10247.3
873.9161	1292.854	11202.35	10297.7
874.0604	1294.7435	11150.4	10247.55
874.2047	1296.6323	11111.75	10207.6
874.349	1298.5204	11040.4	10129.8
874.4933	1300.4077	10900.2	9990.95
874.6376	1302.2943	10849.5	9945.2
874.7819	1304.1802	10758.65	9852.85
874.9262	1306.0653	10650.15	9745.05
875.0705	1307.9497	10541.4	9634.2
875.2147	1309.8333	10408.55	9504.3
875.359	1311.7162	10348.55	9444.3
875.5032	1313.5984	10277.4	9369.25
875.6475	1315.4798	10205	9286.4
875.7917	1317.3605	10176.35	9263.2
875.9359	1319.2405	10145.9	9235.45
876.0801	1321.1197	10089.65	9183.25
876.2243	1322.9982	9990.2	9080.75
876.3685	1324.876	9931.5	9025.15
876.5127	1326.753	9837.25	8931.2
876.6569	1328.6293	9782.8	8875.3
876.801	1330.5048	9708.35	8801.45
876.9452	1332.3796	9643.1	8737.65
877.0893	1334.2537	9613.3	8684.7
877.2335	1336.127	9548.25	8640
877.3776	1337.9996	9515.45	8607.8
877.5217	1339.8714	9504.95	8598.95
877.6658	1341.7426	9481.55	8529.65
877.8099	1343.6129	9449.9	8542.65
877.954	1345.4826	9388.8	8481.2
878.0981	1347.3515	9394.95	8486.75
878.2422	1349.2196	9355.45	8448.65
878.3862	1351.087	9380.2	8473.25
878.5303	1352.9537	9355.55	8446.3
878.6743	1354.8197	9338.7	8431.8
878.8184	1356.6849	9370.85	8464.85
878.9624	1358.5493	9395.25	8489.45
879.1064	1360.4131	9389.5	8484.4
879.2504	1362.276	9401.55	8497.35
879.3944	1364.1383	9394.15	8486.85
879.5384	1365.9998	9366.85	8455
879.6823	1367.8606	9275.1	8368.15
879.8263	1369.7206	9203.75	8296.4
879.9702	1371.5799	9148.15	8239.45
880.1142	1373.4384	9072.55	8166.1
880.2581	1375.2962	9036.65	8129.35
880.402	1377.1533	8937.6	8034.85
880.5459	1379.0096	8809.2	7903.4
880.6898	1380.8652	8734.45	7830.75
880.8337	1382.7201	8677.15	7773.6
880.9776	1384.5742	8598.95	7695.75
881.1215	1386.4275	8522.35	7617.75
881.2653	1388.2802	8485.2	7579.05
881.4092	1390.132	8435.7	7527.6
881.553	1391.9832	8408.4	7499.75
881.6968	1393.8336	8343.2	7435.5
881.8406	1395.6832	8297.95	7391.95
881.9844	1397.5322	8283.05	7378.3
882.1282	1399.3803	8250.6	7341.6
882.272	1401.2278	8199.25	7294.6
882.4158	1403.0745	8217.8	7313.1
882.5595	1404.9204	8149.65	7244.25
882.7033	1406.7656	8124.05	7219.75
882.847	1408.6101	8090.3	7184.1
882.9908	1410.4538	8067.3	7161.1
883.1345	1412.2968	8062.1	7157.2
883.2782	1414.139	8022.9	7117.6
883.4219	1415.9805	8036.65	7131.05
883.5656	1417.8213	8027.15	7101.7
883.7092	1419.6613	7991.45	7087.35
883.8529	1421.5006	8022.5	7119.25
883.9965	1423.3391	8041.05	7135.35
884.1402	1425.1769	8068.8	7160.85
884.2838	1427.0139	8127.7	7220
884.4274	1428.8502	8223	7317.85
884.571	1430.6858	8281	7376.75
884.7146	1432.5206	8314.4	7411.2
884.8582	1434.3547	8350.15	7443.85
885.0018	1436.188	8353.55	7449.7
885.1453	1438.0206	8314.1	7409
885.2889	1439.8524	8240.85	7336.3
885.4324	1441.6835	8224.65	7319.35
885.5759	1443.5139	8209	7299.7
885.7194	1445.3435	8145.65	7240.8
885.8629	1447.1724	8129.7	7226.65
886.0064	1449.0005	8131.45	7227.45
886.1499	1450.8279	8085.85	7181.25
886.2933	1452.6545	8090.9	7186.7
886.4368	1454.4804	8086.95	7183.9
886.5802	1456.3056	8073.25	7164.25
886.7237	1458.13	8042.55	7140.85
886.8671	1459.9536	7993.4	7088.85
887.0105	1461.7766	7944.55	7041.15
887.1539	1463.5987	7867.65	6963.7
887.2972	1465.4202	7817.75	6911.75
887.4406	1467.2409	7712.75	6812.7
887.584	1469.0608	7658.05	6755.45
887.7273	1470.88	7616.1	6710.15
887.8706	1472.6984	7546.05	6643.5
888.0139	1474.5161	7494.05	6588.2
888.1572	1476.3331	7448.3	6543.55
888.3005	1478.1493	7403.75	6501.4
888.4438	1479.9648	7388.7	6487.1
888.5871	1481.7795	7361.6	6458.85
888.7303	1483.5935	7342.85	6440
888.8736	1485.4067	7309	6405.2
889.0168	1487.2192	7326.75	6422.85
889.16	1489.031	7284.25	6377
889.3032	1490.842	7262.1	6359.65
889.4464	1492.6522	7248.4	6345.4
889.5896	1494.4618	7245.5	6340.75
889.7327	1496.2705	7218.9	6318.6
889.8759	1498.0785	7175.45	6272.35
890.019	1499.8858	7160.65	6257.05
890.1622	1501.6924	7125.55	6222.45
890.3053	1503.4981	7121.1	6218.8
890.4484	1505.3032	7107.9	6202.95
890.5914	1507.1075	7078.3	6173.95
890.7345	1508.911	7056.95	6154.2
890.8776	1510.7138	7025.4	6122.1
891.0206	1512.5159	7012.55	6108.3
891.1637	1514.3172	6963.75	6060.05
891.3067	1516.1178	6944.85	6045.05
891.4497	1517.9176	6932.1	6025.3
891.5927	1519.7166	6909.3	6009.2
891.7357	1521.515	6875.75	5967.85
891.8786	1523.3126	6864.6	5962.2
892.0216	1525.1094	6838.4	5936.2
892.1645	1526.9055	6805.45	5903.75
892.3074	1528.7008	6790.35	5888.3
892.4503	1530.4954	6763.75	5862.35
892.5932	1532.2893	6761.85	5862.9
892.7361	1534.0824	6711.2	5805.75
892.879	1535.8747	6703.9	5802.85
893.0218	1537.6663	6664.75	5764
893.1647	1539.4572	6649.05	5748.4
893.3075	1541.2473	6641.95	5740.8
893.4503	1543.0367	6644.2	5746.25
893.5931	1544.8253	6602.75	5698.35
893.7359	1546.6132	6611.9	5707.5
893.8787	1548.4003	6583.25	5672.6
894.0214	1550.1867	6598.9	5689.15
894.1642	1551.9723	6575.7	5670.8
894.3069	1553.7572	6573.35	5675.15
894.4496	1555.5414	6573.75	5675.9
894.5923	1557.3247	6598.75	5701.7
894.735	1559.1074	6594.05	5697.25
894.8777	1560.8893	6614.8	5720.7
895.0204	1562.6705	6623.35	5726
895.163	1564.4509	6639.95	5742.4
895.3056	1566.2305	6644.8	5751
895.4482	1568.0094	6656.85	5761.9
895.5908	1569.7876	6635.55	5739.65
895.7334	1571.565	6619.8	5723.8
895.876	1573.3417	6629.55	5731.25
896.0186	1575.1176	6587.6	5692
896.1611	1576.8928	6594.25	5698.15
896.3036	1578.6672	6564	5673.55
896.4461	1580.4409	6549	5657.3
896.5886	1582.2138	6564	5665.75
896.7311	1583.986	6570.3	5673.05
896.8736	1585.7575	6569.9	5674.7
897.0161	1587.5282	6579	5687.5
897.1585	1589.2981	6600.85	5708.4
897.3009	1591.0673	6596.7	5704
897.4433	1592.8358	6595.2	5702.95
897.5857	1594.6035	6593.5	5694.7
897.7281	1596.3704	6602.5	5705.85
897.8705	1598.1366	6588.85	5694.45
898.0128	1599.9021	6593.05	5699.3
898.1551	1601.6668	6575.65	5679.5
898.2975	1603.4308	6547.7	5651.6
898.4398	1605.194	6580.9	5683.7
898.5821	1606.9564	6595.25	5704.05
898.7243	1608.7182	6615.25	5721.2
898.8666	1610.4791	6651.35	5759.75
899.0088	1612.2394	6710.6	5821.4
899.1511	1613.9988	6779.1	5888.3
899.2933	1615.7576	6837.75	5944.45
899.4355	1617.5156	6891.2	5990.45
899.5776	1619.2728	6909.5	6017.4
899.7198	1621.0293	6865.3	5970.95
899.862	1622.785	6794.5	5901.3
900.0041	1624.54	6685.6	5792.65
900.1462	1626.2942	6584.95	5691.45
900.2883	1628.0477	6462.35	5567.65
900.4304	1629.8005	6381.85	5483.2
900.5725	1631.5525	6284.55	5393.2
900.7145	1633.3037	6200.75	5311.2
900.8566	1635.0542	6140.1	5248.95
900.9986	1636.804	6080.65	5187.8
901.1406	1638.553	6095.5	5135.85
901.2826	1640.3013	5989.8	5098.25
901.4245	1642.0488	5970.2	5077.7
901.5665	1643.7955	5952.65	5063.85
901.7085	1645.5416	5937.3	5044.85
901.8504	1647.2868	5955.55	5065.25
901.9923	1649.0313	5926.05	5034.6
902.1342	1650.7751	5927.55	5032.55
902.2761	1652.5181	5933.6	5042.9
902.4179	1654.2604	5941.85	5051.4
902.5598	1656.0019	5935.05	5045.9
902.7016	1657.7427	5975.6	5085.7
902.8434	1659.4828	6008.2	5114.3
902.9852	1661.222	6052.15	5159.8
903.127	1662.9606	6057.75	5166.35
903.2687	1664.6984	6000.3	5108.85
903.4105	1666.4354	5941.5	5047.05
903.5522	1668.1717	5850.55	4959
903.6939	1669.9072	5738.35	4845.6
903.8356	1671.642	5653.95	4760.5
903.9773	1673.3761	5580.85	4691.1
904.119	1675.1094	5519.45	4627.1
904.2606	1676.8419	5443.4	4553.7
904.4022	1678.5737	5399.3	4507.05
904.5439	1680.3048	5361.55	4468.05
904.6855	1682.0351	5319.15	4426.65
904.827	1683.7646	5287.5	4393.95
904.9686	1685.4934	5266.45	4376.75
905.1101	1687.2215	5240.3	4349.55
905.2517	1688.9488	5205.7	4314.8
905.3932	1690.6754	5177.65	4288.1
905.5347	1692.4012	5171.5	4280.8
905.6761	1694.1263	5141.6	4251.8
905.8176	1695.8506	5124.1	4235
905.9591	1697.5742	5123.8	4234.8
906.1005	1699.297	5090.05	4202.9
906.2419	1701.0191	5059.55	4171.35
906.3833	1702.7404	5044.15	4155.4
906.5246	1704.461	5003.9	4112.2
906.666	1706.1808	4991.75	4100
906.8073	1707.8999	4984.7	4093.05
906.9487	1709.6182	4958	4067.9
907.09	1711.3358	4950.3	4062.85
907.2313	1713.0527	4925.5	4039.65
907.3725	1714.7688	4905.6	4012.8
907.5138	1716.4841	4890.35	3999.05
907.655	1718.1987	4881.5	3987.05
907.7962	1719.9126	4858.35	3972.25
907.9374	1721.6257	4829	3941.4
908.0786	1723.338	4851.8	3962.8
908.2198	1725.0496	4820.7	3931.4
908.3609	1726.7605	4835.65	3943.05
908.502	1728.4706	4806.5	3917.55
908.6431	1730.18	4779.95	3888.5
908.7842	1731.8886	4760.95	3873.45
908.9253	1733.5964	4750.95	3857.8
909.0664	1735.3036	4751.4	3862.15
909.2074	1737.0099	4727.65	3840.6
909.3484	1738.7156	4730.7	3843.4
909.4894	1740.4204	4718.25	3826.9
909.6304	1742.1246	4696.1	3806
909.7714	1743.8279	4686.7	3797.85
909.9123	1745.5306	4666.45	3778.1
910.0532	1747.2325	4658.25	3770.95
910.1941	1748.9336	4635.15	3748.5
910.335	1750.634	4626.95	3735.35
910.4759	1752.3336	4633.65	3744.5
910.6168	1754.0325	4620.7	3734.4
910.7576	1755.7307	4612.15	3726.35
910.8984	1757.4281	4597.85	3707.6
911.0392	1759.1247	4614.85	3716.8
911.18	1760.8206	4571.9	3678.9
911.3208	1762.5158	4589.45	3696.15
911.4615	1764.2102	4559.35	3671.75
911.6022	1765.9039	4547.45	3661.3
911.7429	1767.5968	4526.1	3637.5
911.8836	1769.289	4533.2	3647.05
912.0243	1770.9804	4520.3	3633.15
912.1649	1772.6711	4517.6	3627.75
912.3056	1774.361	4505.85	3613.9
912.4462	1776.0502	4487.55	3595.6
912.5868	1777.7386	4474.55	3582
912.7274	1779.4263	4478.6	3592.15
912.8679	1781.1132	4475.5	3588.45
913.0084	1782.7994	4459.3	3570.25
913.149	1784.4849	4437.9	3551
913.2895	1786.1696	4431.4	3537.2
913.4299	1787.8535	4421.45	3533.05
913.5704	1789.5367	4413.25	3527.4
913.7108	1791.2192	4408.85	3521.55
913.8513	1792.9009	4403.55	3487.4
913.9917	1794.5818	4386.55	3497.05
914.132	1796.2621	4372.2	3485.3
914.2724	1797.9415	4366.45	3478
914.4128	1799.6202	4361.75	3471.8
914.5531	1801.2982	4350	3460.15
914.6934	1802.9755	4352.6	3460.1
914.8337	1804.6519	4338.7	3448.7
914.9739	1806.3277	4306.45	3418.2
915.1142	1808.0027	4289.9	3402.3
915.2544	1809.6769	4281.6	3395
915.3946	1811.3504	4270.7	3382.8
915.5348	1813.0231	4273.5	3385.7
915.675	1814.6951	4269.65	3381.3
915.8151	1816.3664	4270.25	3379.85
915.9553	1818.0369	4258.9	3371.5
916.0954	1819.7067	4245.3	3357.85
916.2355	1821.3757	4246.5	3358
916.3755	1823.044	4232.95	3346
916.5156	1824.7115	4231.3	3342.9
916.6556	1826.3783	4206.3	3318.15
916.7956	1828.0443	4191	3303.65
916.9356	1829.7096	4183.55	3294.5
917.0756	1831.3741	4185.75	3293.6
917.2155	1833.0379	4175.6	3289.35
917.3555	1834.701	4159.25	3270.9
917.4954	1836.3633	4150.55	3263.5
917.6353	1838.0248	4146.6	3256.9
917.7751	1839.6856	4157.85	3270.8
917.915	1841.3457	4136.7	3249.65
918.0548	1843.005	4135.85	3248.35
918.1946	1844.6636	4134.25	3247.5
918.3344	1846.3214	4104.8	3217.65
918.4742	1847.9785	4097.75	3209
918.6139	1849.6349	4101.85	3211.4
918.7537	1851.2904	4100.75	3201.2
918.8934	1852.9453	4082.9	3196.3
919.0331	1854.5994	4076.6	3187
919.1727	1856.2528	4079.45	3188.45
919.3124	1857.9054	4042.55	3154.05
919.452	1859.5572	4047.45	3160.5
919.5916	1861.2083	4045.65	3157.35
919.7312	1862.8587	4043.9	3155.8
919.8708	1864.5084	4033.6	3145.5
920.0103	1866.1572	4028.6	3140.4
920.1498	1867.8054	4008.2	3120.1
920.2893	1869.4528	4016	3127.75
920.4288	1871.0994	4003.1	3115.4
920.5683	1872.7453	3988	3100.75
920.7077	1874.3905	3970.85	3075.55
920.8471	1876.0349	3960.15	3070.6
920.9865	1877.6786	3954.95	3066.75
921.1259	1879.3215	3942.55	3054.1
921.2653	1880.9637	3952.25	3064.05
921.4046	1882.6051	3949.05	3060.8
921.5439	1884.2458	3947.05	3055.55
921.6832	1885.8858	3930.6	3042
921.8225	1887.525	3909.05	3020.85
921.9617	1889.1634	3899.25	3009.35
922.101	1890.8011	3888.75	3001.15
922.2402	1892.4381	3884.15	2997.9
922.3794	1894.0743	3873.65	2987.95
922.5185	1895.7098	3871.45	2985.4
922.6577	1897.3446	3860.8	2972.95
922.7968	1898.9786	3847.95	2956.7
922.9359	1900.6118	3849.9	2964.45
923.075	1902.2443	3842.35	2952.2
923.214	1903.8761	3834	2947.25
923.3531	1905.5071	3805.2	2917.15
923.4921	1907.1374	3802.2	2913.65
923.6311	1908.7669	3805.3	2918.6
923.77	1910.3957	3799.35	2910.1
923.909	1912.0237	3776.3	2887.9
924.0479	1913.651	3764.05	2874.8
924.1868	1915.2776	3769.65	2884
924.3257	1916.9034	3752.2	2865.65
924.4646	1918.5285	3738.3	2851.75
924.6034	1920.1528	3716.65	2827.75
924.7422	1921.7764	3708.55	2821.6
924.881	1923.3992	3696.55	2809
925.0198	1925.0213	3695.45	2806.65
925.1586	1926.6427	3671.9	2784.7
925.2973	1928.2633	3731.55	2777.4
925.436	1929.8832	3668.65	2781.15
925.5747	1931.5023	3652.15	2763.7
925.7134	1933.1207	3656.75	2769.9
925.852	1934.7383	3639.7	2753.65
925.9906	1936.3552	3637.15	2750.05
926.1292	1937.9714	3623.7	2735.6
926.2678	1939.5868	3615.95	2728.15
926.4064	1941.2015	3585.35	2696.2
926.5449	1942.8154	3586.25	2695.65
926.6834	1944.4286	3588.45	2702.05
926.8219	1946.041	3577.25	2666.45
926.9604	1947.6528	3553.15	2659.1
927.0988	1949.2637	3534.5	2645.7
927.2372	1950.8739	3546.15	2658.5
927.3756	1952.4834	3539.2	2650.15
927.514	1954.0921	3525.25	2637.6
927.6523	1955.7001	3513.6	2622.05
927.7907	1957.3074	3509.75	2622.8
927.929	1958.9139	3490.45	2603.35
928.0673	1960.5197	3485.45	2598
928.2055	1962.1247	3474.75	2587.55
928.3438	1963.729	3473.3	2588.6
928.482	1965.3325	3472.45	2561.75
928.6202	1966.9353	3456.4	2571.1
928.7584	1968.5374	3427.6	2541.1
928.8965	1970.1387	3429.45	2543.7
929.0346	1971.7393	3415.7	2529.5
929.1727	1973.3392	3400.55	2513.95
929.3108	1974.9383	3400.6	2516.65
929.4489	1976.5366	3392.55	2507.3
929.5869	1978.1342	3390.5	2501.3
929.7249	1979.7311	3384.35	2493.95
929.8629	1981.3273	3371.9	2486.25
930.0009	1982.9227	3358.9	2472.6
930.1388	1984.5173	3344.3	2459.7
930.2767	1986.1112	3337.45	2453.85
930.4146	1987.7044	3334.7	2451.45
930.5525	1989.2968	3323.6	2437.8
930.6904	1990.8885	3324.3	2435.6
930.8282	1992.4795	3312.05	2422.85
930.966	1994.0697	3297.9	2412.6
931.1038	1995.6592	3296.8	2409.65
931.2415	1997.2479	3283.5	2399.7
931.3793	1998.8359	3288.7	2403.35
931.517	2000.4232	3263.95	2378.3
931.6547	2002.0097	3254.7	2372.3
931.7923	2003.5955	3266.05	2381.5
931.93	2005.1805	3247.45	2363.25
932.0676	2006.7648	3245.8	2361.5
932.2052	2008.3484	3235.25	2350.25
932.3427	2009.9312	3246.4	2362.5
932.4803	2011.5133	3228.95	2343.6
932.6178	2013.0946	3219.65	2334.45
932.7553	2014.6752	3209.35	2327.15
932.8928	2016.2551	3214.95	2328.1
933.0302	2017.8342	3199.45	2312.85
933.1676	2019.4126	3193.5	2309.4
933.305	2020.9902	3180	2295.25
933.4424	2022.5672	3172.6	2287.6
933.5798	2024.1433	3170.25	2280.7
933.7171	2025.7188	3159.55	2276.4
933.8544	2027.2935	3145	2260.8
933.9917	2028.8674	3132.8	2249.9
934.129	2030.4406	3143.95	2261.3
934.2662	2032.0131	3109.45	2226.8
934.4034	2033.5849	3121.75	2237.25
934.5406	2035.1559	3108.75	2224.35
934.6778	2036.7261	3112.85	2228.25
934.8149	2038.2957	3110.7	2225.4
934.952	2039.8645	3096.9	2211.4
935.0891	2041.4325	3108.6	2220.55
935.2262	2042.9998	3089.4	2202.7
935.3632	2044.5664	3071.05	2184.1
935.5002	2046.1323	3073.15	2188.45
935.6372	2047.6974	3070.15	2186.6
935.7742	2049.2617	3067.25	2185.15
935.9111	2050.8254	3060.55	2171.05
936.048	2052.3883	3050.95	2162.1
936.1849	2053.9504	3039.15	2153.1
936.3218	2055.5118	3046.5	2162.2
936.4586	2057.0725	3028	2137.85
936.5955	2058.6325	3022.5	2138.15
936.7323	2060.1917	3016.05	2131.25
936.869	2061.7502	3020.3	2134.65
937.0058	2063.3079	3009.4	2126.95
937.1425	2064.8649	3003.45	2115.85
937.2792	2066.4212	2993.8	2108.5
937.4159	2067.9767	2987.3	2101.35
937.5525	2069.5315	2967.45	2083
937.6891	2071.0856	2945.15	2059.1
937.8257	2072.6389	2944.4	2057.9
937.9623	2074.1915	2952.2	2070.9
938.0989	2075.7433	2937.3	2051.85
938.2354	2077.2945	2938.4	2056.5
938.3719	2078.8448	2931.65	2047.9
938.5084	2080.3945	2921.25	2037.9
938.6448	2081.9434	2914.95	2030.2
938.7812	2083.4916	2905.4	2020.25
938.9176	2085.039	2896.7	2009.3
939.054	2086.5857	2906.15	2017.15
939.1903	2088.1317	2895.7	2005.55
939.3267	2089.677	2898.3	2010.05
939.463	2091.2215	2885.15	1996.95
939.5992	2092.7652	2879.75	1990.7
939.7355	2094.3083	2876.9	1989.3
939.8717	2095.8506	2870.5	1984.7
940.0079	2097.3921	2868.65	1983.3
940.1441	2098.933	2862.5	1976.85
940.2802	2100.4731	2853.65	1970.4
940.4163	2102.0124	2863.9	1969.3
940.5524	2103.5511	2847.75	1962.1
940.6885	2105.089	2861.1	1975.1
940.8245	2106.6261	2838.9	1951.85
940.9606	2108.1626	2827.3	1943.05
941.0965	2109.6983	2853.4	1938.1
941.2325	2111.2332	2841.55	1954.85
941.3684	2112.7675	2823.85	1937.5
941.5044	2114.301	2812.75	1926.65
941.6403	2115.8337	2809.6	1922.15
941.7761	2117.3657	2809.2	1922.2
941.912	2118.897	2796.4	1909.15
942.0478	2120.4276	2797.1	1905.75
942.1835	2121.9575	2782.75	1893.95
942.3193	2123.4866	2783.7	1896.15
942.455	2125.0149	2780.95	1892.85
942.5907	2126.5426	2768.95	1884
942.7264	2128.0695	2754.15	1866.45
942.8621	2129.5956	2763.35	1879.9
942.9977	2131.1211	2749.9	1860.15
943.1333	2132.6458	2749.95	1864.9
943.2689	2134.1698	2734.55	1846.75
943.4044	2135.693	2735.55	1846.55
943.54	2137.2155	2730.15	1840.2
943.6755	2138.7373	2731.6	1845.75
943.8109	2140.2584	2732.35	1849.55
943.9464	2141.7787	2715	1825.7
944.0818	2143.2983	2706.05	1821.75
944.2172	2144.8171	2694.5	1810.3
944.3526	2146.3353	2696.35	1808.1
944.4879	2147.8527	2689.1	1804.6
944.6232	2149.3693	2697	1809.5
944.7585	2150.8853	2679.55	1791.6
944.8938	2152.4005	2671.9	1785
945.029	2153.9149	2669.05	1782.4
945.1642	2155.4287	2751.9	1756.8
945.2994	2156.9417	2673.8	1785.45
945.4346	2158.454	2655.85	1768.6
945.5697	2159.9655	2637.85	1754.4
945.7048	2161.4764	2638.85	1753.8
945.8399	2162.9865	2619.55	1734.5
945.9749	2164.4958	2627.9	1742.65
946.1099	2166.0045	2629.75	1740.35
946.2449	2167.5124	2624.4	1740.15
946.3799	2169.0195	2621.8	1734.55
946.5148	2170.526	2625.8	1738.35
946.6498	2172.0317	2608.3	1719.75
946.7846	2173.5367	2587.85	1702.3
946.9195	2175.0409	2599.3	1714.75
947.0543	2176.5445	2592.55	1704.6
947.1891	2178.0473	2588.7	1700.1
947.3239	2179.5494	2591.9	1702.45
947.4587	2181.0507	2572.05	1685.05
947.5934	2182.5513	2572.5	1685.65
947.7281	2184.0512	2561.7	1675
947.8628	2185.5504	2547.8	1661.55
947.9974	2187.0488	2555.45	1669.35
948.132	2188.5465	2553.9	1668.55
948.2666	2190.0435	2536.35	1650.75
948.4012	2191.5397	2535.8	1649.25
948.5357	2193.0353	2519.45	1632.4
948.6702	2194.5301	2522.6	1630.65
948.8047	2196.0241	2526.75	1635.95
948.9392	2197.5175	2523.6	1639.65
949.0736	2199.0101	2500.65	1607.45
949.208	2200.502	2491.9	1606.65
949.3424	2201.9931	2482.3	1597.3
949.4767	2203.4835	2477.85	1589.7
949.611	2204.9733	2489.15	1588.8
949.7453	2206.4622	2476.7	1589.85
949.8796	2207.9505	2469.05	1581.45
950.0138	2209.438	2454.3	1570.45
950.148	2210.9248	2456.75	1571
950.2822	2212.4109	2449.25	1562.25
950.4164	2213.8962	2440.5	1550.5
950.5505	2215.3809	2437.75	1549
950.6846	2216.8648	2436.45	1546.55
950.8186	2218.3479	2439.9	1547
950.9527	2219.8304	2427.6	1536.3
951.0867	2221.3121	2418.7	1528.55
951.2207	2222.7931	2410.95	1523.25
951.3546	2224.2733	2405.85	1519.25
951.4886	2225.7529	2403	1515.2
951.6225	2227.2317	2405.15	1515.55
951.7563	2228.7098	2403.4	1518.45
951.8902	2230.1872	2399.3	1514.4
952.024	2231.6638	2378.5	1494.4
952.1578	2233.1397	2375.3	1485.9
952.2916	2234.6149	2368.55	1484.15
952.4253	2236.0894	2357.45	1469.35
952.559	2237.5632	2364.05	1476.4
952.6927	2239.0362	2356.8	1471
952.8263	2240.5085	2361.25	1474.7
952.9599	2241.9801	2339.15	1450.75
953.0935	2243.4509	2346.9	1460.25
953.2271	2244.921	2338.05	1450.05
953.3606	2246.3904	2325.5	1435.25
953.4941	2247.8591	2332.2	1443.05
953.6276	2249.3271	2315.15	1429
953.7611	2250.7943	2314.95	1425
953.8945	2252.2608	2307.05	1420.4
954.0279	2253.7266	2303.15	1414.8
954.1612	2255.1917	2292.75	1406.2
954.2946	2256.656	2300.55	1415.5
954.4279	2258.1197	2297.05	1413.2
954.5612	2259.5826	2294.7	1405.4
954.6944	2261.0447	2296.25	1410.2
954.8276	2262.5062	2279.6	1389.6
954.9608	2263.9669	2283.45	1392.75
955.094	2265.4269	2272.65	1385.65
955.2271	2266.8862	2269.25	1381.35
955.3602	2268.3448	2267.15	1378.4
955.4933	2269.8026	2259.05	1373.7
955.6264	2271.2598	2257	1371.8
955.7594	2272.7162	2248.9	1364.65
955.8924	2274.1719	2251.3	1364.85
956.0253	2275.6268	2247.15	1360.7
956.1583	2277.0811	2256.5	1368.6
956.2912	2278.5346	2241.75	1355
956.4241	2279.9874	2235	1348.1
956.5569	2281.4395	2229.95	1343.15
956.6897	2282.8908	2228	1338
956.8225	2284.3414	2224.5	1336.1
956.9553	2285.7914	2220.9	1334.75
957.088	2287.2406	2218.2	1328.85
957.2207	2288.689	2200.45	1311.85
957.3534	2290.1368	2209.6	1317.85
957.486	2291.5838	2198.15	1308.25
957.6186	2293.0302	2201.8	1311.4
957.7512	2294.4758	2198.35	1309.8
957.8838	2295.9206	2194.9	1306.2
958.0163	2297.3648	2179.15	1291.3
958.1488	2298.8082	2183	1295.1
958.2813	2300.251	2178.5	1289.15
958.4137	2301.693	2172.4	1283
958.5461	2303.1343	2173.1	1285
958.6785	2304.5748	2163.3	1275.55
958.8108	2306.0147	2162.65	1276.55
958.9432	2307.4538	2155.85	1266.15
959.0754	2308.8922	2137.8	1253.15
959.2077	2310.3299	2137.5	1251.85
959.3399	2311.7669	2145.05	1258.25
959.4721	2313.2031	2146.75	1260.05
959.6043	2314.6387	2128.15	1239.3
959.7365	2316.0735	2117.15	1230.4
959.8686	2317.5076	2117.3	1230.55
960.0006	2318.941	2118.4	1231.75
960.1327	2320.3737	2120.5	1232.95
960.2647	2321.8056	2113.65	1223.15
960.3967	2323.2369	2110.1	1221.55
960.5287	2324.6674	2108.25	1219.3
960.6606	2326.0972	2105.15	1217.3
960.7925	2327.5263	2097.2	1208.85
960.9244	2328.9547	2090.85	1201.85
961.0562	2330.3823	2091.45	1203
961.1881	2331.8092	2086.75	1195.25
961.3198	2333.2355	2082	1193
961.4516	2334.661	2080.5	1191.8
961.5833	2336.0858	2074.65	1184.05
961.715	2337.5098	2064.9	1178.05
961.8467	2338.9332	2060.3	1171.6
961.9783	2340.3558	2060.85	1169.55
962.1099	2341.7778	2055.3	1166.9
962.2415	2343.199	2037.9	1150
962.373	2344.6195	2050.05	1162.75
962.5045	2346.0393	2041.55	1157.25
962.636	2347.4583	2043.4	1156.1
962.7675	2348.8767	2036.3	1147.6
962.8989	2350.2943	2036.85	1147.75
963.0303	2351.7113	2032.9	1141.7
963.1617	2353.1275	2029.2	1138.9
963.293	2354.543	2045.2	1131.2
963.4243	2355.9578	2020.5	1133.35
963.5556	2357.3718	2008.1	1121.05
963.6868	2358.7852	2001.9	1113.35
963.818	2360.1978	1997.85	1109.9
963.9492	2361.6098	1995	1106.55
964.0803	2363.021	1988.75	1098.7
964.2114	2364.4315	1982.7	1097.05
964.3425	2365.8413	1996.75	1103.6
964.4736	2367.2504	1979.3	1094.25
964.6046	2368.6587	1975.25	1088.65
964.7356	2370.0664	1958.25	1071.85
964.8666	2371.4733	1966	1077
964.9975	2372.8795	1966.2	1078.5
965.1284	2374.285	1956.2	1066.25
965.2593	2375.6899	1937.95	1051.1
965.3901	2377.0939	1944.85	1060.4
965.5209	2378.4973	1947.25	1060.4
965.6517	2379.9	1943.5	1056.35
965.7825	2381.3019	1920.25	1033.85
965.9132	2382.7032	1919.8	1035.2
966.0439	2384.1037	1927.25	1040.5
966.1745	2385.5035	1922.75	1037.35
966.3051	2386.9027	1920.85	1034.95
966.4357	2388.3011	1919.2	1029.7
966.5663	2389.6987	1900.65	1014.2
966.6968	2391.0957	1899.15	1013.5
966.8273	2392.492	1895.55	1006.25
966.9578	2393.8876	1889	1000.15
967.0882	2395.2824	1891.1	1003.75
967.2186	2396.6765	1884.75	998.7
967.349	2398.07	1885.1	998.9
967.4793	2399.4627	1887.55	999.2
967.6097	2400.8547	1875.75	989.5
967.7399	2402.246	1881.35	987.15
967.8702	2403.6366	1860.5	972.25
968.0004	2405.0265	1859.45	970.95
968.1306	2406.4156	1860.15	968.8
968.2607	2407.8041	1858.45	967.25
968.3909	2409.1918	1851.6	964
968.521	2410.5789	1844.55	956.25
968.651	2411.9652	1853.4	964.35
968.781	2413.3508	1840.75	953
968.911	2414.7358	1826.2	937.35
969.041	2416.12	1830.5	945.55
969.1709	2417.5035	1832	944
969.3008	2418.8863	1825.95	937.25
969.4307	2420.2684	1824.6	937.7
969.5606	2421.6497	1820.35	933.55
969.6904	2423.0304	1816.9	930.25
969.8201	2424.4104	1801.9	912.1
969.9499	2425.7896	1813.45	923.05
970.0796	2427.1682	1810.45	923.8
970.2093	2428.546	1805.15	917.85
970.3389	2429.9232	1807.85	919.3
970.4685	2431.2996	1794.1	906.05
970.5981	2432.6753	1793.1	905.65
970.7277	2434.0503	1790.3	903.45
970.8572	2435.4246	1790	903.4
970.9867	2436.7982	1779.6	891.2
971.1161	2438.1711	1781.5	895.05
971.2456	2439.5433	1779.85	891.95
971.375	2440.9148	1786.55	892.55
971.5043	2442.2856	1772.5	885.95
971.6336	2443.6557	1768.9	881.9
971.7629	2445.025	1765.2	876.8
971.8922	2446.3937	1764.85	876.65
972.0214	2447.7617	1753.3	865.7
972.1506	2449.1289	1758.95	872.3
972.2798	2450.4955	1756.15	866.75
972.4089	2451.8613	1746.05	859.75
972.538	2453.2265	1745.25	859.1
972.6671	2454.5909	1746.05	857.85
972.7961	2455.9546	1744.4	855.6
972.9251	2457.3177	1733.45	848.5
973.0541	2458.68	1731.1	842
973.1831	2460.0416	1736.85	848.75
973.312	2461.4025	1736.65	848.1
973.4408	2462.7627	1744.4	845.05
973.5697	2464.1222	1727.3	841.65
973.6985	2465.4811	1724.8	838.45
973.8273	2466.8392	1720.9	834.25
973.956	2468.1966	1721.1	832.15
974.0847	2469.5533	1724.8	834.85
974.2134	2470.9093	1715.7	826
974.3421	2472.2645	1707.2	819.5
974.4707	2473.6191	1710.35	823.9
974.5993	2474.973	1700.4	812.55
974.7278	2476.3262	1695.45	805.85
974.8563	2477.6787	1702.35	815.45
974.9848	2479.0305	1696.2	810.75
975.1132	2480.3816	1691.35	801.3
975.2417	2481.7319	1684.15	796.45
975.37	2483.0816	1687.75	796.8
975.4984	2484.4306	1681.5	792.45
975.6267	2485.7789	1684	799.5
975.755	2487.1264	1679.4	791.85
975.8833	2488.4733	1676.6	792.45
976.0115	2489.8195	1683.05	778
976.1397	2491.165	1667.9	779.45
976.2678	2492.5097	1667.75	779.35
976.3959	2493.8538	1663.45	778.4
976.524	2495.1972	1652.15	764.35
976.6521	2496.5398	1654.9	766.45
976.7801	2497.8818	1654	763.7
976.9081	2499.2231	1649.45	760.95
977.036	2500.5637	1648.15	757.05
977.164	2501.9035	1642.45	754.35
977.2918	2503.2427	1641.65	749.15
977.4197	2504.5812	1641.3	751.6
977.5475	2505.919	1638.6	748.6
977.6753	2507.256	1633.7	746.4
977.8031	2508.5924	1627.1	741.85
977.9308	2509.9281	1630.05	738.4
978.0585	2511.2631	1630.75	743.45
978.1861	2512.5974	1624.05	738.2
978.3137	2513.9309	1620.1	731.65
978.4413	2515.2638	1641.25	727.35
978.5689	2516.596	1621.3	735.8
978.6964	2517.9275	1617.4	730.45
978.8239	2519.2583	1613.95	727.1
978.9513	2520.5884	1607.75	719.15
979.0788	2521.9178	1599.05	713.45
979.2062	2523.2465	1599.4	713.6
979.3335	2524.5745	1592.95	706.25
979.4608	2525.9018	1601.15	714.35
979.5881	2527.2284	1591.9	704.45
979.7154	2528.5543	1583.35	697.65
979.8426	2529.8796	1589.5	701.25
979.9698	2531.2041	1587.95	698.55
980.0969	2532.5279	1580.5	694.55
980.224	2533.851	1583.4	697.15
980.3511	2535.1735	1576.6	688.9
980.4781	2536.4952	1576	688.95
980.6052	2537.8163	1574.45	688.6
980.7321	2539.1366	1572.6	687.35
980.8591	2540.4562	1576.7	688.45
980.986	2541.7752	1572.2	682.9
981.1129	2543.0935	1571.6	683.25
981.2397	2544.411	1578.15	688.5
981.3665	2545.7279	1566.45	679.05
981.4933	2547.0441	1570.35	684.15
981.62	2548.3596	1568.45	676.2
981.7467	2549.6744	1561.55	674.25
981.8734	2550.9885	1562.2	671.7
982.0001	2552.3019	1554.95	667.35
982.1267	2553.6146	1555.85	668.1
982.2532	2554.9266	1553.3	665
982.3798	2556.2379	1556.2	669.3
982.5063	2557.5485	1548.9	663.6
982.6327	2558.8585	1550.15	656.35
982.7592	2560.1677	1555.8	662
982.8856	2561.4762	1539.5	649.7
983.0119	2562.7841	1546.8	655.75
983.1383	2564.0913	1541.4	654.55
983.2646	2565.3977	1545.25	658.85
983.3908	2566.7035	1526.35	638.1
983.517	2568.0086	1539.45	648.2
983.6432	2569.313	1536.35	647.5
983.7694	2570.6167	1538.35	645.8
983.8955	2571.9197	1525.25	640.05
984.0216	2573.222	1536.2	648.5
984.1476	2574.5236	1521.35	633.95
984.2737	2575.8246	1524.4	633.95
984.3996	2577.1248	1517.55	627.05
984.5256	2578.4244	1521.8	636.55
984.6515	2579.7232	1515.8	629.3
984.7774	2581.0214	1555.85	638.55
984.9032	2582.3189	1516.75	630.2
985.029	2583.6157	1519.4	627.25
985.1548	2584.9118	1517.75	631.55
985.2806	2586.2072	1516.15	629.7
985.4063	2587.5019	1515.1	628.15
985.5319	2588.7959	1510.65	621.25
985.6576	2590.0893	1510.85	622.4
985.7832	2591.3819	1505.35	618.2
985.9087	2592.6739	1497	609.7
986.0343	2593.9652	1499.1	609.6
986.1597	2595.2557	1501.3	615.3
986.2852	2596.5456	1497.05	606.6
986.4106	2597.8348	1491.3	606.55
986.536	2599.1234	1494.4	608.75
986.6614	2600.4112	1484.25	597.25
986.7867	2601.6983	1491.65	599.95
986.912	2602.9848	1480.15	591.7
987.0372	2604.2705	1486.65	591
987.1624	2605.5556	1474.8	586.85
987.2876	2606.84	1484.35	600.35
987.4128	2608.1237	1484.65	597.75
987.5379	2609.4067	1477	591.35
987.6629	2610.689	1479.1	584.75
987.788	2611.9707	1470.95	580.6
987.913	2613.2516	1471.1	578.6
988.0379	2614.5319	1459.05	572.65
988.1629	2615.8115	1454.55	568.25
988.2878	2617.0903	1456.7	565.85
988.4126	2618.3685	1457.05	570.65
988.5375	2619.6461	1443.85	556.4
988.6622	2620.9229	1452.6	564.9
988.787	2622.199	1455.4	568.05
988.9117	2623.4745	1448.95	562.25
989.0364	2624.7493	1451.4	565.35
989.161	2626.0234	1440.9	556.4
989.2857	2627.2968	1441.45	554.85
989.4102	2628.5695	1442.9	555.05
989.5348	2629.8415	1439	554
989.6593	2631.1128	1429.45	542.35
989.7837	2632.3835	1431.7	544
989.9082	2633.6535	1419.7	531.95
990.0326	2634.9228	1427.2	542.95
990.1569	2636.1914	1417.3	531.05
990.2812	2637.4593	1424.65	537.5
990.4055	2638.7265	1422.85	533.95
990.5298	2639.9931	1421.7	534.85
990.654	2641.259	1420.3	534.25
990.7782	2642.5242	1407.8	521.7
990.9023	2643.7887	1406.75	521.3
991.0264	2645.0525	1404.75	517
991.1505	2646.3156	1427.6	524.75
991.2745	2647.5781	1403.95	517.7
991.3985	2648.8398	1408.6	521.7
991.5225	2650.1009	1423.65	512.2
991.6464	2651.3613	1406.2	519.1
991.7703	2652.6211	1400.1	513.15
991.8942	2653.8801	1400.35	515.3
992.018	2655.1385	1396.35	506
992.1418	2656.3961	1395.2	508.45
992.2655	2657.6531	1398.45	512.4
992.3892	2658.9094	1395	509.4
992.5129	2660.1651	1387.8	503.1
992.6366	2661.42	1391.85	504.75
992.7602	2662.6743	1389.45	502.95
992.8837	2663.9279	1388.5	502.4
993.0073	2665.1808	1388.1	500.1
993.1307	2666.433	1390	502.75
993.2542	2667.6846	1385.15	497.35
993.3776	2668.9354	1390.4	499.5
993.501	2670.1856	1381.65	496.1
993.6244	2671.4351	1380.75	494.6
993.7477	2672.6839	1379.4	493.3
993.8709	2673.9321	1372.45	487.95
993.9942	2675.1795	1380.8	493.05
994.1174	2676.4263	1370.35	483.25
994.2405	2677.6724	1370.4	485.6
994.3637	2678.9179	1373.35	486.25
994.4868	2680.1626	1369.95	483.8
994.6098	2681.4067	1364.25	476.7
994.7328	2682.6501	1373.15	487
994.8558	2683.8928	1370.1	484.2
994.9788	2685.1348	1357.05	471.65
995.1017	2686.3761	1369.55	482.95
995.2245	2687.6168	1354.7	467.9
995.3474	2688.8568	1360.05	473.65
995.4702	2690.0961	1355.4	470.55
995.5929	2691.3348	1356	469.6
995.7156	2692.5727	1352.85	465.5
995.8383	2693.81	1347.55	461
995.961	2695.0466	1347.65	462.1
996.0836	2696.2826	1348	458.95
996.2062	2697.5178	1352.2	464.55
996.3287	2698.7524	1339.15	451.95
996.4512	2699.9863	1341.15	452.4
996.5737	2701.2195	1335.25	451.45
996.6961	2702.452	1342.8	454.1
996.8185	2703.6839	1339.5	453.25
996.9408	2704.9151	1336.95	452.05
997.0631	2706.1456	1337.15	450
997.1854	2707.3755	1337.05	450.2
997.3077	2708.6046	1342.85	454.85
997.4299	2709.8331	1337.4	449.45
997.552	2711.0609	1331.25	445.7
997.6742	2712.2881	1332.3	447.65
997.7963	2713.5145	1331.6	445.65
997.9183	2714.7403	1341.4	455.35
998.0403	2715.9654	1335.4	449.15
998.1623	2717.1899	1346.25	445.75
998.2842	2718.4136	1336.4	449.55
998.4062	2719.6367	1331.65	447.35
998.528	2720.8591	1342.75	449.65
998.6498	2722.0809	1336.75	450.15
998.7716	2723.3019	1338.6	448.7
998.8934	2724.5223	1340.65	453.8
999.0151	2725.7421	1334.65	449.35
999.1368	2726.9611	1336.8	450.1
999.2584	2728.1795	1340.2	449.5
999.38	2729.3972	1329.5	443.65
999.5016	2730.6142	1332.25	440.4
999.6231	2731.8306	1326	438.75
999.7446	2733.0462	1321	433.3
999.8661	2734.2612	1316.85	425.2
999.9875	2735.4756	1311.75	422.8
1000.1089	2736.6892	1304.8	417.75
1000.2302	2737.9022	1299.75	415.25
1000.3515	2739.1145	1298.9	412
1000.4728	2740.3262	1304.4	410.7
1000.594	2741.5372	1293.05	408.45
1000.7152	2742.7475	1292.2	408.05
1000.8363	2743.9571	1294.15	407.8
1000.9575	2745.1661	1292.95	401.45
1001.0785	2746.3744	1283.6	397.35
1001.1996	2747.582	1282.55	399.1
1001.3206	2748.7889	1277.15	390.05
1001.4415	2749.9952	1276.25	390.9
1001.5625	2751.2008	1277.85	390.55
1001.6833	2752.4057	1274.1	385.2
1001.8042	2753.61	1263.45	373.5
1001.925	2754.8136	1274	385.95
1002.0458	2756.0165	1265.5	379.45
1002.1665	2757.2188	1261.35	375.95
1002.2872	2758.4204	1260	374.15
1002.4078	2759.6213	1261.2	375.15
1002.5285	2760.8215	1262.7	373.6
1002.649	2762.0211	1259.4	371.95
1002.7696	2763.22	1260.85	371.95
1002.8901	2764.4182	1262.85	375.1
1003.0106	2765.6158	1256.55	370.15
1003.131	2766.8127	1253	368.5
1003.2514	2768.009	1250.25	365.45
1003.3717	2769.2045	1248.05	360.1
1003.492	2770.3994	1251.55	363.75
1003.6123	2771.5936	1245.6	360.4
1003.7325	2772.7872	1245.9	361.15
1003.8527	2773.9801	1240.7	353.2
1003.9729	2775.1723	1260	357.95
1004.093	2776.3639	1237.75	351.95
1004.2131	2777.5548	1239.8	352.2
1004.3331	2778.745	1245.15	358.2
1004.4531	2779.9346	1237.7	351.65
1004.5731	2781.1235	1240.35	354.05
1004.693	2782.3117	1236.95	350.95
1004.8129	2783.4992	1233.55	348.65
1004.9328	2784.6861	1238.4	352.55
1005.0526	2785.8723	1239.5	351.95
1005.1723	2787.0579	1237.25	351
1005.2921	2788.2428	1228.1	343
1005.4118	2789.427	1231.05	348.3
1005.5314	2790.6106	1232.8	347.9
1005.651	2791.7935	1225.25	339.25
1005.7706	2792.9757	1220.1	336.8
1005.8902	2794.1573	1232.4	342.35
1006.0097	2795.3382	1229.45	344.85
1006.1291	2796.5184	1227.3	343.9
1006.2485	2797.698	1229.95	345.15
1006.3679	2798.8769	1227.45	344.6
1006.4873	2800.0551	1229.75	345.2
1006.6066	2801.2327	1235.75	347.3
1006.7258	2802.4096	1228.65	342.1
1006.8451	2803.5859	1229.3	343.1
1006.9642	2804.7615	1233.9	350.1
1007.0834	2805.9364	1236.2	351.3
1007.2025	2807.1106	1239.2	354.75
1007.3216	2808.2842	1242.75	357.25
1007.4406	2809.4572	1251.5	366.85
1007.5596	2810.6294	1245	358.8
1007.6785	2811.801	1250.85	367.5
1007.7975	2812.972	1259.4	376.2
1007.9163	2814.1423	1254.3	369.5
1008.0352	2815.3119	1267.75	383.1
1008.154	2816.4808	1273.75	390.4
1008.2727	2817.6491	1282.35	396.15
1008.3914	2818.8167	1289.4	404.85
1008.5101	2819.9837	1297.55	406.3
1008.6288	2821.15	1306.45	422.3
1008.7474	2822.3157	1311.8	428
1008.8659	2823.4807	1317.8	432.95
1008.9844	2824.645	1330.55	442.85
1009.1029	2825.8086	1343.55	459.5
1009.2214	2826.9716	1345.5	461.9
1009.3398	2828.134	1351.1	468.25
1009.4581	2829.2957	1357.85	474.3
1009.5764	2830.4567	1364.25	481.05
1009.6947	2831.617	1372.55	487.65
1009.813	2832.7767	1375.25	490.6
1009.9312	2833.9358	1370.85	487.5
1010.0493	2835.0941	1370.2	483.65
1010.1675	2836.2519	1363.85	478.25
1010.2855	2837.4089	1364.7	480.2
1010.4036	2838.5653	1357	471.2
1010.5216	2839.7211	1353.15	471.25
1010.6396	2840.8761	1354.35	468.75
1010.7575	2842.0306	1355.15	471.65
1010.8754	2843.1843	1349	464.25
1010.9932	2844.3374	1360.3	474.9
1011.111	2845.4899	1368.95	483.8
1011.2288	2846.6417	1373.45	489.1
1011.3465	2847.7928	1379.8	494.55
1011.4642	2848.9433	1387.65	504.25
1011.5818	2850.0931	1400	515.4
1011.6995	2851.2422	1400.2	512.55
1011.817	2852.3907	1408.75	524.85
1011.9345	2853.5385	1421	533.4
1012.052	2854.6857	1444.45	553.3
1012.1695	2855.8323	1437.05	553.15
1012.2869	2856.9781	1443.4	558.2
1012.4042	2858.1233	1452.35	568.6
1012.5216	2859.2679	1456.5	571.95
1012.6389	2860.4118	1456.9	572.2
1012.7561	2861.555	1474.2	585.3
1012.8733	2862.6976	1474.45	587.05
1012.9905	2863.8395	1474.95	591.3
1013.1076	2864.9808	1478.9	595.15
1013.2247	2866.1214	1487.25	605.3
1013.3417	2867.2614	1493.6	608.35
1013.4587	2868.4007	1493.9	607.7
1013.5757	2869.5393	1493.7	608.6
1013.6926	2870.6773	1492.2	604
1013.8095	2871.8146	1496.75	609.35
1013.9263	2872.9513	1493.25	605.65
1014.0431	2874.0874	1490.95	606.85
1014.1599	2875.2227	1491.6	607.1
1014.2766	2876.3574	1482.65	599.3
1014.3933	2877.4915	1474.2	589.6
1014.51	2878.6249	1475.25	589.8
1014.6266	2879.7577	1474	586
1014.7431	2880.8898	1470.35	577.05
1014.8596	2882.0212	1466.65	582.3
1014.9761	2883.152	1458.05	575.6
1015.0925	2884.2821	1462.1	580.5
1015.2089	2885.4116	1455.9	572.9
1015.3253	2886.5405	1463.1	579.6
1015.4416	2887.6686	1462.55	576.25
1015.5579	2888.7962	1455.6	573
1015.6741	2889.923	1463.2	580.25
1015.7903	2891.0493	1456.35	572.8
1015.9065	2892.1748	1473.5	590.25
1016.0226	2893.2997	1459.55	575.15
1016.1387	2894.424	1464.15	581.05
1016.2547	2895.5476	1469	584.55
1016.3707	2896.6706	1472.45	588
1016.4866	2897.7929	1467.95	583.4
1016.6025	2898.9145	1473.7	588.9
1016.7184	2900.0355	1478.8	593.3
1016.8342	2901.1559	1487.7	601.5
1016.95	2902.2756	1481.8	595.9
1017.0658	2903.3946	1494.7	610.7
1017.1815	2904.513	1480.25	592.3
1017.2971	2905.6308	1493.3	609.2
1017.4127	2906.7479	1497.45	612.85
1017.5283	2907.8643	1499.75	614.35
1017.6439	2908.9801	1499.25	616.05
1017.7594	2910.0953	1505.55	619.85
1017.8748	2911.2098	1504.4	619.15
1017.9902	2912.3236	1496.7	604.05
1018.1056	2913.4368	1495	607.1
1018.2209	2914.5494	1482.85	597.4
1018.3362	2915.6613	1486.8	598.25
1018.4515	2916.7725	1476.8	587.55
1018.5667	2917.8831	1471.15	586.8
1018.6819	2918.9931	1477.5	592.45
1018.797	2920.1024	1467.6	582.45
1018.9121	2921.211	1459.05	577.75
1019.0271	2922.319	1448.95	563.65
1019.1421	2923.4264	1450.55	568
1019.2571	2924.5331	1449.55	565.8
1019.372	2925.6391	1442.55	558.95
1019.4869	2926.7445	1441.95	559.15
1019.6017	2927.8493	1437.35	552.25
1019.7165	2928.9534	1441.1	556.8
1019.8313	2930.0569	1444.7	556.55
1019.946	2931.1597	1448.4	563.65
1020.0606	2932.2619	1439.75	555.5
1020.1753	2933.3634	1444.2	560.95
1020.2899	2934.4643	1460.75	570.65
1020.4044	2935.5645	1450.75	560.5
1020.5189	2936.6641	1441.3	552.25
1020.6334	2937.763	1432.1	549.75
1020.7478	2938.8613	1429.3	545.25
1020.8622	2939.959	1421.15	532.75
1020.9765	2941.056	1415.15	531.85
1021.0908	2942.1523	1405.05	518.35
1021.2051	2943.248	1388.45	503.95
1021.3193	2944.3431	1373.3	489.25
1021.4334	2945.4375	1358.65	475.25
1021.5476	2946.5313	1337	453.05
1021.6617	2947.6244	1328.9	441.25
1021.7757	2948.7169	1309.95	424.15
1021.8897	2949.8087	1288.65	404.2
1022.0037	2950.8999	1277.6	393.7
1022.1176	2951.9904	1271.65	388.65
1022.2315	2953.0803	1256.75	370.75
1022.3453	2954.1696	1249	365.6
1022.4591	2955.2582	1234.75	353.15
1022.5728	2956.3462	1227.65	345.8
1022.6865	2957.4335	1227.7	341.25
1022.8002	2958.5202	1215	328.9
1022.9138	2959.6062	1213.35	330.05
1023.0274	2960.6916	1206.6	321.05
1023.141	2961.7764	1204.85	318.9
1023.2545	2962.8605	1201.75	315.4
1023.3679	2963.9439	1199.3	316.85
1023.4813	2965.0267	1193.4	309.9
1023.5947	2966.1089	1221.3	315.7
1023.708	2967.1905	1191.6	308.45
1023.8213	2968.2714	1193.15	310.2
1023.9346	2969.3516	1194.1	310.05
1024.0478	2970.4312	1197.05	306.9
1024.1609	2971.5102	1194.15	310.6
1024.274	2972.5885	1188.25	307.6
1024.3871	2973.6662	1196.75	307.65
1024.5002	2974.7432	1191.65	306.55
1024.6132	2975.8196	1191.65	308.35
1024.7261	2976.8954	1189.35	303
1024.839	2977.9705	1183.6	300.55
1024.9519	2979.045	1193.1	307.85
1025.0647	2980.1188	1178	293.8
1025.1775	2981.192	1181.55	299.45
1025.2902	2982.2645	1180.5	296.2
1025.4029	2983.3364	1176.4	291.95
1025.5156	2984.4077	1167.95	284.7
1025.6282	2985.4783	1168.25	277.25
1025.7407	2986.5483	1155.5	274
1025.8532	2987.6177	1149.65	269.1
1025.9657	2988.6864	1136.3	252.5
1026.0782	2989.7545	1144.5	258
1026.1906	2990.8219	1135.35	250
1026.3029	2991.8887	1128.1	243.5
1026.4152	2992.9548	1123.15	238.6
1026.5275	2994.0204	1115.8	233.7
1026.6397	2995.0852	1110.15	228.45
1026.7519	2996.1495	1108.9	224.8
1026.864	2997.2131	1097.5	214.3
1026.9761	2998.276	1096.65	211.95
1027.0882	2999.3383	1092.3	208.35
1027.2002	3000.4	1090	204.35
1027.3122	3001.4611	1084.3	199.9
1027.4241	3002.5215	1078.7	194.15
1027.536	3003.5812	1081.75	198.85
1027.6478	3004.6404	1075.9	192
1027.7596	3005.6989	1072.5	187.9
1027.8714	3006.7567	1069.2	184.45
1027.9831	3007.8139	1085.9	179.95
1028.0947	3008.8705	1068.15	186.8
1028.2064	3009.9264	1081.4	183.35
1028.3179	3010.9818	1060.7	177.4
1028.4295	3012.0364	1061.3	175.9
1028.541	3013.0905	1061.1	178.05
1028.6524	3014.1439	1060.65	176
1028.7638	3015.1966	1056.2	173.55
1028.8752	3016.2487	1051.85	168.35
1028.9865	3017.3002	1055.4	167.95
1029.0978	3018.3511	1056.7	173.7
1029.209	3019.4013	1053.55	170.15
1029.3202	3020.4509	1052.95	172.1
1029.4314	3021.4998	1056.9	174.9
1029.5425	3022.5481	1048.1	165.3
1029.6535	3023.5958	1043.9	160.8
1029.7645	3024.6428	1049.4	165.9
1029.8755	3025.6892	1048.3	165.5
1029.9864	3026.735	1043.2	159.6
1030.0973	3027.7802	1046.9	163.75
1030.2082	3028.8247	1042.7	157.4
1030.319	3029.8685	1045.25	162.3
1030.4297	3030.9118	1052.25	166.7
1030.5404	3031.9544	1044.05	159.75
1030.6511	3032.9963	1050.2	167.25
1030.7617	3034.0376	1045	160.25
1030.8723	3035.0783	1045.85	160.8
1030.9829	3036.1184	1044.35	158.4
1031.0934	3037.1578	1043.15	161.9
1031.2038	3038.1966	1043.1	158.3
1031.3142	3039.2348	1040.05	156.4
1031.4246	3040.2723	1053.25	159.8
1031.5349	3041.3092	1041.85	159.3
1031.6452	3042.3455	1042.2	161
1031.7554	3043.3811	1043.7	158
1031.8656	3044.4161	1040.65	156.95
1031.9758	3045.4505	1040.95	159.25
1032.0859	3046.4842	1038.2	153.3
1032.1959	3047.5173	1040.65	157.85
1032.3059	3048.5498	1040.45	157.4
1032.4159	3049.5816	1037.45	151.55
1032.5258	3050.6128	1036.7	154.1
1032.6357	3051.6434	1041.9	157.5
1032.7455	3052.6734	1040.2	156.5
1032.8553	3053.7027	1034.85	151.25
1032.9651	3054.7314	1037	153.85
1033.0748	3055.7594	1033.3	149.6
1033.1845	3056.7868	1036.3	151.5
1033.2941	3057.8136	1033.9	152.15
1033.4037	3058.8398	1032.5	149.35
1033.5132	3059.8653	1030.1	147
1033.6227	3060.8902	1027.85	143.4
1033.7321	3061.9145	1032.6	150.3
1033.8415	3062.9381	1030.5	147.15
1033.9509	3063.9612	1044.7	147.65
1034.0602	3064.9835	1031.3	145.2
1034.1694	3066.0053	1028.35	143.15
1034.2787	3067.0264	1024.9	142.2
1034.3878	3068.0469	1023.3	138.45
1034.497	3069.0668	1031.35	146
1034.6061	3070.086	1021.9	138.95
1034.7151	3071.1046	1024.15	137.55
1034.8241	3072.1226	1020.2	136.85
1034.9331	3073.1399	1020.75	138.7
1035.042	3074.1567	1016	132.8
1035.1508	3075.1727	1024.2	139.55
1035.2597	3076.1882	1018.75	136.8
1035.3684	3077.203	1015.1	132.2
1035.4772	3078.2173	1012.4	127.8
1035.5859	3079.2308	1015.3	127.7
1035.6945	3080.2438	1012.45	125.65
1035.8031	3081.2561	1005.35	123.35
1035.9117	3082.2678	1004.05	121.75
1036.0202	3083.2789	1007.15	123.2
1036.1286	3084.2893	1001.95	120.8
1036.2371	3085.2991	1003.9	122.4
1036.3454	3086.3083	1003.95	115.1
1036.4538	3087.3169	1004.75	121
1036.562	3088.3248	1000.75	115.3
1036.6703	3089.3321	998.55	114.7
1036.7785	3090.3388	999.1	117.8
1036.8866	3091.3449	997.7	116.1
1036.9948	3092.3503	995.6	111.15
1037.1028	3093.3551	994.3	113.35
1037.2108	3094.3593	989.3	107.7
1037.3188	3095.3629	994.5	112.65
1037.4267	3096.3658	989.65	104.7
1037.5346	3097.3681	994.65	111.35
1037.6425	3098.3698	991.65	107.4
1037.7503	3099.3708	993.2	104.4
1037.858	3100.3713	989.85	106.25
1037.9657	3101.3711	990.5	109.75
1038.0734	3102.3702	1128.6	105.15
1038.181	3103.3688	990.7	104.7
1038.2886	3104.3667	984.1	103.5
1038.3961	3105.364	986.65	103.3
1038.5036	3106.3607	983.85	100.3
1038.611	3107.3568	986	103.1
1038.7184	3108.3522	981.4	98.1
1038.8257	3109.347	983.55	98.15
1038.933	3110.3412	989.55	102.45
1039.0403	3111.3348	977.7	94.75
1039.1475	3112.3277	978.25	94.4
1039.2547	3113.32	977.6	93.25
1039.3618	3114.3117	977.2	92.7
1039.4689	3115.3028	977.65	96.05
1039.5759	3116.2932	979.75	95.15
1039.6829	3117.2831	980.5	93.2
1039.7898	3118.2723	973.7	90
1039.8967	3119.2608	972.5	89.6
1040.0035	3120.2488	971.75	88.9
1040.1103	3121.2361	973.45	91.25
1040.2171	3122.2229	973.7	89.9
1040.3238	3123.209	972.05	85.5
1040.4305	3124.1944	972.95	89.8
1040.5371	3125.1793	974.75	90.25
1040.6437	3126.1635	971.05	87.95
1040.7502	3127.1471	970	87
1040.8567	3128.1301	970.3	89.55
1040.9631	3129.1125	967.7	85.95
1041.0695	3130.0942	970.15	87.15
1041.1759	3131.0753	974.75	82.7
1041.2822	3132.0558	972.4	86.1
1041.3884	3133.0357	969.9	86.45
1041.4946	3134.015	965.1	81.6
1041.6008	3134.9936	967.1	81
1041.7069	3135.9716	986.85	81
1041.813	3136.949	967.35	83.4
1041.919	3137.9258	985.2	82.2
1042.025	3138.902	971	82.25
1042.1309	3139.8775	964.45	81.9
1042.2368	3140.8524	965.05	81.8
1042.3427	3141.8267	965.8	80.2
1042.4485	3142.8004	963.35	81.3
1042.5542	3143.7735	970.8	83.05
1042.6599	3144.7459	967.35	81.45
1042.7656	3145.7178	961.2	77.15
1042.8712	3146.689	959.2	77.55
1042.9768	3147.6596	963.95	81.15
1043.0823	3148.6295	958.5	75.7
1043.1878	3149.5989	959.45	76.6
1043.2932	3150.5676	957.85	74.2
1043.3986	3151.5357	955.05	72.4
1043.5039	3152.5032	958.5	74.4
1043.6092	3153.4701	959.4	76.4
1043.7145	3154.4364	961.45	74.55
1043.8197	3155.402	957.35	76.05
1043.9248	3156.367	960.75	75.9
1044.03	3157.3315	980.3	74.6
1044.135	3158.2952	956.85	72.1
1044.24	3159.2584	956.05	73.15
1044.345	3160.221	954	69.7
1044.4499	3161.1829	955.3	73.7
1044.5548	3162.1442	953.55	69.8
1044.6596	3163.105	957.85	74.9
1044.7644	3164.065	951.65	69.1
1044.8692	3165.0245	956.85	70.9
1044.9739	3165.9834	953.4	70.45
1045.0785	3166.9416	955.6	70.55
1045.1831	3167.8993	954.2	70.2
1045.2877	3168.8563	952.1	70.4
1045.3922	3169.8127	951.8	69.75
1045.4966	3170.7684	950.8	68.45
1045.6011	3171.7236	948.3	64.15
1045.7054	3172.6782	951.85	68.3
1045.8098	3173.6321	954.1	69.85
1045.914	3174.5854	958.6	71.9
1046.0183	3175.5381	953	70.7
1046.1224	3176.4902	947.5	63.3
1046.2266	3177.4417	948.7	67.05
1046.3307	3178.3926	949.35	67.4
1046.4347	3179.3428	946.65	65.25
1046.5387	3180.2924	948.55	66.1
1046.6427	3181.2415	948.2	66.1
1046.7466	3182.1899	947.1	62.6
1046.8504	3183.1377	946.7	65.25
1046.9542	3184.0848	947.1	59.75
1047.058	3185.0314	946.85	63.8
1047.1617	3185.9773	945.75	61.8
1047.2654	3186.9227	948.2	60.9
1047.369	3187.8674	945.3	61.05
1047.4726	3188.8115	946.75	59.1
1047.5761	3189.755	943.65	60.5
1047.6796	3190.6979	941.85	58.55
1047.783	3191.6402	941.15	59.35
1047.8864	3192.5818	943.75	59.4
1047.9898	3193.5229	948.7	61.15
1048.0931	3194.4633	947.3	65.55
1048.1963	3195.4031	941.95	59.65
1048.2995	3196.3423	941.05	57.6
1048.4027	3197.2809	943.35	59.65
1048.5058	3198.2189	941.25	58.2
1048.6089	3199.1563	945.85	54.75
1048.7119	3200.0931	939.55	57.6
1048.8148	3201.0292	939.25	56.4
1048.9178	3201.9648	938.1	54.2
1049.0206	3202.8997	941.25	54.75
1049.1235	3203.834	937.15	52.95
1049.2262	3204.7677	939.75	56.65
1049.329	3205.7008	940.2	54.7
1049.4317	3206.6333	936.15	53.85
1049.5343	3207.5652	939.25	56.6
1049.6369	3208.4964	936	52.35
1049.7394	3209.4271	935.1	51.85
1049.8419	3210.3571	935.2	53.2
1049.9444	3211.2865	936.95	53.2
1050.0468	3212.2154	938	54.95
1050.1491	3213.1436	936.5	50.55
1050.2514	3214.0712	941.05	50.75
1050.3537	3214.9982	937.05	54.2
1050.4559	3215.9246	935.2	50.65
1050.5581	3216.8503	934.2	52.25
1050.6602	3217.7755	933.15	50.05
1050.7623	3218.7001	931.5	48.6
1050.8643	3219.624	934.8	53.4
1050.9663	3220.5473	933.4	49.65
1051.0682	3221.4701	935.55	49.45
1051.1701	3222.3922	938.3	53.4
1051.2719	3223.3137	933	49.65
1051.3737	3224.2346	935.6	53.75
1051.4754	3225.1549	931.1	46.95
1051.5771	3226.0746	930.2	47.9
1051.6788	3226.9937	933.5	51.6
1051.7804	3227.9121	930.75	47.9
1051.8819	3228.83	932.55	50.5
1051.9834	3229.7473	932.4	48.4
1052.0849	3230.6639	931.7	48.05
1052.1863	3231.5799	930.3	46.45
1052.2876	3232.4954	932.1	49.75
1052.3889	3233.4102	929.4	46.8
1052.4902	3234.3244	932.1	47.85
1052.5914	3235.238	931.95	47.95
1052.6926	3236.151	954.05	45.7
1052.7937	3237.0634	930.6	46.95
1052.8948	3237.9752	926.4	44.4
1052.9958	3238.8864	930.4	47.3
1053.0968	3239.797	927.9	43.55
1053.1977	3240.7069	927.65	44.1
1053.2986	3241.6163	926.45	41.45
1053.3994	3242.5251	928.7	45.95
1053.5002	3243.4332	927.1	45.3
1053.6009	3244.3408	926.2	43
1053.7016	3245.2477	925.1	42.55
1053.8022	3246.154	928.85	45.9
1053.9028	3247.0598	926.85	45.45
1054.0034	3247.9649	924.75	41.8
1054.1039	3248.8694	925.3	44.95
1054.2043	3249.7733	925.2	41.5
1054.3047	3250.6766	923.45	41.75
1054.4051	3251.5793	925.75	40.35
1054.5054	3252.4814	921.75	38.6
1054.6056	3253.3829	924.95	43.2
1054.7058	3254.2838	921.95	40.45
1054.806	3255.1841	922.3	38.65
1054.9061	3256.0838	923.35	41
1055.0061	3256.9829	920.7	39.6
1055.1062	3257.8814	922.35	38.7
1055.2061	3258.7792	924.5	41.1
1055.306	3259.6765	923.9	41.45
1055.4059	3260.5731	920.05	37.15
1055.5057	3261.4692	919	35.7
1055.6055	3262.3647	922.25	39.45
1055.7052	3263.2595	917.85	34.4
1055.8049	3264.1538	919.35	36.4
1055.9045	3265.0474	918.9	35.65
1056.0041	3265.9404	916.6	34.65
1056.1036	3266.8329	918.3	35.5
1056.2031	3267.7247	928.25	36.25
1056.3025	3268.616	915.8	34.3
1056.4019	3269.5066	916	33.7
1056.5013	3270.3966	916.45	31.9
1056.6005	3271.286	913.05	32.1
